-0.244452
-0.303411
-0.397617
-0.52561
-0.680904
-0.858461
-1.05173
-1.25438
-1.02938
0
2.06323
5.14755
8.87147
12.4625
14.9529
15.5545
14.0354
10.8686
7.03714
3.58834
1.18989
-0.0648232
-0.530063
-0.666149
-0.745867
-0.812029
-0.858391
-0.880088
-0.873971
-0.8386
-0.773976
-0.681224
-0.555548
-0.38277
-0.159707
0.0742898
0.264068
0.35543
0.318978
0.168275
-0.0388971
-0.219425
-0.297167
-0.245357
-0.120935
0.0381006
0.217688
0.407625
0.599742
0.78901
0.973354
1.1531
1.33009
1.50671
1.68504
1.86627
2.05042
2.23628
2.42148
2.60244
2.77381
2.92914
3.06219
3.16707
3.23883
3.2739
3.27032
3.22779
3.14756
3.03242
2.88802
2.72142
2.53897
2.34673
2.15063
1.95606
1.76741
1.58831
1.42177
1.27018
1.13536
1.01905
0.924039
0.84962
0.789479
0.735492
0.679899
0.617649
0.547936
0.474254
0.402883
0.340421
0.289991
0.251086
0.223256
0.202599
0.184722
0.166685
0.148477
0.133478
0.12764
0.137613
0.168422
0.224337
0.302816
0.393554
0.481588
0.552107
0.594196
0.603372
0.582503
0.541096
0.493188
0.45423
0.437526
0.449023
0.487486
0.553212
0.63276
0.707503
0.760502
0.781608
0.770109
0.733978
0.686258
0.640418
0.606918
0.588691
0.586038
0.601065
0.635407
0.689784
0.763088
0.854334
0.955172
1.05338
1.13671
1.19659
1.23104
1.24561
1.25222
1.266
1.30205
1.39108
1.55015
1.73932
1.89808
1.96993
1.92516
1.77197
1.55121
1.31764
1.11814
0.97042
0.858014
0.767789
0.694293
0.634515
0.584929
0.539573
0.490543
0.429692
0.349933
0.246623
0.118527
-0.0319424
-0.19929
-0.392425
0
1.20526
3.48252
6.80441
10.6744
14.1704
16.2711
16.3091
14.2879
10.8759
7.09007
3.86135
1.70988
0.656139
0.357356
0.333411
0.323371
0.317494
0.317181
0.32322
0.334647
0.349345
0.365037
0.380259
0.395128
0.411565
0.432936
0.463195
0.505867
0.562205
0.63186
0.71377
0.806044
0.906527
1.01302
1.12421
1.24019
1.3625
1.49386
1.63744
1.79595
1.97072
2.16101
2.36358
2.57378
2.78398
2.98133
3.15181
3.28459
3.37408
3.42188
3.43737
3.43616
3.43639
3.45377
3.49698
3.56933
3.65707
3.73852
3.79097
3.7968
3.74681
3.64038
3.48318
3.28426
3.05429
2.80687
2.55399
2.30465
2.06557
1.84222
1.64157
1.46891
1.32013
1.18735
1.06177
0.936881
0.810788
0.686532
0.570615
0.470526
0.391111
0.333854
0.300867
0.293991
0.313544
0.358735
0.428733
0.522555
0.627229
0.726923
0.80727
0.859494
0.882118
0.879489
0.858207
0.823791
0.780603
0.731407
0.679008
0.628159
0.58548
0.558205
0.552325
0.568863
0.605524
0.659649
0.726556
0.799974
0.87293
0.936538
0.981856
1.0007
0.986847
0.9375
0.854553
0.745266
0.621926
0.500336
0.397266
0.325747
0.295374
0.32424
0.423263
0.560863
0.696401
0.794896
0.839705
0.838208
0.81815
0.816099
0.862829
0.969335
1.11584
1.28945
1.4686
1.62792
1.7445
1.80218
1.79167
1.71078
1.56527
1.3698
1.1474
0.926204
0.733337
0.582383
0.468038
0.384212
0.323571
0.272692
0.215775
0.138023
0.0284973
-0.11778
-0.298854
-0.506165
-0.726139
-0.828296
0
1.99836
5.12181
8.90503
12.5483
15.1522
16.0266
14.9522
12.2753
8.7735
5.34458
2.66705
1.00091
0.210235
-0.025124
-0.0430941
-0.0563894
-0.0650259
-0.0688437
-0.0686028
-0.0660982
-0.0635788
-0.0627943
-0.0641636
-0.0662107
-0.06549
-0.0570823
-0.0355568
0.00385628
0.0636739
0.143396
0.241199
0.353743
0.476351
0.603633
0.730265
0.851452
0.963469
1.06414
1.15359
1.23441
1.31145
1.39124
1.4811
1.58773
1.71583
1.86683
2.03818
2.22311
2.41258
2.59674
2.76592
2.91186
3.02829
3.11105
3.15727
3.16504
3.13429
3.06616
2.96349
2.8315
2.67813
2.51383
2.3506
2.2008
2.08065
2.00508
1.96894
1.95194
1.92669
1.86663
1.75323
1.5804
1.3556
1.09777
0.832806
0.584869
0.366396
0.181392
0.03534
-0.0711124
-0.142622
-0.185894
-0.207584
-0.212756
-0.20433
-0.183568
-0.151209
-0.108655
-0.0591571
-0.00622396
0.0463885
0.0956239
0.139913
0.179444
0.215762
0.250824
0.285801
0.319745
0.347688
0.361814
0.354565
0.322641
0.270125
0.209212
0.157811
0.134553
0.152839
0.227597
0.345985
0.478717
0.592432
0.661193
0.674067
0.636355
0.56526
0.482914
0.409916
0.35566
0.321781
0.309019
0.317741
0.347225
0.395465
0.459391
0.535098
0.618374
0.704343
0.788169
0.866144
0.936158
0.997788
1.05192
1.1
1.14274
1.17984
1.20967
1.22941
1.23587
1.22622
1.19823
1.14988
1.07872
0.981599
0.858087
0.705284
0.508836
0.261285
-0.0140251
-0.280611
-0.504991
-0.66722
-0.764255
-0.805953
-0.807661
-0.784429
-0.721357
0
1.66002
4.37283
7.87255
11.5105
14.4213
15.8221
15.3289
13.1381
9.94818
6.64375
3.91152
2.01166
0.818407
0.0546851
-0.0938328
-0.172335
-0.223779
-0.246072
-0.241947
-0.217944
-0.182623
-0.144476
-0.109958
-0.0825961
-0.0628038
-0.0483127
-0.035026
-0.017964
0.00769138
0.0460031
0.100691
0.174522
0.268939
0.383661
0.516415
0.663079
0.818096
0.975589
1.1306
1.28017
1.42394
1.56402
1.70428
1.84911
2.00217
2.1649
2.33679
2.5152
2.69526
2.86867
3.02597
3.15857
3.26053
3.32975
3.36829
3.38156
3.37667
3.36012
3.33579
3.3042
3.26197
3.20266
3.1187
3.00315
2.85155
2.66337
2.44258
2.1972
1.938
1.6767
1.42367
1.18649
0.97105
0.781155
0.618992
0.485587
0.381088
0.305227
0.259342
0.246116
0.259284
0.281826
0.296009
0.288886
0.256763
0.206244
0.15101
0.105718
0.0800601
0.0727503
0.0786741
0.0936626
0.114123
0.138138
0.165179
0.194861
0.225331
0.251886
0.268426
0.270209
0.256904
0.234489
0.21508
0.240252
0.483705
0.951018
1.47596
1.8331
1.84827
1.48783
0.878652
0.247716
-0.175697
-0.239594
-0.151975
-0.0194095
0.138917
0.311101
0.485189
0.65106
0.801678
0.932112
1.04011
1.1249
1.18886
1.23606
1.27154
1.30078
1.32903
1.36067
1.39842
1.44301
1.49249
1.54217
1.58569
1.61622
1.62764
1.61548
1.57739
1.51322
1.42483
1.31645
1.19344
1.06124
0.925034
0.789333
0.657459
0.531201
0.410582
0.293981
0.178658
0.0608504
-0.0634147
-0.19603
-0.336466
-0.485119
0
1.55742
4.41873
8.3583
12.6054
16.037
17.6234
16.9176
14.2878
10.7246
7.31838
4.73728
3.03339
1.85955
0.880164
0.667068
0.52535
0.432201
0.39158
0.396917
0.434604
0.489032
0.547398
0.603335
0.655589
0.705593
0.756302
0.810768
0.870927
0.937494
1.00973
1.08612
1.16501
1.24515
1.3258
1.40674
1.48806
1.57026
1.65451
1.74299
1.83912
1.94729
2.07199
2.21669
2.38261
2.56707
2.76496
2.97019
3.17598
3.37593
3.56489
3.73941
3.89658
4.03308
4.14551
4.23127
4.28647
4.30624
4.28604
4.22311
4.11765
3.97326
3.7968
3.59762
3.38745
3.17683
2.97409
2.78574
2.6169
2.47085
2.35064
2.25595
2.17752
2.10358
2.02272
1.92661
1.81164
1.67912
1.53401
1.38307
1.23333
1.09081
0.964739
0.862845
0.792688
0.760034
0.766552
0.808082
0.874632
0.952427
1.02734
1.08849
1.13407
1.165
1.18272
1.19021
1.19111
1.18918
1.18757
1.18878
1.1947
1.20651
1.22461
1.24856
1.27698
1.30731
1.3361
1.35943
1.37326
1.37394
1.35855
1.32532
1.27404
1.20626
1.12285
1.03102
0.946827
0.888405
0.87157
0.905317
0.988901
1.11177
1.25646
1.40346
1.53688
1.65235
1.74928
1.82788
1.8904
1.9398
1.97726
2.00466
2.02303
2.03332
2.03809
2.04269
2.05522
2.08731
2.16585
2.30949
2.47983
2.60934
2.62618
2.48198
2.17271
1.74599
1.29118
0.911921
0.671834
0.541146
0.551363
0.647785
0.7521
0.790254
0.715792
0.520102
0.228663
-0.110872
0
1.08759
3.29981
6.54248
10.3562
13.9559
16.4316
17.071
15.6666
12.6349
8.87168
5.39527
2.94943
1.75272
1.49794
1.33487
1.03853
0.73823
0.463918
0.247424
0.114123
0.0752561
0.12475
0.242124
0.399714
0.570298
0.733273
0.872509
0.976739
1.03875
1.05668
1.03615
0.991526
0.944455
0.919371
0.937103
1.00555
1.1131
1.24781
1.40216
1.56909
1.74235
1.91748
2.09224
2.26626
2.4402
2.61468
2.78927
2.96189
3.12865
3.28408
3.42239
3.53831
3.62788
3.68867
3.7198
3.72149
3.69469
3.6409
3.56223
3.46224
3.34529
3.21705
3.08392
2.95198
2.826
2.70827
2.59472
2.47612
2.34091
2.17892
1.98506
1.76155
1.5181
1.26989
1.0341
0.822473
0.64083
0.494515
0.383923
0.305906
0.255247
0.226179
0.21365
0.21406
0.225421
0.247046
0.278956
0.32076
0.371859
0.431463
0.497206
0.562075
0.615959
0.648739
0.653197
0.627496
0.576084
0.508471
0.436328
0.370158
0.31571
0.273324
0.243379
0.226598
0.22397
0.237006
0.267467
0.316742
0.38756
0.480937
0.591087
0.701523
0.792191
0.846114
0.854651
0.820522
0.757315
0.685317
0.62493
0.590132
0.58033
0.586426
0.601858
0.620747
0.63848
0.652966
0.665121
0.678491
0.698219
0.72956
0.776295
0.840178
0.920737
1.01564
1.12169
1.2351
1.3517
1.46579
1.56707
1.64376
1.68304
1.67386
1.61057
1.49588
1.34136
1.16516
0.987529
0.825806
0.684786
0.563492
0.461604
0.376234
0.302785
0.23461
0.164125
0.0845449
-0.00932283
-0.120468
-0.246804
-0.382898
-0.562083
0
1.61419
4.38492
8.03857
11.884
14.9672
16.4121
15.8056
13.399
9.98568
6.50889
3.64222
1.59958
0.252646
-0.595659
-0.555034
-0.429246
-0.258204
-0.0654662
0.110013
0.2299
0.271448
0.235045
0.142814
0.0311854
-0.0587028
-0.0959805
-0.0785546
-0.0148791
0.0853985
0.215022
0.36357
0.516337
0.65997
0.785457
0.889949
0.976906
1.05464
1.13383
1.22483
1.33403
1.46301
1.61156
1.77807
1.95892
2.14888
2.34157
2.52879
2.70273
2.85731
2.98911
3.09763
3.18479
3.25373
3.3061
3.3434
3.36488
3.36786
3.34873
3.30416
3.2321
3.13228
3.00631
2.85748
2.69174
2.51441
2.32936
2.13922
1.94517
1.74722
1.54454
1.33635
1.12308
0.907372
0.694568
0.492435
0.310169
0.156743
0.0401761
-0.0292439
-0.0390751
0.0164408
0.116097
0.221674
0.297169
0.318052
0.277335
0.186535
0.0707996
-0.0403149
-0.122677
-0.169642
-0.189966
-0.191551
-0.177808
-0.151611
-0.115708
-0.0723715
-0.023503
0.0293964
0.085647
0.145598
0.210629
0.282799
0.3657
0.462514
0.571915
0.686002
0.789661
0.863558
0.889322
0.853786
0.753066
0.595618
0.402912
0.206296
0.0398895
-0.068543
-0.117969
-0.118074
-0.0755471
-0.001437
0.0919699
0.193572
0.296209
0.396887
0.494698
0.590125
0.684264
0.778008
0.871382
0.962969
1.04985
1.12848
1.19579
1.25021
1.29211
1.32346
1.34671
1.36324
1.37196
1.36923
1.34912
1.30518
1.23256
1.12974
0.999391
0.848172
0.68564
0.522694
0.368178
0.228935
0.110834
0.017093
-0.051566
-0.0967662
-0.122007
-0.131931
-0.131448
-0.12492
-0.115614
-0.105166
0
0.927274
3.06866
6.44536
10.5524
14.4089
16.8631
17.0715
14.9292
11.1788
7.08087
3.80805
1.92007
1.23135
1.10568
0.789401
0.509876
0.251424
0.0251637
-0.159479
-0.290528
-0.337953
-0.253276
-0.0554687
0.171044
0.339574
0.390877
0.317676
0.170922
0.037842
-0.00228043
0.0800677
0.225088
0.385419
0.544376
0.691349
0.822747
0.941422
1.05413
1.16813
1.28821
1.41428
1.5443
1.67542
1.80497
1.93173
2.05674
2.1835
2.31741
2.46472
2.63133
2.82948
3.07832
3.37094
3.66233
3.90079
4.0459
4.08038
4.01105
3.85973
3.6513
3.40723
3.14913
2.89285
2.64588
2.41248
2.19573
1.99527
1.80823
1.63081
1.46031
1.29675
1.14319
1.00467
0.889032
0.802245
0.740978
0.696542
0.658081
0.616219
0.56519
0.502707
0.428367
0.342282
0.246797
0.145437
0.0430024
-0.0508561
-0.123387
-0.161435
-0.154858
-0.0993604
0.00231218
0.143483
0.315651
0.501859
0.672763
0.799543
0.855685
0.820014
0.685361
0.467534
0.207123
-0.0398443
-0.219777
-0.314775
-0.351907
-0.345633
-0.303739
-0.236154
-0.15305
-0.0639611
0.0245021
0.107816
0.182353
0.244683
0.291176
0.319327
0.327755
0.316447
0.287271
0.244156
0.192702
0.139237
0.0895866
0.0479964
0.016583
-0.00418987
-0.0146047
-0.0145193
-0.00253601
0.0240697
0.0685753
0.133465
0.219029
0.321587
0.435913
0.553772
0.665292
0.759971
0.828075
0.862727
0.860075
0.819686
0.744756
0.642038
0.521325
0.394327
0.272949
0.166915
0.0804842
0.0145301
-0.0320958
-0.0667484
-0.10312
-0.156698
-0.241706
-0.368259
-0.540334
-0.754912
-1.0024
-1.27487
-1.093
0
2.23895
5.55432
9.44927
13.0436
15.3427
15.6437
13.8652
10.5951
6.81176
3.44235
1.02003
-0.390328
-1.02719
-1.03179
-0.954958
-0.872848
-0.789855
-0.711238
-0.641826
-0.585059
-0.54223
-0.512146
-0.491318
-0.474698
-0.45673
-0.432402
-0.398105
-0.352427
-0.295131
-0.226037
-0.145032
-0.0521421
0.0523224
0.167446
0.291448
0.421954
0.555118
0.686597
0.813389
0.935172
1.05504
1.17926
1.31599
1.4732
1.65631
1.86653
2.10753
2.36666
2.61361
2.8169
2.95311
3.01338
3.00523
2.94925
2.872
2.7977
2.74043
2.69819
2.66371
2.62972
2.58747
2.52743
2.44086
2.32116
2.16513
1.97382
1.75273
1.51133
1.26167
1.01652
0.786636
0.580965
0.403949
0.256009
0.134346
0.0342592
-0.0494176
-0.121124
-0.18381
-0.238654
-0.285188
-0.321963
-0.346307
-0.355767
-0.34867
-0.324733
-0.284038
-0.230488
-0.171679
-0.115948
-0.0702479
-0.0381711
-0.0187348
-0.00633535
0.00806904
0.0348333
0.0869952
0.185887
0.333645
0.498534
0.637655
0.712663
0.702731
0.610085
0.457579
0.281264
0.121579
0.00898991
-0.0526005
-0.0700771
-0.0505603
0.00172033
0.0834533
0.183136
0.28505
0.374884
0.442645
0.484294
0.501635
0.500615
0.488797
0.473084
0.458482
0.447929
0.444231
0.450801
0.472035
0.51291
0.57785
0.669255
0.784983
0.921614
1.07215
1.22443
1.36493
1.48123
1.56361
1.60598
1.60603
1.5649
1.48673
1.37831
1.24944
1.11064
0.972079
0.842867
0.729719
0.63665
0.565952
0.515908
0.481954
0.457499
0.434923
0.406574
0.36561
0.306705
0.226545
0.124166
0.00108862
-0.138803
-0.320325
0
1.4014
4.0535
7.66016
11.4691
14.4976
15.9006
15.317
13.0164
9.76362
6.47405
3.8463
2.15406
1.2685
0.849766
0.655327
0.492542
0.34822
0.228023
0.13511
0.0699837
0.0308296
0.0142992
0.0165697
0.034412
0.0656861
0.110006
0.168503
0.24288
0.334363
0.442896
0.569253
0.707963
0.845761
0.968549
1.06579
1.13413
1.17898
1.21337
1.25486
1.3214
1.42411
1.56276
1.73624
1.94315
2.17906
2.43643
2.70624
2.97527
3.22736
3.44812
3.62719
3.75978
3.84702
3.89498
3.91252
3.90872
3.89048
3.8618
3.82306
3.7715
3.70314
3.61407
3.50168
3.36541
3.20708
3.03073
2.84236
2.64864
2.45564
2.26857
2.09143
1.92668
1.77518
1.63645
1.50908
1.39123
1.28112
1.1774
1.07931
0.986721
0.900036
0.820006
0.747592
0.683899
0.629949
0.58652
0.554098
0.532801
0.522343
0.522046
0.530902
0.547632
0.570721
0.598622
0.629338
0.660481
0.689592
0.714446
0.733443
0.746023
0.752992
0.756636
0.760563
0.769141
0.786731
0.816805
0.860987
0.919518
0.989016
1.06209
1.12982
1.18367
1.2173
1.2277
1.21555
1.18481
1.14167
1.09355
1.04778
1.01053
0.986823
0.980767
0.996636
1.0417
1.13099
1.2845
1.48616
1.68097
1.80507
1.81023
1.68924
1.48855
1.29693
1.20903
1.27935
1.45152
1.6628
1.88229
2.08092
2.23678
2.3372
2.37741
2.35751
2.27991
2.1507
1.98128
1.78128
1.56448
1.34772
1.14812
0.977962
0.843177
0.750807
0.688198
0.633453
0.56233
0.454746
0.299658
0.0971452
-0.142325
-0.400655
0
1.29674
3.60793
6.87782
10.7322
14.4318
17.0389
17.7789
16.405
13.3356
9.4658
5.77308
2.94755
1.22105
0.426299
0.268385
0.280152
0.304054
0.344987
0.409624
0.502313
0.612645
0.718362
0.795435
0.826054
0.805265
0.743613
0.664583
0.597564
0.568779
0.586618
0.641344
0.721396
0.817981
0.923531
1.03086
1.13425
1.23027
1.31825
1.40016
1.48014
1.56369
1.6567
1.76444
1.89058
2.03648
2.20088
2.37977
2.56746
2.75498
2.93219
3.09037
3.22386
3.33107
3.4143
3.47856
3.52959
3.57161
3.60432
3.62171
3.6128
3.5641
3.46424
3.30845
3.10078
2.85347
2.58353
2.30793
2.03882
1.77976
1.53201
1.29604
1.07198
0.860545
0.663669
0.484478
0.326643
0.193927
0.0893861
0.0144443
-0.0270343
-0.0307524
-0.00681591
0.0277321
0.0558112
0.0650946
0.0514622
0.0196445
-0.0191998
-0.051869
-0.0676339
-0.0654245
-0.0488559
-0.0211184
0.0142147
0.0520608
0.0864009
0.112003
0.125487
0.126078
0.115911
0.0996892
0.0836904
0.0742848
0.0763378
0.0911914
0.118827
0.15546
0.193849
0.225978
0.245484
0.249399
0.238896
0.218833
0.196247
0.178277
0.170251
0.173814
0.187366
0.208853
0.236211
0.267703
0.302364
0.340046
0.38114
0.426195
0.475498
0.529068
0.586922
0.649135
0.715889
0.78742
0.863797
0.944586
1.02856
1.11343
1.19546
1.26999
1.33213
1.37753
1.40302
1.40704
1.3896
1.35214
1.29705
1.2275
1.14734
1.06013
0.968939
0.876347
0.784232
0.693497
0.603879
0.513971
0.421442
0.323355
0.216062
0.0943451
-0.0466413
-0.203818
-0.371846
-0.545242
-0.719807
0
1.54042
3.9098
6.96453
10.3633
13.5376
15.7547
16.3423
15.0154
12.1022
8.46783
5.12788
2.77202
1.50464
0.946235
0.522672
0.121599
-0.238192
-0.519245
-0.689779
-0.733863
-0.657767
-0.489387
-0.271141
-0.0492653
0.13785
0.283841
0.398154
0.48721
0.555319
0.60834
0.651618
0.689005
0.723652
0.75716
0.792147
0.83467
0.894819
0.98457
1.11344
1.28378
1.48982
1.71339
1.93082
2.12056
2.27
2.37887
2.4581
2.52489
2.59611
2.6826
2.7831
2.8921
3.0038
3.11188
3.2102
3.29335
3.35719
3.3991
3.41767
3.41243
3.38377
3.33288
3.26176
3.17295
3.06922
2.95288
2.82515
2.68438
2.52751
2.35078
2.15101
1.92768
1.68465
1.42936
1.17653
0.942758
0.742697
0.585821
0.474996
0.407121
0.375321
0.371668
0.387424
0.416295
0.455761
0.504221
0.560437
0.623054
0.690326
0.760095
0.829873
0.897052
0.959063
1.01344
1.05738
1.08768
1.10221
1.09961
1.0799
1.04499
0.998957
0.947743
0.898347
0.857716
0.831379
0.822629
0.833449
0.86414
0.91362
0.979527
1.0592
1.14954
1.2435
1.33056
1.39974
1.44187
1.45196
1.43085
1.38542
1.32752
1.27188
1.23334
1.22081
1.23704
1.2826
1.35716
1.45808
1.58083
1.71449
1.84722
1.9683
2.06966
2.14631
2.19582
2.21705
2.20829
2.16825
2.09603
1.9927
1.86288
1.71571
1.56432
1.4239
1.30884
1.23209
1.20707
1.2393
1.31687
1.4047
1.4627
1.45568
1.35958
1.16591
0.883762
0.538494
0.166893
0
0.816062
2.7492
5.75742
9.4305
13.027
15.6678
16.6383
15.67
13.0599
9.55831
6.06922
3.30598
1.56725
0.728217
0.474937
0.533427
0.595618
0.657727
0.71212
0.750195
0.766237
0.761414
0.74557
0.73527
0.74834
0.797094
0.882344
0.989529
1.10699
1.22217
1.3253
1.41194
1.48355
1.54617
1.60781
1.67547
1.75348
1.84356
1.93889
2.03084
2.11416
2.19075
2.2703
2.36686
2.49279
2.65279
2.84031
3.03841
3.23525
3.42119
3.59099
3.74471
3.8869
4.02317
4.16096
4.29987
4.41955
4.48755
4.47386
4.36525
4.17305
3.9305
3.68102
3.46225
3.28455
3.13354
2.99929
2.87624
2.75829
2.63999
2.51737
2.38846
2.2533
2.1138
1.97305
1.83482
1.70309
1.58151
1.47315
1.38023
1.30407
1.2451
1.20295
1.17656
1.16426
1.16381
1.17209
1.18502
1.19776
1.20504
1.20177
1.18373
1.14834
1.09536
1.02748
0.948738
0.869388
0.804188
0.767518
0.769706
0.814065
0.895707
1.00267
1.11902
1.22879
1.32038
1.39006
1.43505
1.45546
1.45343
1.4331
1.39904
1.35644
1.31108
1.26897
1.23572
1.21561
1.20996
1.21918
1.24261
1.27865
1.32349
1.37319
1.42479
1.47709
1.53074
1.58759
1.64961
1.71756
1.79027
1.86378
1.93215
1.98893
2.02866
2.04785
2.04524
2.02128
1.97738
1.91536
1.83885
1.75115
1.65583
1.55762
1.4621
1.37484
1.30021
1.23999
1.19382
1.1572
1.11878
1.06292
0.973533
0.837461
0.638459
0.378367
0.0692543
-0.299707
0
1.43998
4.0747
7.59795
11.4013
14.7064
16.7556
17.032
15.4482
12.408
8.67573
5.10137
2.33093
0.648468
-0.000672722
0.248055
0.577655
0.869871
1.08283
1.19254
1.20012
1.13047
1.02214
0.913456
0.832192
0.782921
0.7595
0.762586
0.795147
0.859147
0.954419
1.08639
1.24787
1.41815
1.57495
1.70196
1.79453
1.86107
1.91945
1.99026
2.08967
2.21859
2.36906
2.53441
2.7079
2.88209
3.04976
3.20537
3.34583
3.47083
3.58261
3.68542
3.78464
3.88591
3.99488
4.11805
4.26392
4.42968
4.58045
4.66502
4.63043
4.44542
4.12237
3.72351
3.34291
3.06946
2.95794
2.9857
3.07183
3.11754
3.05239
2.86264
2.58968
2.30288
2.06427
1.89656
1.76733
1.65907
1.56725
1.48917
1.42353
1.37062
1.33187
1.30908
1.30371
1.31716
1.34931
1.39586
1.44711
1.4908
1.51508
1.51104
1.4747
1.40808
1.31893
1.21923
1.12272
1.04156
0.982686
0.947981
0.939312
0.9566
0.998338
1.06217
1.14468
1.24419
1.35881
1.48035
1.59361
1.68177
1.73055
1.73264
1.69037
1.61553
1.52619
1.44172
1.3774
1.33636
1.31535
1.31083
1.31962
1.33838
1.36385
1.39339
1.42553
1.46001
1.49784
1.54107
1.59238
1.65468
1.73117
1.82644
1.94794
2.09887
2.25873
2.39281
2.46439
2.4475
2.33746
2.15408
1.93579
1.72746
1.56766
1.46046
1.3917
1.35487
1.35396
1.38798
1.43269
1.45673
1.42867
1.32461
1.11487
0.76432
0.34134
-0.0761733
-0.442236
-0.762945
0
1.59727
4.1897
7.67131
11.546
15.0071
17.2122
17.6023
16.1011
13.1206
9.3978
5.7506
2.84248
1.01293
0.22864
0.205555
0.252194
0.3044
0.36521
0.437624
0.526451
0.640811
0.78528
0.939737
1.07328
1.15494
1.16612
1.10922
1.00811
0.900515
0.825811
0.813387
0.855041
0.93438
1.04199
1.17181
1.31749
1.47231
1.62997
1.78488
1.93315
2.07308
2.2052
2.33205
2.4574
2.58526
2.7188
2.85948
3.00645
3.15707
3.30748
3.45324
3.59014
3.71469
3.82444
3.91772
3.99313
4.04882
4.08188
4.0885
4.06453
4.00556
3.90793
3.76977
3.5919
3.37819
3.13545
2.87287
2.60131
2.33162
2.07357
1.83604
1.62635
1.45039
1.31591
1.23337
1.20208
1.19735
1.18927
1.15165
1.07074
0.950628
0.812445
0.687136
0.604232
0.577917
0.593999
0.643515
0.711454
0.780936
0.837426
0.872658
0.88393
0.874088
0.84977
0.819112
0.789459
0.765245
0.748238
0.738927
0.735697
0.736179
0.738379
0.741514
0.746323
0.754716
0.768873
0.790127
0.818345
0.851
0.883254
0.909595
0.925427
0.928337
0.91858
0.898673
0.872361
0.843492
0.815277
0.789972
0.769771
0.757388
0.75637
0.770979
0.805512
0.868173
0.973908
1.12395
1.2845
1.41176
1.46816
1.43781
1.33446
1.19813
1.08183
1.06639
1.3026
1.7216
2.15497
2.45632
2.55735
2.4663
2.22836
1.88936
1.49414
1.11495
0.830382
0.65494
0.564877
0.530379
0.551844
0.620801
0.70252
0.758017
0.752822
0.664965
0.490359
0.244104
-0.044961
0
1.12691
3.57579
7.1231
11.0705
14.4608
16.4244
16.4902
14.7212
11.6402
8.02048
4.64064
2.07835
0.57872
0.0283722
0.0603086
0.0770655
0.0930214
0.108747
0.125136
0.143372
0.164775
0.190593
0.221782
0.258851
0.301799
0.350141
0.403127
0.460032
0.520406
0.584309
0.652431
0.726032
0.806679
0.895821
0.994334
1.1022
1.21905
1.34321
1.47218
1.60412
1.7386
1.87657
2.01964
2.16871
2.32373
2.4792
2.62589
2.75447
2.85956
2.94277
3.01297
3.08367
3.17383
3.30469
3.45838
3.59286
3.66147
3.63421
3.51029
3.31673
3.09474
2.88216
2.70102
2.54581
2.4081
2.28479
2.17497
2.07796
1.99089
1.90691
1.81784
1.71607
1.59684
1.45997
1.31031
1.15658
1.00899
0.875928
0.759822
0.662014
0.581762
0.516471
0.462624
0.416663
0.375628
0.337506
0.301352
0.267313
0.236584
0.211728
0.197179
0.197433
0.21662
0.257077
0.321682
0.406455
0.498081
0.580684
0.640662
0.670797
0.671917
0.651528
0.620287
0.588001
0.56004
0.537342
0.519936
0.507442
0.499708
0.497378
0.501996
0.515623
0.540094
0.576189
0.623776
0.68027
0.740594
0.799137
0.851478
0.89589
0.934155
0.971384
1.01484
1.07202
1.14962
1.25775
1.39336
1.53572
1.65861
1.73869
1.7624
1.72881
1.64832
1.53826
1.4177
1.30246
1.19961
1.11061
1.03493
0.970949
0.91642
0.868408
0.823651
0.778895
0.731064
0.677285
0.614863
0.541303
0.45347
0.346728
0.218621
0.0713419
-0.0905266
-0.270561
0
1.01017
3.07059
6.24922
10.1297
13.7814
16.0742
16.2077
14.1346
10.588
6.69671
3.44655
1.31948
0.272078
-0.0356076
0.0501986
0.11286
0.165091
0.201898
0.220072
0.219032
0.201264
0.172173
0.13935
0.111365
0.0963781
0.100252
0.125276
0.172269
0.239882
0.324635
0.421335
0.524509
0.627615
0.725012
0.812892
0.889969
0.957725
1.02015
1.08306
1.15315
1.23689
1.33852
1.46097
1.60597
1.77325
1.96088
2.16563
2.38073
2.59402
2.78799
2.94618
3.05608
3.11165
3.11477
3.07506
3.00791
2.93118
2.86104
2.80754
2.77013
2.74313
2.72024
2.69116
2.64255
2.56112
2.43638
2.2633
2.04437
1.79003
1.51727
1.24651
0.997478
0.780095
0.606915
0.480995
0.396523
0.343756
0.312411
0.294275
0.284259
0.27985
0.279594
0.28157
0.282524
0.278302
0.265118
0.241039
0.206968
0.166735
0.1263
0.0924256
0.0701331
0.061934
0.0690764
0.0916478
0.128214
0.176159
0.231545
0.289067
0.343279
0.389283
0.423305
0.443092
0.448084
0.43942
0.419809
0.393341
0.36498
0.340331
0.324706
0.32223
0.335022
0.362672
0.402211
0.448669
0.495804
0.537107
0.567266
0.583054
0.58374
0.570983
0.548318
0.520398
0.492214
0.468515
0.453399
0.449951
0.461446
0.491317
0.542775
0.619347
0.734663
0.898557
1.08568
1.25925
1.38304
1.43387
1.40768
1.31648
1.1794
1.0151
0.840676
0.670632
0.513185
0.376945
0.272912
0.221309
0.231776
0.285707
0.352967
0.401001
0.404228
0.349992
0.239487
0.0843165
-0.0992484
-0.295798
-0.496375
0
1.27517
3.50856
6.65577
10.2955
13.6182
15.6633
15.7413
13.8011
10.4855
6.81756
3.71669
1.64569
0.566239
0.149186
0.0895294
0.0336946
-0.0204768
-0.071616
-0.117438
-0.154299
-0.177757
-0.18376
-0.16951
-0.134648
-0.0786202
-0.0086735
0.0642004
0.129177
0.178889
0.211653
0.231802
0.248118
0.27107
0.309972
0.367358
0.442795
0.536087
0.646308
0.771939
0.911368
1.06328
1.22669
1.40067
1.58388
1.77508
1.96911
2.15393
2.31522
2.44079
2.52522
2.57265
2.59635
2.61517
2.64793
2.70813
2.80503
2.9382
3.08704
3.21748
3.29619
3.29767
3.20942
3.03509
2.79469
2.51998
2.24525
1.99572
1.77401
1.57143
1.3819
1.20257
1.0309
0.865051
0.704291
0.549161
0.40143
0.263952
0.140363
0.0345746
-0.0495996
-0.108762
-0.140467
-0.141898
-0.103981
0.00324624
0.221488
0.502863
0.763685
0.902128
0.844868
0.591449
0.220982
-0.145898
-0.402611
-0.499823
-0.517917
-0.497999
-0.448291
-0.374115
-0.28187
-0.178811
-0.0726192
0.0287265
0.118004
0.189453
0.239295
0.26594
0.269864
0.253243
0.219501
0.172952
0.118707
0.0619354
0.00898781
-0.0331918
-0.0575827
-0.0576681
-0.0281443
0.0344127
0.131074
0.260373
0.42574
0.62863
0.860733
1.09558
1.29594
1.42414
1.44792
1.34891
1.13281
0.837077
0.529551
0.293459
0.194367
0.214142
0.352761
0.601234
0.892712
1.1554
1.33495
1.40649
1.37354
1.25818
1.08958
0.896719
0.705677
0.53139
0.380701
0.256921
0.160712
0.0919767
0.0489742
0.027759
0.0228738
0.0282112
0.037813
0.046444
0
0.375023
1.70146
4.19457
7.62409
11.3043
14.3028
15.7876
15.3528
13.1704
9.90012
6.40784
3.4365
1.3845
0.270104
-0.145883
-0.189487
-0.228517
-0.262268
-0.286067
-0.295056
-0.284741
-0.251965
-0.1958
-0.118055
-0.0232304
0.0820654
0.190072
0.293098
0.38364
0.456579
0.509573
0.543543
0.562803
0.574708
0.588698
0.6148
0.661818
0.735591
0.835415
0.957116
1.09597
1.24679
1.4034
1.55969
1.71189
1.8592
2.00368
2.14916
2.2996
2.45752
2.6237
2.79086
2.94795
3.08424
3.19326
3.27471
3.33334
3.37551
3.40449
3.41862
3.4105
3.36976
3.28723
3.15867
2.98652
2.77955
2.55076
2.31506
2.08332
1.86157
1.65385
1.46239
1.28741
1.12764
0.98089
0.844699
0.716976
0.596449
0.483048
0.378327
0.286099
0.212476
0.163159
0.143549
0.157224
0.2045
0.281556
0.380495
0.490386
0.598969
0.694459
0.768035
0.812366
0.820825
0.791397
0.72548
0.628577
0.510281
0.38452
0.269706
0.18306
0.136378
0.133205
0.168684
0.23221
0.311732
0.397752
0.485115
0.572542
0.660039
0.74699
0.830707
0.906324
0.967975
1.01065
1.03189
1.03265
1.01705
0.991327
0.962445
0.936551
0.917839
0.909441
0.913904
0.933292
0.969244
1.02283
1.09444
1.18444
1.29243
1.41469
1.54008
1.65222
1.73549
1.77916
1.78038
1.74469
1.68344
1.60892
1.52939
1.44647
1.35762
1.25927
1.14842
1.02464
0.890592
0.751263
0.612551
0.479611
0.355199
0.242857
0.145288
0.0638372
-0.000284004
-0.0461766
-0.073881
0
0.769222
2.20931
4.49701
7.55958
10.9509
13.9081
15.5975
15.4553
13.4586
10.1727
6.53561
3.47613
1.55712
0.815365
0.857684
0.74798
0.620263
0.473865
0.299992
0.0908393
-0.153643
-0.406521
-0.623276
-0.759503
-0.779049
-0.665754
-0.433844
-0.128236
0.18836
0.45554
0.646888
0.785282
0.884001
0.947969
0.986443
1.0119
1.03813
1.07762
1.13897
1.22473
1.3303
1.44831
1.56895
1.68387
1.78893
1.88547
1.97958
2.07968
2.19326
2.32402
2.46855
2.62033
2.77208
2.91548
3.04231
3.1456
3.22016
3.2627
3.27162
3.24679
3.18932
3.10152
2.98673
2.84914
2.69338
2.52388
2.34426
2.15694
1.96298
1.76258
1.55596
1.34434
1.13075
0.920446
0.721121
0.541297
0.388839
0.269293
0.184666
0.134611
0.114418
0.115545
0.128958
0.146973
0.164359
0.178429
0.188182
0.192943
0.190199
0.176177
0.145887
0.0951537
0.0231629
-0.0655795
-0.16146
-0.248044
-0.307803
-0.32709
-0.300364
-0.231724
-0.133181
-0.025623
0.0700448
0.138643
0.174075
0.179314
0.163455
0.13743
0.110328
0.086925
0.0687396
0.0570642
0.0531007
0.0582595
0.0739084
0.100691
0.139723
0.188366
0.239207
0.283969
0.31661
0.336006
0.34697
0.35908
0.383719
0.430451
0.502093
0.593522
0.699593
0.814308
0.928051
1.02686
1.09642
1.12356
1.09802
1.01448
0.874416
0.687082
0.468986
0.241571
0.0274341
-0.158034
-0.30515
-0.408555
-0.468719
-0.490624
-0.481691
-0.449619
-0.401576
-0.343073
-0.276697
-0.203635
-0.124634
0
0.609605
2.00179
4.37818
7.54726
10.8901
13.5485
14.7491
14.1135
11.8126
8.49625
5.03439
2.18953
0.368579
-0.443304
-0.515961
-0.515462
-0.518665
-0.530625
-0.554265
-0.589619
-0.634144
-0.681544
-0.72119
-0.741125
-0.730608
-0.682427
-0.59458
-0.470916
-0.320577
-0.156381
0.00743856
0.157975
0.284327
0.380492
0.4457
0.484543
0.506443
0.524416
0.553103
0.606263
0.694172
0.820086
0.978658
1.16153
1.36049
1.56665
1.77113
1.96612
2.14548
2.30501
2.44275
2.55844
2.65294
2.72768
2.78405
2.82235
2.84227
2.84322
2.82408
2.78377
2.72174
2.63831
2.53471
2.41284
2.27478
2.12268
1.95823
1.78204
1.59443
1.39604
1.18843
0.974693
0.75961
0.550692
0.35752
0.189585
0.0547783
-0.0420802
-0.100053
-0.121996
-0.113625
-0.0820764
-0.0344568
0.0225947
0.0840761
0.146198
0.204767
0.252952
0.282318
0.283099
0.246072
0.162191
-0.000762463
-0.21943
-0.431062
-0.56475
-0.56837
-0.429179
-0.179121
0.117062
0.385655
0.569809
0.685252
0.746594
0.762111
0.744735
0.708601
0.666152
0.626052
0.592343
0.567014
0.551164
0.54526
0.549234
0.562573
0.584606
0.613956
0.647491
0.681474
0.713121
0.741908
0.770429
0.804316
0.851062
0.917987
1.00994
1.12681
1.26936
1.42654
1.57811
1.7032
1.78537
1.81606
1.79559
1.73186
1.63766
1.5275
1.41517
1.30978
1.21568
1.13477
1.06733
1.01222
0.966955
0.92733
0.888249
0.844576
0.791892
0.727075
0.648564
0.556013
0.449759
0.330719
0.202068
0.0670936
-0.0735273
0
0.854378
2.93241
6.29061
10.4116
14.2882
16.7785
17.0791
15.0832
11.4381
7.26576
3.68748
1.39331
0.461677
0.486303
0.673377
0.725251
0.745131
0.72998
0.682817
0.612739
0.53358
0.461389
0.409934
0.387801
0.399782
0.444771
0.516213
0.60377
0.69581
0.78211
0.856451
0.916924
0.966082
1.00989
1.05604
1.11205
1.18233
1.26847
1.37017
1.48624
1.61293
1.74236
1.86687
1.98103
2.08294
2.17444
2.26017
2.34588
2.43672
2.5361
2.64451
2.76239
2.89056
3.03311
3.20092
3.39863
3.59843
3.75275
3.81266
3.75216
3.58222
3.34478
3.09053
2.85477
2.64166
2.43907
2.24143
2.04728
1.85698
1.67241
1.49635
1.33214
1.18203
1.04678
0.925957
0.818505
0.723464
0.640429
0.569606
0.511444
0.466077
0.432207
0.408316
0.392081
0.380772
0.371704
0.362592
0.351743
0.338058
0.32093
0.300204
0.276261
0.250109
0.223477
0.198764
0.178712
0.165795
0.161538
0.166425
0.17878
0.195177
0.211585
0.224502
0.231911
0.233707
0.231462
0.227669
0.224754
0.224182
0.226356
0.230676
0.236245
0.242749
0.251201
0.264278
0.286101
0.321501
0.375
0.453744
0.565547
0.713295
0.8826
1.04134
1.15553
1.19768
1.1546
1.03342
0.86332
0.690567
0.56673
0.531973
0.579153
0.704621
0.916188
1.19013
1.46906
1.69682
1.83324
1.85049
1.73411
1.4916
1.16054
0.80455
0.493046
0.265326
0.102799
-0.0206664
-0.104807
-0.147721
-0.146258
-0.0973104
0
0.144359
0.325238
0.529867
0.743346
0.924035
1.22264
2.37415
4.70036
8.01901
11.6245
14.5319
15.8636
15.1963
12.7172
9.13476
5.39406
2.32893
0.396396
-0.408122
-0.415808
-0.390992
-0.366351
-0.342305
-0.318073
-0.291735
-0.26082
-0.223233
-0.177947
-0.125336
-0.0690149
-0.0145163
0.0329428
0.0704613
0.0988354
0.12282
0.150149
0.189617
0.248789
0.330218
0.431758
0.549698
0.679334
0.814458
0.948337
1.07547
1.19273
1.29999
1.40016
1.4987
1.60257
1.71897
1.85386
2.01065
2.19033
2.39118
2.61024
2.84178
3.07006
3.27465
3.43679
3.54364
3.59086
3.58279
3.5298
3.44406
3.33536
3.21048
3.07311
2.92374
2.76121
2.58472
2.39487
2.19413
1.98706
1.78
1.58063
1.39717
1.2375
1.11015
1.02759
1.00319
1.02757
1.06497
1.07393
1.02018
0.888487
0.689138
0.455968
0.235836
0.0728928
-0.0199427
-0.0431223
-0.00765061
0.06545
0.152578
0.234365
0.30293
0.358134
0.399293
0.427209
0.443346
0.449447
0.447549
0.440193
0.430587
0.422527
0.420004
0.426593
0.444321
0.473669
0.513908
0.562953
0.617352
0.673001
0.725901
0.772803
0.81167
0.84187
0.864075
0.879885
0.891266
0.899939
0.906839
0.911807
0.91381
0.911587
0.904674
0.894441
0.884697
0.881561
0.892557
0.925174
0.985313
1.07525
1.19487
1.34105
1.50822
1.69055
1.88002
2.06425
2.22858
2.35886
2.44237
2.46936
2.43494
2.34087
2.19645
2.01816
1.82756
1.64722
1.49361
1.37238
1.28106
1.2181
1.17857
1.15453
1.136
1.10967
1.06201
0.981593
0.860943
0.688716
0.471429
0.22343
-0.260599
0
1.5363
4.50994
8.59946
12.994
16.5811
18.3144
17.6444
14.7928
10.6823
6.52175
3.27493
1.32935
0.523183
0.432608
0.640151
0.816363
0.957957
1.0529
1.09584
1.09018
1.04834
0.989831
0.937248
0.911135
0.920909
0.963633
1.03311
1.124
1.23056
1.3464
1.46548
1.583
1.69562
1.80138
1.89925
1.98898
2.07144
2.1488
2.22465
2.30435
2.39501
2.50482
2.64163
2.81104
3.01451
3.25482
3.52479
3.79752
4.04409
4.24256
4.38412
4.47401
4.52676
4.5585
4.57981
4.59359
4.59569
4.57884
4.53601
4.46275
4.35835
4.22566
4.07013
3.89994
3.72232
3.54238
3.36368
3.18856
3.01826
2.85303
2.69239
2.53554
2.38192
2.23161
2.08569
1.9463
1.81635
1.69912
1.59747
1.51405
1.45062
1.40552
1.37549
18
178
336
493
650
809
970
1133
1295
1457
1620
1783
1940
2098
2256
2415
2570
2729
2887
3044
3198
3355
3512
3672
3684
0
0
0
0
0
0
0
0
0
0
0
0
0
0
0
0
0
0
0
0
0
0
0
0
0
0
0
0
0
0
0
0
0
0
0
0
0
0
0
0
0
0
0
0
0
0
0
0
0
0
0
0
0
0
0
0
0
0
0
0
0
0
0
0
0
0
0
0
0
0
0
0
0
0
0
0
0
0
0
0
0
0
0
0
0
0
0
0
0
0
0
0
0
0
0
0
0
0
0
0
0
0
0
0
0
0
0
0
0
0
0
0
0
0
0
0
0
0
0
0
0
0
0
0
0
0
0
0
0
0
0
0
0
0
0
0
0
0
0
0
0
0
0
0
0
0
0
0
0
0
0
0
0
0
0
0
0
0
0
0
0
0
0
0
0
0
0
0
0
0
0
0
0
0
0
0
0
0
0
0
0
0
0
0
0
0
0
0
0
0
0
0
0
0
0
0
0
0
0
0
0
0
0
0
0
0
0
0
0
0
0
0
0
0
0
0
0
0
0
0
0
0
0
0
0
0
0
0
0
0
0
0
0
0
0
0
0
0
0
0
0
0
0
0
0
0
0
0
0
0
0
0
0
0
0
0
0
0
0
0
0
0
0
0
0
0
0
0
0
0
0
0
0
0
0
0
0
0
0
0
0
0
0
0
0
0
0
0
0
0
0
0
0
0
0
0
0
0
0
0
0
0
0
0
0
0
0
0
0
0
0
0
0
0
0
0
0
0
0
0
0
0
0
0
0
0
0
0
0
0
0
0
0
0
0
0
0
0
0
0
0
0
0
0
0
0
0
0
0
0
0
0
0
0
0
0
0
0
0
0
0
0
0
0
0
0
0
0
0
0
0
0
0
0
0
0
0
0
0
0
0
0
0
0
0
0
0
0
0
0
0
0
0
0
0
0
0
0
0
0
0
0
0
0
0
0
0
0
0
0
0
0
0
0
0
0
0
0
0
0
0
0
0
0
0
0
0
0
0
0
0
0
0
0
0
0
0
0
0
0
0
0
0
0
0
0
0
0
0
0
0
0
0
0
0
0
0
0
0
0
0
0
0
0
0
0
0
0
0
0
0
0
0
0
0
0
0
0
0
0
0
0
0
0
0
0
0
0
0
0
0
0
0
0
0
0
0
0
0
0
0
0
0
0
0
0
0
0
0
0
0
0
0
0
0
0
0
0
0
0
0
0
0
0
0
0
0
0
0
0
0
0
0
0
0
0
0
0
0
0
0
0
0
0
0
0
0
0
0
0
0
0
0
0
0
0
0
0
0
0
0
0
0
0
0
0
0
0
0
0
0
0
0
0
0
0
0
0
0
0
0
0
0
0
0
0
0
0
0
0
0
0
0
0
0
0
0
0
0
0
0
0
0
0
0
0
0
0
0
0
0
0
0
0
0
0
0
0
0
0
0
0
0
0
0
0
0
0
0
0
0
0
0
0
0
0
0
0
0
0
0
0
0
0
0
0
0
0
0
0
0
0
0
0
0
0
0
0
0
0
0
0
0
0
0
0
0
0
0
0
0
0
0
0
0
0
0
0
0
0
0
0
0
0
0
0
0
0
0
0
0
0
0
0
0
0
0
0
0
0
0
0
0
0
0
0
0
0
0
0
0
0
0
0
0
0
0
0
0
0
0
0
0
0
0
0
0
0
0
0
0
0
0
0
0
0
0
0
0
0
0
0
0
0
0
0
0
0
0
0
0
0
0
0
0
0
0
0
0
0
0
0
0
0
0
0
0
0
0
0
0
0
0
0
0
0
0
0
0
0
0
0
0
0
0
0
0
0
0
0
0
0
0
0
0
0
0
0
0
0
0
0
0
0
0
0
0
0
0
0
0
0
0
0
0
0
0
0
0
0
0
0
0
0
0
0
0
0
0
0
0
0
0
0
0
0
0
0
0
0
0
0
0
0
0
0
0
0
0
0
0
0
0
0
0
0
0
0
0
0
0
0
0
0
0
0
0
0
0
0
0
0
0
0
0
0
0
0
0
0
0
0
0
0
0
0
0
0
0
0
0
0
0
0
0
0
0
0
0
0
0
0
0
0
0
0
0
0
0
0
0
0
0
0
0
0
0
0
0
0
0
0
0
0
0
0
0
0
0
0
0
0
0
0
0
0
0
0
0
0
0
0
0
0
0
0
0
0
0
0
0
0
0
0
0
0
0
0
0
0
0
0
0
0
0
0
0
0
0
0
0
0
0
0
0
0
0
0
0
0
0
0
0
0
0
0
0
0
0
0
0
0
0
0
0
0
0
0
0
0
0
0
0
0
0
0
0
0
0
0
0
0
0
0
0
0
0
0
0
0
0
0
0
0
0
0
0
0
0
0
0
0
0
0
0
0
0
0
0
0
0
0
0
0
0
0
0
0
0
0
0
0
0
0
0
0
0
0
0
0
0
0
0
0
0
0
0
0
0
0
0
0
0
0
0
0
0
0
0
0
0
0
0
0
0
0
0
0
0
0
0
0
0
0
0
0
0
0
0
0
0
0
0
0
0
0
0
0
0
0
0
0
0
0
0
0
0
0
0
0
0
0
0
0
0
0
0
0
0
0
0
0
0
0
0
0
0
0
0
0
0
0
0
0
0
0
0
0
0
0
0
0
0
0
0
0
0
0
0
0
0
0
0
0
0
0
0
0
0
0
0
0
0
0
0
0
0
0
0
0
0
0
0
0
0
0
0
0
0
0
0
0
0
0
0
0
0
0
0
0
0
0
0
0
0
0
0
0
0
0
0
0
0
0
0
0
0
0
0
0
0
0
0
0
0
0
0
0
0
0
0
0
0
0
0
0
0
0
0
0
0
0
0
0
0
0
0
0
0
0
0
0
0
0
0
0
0
0
0
0
0
0
0
0
0
0
0
0
0
0
0
0
0
0
0
0
0
0
0
0
0
0
0
0
0
0
0
0
0
0
0
0
0
0
0
0
0
0
0
0
0
0
0
0
0
0
0
0
0
0
0
0
0
0
0
0
0
0
0
0
0
0
0
0
0
0
0
0
0
0
0
0
0
0
0
0
0
0
0
0
0
0
0
0
0
0
0
0
0
0
0
0
0
0
0
0
0
0
0
0
0
0
0
0
0
0
0
0
0
0
0
0
0
0
0
0
0
0
0
0
0
0
0
0
0
0
0
0
0
0
0
0
0
0
0
0
0
0
0
0
0
0
0
0
0
0
0
0
0
0
0
0
0
0
0
0
0
0
0
0
0
0
0
0
0
0
0
0
0
0
0
0
0
0
0
0
0
0
0
0
0
0
0
0
0
0
0
0
0
0
0
0
0
0
0
0
0
0
0
0
0
0
0
0
0
0
0
0
0
0
0
0
0
0
0
0
0
0
0
0
0
0
0
0
0
0
0
0
0
0
0
0
0
0
0
0
0
0
0
0
0
0
0
0
0
0
0
0
0
0
0
0
0
0
0
0
0
0
0
0
0
0
0
0
0
0
0
0
0
0
0
0
0
0
0
0
0
0
0
0
0
0
0
0
0
0
0
0
0
0
0
0
0
0
0
0
0
0
0
0
0
0
0
0
0
0
0
0
0
0
0
0
0
0
0
0
0
0
0
0
0
0
0
0
0
0
0
0
0
0
0
0
0
0
0
0
0
0
0
0
0
0
0
0
0
0
0
0
0
0
0
0
0
0
0
0
0
0
0
0
0
0
0
0
0
0
0
0
0
0
0
0
0
0
0
0
0
0
0
0
0
0
0
0
0
0
0
0
0
0
0
0
0
0
0
0
0
0
0
0
0
0
0
0
0
0
0
0
0
0
0
0
0
0
0
0
0
0
0
0
0
0
0
0
0
0
0
0
0
0
0
0
0
0
0
0
0
0
0
0
0
0
0
0
0
0
0
0
0
0
0
0
0
0
0
0
0
0
0
0
0
0
0
0
0
0
0
0
0
0
0
0
0
0
0
0
0
0
0
0
0
0
0
0
0
0
0
0
0
0
0
0
0
0
0
0
0
0
0
0
0
0
0
0
0
0
0
0
0
0
0
0
0
0
0
0
0
0
0
0
0
0
0
0
0
0
0
0
0
0
0
0
0
0
0
0
0
0
0
0
0
0
0
0
0
0
0
0
0
0
0
0
0
0
0
0
0
0
0
0
0
0
0
0
0
0
0
0
0
0
0
0
0
0
0
0
0
0
0
0
0
0
0
0
0
0
0
0
0
0
0
0
0
0
0
0
0
0
0
0
0
0
0
0
0
0
0
0
0
0
0
0
0
0
0
0
0
0
0
0
0
0
0
0
0
0
0
0
0
0
0
0
0
0
0
0
0
0
0
0
0
0
0
0
0
0
0
0
0
0
0
0
0
0
0
0
0
0
0
0
0
0
0
0
0
0
0
0
0
0
0
0
0
0
0
0
0
0
0
0
0
0
0
0
0
0
0
0
0
0
0
0
0
0
0
0
0
0
0
0
0
0
0
0
0
0
0
0
0
0
0
0
0
0
0
0
0
0
0
0
0
0
0
0
0
0
0
0
0
0
0
0
0
0
0
0
0
0
0
0
0
0
0
0
0
0
0
0
0
0
0
0
0
0
0
0
0
0
0
0
0
0
0
0
0
0
0
0
0
0
0
0
0
0
0
0
0
0
0
0
0
0
0
0
0
0
0
0
0
0
0
0
0
0
0
0
0
0
0
0
0
0
0
0
0
0
0
0
0
0
0
0
0
0
0
0
0
0
0
0
0
0
0
0
0
0
0
0
0
0
0
0
0
0
0
0
0
0
0
0
0
0
0
0
0
0
0
0
0
0
0
0
0
0
0
0
0
0
0
0
0
0
0
0
0
0
0
0
0
0
0
0
0
0
0
0
0
0
0
0
0
0
0
0
0
0
0
0
0
0
0
0
0
0
0
0
0
0
0
0
0
0
0
0
0
0
0
0
0
0
0
0
0
0
0
0
0
0
0
0
0
0
0
0
0
0
0
0
0
0
0
0
0
0
0
0
0
0
0
0
0
0
0
0
0
0
0
0
0
0
0
0
0
0
0
0
0
0
0
0
0
0
0
0
0
0
0
0
0
0
0
0
0
0
0
0
0
0
0
0
0
0
0
0
0
0
0
0
0
0
0
0
0
0
0
0
0
0
0
0
0
0
0
0
0
0
0
0
0
0
0
0
0
0
0
0
0
0
0
0
0
0
0
0
0
0
0
0
0
0
0
0
0
0
0
0
0
0
0
0
0
0
0
0
0
0
0
0
0
0
0
0
0
0
0
0
0
0
0
0
0
0
0
0
0
0
0
0
0
0
0
0
0
0
0
0
0
0
0
0
0
0
0
0
0
0
0
0
0
0
0
0
0
0
0
0
0
0
0
0
0
0
0
0
0
0
0
0
0
0
0
0
0
0
0
0
0
0
0
0
0
0
0
0
0
0
0
0
0
0
0
0
0
0
0
0
0
0
0
0
0
0
0
0
0
0
0
0
0
0
0
0
0
0
0
0
0
0
0
0
0
0
0
0
0
0
0
0
0
0
0
0
0
0
0
0
0
0
0
0
0
0
0
0
0
0
0
0
0
0
0
0
0
0
0
0
0
0
0
0
0
0
0
0
0
0
0
0
0
0
0
0
0
0
0
0
0
0
0
0
0
0
0
0
0
0
0
0
0
0
0
0
0
0
0
0
0
0
0
0
0
0
0
0
0
0
0
0
0
0
0
0
0
0
0
0
0
0
0
0
0
0
0
0
0
0
0
0
0
0
0
0
0
0
0
0
0
0
0
0
0
0
0
0
0
0
0
0
0
0
0
0
0
0
0
0
0
0
0
0
0
0
0
0
0
0
0
0
0
0
0
0
0
0
0
0
0
0
0
0
0
0
0
0
0
0
0
0
0
0
0
0
0
0
0
0
0
0
0
0
0
0
0
0
0
0
0
0
0
0
0
0
0
0
0
0
0
0
0
0
0
0
0
0
0
0
0
0
0
0
0
0
0
0
0
0
0
0
0
0
0
0
0
0
0
0
0
0
0
0
0
0
0
0
0
0
0
0
0
0
0
0
0
0
0
0
0
0
0
0
0
0
0
0
0
0
0
0
0
0
0
0
0
0
0
0
0
0
0
0
0
0
0
0
0
0
0
0
0
0
0
0
0
0
0
0
0
0
0
0
0
0
0
0
0
0
0
0
0
0
0
0
0
0
0
0
0
0
0
0
0
0
0
0
0
0
0
0
0
0
0
0
0
0
0
0
0
0
0
0
0
0
0
0
0
0
0
0
0
0
0
0
0
0
0
0
0
0
0
0
0
0
0
0
0
0
0
0
0
0
0
0
0
0
0
0
0
0
0
0
0
0
0
0
0
0
0
0
0
0
0
0
0
0
0
0
0
0
0
0
0
0
0
0
0
0
0
0
0
0
0
0
0
0
0
0
0
0
0
0
0
0
0
0
0
0
0
0
0
0
0
0
0
0
0
0
0
0
0
0
0
0
0
0
0
0
0
0
0
0
0
0
0
0
0
0
0
0
0
0
0
0
0
0
0
0
0
0
0
0
0
0
0
0
0
0
0
0
0
0
0
0
0
0
0
0
0
0
0
0
0
0
0
0
0
0
0
0
0
0
0
0
0
0
0
0
0
0
0
0
0
0
0
0
0
0
0
0
0
0
0
0
0
0
0
0
0
0
0
0
0
0
0
0
0
0
0
0
0
0
0
0
0
0
0
0
0
0
0
0
0
0
0
0
0
0
0
0
0
0
0
0
0
0
0
0
0
0
0
0
0
0
0
0
0
0
0
0
0
0
0
0
0
0
0
0
0
0
0
0
0
0
0
0
0
0
0
0
0
0
0
0
0
0
0
0
0
0
0
0
0
0
0
0
0
0
0
0
0
0
0
0
0
0
0
0
0
0
0
0
0
0
0
0
0
0
0
0
0
0
0
0
0
0
0
0
0
0
0
0
0
0
0
0
0
0
0
0
0
0
0
0
0
0
0
0
0
0
0
0
0
0
0
0
0
0
0
0
0
0
0
0
0
0
0
0
0
0
0
0
0
0
0
0
0
0
0
0
0
0
0
0
0
0
0
0
0
0
0
0
0
0
0
0
0
0
0
0
0
0
0
0
0
0
0
0
0
0
0
0
0
0
0
0
0
0
0
0
0
0
0
0
0
0
0
0
0
0
0
0
0
0
0
0
0
0
0
0
0
0
0
0
0
0
0
0
0
0
0
0
0
0
0
0
0
0
0
0
0
0
0
0
0
0
0
0
0
0
0
0
0
0
0
0
0
0
0
0
0
0
0
0
0
0
0
0
0
0
0
0
0
0
0
0
0
0
0
0
0
0
0
0
0
0
0
0
0
0
0
0
0
0
0
0
0
0
0
0
0
0
0
0
0
0
0
0
0
0
0
0
0
0
0
0
0
0
0
0
0
0
0
0
0
0
0
0
0
0
0
0
0
0
0
0
0
0
0
0
0
0
0
0
0
0
0
0
0
0
0
0
0
0
0
0
0
0
0
0
0
0
0
0
0
0
0
0
0
0
0
0
0
0
0
0
0
0
0
0
0
0
0
0
0
0
0
0
0
0
0
0
0
0
0
0
0
0
0
0
0
0
0
0
0
0
0
0
0
0
0
0
0
0
0
0
0
0
0
0
0
0
0
0
0
0
0
0
0
0
0
0
0
0
0
0
0
0
0
0
0
0
0
0
0
0
0
0
0
0
0
0
0
0
0
0
0
0
0
0
0
0
0
0
0
0
0
0
0
0
0
0
0
0
0
0
0
0
0
0
0
0
0
0
0
0
0
0
0
0
0
0
0
0
0
0
0
0
0
0
0
0
0
0
0
0
0
0
0
0
0
0
0
0
0
0
0
0
0
0
0
0
0
0
0
0
0
0
0
0
0
0
0
0
0
0
0
0
0
0
0
0
0
0
0
0
0
0
0
0
0
0
0
0
0
0
0
0
0
0
0
0
0
0
0
0
0
0
0
0
0
0
0
0
0
0
0
0
0
0
0
0
0
0
0
0
0
0
0
0
0
0
0
0
0
0
0
0
0
0
0
0
0
0
0
0
0
0
0
0
0
0
0
0
0
0
0
0
0
0
0
0
0
0
0
0
0
0
0
0
0
0
0
0
0
0
0
0
0
0
0
0
0
0
0
0
0
0
0
0
0
0
0
0
0
0
0
0
0
0
0
0
0
0
0
0
0
0
0
0
0
0
0
0
0
0
0
0
0
0
0
0
0
0
0
0
0
0
0
0
0
0
0
0
0
0
0
0
0
0
0
0
0
0
0
0
0
0
0
0
0
0
0
0
0
0
0
0
0
0
0
0
0
0
0
0
0
0
0
0
0
0
0
0
0
0
0
0
0
0
0
0
0
0
0
0
0
0
0
0
0
0
0
0
0
0
0
0
0
0
0
0
0
0
0
0
0
0
0
0
0
0
0
0
0
0
0
0
0
0
