0.883982
0.799572
0.726138
0.659719
0.596793
0.534135
0.468469
0.396925
0.317341
0.228618
0.130528
0.023611
-0.0814588
-0.161369
-0.187853
-0.137216
-0.000728321
0.209223
0.460959
0.713298
0.929092
1.09527
1.22323
1.31479
1.37519
1.41093
1.42818
1.43266
1.42704
1.41283
1.39065
1.36055
1.32213
1.27496
1.21882
1.15337
1.07866
0.995314
0.904429
0.807339
0.70516
0.598375
0.486439
0.367646
0.238801
0.0933928
-0.0803073
-0.283558
-0.510131
-0.747354
-0.820446
0
2.00781
5.2159
9.15621
12.9455
15.5693
16.2807
14.9196
11.9761
8.36225
5.01189
2.52306
1.01915
0.262359
-0.0228469
-0.053456
-0.0805075
-0.108704
-0.143532
-0.190274
-0.25269
-0.331538
-0.423605
-0.52151
-0.611497
-0.676819
-0.701624
-0.674606
-0.591869
-0.45821
-0.286356
-0.094176
0.0994877
0.279424
0.439576
0.577707
0.696349
0.800925
0.897521
0.991104
1.0847
1.17953
1.27613
1.37498
1.47681
1.58259
1.69318
1.80873
1.9283
2.04957
2.1683
2.27939
2.37786
2.45964
2.52191
2.56276
2.58045
2.57066
2.52966
2.45305
2.33719
2.18097
1.98738
1.76399
1.52218
1.27518
1.03542
0.810422
0.604831
0.420786
0.257844
0.113859
-0.0139945
-0.128316
-0.230881
-0.322429
-0.40281
-0.471332
-0.527277
-0.570361
-0.600835
-0.619837
-0.630386
-0.637037
-0.644599
-0.657198
-0.677414
-0.705715
-0.740331
-0.777545
-0.812287
-0.839102
-0.853414
-0.851549
-0.829973
-0.783965
-0.707065
-0.598636
-0.477141
-0.369683
-0.302588
-0.292946
-0.342483
-0.436529
-0.548696
-0.649311
-0.714133
-0.740142
-0.736364
-0.709904
-0.665414
-0.607365
-0.540733
-0.471351
-0.405464
-0.348741
-0.30578
-0.279693
-0.271818
-0.281603
-0.306709
-0.343305
-0.386533
-0.431032
-0.471963
-0.505118
-0.527139
-0.53553
-0.52839
-0.503984
-0.460342
-0.395157
-0.306618
-0.193334
-0.055606
0.106193
0.288511
0.477158
0.653116
0.797589
0.895614
0.938189
0.922429
0.850204
0.726313
0.557281
0.355143
0.132529
-0.0996154
-0.330428
-0.548309
-0.741001
-0.885348
-0.926759
-0.796106
-0.539718
-0.264627
-0.0784143
-0.0555033
-0.219176
-0.543537
-0.973839
-1.45248
-1.2602
0
2.54787
6.18136
10.2419
13.7657
15.8199
15.8635
13.9558
10.714
7.0441
3.78567
1.43376
0.0526675
-0.606431
-0.705452
-0.695405
-0.669359
-0.626423
-0.56761
-0.495761
-0.415222
-0.331206
-0.24967
-0.176602
-0.11617
-0.0698679
-0.0358387
-0.00877419
0.0194052
0.0580263
0.115553
0.197437
0.303148
0.427124
0.563405
0.704835
0.844657
0.978142
1.10372
1.22332
1.34183
1.46586
1.60205
1.75528
1.92708
2.11581
2.31803
2.52561
2.72754
2.91273
3.07169
3.19767
3.28713
3.3395
3.3566
3.34197
3.30052
3.23695
3.15562
3.05993
2.95205
2.83311
2.7041
2.56511
2.41607
2.25719
2.08895
1.91166
1.72526
1.52925
1.32308
1.10703
0.883244
0.656558
0.435159
0.230128
0.053113
-0.082012
-0.151653
-0.161465
-0.131602
-0.0867516
-0.0467274
-0.0201191
-0.00376053
0.0123188
0.0375303
0.074946
0.117946
0.16034
0.196231
0.221858
0.236773
0.243736
0.247541
0.253314
0.264391
0.281754
0.305173
0.332996
0.362408
0.390212
0.413541
0.430389
0.439886
0.442248
0.438466
0.429836
0.417508
0.402193
0.384294
0.364172
0.342599
0.321106
0.30217
0.288783
0.28382
0.289356
0.306234
0.333986
0.371079
0.415322
0.464037
0.515042
0.566156
0.615651
0.662426
0.706126
0.747118
0.7863
0.824831
0.863935
0.904854
0.948979
0.998255
1.05522
1.12283
1.20521
1.30837
1.43868
1.59287
1.74351
1.85126
1.87662
1.79285
1.59756
1.31812
1.00645
0.722518
0.512199
0.364317
0.254187
0.169708
0.0957008
0.0179111
-0.0735859
-0.18246
-0.306065
-0.437089
-0.550398
0
1.44256
3.98002
7.47218
11.3227
14.5892
16.3232
15.9896
13.7202
10.2379
6.50478
3.31939
1.08954
-0.148806
-0.579631
-0.465518
-0.380666
-0.309427
-0.254057
-0.214181
-0.187069
-0.168519
-0.154022
-0.139774
-0.123334
-0.103245
-0.078643
-0.0488522
-0.0132286
0.0286728
0.0767368
0.130381
0.187911
0.247237
0.307357
0.369618
0.43836
0.520538
0.624246
0.756534
0.921225
1.11608
1.33368
1.56568
1.80382
2.04028
2.26887
2.48573
2.68934
2.87998
3.05875
3.22563
3.37895
3.51588
3.63193
3.72147
3.77883
3.79926
3.7796
3.71847
3.61646
3.47608
3.30384
3.10694
2.89167
2.66418
2.43003
2.19377
1.95854
1.72666
1.50037
1.28243
1.07689
0.888634
0.722857
0.584669
0.479264
0.406751
0.3639
0.344516
0.340319
0.342779
0.341304
0.326443
0.29228
0.237888
0.168214
0.0937664
0.0286472
-0.0128796
-0.0204197
0.0081955
0.0746883
0.163133
0.251074
0.317534
0.349352
0.344606
0.312207
0.268182
0.230281
0.212909
0.219622
0.24662
0.289561
0.34514
0.408983
0.472642
0.52531
0.557152
0.561463
0.536631
0.487025
0.422187
0.354387
0.295355
0.252468
0.225269
0.211735
0.210313
0.218727
0.234745
0.257264
0.286834
0.32569
0.377259
0.445216
0.532258
0.638927
0.765804
0.908401
1.05365
1.18754
1.29931
1.38471
1.44689
1.49455
1.53805
1.58537
1.63848
1.69077
1.72967
1.74102
1.71326
1.64044
1.5234
1.36962
1.19196
1.00724
0.829009
0.665969
0.521925
0.397451
0.287661
0.182642
0.0710615
-0.0564201
-0.204251
-0.370558
-0.547721
-0.722363
0
1.97989
5.26445
9.38648
13.4217
16.2894
17.1879
15.9406
13.0565
9.46503
6.07779
3.43169
1.59638
0.344681
-0.573273
-0.812986
-0.997994
-1.12323
-1.17805
-1.16424
-1.09249
-0.977168
-0.831909
-0.669916
-0.499534
-0.327838
-0.168812
-0.0406008
0.0385595
0.0572571
0.0174438
-0.0629892
-0.153515
-0.219287
-0.231096
-0.182967
-0.0890457
0.0386301
0.193988
0.373008
0.571989
0.787784
1.01786
1.26005
1.51218
1.77162
2.03493
2.29764
2.55388
2.79612
3.01564
3.20356
3.35345
3.46177
3.52805
3.55466
3.54607
3.50738
3.44281
3.35444
3.24179
3.10425
2.94171
2.75396
2.54389
2.31805
2.08623
1.85979
1.64963
1.46288
1.30406
1.17307
1.06601
0.976415
0.896876
0.820717
0.743259
0.662562
0.579518
0.497382
0.420835
0.354905
0.303716
0.269441
0.252805
0.252746
0.266475
0.289178
0.313645
0.331994
0.337833
0.327649
0.301742
0.264362
0.22287
0.186051
0.162002
0.155831
0.167291
0.193548
0.231553
0.277221
0.326319
0.375268
0.421536
0.463638
0.500926
0.533193
0.560342
0.582381
0.599494
0.612162
0.621456
0.629209
0.637935
0.650456
0.669316
0.696147
0.73104
0.772623
0.818517
0.865628
0.91077
0.951449
0.986898
1.01859
1.05042
1.0885
1.14034
1.21361
1.32114
1.49395
1.73226
1.9853
2.18848
2.28965
2.27024
2.15047
1.97712
1.80119
1.65717
1.54332
1.44401
1.35031
1.25655
1.15795
1.05095
0.933437
0.804471
0.663546
0.510683
0.347413
0.177979
0.00953927
-0.15015
-0.295316
-0.424035
-0.518629
0
1.3589
3.83725
7.32629
11.2178
14.5492
16.3652
16.1175
13.9065
10.4406
6.72984
3.66216
1.6784
0.707035
0.365332
0.373538
0.397992
0.42635
0.458182
0.492647
0.528945
0.566662
0.605953
0.647515
0.692376
0.7416
0.796037
0.856048
0.921722
0.992925
1.06933
1.15051
1.23606
1.3256
1.41896
1.51632
1.61824
1.72546
1.83864
1.95799
2.08306
2.21298
2.34645
2.48253
2.621
2.76244
2.90781
3.05765
3.21125
3.36628
3.51803
3.66071
3.78866
3.89759
3.98507
4.05024
4.09059
4.10495
4.09177
4.04884
3.97446
3.86861
3.73356
3.57351
3.39341
3.19767
2.99107
2.77659
2.55588
2.33109
2.10545
1.88339
1.67025
1.47146
1.2916
1.13347
0.997589
0.882308
0.783207
0.693613
0.606803
0.517634
0.422831
0.324887
0.234924
0.168113
0.138506
0.153946
0.212925
0.30458
0.411843
0.516561
0.605196
0.675365
0.726699
0.762013
0.78575
0.801771
0.81258
0.818777
0.81982
0.815387
0.806499
0.795841
0.787158
0.784089
0.789022
0.801479
0.819954
0.843091
0.86966
0.898926
0.930982
0.966679
1.0072
1.05361
1.10687
1.16479
1.21837
1.25565
1.26597
1.24442
1.19464
1.12846
1.06228
1.01209
0.989419
0.991985
1.01806
1.06768
1.14004
1.23338
1.34684
1.47736
1.6105
1.7283
1.81357
1.85414
1.84517
1.78845
1.68989
1.55698
1.40041
1.23247
1.06129
0.895
0.741991
0.609966
0.509165
0.4448
0.407644
0.38197
0.350278
0.298575
0.220313
0.11768
0
-0.13933
0.426985
1.9876
4.71741
8.3804
12.2423
15.2523
16.4714
15.5265
12.8078
9.27091
5.9576
3.5334
2.10718
1.38357
0.986041
0.806856
0.640957
0.486057
0.346956
0.228849
0.136823
0.0750769
0.0471605
0.0560071
0.113552
0.242089
0.466163
0.771205
1.08396
1.33189
1.45637
1.42448
1.24182
0.960742
0.674457
0.491673
0.496402
0.639122
0.848177
1.08994
1.34978
1.61698
1.88183
2.13615
2.37365
2.59011
2.78417
2.9569
3.11151
3.2527
3.38536
3.51356
3.64038
3.76116
3.86109
3.9212
3.92745
3.87808
3.785
3.66794
3.54446
3.42137
3.29393
3.15668
3.00377
2.83284
2.64624
2.45039
2.25351
2.06269
1.88123
1.70875
1.54183
1.376
1.20798
1.03731
0.866907
0.702404
0.550897
0.418673
0.315309
0.249938
0.226604
0.246712
0.308037
0.403637
0.522735
0.648353
0.762348
0.849567
0.901431
0.917542
0.904772
0.874394
0.838551
0.806915
0.783736
0.770852
0.769311
0.778934
0.798536
0.826153
0.859238
0.894882
0.929878
0.961037
0.985401
1.00042
1.00407
0.994963
0.972452
0.93678
0.889269
0.832474
0.770196
0.707308
0.649326
0.601741
0.569114
0.554795
0.561206
0.588432
0.632062
0.682182
0.725235
0.74802
0.740808
0.700039
0.630028
0.54311
0.45799
0.396537
0.379718
0.470875
0.779041
1.24911
1.72829
2.08525
2.25432
2.23782
2.07722
1.81755
1.491
1.12998
0.788196
0.502759
0.28608
0.134974
0.0383918
0
0.0417815
0.163229
0.309479
0.417372
0.432794
0.327762
0.11117
-0.172209
-0.387172
0.6262
3.24367
7.17702
11.4758
14.8892
16.4101
15.702
13.1851
9.77055
6.42434
3.80602
2.13239
1.26357
0.896687
0.681213
0.471678
0.270049
0.0853754
-0.0710953
-0.188228
-0.25629
-0.269468
-0.228031
-0.139424
-0.0177546
0.118472
0.249984
0.361862
0.445133
0.498442
0.527722
0.544102
0.56088
0.5906
0.64024
0.71184
0.8069
0.926664
1.07125
1.23964
1.42961
1.63771
1.85921
2.08831
2.31861
2.54376
2.75826
2.95824
3.14183
3.30919
3.46168
3.60091
3.72741
3.83901
3.92965
3.99
4.00828
3.974
3.88118
3.73011
3.52711
3.28294
3.01095
2.7273
2.44571
2.17575
1.92724
1.71649
1.58287
1.54935
1.58153
1.6239
1.62361
1.5542
1.4247
1.26868
1.12236
1.0073
0.917474
0.842621
0.782737
0.738683
0.711815
0.702883
0.71124
0.733502
0.764423
0.798233
0.830198
0.857695
0.880379
0.89945
0.91645
0.932222
0.946444
0.957783
0.964661
0.966103
0.962561
0.956407
0.95194
0.954891
0.971514
1.00957
1.07938
1.194
1.36965
1.60775
1.86175
2.07001
2.16098
2.07022
1.77722
1.33851
0.887393
0.586514
0.547052
0.650724
0.799041
0.968551
1.13686
1.2863
1.41177
1.51063
1.58553
1.64301
1.69155
1.73959
1.79325
1.85587
1.92913
2.00904
2.08633
2.15034
2.19204
2.20639
2.19318
2.15639
2.10233
2.03741
1.96699
1.89409
1.81993
1.74496
1.66958
1.59432
1.51989
1.44681
1.37479
1.30222
1.22563
1.13987
1.03866
0.911091
0.741267
0.528515
0.280206
0
0.295449
1.64209
4.1819
7.67558
11.4806
14.7002
16.4792
16.3332
14.3518
11.1611
7.65961
4.66122
2.62356
1.57396
1.2274
1.1405
1.04137
0.941405
0.843704
0.753084
0.675188
0.615514
0.578365
0.565899
0.577684
0.6109
0.66116
0.723671
0.794324
0.870026
0.949019
1.03037
1.1134
1.19658
1.27675
1.35016
1.4142
1.46955
1.52165
1.58094
1.6614
1.77774
1.94202
2.17231
2.52547
2.9848
3.44155
3.78541
3.94232
3.8987
3.70657
3.46582
3.28669
3.24519
3.3127
3.42662
3.55985
3.68271
3.76915
3.80121
3.77053
3.67745
3.52846
3.3333
3.10301
2.85154
2.59174
2.33416
2.08708
1.85737
1.65151
1.47914
1.35543
1.27919
1.2307
1.18581
1.12512
1.04151
0.94212
0.84345
0.761924
0.704896
0.666739
0.632568
0.586398
0.51987
0.43674
0.351081
0.28059
0.238816
0.223758
0.226152
0.241037
0.263344
0.288045
0.311013
0.329475
0.342305
0.350064
0.354919
0.360445
0.371275
0.392562
0.429267
0.485771
0.570569
0.695488
0.855842
1.0189
1.14467
1.19866
1.1642
1.04858
0.880234
0.698608
0.542077
0.432602
0.364829
0.340655
0.411119
0.659844
1.02483
1.38823
1.61406
1.60684
1.36099
0.968626
0.580807
0.344442
0.343036
0.450938
0.597188
0.760628
0.931018
1.09939
1.25871
1.4039
1.53162
1.63961
1.72615
1.78994
1.82958
1.84297
1.82741
1.78001
1.69838
1.58148
1.43053
1.24978
1.04726
0.833994
0.622486
0.426388
0.257537
0.128351
0.0509489
0.0154756
0
-0.0177765
-0.0623598
-0.144561
-0.261972
-0.400366
-0.39421
0.578808
2.95039
6.70522
11.1757
15.1808
17.5055
17.4627
15.2016
11.5822
7.7163
4.47066
2.20478
0.825495
0.0358482
-0.129864
-0.157265
-0.154505
-0.121333
-0.0616179
0.0179307
0.109628
0.206582
0.303702
0.39827
0.488065
0.570426
0.642882
0.70289
0.748628
0.780034
0.799663
0.812939
0.827655
0.852781
0.89645
0.96286
1.05357
1.16821
1.30405
1.45624
1.61864
1.7847
1.949
2.10827
2.26185
2.41153
2.56088
2.71417
2.87606
3.05081
3.23983
3.43713
3.62514
3.78047
3.88037
3.90772
3.85567
3.73076
3.55274
3.34976
3.14944
2.96894
2.80625
2.65232
2.50063
2.3463
2.18547
2.016
1.83776
1.6525
1.46356
1.27524
1.09254
0.920872
0.76581
0.632692
0.525701
0.448816
0.409436
0.410184
0.437091
0.472558
0.500448
0.510801
0.502131
0.480327
0.454812
0.433892
0.421062
0.413991
0.410561
0.409001
0.408982
0.412373
0.423137
0.446363
0.486337
0.546429
0.632166
0.735549
0.83904
0.923301
0.973522
0.983974
0.958852
0.909306
0.848439
0.786821
0.729451
0.677224
0.630918
0.591719
0.561112
0.540989
0.533326
0.539731
0.561056
0.59717
0.646878
0.707922
0.777164
0.850852
0.922913
0.986755
1.03676
1.06965
1.08547
1.08774
1.0826
1.07742
1.07907
1.09156
1.11581
1.15174
1.19845
1.25388
1.31499
1.37749
1.43651
1.48737
1.52629
1.5508
1.56002
1.55449
1.53577
1.50594
1.46714
1.42155
1.37107
1.31727
1.26144
1.20459
1.14699
1.08785
1.02485
0.954334
0.871734
0.770986
0.642147
0.484344
0.301114
0
0.246812
1.66171
4.45583
8.32496
12.4453
15.7306
17.2516
16.6215
14.1399
10.6237
7.03035
4.08631
2.10743
1.04749
0.668503
0.667337
0.645723
0.620245
0.593264
0.569661
0.555883
0.558411
0.581993
0.62816
0.694899
0.776087
0.863171
0.946795
1.01768
1.07037
1.10417
1.12365
1.13818
1.16054
1.20446
1.28154
1.39824
1.55301
1.73434
1.93086
2.1334
2.33402
2.52737
2.71142
2.88745
3.0592
3.23145
3.40845
3.59351
3.78773
3.98223
4.1599
4.30259
4.3974
4.44091
4.43937
4.40489
4.34922
4.27828
4.19228
4.08927
3.9633
3.80997
3.62838
3.422
3.19846
2.96825
2.74252
2.52981
2.33686
2.16782
2.02379
1.9031
1.80165
1.7132
1.63101
1.54923
1.46388
1.37348
1.27905
1.18367
1.09175
1.00805
0.936731
0.881267
0.843916
0.825517
0.82609
0.846675
0.883842
0.927483
0.966743
0.992992
1.00235
0.99652
0.981333
0.96367
0.948261
0.935793
0.924392
0.912044
0.898522
0.886975
0.884253
0.903591
0.995007
1.25259
1.61892
1.97103
2.17107
2.12938
1.85262
1.44721
1.07058
0.854962
0.832337
0.879622
0.946726
1.01956
1.08938
1.14989
1.19761
1.23189
1.25439
1.26845
1.27825
1.28801
1.30124
1.32025
1.34583
1.37724
1.41278
1.45063
1.48924
1.52788
1.56689
1.60783
1.65317
1.70589
1.76891
1.84607
1.94159
2.05207
2.16177
2.25039
2.29855
2.29289
2.22864
2.10909
1.94305
1.74258
1.52363
1.30287
1.09212
0.901525
0.743822
0.649564
0.675489
0.839433
1.06435
1.25269
1.32098
1.22605
0.975184
0.617741
0.223891
0
0.729337
2.48986
5.29256
8.84342
12.5034
15.3992
16.7185
16.0668
13.6681
10.2635
6.75925
3.84622
1.80516
0.56157
-0.105952
-0.0727071
-0.0343029
0.00700026
0.0510052
0.0976168
0.147678
0.203472
0.268673
0.354353
0.476152
0.617509
0.741448
0.804818
0.78051
0.674617
0.527923
0.400248
0.34626
0.394722
0.5063
0.653336
0.826493
1.0192
1.22481
1.43718
1.65044
1.85745
2.0516
2.22789
2.38392
2.52053
2.64125
2.75088
2.85349
2.95041
3.03965
3.1164
3.17491
3.2108
3.2227
3.21241
3.18362
3.13974
3.08195
3.0094
2.91874
2.80593
2.66858
2.50757
2.32746
2.13568
1.9407
1.74996
1.56718
1.39415
1.23085
1.07602
0.928038
0.785526
0.647771
0.514811
0.387375
0.266963
0.155845
0.0570021
-0.0261376
-0.0902796
-0.131957
-0.145958
-0.131469
-0.0991303
-0.0642481
-0.0420495
-0.043205
-0.070784
-0.119732
-0.178916
-0.234825
-0.27549
-0.296576
-0.299578
-0.287323
-0.262697
-0.229598
-0.193897
-0.164355
-0.149316
-0.154319
-0.179888
-0.220079
-0.262698
-0.291658
-0.291088
-0.243441
-0.129724
0.0301254
0.196118
0.326086
0.390104
0.378792
0.304024
0.193534
0.0817788
-0.000760269
-0.0445903
-0.0577216
-0.0492459
-0.0304899
-0.0126888
-0.0024478
0.00140314
0.00828524
0.0492862
0.227101
0.529553
0.841228
1.00211
0.900862
0.543106
0.0575485
-0.359769
-0.532763
-0.429359
-0.0906817
0.523214
1.20414
1.7633
2.09977
2.19152
2.06647
1.77533
1.38047
0.960867
0.6188
0.406852
0.28706
0.213529
0.162067
0.123082
0.0907065
0.0614356
0.0347762
0.0129911
0
0.00116568
0.0176482
0.0483044
0.0906089
0.14087
0.209737
0.453511
1.43922
3.55284
6.7734
10.534
13.8519
15.7022
15.4636
13.2063
9.66242
5.88958
2.8163
0.902802
0.0693138
-0.118188
-0.221827
-0.310118
-0.383686
-0.437832
-0.470314
-0.481621
-0.474687
-0.454054
-0.424728
-0.391068
-0.356061
-0.320936
-0.28539
-0.24783
-0.205685
-0.155735
-0.0944989
-0.0187688
0.0737389
0.183767
0.310196
0.44977
0.598369
0.752588
0.909882
1.06904
1.23019
1.39422
1.56194
1.7332
1.90626
2.07777
2.24305
2.39683
2.5342
2.65132
2.74595
2.81748
2.86666
2.89497
2.90407
2.89518
2.86894
2.82529
2.76363
2.68335
2.58429
2.46711
2.33347
2.186
2.02807
1.86349
1.69608
1.52939
1.36646
1.20969
1.06084
0.921072
0.79096
0.670541
0.559308
0.456227
0.359798
0.268216
0.179643
0.0925879
0.0063056
-0.078713
-0.160166
-0.232997
-0.288299
-0.316333
-0.307732
-0.255838
-0.159244
-0.0180909
0.155849
0.336574
0.496389
0.613334
0.676344
0.686353
0.65365
0.593479
0.522147
0.454103
0.39739
0.357216
0.337984
0.346712
0.389064
0.458088
0.53613
0.602281
0.637598
0.629628
0.574895
0.479085
0.355493
0.222593
0.100238
0.00235786
-0.0629066
-0.0879917
-0.0704665
-0.00473127
0.103901
0.229858
0.345119
0.427477
0.467034
0.468489
0.448471
0.429065
0.430106
0.459307
0.510567
0.579996
0.661148
0.743761
0.818676
0.880287
0.927766
0.96469
0.997132
1.03092
1.06946
1.11103
1.14908
1.17483
1.18079
1.16363
1.12542
1.07251
1.01269
0.951577
0.890056
0.82438
0.748086
0.655377
0.54307
0.416581
0.288032
0.172374
0.0824761
0.0252162
0
-0.000257301
0.0203484
0.267178
1.34158
3.55361
6.79219
10.4916
13.7861
15.798
15.9604
14.2434
11.171
7.60303
4.38926
2.07593
0.795873
0.354311
0.380566
0.354697
0.320295
0.277436
0.228373
0.177668
0.131695
0.0970446
0.0789659
0.0801548
0.100289
0.136778
0.185135
0.240903
0.30098
0.364306
0.431718
0.50515
0.586586
0.677282
0.777384
0.886808
1.00578
1.13543
1.27784
1.4354
1.60976
1.80063
2.00485
2.21653
2.42912
2.63565
2.82926
3.00291
3.15071
3.2704
3.3618
3.4263
3.46634
3.48466
3.48355
3.46419
3.42639
3.36946
3.29205
3.19318
3.07332
2.93468
2.78096
2.61648
2.44519
2.27005
2.09219
1.91158
1.72764
1.54006
1.34942
1.15762
0.967826
0.78417
0.611157
0.453136
0.313838
0.196184
0.102259
0.0333265
-0.00994358
-0.0250831
-0.00679636
0.0437563
0.109003
0.167471
0.199784
0.195269
0.156111
0.096871
0.0392292
0.0040307
0.00277958
0.0277648
0.0708337
0.122164
0.169492
0.200926
0.207156
0.183144
0.129138
0.0509404
-0.0406332
-0.131177
-0.205029
-0.247895
-0.21999
-0.0958126
0.0799433
0.239043
0.319892
0.295651
0.186187
0.0478027
-0.0540447
-0.0751703
-0.0286257
0.0461889
0.131026
0.212803
0.280771
0.328152
0.352676
0.356027
0.342523
0.317496
0.286087
0.252125
0.218105
0.185968
0.157997
0.137863
0.131033
0.143896
0.183072
0.253968
0.359399
0.498723
0.667729
0.859261
1.06577
1.27702
1.47644
1.64252
1.75561
1.79756
1.75592
1.6297
1.43308
1.19368
0.94572
0.720923
0.533682
0.378507
0.252757
0.156699
0.0882901
0.0432315
0.0167519
0
-0.0147722
-0.0387117
-0.0780032
-0.134588
-0.234029
-0.357155
0.636268
3.23913
7.33597
12.0673
16.0868
18.1255
17.5771
14.7645
10.7354
6.71459
3.54977
1.48065
0.300347
-0.29028
-0.0848898
0.177627
0.477131
0.735552
0.851487
0.76289
0.491484
0.141866
-0.144309
-0.25364
-0.191769
-0.0618225
0.102858
0.2905
0.490251
0.69285
0.891619
1.07963
1.25009
1.39786
1.51891
1.61142
1.67718
1.72251
1.75815
1.79798
1.85661
1.94547
2.06888
2.22579
2.41122
2.61738
2.835
3.0544
3.26646
3.46384
3.64149
3.79662
3.92779
4.03221
4.10455
4.14106
4.13749
4.08952
3.99476
3.85455
3.67485
3.46576
3.23982
3.00958
2.78445
2.56912
2.36614
2.1755
1.99529
1.82265
1.65492
1.4907
1.33054
1.17709
1.03468
0.908579
0.80526
0.731178
0.687482
0.666186
0.655543
0.643532
0.621507
0.586709
0.542769
0.498031
0.462298
0.443197
0.443563
0.460869
0.488314
0.518416
0.546548
0.573053
0.602909
0.643043
0.700398
0.776983
0.86052
0.93227
0.975656
0.984445
0.966301
0.939873
0.926687
0.941483
0.991038
1.05479
1.09954
1.0953
1.03063
0.919954
0.799201
0.71127
0.688041
0.724365
0.79292
0.881615
0.976442
1.06489
1.13865
1.19504
1.237
1.27172
1.30837
1.35504
1.4166
1.49577
1.58824
1.68337
1.76855
1.83304
1.87107
1.88322
1.87585
1.85886
1.84267
1.83435
1.83607
1.84822
1.86774
1.88693
1.89584
1.88461
1.84578
1.77607
1.67722
1.55564
1.42073
1.2825
1.14871
1.02249
0.903507
0.789205
0.675263
0.556829
0.429118
0.29123
0.146119
0
0.0578156
0.992374
2.98844
6.02797
9.70639
13.2929
15.9501
17.0143
16.2206
13.7893
10.3459
6.71658
3.669
1.68543
0.846287
0.863719
0.859047
0.851382
0.840009
0.827383
0.819259
0.823143
0.846012
0.892076
0.961359
1.04952
1.14891
1.2504
1.34604
1.43067
1.50151
1.55871
1.60514
1.6457
1.68647
1.73375
1.79317
1.8689
1.96358
2.07856
2.21407
2.36935
2.54301
2.73326
2.93792
3.15436
3.37951
3.60951
3.83649
4.0501
4.23925
4.39374
4.50556
4.56978
4.58468
4.5517
4.47529
4.36323
4.22508
4.07164
3.91319
3.75741
3.60745
3.46182
3.31782
3.17209
3.02192
2.86642
2.70701
2.54715
2.39132
2.24355
2.10655
1.98083
1.86402
1.75211
1.6408
1.52706
1.4102
1.2923
1.17782
1.07265
0.982238
0.910569
0.860413
0.832336
0.825165
0.835355
0.857582
0.885553
0.912548
0.931441
0.934636
0.916455
0.873414
0.805226
0.715694
0.613108
0.509793
0.421091
0.387391
0.497762
0.759615
1.0755
1.32419
1.41711
1.32976
1.10073
0.808468
0.542206
0.376735
0.308829
0.297102
0.316209
0.355586
0.406766
0.460972
0.511485
0.554796
0.590842
0.622191
0.652415
0.684673
0.719171
0.752822
0.781336
0.802023
0.815548
0.825513
0.836117
0.849584
0.864492
0.877455
0.886935
0.896919
0.918004
0.964764
1.06732
1.25194
1.47722
1.67213
1.77012
1.74031
1.59829
1.39271
1.17862
0.995354
0.848328
0.724675
0.618471
0.528472
0.453613
0.392443
0.341608
0.296322
0.251295
0.20165
0.14386
0.0764111
0
-0.0943368
0.114197
0.982259
2.79319
5.60923
9.09508
12.5022
14.8772
15.4372
13.9302
10.7763
6.90629
3.3748
0.950278
-0.12014
-0.0953584
0.174135
0.225991
0.225106
0.17823
0.106256
0.0389132
0.00488324
0.0215366
0.0760993
0.159765
0.257998
0.355065
0.438677
0.503133
0.54766
0.576439
0.597104
0.618996
0.650272
0.697552
0.766422
0.860393
0.980508
1.12515
1.28981
1.46899
1.65674
1.84738
2.03632
2.22076
2.39994
2.57486
2.74753
2.91991
3.09294
3.26516
3.43096
3.5816
3.7072
3.79899
3.85106
3.86097
3.82953
3.75994
3.65701
3.5295
3.38494
3.22843
3.0641
2.8948
2.7219
2.54531
2.36391
2.17658
1.98311
1.78506
1.58606
1.39151
1.20783
1.04118
0.896935
0.778811
0.688226
0.624803
0.586912
0.572245
0.578148
0.602025
0.642388
0.695813
0.751795
0.795562
0.812843
0.79454
0.740742
0.662069
0.577211
0.50718
0.468244
0.477279
0.520969
0.571593
0.600325
0.590853
0.5468
0.489693
0.449029
0.449835
0.498002
0.577734
0.677894
0.792653
0.916127
1.04269
1.16387
1.26582
1.33347
1.35155
1.30945
1.2063
1.05341
0.87182
0.686138
0.517405
0.372971
0.249734
0.152727
0.085929
0.0518929
0.0532537
0.0915343
0.165509
0.270877
0.40145
0.540691
0.668875
0.769216
0.832096
0.85748
0.854858
0.840862
0.835304
0.856756
0.94682
1.14643
1.41062
1.65792
1.80658
1.80174
1.63322
1.33972
0.997549
0.696582
0.510366
0.420644
0.382768
0.377146
0.398058
0.433738
0.467312
0.483124
0.469475
0.420778
0.338506
0.230562
0.109262
-0.0114104
-0.118675
0
0.850469
2.47593
5.10258
8.62331
12.4194
15.4796
16.8139
15.9427
13.165
9.43354
5.90204
3.40371
2.14887
1.78737
1.72143
1.49288
1.27324
1.06904
0.888323
0.737253
0.61998
0.538355
0.491994
0.478701
0.495109
0.537375
0.601652
0.684162
0.780711
0.889431
1.00476
1.11749
1.21886
1.30342
1.37148
1.42984
1.49024
1.56613
1.6688
1.80086
1.95682
2.13214
2.32193
2.52007
2.71954
2.91357
3.0967
3.26541
3.41851
3.55706
3.68397
3.80333
3.91957
4.03656
4.15724
4.28311
4.40733
4.50942
4.561
4.5337
4.40914
4.18666
3.88561
3.54096
3.19404
2.87901
2.60075
2.35643
2.14752
1.97293
1.82785
1.69981
1.57395
1.4374
1.28246
1.10884
0.924155
0.742274
0.579933
0.452355
0.385865
0.389776
0.440858
0.505461
0.55363
0.570382
0.559233
0.536923
0.522445
0.52601
0.543093
0.558496
0.554784
0.523041
0.469754
0.415867
0.388076
0.406695
0.475227
0.570297
0.678087
0.783336
0.872986
0.938388
0.975821
0.985875
0.972559
0.943823
0.908092
0.875315
0.855751
0.858481
0.899528
0.979989
1.07992
1.17119
1.22772
1.23478
1.19333
1.11869
1.03463
0.965879
0.927009
0.918217
0.935233
0.973635
1.02917
1.09783
1.17587
1.26036
1.34948
1.44243
1.53904
1.63923
1.74248
1.84742
1.95159
2.05114
2.14044
2.21231
2.26011
2.278
2.26207
2.21152
2.12947
2.02305
1.90248
1.77916
1.66325
1.56096
1.47615
1.4049
1.33918
1.26976
1.18913
1.09316
0.981228
0.854997
0.716935
0.569885
0.41535
0.255545
0.0932508
0
0.888406
3.14217
6.65554
10.7596
14.4336
16.7051
17.038
15.509
12.6965
9.38311
6.25577
3.74394
2.01072
1.02153
0.688164
0.642927
0.607799
0.585728
0.578986
0.589346
0.617428
0.662076
0.720139
0.786862
0.856858
0.92537
0.989601
1.04951
1.1067
1.16384
1.22449
1.29252
1.37147
1.4641
1.57187
1.69468
1.83076
1.97686
2.12876
2.28198
2.43229
2.57692
2.71549
2.85035
2.98629
3.12956
3.2863
3.46072
3.6535
3.86515
4.08379
4.29091
4.46761
4.59968
4.68053
4.71119
4.69775
4.64765
4.56672
4.46297
4.34022
4.19874
4.03875
3.86063
3.66482
3.45162
3.22228
2.97738
2.71804
2.44679
2.16823
1.88925
1.61984
1.37406
1.16494
1.00317
0.894861
0.840063
0.832496
0.862914
0.915767
0.975462
1.0294
1.06981
1.09386
1.102
1.09523
1.07001
1.02031
0.936374
0.808497
0.63216
0.412248
0.164556
-0.086448
-0.255142
-0.0206894
0.524896
1.12162
1.50995
1.54209
1.22733
0.70397
0.166059
-0.201878
-0.247855
-0.119906
0.0680964
0.298299
0.547148
0.774679
0.942797
1.02715
1.02536
0.957344
0.856879
0.758125
0.683876
0.634368
0.600303
0.578097
0.565981
0.563428
0.571137
0.590398
0.622257
0.666238
0.721424
0.786921
0.861983
0.946357
1.04024
1.14382
1.2565
1.37634
1.49942
1.61948
1.72904
1.82043
1.88684
1.92308
1.926
1.8946
1.83002
1.736
1.6181
1.48266
1.33698
1.18864
1.04468
0.910362
0.789041
0.682852
0.59177
0.514114
0.446945
0.386586
0.329217
0.271498
0.210947
0.146791
0.08002
0.0130262
0
0.619653
2.2056
5.00489
8.84756
13.0005
16.3353
17.7909
16.8831
13.9496
9.97666
6.11917
3.2048
1.48397
0.709684
0.425012
0.296235
0.186581
0.112214
0.0843957
0.107229
0.17635
0.279394
0.398603
0.515154
0.613916
0.688763
0.739579
0.772248
0.795905
0.819856
0.850899
0.8914
0.942305
1.00467
1.0794
1.16741
1.26956
1.38631
1.51717
1.66025
1.81281
1.96971
2.12151
2.25782
2.37066
2.45713
2.52124
2.5739
2.63094
2.70939
2.82324
2.97693
3.16673
3.39515
3.64814
3.89267
4.09463
4.22755
4.27759
4.24485
4.14104
3.98445
3.79412
3.58492
3.3669
3.14401
2.91713
2.6862
2.4513
2.21345
1.97523
1.74102
1.51701
1.31052
1.129
0.97898
0.865755
0.792003
0.757563
0.758869
0.785875
0.820122
0.841942
0.835828
0.793885
0.718072
0.620412
0.520605
0.441195
0.401418
0.405908
0.453233
0.540215
0.646539
0.748932
0.828153
0.874312
0.888763
0.88203
0.868702
0.861353
0.865688
0.878325
0.893921
0.906157
0.910776
0.907614
0.900871
0.89756
0.904749
0.926073
0.964868
1.01222
1.0505
1.06165
1.03483
0.97192
0.888087
0.806973
0.75246
0.740729
0.765842
0.81659
0.888155
0.97475
1.07042
1.17068
1.26919
1.35704
1.42477
1.46473
1.47507
1.46274
1.44335
1.43691
1.46099
1.52419
1.61511
1.7211
1.8314
1.93456
2.02037
2.08107
2.11183
2.11051
2.07716
2.01356
1.92443
1.81423
1.68821
1.5522
1.41189
1.27193
1.13493
1.00112
0.868643
0.733967
0.591764
0.435651
0.264669
0.0827493
-0.101851
0
0.985195
3.04176
6.17505
10.0111
13.7894
16.544
17.4562
16.2233
13.2266
9.37544
5.70338
2.95006
1.35714
0.737967
0.762682
0.826768
0.887729
0.940218
0.979071
0.999457
0.998355
0.974543
0.929066
0.865627
0.789986
0.711631
0.642849
0.596056
0.581607
0.605838
0.669896
0.769678
0.896957
1.04137
1.1925
1.34279
1.48847
1.62836
1.76329
1.89548
2.0276
2.16192
2.29969
2.44095
2.58477
2.72954
2.8735
3.01508
3.15303
3.2864
3.41412
3.53465
3.64568
3.74377
3.82411
3.88111
3.90929
3.90353
3.85985
3.77619
3.65307
3.49411
3.30601
3.09805
2.88121
2.66561
2.45886
2.26718
2.09222
1.93131
1.77935
1.63108
1.48338
1.33681
1.19599
1.06852
0.962839
0.889941
0.868211
0.88728
0.92101
0.939814
0.922415
0.863927
0.776517
0.682832
0.606083
0.561898
0.543491
0.543212
0.558541
0.585973
0.621895
0.662025
0.701677
0.736306
0.761885
0.775413
0.775438
0.762448
0.739035
0.709747
0.68062
0.65802
0.647794
0.655259
0.687628
0.749557
0.833503
0.921265
0.992177
1.02895
1.02258
0.974792
0.897544
0.809857
0.733048
0.683573
0.66662
0.680473
0.721156
0.784335
0.865744
0.960538
1.06347
1.16948
1.27347
1.37084
1.458
1.53258
1.59349
1.64087
1.67572
1.69892
1.71199
1.71624
1.71268
1.7021
1.6849
1.66085
1.62809
1.58355
1.52329
1.4434
1.34164
1.21879
1.07926
0.93042
0.780963
0.638863
0.507878
0.38948
0.284356
0.192016
0.11114
0.0400122
-0.0226595
-0.0777039
0
0.753604
2.44318
5.23895
8.93644
12.8687
16.0419
17.4996
16.7654
14.1023
10.4021
6.7492
3.93182
2.19106
1.31033
0.903713
0.789491
0.686133
0.589517
0.500176
0.416793
0.336357
0.255179
0.170064
0.078587
-0.0183265
-0.1125
-0.189983
-0.234832
-0.23329
-0.177535
-0.0678777
0.087135
0.27271
0.471315
0.667018
0.85124
1.02193
1.17946
1.32654
1.46783
1.60863
1.75351
1.90523
2.06398
2.22764
2.39237
2.55326
2.70572
2.84645
2.97391
3.08824
3.19026
3.27907
3.35348
3.41152
3.44965
3.46411
3.45246
3.41429
3.35096
3.2644
3.15596
3.02791
2.88287
2.7221
2.54682
2.35987
2.16582
1.97069
1.78099
1.60274
1.44092
1.29784
1.17179
1.05824
0.950978
0.843553
0.730716
0.609469
0.479637
0.343935
0.207611
0.0785862
-0.0335164
-0.119537
-0.17215
-0.187224
-0.16467
-0.108567
-0.0265478
0.0713471
0.174046
0.27043
0.350345
0.406899
0.43736
0.443902
0.43367
0.417822
0.409452
0.420739
0.46004
0.531965
0.63726
0.762528
0.882761
0.97312
1.01563
1.00383
0.944409
0.855539
0.762099
0.689066
0.6541
0.656441
0.686457
0.736079
0.799727
0.870937
0.942482
1.00747
1.06063
1.09899
1.12231
1.13317
1.13666
1.13948
1.14879
1.17068
1.20861
1.26409
1.33505
1.41499
1.49538
1.56715
1.62186
1.65133
1.64887
1.61073
1.53569
1.42574
1.28632
1.12582
0.954028
0.779888
0.609458
0.444001
0.282717
0.124649
-0.0317569
-0.18693
-0.339578
-0.487805
-0.620956
0
1.28502
3.41111
6.39529
9.91375
13.2528
15.4885
15.8678
14.1939
10.971
7.1883
3.85569
1.57026
0.368812
-0.0974797
-0.156849
-0.182658
-0.204806
-0.224626
-0.244019
-0.265155
-0.290022
-0.31986
-0.354631
-0.392828
-0.430205
-0.459262
-0.471639
-0.460368
-0.422114
-0.358459
-0.275627
-0.182578
-0.0880986
0.00201054
0.0868619
0.169393
0.255149
0.35019
0.45923
0.582665
0.719407
0.868439
1.02831
1.19717
1.37268
1.55188
1.73052
1.9019
2.05855
2.19378
2.30366
2.38865
2.45432
2.51073
2.57049
2.65367
2.7955
2.98887
3.17971
3.29658
3.28116
3.11292
2.81644
2.44896
2.0759
1.74859
1.46977
1.22451
1.00908
0.826997
0.685313
0.606172
0.641765
0.824153
1.07584
1.288
1.35488
1.21123
0.859056
0.372844
-0.121228
-0.487389
-0.670026
-0.736142
-0.69171
-0.56062
-0.37917
-0.187902
-0.0223215
0.105935
0.192257
0.237063
0.247843
0.236718
0.217288
0.20153
0.196318
0.203079
0.220822
0.247608
0.280386
0.315742
0.350432
0.381634
0.406811
0.423404
0.429792
0.425265
0.410643
0.388867
0.365221
0.346877
0.341708
0.356568
0.403524
0.490584
0.601991
0.710502
0.789321
0.822581
0.811867
0.776022
0.74416
0.744646
0.794464
0.882231
0.997104
1.12182
1.23572
1.31963
1.35899
1.34536
1.27666
1.15662
0.994189
0.802877
0.600254
0.403829
0.227067
0.0781523
-0.037697
-0.113024
-0.145332
-0.142312
-0.123511
-0.111682
-0.127025
-0.182696
-0.28196
-0.417612
-0.573797
-0.697136
0
1.91065
5.08976
9.09965
13.0539
15.8743
16.6886
15.2066
11.8808
7.73721
3.93426
1.27276
-0.0743378
-0.477045
-0.483245
-0.437798
-0.384993
-0.322632
-0.250592
-0.170998
-0.0876408
-0.00478096
0.074272
0.148634
0.219846
0.290767
0.365321
0.447526
0.540479
0.645477
0.761636
0.886213
1.01526
1.14423
1.26845
1.38431
1.4905
1.58842
1.68229
1.77874
1.88578
2.01141
2.16199
2.34078
2.54597
2.77185
3.01073
3.2533
3.48905
3.70743
3.89912
4.05653
4.17357
4.24495
4.26664
4.23688
4.15575
4.02596
3.8536
3.64852
3.42393
3.19495
2.9765
2.78242
2.62457
2.50275
2.40857
2.32812
2.24568
2.14732
2.02366
1.87129
1.69292
1.49649
1.29422
1.09777
0.917213
0.760952
0.636193
0.550051
0.514958
0.558399
0.716966
0.973086
1.24981
1.46355
1.54618
1.46654
1.24273
0.940593
0.65758
0.492553
0.471949
0.536057
0.640339
0.765299
0.897664
1.02489
1.13675
1.22639
1.29068
1.33
1.34767
1.34915
1.34157
1.33221
1.32874
1.33787
1.36425
1.40954
1.47332
1.55053
1.63232
1.70914
1.7731
1.81975
1.84861
1.86244
1.86554
1.86179
1.85361
1.84098
1.82252
1.79654
1.76225
1.72046
1.67366
1.62531
1.57876
1.53609
1.49721
1.46025
1.42177
1.37757
1.3236
1.25671
1.17529
1.07965
0.970212
0.8506
0.72873
0.614701
0.517825
0.444544
0.396875
0.371828
0.385254
60
224
384
545
703
861
1019
1178
1341
1504
1671
1836
2001
2166
2328
2489
2652
2816
2980
3143
3302
3457
3609
3672
3684
0
0
0
0
0
0
0
0
0
0
0
0
0
0
0
0
0
0
0
0
0
0
0
0
0
0
0
0
0
0
0
0
0
0
0
0
0
0
0
0
0
0
0
0
0
0
0
0
0
0
0
0
0
0
0
0
0
0
0
0
0
0
0
0
0
0
0
0
0
0
0
0
0
0
0
0
0
0
0
0
0
0
0
0
0
0
0
0
0
0
0
0
0
0
0
0
0
0
0
0
0
0
0
0
0
0
0
0
0
0
0
0
0
0
0
0
0
0
0
0
0
0
0
0
0
0
0
0
0
0
0
0
0
0
0
0
0
0
0
0
0
0
0
0
0
0
0
0
0
0
0
0
0
0
0
0
0
0
0
0
0
0
0
0
0
0
0
0
0
0
0
0
0
0
0
0
0
0
0
0
0
0
0
0
0
0
0
0
0
0
0
0
0
0
0
0
0
0
0
0
0
0
0
0
0
0
0
0
0
0
0
0
0
0
0
0
0
0
0
0
0
0
0
0
0
0
0
0
0
0
0
0
0
0
0
0
0
0
0
0
0
0
0
0
0
0
0
0
0
0
0
0
0
0
0
0
0
0
0
0
0
0
0
0
0
0
0
0
0
0
0
0
0
0
0
0
0
0
0
0
0
0
0
0
0
0
0
0
0
0
0
0
0
0
0
0
0
0
0
0
0
0
0
0
0
0
0
0
0
0
0
0
0
0
0
0
0
0
0
0
0
0
0
0
0
0
0
0
0
0
0
0
0
0
0
0
0
0
0
0
0
0
0
0
0
0
0
0
0
0
0
0
0
0
0
0
0
0
0
0
0
0
0
0
0
0
0
0
0
0
0
0
0
0
0
0
0
0
0
0
0
0
0
0
0
0
0
0
0
0
0
0
0
0
0
0
0
0
0
0
0
0
0
0
0
0
0
0
0
0
0
0
0
0
0
0
0
0
0
0
0
0
0
0
0
0
0
0
0
0
0
0
0
0
0
0
0
0
0
0
0
0
0
0
0
0
0
0
0
0
0
0
0
0
0
0
0
0
0
0
0
0
0
0
0
0
0
0
0
0
0
0
0
0
0
0
0
0
0
0
0
0
0
0
0
0
0
0
0
0
0
0
0
0
0
0
0
0
0
0
0
0
0
0
0
0
0
0
0
0
0
0
0
0
0
0
0
0
0
0
0
0
0
0
0
0
0
0
0
0
0
0
0
0
0
0
0
0
0
0
0
0
0
0
0
0
0
0
0
0
0
0
0
0
0
0
0
0
0
0
0
0
0
0
0
0
0
0
0
0
0
0
0
0
0
0
0
0
0
0
0
0
0
0
0
0
0
0
0
0
0
0
0
0
0
0
0
0
0
0
0
0
0
0
0
0
0
0
0
0
0
0
0
0
0
0
0
0
0
0
0
0
0
0
0
0
0
0
0
0
0
0
0
0
0
0
0
0
0
0
0
0
0
0
0
0
0
0
0
0
0
0
0
0
0
0
0
0
0
0
0
0
0
0
0
0
0
0
0
0
0
0
0
0
0
0
0
0
0
0
0
0
0
0
0
0
0
0
0
0
0
0
0
0
0
0
0
0
0
0
0
0
0
0
0
0
0
0
0
0
0
0
0
0
0
0
0
0
0
0
0
0
0
0
0
0
0
0
0
0
0
0
0
0
0
0
0
0
0
0
0
0
0
0
0
0
0
0
0
0
0
0
0
0
0
0
0
0
0
0
0
0
0
0
0
0
0
0
0
0
0
0
0
0
0
0
0
0
0
0
0
0
0
0
0
0
0
0
0
0
0
0
0
0
0
0
0
0
0
0
0
0
0
0
0
0
0
0
0
0
0
0
0
0
0
0
0
0
0
0
0
0
0
0
0
0
0
0
0
0
0
0
0
0
0
0
0
0
0
0
0
0
0
0
0
0
0
0
0
0
0
0
0
0
0
0
0
0
0
0
0
0
0
0
0
0
0
0
0
0
0
0
0
0
0
0
0
0
0
0
0
0
0
0
0
0
0
0
0
0
0
0
0
0
0
0
0
0
0
0
0
0
0
0
0
0
0
0
0
0
0
0
0
0
0
0
0
0
0
0
0
0
0
0
0
0
0
0
0
0
0
0
0
0
0
0
0
0
0
0
0
0
0
0
0
0
0
0
0
0
0
0
0
0
0
0
0
0
0
0
0
0
0
0
0
0
0
0
0
0
0
0
0
0
0
0
0
0
0
0
0
0
0
0
0
0
0
0
0
0
0
0
0
0
0
0
0
0
0
0
0
0
0
0
0
0
0
0
0
0
0
0
0
0
0
0
0
0
0
0
0
0
0
0
0
0
0
0
0
0
0
0
0
0
0
0
0
0
0
0
0
0
0
0
0
0
0
0
0
0
0
0
0
0
0
0
0
0
0
0
0
0
0
0
0
0
0
0
0
0
0
0
0
0
0
0
0
0
0
0
0
0
0
0
0
0
0
0
0
0
0
0
0
0
0
0
0
0
0
0
0
0
0
0
0
0
0
0
0
0
0
0
0
0
0
0
0
0
0
0
0
0
0
0
0
0
0
0
0
0
0
0
0
0
0
0
0
0
0
0
0
0
0
0
0
0
0
0
0
0
0
0
0
0
0
0
0
0
0
0
0
0
0
0
0
0
0
0
0
0
0
0
0
0
0
0
0
0
0
0
0
0
0
0
0
0
0
0
0
0
0
0
0
0
0
0
0
0
0
0
0
0
0
0
0
0
0
0
0
0
0
0
0
0
0
0
0
0
0
0
0
0
0
0
0
0
0
0
0
0
0
0
0
0
0
0
0
0
0
0
0
0
0
0
0
0
0
0
0
0
0
0
0
0
0
0
0
0
0
0
0
0
0
0
0
0
0
0
0
0
0
0
0
0
0
0
0
0
0
0
0
0
0
0
0
0
0
0
0
0
0
0
0
0
0
0
0
0
0
0
0
0
0
0
0
0
0
0
0
0
0
0
0
0
0
0
0
0
0
0
0
0
0
0
0
0
0
0
0
0
0
0
0
0
0
0
0
0
0
0
0
0
0
0
0
0
0
0
0
0
0
0
0
0
0
0
0
0
0
0
0
0
0
0
0
0
0
0
0
0
0
0
0
0
0
0
0
0
0
0
0
0
0
0
0
0
0
0
0
0
0
0
0
0
0
0
0
0
0
0
0
0
0
0
0
0
0
0
0
0
0
0
0
0
0
0
0
0
0
0
0
0
0
0
0
0
0
0
0
0
0
0
0
0
0
0
0
0
0
0
0
0
0
0
0
0
0
0
0
0
0
0
0
0
0
0
0
0
0
0
0
0
0
0
0
0
0
0
0
0
0
0
0
0
0
0
0
0
0
0
0
0
0
0
0
0
0
0
0
0
0
0
0
0
0
0
0
0
0
0
0
0
0
0
0
0
0
0
0
0
0
0
0
0
0
0
0
0
0
0
0
0
0
0
0
0
0
0
0
0
0
0
0
0
0
0
0
0
0
0
0
0
0
0
0
0
0
0
0
0
0
0
0
0
0
0
0
0
0
0
0
0
0
0
0
0
0
0
0
0
0
0
0
0
0
0
0
0
0
0
0
0
0
0
0
0
0
0
0
0
0
0
0
0
0
0
0
0
0
0
0
0
0
0
0
0
0
0
0
0
0
0
0
0
0
0
0
0
0
0
0
0
0
0
0
0
0
0
0
0
0
0
0
0
0
0
0
0
0
0
0
0
0
0
0
0
0
0
0
0
0
0
0
0
0
0
0
0
0
0
0
0
0
0
0
0
0
0
0
0
0
0
0
0
0
0
0
0
0
0
0
0
0
0
0
0
0
0
0
0
0
0
0
0
0
0
0
0
0
0
0
0
0
0
0
0
0
0
0
0
0
0
0
0
0
0
0
0
0
0
0
0
0
0
0
0
0
0
0
0
0
0
0
0
0
0
0
0
0
0
0
0
0
0
0
0
0
0
0
0
0
0
0
0
0
0
0
0
0
0
0
0
0
0
0
0
0
0
0
0
0
0
0
0
0
0
0
0
0
0
0
0
0
0
0
0
0
0
0
0
0
0
0
0
0
0
0
0
0
0
0
0
0
0
0
0
0
0
0
0
0
0
0
0
0
0
0
0
0
0
0
0
0
0
0
0
0
0
0
0
0
0
0
0
0
0
0
0
0
0
0
0
0
0
0
0
0
0
0
0
0
0
0
0
0
0
0
0
0
0
0
0
0
0
0
0
0
0
0
0
0
0
0
0
0
0
0
0
0
0
0
0
0
0
0
0
0
0
0
0
0
0
0
0
0
0
0
0
0
0
0
0
0
0
0
0
0
0
0
0
0
0
0
0
0
0
0
0
0
0
0
0
0
0
0
0
0
0
0
0
0
0
0
0
0
0
0
0
0
0
0
0
0
0
0
0
0
0
0
0
0
0
0
0
0
0
0
0
0
0
0
0
0
0
0
0
0
0
0
0
0
0
0
0
0
0
0
0
0
0
0
0
0
0
0
0
0
0
0
0
0
0
0
0
0
0
0
0
0
0
0
0
0
0
0
0
0
0
0
0
0
0
0
0
0
0
0
0
0
0
0
0
0
0
0
0
0
0
0
0
0
0
0
0
0
0
0
0
0
0
0
0
0
0
0
0
0
0
0
0
0
0
0
0
0
0
0
0
0
0
0
0
0
0
0
0
0
0
0
0
0
0
0
0
0
0
0
0
0
0
0
0
0
0
0
0
0
0
0
0
0
0
0
0
0
0
0
0
0
0
0
0
0
0
0
0
0
0
0
0
0
0
0
0
0
0
0
0
0
0
0
0
0
0
0
0
0
0
0
0
0
0
0
0
0
0
0
0
0
0
0
0
0
0
0
0
0
0
0
0
0
0
0
0
0
0
0
0
0
0
0
0
0
0
0
0
0
0
0
0
0
0
0
0
0
0
0
0
0
0
0
0
0
0
0
0
0
0
0
0
0
0
0
0
0
0
0
0
0
0
0
0
0
0
0
0
0
0
0
0
0
0
0
0
0
0
0
0
0
0
0
0
0
0
0
0
0
0
0
0
0
0
0
0
0
0
0
0
0
0
0
0
0
0
0
0
0
0
0
0
0
0
0
0
0
0
0
0
0
0
0
0
0
0
0
0
0
0
0
0
0
0
0
0
0
0
0
0
0
0
0
0
0
0
0
0
0
0
0
0
0
0
0
0
0
0
0
0
0
0
0
0
0
0
0
0
0
0
0
0
0
0
0
0
0
0
0
0
0
0
0
0
0
0
0
0
0
0
0
0
0
0
0
0
0
0
0
0
0
0
0
0
0
0
0
0
0
0
0
0
0
0
0
0
0
0
0
0
0
0
0
0
0
0
0
0
0
0
0
0
0
0
0
0
0
0
0
0
0
0
0
0
0
0
0
0
0
0
0
0
0
0
0
0
0
0
0
0
0
0
0
0
0
0
0
0
0
0
0
0
0
0
0
0
0
0
0
0
0
0
0
0
0
0
0
0
0
0
0
0
0
0
0
0
0
0
0
0
0
0
0
0
0
0
0
0
0
0
0
0
0
0
0
0
0
0
0
0
0
0
0
0
0
0
0
0
0
0
0
0
0
0
0
0
0
0
0
0
0
0
0
0
0
0
0
0
0
0
0
0
0
0
0
0
0
0
0
0
0
0
0
0
0
0
0
0
0
0
0
0
0
0
0
0
0
0
0
0
0
0
0
0
0
0
0
0
0
0
0
0
0
0
0
0
0
0
0
0
0
0
0
0
0
0
0
0
0
0
0
0
0
0
0
0
0
0
0
0
0
0
0
0
0
0
0
0
0
0
0
0
0
0
0
0
0
0
0
0
0
0
0
0
0
0
0
0
0
0
0
0
0
0
0
0
0
0
0
0
0
0
0
0
0
0
0
0
0
0
0
0
0
0
0
0
0
0
0
0
0
0
0
0
0
0
0
0
0
0
0
0
0
0
0
0
0
0
0
0
0
0
0
0
0
0
0
0
0
0
0
0
0
0
0
0
0
0
0
0
0
0
0
0
0
0
0
0
0
0
0
0
0
0
0
0
0
0
0
0
0
0
0
0
0
0
0
0
0
0
0
0
0
0
0
0
0
0
0
0
0
0
0
0
0
0
0
0
0
0
0
0
0
0
0
0
0
0
0
0
0
0
0
0
0
0
0
0
0
0
0
0
0
0
0
0
0
0
0
0
0
0
0
0
0
0
0
0
0
0
0
0
0
0
0
0
0
0
0
0
0
0
0
0
0
0
0
0
0
0
0
0
0
0
0
0
0
0
0
0
0
0
0
0
0
0
0
0
0
0
0
0
0
0
0
0
0
0
0
0
0
0
0
0
0
0
0
0
0
0
0
0
0
0
0
0
0
0
0
0
0
0
0
0
0
0
0
0
0
0
0
0
0
0
0
0
0
0
0
0
0
0
0
0
0
0
0
0
0
0
0
0
0
0
0
0
0
0
0
0
0
0
0
0
0
0
0
0
0
0
0
0
0
0
0
0
0
0
0
0
0
0
0
0
0
0
0
0
0
0
0
0
0
0
0
0
0
0
0
0
0
0
0
0
0
0
0
0
0
0
0
0
0
0
0
0
0
0
0
0
0
0
0
0
0
0
0
0
0
0
0
0
0
0
0
0
0
0
0
0
0
0
0
0
0
0
0
0
0
0
0
0
0
0
0
0
0
0
0
0
0
0
0
0
0
0
0
0
0
0
0
0
0
0
0
0
0
0
0
0
0
0
0
0
0
0
0
0
0
0
0
0
0
0
0
0
0
0
0
0
0
0
0
0
0
0
0
0
0
0
0
0
0
0
0
0
0
0
0
0
0
0
0
0
0
0
0
0
0
0
0
0
0
0
0
0
0
0
0
0
0
0
0
0
0
0
0
0
0
0
0
0
0
0
0
0
0
0
0
0
0
0
0
0
0
0
0
0
0
0
0
0
0
0
0
0
0
0
0
0
0
0
0
0
0
0
0
0
0
0
0
0
0
0
0
0
0
0
0
0
0
0
0
0
0
0
0
0
0
0
0
0
0
0
0
0
0
0
0
0
0
0
0
0
0
0
0
0
0
0
0
0
0
0
0
0
0
0
0
0
0
0
0
0
0
0
0
0
0
0
0
0
0
0
0
0
0
0
0
0
0
0
0
0
0
0
0
0
0
0
0
0
0
0
0
0
0
0
0
0
0
0
0
0
0
0
0
0
0
0
0
0
0
0
0
0
0
0
0
0
0
0
0
0
0
0
0
0
0
0
0
0
0
0
0
0
0
0
0
0
0
0
0
0
0
0
0
0
0
0
0
0
0
0
0
0
0
0
0
0
0
0
0
0
0
0
0
0
0
0
0
0
0
0
0
0
0
0
0
0
0
0
0
0
0
0
0
0
0
0
0
0
0
0
0
0
0
0
0
0
0
0
0
0
0
0
0
0
0
0
0
0
0
0
0
0
0
0
0
0
0
0
0
0
0
0
0
0
0
0
0
0
0
0
0
0
0
0
0
0
0
0
0
0
0
0
0
0
0
0
0
0
0
0
0
0
0
0
0
0
0
0
0
0
0
0
0
0
0
0
0
0
0
0
0
0
0
0
0
0
0
0
0
0
0
0
0
0
0
0
0
0
0
0
0
0
0
0
0
0
0
0
0
0
0
0
0
0
0
0
0
0
0
0
0
0
0
0
0
0
0
0
0
0
0
0
0
0
0
0
0
0
0
0
0
0
0
0
0
0
0
0
0
0
0
0
0
0
0
0
0
0
0
0
0
0
0
0
0
0
0
0
0
0
0
0
0
0
0
0
0
0
0
0
0
0
0
0
0
0
0
0
0
0
0
0
0
0
0
0
0
0
0
0
0
0
0
0
0
0
0
0
0
0
0
0
0
0
0
0
0
0
0
0
0
0
0
0
0
0
0
0
0
0
0
0
0
0
0
0
0
0
0
0
0
0
0
0
0
0
0
0
0
0
0
0
0
0
0
0
0
0
0
0
0
0
0
0
0
0
0
0
0
0
0
0
0
0
0
0
0
0
0
0
0
0
0
0
0
0
0
0
0
0
0
0
0
0
0
0
0
0
0
0
0
0
0
0
0
0
0
0
0
0
0
0
0
0
0
0
0
0
0
0
0
0
0
0
0
0
0
0
0
0
0
0
0
0
0
0
0
0
0
0
0
0
0
0
0
0
0
0
0
0
0
0
0
0
0
0
0
0
0
0
0
0
0
0
0
0
0
0
0
0
0
0
0
0
0
0
0
0
0
0
0
0
0
0
0
0
0
0
0
0
0
0
0
0
0
0
0
0
0
0
0
0
0
0
0
0
0
0
0
0
0
0
0
0
0
0
0
0
0
0
0
0
0
0
0
0
0
0
0
0
0
0
0
0
0
0
0
0
0
0
0
0
0
0
0
0
0
0
0
0
0
0
0
0
0
0
