2.22782
2.27824
2.33218
2.39192
2.45828
2.53093
2.60869
2.68969
2.77134
2.8502
2.9233
2.98904
3.04782
3.10229
3.15703
3.21769
3.28966
3.37688
3.48031
3.59723
3.72442
3.85867
3.99647
4.13431
4.26871
4.39539
4.50921
4.60595
4.68167
4.73265
4.75555
4.74738
4.70537
4.62673
4.5088
4.34965
4.15321
3.92591
3.67413
3.40465
3.12537
2.84493
2.57124
2.31104
2.06926
1.84881
1.65058
1.47389
1.31693
1.17729
1.05249
0.940266
0.838841
0.747079
0.664771
0.592521
0.530892
0.480567
0.442005
0.415158
0.39935
0.393325
0.395442
0.403898
0.416892
0.432699
0.450009
0.467506
0.484098
0.49907
0.512228
0.523969
0.535184
0.546997
0.560402
0.575927
0.59335
0.611933
0.630728
0.648758
0.665269
0.679918
0.69284
0.704598
0.716043
0.728111
0.74161
0.757039
0.774468
0.793425
0.812723
0.830465
0.84454
0.853167
0.855424
0.851617
0.84334
0.833149
0.823931
0.818128
0.816948
0.820358
0.8271
0.835174
0.842536
0.847775
0.850558
0.851691
0.852818
0.855867
0.862448
0.873199
0.887989
0.906358
0.927599
0.951176
0.977023
1.00566
1.03809
1.07547
1.11884
1.16874
1.22504
1.28715
1.35445
1.42642
1.5031
1.58772
1.69927
1.92628
2.29209
2.68867
3.00404
3.14949
3.09103
2.85845
2.52842
2.19123
1.92133
1.74099
1.59497
1.46038
1.33209
1.20938
1.0929
0.983588
0.882093
0.788542
0.70238
0.622291
0.54621
0.471642
0.396055
0.317316
0.212711
-0.0898552
0
1.06587
3.48654
7.0627
10.8845
13.6343
14.2164
12.3503
8.74133
4.71372
1.54082
-0.109932
-0.321558
0.333542
1.08437
1.35801
1.58983
1.76863
1.89218
1.96769
2.00926
2.03369
2.05594
2.08528
2.12381
2.17065
2.22463
2.28476
2.35021
2.42053
2.49561
2.57551
2.66014
2.74907
2.84142
2.93612
3.03216
3.1288
3.22584
3.32365
3.42308
3.52529
3.6315
3.74287
3.86032
3.98451
4.11582
4.25426
4.39948
4.55077
4.70699
4.8667
5.02815
5.1894
5.34845
5.50322
5.65145
5.79058
5.91775
6.02962
6.12222
6.19138
6.23381
6.24605
6.22485
6.16767
6.07319
5.94187
5.77611
5.58013
5.35984
5.12336
4.87807
4.6292
4.38098
4.13729
3.90154
3.67664
3.4649
3.26795
3.08667
2.92112
2.77064
2.63391
2.50925
2.39492
2.28992
2.19461
2.10989
2.03699
1.97788
1.93457
1.9085
1.90006
1.90846
1.93183
1.96742
2.01158
2.06022
2.10972
2.15665
2.19804
2.23175
2.25692
2.27419
2.28574
2.29495
2.30591
2.32266
2.34823
2.38389
2.42959
2.48515
2.54904
2.61643
2.68005
2.73301
2.77035
2.79029
2.79454
2.78764
2.77544
2.76317
2.75385
2.74735
2.7415
2.73302
2.71878
2.69685
2.6669
2.62976
2.58669
2.53868
2.48678
2.43165
2.37357
2.31319
2.25166
2.1905
2.1314
2.07579
2.02457
1.97817
1.9364
1.89861
1.8638
1.8309
1.79886
1.76685
1.73438
1.7013
1.66788
1.63483
1.60326
1.57453
1.55006
1.53115
1.51878
1.51358
1.51575
1.52529
1.54658
1.60314
1.79576
2.15604
2.58164
2.95018
3.14783
3.11264
2.85028
2.42242
1.92324
1.46002
1.17538
1.08718
1.04997
1.02857
1.01719
1.01357
1.0149
1.01782
1.01823
1.01146
0.993301
0.960558
0.911718
0.847517
0.771125
0.687134
0.221767
0
0.557546
2.40275
5.59044
9.49168
12.8989
14.5223
13.6389
10.5033
6.24794
2.31933
-0.205653
-1.02308
-0.545495
0.4875
0.839679
1.13601
1.3416
1.49828
1.61115
1.68982
1.74529
1.78736
1.82366
1.85821
1.8927
1.92784
1.96391
2.00106
2.03943
2.07919
2.12042
2.16315
2.20744
2.2536
2.30235
2.35495
2.41311
2.47879
2.55383
2.63961
2.73673
2.84497
2.96342
3.09075
3.22556
3.36663
3.51293
3.66357
3.81756
3.97356
4.12982
4.28428
4.43484
4.57967
4.71748
4.84768
4.97027
5.08554
5.19324
5.29173
5.37789
5.44773
5.49669
5.51981
5.51241
5.47053
5.39097
5.27121
5.10969
4.9066
4.66735
4.40165
4.12018
3.83362
3.55236
3.28595
3.04663
2.84633
2.68423
2.55373
2.4454
2.35036
2.26285
2.18131
2.10765
2.04547
1.99762
1.96273
1.93994
1.92882
1.92858
1.93829
1.95708
1.98454
2.02052
2.06477
2.11677
2.1755
2.23941
2.3065
2.37449
2.44103
2.50396
2.56154
2.61257
2.65642
2.69293
2.72207
2.74356
2.75715
2.76282
2.76057
2.75061
2.7336
2.71073
2.68362
2.65402
2.62352
2.59325
2.5638
2.53533
2.50774
2.48075
2.45393
2.42655
2.39738
2.36464
2.32607
2.27928
2.22222
2.15374
2.07393
1.98433
1.8877
1.78759
1.68766
1.59079
1.49893
1.41325
1.33381
1.25985
1.19021
1.12376
1.05974
0.997964
0.938787
0.883005
0.831663
0.785748
0.746457
0.715142
0.69273
0.679879
0.676808
0.683157
0.697921
0.71954
0.74612
0.775746
0.80746
0.841125
0.992782
1.36425
1.85186
2.28315
2.48493
2.37296
1.99392
1.49438
1.0378
0.729253
0.584769
0.489948
0.403347
0.319825
0.238355
0.158403
0.0792797
0
-0.076656
-0.15641
-0.240939
-0.331652
-0.429314
-0.533726
-0.643585
-0.758114
-1.1569
-1.34953
-0.878089
0.710143
3.53816
7.11534
10.3595
12.0232
11.3332
8.44462
4.39298
0.558337
-2.0111
-2.99964
-2.76425
-1.95448
-1.16895
-0.589479
-0.332893
-0.253453
-0.187284
-0.12685
-0.0686192
-0.00942116
0.05308
0.119986
0.191093
0.264874
0.337973
0.406621
0.467858
0.520471
0.565411
0.605581
0.645085
0.688232
0.738643
0.797877
0.866191
0.943692
1.0303
1.12577
1.2298
1.34206
1.46202
1.58887
1.72139
1.85797
1.9967
2.13561
2.27287
2.40699
2.53704
2.66259
2.78372
2.90088
3.01476
3.12609
3.23558
3.34378
3.45098
3.5571
3.66102
3.75919
3.84415
3.90549
3.93015
3.90489
3.8194
3.66895
3.45572
3.18858
2.88171
2.55526
2.22645
1.90385
1.59377
1.30186
1.03237
0.787965
0.569717
0.377253
0.209103
0.0631622
-0.0628475
-0.170999
-0.262953
-0.33992
-0.402599
-0.451461
-0.487468
-0.511786
-0.525784
-0.530945
-0.528796
-0.520885
-0.508773
-0.494079
-0.478778
-0.46493
-0.454278
-0.447841
-0.445579
-0.446276
-0.447742
-0.447304
-0.442424
-0.431377
-0.413785
-0.389796
-0.360224
-0.326277
-0.289321
-0.250748
-0.211891
-0.1744
-0.140225
-0.111367
-0.0896313
-0.0762535
-0.0716053
-0.0751259
-0.0855179
-0.101104
-0.12015
-0.140887
-0.161653
-0.180469
-0.194305
-0.199722
-0.193213
-0.172113
-0.135519
-0.0848375
-0.0236961
0.0427746
0.109032
0.170517
0.225132
0.27149
0.309103
0.338475
0.360914
0.378326
0.393004
0.407406
0.423936
0.444743
0.471568
0.50557
0.547651
0.598448
0.658446
0.727986
0.807321
0.897099
1.00022
1.12609
1.30133
1.55934
1.87365
2.18746
2.43136
2.53437
2.45714
2.21844
1.8922
1.57552
1.35753
1.25437
1.19825
1.15832
1.12641
1.09971
1.07582
1.05187
1.02466
0.990872
0.947286
0.891108
0.820278
0.73378
0.631526
0.515218
0.326864
0
0.147529
1.28136
3.71897
7.2198
10.8684
13.3719
13.6804
11.5686
7.79049
3.69162
0.528058
-1.07822
-1.25576
-0.598291
0.241667
0.891326
1.24452
1.27399
1.26383
1.24633
1.22167
1.18998
1.15123
1.10586
1.05486
0.999595
0.941892
0.884214
0.829505
0.780755
0.740599
0.711106
0.693181
0.686154
0.688567
0.698769
0.715489
0.738196
0.767172
0.803296
0.847658
0.901075
0.963534
1.03472
1.11418
1.20126
1.29526
1.3957
1.50232
1.61503
1.73383
1.85862
1.98912
2.12481
2.26495
2.40871
2.55525
2.70359
2.85159
2.99359
3.12028
3.21879
3.27488
3.27643
3.21639
3.09399
2.91383
2.68391
2.4138
2.12059
1.81747
1.5119
1.20901
0.914058
0.632457
0.36953
0.130116
-0.0818359
-0.263642
-0.414135
-0.533799
-0.624627
-0.689831
-0.733452
-0.75987
-0.77327
-0.777735
-0.776918
-0.77363
-0.769733
-0.766163
-0.763062
-0.760028
-0.756409
-0.751557
-0.745029
-0.736618
-0.726272
-0.713975
-0.699659
-0.683208
-0.664548
-0.643765
-0.62118
-0.597319
-0.572777
-0.548027
-0.523237
-0.4982
-0.472376
-0.445052
-0.415532
-0.383346
-0.348296
-0.310331
-0.269432
-0.225514
-0.178343
-0.127545
-0.072712
-0.0135805
0.0497447
0.116768
0.186341
0.256332
0.324128
0.387093
0.443017
0.490471
0.529007
0.55931
0.583099
0.60294
0.621907
0.643087
0.669019
0.703342
0.745984
0.789909
0.825586
0.845237
0.846905
0.836201
0.824587
0.824752
0.845219
0.883262
0.933883
0.988148
1.03625
1.07055
1.08768
1.08908
1.08027
1.06906
1.06356
1.06888
1.08681
1.11751
1.16042
1.21467
1.27922
1.35296
1.43501
1.5262
1.63267
1.77932
2.02815
2.36868
2.7223
3.00599
3.14524
3.10005
2.87886
2.53253
2.13279
1.75592
1.49258
1.34176
1.23531
1.14862
1.07685
1.01745
0.966592
0.919748
0.872363
0.820424
0.760926
0.692113
0.613512
0.524392
0.426622
0.188466
0
0.37359
1.84715
4.66324
8.43814
12.1292
14.4201
14.3618
11.8934
7.90467
3.78847
0.763177
-0.630272
-0.604962
0.178159
0.699813
1.12063
1.38176
1.49133
1.57298
1.63461
1.68288
1.7236
1.76135
1.79928
1.83924
1.88219
1.92843
1.97803
2.0311
2.08798
2.14932
2.21591
2.28856
2.36784
2.45399
2.54683
2.64597
2.75091
2.86118
2.9765
3.09667
3.22156
3.35092
3.48428
3.62089
3.75975
3.89977
4.03987
4.17917
4.317
4.45292
4.58662
4.71778
4.84604
4.97095
5.09206
5.20905
5.32181
5.43037
5.53439
5.63253
5.72156
5.79621
5.84791
5.86645
5.84277
5.77128
5.65063
5.48327
5.27434
5.0311
4.76819
4.49725
4.2257
3.9595
3.70433
3.4652
3.24605
3.04951
2.87683
2.728
2.60191
2.49672
2.4101
2.33955
2.28257
2.23684
2.20035
2.17138
2.14853
2.13066
2.11687
2.1064
2.09855
2.09262
2.0879
2.08371
2.07941
2.07444
2.06843
2.06119
2.05278
2.04348
2.03385
2.02463
2.01669
2.01094
2.00812
2.00872
2.01284
2.02015
2.02992
2.04116
2.05271
2.06341
2.0722
2.07807
2.08004
2.07745
2.06991
2.05742
2.04049
2.02015
1.99782
1.97507
1.95323
1.9331
1.91475
1.89755
1.88036
1.86183
1.84071
1.81613
1.78776
1.75581
1.72098
1.68431
1.64704
1.61035
1.57525
1.54248
1.51243
1.48512
1.46
1.43614
1.41258
1.38861
1.36394
1.33875
1.31352
1.28885
1.2652
1.2428
1.22179
1.20233
1.18477
1.16969
1.15786
1.15011
1.14706
1.14886
1.15547
1.16667
1.18221
1.20201
1.22643
1.25639
1.29332
1.33911
1.39579
1.46556
1.55422
1.67324
1.83575
2.03666
2.23929
2.40623
2.51132
2.53713
2.47467
2.32746
2.11632
1.87959
1.66564
1.50643
1.38967
1.29555
1.21437
1.14267
1.0784
1.01944
0.963689
0.90904
0.853161
0.793477
0.727269
0.651869
0.565003
0.465192
0.238916
-0.147222
0
1.21205
3.74895
7.31099
10.9778
13.5118
13.9247
11.9979
8.42832
4.48799
1.39782
-0.204704
-0.417813
0.167209
0.695354
0.795021
0.847669
0.85512
0.828208
0.783272
0.736495
0.699631
0.673007
0.655357
0.647265
0.649117
0.660977
0.683435
0.716584
0.760488
0.815993
0.885103
0.971032
1.07778
1.20927
1.36839
1.55612
1.76911
2.00313
2.25441
2.51901
2.79323
3.07388
3.35831
3.64428
3.92973
4.21262
4.49095
4.76292
5.02709
5.28261
5.52923
5.76722
5.99708
6.21934
6.43431
6.64199
6.84203
7.03353
7.21464
7.38186
7.52998
7.65391
7.74909
7.80898
7.82676
7.79738
7.71904
7.59357
7.42595
7.2236
6.99785
6.76127
6.52204
6.28479
6.05263
5.82811
5.61304
5.40867
5.21594
5.03578
4.86923
4.71752
4.58189
4.46338
4.36247
4.27898
4.212
4.15977
4.12011
4.09073
4.06952
4.05468
4.04466
4.03788
4.03233
4.02482
4.01014
3.9812
3.92953
3.8461
3.72265
3.55322
3.33557
3.07212
2.77032
2.44212
2.10339
1.76905
1.45238
1.16514
0.915784
0.709037
0.545869
0.424213
0.338939
0.283404
0.250675
0.234236
0.228792
0.23055
0.237162
0.247381
0.260559
0.276311
0.29377
0.311017
0.325472
0.334551
0.336458
0.330894
0.319393
0.305162
0.292408
0.285353
0.286591
0.29657
0.315569
0.341901
0.371288
0.398852
0.420309
0.43297
0.436278
0.43177
0.422539
0.412431
0.405218
0.403433
0.408303
0.420484
0.440179
0.466838
0.499677
0.537064
0.576188
0.614282
0.649286
0.680385
0.708215
0.734625
0.762035
0.792639
0.827743
0.867112
0.90995
0.955464
1.00317
1.05333
1.10715
1.16664
1.23476
1.32121
1.45691
1.70341
2.03712
2.37362
2.65552
2.83873
2.89136
2.79922
2.57041
2.23689
1.8528
1.5028
1.29355
1.19864
1.14552
1.10875
1.08347
1.06313
1.04043
1.00837
0.961249
0.895392
0.809466
0.70445
0.583315
0.451058
0.310809
0.0527597
0
0.576173
2.21525
5.03587
8.57114
11.7848
13.4707
12.8596
10.0678
6.07978
2.25628
-0.325072
-1.29681
-0.98827
-0.0718454
0.687695
1.23029
1.43851
1.54029
1.62409
1.69218
1.74619
1.78819
1.8204
1.84495
1.86444
1.88241
1.90344
1.93258
1.97451
2.03241
2.10619
2.19285
2.28911
2.39131
2.49561
2.59867
2.69829
2.79368
2.88544
2.97522
3.06519
3.15745
3.25367
3.35481
3.4611
3.57238
3.68837
3.80882
3.9336
4.06268
4.19591
4.33291
4.47286
4.6145
4.75613
4.89565
5.03037
5.15659
5.27054
5.36873
5.44768
5.50394
5.534
5.53309
5.4973
5.42288
5.307
5.14869
4.94968
4.71484
4.45182
4.17011
3.88002
3.59005
3.30594
3.03199
2.77108
2.52491
2.29438
2.07994
1.8819
1.70061
1.53652
1.3902
1.26218
1.15294
1.06236
0.989778
0.934152
0.89362
0.865451
0.846578
0.833916
0.824662
0.816523
0.807846
0.79765
0.785575
0.77181
0.756862
0.741396
0.726034
0.711186
0.696959
0.683137
0.669408
0.655695
0.642477
0.630967
0.623034
0.620866
0.626448
0.641018
0.664681
0.696296
0.733645
0.773834
0.813782
0.850629
0.881964
0.906363
0.923341
0.933268
0.937159
0.936342
0.932056
0.925048
0.915317
0.902046
0.884036
0.860274
0.83066
0.796118
0.760085
0.728265
0.706921
0.701283
0.714232
0.745682
0.792816
0.850957
0.914673
0.978674
1.03935
1.09341
1.13849
1.173
1.19615
1.20794
1.20916
1.2012
1.18595
1.16556
1.14255
1.11964
1.10004
1.08794
1.0877
1.10353
1.13889
1.19573
1.27409
1.37211
1.48648
1.6132
1.74928
1.89616
2.06301
2.27731
2.51993
2.73049
2.83555
2.78586
2.58095
2.27051
1.93618
1.66526
1.50016
1.38513
1.28988
1.20691
1.135
1.07296
1.01939
0.972662
0.930014
0.887219
0.839327
0.781283
0.708764
0.619012
0.511441
0.387859
0.204238
-0.108579
0
1.0553
3.42814
6.94327
10.7228
13.4544
14.0141
12.085
8.36234
4.19853
0.914663
-0.78934
-1.00095
-0.327994
0.213734
0.666306
0.985535
1.15243
1.28037
1.37775
1.4516
1.50931
1.55796
1.60371
1.65131
1.7038
1.76242
1.82677
1.89529
1.96595
2.03671
2.10594
2.1727
2.23684
2.29879
2.35942
2.41972
2.48063
2.54293
2.60726
2.6742
2.74433
2.81829
2.89677
2.98043
3.06987
3.16548
3.26737
3.37538
3.48903
3.60757
3.73005
3.85535
3.98232
4.10994
4.23745
4.36448
4.49119
4.61839
4.7486
4.8888
5.045
5.20042
5.32259
5.3759
5.33663
5.20286
4.99434
4.74209
4.47295
4.19947
3.925
3.65161
3.38109
3.11616
2.86027
2.61712
2.3902
2.18223
1.99481
1.82828
1.6818
1.55371
1.44185
1.34404
1.2583
1.18301
1.11694
1.0593
1.00944
0.966909
0.931542
0.903862
0.884369
0.873511
0.87142
0.877974
0.892464
0.911855
0.932535
0.951301
0.966282
0.977406
0.986199
0.994992
1.00588
1.0198
1.03613
1.05384
1.0716
1.08838
1.10382
1.11828
1.13262
1.14775
1.16416
1.18159
1.19918
1.21563
1.2294
1.23913
1.24394
1.24366
1.23883
1.23067
1.22083
1.21109
1.20302
1.19763
1.19523
1.19539
1.19706
1.19903
1.2003
1.20048
1.1999
1.19959
1.20097
1.20552
1.21425
1.22748
1.24497
1.26586
1.2887
1.31122
1.33029
1.34297
1.34714
1.34215
1.32913
1.31094
1.29149
1.27484
1.26414
1.26061
1.26356
1.27238
1.28616
1.30397
1.32514
1.34917
1.37561
1.40388
1.43325
1.46305
1.49285
1.52266
1.55309
1.58616
1.63343
1.78053
2.10154
2.51326
2.9114
3.18392
3.24137
3.05141
2.65773
2.17029
1.72511
1.44926
1.34875
1.27983
1.21707
1.15716
1.09983
1.04539
0.994355
0.947198
0.904072
0.864569
0.8272
0.789472
0.748653
0.702447
0.648367
0.58634
0.228979
0
0.436499
2.03701
4.96406
8.77583
12.4266
14.6444
14.5343
12.064
8.11966
4.07645
1.1366
-0.175496
-0.0988481
0.674875
0.961028
1.20766
1.42076
1.59807
1.73461
1.83319
1.89986
1.94275
1.97102
1.9939
2.01957
2.05388
2.09941
2.15441
2.21538
2.27794
2.33818
2.39401
2.44565
2.49536
2.54641
2.60188
2.66364
2.73142
2.8046
2.88266
2.96516
3.05193
3.14306
3.23874
3.33908
3.44387
3.55254
3.66424
3.77806
3.8933
4.00966
4.12734
4.24698
4.36946
4.49559
4.62592
4.76077
4.90001
5.04208
5.18224
5.31081
5.41609
5.48649
5.51154
5.48393
5.40172
5.2695
5.09708
4.89595
4.67507
4.44189
4.20178
3.9582
3.71358
3.47078
3.23346
3.00557
2.79089
2.5924
2.41181
2.24953
2.10488
1.97664
1.86463
1.76897
1.68942
1.62617
1.57928
1.54809
1.53081
1.52448
1.52536
1.52947
1.5332
1.53391
1.52978
1.51984
1.50385
1.48219
1.45593
1.42654
1.39628
1.36817
1.34528
1.32999
1.32345
1.32525
1.33347
1.34528
1.35769
1.3685
1.37682
1.38273
1.38728
1.39212
1.39909
1.40961
1.4244
1.44319
1.46488
1.48763
1.5092
1.5274
1.54046
1.54723
1.54736
1.54119
1.52964
1.514
1.49573
1.47627
1.45691
1.43875
1.42261
1.40901
1.39817
1.39
1.38405
1.3796
1.37571
1.37128
1.36528
1.35688
1.34564
1.33158
1.3152
1.29742
1.27938
1.26224
1.24699
1.23427
1.22437
1.21739
1.21333
1.21217
1.214
1.21894
1.22714
1.23861
1.25319
1.27054
1.29022
1.31188
1.33554
1.36176
1.39177
1.42736
1.47063
1.52754
1.63158
1.90897
2.34838
2.80359
3.1678
3.37562
3.4099
3.29085
3.05476
2.73977
2.38503
2.04522
1.80093
1.65401
1.54666
1.45518
1.37225
1.29548
1.22311
1.15319
1.08349
1.01139
0.934053
0.848691
0.752945
0.645385
0.525955
0.352816
0
0.0945902
1.13843
3.45707
6.89498
10.6644
13.5474
14.4299
12.8879
9.45187
5.35357
1.90559
-0.096994
-0.608325
-0.135118
0.663683
0.917588
1.15377
1.3593
1.53828
1.68764
1.80786
1.90198
1.97477
2.03179
2.07862
2.1201
2.15987
2.20011
2.24173
2.28455
2.32795
2.37157
2.41572
2.46162
2.51107
2.56601
2.62796
2.69744
2.77383
2.85622
2.94363
3.03526
3.13087
3.2308
3.33587
3.44712
3.56548
3.69147
3.82511
3.96593
4.11307
4.26537
4.42148
4.57975
4.73816
4.89416
5.04415
5.18355
5.30713
5.40969
5.4871
5.53649
5.55607
5.54493
5.50279
5.42976
5.3262
5.19273
5.03036
4.84138
4.62952
4.39917
4.15474
3.90033
3.64008
3.3786
3.12076
2.87147
2.63532
2.41618
2.2169
2.03908
1.88315
1.74776
1.63057
1.52888
1.44185
1.36945
1.31131
1.2683
1.24163
1.23175
1.23737
1.25533
1.28113
1.31006
1.33837
1.36446
1.38815
1.41009
1.4312
1.45213
1.47279
1.4924
1.50963
1.52306
1.5315
1.53432
1.53147
1.52348
1.51125
1.49602
1.47914
1.46198
1.44597
1.4325
1.42277
1.41759
1.41727
1.42148
1.42933
1.4395
1.45038
1.46039
1.4683
1.47352
1.47619
1.4772
1.4779
1.47978
1.48401
1.49136
1.50106
1.51017
1.51466
1.51054
1.49514
1.46798
1.43103
1.38821
1.34436
1.30409
1.27015
1.24342
1.22405
1.21223
1.20782
1.21052
1.21986
1.23522
1.25571
1.28015
1.30682
1.33372
1.35912
1.38207
1.40277
1.42272
1.44448
1.47129
1.50639
1.55243
1.61262
1.69328
1.80821
1.97871
2.20309
2.45499
2.68656
2.81863
2.77703
2.54154
2.16784
1.76439
1.4463
1.28826
1.19734
1.12363
1.05676
0.993797
0.93243
0.871034
0.808818
0.745776
0.682428
0.619456
0.557293
0.495806
0.434296
0.371784
0.299668
0
0.0795624
1.10177
3.41801
6.80821
10.3766
12.8491
13.1764
11.1094
7.37421
3.31125
0.19462
-1.34071
-1.43982
-0.732077
0.100797
0.736132
1.10613
1.18357
1.23158
1.27266
1.30807
1.33995
1.37097
1.40383
1.44075
1.48307
1.53181
1.58552
1.63952
1.68884
1.73045
1.765
1.79754
1.83655
1.8915
1.96975
2.07274
2.19283
2.32505
2.46071
2.58942
2.70282
2.79669
2.87193
2.93413
2.99194
3.05474
3.13034
3.22186
3.32786
3.44625
3.57514
3.71233
3.85562
4.00305
4.15313
4.30471
4.45674
4.60751
4.75301
4.88554
4.99494
5.06894
5.09569
5.06656
4.97797
4.83168
4.63339
4.39064
4.11509
3.82023
3.51526
3.20574
2.8961
2.59146
2.2976
2.02049
1.76571
1.53782
1.33975
1.17247
1.03506
0.925028
0.838846
0.772481
0.721839
0.683022
0.652476
0.626979
0.603629
0.580066
0.55471
0.527027
0.497696
0.468585
0.442641
0.423193
0.413184
0.414452
0.427868
0.452665
0.485501
0.522285
0.559245
0.593781
0.624872
0.652933
0.67922
0.705078
0.731292
0.757814
0.783981
0.808866
0.831747
0.852474
0.871606
0.890272
0.909816
0.931372
0.955365
0.981435
1.00863
1.03542
1.05983
1.07972
1.09315
1.09872
1.09585
1.08507
1.06809
1.04781
1.02791
1.01241
1.00481
1.00787
1.02492
1.05679
1.09829
1.14235
1.18213
1.21302
1.23371
1.24615
1.25435
1.26281
1.27491
1.29133
1.31125
1.33367
1.35734
1.38095
1.4033
1.42348
1.44097
1.4557
1.46808
1.47905
1.48996
1.50256
1.51875
1.54037
1.57064
1.61992
1.72732
1.96798
2.31223
2.66511
2.92508
3.01647
2.91644
2.65673
2.30607
1.95212
1.70578
1.60145
1.54335
1.49643
1.45251
1.40811
1.36043
1.30754
1.24824
1.18176
1.10741
1.02476
0.933161
0.832359
0.722911
0.606181
0.483555
0
-0.128783
0.624895
2.67152
5.96094
9.7983
12.9998
14.3898
13.3887
10.3359
6.33387
2.70019
0.364357
-0.44923
-0.128087
0.686792
1.02761
1.31175
1.50314
1.63664
1.71919
1.76465
1.78963
1.80948
1.83477
1.86892
1.91215
1.96369
2.02231
2.08641
2.15436
2.22482
2.2969
2.37004
2.44391
2.51816
2.59235
2.66589
2.73827
2.80931
2.87935
2.94936
3.0209
3.09586
3.1762
3.26355
3.35892
3.46286
3.57535
3.69575
3.8229
3.95524
4.09101
4.22846
4.36601
4.50245
4.6369
4.76871
4.89703
5.02057
5.13733
5.24439
5.33743
5.41072
5.45879
5.47597
5.45693
5.39723
5.29403
5.14674
4.95751
4.73138
4.47609
4.20373
3.92508
3.64742
3.37699
3.11939
2.87927
2.66023
2.46477
2.29432
2.14938
2.02955
1.93381
1.86062
1.80742
1.7706
1.74615
1.72995
1.71823
1.70793
1.69697
1.68439
1.67027
1.65546
1.64121
1.62882
1.61925
1.61294
1.60988
1.60962
1.61139
1.61428
1.61735
1.6198
1.62103
1.62073
1.61896
1.61612
1.61296
1.61045
1.60964
1.61138
1.61624
1.62423
1.63451
1.64572
1.65631
1.66486
1.6704
1.67254
1.67152
1.66801
1.66302
1.65758
1.65248
1.64821
1.64485
1.64198
1.63869
1.63376
1.62589
1.61406
1.59773
1.5771
1.55311
1.52736
1.50176
1.47809
1.45768
1.44135
1.429
1.41889
1.40866
1.39619
1.38035
1.3615
1.34153
1.32327
1.30972
1.30316
1.3037
1.31113
1.32457
1.34275
1.36444
1.38876
1.4152
1.44356
1.47369
1.50545
1.53859
1.57299
1.6089
1.64719
1.68951
1.74125
1.82259
1.98813
2.25286
2.537
2.76271
2.88025
2.87492
2.75798
2.55132
2.27861
1.97039
1.68343
1.46317
1.29862
1.16852
1.06194
0.97893
0.915772
0.866949
0.825955
0.786202
0.741797
0.688078
0.621884
0.541571
0.447218
0.340363
0
-0.389011
-0.165558
1.25782
4.1239
8.00255
11.7909
14.1348
14.0853
11.6076
7.61616
3.50804
0.486615
-0.924186
-0.940526
-0.211757
0.156678
0.463899
0.670867
0.770942
0.832137
0.866526
0.886052
0.900403
0.915743
0.934523
0.957827
0.986079
1.01932
1.05759
1.10121
1.1509
1.20758
1.27214
1.34503
1.42596
1.51376
1.60638
1.70138
1.79631
1.88919
1.97884
2.06508
2.14879
2.23169
2.31611
2.40462
2.49967
2.60313
2.71605
2.83832
2.96872
3.10502
3.24436
3.38375
3.52049
3.65245
3.77821
3.8969
4.00784
4.11031
4.20358
4.28666
4.35816
4.41619
4.45748
4.47598
4.46358
4.4135
4.31907
4.17562
3.98241
3.74408
3.47068
3.1763
2.87642
2.58417
2.30616
2.04789
1.81248
1.60118
1.41411
1.25077
1.11084
0.994732
0.901279
0.827953
0.771534
0.728437
0.695222
0.669109
0.648312
0.632128
0.620759
0.614714
0.614484
0.620406
0.632465
0.650164
0.671995
0.695267
0.716952
0.734468
0.746313
0.752463
0.754396
0.754715
0.756481
0.762442
0.774054
0.791311
0.813379
0.838956
0.866337
0.89377
0.919783
0.943413
0.964301
0.982655
0.999097
1.01445
1.02947
1.04462
1.05992
1.07471
1.08752
1.09643
1.09957
1.09561
1.08433
1.06673
1.04495
1.0219
1.00067
0.983787
0.972614
0.968227
0.971011
0.980565
0.995937
1.0154
1.03621
1.05519
1.06933
1.07626
1.07452
1.06381
1.0448
1.01903
0.988524
0.955751
0.923105
0.892998
0.867796
0.849674
0.840509
0.841812
0.85476
0.88034
0.919579
0.97372
1.04427
1.13196
1.23728
1.36075
1.50436
1.67356
1.87292
2.09367
2.30606
2.48048
2.59498
2.63532
2.59612
2.48305
2.3137
2.11548
1.92061
1.755
1.62136
1.51188
1.42097
1.347
1.28945
1.24743
1.21845
1.19533
1.16745
1.12377
1.05485
0.95502
0.823961
0.667196
0.488621
0.0871788
0
0.685961
2.57819
5.72643
9.53202
12.8222
14.3312
13.3538
10.1639
5.90647
2.01959
-0.451174
-1.23863
-0.771413
0.225683
0.865049
1.32802
1.51297
1.62843
1.70833
1.75952
1.79005
1.80842
1.82273
1.8398
1.86429
1.89885
1.94446
2.00095
2.06721
2.1415
2.22183
2.30639
2.39387
2.48364
2.5758
2.67102
2.77025
2.87436
2.98382
3.09846
3.21736
3.33903
3.46162
3.58332
3.70279
3.81948
3.93382
4.04722
4.16185
4.28025
4.40485
4.53751
4.67913
4.82941
4.98678
5.14855
5.31115
5.4693
5.61563
5.74305
5.84551
5.91801
5.95659
5.95807
5.9196
5.83855
5.71266
5.54085
5.32678
5.07661
4.79733
4.4973
4.18643
3.87399
3.56753
3.27372
2.99806
2.74469
2.5163
2.3142
2.13848
1.98825
1.86188
1.75733
1.67232
1.60452
1.55169
1.51175
1.48239
1.46091
1.44454
1.43056
1.41655
1.4006
1.38151
1.35879
1.33269
1.30392
1.2734
1.24193
1.20999
1.17761
1.14452
1.11037
1.0751
1.03919
1.00386
0.970882
0.942332
0.920061
0.905107
0.897641
0.897235
0.902009
0.909305
0.916533
0.921763
0.924069
0.923532
0.920941
0.9173
0.913349
0.909267
0.904673
0.898818
0.890886
0.880304
0.866994
0.851492
0.834908
0.818753
0.80465
0.794034
0.787923
0.786747
0.790329
0.798033
0.808853
0.821602
0.835106
0.848366
0.860655
0.871551
0.88092
0.888871
0.895697
0.90182
0.907779
0.914261
0.922145
0.932556
0.946894
0.966797
0.994015
1.03022
1.07676
1.13449
1.20351
1.28327
1.37353
1.47679
1.60393
1.78893
2.07366
2.41008
2.72014
2.9138
2.92216
2.7299
2.38685
1.99012
1.64733
1.45501
1.35983
1.29075
1.23075
1.1761
1.1254
1.07706
1.02901
0.978623
0.922752
0.858094
0.781587
0.69093
0.585059
0.46448
0.259093
-0.10943
0
1.10867
3.54191
7.08836
10.8744
13.6192
14.2144
12.3191
8.58716
4.35333
0.959506
-0.862093
-1.18899
-0.640869
-0.084573
0.392926
0.737784
0.922669
1.06691
1.1756
1.2512
1.29848
1.32418
1.336
1.34143
1.34658
1.35522
1.36864
1.38726
1.41131
1.44092
1.47632
1.51793
1.56631
1.62191
1.68492
1.75507
1.83159
1.91327
1.99863
2.08617
2.17454
2.26275
2.35027
2.43698
2.52324
2.60972
2.69731
2.78696
2.87951
2.97546
3.0748
3.17693
3.28059
3.38392
3.4846
3.57991
3.66677
3.74201
3.8028
3.84662
3.87102
3.87356
3.8518
3.80332
3.72597
3.61812
3.47894
3.30887
3.10961
2.8841
2.63705
2.37474
2.10336
1.82932
1.55929
1.29966
1.05589
0.832639
0.632984
0.456648
0.301505
0.164431
0.0422487
-0.0675048
-0.166242
-0.25444
-0.332101
-0.399338
-0.456695
-0.50532
-0.546824
-0.582975
-0.615353
-0.645104
-0.672823
-0.698563
-0.722044
-0.742675
-0.759737
-0.772608
-0.780921
-0.7847
-0.784325
-0.780615
-0.774608
-0.767315
-0.75952
-0.751662
-0.743856
-0.736013
-0.728001
-0.719773
-0.711403
-0.703035
-0.694777
-0.686617
-0.678405
-0.669921
-0.660992
-0.651625
-0.642076
-0.632827
-0.624524
-0.617876
-0.61353
-0.611851
-0.612777
-0.615735
-0.619624
-0.622937
-0.624018
-0.621436
-0.614376
-0.602567
-0.587095
-0.570366
-0.555226
-0.544169
-0.538637
-0.538621
-0.542665
-0.548249
-0.552399
-0.552487
-0.546959
-0.535133
-0.516992
-0.493184
-0.464743
-0.433149
-0.399915
-0.365939
-0.331117
-0.294168
-0.252739
-0.203793
-0.144208
-0.0714152
0.0157558
0.116865
0.230738
0.355647
0.489464
0.630583
0.779671
0.943795
1.15513
1.44545
1.75975
2.0065
2.1014
2.01167
1.77203
1.46229
1.16599
0.946803
0.818791
0.741071
0.68858
0.653374
0.63546
0.63535
0.651655
0.6795
0.7084
0.724865
0.716381
0.674227
0.596069
0.487424
0.361097
0
0.0154753
0.897014
3.00428
6.27383
10.0482
13.208
14.6243
13.7158
10.7777
6.86415
3.28178
0.994131
0.272916
0.744267
1.72718
2.00088
2.25796
2.4857
2.68643
2.85927
3.00663
3.13324
3.24484
3.34752
3.44625
3.54492
3.64642
3.75268
3.86479
3.98307
4.10713
4.23603
4.36845
4.50288
4.63785
4.77219
4.90511
5.03631
5.16593
5.29455
5.42307
5.55263
5.68459
5.82034
5.96125
6.10849
6.26288
6.42471
6.59368
6.76879
6.94841
7.13029
7.31172
7.48966
7.66098
7.82274
7.97239
8.10808
8.22874
8.33394
8.42347
8.49685
8.55306
8.59041
8.60654
8.59812
8.56092
8.49079
8.38474
8.24196
8.06453
7.85749
7.62839
7.38691
7.14246
6.90217
6.67183
6.45621
6.25923
6.08468
5.93475
5.80994
5.70972
5.63258
5.57605
5.53693
5.51158
5.49635
5.48797
5.48372
5.48175
5.48103
5.48104
5.48151
5.48219
5.48268
5.48231
5.48018
5.4753
5.46686
5.45438
5.43798
5.41844
5.39717
5.37601
5.35694
5.34169
5.33135
5.32633
5.32649
5.33072
5.33752
5.3454
5.35314
5.36
5.36554
5.3693
5.37019
5.36621
5.35464
5.33246
5.29721
5.24796
5.18601
5.1149
5.03983
4.96645
4.89941
4.84046
4.78962
4.74578
4.70634
4.66747
4.62523
4.57646
4.51945
4.4543
4.38274
4.30774
4.23275
4.16088
4.09394
4.03248
3.97612
3.92348
3.8726
3.82131
3.76768
3.71037
3.6489
3.58364
3.51578
3.44709
3.3797
3.3158
3.25733
3.20588
3.16244
3.12747
3.10097
3.08268
3.07226
3.06946
3.07427
3.08805
3.11727
3.18552
3.34815
3.6035
3.87074
4.06863
4.13727
4.04793
3.80443
3.44325
3.03465
2.68164
2.45263
2.29197
2.15787
2.03857
1.93121
1.83217
1.73707
1.6412
1.53985
1.42886
1.30503
1.16652
1.01306
0.843564
0.661291
0.293228
0
0.314705
1.74888
4.52248
8.24767
11.8996
14.1865
14.1705
11.7765
7.86002
3.77418
0.708732
-0.801551
-0.947714
-0.344544
0.212347
0.637803
0.864617
0.898957
0.907171
0.903365
0.892759
0.880161
0.869734
0.86445
0.866229
0.876155
0.894902
0.922127
0.956317
0.994347
1.03087
1.05994
1.07695
1.08004
1.07116
1.05607
1.04311
1.04094
1.05596
1.08964
1.13697
1.19306
1.25511
1.3208
1.38874
1.45868
1.53137
1.60824
1.69094
1.78074
1.87851
1.98449
2.09815
2.21816
2.34251
2.46858
2.59333
2.71345
2.82538
2.92541
3.0098
3.07512
3.11848
3.13685
3.12698
3.08542
3.00885
2.89459
2.74136
2.54992
2.32396
2.07054
1.79847
1.51685
1.23417
0.958116
0.695274
0.450862
0.228681
0.0316084
-0.137668
-0.278599
-0.391652
-0.478402
-0.540385
-0.5816
-0.606864
-0.621185
-0.629134
-0.634348
-0.639313
-0.645438
-0.653331
-0.663143
-0.674728
-0.687893
-0.702418
-0.717915
-0.73375
-0.749017
-0.762566
-0.773063
-0.779063
-0.779071
-0.771555
-0.755007
-0.72836
-0.691103
-0.643537
-0.58696
-0.523491
-0.456174
-0.388532
-0.323749
-0.264071
-0.210479
-0.162703
-0.119598
-0.079723
-0.0419332
-0.00572472
0.0285498
0.0599283
0.087171
0.109169
0.125306
0.135679
0.141163
0.143302
0.144092
0.145679
0.149994
0.158492
0.171995
0.190611
0.213818
0.240546
0.269375
0.298927
0.328158
0.356517
0.383956
0.410772
0.437373
0.464044
0.490811
0.517448
0.543624
0.569107
0.593974
0.618736
0.644357
0.67215
0.703601
0.740122
0.782882
0.832725
0.890465
0.958396
1.04518
1.18561
1.43746
1.79153
2.19429
2.55364
2.75459
2.70941
2.40058
1.89147
1.29775
0.741484
0.366147
0.229832
0.149579
0.0889793
0.0503716
0.0292969
0.0162136
0
-0.0388941
-0.0995735
-0.186809
-0.301892
-0.44309
-0.606281
-0.783716
-0.977779
-1.35177
-1.39705
-0.569715
1.54816
4.85986
8.56239
11.3685
12.105
10.3571
6.73672
2.58001
-0.74139
-2.46031
-2.63561
-1.89996
-1.26149
-0.738093
-0.397571
-0.248049
-0.129061
-0.0305586
0.0523207
0.123826
0.187355
0.24538
0.299501
0.350594
0.399009
0.444773
0.487765
0.528186
0.566824
0.605218
0.645725
0.691369
0.745445
0.810933
0.889876
0.982878
1.08837
1.20364
1.32554
1.45075
1.57632
1.70021
1.82155
1.94064
2.05877
2.17792
2.30041
2.42862
2.5649
2.71141
2.87011
3.04251
3.22951
3.43099
3.6455
3.87243
4.10869
4.34094
4.55129
4.72406
4.84906
4.92231
4.94425
4.91665
4.84018
4.71393
4.53753
4.31703
4.05893
3.77142
3.46551
3.15387
2.84521
2.54524
2.26277
2.00775
1.78625
1.60252
1.45848
1.35337
1.28391
1.24491
1.23003
1.23262
1.24586
1.26386
1.28269
1.29974
1.31336
1.32297
1.32872
1.33128
1.33137
1.32924
1.32469
1.31704
1.30549
1.28983
1.27106
1.2515
1.23451
1.22365
1.2217
1.22914
1.2444
1.26528
1.28917
1.31315
1.3345
1.35103
1.3613
1.36461
1.36082
1.35041
1.33426
1.31357
1.28989
1.26512
1.24135
1.22075
1.2052
1.19613
1.19477
1.2013
1.21208
1.21967
1.21621
1.1958
1.15647
1.10076
1.03474
0.965631
0.899218
0.837756
0.780003
0.724912
0.671428
0.619012
0.567905
0.519019
0.4736
0.432716
0.396801
0.366592
0.342867
0.326529
0.318655
0.320432
0.332995
0.357148
0.393199
0.441143
0.500518
0.571619
0.659687
0.784811
0.993128
1.28307
1.58157
1.80117
1.87028
1.76347
1.51053
1.18072
0.856642
0.619029
0.484818
0.391607
0.311073
0.234988
0.159761
0.0823765
0
-0.089883
-0.189355
-0.299944
-0.422448
-0.556809
-0.701947
-0.855668
-1.02399
-1.45225
-1.54649
-0.766757
1.307
4.60985
8.39869
11.4357
12.5342
11.1763
7.81515
3.65237
0.0265236
-2.20312
-2.9237
-2.59952
-1.87679
-1.40285
-1.04142
-0.857925
-0.740166
-0.646471
-0.572715
-0.514042
-0.46541
-0.422193
-0.380698
-0.338548
-0.294823
-0.249847
-0.20486
-0.161678
-0.122023
-0.0869957
-0.05672
-0.0302582
-0.0058075
0.018856
0.0458275
0.0765694
0.11159
0.150382
0.191959
0.235255
0.27953
0.324678
0.371295
0.420502
0.473566
0.53148
0.594655
0.662748
0.734843
0.809702
0.886052
0.962827
1.03928
1.1149
1.18929
1.26205
1.33257
1.39957
1.46022
1.50884
1.53878
1.54144
1.50681
1.42533
1.29017
1.09878
0.853262
0.559714
0.227248
-0.126556
-0.488643
-0.851585
-1.20917
-1.55561
-1.88597
-2.19641
-2.48435
-2.74837
-2.98776
-3.19851
-3.37547
-3.51852
-3.62767
-3.70388
-3.7499
-3.77073
-3.77333
-3.7655
-3.75446
-3.74559
-3.7413
-3.74278
-3.75019
-3.76333
-3.78184
-3.80531
-3.83318
-3.8644
-3.89737
-3.93005
-3.96034
-3.98664
-4.00839
-4.02594
-4.03994
-4.0514
-4.0614
-4.07083
-4.08032
-4.09018
-4.10039
-4.11069
-4.12063
-4.12964
-4.1373
165
355
544
729
922
1124
1325
1521
1719
1918
2110
2301
2496
2690
2880
3073
3266
3455
3639
3706
3481
3658
0
0
0
0
0
0
0
0
0
0
0
0
0
0
0
0
0
0
0
0
0
0
0
0
0
0
0
0
0
0
0
0
0
0
0
0
0
0
0
0
0
0
0
0
0
0
0
0
0
0
0
0
0
0
0
0
0
0
0
0
0
0
0
0
0
0
0
0
0
0
0
0
0
0
0
0
0
0
0
0
0
0
0
0
0
0
0
0
0
0
0
0
0
0
0
0
0
0
0
0
0
0
0
0
0
0
0
0
0
0
0
0
0
0
0
0
0
0
0
0
0
0
0
0
0
0
0
0
0
0
0
0
0
0
0
0
0
0
0
0
0
0
0
0
0
0
0
0
0
0
0
0
0
0
0
0
0
0
0
0
0
0
0
0
0
0
0
0
0
0
0
0
0
0
0
0
0
0
0
0
0
0
0
0
0
0
0
0
0
0
0
0
0
0
0
0
0
0
0
0
0
0
0
0
0
0
0
0
0
0
0
0
0
0
0
0
0
0
0
0
0
0
0
0
0
0
0
0
0
0
0
0
0
0
0
0
0
0
0
0
0
0
0
0
0
0
0
0
0
0
0
0
0
0
0
0
0
0
0
0
0
0
0
0
0
0
0
0
0
0
0
0
0
0
0
0
0
0
0
0
0
0
0
0
0
0
0
0
0
0
0
0
0
0
0
0
0
0
0
0
0
0
0
0
0
0
0
0
0
0
0
0
0
0
0
0
0
0
0
0
0
0
0
0
0
0
0
0
0
0
0
0
0
0
0
0
0
0
0
0
0
0
0
0
0
0
0
0
0
0
0
0
0
0
0
0
0
0
0
0
0
0
0
0
0
0
0
0
0
0
0
0
0
0
0
0
0
0
0
0
0
0
0
0
0
0
0
0
0
0
0
0
0
0
0
0
0
0
0
0
0
0
0
0
0
0
0
0
0
0
0
0
0
0
0
0
0
0
0
0
0
0
0
0
0
0
0
0
0
0
0
0
0
0
0
0
0
0
0
0
0
0
0
0
0
0
0
0
0
0
0
0
0
0
0
0
0
0
0
0
0
0
0
0
0
0
0
0
0
0
0
0
0
0
0
0
0
0
0
0
0
0
0
0
0
0
0
0
0
0
0
0
0
0
0
0
0
0
0
0
0
0
0
0
0
0
0
0
0
0
0
0
0
0
0
0
0
0
0
0
0
0
0
0
0
0
0
0
0
0
0
0
0
0
0
0
0
0
0
0
0
0
0
0
0
0
0
0
0
0
0
0
0
0
0
0
0
0
0
0
0
0
0
0
0
0
0
0
0
0
0
0
0
0
0
0
0
0
0
0
0
0
0
0
0
0
0
0
0
0
0
0
0
0
0
0
0
0
0
0
0
0
0
0
0
0
0
0
0
0
0
0
0
0
0
0
0
0
0
0
0
0
0
0
0
0
0
0
0
0
0
0
0
0
0
0
0
0
0
0
0
0
0
0
0
0
0
0
0
0
0
0
0
0
0
0
0
0
0
0
0
0
0
0
0
0
0
0
0
0
0
0
0
0
0
0
0
0
0
0
0
0
0
0
0
0
0
0
0
0
0
0
0
0
0
0
0
0
0
0
0
0
0
0
0
0
0
0
0
0
0
0
0
0
0
0
0
0
0
0
0
0
0
0
0
0
0
0
0
0
0
0
0
0
0
0
0
0
0
0
0
0
0
0
0
0
0
0
0
0
0
0
0
0
0
0
0
0
0
0
0
0
0
0
0
0
0
0
0
0
0
0
0
0
0
0
0
0
0
0
0
0
0
0
0
0
0
0
0
0
0
0
0
0
0
0
0
0
0
0
0
0
0
0
0
0
0
0
0
0
0
0
0
0
0
0
0
0
0
0
0
0
0
0
0
0
0
0
0
0
0
0
0
0
0
0
0
0
0
0
0
0
0
0
0
0
0
0
0
0
0
0
0
0
0
0
0
0
0
0
0
0
0
0
0
0
0
0
0
0
0
0
0
0
0
0
0
0
0
0
0
0
0
0
0
0
0
0
0
0
0
0
0
0
0
0
0
0
0
0
0
0
0
0
0
0
0
0
0
0
0
0
0
0
0
0
0
0
0
0
0
0
0
0
0
0
0
0
0
0
0
0
0
0
0
0
0
0
0
0
0
0
0
0
0
0
0
0
0
0
0
0
0
0
0
0
0
0
0
0
0
0
0
0
0
0
0
0
0
0
0
0
0
0
0
0
0
0
0
0
0
0
0
0
0
0
0
0
0
0
0
0
0
0
0
0
0
0
0
0
0
0
0
0
0
0
0
0
0
0
0
0
0
0
0
0
0
0
0
0
0
0
0
0
0
0
0
0
0
0
0
0
0
0
0
0
0
0
0
0
0
0
0
0
0
0
0
0
0
0
0
0
0
0
0
0
0
0
0
0
0
0
0
0
0
0
0
0
0
0
0
0
0
0
0
0
0
0
0
0
0
0
0
0
0
0
0
0
0
0
0
0
0
0
0
0
0
0
0
0
0
0
0
0
0
0
0
0
0
0
0
0
0
0
0
0
0
0
0
0
0
0
0
0
0
0
0
0
0
0
0
0
0
0
0
0
0
0
0
0
0
0
0
0
0
0
0
0
0
0
0
0
0
0
0
0
0
0
0
0
0
0
0
0
0
0
0
0
0
0
0
0
0
0
0
0
0
0
0
0
0
0
0
0
0
0
0
0
0
0
0
0
0
0
0
0
0
0
0
0
0
0
0
0
0
0
0
0
0
0
0
0
0
0
0
0
0
0
0
0
0
0
0
0
0
0
0
0
0
0
0
0
0
0
0
0
0
0
0
0
0
0
0
0
0
0
0
0
0
0
0
0
0
0
0
0
0
0
0
0
0
0
0
0
0
0
0
0
0
0
0
0
0
0
0
0
0
0
0
0
0
0
0
0
0
0
0
0
0
0
0
0
0
0
0
0
0
0
0
0
0
0
0
0
0
0
0
0
0
0
0
0
0
0
0
0
0
0
0
0
0
0
0
0
0
0
0
0
0
0
0
0
0
0
0
0
0
0
0
0
0
0
0
0
0
0
0
0
0
0
0
0
0
0
0
0
0
0
0
0
0
0
0
0
0
0
0
0
0
0
0
0
0
0
0
0
0
0
0
0
0
0
0
0
0
0
0
0
0
0
0
0
0
0
0
0
0
0
0
0
0
0
0
0
0
0
0
0
0
0
0
0
0
0
0
0
0
0
0
0
0
0
0
0
0
0
0
0
0
0
0
0
0
0
0
0
0
0
0
0
0
0
0
0
0
0
0
0
0
0
0
0
0
0
0
0
0
0
0
0
0
0
0
0
0
0
0
0
0
0
0
0
0
0
0
0
0
0
0
0
0
0
0
0
0
0
0
0
0
0
0
0
0
0
0
0
0
0
0
0
0
0
0
0
0
0
0
0
0
0
0
0
0
0
0
0
0
0
0
0
0
0
0
0
0
0
0
0
0
0
0
0
0
0
0
0
0
0
0
0
0
0
0
0
0
0
0
0
0
0
0
0
0
0
0
0
0
0
0
0
0
0
0
0
0
0
0
0
0
0
0
0
0
0
0
0
0
0
0
0
0
0
0
0
0
0
0
0
0
0
0
0
0
0
0
0
0
0
0
0
0
0
0
0
0
0
0
0
0
0
0
0
0
0
0
0
0
0
0
0
0
0
0
0
0
0
0
0
0
0
0
0
0
0
0
0
0
0
0
0
0
0
0
0
0
0
0
0
0
0
0
0
0
0
0
0
0
0
0
0
0
0
0
0
0
0
0
0
0
0
0
0
0
0
0
0
0
0
0
0
0
0
0
0
0
0
0
0
0
0
0
0
0
0
0
0
0
0
0
0
0
0
0
0
0
0
0
0
0
0
0
0
0
0
0
0
0
0
0
0
0
0
0
0
0
0
0
0
0
0
0
0
0
0
0
0
0
0
0
0
0
0
0
0
0
0
0
0
0
0
0
0
0
0
0
0
0
0
0
0
0
0
0
0
0
0
0
0
0
0
0
0
0
0
0
0
0
0
0
0
0
0
0
0
0
0
0
0
0
0
0
0
0
0
0
0
0
0
0
0
0
0
0
0
0
0
0
0
0
0
0
0
0
0
0
0
0
0
0
0
0
0
0
0
0
0
0
0
0
0
0
0
0
0
0
0
0
0
0
0
0
0
0
0
0
0
0
0
0
0
0
0
0
0
0
0
0
0
0
0
0
0
0
0
0
0
0
0
0
0
0
0
0
0
0
0
0
0
0
0
0
0
0
0
0
0
0
0
0
0
0
0
0
0
0
0
0
0
0
0
0
0
0
0
0
0
0
0
0
0
0
0
0
0
0
0
0
0
0
0
0
0
0
0
0
0
0
0
0
0
0
0
0
0
0
0
0
0
0
0
0
0
0
0
0
0
0
0
0
0
0
0
0
0
0
0
0
0
0
0
0
0
0
0
0
0
0
0
0
0
0
0
0
0
0
0
0
0
0
0
0
0
0
0
0
0
0
0
0
0
0
0
0
0
0
0
0
0
0
0
0
0
0
0
0
0
0
0
0
0
0
0
0
0
0
0
0
0
0
0
0
0
0
0
0
0
0
0
0
0
0
0
0
0
0
0
0
0
0
0
0
0
0
0
0
0
0
0
0
0
0
0
0
0
0
0
0
0
0
0
0
0
0
0
0
0
0
0
0
0
0
0
0
0
0
0
0
0
0
0
0
0
0
0
0
0
0
0
0
0
0
0
0
0
0
0
0
0
0
0
0
0
0
0
0
0
0
0
0
0
0
0
0
0
0
0
0
0
0
0
0
0
0
0
0
0
0
0
0
0
0
0
0
0
0
0
0
0
0
0
0
0
0
0
0
0
0
0
0
0
0
0
0
0
0
0
0
0
0
0
0
0
0
0
0
0
0
0
0
0
0
0
0
0
0
0
0
0
0
0
0
0
0
0
0
0
0
0
0
0
0
0
0
0
0
0
0
0
0
0
0
0
0
0
0
0
0
0
0
0
0
0
0
0
0
0
0
0
0
0
0
0
0
0
0
0
0
0
0
0
0
0
0
0
0
0
0
0
0
0
0
0
0
0
0
0
0
0
0
0
0
0
0
0
0
0
0
0
0
0
0
0
0
0
0
0
0
0
0
0
0
0
0
0
0
0
0
0
0
0
0
0
0
0
0
0
0
0
0
0
0
0
0
0
0
0
0
0
0
0
0
0
0
0
0
0
0
0
0
0
0
0
0
0
0
0
0
0
0
0
0
0
0
0
0
0
0
0
0
0
0
0
0
0
0
0
0
0
0
0
0
0
0
0
0
0
0
0
0
0
0
0
0
0
0
0
0
0
0
0
0
0
0
0
0
0
0
0
0
0
0
0
0
0
0
0
0
0
0
0
0
0
0
0
0
0
0
0
0
0
0
0
0
0
0
0
0
0
0
0
0
0
0
0
0
0
0
0
0
0
0
0
0
0
0
0
0
0
0
0
0
0
0
0
0
0
0
0
0
0
0
0
0
0
0
0
0
0
0
0
0
0
0
0
0
0
0
0
0
0
0
0
0
0
0
0
0
0
0
0
0
0
0
0
0
0
0
0
0
0
0
0
0
0
0
0
0
0
0
0
0
0
0
0
0
0
0
0
0
0
0
0
0
0
0
0
0
0
0
0
0
0
0
0
0
0
0
0
0
0
0
0
0
0
0
0
0
0
0
0
0
0
0
0
0
0
0
0
0
0
0
0
0
0
0
0
0
0
0
0
0
0
0
0
0
0
0
0
0
0
0
0
0
0
0
0
0
0
0
0
0
0
0
0
0
0
0
0
0
0
0
0
0
0
0
0
0
0
0
0
0
0
0
0
0
0
0
0
0
0
0
0
0
0
0
0
0
0
0
0
0
0
0
0
0
0
0
0
0
0
0
0
0
0
0
0
0
0
0
0
0
0
0
0
0
0
0
0
0
0
0
0
0
0
0
0
0
0
0
0
0
0
0
0
0
0
0
0
0
0
0
0
0
0
0
0
0
0
0
0
0
0
0
0
0
0
0
0
0
0
0
0
0
0
0
0
0
0
0
0
0
0
0
0
0
0
0
0
0
0
0
0
0
0
0
0
0
0
0
0
0
0
0
0
0
0
0
0
0
0
0
0
0
0
0
0
0
0
0
0
0
0
0
0
0
0
0
0
0
0
0
0
0
0
0
0
0
0
0
0
0
0
0
0
0
0
0
0
0
0
0
0
0
0
0
0
0
0
0
0
0
0
0
0
0
0
0
0
0
0
0
0
0
0
0
0
0
0
0
0
0
0
0
0
0
0
0
0
0
0
0
0
0
0
0
0
0
0
0
0
0
0
0
0
0
0
0
0
0
0
0
0
0
0
0
0
0
0
0
0
0
0
0
0
0
0
0
0
0
0
0
0
0
0
0
0
0
0
0
0
0
0
0
0
0
0
0
0
0
0
0
0
0
0
0
0
0
0
0
0
0
0
0
0
0
0
0
0
0
0
0
0
0
0
0
0
0
0
0
0
0
0
0
0
0
0
0
0
0
0
0
0
0
0
0
0
0
0
0
0
0
0
0
0
0
0
0
0
0
0
0
0
0
0
0
0
0
0
0
0
0
0
0
0
0
0
0
0
0
0
0
0
0
0
0
0
0
0
0
0
0
0
0
0
0
0
0
0
0
0
0
0
0
0
0
0
0
0
0
0
0
0
0
0
0
0
0
0
0
0
0
0
0
0
0
0
0
0
0
0
0
0
0
0
0
0
0
0
0
0
0
0
0
0
0
0
0
0
0
0
0
0
0
0
0
0
0
0
0
0
0
0
0
0
0
0
0
0
0
0
0
0
0
0
0
0
0
0
0
0
0
0
0
0
0
0
0
0
0
0
0
0
0
0
0
0
0
0
0
0
0
0
0
0
0
0
0
0
0
0
0
0
0
0
0
0
0
0
0
0
0
0
0
0
0
0
0
0
0
0
0
0
0
0
0
0
0
0
0
0
0
0
0
0
0
0
0
0
0
0
0
0
0
0
0
0
0
0
0
0
0
0
0
0
0
0
0
0
0
0
0
0
0
0
0
0
0
0
0
0
0
0
0
0
0
0
0
0
0
0
0
0
0
0
0
0
0
0
0
0
0
0
0
0
0
0
0
0
0
0
0
0
0
0
0
0
0
0
0
0
0
0
0
0
0
0
0
0
0
0
0
0
0
0
0
0
0
0
0
0
0
0
0
0
0
0
0
0
0
0
0
0
0
0
0
0
0
0
0
0
0
0
0
0
0
0
0
0
0
0
0
0
0
0
0
0
0
0
0
0
0
0
0
0
0
0
0
0
0
0
0
0
0
0
0
0
0
0
0
0
0
0
0
0
0
0
0
0
0
0
0
0
0
0
0
0
0
0
0
0
0
0
0
0
0
0
0
0
0
0
0
0
0
0
0
0
0
0
0
0
0
0
0
0
0
0
0
0
0
0
0
0
0
0
0
0
0
0
0
0
0
0
0
0
0
0
0
0
0
0
0
0
0
0
0
0
0
0
0
0
0
0
0
0
0
0
0
0
0
0
0
0
0
0
0
0
0
0
0
0
0
0
0
0
0
0
0
0
0
0
0
0
0
0
0
0
0
0
0
0
0
0
0
0
0
0
0
0
0
0
0
0
0
0
0
0
0
0
0
0
0
0
0
0
0
0
0
0
0
0
0
0
0
0
0
0
0
0
0
0
0
0
0
0
0
0
0
0
0
0
0
0
0
0
0
0
0
0
0
0
0
0
0
0
0
0
0
0
0
0
0
0
0
0
0
0
0
0
0
0
0
0
0
0
0
0
0
0
0
0
0
0
0
0
0
0
0
0
0
0
0
0
0
0
0
0
0
0
0
0
0
0
0
0
0
0
0
0
0
0
0
0
0
0
0
0
0
0
0
0
0
0
0
0
0
0
0
0
0
0
0
0
0
0
0
0
0
0
0
0
0
0
0
0
0
0
0
0
0
0
0
0
0
0
0
0
0
0
0
0
0
0
0
0
0
0
0
0
0
0
0
0
0
0
0
0
0
0
0
0
0
0
0
0
0
0
0
0
0
0
0
0
0
0
0
0
0
0
0
0
0
0
0
0
0
0
0
0
0
0
0
0
0
0
0
0
0
0
0
0
0
0
0
0
0
0
0
0
0
0
0
0
0
0
0
0
0
0
0
0
0
0
0
0
0
0
0
0
0
0
0
0
0
0
0
0
0
0
0
0
0
0
0
0
0
0
0
0
0
0
0
0
0
0
0
0
0
0
0
0
0
0
0
0
0
0
0
0
0
0
0
0
0
0
0
0
0
0
0
0
0
0
0
0
0
0
0
0
0
0
0
0
0
0
0
0
0
0
0
0
0
0
0
0
0
0
0
0
0
0
0
0
0
0
0
0
0
0
0
0
0
0
0
0
0
0
0
0
0
0
0
