-0.488049
-0.544804
-0.61226
-0.687546
-0.767532
-0.849071
-0.929277
-1.00564
-1.07596
-1.13845
-1.19192
-1.23584
-1.27037
-1.29733
-1.32071
-1.3455
-1.37673
-1.4185
-1.47299
-1.54008
-1.61733
-1.70058
-1.78478
-1.83693
-1.31787
0
2.26888
5.44865
9.04264
12.2374
14.1595
14.2162
12.3605
9.12677
5.40031
2.04115
-0.424049
-1.89234
-2.56084
-2.61235
-2.49919
-2.32012
-2.08999
-1.83875
-1.61254
-1.44973
-1.34887
-1.29289
-1.26615
-1.25753
-1.26002
-1.26552
-1.26542
-1.25167
-1.21864
-1.16234
-1.08078
-0.974586
-0.846826
-0.702495
-0.547719
-0.388527
-0.229951
-0.0753342
0.074057
0.219003
0.362083
0.507234
0.659303
0.823552
1.0051
1.20825
1.43566
1.6875
1.9608
2.24923
2.5435
2.83186
3.10119
3.33994
3.5396
3.69552
3.80654
3.87378
3.89316
3.86146
3.77584
3.63062
3.41927
3.13724
2.78476
2.36861
1.90233
1.405
0.899792
0.404475
-0.0662308
-0.500514
-0.890475
-1.23251
-1.5271
-1.7781
-1.99171
-2.17521
-2.33578
-2.47957
-2.61107
-2.73287
-2.84578
-2.94925
-3.04198
-3.12255
-3.19008
-3.24451
-3.28623
-3.31668
-3.34045
-3.36309
-3.38879
-3.4188
-3.45068
-3.47873
-3.49559
-3.49466
-3.47234
-3.43195
-3.37945
-3.32055
-3.26366
-3.2178
-3.18998
-3.18384
-3.19891
-3.2307
-3.27151
-3.31187
-3.34215
-3.35418
-3.34475
-3.31404
-3.26316
-3.19335
-3.10687
-3.01064
-2.91815
-2.84439
-2.80176
-2.7968
-2.82801
-2.88545
-2.9527
-3.01085
-3.04342
-3.04369
-3.01652
-2.96881
-2.90576
-2.83626
-2.76821
-2.70622
-2.65049
-2.59685
-2.53835
-2.46753
-2.37894
-2.27132
-2.14926
-2.01893
-1.88725
-1.76345
-1.65856
-1.58029
-1.5329
-1.51673
-1.52823
-1.56083
-1.6063
-1.65655
-1.70518
-1.74875
-1.78725
-1.82181
-1.85388
-1.88504
-1.91654
-1.94879
-1.98108
-2.01165
-2.0379
-2.05698
-2.06643
-2.0649
-2.05253
-2.03135
-2.00403
-1.97369
-1.94331
-1.91535
-1.92926
-1.4249
0
2.47659
5.83764
9.52527
12.7324
14.6438
14.7216
12.9143
9.69444
5.88839
2.36946
-0.247633
-1.77105
-2.39137
-2.42189
-2.30308
-2.15942
-1.99475
-1.82219
-1.66176
-1.52345
-1.4042
-1.29582
-1.19074
-1.08413
-0.972968
-0.855436
-0.731377
-0.602303
-0.470999
-0.340886
-0.215316
-0.0966949
0.0141106
0.118091
0.218052
0.31824
0.42373
0.539724
0.67094
0.821164
0.992998
1.18827
1.40809
1.65302
1.92314
2.21806
2.53673
2.87729
3.23692
3.61175
3.99697
4.387
4.77572
5.15544
5.51588
5.84271
6.11762
6.32545
6.45898
6.50938
6.4671
6.32517
6.08231
5.744
5.32098
4.82761
4.28726
3.72933
3.17326
2.63113
2.11486
1.63573
1.20307
0.823359
0.499666
0.231871
0.0164211
-0.152664
-0.282322
-0.379841
-0.453651
-0.511335
-0.559155
-0.601815
-0.642427
-0.682649
-0.722887
-0.762497
-0.799931
-0.832842
-0.858195
-0.872542
-0.872487
-0.852767
-0.804847
-0.723512
-0.623716
-0.534943
-0.487485
-0.501165
-0.576792
-0.694107
-0.817795
-0.909852
-0.94329
-0.92326
-0.871522
-0.802027
-0.722382
-0.638567
-0.555272
-0.475724
-0.402106
-0.336725
-0.281534
-0.237921
-0.20699
-0.188972
-0.182753
-0.18586
-0.194988
-0.206841
-0.218857
-0.229589
-0.238373
-0.24471
-0.247869
-0.246654
-0.239475
-0.224611
-0.200536
-0.166731
-0.122911
-0.0686773
-0.00369759
0.0723152
0.159591
0.258206
0.36793
0.488064
0.617303
0.753627
0.89429
1.03571
1.17277
1.29798
1.40265
1.47949
1.523
1.53067
1.5037
1.44699
1.36813
1.27584
1.17819
1.08132
0.988437
0.901042
0.820367
0.747976
0.68598
0.636796
0.602935
0.58937
0.60332
0.639403
0.675102
0.681701
0.632899
0.513294
0.323311
0.0791567
-0.191212
0
1.0887
3.20503
6.27334
9.90094
13.3945
15.9215
16.7896
15.7335
13.0507
9.48687
5.92268
3.03587
1.1212
0.130836
-0.110714
0.154548
0.459519
0.775577
1.04965
1.23995
1.36699
1.46616
1.55215
1.63005
1.70193
1.76884
1.83135
1.88974
1.94459
1.99693
2.04837
2.10116
2.15788
2.22107
2.29286
2.37461
2.46684
2.5693
2.68186
2.80487
2.93947
3.08777
3.25277
3.43794
3.64658
3.88094
4.14148
4.42635
4.73125
5.04984
5.3745
5.69735
6.01115
6.3094
6.58391
6.82772
7.03908
7.21718
7.36126
7.46595
7.51812
7.51
7.43036
7.26708
7.01192
6.6662
6.24414
5.77195
5.28197
4.80441
4.3504
3.92073
3.51897
3.1464
2.80318
2.48965
2.20765
1.95924
1.74649
1.57124
1.43429
1.33472
1.26958
1.23397
1.22149
1.22496
1.23699
1.2509
1.26128
1.26442
1.25835
1.24275
1.21854
1.18751
1.15192
1.11415
1.07636
1.04049
1.00836
0.981652
0.962027
0.951117
0.950258
0.960309
0.981411
1.01275
1.05248
1.09782
1.14538
1.19169
1.23382
1.26982
1.299
1.3218
1.33945
1.35351
1.36527
1.37545
1.38406
1.39048
1.39372
1.39272
1.38666
1.37512
1.35826
1.33694
1.31283
1.28822
1.266
1.2492
1.24053
1.24211
1.25478
1.27755
1.30657
1.33508
1.35636
1.36623
1.36484
1.35734
1.35295
1.36258
1.39564
1.45697
1.54194
1.64648
1.75861
1.86241
1.9429
1.98898
1.99529
1.96252
1.89665
1.80734
1.70596
1.60356
1.50772
1.42154
1.34513
1.27716
1.21315
1.14668
1.07058
0.977861
0.855038
0.688545
0.489982
0.2924
0.130847
0.0305136
0
0.0474142
0.136968
0.306143
0.81652
2.04461
4.30358
7.53842
11.2068
14.4105
16.2333
16.1236
14.1223
10.8307
7.14521
3.90459
1.61804
0.37702
-0.0466044
0.0914992
0.222722
0.349336
0.469074
0.580769
0.684946
0.783886
0.881344
0.98171
1.08883
1.20526
1.3327
1.46575
1.59452
1.70912
1.80361
1.87848
1.94069
2.00136
2.07239
2.16338
2.2754
2.40596
2.55466
2.71999
2.89942
3.08968
3.28717
3.48846
3.69103
3.89378
4.09726
4.3036
4.51596
4.73765
4.97103
5.21644
5.47193
5.73312
5.9892
6.22696
6.43375
6.59974
6.71899
6.78896
6.80883
6.77766
6.69319
6.56023
6.37769
6.14393
5.85951
5.52764
5.15407
4.74718
4.31751
3.87345
3.42334
2.97546
2.53804
2.11936
1.72763
1.3707
1.05546
0.78736
0.569775
0.402675
0.282819
0.204647
0.160989
0.142807
0.139281
0.140308
0.137414
0.124372
0.0975225
0.0558241
0.000679398
-0.0644216
-0.13438
-0.203117
-0.264753
-0.313792
-0.345457
-0.35589
-0.341293
-0.297942
-0.227883
-0.14611
-0.0715096
-0.0213676
-0.00664711
-0.0289637
-0.0803804
-0.146089
-0.208937
-0.254148
-0.278001
-0.283615
-0.273522
-0.249736
-0.216492
-0.18024
-0.147485
-0.123663
-0.112134
-0.113526
-0.125608
-0.143757
-0.16196
-0.174139
-0.176164
-0.165473
-0.141452
-0.106001
-0.0628538
-0.0172857
0.0242023
0.0556017
0.072625
0.0735508
0.0596514
0.0350864
0.00624714
-0.0193321
-0.0342512
-0.0332741
-0.0148041
0.0225849
0.0782742
0.149709
0.232917
0.322654
0.412695
0.496948
0.570113
0.628122
0.66826
0.688982
0.689527
0.669536
0.629453
0.570168
0.492656
0.398495
0.290467
0.172788
0.0508801
-0.0691975
-0.181411
-0.280421
-0.362589
-0.426615
-0.473588
-0.506753
-0.530985
-0.551981
-0.575744
-0.607525
-0.651075
-0.708933
-0.780211
-0.86144
-0.947123
-0.834267
0
1.77058
4.49012
7.84128
11.1879
13.7441
14.8404
14.1675
11.8829
8.54481
4.91784
1.73322
-0.513991
-1.67244
-1.88745
-1.57684
-1.2786
-1.0093
-0.783329
-0.611282
-0.483807
-0.394139
-0.339589
-0.314511
-0.310437
-0.316536
-0.320512
-0.310049
-0.274479
-0.206525
-0.103518
0.0323814
0.195112
0.376511
0.568331
0.763523
0.957308
1.14549
1.32244
1.48341
1.62386
1.74176
1.84037
1.92982
2.02653
2.15017
2.31929
2.54295
2.81459
3.12802
3.47839
3.85878
4.26052
4.67488
5.09243
5.50216
5.89039
6.23907
6.52899
6.75195
6.89271
6.92774
6.83291
6.59542
6.22333
5.74752
5.214
4.66995
4.14291
3.63488
3.14602
2.6808
2.24337
1.83794
1.46869
1.13948
0.853226
0.611633
0.415465
0.263369
0.150001
0.0674618
0.0076416
-0.0363491
-0.0691036
-0.0925236
-0.106204
-0.108457
-0.0976624
-0.0730316
-0.0360054
0.00856285
0.053632
0.0910633
0.112723
0.112044
0.0849907
0.0308472
-0.0473095
-0.142559
-0.244632
-0.341036
-0.418734
-0.46646
-0.474303
-0.410685
-0.252738
-0.0485413
0.138606
0.252501
0.263874
0.180544
0.0435246
-0.0894928
-0.166042
-0.160861
-0.105074
-0.0153542
0.100318
0.220417
0.320504
0.381307
0.394067
0.36435
0.312401
0.268647
0.264771
0.323093
0.437492
0.585111
0.752552
0.924116
1.0828
1.21411
1.30809
1.36033
1.37176
1.34784
1.29715
1.23006
1.15734
1.08901
1.03252
0.992235
0.970789
0.969819
0.989032
1.02635
1.07829
1.14058
1.20885
1.27927
1.34896
1.41613
1.47978
1.53948
1.59491
1.64565
1.69089
1.72934
1.75908
1.77686
1.77841
1.7603
1.71995
1.65665
1.57258
1.47325
1.36721
1.26477
1.17624
1.10914
1.07125
1.06634
1.08989
1.12664
1.15421
1.14951
1.09229
0.967765
0.768491
0.482856
0.120468
-0.295119
-0.733269
-0.846535
0
1.97539
5.06848
8.92262
12.8642
16.0342
17.6348
17.2272
14.938
11.4293
7.62197
4.32125
1.96212
0.589575
0.00898285
0.0947819
0.313961
0.545283
0.774128
0.985106
1.16386
1.31152
1.42995
1.51611
1.57039
1.59766
1.60742
1.61244
1.62625
1.65988
1.71937
1.80144
1.89944
2.00843
2.12457
2.24495
2.36807
2.49394
2.62379
2.75972
2.90428
3.06035
3.231
3.41921
3.62743
3.85706
4.10787
4.37771
4.66241
4.95631
5.25311
5.54694
5.83352
6.11088
6.37961
6.64167
6.90078
7.16706
7.44089
7.69459
7.88647
7.98145
7.96501
7.84281
7.62924
7.33501
6.96289
6.5268
6.05134
5.55747
5.06204
4.57848
4.11715
3.68818
3.30011
2.95976
2.66955
2.42709
2.22719
2.06311
1.92781
1.81491
1.71914
1.6364
1.56365
1.4987
1.44021
1.38774
1.34176
1.30343
1.27422
1.25538
1.24746
1.25006
1.26208
1.28199
1.30833
1.33988
1.37632
1.41802
1.46574
1.5203
1.58212
1.65089
1.72533
1.80313
1.88108
1.95516
2.02132
2.07617
2.1175
2.14444
2.15748
2.15805
2.14807
2.12949
2.1041
2.07362
2.03976
2.00455
1.97059
1.94093
1.91881
1.90708
1.90706
1.92006
1.94719
1.98361
2.01621
2.03058
2.01582
1.96872
1.89523
1.80808
1.72156
1.64575
1.58192
1.52619
1.47406
1.42203
1.36971
1.32054
1.28083
1.25768
1.25443
1.26984
1.30309
1.35337
1.41469
1.47753
1.53315
1.57616
1.60626
1.6285
1.65202
1.68745
1.74975
1.85563
2.0009
2.15417
2.27665
2.33366
2.30177
2.1716
1.94845
1.65266
1.31908
0.993437
0.713578
0.490185
0.317124
0.206579
0.168276
0.188933
0.243192
0.302893
0.342278
0.34146
0.287989
0.17716
0.0117695
-0.198475
-0.437113
-0.685545
-0.925032
-0.890889
0
1.61237
4.01967
7.2259
10.9373
14.4289
16.7012
16.9308
14.9435
11.3624
7.30065
3.80282
1.41363
0.116937
-0.419201
-0.452141
-0.458635
-0.457454
-0.44362
-0.411811
-0.356667
-0.273378
-0.158986
-0.0136333
0.158726
0.350499
0.551566
0.751134
0.939946
1.11201
1.26573
1.40408
1.53368
1.66316
1.80109
1.95411
2.12513
2.3126
2.51336
2.72372
2.9397
3.15796
3.3766
3.59591
3.81851
4.04902
4.2933
4.55751
4.84703
5.16564
5.51447
5.89266
6.29803
6.72709
7.17865
7.65677
8.17133
8.72868
9.30109
9.84833
10.3075
10.5891
10.618
10.3841
9.95577
9.4423
8.92729
8.41316
7.87437
7.33768
6.81193
6.30103
5.81026
5.34508
4.90962
4.50655
4.13734
3.80271
3.50304
3.2386
3.00941
2.81514
2.65628
2.53262
2.4379
2.36432
2.30438
2.25249
2.20619
2.16616
2.13525
2.11674
2.11342
2.12423
2.14486
2.16853
2.18766
2.19557
2.18796
2.16374
2.12528
2.07823
2.0297
1.98623
1.95334
1.93696
1.93776
1.94886
1.95985
1.96019
1.94267
1.90575
1.85394
1.79634
1.74413
1.70636
1.68631
1.68472
1.7022
1.73858
1.7908
1.85186
1.91349
1.96721
2.00538
2.02202
2.01341
1.97845
1.9187
1.83823
1.74389
1.64271
1.5411
1.4445
1.35648
1.27862
1.21079
1.15138
1.09783
1.04748
0.998245
0.949244
0.901225
0.856616
0.819302
0.794344
0.78963
0.821838
0.914599
1.05918
1.21496
1.33222
1.37118
1.31747
1.18696
1.01763
0.852274
0.719757
0.614806
0.521745
0.432481
0.342664
0.250417
0.157076
0.0669243
-0.0140305
-0.0789703
-0.119685
-0.134039
-0.128651
-0.114783
-0.105129
-0.110571
-0.137991
-0.189589
-0.263512
-0.355145
-0.4578
-0.564794
-0.559048
0
1.4707
4.02383
7.3967
10.8867
13.5695
14.6574
13.8202
11.3037
7.80076
4.15849
1.08127
-1.04076
-2.14299
-2.33654
-1.86719
-1.38905
-0.941786
-0.58651
-0.378551
-0.265575
-0.202452
-0.177473
-0.175034
-0.179047
-0.176704
-0.161896
-0.136299
-0.103581
-0.0690422
-0.0377319
-0.0129753
0.00417709
0.0146385
0.0205826
0.0249039
0.0309631
0.0428825
0.0660225
0.107038
0.173428
0.272577
0.410006
0.585107
0.79627
1.04085
1.31386
1.60855
1.91746
2.23354
2.55112
2.86651
3.17791
3.48449
3.78661
4.08529
4.37956
4.66158
4.9137
5.13022
5.2894
5.33819
5.21104
4.87261
4.35121
3.73464
3.12817
2.60371
2.13014
1.677
1.23692
0.808994
0.392789
-0.0113152
-0.401864
-0.776132
-1.12996
-1.45504
-1.74053
-1.97858
-2.16306
-2.29147
-2.35919
-2.36139
-2.32191
-2.26884
-2.2266
-2.20923
-2.21766
-2.24201
-2.26757
-2.28188
-2.28027
-2.26807
-2.24955
-2.22815
-2.20572
-2.18173
-2.15357
-2.11779
-2.07179
-2.01566
-1.95137
-1.88457
-1.82259
-1.77201
-1.73664
-1.71625
-1.70661
-1.7007
-1.6907
-1.67019
-1.63697
-1.59235
-1.53911
-1.48103
-1.42298
-1.36954
-1.32402
-1.28799
-1.26118
-1.24198
-1.22818
-1.21778
-1.20969
-1.20381
-1.20091
-1.20188
-1.20672
-1.21381
-1.2196
-1.21895
-1.2061
-1.17607
-1.12618
-1.05721
-0.97299
-0.879166
-0.782045
-0.688205
-0.603205
-0.530465
-0.470772
-0.422337
-0.381396
-0.343237
-0.30318
-0.256412
-0.203176
-0.15252
-0.118182
-0.113895
-0.148954
-0.225733
-0.339587
-0.480271
-0.633701
-0.783968
-0.920269
-1.03601
-1.12456
-1.1698
-1.17077
-1.14555
-1.11733
-1.1057
-1.11935
-1.15374
-1.19421
-1.22235
-1.22217
-0.949583
0
1.48951
3.71338
6.64447
9.86457
12.5912
13.9684
13.4814
11.2316
7.88839
4.34649
1.31906
-0.884095
-2.29647
-3.04859
-3.27377
-2.98867
-2.27098
-1.34162
-0.514894
-0.0805805
-0.0665592
-0.0882786
-0.10526
-0.113444
-0.108143
-0.0864891
-0.04848
0.00469799
0.0712397
0.148767
0.234764
0.326956
0.42355
0.523371
0.625905
0.731304
0.840381
0.954621
1.07616
1.20768
1.35224
1.51286
1.6921
1.89152
2.11133
2.35025
2.60559
2.87365
3.15018
3.43079
3.71119
3.98722
4.25468
4.50842
4.74078
4.94426
5.11261
5.24035
5.3233
5.35855
5.34394
5.27727
5.15565
4.97556
4.73752
4.44222
4.09096
3.68914
3.24696
2.77911
2.30405
1.83923
1.40078
1.00252
0.655789
0.367025
0.135639
-0.044566
-0.183192
-0.291731
-0.38062
-0.457492
-0.526219
-0.586873
-0.636556
-0.670865
-0.685634
-0.675162
-0.636681
-0.576772
-0.507748
-0.444083
-0.400421
-0.387077
-0.408565
-0.46282
-0.541249
-0.629795
-0.711308
-0.769213
-0.791625
-0.776555
-0.734395
-0.676358
-0.610428
-0.543872
-0.482999
-0.432448
-0.394769
-0.370473
-0.35833
-0.355827
-0.359674
-0.36631
-0.3724
-0.375286
-0.373323
-0.366019
-0.354501
-0.342364
-0.335038
-0.33783
-0.354232
-0.384609
-0.425795
-0.471811
-0.515481
-0.550298
-0.571846
-0.579943
-0.574347
-0.554746
-0.520475
-0.470329
-0.402988
-0.317882
-0.216113
-0.101809
0.0202662
0.142778
0.256878
0.353387
0.424106
0.463801
0.470126
0.443782
0.388454
0.310488
0.218289
0.121428
0.0295462
-0.048937
-0.109168
-0.14967
-0.169576
-0.166697
-0.137678
-0.0870924
-0.0335041
0.0016943
0
-0.0547745
-0.154025
-0.284448
-0.426656
-0.561963
-0.679239
-0.779878
-0.596996
0.202687
1.75411
4.19179
7.33902
10.6594
13.3805
14.7549
14.3554
12.2654
9.05802
5.56465
2.55311
0.476648
-0.596466
-0.884183
-0.672604
-0.466773
-0.272671
-0.0937218
0.0704107
0.224082
0.369406
0.505681
0.630752
0.741927
0.836885
0.915066
0.978364
1.03134
1.08079
1.13474
1.2011
1.28628
1.39403
1.52406
1.67372
1.83965
2.0184
2.20705
2.39776
2.57433
2.71935
2.81993
2.87586
2.90583
2.94656
3.04268
3.23061
3.52324
3.8779
4.25849
4.64424
5.0174
5.36297
5.67025
5.93289
6.1491
6.32126
6.45356
6.54897
6.60691
6.62281
6.5916
6.50494
6.35363
6.13077
5.83461
5.47062
5.05186
4.59762
4.13077
3.67182
3.23404
2.82818
2.46084
2.13465
1.84898
1.60113
1.38934
1.21102
1.06307
0.943119
0.849166
0.779161
0.730709
0.701011
0.68696
0.685278
0.692318
0.705138
0.720135
0.733872
0.743438
0.746886
0.743617
0.734554
0.722044
0.709525
0.700919
0.699659
0.708755
0.730453
0.765711
0.814245
0.874377
0.942376
1.01174
1.07411
1.12179
1.14937
1.15507
1.14114
1.11352
1.08053
1.05111
1.03302
1.03003
1.04188
1.0669
1.10318
1.14718
1.19243
1.22968
1.24914
1.24222
1.20329
1.13132
1.03079
0.91051
0.784932
0.670848
0.583638
0.53452
0.528913
0.566199
0.640617
0.74282
0.861547
0.984609
1.10295
1.20987
1.2999
1.3693
1.41617
1.44014
1.44193
1.42265
1.38328
1.32449
1.24723
1.15178
1.03854
0.908989
0.76608
0.614502
0.460559
0.311554
0.175061
0.0585903
-0.0274811
-0.0694458
-0.0668228
-0.0381374
-0.00794754
0
-0.0330196
-0.112915
-0.238381
-0.402143
-0.594312
-0.802729
-1.01749
-1.23749
-0.899978
0.356907
2.68231
5.87997
9.43332
12.6208
14.6834
15.0354
13.4887
10.3915
6.55764
2.95957
0.330058
-1.09663
-1.55429
-1.45679
-1.30315
-1.15215
-1.0084
-0.874557
-0.750566
-0.63465
-0.526117
-0.427324
-0.340802
-0.269448
-0.215426
-0.178888
-0.157143
-0.144704
-0.134195
-0.117849
-0.0890812
-0.0460606
0.0109188
0.0809231
0.162374
0.252498
0.347075
0.442976
0.539442
0.63887
0.746787
0.870874
1.01921
1.19823
1.4108
1.65309
1.91928
2.20304
2.49727
2.79505
3.09045
3.37892
3.6566
3.91948
4.16482
4.39135
4.59749
4.77909
4.92714
5.03041
5.07878
5.05512
4.93958
4.71808
4.39077
3.97532
3.50299
3.00954
2.52431
2.05576
1.60653
1.18174
0.785428
0.420865
0.0911312
-0.19915
-0.447238
-0.652362
-0.815131
-0.937724
-1.02378
-1.07801
-1.10554
-1.11126
-1.09926
-1.07331
-1.03568
-0.988
-0.931786
-0.868633
-0.80097
-0.735107
-0.681066
-0.649192
-0.646698
-0.674104
-0.723286
-0.77856
-0.820916
-0.833969
-0.809914
-0.759842
-0.692869
-0.616431
-0.540002
-0.472787
-0.422368
-0.393938
-0.389996
-0.410377
-0.452464
-0.511475
-0.580779
-0.652208
-0.716409
-0.74314
-0.597017
-0.172497
0.380197
0.83511
0.996464
0.797911
0.334946
-0.187681
-0.555453
-0.635949
-0.575682
-0.488608
-0.398385
-0.313673
-0.240651
-0.182475
-0.139116
-0.107742
-0.0835819
-0.0611103
-0.0353317
-0.00279808
0.0378376
0.0858143
0.139268
0.196142
0.25525
0.316985
0.383435
0.457877
0.543821
0.64396
0.761974
0.900122
1.0524
1.199
1.31579
1.38138
1.38327
1.32205
1.21136
1.07306
0.929041
0.793889
0.669599
0.552893
0.442067
0.337805
0.242078
0.157843
0.0893558
0.0414436
0.0144836
0.00345421
0
0.015625
0.0204563
0.0086338
-0.0220688
-0.0704815
-0.132971
-0.204197
-0.278582
0.143678
1.19181
3.05599
5.83809
9.36434
13.0472
15.9561
17.163
16.2022
13.3434
9.47906
5.69134
2.78308
1.04311
0.312759
0.245441
0.355421
0.467077
0.579412
0.69192
0.804469
0.916986
1.02912
1.14003
1.24834
1.35226
1.44987
1.5396
1.6199
1.69033
1.75175
1.80669
1.85946
1.91585
1.98254
2.06607
2.17177
2.30246
2.45828
2.63731
2.8356
3.04806
3.26895
3.49316
3.7165
3.9355
4.14819
4.35453
4.55648
4.7579
4.96393
5.17992
5.41005
5.65597
5.916
6.18506
6.45507
6.71587
6.95542
7.15946
7.31477
7.41265
7.44594
7.40886
7.29738
7.10985
6.84758
6.515
6.11954
5.67518
5.20028
4.70876
4.21191
3.72199
3.25177
2.81367
2.41863
2.07491
1.78821
1.56473
1.40744
1.30488
1.24144
1.20108
1.17008
1.13896
1.10291
1.06107
1.01506
0.967481
0.920868
0.877093
0.83808
0.805749
0.781851
0.767656
0.764421
0.771688
0.784006
0.793818
0.79398
0.780365
0.753621
0.71921
0.685598
0.661231
0.651492
0.656226
0.671089
0.688347
0.699115
0.695749
0.673783
0.633065
0.578042
0.517349
0.461435
0.420079
0.407111
0.44952
0.562825
0.713731
0.85103
0.923891
0.900376
0.779014
0.589574
0.383291
0.216033
0.121441
0.0898465
0.144471
0.25176
0.361503
0.425252
0.414743
0.332624
0.210222
0.0926992
0.0182634
-0.00327625
0.00138721
0.0196913
0.039032
0.0494944
0.0469387
0.0342978
0.0208294
0.0196381
0.0442381
0.101331
0.190798
0.31891
0.488229
0.691812
0.909091
1.10969
1.26581
1.35669
1.37134
1.31109
1.19093
1.03731
0.881407
0.749181
0.646762
0.56317
0.488058
0.414899
0.338154
0.254004
0.161346
0.0621445
-0.0389721
-0.135728
-0.221812
-0.291339
-0.339701
-0.369959
-0.389333
-0.406873
-0.430592
-0.464999
-0.509907
-0.560856
-0.577623
0
1.53077
4.24149
7.94647
11.9169
15.0756
16.4502
15.6328
12.9668
9.35481
5.82134
3.08917
1.3841
0.516641
0.125249
0.0835453
0.0589211
0.0498684
0.0619179
0.0987808
0.163784
0.264866
0.421368
0.658765
0.955474
1.24769
1.45997
1.52942
1.43423
1.21
0.943746
0.746401
0.712938
0.820523
0.996375
1.20705
1.44093
1.68886
1.94193
2.19271
2.43579
2.66827
2.89007
3.10388
3.3147
3.52919
3.75457
3.99751
4.26303
4.55362
4.86874
5.20498
5.55666
5.91653
6.27425
6.61336
6.91094
7.15126
7.32214
7.41568
7.42912
7.36457
7.22664
7.01871
6.74009
6.38775
5.9775
5.52729
5.04885
4.55262
4.05139
3.55967
3.09203
2.66133
2.27731
1.94561
1.66781
1.44182
1.26174
1.11901
1.00412
0.907915
0.822788
0.743462
0.667287
0.59399
0.524938
0.462529
0.409642
0.366934
0.333564
0.30775
0.28767
0.27219
0.261101
0.25481
0.253711
0.257501
0.264808
0.274279
0.284314
0.293333
0.299964
0.303133
0.302132
0.296804
0.287477
0.275171
0.261599
0.248974
0.239631
0.235559
0.238192
0.247844
0.263942
0.285303
0.31047
0.337939
0.366228
0.393725
0.418632
0.439141
0.45373
0.461549
0.46269
0.458202
0.449809
0.439442
0.428786
0.418903
0.410376
0.403639
0.399177
0.397842
0.401
0.410389
0.427728
0.456525
0.499458
0.546803
0.583018
0.592388
0.566569
0.510426
0.442899
0.391981
0.385846
0.443836
0.548618
0.690271
0.861405
1.05504
1.25144
1.42669
1.56067
1.6406
1.66302
1.63341
1.5636
1.46794
1.35971
1.24946
1.14255
1.04143
0.947823
0.86304
0.787837
0.721031
0.659924
0.600937
0.540218
0.474223
0.400047
0.315414
0.218417
0.107218
-0.0245491
-0.193893
-0.417511
-0.687423
-0.988192
-1.30316
-1.04136
0
2.03587
5.086
8.84167
12.6308
15.5436
16.7278
15.7406
12.7791
8.6408
4.41054
1.02918
-1.03108
-1.83684
-1.80565
-1.4802
-1.15754
-0.843122
-0.546777
-0.292745
-0.0858337
0.077459
0.192857
0.260285
0.287537
0.28885
0.281715
0.283011
0.303937
0.346179
0.408943
0.491374
0.591843
0.707927
0.836982
0.976453
1.12394
1.27706
1.43342
1.59039
1.74529
1.89652
2.0445
2.19237
2.34596
2.51302
2.70154
2.91786
3.16493
3.43923
3.73473
4.04405
4.35882
4.67113
4.97492
5.26674
5.54518
5.8097
6.06247
6.31161
6.55491
6.76381
6.89349
6.89935
6.75029
6.43516
5.96419
5.36907
4.70371
4.04115
3.41961
2.8447
2.32304
1.86496
1.47747
1.16312
0.915933
0.724391
0.574758
0.453347
0.348434
0.251511
0.157732
0.0656761
-0.0234184
-0.106899
-0.181886
-0.245673
-0.2963
-0.332845
-0.355411
-0.36564
-0.367393
-0.364993
-0.361885
-0.359734
-0.358066
-0.354584
-0.346077
-0.329568
-0.303321
-0.26813
-0.2261
-0.179391
-0.130369
-0.0810722
-0.0327431
0.014605
0.0621796
0.112041
0.166476
0.229362
0.301729
0.36993
0.411466
0.40279
0.329913
0.196485
0.024791
-0.151166
-0.29715
-0.393714
-0.453436
-0.478963
-0.474211
-0.44556
-0.400588
-0.347566
-0.293712
-0.245659
-0.209433
-0.19018
-0.191795
-0.216412
-0.263858
-0.331255
-0.413349
-0.502974
-0.58678
-0.650797
-0.683883
-0.680518
-0.642238
-0.576999
-0.49646
-0.412077
-0.331429
-0.255135
-0.180384
-0.102728
-0.0166359
0.0859055
0.216591
0.387854
0.592456
0.792
0.941618
1.00064
0.944949
0.777808
0.532653
0.263712
0.0268669
-0.142693
-0.260812
-0.350053
-0.421021
-0.477885
-0.523727
-0.56146
-0.593927
-0.623643
-0.652602
-0.682172
-0.713018
-0.745144
-0.778026
-0.810854
-0.842795
-0.873249
-0.901951
-0.928969
-0.95452
-0.781457
0
1.70974
4.49035
8.10333
11.8899
14.9029
16.2246
15.3565
12.4812
8.42162
4.29401
1.03517
-0.93194
-1.73411
-1.80987
-1.65846
-1.49948
-1.3298
-1.15068
-0.972394
-0.809634
-0.671763
-0.563202
-0.481694
-0.420055
-0.372511
-0.333708
-0.297777
-0.259069
-0.213183
-0.156863
-0.0880249
-0.00611801
0.0877686
0.191013
0.300046
0.410692
0.51946
0.624844
0.728259
0.834377
0.950692
1.08633
1.25034
1.4499
1.68843
1.96461
2.27372
2.60899
2.96217
3.32452
3.68768
4.04408
4.38677
4.70512
4.98767
5.22632
5.41397
5.54572
5.61951
5.63592
5.59678
5.50337
5.35487
5.154
4.90423
4.60514
4.25586
3.85875
3.42011
2.95043
2.463
1.9723
1.49242
1.03539
0.610014
0.221111
-0.130049
-0.444632
-0.724789
-0.972272
-1.18753
-1.36928
-1.50841
-1.57925
-1.54428
-1.41041
-1.24062
-1.10542
-1.05878
-1.12208
-1.27951
-1.48428
-1.6728
-1.78327
-1.79458
-1.73724
-1.63298
-1.48055
-1.31286
-1.16721
-1.07449
-1.0496
-1.08744
-1.16647
-1.25828
-1.33836
-1.39366
-1.43071
-1.45562
-1.47086
-1.47913
-1.4829
-1.48425
-1.48478
-1.48554
-1.48674
-1.48766
-1.48658
-1.48105
-1.46839
-1.44633
-1.41401
-1.37208
-1.32207
-1.26639
-1.20858
-1.1534
-1.10574
-1.06965
-1.04766
-1.04025
-1.04569
-1.06033
-1.07922
-1.09702
-1.10905
-1.11218
-1.10464
-1.08569
-1.05553
-1.01491
-0.96475
-0.905712
-0.837951
-0.761136
-0.674454
-0.576344
-0.465261
-0.342605
-0.217169
-0.104393
-0.0211977
0.0183302
0.00680828
-0.0541237
-0.153672
-0.274043
-0.394411
-0.495724
-0.569448
-0.617741
-0.646137
-0.658709
-0.660641
-0.658941
-0.661242
-0.674795
-0.70563
-0.757863
-0.833171
-0.930513
-1.05061
-1.1884
-1.33085
-1.46435
-1.57724
-1.6613
-1.23798
0
1.88349
4.4143
7.48503
10.7607
13.6342
15.359
15.3552
13.5189
10.3215
6.60631
3.205
0.619203
-1.05527
-1.98123
-1.95545
-1.91458
-1.85892
-1.78703
-1.70028
-1.60124
-1.4925
-1.3776
-1.25923
-1.13952
-1.02181
-0.909697
-0.806125
-0.712535
-0.628482
-0.552006
-0.480595
-0.412287
-0.346316
-0.282948
-0.223016
-0.16693
-0.114007
-0.0622879
-0.00889378
0.0492455
0.114645
0.188288
0.270269
0.360558
0.459265
0.566948
0.684792
0.81448
0.957766
1.11587
1.28888
1.47535
1.67218
1.87495
2.07806
2.27528
2.46016
2.62578
2.76335
2.86085
2.90545
2.88481
2.78558
2.59576
2.30784
1.92183
1.44707
0.902174
0.312873
-0.289771
-0.882863
-1.44942
-1.97564
-2.45211
-2.87417
-3.24164
-3.55807
-3.82958
-4.0635
-4.267
-4.44585
-4.60355
-4.74054
-4.85452
-4.94188
-4.99861
-5.0214
-5.00901
-4.95354
-4.84982
-4.71513
-4.57975
-4.47292
-4.41466
-4.41034
-4.4501
-4.5134
-4.57697
-4.62278
-4.64733
-4.65679
-4.65604
-4.64825
-4.63607
-4.62089
-4.6027
-4.58043
-4.55274
-4.51883
-4.47916
-4.43532
-4.38949
-4.34407
-4.30121
-4.26221
-4.22727
-4.19534
-4.16431
-4.13131
-4.09328
-4.04743
-3.99183
-3.92472
-3.84552
-3.75842
-3.67232
-3.59621
-3.53562
-3.48991
-3.45146
-3.40753
-3.34431
-3.25182
-3.12966
-2.98246
-2.82402
-2.67369
-2.54874
-2.45875
-2.40257
-2.36864
-2.33853
-2.29256
-2.21545
-2.10471
-1.9678
-1.81284
-1.64651
-1.47526
-1.30514
-1.14125
-0.987822
-0.849276
-0.731631
-0.641613
-0.583986
-0.562818
-0.579046
-0.627947
-0.697788
-0.770694
-0.825867
-0.844351
-0.817724
-0.745739
-0.633314
-0.490968
-0.334877
-0.18317
-0.0535305
0.0389961
0.0853737
0.0818569
0.0298069
-0.0645397
-0.190495
-0.333885
-0.526928
0
1.63723
4.50027
8.27406
12.2596
15.5479
17.2843
16.9591
14.6282
10.9458
6.94156
3.60815
1.50566
0.608586
0.474849
0.595656
0.740362
0.893813
1.05869
1.23427
1.415
1.59418
1.76491
1.92205
2.06208
2.18498
2.29473
2.39892
2.50723
2.62907
2.77097
2.94118
3.13658
3.33459
3.50927
3.64253
3.7323
3.79376
3.85322
3.93733
4.06288
4.22429
4.40679
4.60311
4.80826
5.0203
5.24114
5.47589
5.73107
6.01224
6.32186
6.65723
7.01182
7.37802
7.74776
8.11349
8.46681
8.79601
9.09182
9.35196
9.56382
9.70075
9.73305
9.63727
9.39999
9.01935
8.50955
7.90628
7.26963
6.64829
6.0607
5.50765
4.9929
4.52172
4.09743
3.72176
3.39511
3.11883
2.89773
2.73371
2.61482
2.52318
2.44083
2.35407
2.25695
2.15262
2.05192
1.96936
1.91802
1.89988
1.91951
1.9696
2.03142
2.08408
2.11053
2.10199
2.05935
1.99171
1.91295
1.83762
1.77589
1.7309
1.70255
1.68962
1.69064
1.70275
1.72082
1.73802
1.74804
1.74635
1.73106
1.70328
1.66673
1.62673
1.58896
1.55834
1.53733
1.52667
1.52682
1.53816
1.56074
1.59481
1.64054
1.69689
1.75986
1.82114
1.86872
1.88985
1.87374
1.81421
1.71192
1.57505
1.41842
1.26072
1.12069
1.01073
0.932091
0.898762
0.961701
1.20491
1.5798
1.97308
2.23909
2.25068
1.97419
1.50305
1.01915
0.710733
0.700018
0.835911
1.01722
1.2515
1.5279
1.80128
2.0203
2.13427
2.10657
1.93459
1.66145
1.36644
1.13242
1.00321
0.929036
0.867362
0.803156
0.727691
0.638147
0.537772
0.433958
0.334898
0.24601
0.167235
0.093042
0.0136039
-0.0824441
-0.204799
-0.358796
-0.543904
-0.753642
-0.976796
-0.91136
0
2.08201
5.32174
9.24261
12.976
15.5367
16.1904
14.751
11.659
7.79356
4.10772
1.2735
-0.489076
-1.33987
-1.5362
-1.42043
-1.30557
-1.19872
-1.10551
-1.02917
-0.969865
-0.924344
-0.886366
-0.847811
-0.800412
-0.737708
-0.657603
-0.561695
-0.453078
-0.340068
-0.231946
-0.13651
-0.0581295
0.003158
0.0513472
0.0932388
0.136801
0.189249
0.254874
0.336612
0.436731
0.556211
0.694971
0.852273
1.02699
1.21803
1.42462
1.64632
1.88283
2.13371
2.398
2.67405
2.95944
3.25121
3.54634
3.84031
4.12231
4.37748
4.58776
4.73479
4.80525
4.79456
4.70561
4.5433
4.30836
3.9948
3.61242
3.17437
2.69064
2.17167
1.63122
1.08545
0.551526
0.0470731
-0.406219
-0.775654
-1.04424
-1.22638
-1.34849
-1.44021
-1.52613
-1.6208
-1.72812
-1.84408
-1.9605
-2.06922
-2.16581
-2.24299
-2.29517
-2.31813
-2.30998
-2.27214
-2.20983
-2.13159
-2.0484
-1.97153
-1.91037
-1.87072
-1.85398
-1.85736
-1.87495
-1.89923
-1.92252
-1.93855
-1.9434
-1.93464
-1.91042
-1.86898
-1.8075
-1.72228
-1.61474
-1.50032
-1.40254
-1.34556
-1.34692
-1.4115
-1.52879
-1.67481
-1.81817
-1.92812
-1.99105
-2.0126
-1.99833
-1.95025
-1.87367
-1.77119
-1.65336
-1.53877
-1.44493
-1.38452
-1.36245
-1.3747
-1.40975
-1.45217
-1.48711
-1.50503
-1.50607
-1.49265
-1.46623
-1.42829
-1.38032
-1.32333
-1.25755
-1.18262
-1.09795
-1.003
-0.897409
-0.782653
-0.661762
-0.538822
-0.419877
-0.31494
-0.234215
-0.186738
-0.178964
-0.212256
-0.280928
-0.372317
-0.469689
-0.557292
-0.625662
-0.679279
-0.726088
-0.773641
-0.830828
-0.90623
-1.00712
-1.15193
-1.36024
-1.6137
-1.85808
-2.03718
-2.11045
-2.06449
-1.91509
-1.69906
-1.45886
-1.22666
-1.03637
-0.853215
0
1.94729
5.02865
8.7658
12.271
14.5658
14.9578
13.3126
10.1001
6.20351
2.57644
-0.0980329
-1.59599
-2.12057
-2.06176
-1.94695
-1.82816
-1.70442
-1.57423
-1.43587
-1.28902
-1.13391
-0.971569
-0.804347
-0.635628
-0.469245
-0.309
-0.158076
-0.0184707
0.109293
0.226118
0.334002
0.435535
0.53341
0.630101
0.727749
0.828377
0.934084
1.04732
1.17099
1.30829
1.46239
1.63597
1.83084
2.04779
2.28633
2.54528
2.82328
3.11867
3.42945
3.75314
4.08666
4.42644
4.76836
5.10737
5.43496
5.73552
5.99303
6.19169
6.31199
6.33772
6.26507
6.1061
5.88295
5.61567
5.31176
4.97476
4.61131
4.22555
3.81895
3.39372
2.95485
2.51007
2.06929
1.64372
1.24475
0.88275
0.565943
0.300716
0.0931918
-0.052164
-0.139599
-0.186626
-0.212534
-0.234518
-0.264462
-0.307176
-0.360427
-0.416625
-0.465551
-0.497306
-0.507699
-0.497237
-0.467264
-0.419701
-0.356919
-0.283859
-0.209684
-0.144336
-0.0960513
-0.0696095
-0.0652639
-0.078775
-0.102669
-0.128392
-0.14872
-0.160675
-0.165392
-0.165085
-0.164012
-0.167865
-0.181841
-0.209162
-0.250012
-0.301227
-0.356903
-0.409837
-0.453396
-0.483245
-0.499249
-0.503343
-0.499505
-0.492385
-0.485896
-0.482179
-0.481224
-0.481114
-0.478728
-0.470689
-0.454534
-0.42879
-0.392754
-0.346722
-0.292019
-0.230749
-0.165545
-0.0990702
-0.0335038
0.0298824
0.0909761
0.150827
0.211395
0.275086
0.344284
0.421045
0.506882
0.601321
0.697154
0.779621
0.832018
0.84095
0.801664
0.721204
0.617451
0.513755
0.431162
0.381054
0.355879
0.347668
0.351739
0.363629
0.380039
0.398823
0.418122
0.434797
0.442767
0.433071
0.395004
0.318425
0.196376
0.0271914
-0.184474
-0.427883
-0.68762
-0.761746
0
1.92098
5.03973
8.88969
12.6028
15.209
16.0073
14.8233
12.0432
8.43263
4.84308
1.932
0.00296736
-0.991962
-1.28822
-1.10897
-0.883293
-0.604383
-0.297501
-0.0158216
0.188454
0.31652
0.39201
0.434446
0.451856
0.451928
0.443992
0.43777
0.441791
0.461515
0.499507
0.555996
0.629871
0.718639
0.817805
0.923595
1.03418
1.15022
1.27463
1.41143
1.56425
1.73492
1.92208
2.12156
2.32862
2.5383
2.74625
2.94963
3.14757
3.34132
3.53384
3.72925
3.9321
4.1466
4.37837
4.63926
4.9462
5.29728
5.64831
5.94461
6.14637
6.23337
6.19832
6.03462
5.73064
5.28037
4.70858
4.09228
3.52955
3.0606
2.65993
2.29767
1.96584
1.65727
1.36465
1.08252
0.808712
0.545012
0.297211
0.0732043
-0.118559
-0.270982
-0.372572
-0.397619
-0.308436
-0.117093
0.0976825
0.25714
0.299659
0.199752
-0.0186274
-0.285985
-0.511321
-0.616979
-0.596442
-0.512057
-0.398814
-0.270903
-0.13875
-0.0148228
0.0899504
0.167865
0.215294
0.232888
0.225013
0.198543
0.161304
0.120597
0.0821526
0.0492584
0.0237926
0.00728912
0.000814629
0.00494308
0.0194643
0.044355
0.0773018
0.111065
0.137025
0.147578
0.138658
0.111358
0.0720049
0.0306026
-0.00177975
-0.0157755
-0.00954342
0.015316
0.0568457
0.112263
0.177805
0.249296
0.322684
0.394402
0.461543
0.521655
0.573051
0.615513
0.650161
0.679622
0.708007
0.740539
0.782788
0.84238
0.930939
1.05413
1.19344
1.31495
1.38438
1.37852
1.29228
1.13984
0.949728
0.755827
0.587864
0.457015
0.356451
0.278194
0.217741
0.172004
0.137586
0.110587
0.0869663
0.0627956
0.0346279
0
-0.0422813
-0.0920032
-0.147626
-0.206607
-0.272584
0.250196
1.67601
4.1024
7.28593
10.6468
13.3988
14.7873
14.3746
12.2488
9.0254
5.60027
2.76785
0.919753
-0.00937767
-0.352395
-0.314828
-0.264987
-0.205516
-0.134509
-0.0515419
0.0425968
0.145606
0.253808
0.362857
0.467769
0.56231
0.640648
0.698636
0.735253
0.753446
0.759953
0.764063
0.775641
0.803056
0.85018
0.916619
1.00062
1.10015
1.2128
1.33614
1.46823
1.60782
1.7546
1.90921
2.07326
2.24916
2.43982
2.64807
2.87607
3.12466
3.3929
3.67811
3.97611
4.28213
4.59125
4.89801
5.19503
5.47241
5.72002
5.92335
6.05386
6.07738
5.96743
5.71524
5.3317
4.84232
4.28049
3.68655
3.0959
2.52195
1.96981
1.44678
0.960299
0.516155
0.118222
-0.231674
-0.533691
-0.789792
-1.00321
-1.17679
-1.31439
-1.42076
-1.50066
-1.55896
-1.60037
-1.63021
-1.6537
-1.67551
-1.69926
-1.72719
-1.76011
-1.79767
-1.83884
-1.88243
-1.92751
-1.97368
-2.02095
-2.06953
-2.11953
-2.17079
-2.22273
-2.27443
-2.32478
-2.37274
-2.41755
-2.45884
-2.49662
-2.53135
-2.56356
-2.59357
-2.62124
-2.64591
-2.66647
-2.68168
-2.69061
-2.69295
-2.6894
-2.68136
-2.67089
-2.66043
-2.65256
-2.64973
-2.6535
-2.66445
-2.68201
-2.70468
-2.73044
-2.75739
-2.78457
-2.81284
-2.84548
-2.88708
-2.94144
-3.00935
-3.08738
-3.1681
-3.24177
-3.29872
-3.33381
-3.34799
-3.34072
-3.31305
-3.26736
-3.20728
-3.13619
-3.05713
-2.97282
-2.88576
-2.79906
-2.71821
-2.65182
-2.61019
34
209
384
558
738
924
1111
1290
1462
1632
1806
1987
2172
2355
2539
2718
2897
3078
3258
3433
3604
2422
2574
2598
2737
2770
2890
3055
3132
3215
3245
3309
3365
3526
3581
3685
2754
2816
2921
3033
3084
3248
3339
3410
3487
3576
3208
3249
3298
3415
3467
3538
3575
3635
3526
3597
3691
0
0
0
0
0
0
0
0
0
0
0
0
0
0
0
0
0
0
0
0
0
0
0
0
0
0
0
0
0
0
0
0
0
0
0
0
0
0
0
0
0
0
0
0
0
0
0
0
0
0
0
0
0
0
0
0
0
0
0
0
0
0
0
0
0
0
0
0
0
0
0
0
0
0
0
0
0
0
0
0
0
0
0
0
0
0
0
0
0
0
0
0
0
0
0
0
0
0
0
0
0
0
0
0
0
0
0
0
0
0
0
0
0
0
0
0
0
0
0
0
0
0
0
0
0
0
0
0
0
0
0
0
0
0
0
0
0
0
0
0
0
0
0
0
0
0
0
0
0
0
0
0
0
0
0
0
0
0
0
0
0
0
0
0
0
0
0
0
0
0
0
0
0
0
0
0
0
0
0
0
0
0
0
0
0
0
0
0
0
0
0
0
0
0
0
0
0
0
0
0
0
0
0
0
0
0
0
0
0
0
0
0
0
0
0
0
0
0
0
0
0
0
0
0
0
0
0
0
0
0
0
0
0
0
0
0
0
0
0
0
0
0
0
0
0
0
0
0
0
0
0
0
0
0
0
0
0
0
0
0
0
0
0
0
0
0
0
0
0
0
0
0
0
0
0
0
0
0
0
0
0
0
0
0
0
0
0
0
0
0
0
0
0
0
0
0
0
0
0
0
0
0
0
0
0
0
0
0
0
0
0
0
0
0
0
0
0
0
0
0
0
0
0
0
0
0
0
0
0
0
0
0
0
0
0
0
0
0
0
0
0
0
0
0
0
0
0
0
0
0
0
0
0
0
0
0
0
0
0
0
0
0
0
0
0
0
0
0
0
0
0
0
0
0
0
0
0
0
0
0
0
0
0
0
0
0
0
0
0
0
0
0
0
0
0
0
0
0
0
0
0
0
0
0
0
0
0
0
0
0
0
0
0
0
0
0
0
0
0
0
0
0
0
0
0
0
0
0
0
0
0
0
0
0
0
0
0
0
0
0
0
0
0
0
0
0
0
0
0
0
0
0
0
0
0
0
0
0
0
0
0
0
0
0
0
0
0
0
0
0
0
0
0
0
0
0
0
0
0
0
0
0
0
0
0
0
0
0
0
0
0
0
0
0
0
0
0
0
0
0
0
0
0
0
0
0
0
0
0
0
0
0
0
0
0
0
0
0
0
0
0
0
0
0
0
0
0
0
0
0
0
0
0
0
0
0
0
0
0
0
0
0
0
0
0
0
0
0
0
0
0
0
0
0
0
0
0
0
0
0
0
0
0
0
0
0
0
0
0
0
0
0
0
0
0
0
0
0
0
0
0
0
0
0
0
0
0
0
0
0
0
0
0
0
0
0
0
0
0
0
0
0
0
0
0
0
0
0
0
0
0
0
0
0
0
0
0
0
0
0
0
0
0
0
0
0
0
0
0
0
0
0
0
0
0
0
0
0
0
0
0
0
0
0
0
0
0
0
0
0
0
0
0
0
0
0
0
0
0
0
0
0
0
0
0
0
0
0
0
0
0
0
0
0
0
0
0
0
0
0
0
0
0
0
0
0
0
0
0
0
0
0
0
0
0
0
0
0
0
0
0
0
0
0
0
0
0
0
0
0
0
0
0
0
0
0
0
0
0
0
0
0
0
0
0
0
0
0
0
0
0
0
0
0
0
0
0
0
0
0
0
0
0
0
0
0
0
0
0
0
0
0
0
0
0
0
0
0
0
0
0
0
0
0
0
0
0
0
0
0
0
0
0
0
0
0
0
0
0
0
0
0
0
0
0
0
0
0
0
0
0
0
0
0
0
0
0
0
0
0
0
0
0
0
0
0
0
0
0
0
0
0
0
0
0
0
0
0
0
0
0
0
0
0
0
0
0
0
0
0
0
0
0
0
0
0
0
0
0
0
0
0
0
0
0
0
0
0
0
0
0
0
0
0
0
0
0
0
0
0
0
0
0
0
0
0
0
0
0
0
0
0
0
0
0
0
0
0
0
0
0
0
0
0
0
0
0
0
0
0
0
0
0
0
0
0
0
0
0
0
0
0
0
0
0
0
0
0
0
0
0
0
0
0
0
0
0
0
0
0
0
0
0
0
0
0
0
0
0
0
0
0
0
0
0
0
0
0
0
0
0
0
0
0
0
0
0
0
0
0
0
0
0
0
0
0
0
0
0
0
0
0
0
0
0
0
0
0
0
0
0
0
0
0
0
0
0
0
0
0
0
0
0
0
0
0
0
0
0
0
0
0
0
0
0
0
0
0
0
0
0
0
0
0
0
0
0
0
0
0
0
0
0
0
0
0
0
0
0
0
0
0
0
0
0
0
0
0
0
0
0
0
0
0
0
0
0
0
0
0
0
0
0
0
0
0
0
0
0
0
0
0
0
0
0
0
0
0
0
0
0
0
0
0
0
0
0
0
0
0
0
0
0
0
0
0
0
0
0
0
0
0
0
0
0
0
0
0
0
0
0
0
0
0
0
0
0
0
0
0
0
0
0
0
0
0
0
0
0
0
0
0
0
0
0
0
0
0
0
0
0
0
0
0
0
0
0
0
0
0
0
0
0
0
0
0
0
0
0
0
0
0
0
0
0
0
0
0
0
0
0
0
0
0
0
0
0
0
0
0
0
0
0
0
0
0
0
0
0
0
0
0
0
0
0
0
0
0
0
0
0
0
0
0
0
0
0
0
0
0
0
0
0
0
0
0
0
0
0
0
0
0
0
0
0
0
0
0
0
0
0
0
0
0
0
0
0
0
0
0
0
0
0
0
0
0
0
0
0
0
0
0
0
0
0
0
0
0
0
0
0
0
0
0
0
0
0
0
0
0
0
0
0
0
0
0
0
0
0
0
0
0
0
0
0
0
0
0
0
0
0
0
0
0
0
0
0
0
0
0
0
0
0
0
0
0
0
0
0
0
0
0
0
0
0
0
0
0
0
0
0
0
0
0
0
0
0
0
0
0
0
0
0
0
0
0
0
0
0
0
0
0
0
0
0
0
0
0
0
0
0
0
0
0
0
0
0
0
0
0
0
0
0
0
0
0
0
0
0
0
0
0
0
0
0
0
0
0
0
0
0
0
0
0
0
0
0
0
0
0
0
0
0
0
0
0
0
0
0
0
0
0
0
0
0
0
0
0
0
0
0
0
0
0
0
0
0
0
0
0
0
0
0
0
0
0
0
0
0
0
0
0
0
0
0
0
0
0
0
0
0
0
0
0
0
0
0
0
0
0
0
0
0
0
0
0
0
0
0
0
0
0
0
0
0
0
0
0
0
0
0
0
0
0
0
0
0
0
0
0
0
0
0
0
0
0
0
0
0
0
0
0
0
0
0
0
0
0
0
0
0
0
0
0
0
0
0
0
0
0
0
0
0
0
0
0
0
0
0
0
0
0
0
0
0
0
0
0
0
0
0
0
0
0
0
0
0
0
0
0
0
0
0
0
0
0
0
0
0
0
0
0
0
0
0
0
0
0
0
0
0
0
0
0
0
0
0
0
0
0
0
0
0
0
0
0
0
0
0
0
0
0
0
0
0
0
0
0
0
0
0
0
0
0
0
0
0
0
0
0
0
0
0
0
0
0
0
0
0
0
0
0
0
0
0
0
0
0
0
0
0
0
0
0
0
0
0
0
0
0
0
0
0
0
0
0
0
0
0
0
0
0
0
0
0
0
0
0
0
0
0
0
0
0
0
0
0
0
0
0
0
0
0
0
0
0
0
0
0
0
0
0
0
0
0
0
0
0
0
0
0
0
0
0
0
0
0
0
0
0
0
0
0
0
0
0
0
0
0
0
0
0
0
0
0
0
0
0
0
0
0
0
0
0
0
0
0
0
0
0
0
0
0
0
0
0
0
0
0
0
0
0
0
0
0
0
0
0
0
0
0
0
0
0
0
0
0
0
0
0
0
0
0
0
0
0
0
0
0
0
0
0
0
0
0
0
0
0
0
0
0
0
0
0
0
0
0
0
0
0
0
0
0
0
0
0
0
0
0
0
0
0
0
0
0
0
0
0
0
0
0
0
0
0
0
0
0
0
0
0
0
0
0
0
0
0
0
0
0
0
0
0
0
0
0
0
0
0
0
0
0
0
0
0
0
0
0
0
0
0
0
0
0
0
0
0
0
0
0
0
0
0
0
0
0
0
0
0
0
0
0
0
0
0
0
0
0
0
0
0
0
0
0
0
0
0
0
0
0
0
0
0
0
0
0
0
0
0
0
0
0
0
0
0
0
0
0
0
0
0
0
0
0
0
0
0
0
0
0
0
0
0
0
0
0
0
0
0
0
0
0
0
0
0
0
0
0
0
0
0
0
0
0
0
0
0
0
0
0
0
0
0
0
0
0
0
0
0
0
0
0
0
0
0
0
0
0
0
0
0
0
0
0
0
0
0
0
0
0
0
0
0
0
0
0
0
0
0
0
0
0
0
0
0
0
0
0
0
0
0
0
0
0
0
0
0
0
0
0
0
0
0
0
0
0
0
0
0
0
0
0
0
0
0
0
0
0
0
0
0
0
0
0
0
0
0
0
0
0
0
0
0
0
0
0
0
0
0
0
0
0
0
0
0
0
0
0
0
0
0
0
0
0
0
0
0
0
0
0
0
0
0
0
0
0
0
0
0
0
0
0
0
0
0
0
0
0
0
0
0
0
0
0
0
0
0
0
0
0
0
0
0
0
0
0
0
0
0
0
0
0
0
0
0
0
0
0
0
0
0
0
0
0
0
0
0
0
0
0
0
0
0
0
0
0
0
0
0
0
0
0
0
0
0
0
0
0
0
0
0
0
0
0
0
0
0
0
0
0
0
0
0
0
0
0
0
0
0
0
0
0
0
0
0
0
0
0
0
0
0
0
0
0
0
0
0
0
0
0
0
0
0
0
0
0
0
0
0
0
0
0
0
0
0
0
0
0
0
0
0
0
0
0
0
0
0
0
0
0
0
0
0
0
0
0
0
0
0
0
0
0
0
0
0
0
0
0
0
0
0
0
0
0
0
0
0
0
0
0
0
0
0
0
0
0
0
0
0
0
0
0
0
0
0
0
0
0
0
0
0
0
0
0
0
0
0
0
0
0
0
0
0
0
0
0
0
0
0
0
0
0
0
0
0
0
0
0
0
0
0
0
0
0
0
0
0
0
0
0
0
0
0
0
0
0
0
0
0
0
0
0
0
0
0
0
0
0
0
0
0
0
0
0
0
0
0
0
0
0
0
0
0
0
0
0
0
0
0
0
0
0
0
0
0
0
0
0
0
0
0
0
0
0
0
0
0
0
0
0
0
0
0
0
0
0
0
0
0
0
0
0
0
0
0
0
0
0
0
0
0
0
0
0
0
0
0
0
0
0
0
0
0
0
0
0
0
0
0
0
0
0
0
0
0
0
0
0
0
0
0
0
0
0
0
0
0
0
0
0
0
0
0
0
0
0
0
0
0
0
0
0
0
0
0
0
0
0
0
0
0
0
0
0
0
0
0
0
0
0
0
0
0
0
0
0
0
0
0
0
0
0
0
0
0
0
0
0
0
0
0
0
0
0
0
0
0
0
0
0
0
0
0
0
0
0
0
0
0
0
0
0
0
0
0
0
0
0
0
0
0
0
0
0
0
0
0
0
0
0
0
0
0
0
0
0
0
0
0
0
0
0
0
0
0
0
0
0
0
0
0
0
0
0
0
0
0
0
0
0
0
0
0
0
0
0
0
0
0
0
0
0
0
0
0
0
0
0
0
0
0
0
0
0
0
0
0
0
0
0
0
0
0
0
0
0
0
0
0
0
0
0
0
0
0
0
0
0
0
0
0
0
0
0
0
0
0
0
0
0
0
0
0
0
0
0
0
0
0
0
0
0
0
0
0
0
0
0
0
0
0
0
0
0
0
0
0
0
0
0
0
0
0
0
0
0
0
0
0
0
0
0
0
0
0
0
0
0
0
0
0
0
0
0
0
0
0
0
0
0
0
0
0
0
0
0
0
0
0
0
0
0
0
0
0
0
0
0
0
0
0
0
0
0
0
0
0
0
0
0
0
0
0
0
0
0
0
0
0
0
0
0
0
0
0
0
0
0
0
0
0
0
0
0
0
0
0
0
0
0
0
0
0
0
0
0
0
0
0
0
0
0
0
0
0
0
0
0
0
0
0
0
0
0
0
0
0
0
0
0
0
0
0
0
0
0
0
0
0
0
0
0
0
0
0
0
0
0
0
0
0
0
0
0
0
0
0
0
0
0
0
0
0
0
0
0
0
0
0
0
0
0
0
0
0
0
0
0
0
0
0
0
0
0
0
0
0
0
0
0
0
0
0
0
0
0
0
0
0
0
0
0
0
0
0
0
0
0
0
0
0
0
0
0
0
0
0
0
0
0
0
0
0
0
0
0
0
0
0
0
0
0
0
0
0
0
0
0
0
0
0
0
0
0
0
0
0
0
0
0
0
0
0
0
0
0
0
0
0
0
0
0
0
0
0
0
0
0
0
0
0
0
0
0
0
0
0
0
0
0
0
0
0
0
0
0
0
0
0
0
0
0
0
0
0
0
0
0
0
0
0
0
0
0
0
0
0
0
0
0
0
0
0
0
0
0
0
0
0
0
0
0
0
0
0
0
0
0
0
0
0
0
0
0
0
0
0
0
0
0
0
0
0
0
0
0
0
0
0
0
0
0
0
0
0
0
0
0
0
0
0
0
0
0
0
0
0
0
0
0
0
0
0
0
0
0
0
0
0
0
0
0
0
0
0
0
0
0
0
0
0
0
0
0
0
0
0
0
0
0
0
0
0
0
0
0
0
0
0
0
0
0
0
0
0
0
0
0
0
0
0
0
0
0
0
0
0
0
0
0
0
0
0
0
0
0
0
0
0
0
0
0
0
0
0
0
0
0
0
0
0
0
0
0
0
0
0
0
0
0
0
0
0
0
0
0
0
0
0
0
0
0
0
0
0
0
0
0
0
0
0
0
0
0
0
0
0
0
0
0
0
0
0
0
0
0
0
0
0
0
0
0
0
0
0
0
0
0
0
0
0
0
0
0
0
0
0
0
0
0
0
0
0
0
0
0
0
0
0
0
0
0
0
0
0
0
0
0
0
0
0
0
0
0
0
0
0
0
0
0
0
0
0
0
0
0
0
0
0
0
0
0
0
0
0
0
0
0
0
0
0
0
0
0
0
0
0
0
0
0
0
0
0
0
0
0
0
0
0
0
0
0
0
0
0
0
0
0
0
0
0
0
0
0
0
0
0
0
0
0
0
0
0
0
0
0
0
0
0
0
0
0
0
0
0
0
0
0
0
0
0
0
0
0
0
0
0
0
0
0
0
0
0
0
0
0
0
0
0
0
0
0
0
0
0
0
0
0
0
0
0
0
0
0
0
0
0
0
0
0
0
0
0
0
0
0
0
0
0
0
0
0
0
0
0
0
0
0
0
0
0
0
0
0
0
0
0
0
0
0
0
0
0
0
0
0
0
0
0
0
0
0
0
0
0
0
0
0
0
0
0
0
0
0
0
0
0
0
0
0
0
0
0
0
0
0
0
0
0
0
0
0
0
0
0
0
0
0
0
0
0
0
0
0
0
0
0
0
0
0
0
0
0
0
0
0
0
0
0
0
0
0
0
0
0
0
0
0
0
0
0
0
0
0
0
0
0
0
0
0
0
0
0
0
0
0
0
0
0
0
0
0
0
0
0
0
0
0
0
0
0
0
0
0
0
0
0
0
0
0
0
0
0
0
0
0
0
0
0
0
0
0
0
0
0
0
0
0
0
0
0
0
0
0
0
0
0
0
0
0
0
0
0
0
0
0
0
0
0
0
0
0
0
0
0
0
0
0
0
0
0
0
0
0
0
0
0
0
0
0
0
0
0
0
0
0
0
0
0
0
0
0
0
0
0
0
0
0
0
0
0
0
0
0
0
0
0
0
0
0
0
0
0
0
0
0
0
0
0
0
0
0
0
0
0
0
0
0
0
0
0
0
0
0
0
0
0
0
0
0
0
0
0
0
0
0
0
0
0
0
0
0
0
0
0
0
0
0
0
0
0
0
0
0
0
0
0
0
0
0
0
0
0
0
0
0
0
0
0
0
0
0
0
0
0
0
0
0
0
0
0
0
0
0
0
0
0
0
0
0
0
0
0
0
0
0
0
0
0
0
0
0
0
0
0
0
0
0
0
0
0
0
0
0
0
0
0
0
0
0
0
0
0
0
0
0
0
0
0
0
0
0
0
0
0
0
0
0
0
0
0
0
0
0
0
0
0
0
0
0
0
0
0
0
0
0
0
0
0
0
0
0
0
0
0
0
0
0
0
0
0
0
0
0
0
0
0
0
0
0
0
0
0
0
0
0
0
