-3.05129
-2.8613
-2.65956
-2.44419
-2.21442
-1.97064
-1.71414
-1.44664
-1.16973
-0.884371
-0.590771
-0.288483
0.0231537
0.344482
0.675054
1.01336
1.35681
1.70186
2.04395
2.37465
2.6798
2.94699
3.16489
3.32434
3.42017
3.45161
3.42102
3.33184
3.187
2.98923
2.74944
2.47931
2.18929
1.88954
1.58975
1.29741
1.01791
0.755959
0.514912
0.297052
0.103902
-0.0633919
-0.204152
-0.317795
-0.403726
-0.463172
-0.499554
-0.517497
-0.522276
-0.519966
-0.516946
-0.517701
-0.523665
-0.5327
-0.539314
-0.535762
-0.513894
-0.467341
-0.393388
-0.296414
-0.182776
-0.0588585
0.0686554
0.194324
0.314974
0.429715
0.539659
0.647089
0.754395
0.863076
0.97319
1.08274
1.18759
1.283
1.36531
1.43332
1.48907
1.53753
1.58548
1.63965
1.7049
1.7821
1.8687
1.9607
2.051
2.13178
2.19665
2.24219
2.26874
2.28035
2.28389
2.28769
2.30002
2.32695
2.37085
2.43217
2.5106
2.6048
2.71266
2.83193
2.96077
3.09825
3.24444
3.40028
3.56695
3.74522
3.9347
4.1333
4.33726
4.5408
4.73647
4.91645
5.07333
5.20083
5.2956
5.35728
5.38781
5.39119
5.373
5.34003
5.29973
5.25954
5.226
5.20338
5.19291
5.1943
5.20657
5.22564
5.24577
5.26097
5.26599
5.25699
5.23182
5.1898
5.13134
5.05755
4.96962
4.86914
4.75926
4.64403
4.52822
5.04889
6.42651
8.39061
10.3321
11.641
12.1184
12.0545
11.8997
11.8324
11.6186
10.8699
9.44081
7.61275
5.93604
4.89104
4.8749
4.97626
5.08898
5.20074
5.30162
5.38688
5.46134
5.53026
5.59717
5.66523
5.73697
5.81383
5.89624
5.98357
6.07401
6.16573
6.25762
6.34967
6.44301
6.53928
6.63991
6.74538
6.85478
6.96625
7.07795
7.18863
7.29835
7.40894
7.5239
7.64796
7.7862
7.94315
8.1219
8.32333
8.54603
8.78659
9.03974
9.29874
9.55589
9.80225
10.03
10.2334
10.4092
10.5571
10.6786
10.7723
10.8312
10.851
10.8218
10.7305
10.5651
10.3202
9.99937
9.6156
9.18897
8.74362
8.30077
7.87203
7.46712
7.0929
6.75308
6.44837
6.17694
5.93531
5.7193
5.52497
5.34918
5.18988
5.04603
4.9174
4.80334
4.70285
4.61455
4.53688
4.46835
4.40775
4.35421
4.3071
4.26583
4.22956
4.19746
4.16869
4.14255
4.11875
4.09751
4.07952
4.06572
4.05695
4.05374
4.0559
4.0615
4.06665
4.06671
4.05748
4.03632
4.00292
3.95938
3.90958
3.85809
3.80896
3.7644
3.72504
3.69091
3.66145
3.63592
3.61369
3.59416
3.57662
3.55989
3.54164
3.51875
3.48797
3.44691
3.39491
3.33347
3.26602
3.19711
3.13129
3.07164
3.01936
2.97511
2.93875
2.90963
2.88693
2.86994
2.85817
2.85153
2.8501
2.85426
2.86463
2.88206
2.90732
2.94126
2.98489
3.03711
3.09173
3.13825
3.16436
3.15855
3.11289
3.02506
2.89931
2.74589
2.57916
2.41452
2.26287
2.12846
2.01255
1.91585
1.83438
1.76207
1.69224
1.61905
1.53859
1.44905
1.35064
1.24434
1.12951
0.999593
0.827122
0.59525
0.309437
0
0.013633
0.821703
2.6114
5.21508
8.05162
10.4284
11.9366
12.564
12.4354
11.525
9.70471
7.07873
4.1815
1.74936
0.257491
-0.323927
-0.201781
-0.0721825
0.0669739
0.214839
0.367117
0.518081
0.66393
0.803928
0.939108
1.07098
1.20056
1.3275
1.44888
1.5585
1.64802
1.70982
1.74078
1.74515
1.73502
1.72788
1.742
1.79133
1.87403
1.98247
2.11321
2.2612
2.42118
2.58856
2.76112
2.93888
3.12359
3.31819
3.5259
3.7493
3.98937
4.24493
4.51236
4.78614
5.05832
5.31897
5.55793
5.7664
5.93794
6.06842
6.15544
6.19755
6.19344
6.14127
6.03854
5.88232
5.67004
5.40178
5.08196
4.71889
4.32272
3.90452
3.47668
3.05258
2.64525
2.26605
1.9236
1.62312
1.36633
1.15168
0.975056
0.830741
0.712308
0.613431
0.528499
0.453008
0.383723
0.318821
0.257903
0.202104
0.154192
0.117474
0.0954216
0.0907684
0.104682
0.13624
0.182359
0.238165
0.297675
0.35457
0.4031
0.438191
0.455689
0.452971
0.429202
0.385751
0.326517
0.257942
0.188509
0.127682
0.0887276
0.0930122
0.151625
0.245454
0.343112
0.412124
0.429223
0.385984
0.288849
0.15509
0.00717697
-0.132906
-0.253355
-0.351643
-0.427792
-0.481199
-0.511274
-0.518075
-0.503805
-0.474201
-0.43623
-0.396441
-0.359808
-0.328989
-0.304139
-0.28334
-0.26344
-0.241032
-0.213552
-0.179657
-0.138621
-0.0898537
-0.0327675
0.0334442
0.109915
0.198515
0.303156
0.43096
0.587909
0.763889
0.93216
1.06165
1.12643
1.11412
1.03026
0.897391
0.749026
0.619985
0.530489
0.475242
0.442807
0.427263
0.423684
0.425693
0.427354
0.424189
0.413698
0.395252
0.369435
0.337148
0.298866
0.254465
0.201938
0.140705
0.0722244
0
-0.0101524
0.625644
2.12499
4.56784
7.81101
11.4127
14.6275
16.5862
16.6456
14.7302
11.4187
7.68673
4.45793
2.24654
1.08305
0.69434
0.831309
0.987992
1.14474
1.29858
1.44735
1.59006
1.72761
1.86085
1.99014
2.11538
2.23626
2.3524
2.46373
2.57071
2.67453
2.77737
2.88227
2.99294
3.11327
3.24682
3.39616
3.56233
3.74449
3.93988
4.14424
4.35282
4.56122
4.7663
4.96693
5.16431
5.36183
5.56442
5.77758
6.00624
6.25375
6.52111
6.80662
7.10664
7.41548
7.72393
8.01893
8.28492
8.50845
8.68106
8.79728
8.85399
8.84983
8.78467
8.6589
8.47296
8.22728
7.92688
7.58335
7.20856
6.81144
6.39887
5.97757
5.55453
5.13647
4.72951
4.33896
3.96944
3.62502
3.30944
3.02613
2.778
2.56705
2.39451
2.26094
2.16409
2.09808
2.05567
2.02925
2.01198
1.99856
1.9857
1.97201
1.95766
1.94373
1.93147
1.92193
1.91577
1.91319
1.914
1.91768
1.92366
1.93149
1.94096
1.95208
1.96474
1.97868
1.99244
2.00305
2.00693
2.00124
1.98513
1.96037
1.93096
1.90173
1.87656
1.85655
1.8404
1.82566
1.80887
1.78642
1.7554
1.71434
1.66378
1.60681
1.54738
1.49041
1.44095
1.40415
1.3841
1.38113
1.39071
1.40601
1.42
1.4275
1.42669
1.41942
1.4105
1.40611
1.41197
1.43081
1.46237
1.50516
1.5575
1.61706
1.68132
1.74784
1.81432
1.87818
1.93595
1.98366
2.01674
2.03052
2.02095
1.98545
1.92359
1.83741
1.73143
1.61242
1.4889
1.36854
1.25808
1.16331
1.0884
1.03576
1.0063
0.998146
1.00269
1.00644
0.994768
0.954197
0.865581
0.67051
0.364615
-0.0118479
-0.413516
-0.534314
0
1.4313
3.93705
7.4137
11.3516
14.8925
17.0999
17.3268
15.4945
12.1266
8.12754
4.42779
1.67347
0.0834627
-0.501956
-0.435361
-0.133139
0.157887
0.422245
0.644281
0.815368
0.952658
1.06872
1.16877
1.25947
1.34775
1.43915
1.53655
1.63962
1.74574
1.85127
1.95311
2.04997
2.14274
2.23409
2.32751
2.4264
2.53326
2.65015
2.77958
2.92449
3.08819
3.27372
3.48302
3.71613
3.97037
4.24113
4.52488
4.819
5.12222
5.43471
5.75757
6.09182
6.43729
6.79368
7.1551
7.50621
7.82557
8.09159
8.28989
8.41302
8.45924
8.43033
8.32961
8.1606
7.92629
7.62891
7.27149
6.86463
6.42358
5.96142
5.4878
5.01243
4.54625
4.10045
3.68536
3.30942
2.97838
2.69489
2.45861
2.26695
2.11527
1.99733
1.90644
1.83606
1.78015
1.73331
1.69103
1.64915
1.6043
1.55452
1.49969
1.44188
1.38529
1.33558
1.2987
1.28028
1.28719
1.31964
1.36875
1.42172
1.46501
1.48738
1.48193
1.44697
1.38584
1.30609
1.21818
1.13301
1.05891
1.00064
0.960886
0.939282
0.928846
0.920233
0.904595
0.87619
0.833866
0.780909
0.723462
0.668172
0.619665
0.578684
0.544254
0.515174
0.489779
0.466593
0.444876
0.424945
0.408267
0.397243
0.395204
0.405464
0.430887
0.47332
0.533192
0.609396
0.699459
0.799945
0.9069
1.0162
1.12314
1.21968
1.29654
1.34381
1.35218
1.31576
1.23472
1.11614
0.972503
0.818502
0.66758
0.526754
0.397706
0.282539
0.183215
0.101059
0.0369942
-0.00861702
-0.0367123
-0.0498013
-0.0516994
-0.0476437
-0.0454426
-0.0556946
-0.0894428
-0.156854
-0.265576
-0.441009
-0.677651
-0.960182
-1.32561
-1.12896
0
2.20188
5.3158
8.8582
12.0859
14.1911
14.5799
13.1178
10.2058
6.62447
3.22202
0.611228
-0.977579
-1.65049
-1.66918
-1.39799
-1.11692
-0.862923
-0.650492
-0.453226
-0.254963
-0.0667564
0.103749
0.251512
0.374581
0.473747
0.553044
0.6202
0.684762
0.755651
0.839002
0.935349
1.04216
1.15685
1.27692
1.40045
1.52661
1.65588
1.78973
1.93021
2.07936
2.23886
2.40995
2.59355
2.79058
3.00196
3.22846
3.47028
3.72642
3.99425
4.2693
4.54549
4.81576
5.07282
5.30977
5.52037
5.69904
5.84086
5.94165
5.9986
6.00841
5.96713
5.8709
5.71707
5.5055
5.2395
4.92617
4.57601
4.20319
3.82111
3.43978
3.06683
2.70752
2.36461
2.03896
1.73039
1.43879
1.16502
0.911462
0.682561
0.48298
0.317066
0.188557
0.102087
0.0577679
0.0486069
0.0623859
0.0854134
0.105446
0.113732
0.106229
0.0838943
0.0520721
0.0191238
-0.00549431
-0.013699
-0.001511
0.030125
0.0818295
0.148833
0.219835
0.282756
0.327756
0.349563
0.34849
0.329898
0.302385
0.275351
0.25657
0.249018
0.25252
0.26611
0.288329
0.317014
0.349425
0.382362
0.41258
0.437341
0.454805
0.46432
0.466543
0.463317
0.457269
0.451216
0.447523
0.447481
0.451523
0.458954
0.468615
0.47962
0.492048
0.507336
0.528238
0.5583
0.601002
0.658762
0.73297
0.824477
0.928873
1.03414
1.12538
1.18944
1.21815
1.21022
1.17126
1.11182
1.04401
0.97792
0.918412
0.864732
0.814338
0.764783
0.71366
0.658902
0.599137
0.533839
0.463186
0.387498
0.308173
0.226481
0.14269
0.0555527
-0.0383057
-0.149746
-0.287104
-0.450089
-0.628746
-0.696561
0
1.7309
4.51713
8.06061
11.7501
14.7586
16.27
15.7948
13.4211
9.82705
6.00011
2.80989
0.69055
-0.39753
-0.762165
-0.52146
-0.283815
-0.0561413
0.149504
0.318966
0.444389
0.535398
0.596375
0.637141
0.670969
0.711547
0.76985
0.849326
0.947548
1.06069
1.18468
1.31507
1.44736
1.57764
1.70283
1.82096
1.93165
2.03601
2.13656
2.237
2.34177
2.45542
2.58198
2.72435
2.88371
3.05988
3.25231
3.46024
3.68298
3.9201
4.17125
4.43569
4.7117
4.99708
5.28739
5.57197
5.83821
6.07468
6.27319
6.42425
6.51445
6.54106
6.49747
6.37335
6.15909
5.85202
5.46095
5.00619
4.51516
4.01629
3.52597
3.05001
2.59428
2.16267
1.75752
1.38008
1.03093
0.710398
0.418668
0.155863
-0.0780674
-0.283462
-0.461051
-0.611995
-0.737855
-0.840546
-0.922292
-0.985509
-1.03249
-1.06579
-1.08902
-1.10608
-1.12038
-1.13433
-1.14917
-1.16505
-1.18156
-1.19847
-1.21637
-1.23708
-1.26312
-1.29655
-1.33767
-1.38411
-1.43083
-1.47121
-1.4988
-1.50911
-1.50249
-1.48098
-1.44929
-1.41373
-1.38126
-1.35799
-1.3482
-1.35368
-1.37364
-1.40493
-1.44266
-1.48101
-1.51417
-1.53768
-1.54908
-1.54756
-1.53324
-1.50691
-1.47079
-1.42994
-1.39
-1.35499
-1.32591
-1.30021
-1.27237
-1.23548
-1.18334
-1.11234
-1.0243
-0.924012
-0.815665
-0.703221
-0.590585
-0.481724
-0.380944
-0.292195
-0.218803
-0.163898
-0.13015
-0.119288
-0.131585
-0.165498
-0.217589
-0.282783
-0.354818
-0.427594
-0.496235
-0.557625
-0.610601
-0.655755
-0.695288
-0.73247
-0.77103
-0.814687
-0.86689
-0.930745
-1.00899
-1.10469
-1.22879
-1.38312
-1.56404
-1.76456
-1.97529
-1.38912
0
2.19224
5.09036
8.44643
11.7944
14.4461
15.6623
14.9722
12.4499
8.74177
4.80067
1.48191
-0.749914
-1.86033
-2.08123
-1.57992
-1.09446
-0.67141
-0.377465
-0.255993
-0.210388
-0.205024
-0.211435
-0.202295
-0.158292
-0.0793003
0.0228725
0.140855
0.269318
0.402832
0.53635
0.66577
0.788284
0.902558
1.00878
1.10855
1.20474
1.30112
1.40204
1.51192
1.63489
1.77436
1.93283
2.11171
2.31143
2.53162
2.77131
3.02922
3.30377
3.59297
3.89413
4.20341
4.51552
4.82307
5.11495
5.38063
5.61181
5.80443
5.95935
6.08132
6.16599
6.20941
6.20308
6.1254
5.95115
5.66418
5.26644
4.77869
4.23388
3.66813
3.10988
2.56889
2.05575
1.57902
1.14503
0.759614
0.42599
0.139835
-0.106069
-0.320136
-0.510097
-0.681518
-0.837169
-0.977406
-1.10134
-1.20891
-1.30061
-1.37856
-1.44714
-1.51135
-1.57537
-1.6413
-1.70843
-1.77271
-1.82784
-1.86727
-1.88619
-1.88305
-1.86004
-1.82236
-1.77677
-1.7297
-1.68542
-1.64567
-1.61087
-1.58045
-1.55405
-1.53209
-1.51571
-1.50709
-1.50814
-1.51896
-1.53698
-1.55734
-1.57435
-1.58349
-1.58279
-1.57472
-1.56123
-1.54458
-1.52647
-1.50768
-1.48805
-1.46686
-1.44325
-1.4167
-1.38671
-1.35281
-1.31461
-1.27179
-1.22423
-1.17202
-1.11556
-1.0552
-0.991011
-0.922554
-0.848727
-0.767778
-0.677543
-0.575919
-0.461476
-0.334111
-0.194891
-0.0461819
0.103984
0.244199
0.363132
0.451966
0.50614
0.525863
0.515444
0.481841
0.433027
0.377201
0.320535
0.267002
0.219439
0.179963
0.150014
0.130609
0.122645
0.126848
0.143856
0.176786
0.229466
0.291323
0.336616
0.33367
0.255284
0.0899143
-0.151615
-0.437153
-0.634766
0
1.72262
4.54665
8.17835
12.0257
15.2825
17.1299
17.0196
14.9244
11.3992
7.38525
3.84177
1.39662
0.186992
-0.0584744
0.21009
0.432145
0.629817
0.793817
0.931032
1.06251
1.19645
1.3353
1.47922
1.62623
1.77227
1.91178
2.03928
2.15075
2.24462
2.3223
2.38784
2.44715
2.50678
2.57283
2.64969
2.73989
2.84487
2.96525
3.10104
3.25179
3.41676
3.59492
3.78499
3.98553
4.19522
4.4131
4.63885
4.8729
5.11626
5.37024
5.63593
5.91381
6.20346
6.50456
6.8175
7.13943
7.45598
7.74071
7.96541
8.10423
8.13953
8.06604
7.89125
7.63086
7.30094
6.91131
6.47552
6.01333
5.5399
5.06441
4.59402
4.13631
3.69873
3.28791
2.90903
2.56538
2.25831
1.98741
1.75166
1.55088
1.38417
1.24869
1.14199
1.06201
1.00671
0.973879
0.96082
0.964367
0.980979
1.00697
1.03859
1.07266
1.10665
1.13847
1.16649
1.18919
1.20501
1.21299
1.2127
1.20467
1.19058
1.17338
1.1569
1.14519
1.14169
1.1483
1.16495
1.18967
1.21893
1.24846
1.27415
1.29261
1.3016
1.29993
1.28733
1.26423
1.2321
1.19279
1.14889
1.10384
1.06168
1.02658
1.00224
0.991199
0.994415
1.01105
1.0387
1.07375
1.11171
1.14798
1.17867
1.20139
1.2157
1.22333
1.22807
1.23533
1.25127
1.28167
1.33291
1.41755
1.53453
1.65949
1.7619
1.8162
1.81101
1.75215
1.6583
1.55207
1.45131
1.36228
1.2822
1.20876
1.1409
1.07786
1.01913
0.964482
0.913885
0.867472
0.825361
0.787509
0.753544
0.722553
0.692821
0.661768
0.626016
0.581726
0.524908
0.447637
0.3467
0.226136
0.0945768
0
0.758611
2.68171
5.72444
9.4105
12.9486
15.4851
16.3987
15.519
13.1709
10.0238
6.82276
4.13461
2.2211
1.0626
0.474837
0.455644
0.470469
0.544148
0.687543
0.896796
1.155
1.4348
1.70287
1.93555
2.1258
2.26387
2.34848
2.38751
2.39647
2.39488
2.40173
2.43154
2.48623
2.56175
2.65536
2.76575
2.89171
3.03226
3.18691
3.35579
3.53949
3.73882
3.95443
4.18632
4.4335
4.69368
4.96327
5.23764
5.5117
5.78063
6.04073
6.29009
6.52902
6.75952
6.98491
7.21653
7.50025
7.88923
8.3156
8.68315
8.9042
8.93009
8.76961
8.47877
8.11955
7.71144
7.22891
6.70502
6.17363
5.64698
5.13103
4.63144
4.15408
3.70422
3.28657
2.90536
2.56423
2.26598
2.01212
1.80236
1.63416
1.50288
1.40351
1.32844
1.26504
1.2015
1.12909
1.04371
0.946637
0.843835
0.744113
0.656611
0.587778
0.541124
0.516484
0.510676
0.518716
0.534998
0.554056
0.570842
0.580583
0.579093
0.563197
0.531546
0.485428
0.429142
0.36954
0.314709
0.272077
0.249386
0.250783
0.26951
0.294133
0.312879
0.317861
0.307523
0.286495
0.263134
0.245969
0.239695
0.242743
0.25214
0.264959
0.277323
0.285388
0.28616
0.278019
0.260895
0.236103
0.205892
0.172872
0.139518
0.107821
0.0793335
0.0556137
0.0387737
0.0310276
0.0348961
0.0528786
0.0869163
0.13786
0.205132
0.286652
0.379006
0.477781
0.577901
0.673755
0.759389
0.829285
0.878669
0.903925
0.90299
0.87566
0.823743
0.750981
0.662727
0.56574
0.466396
0.369789
0.279889
0.199509
0.129702
0.0702797
0.0203186
-0.0213562
-0.055904
-0.0845001
-0.108611
-0.130267
-0.152174
-0.177427
-0.209007
-0.249663
-0.3003
-0.360177
-0.45556
0
1.39434
3.89852
7.29741
10.9777
14.0874
15.8288
15.7635
13.9764
11.0195
7.66506
4.60436
2.24403
0.675746
-0.217828
-0.529145
-0.414046
-0.276984
-0.120797
0.0442692
0.202082
0.33545
0.439054
0.517323
0.573014
0.613395
0.64857
0.689025
0.743164
0.814663
0.901507
1.00034
1.10808
1.22169
1.33864
1.45736
1.57745
1.69959
1.82531
1.95677
2.09647
2.2471
2.41137
2.59177
2.79043
3.00885
3.24763
3.50628
3.78308
4.07499
4.37773
4.68601
4.99393
5.29548
5.58504
5.85784
6.11019
6.33883
6.53969
6.70682
6.83273
6.91097
6.92963
6.87168
6.71961
6.46134
6.09568
5.63527
5.10605
4.54304
3.98276
3.44262
2.9323
2.46148
2.03637
1.65982
1.3317
1.04959
0.809598
0.607095
0.437252
0.295788
0.179401
0.0859364
0.014447
-0.0319927
-0.0416256
-0.002314
0.0635632
0.121547
0.136124
0.0858337
-0.0257969
-0.170205
-0.305402
-0.393271
-0.414598
-0.395399
-0.353955
-0.296156
-0.227288
-0.152625
-0.0765247
-0.00359573
0.062011
0.116796
0.158201
0.184975
0.197481
0.197778
0.189445
0.177131
0.165835
0.159983
0.162861
0.175998
0.19888
0.229046
0.262653
0.296143
0.326578
0.352278
0.37314
0.39056
0.406968
0.425142
0.447379
0.474995
0.507981
0.545069
0.583503
0.619825
0.650616
0.673167
0.685936
0.688777
0.682948
0.671036
0.656872
0.645419
0.642602
0.655146
0.689603
0.751437
0.843828
0.969209
1.13469
1.32856
1.52363
1.69184
1.81155
1.87216
1.87468
1.82893
1.74911
1.6497
1.54322
1.43706
1.33453
1.23713
1.14556
1.06028
0.981927
0.91158
0.850609
0.800448
0.762948
0.740014
0.72976
0.723204
0.707884
0.670233
0.598506
0.48537
0.329466
0.135668
-0.0857855
-0.320917
-0.458685
0
1.40335
3.92999
7.39936
11.2093
14.4558
16.2226
15.9372
13.6331
9.96581
5.94723
2.5215
0.212485
-0.971529
-1.3607
-1.17067
-0.981552
-0.799019
-0.632733
-0.493386
-0.386939
-0.306745
-0.246491
-0.198494
-0.152816
-0.0994965
-0.0309441
0.0625921
0.18127
0.305053
0.408753
0.472709
0.491402
0.476226
0.451264
0.444215
0.476937
0.552125
0.657098
0.784232
0.930387
1.09287
1.26895
1.45587
1.6508
1.85097
2.05394
2.25809
2.46323
2.67092
2.8844
3.10798
3.34617
3.60676
3.90544
4.25034
4.61383
4.94308
5.19487
5.34579
5.39024
5.33399
5.18772
4.96123
4.65888
4.27994
3.83913
3.3641
2.87713
2.39158
1.91609
1.45793
1.02377
0.618818
0.246659
-0.0906773
-0.392616
-0.659866
-0.894241
-1.09842
-1.27564
-1.42935
-1.56282
-1.67882
-1.77947
-1.86619
-1.93986
-2.0011
-2.0506
-2.08939
-2.11917
-2.14226
-2.16161
-2.18072
-2.20293
-2.23054
-2.264
-2.3016
-2.33953
-2.37213
-2.39363
-2.3998
-2.3871
-2.35815
-2.31912
-2.27812
-2.24312
-2.22025
-2.21279
-2.22088
-2.24188
-2.27059
-2.30071
-2.3262
-2.34108
-2.34002
-2.31945
-2.27812
-2.21585
-2.1311
-2.02734
-1.918
-1.81829
-1.74085
-1.69231
-1.67156
-1.67045
-1.67695
-1.67947
-1.67083
-1.65194
-1.62643
-1.60008
-1.5781
-1.56269
-1.55188
-1.54013
-1.52037
-1.48643
-1.43553
-1.37021
-1.29362
-1.20767
-1.11398
-1.01351
-0.906635
-0.79269
-0.671797
-0.547887
-0.430084
-0.330094
-0.258997
-0.224064
-0.226738
-0.262424
-0.322065
-0.394899
-0.471407
-0.545669
-0.61625
-0.683847
-0.749495
-0.814107
-0.878305
-0.942309
-1.00604
-1.06944
-1.13293
-1.19789
-1.26687
-1.34348
-1.43389
-1.55338
-1.7175
-1.9165
-2.1297
-2.3322
-2.30646
-1.52357
0
2.36154
5.45958
8.92753
12.1083
14.2074
14.5908
13.0891
10.1177
6.51022
3.14964
0.617825
-0.940775
-1.70618
-1.92244
-1.76355
-1.59331
-1.41211
-1.22279
-1.02952
-0.836826
-0.648756
-0.469055
-0.305327
-0.165236
-0.0555752
0.0204559
0.0655865
0.0892139
0.105983
0.132548
0.18367
0.265257
0.373362
0.502845
0.649434
0.809772
0.978489
1.14532
1.30079
1.43959
1.56283
1.67893
1.80236
1.95022
2.13765
2.37343
2.64842
2.95031
3.27
3.59793
3.92442
4.24106
4.54191
4.82408
5.08734
5.33202
5.55803
5.76646
5.95602
6.11474
6.21865
6.23869
6.1489
5.93334
5.59094
5.13768
4.6054
4.03881
3.47601
2.93234
2.41564
1.93417
1.4933
1.09583
0.742577
0.432853
0.164946
-0.0636471
-0.256168
-0.416557
-0.549329
-0.659339
-0.751403
-0.829869
-0.898233
-0.958884
-1.01307
-1.06107
-1.1026
-1.13726
-1.16483
-1.18555
-1.20088
-1.21335
-1.22532
-1.23798
-1.25052
-1.25991
-1.26146
-1.2501
-1.22195
-1.17079
-1.09768
-1.01467
-0.937339
-0.879837
-0.850596
-0.850346
-0.872851
-0.907745
-0.944077
-0.973663
-0.993991
-1.00533
-1.00831
-1.00376
-0.992938
-0.978406
-0.963266
-0.949995
-0.939704
-0.931727
-0.923788
-0.912848
-0.896037
-0.871096
-0.841148
-0.812305
-0.790921
-0.780354
-0.778878
-0.779822
-0.773949
-0.75297
-0.712711
-0.657864
-0.594003
-0.525077
-0.455293
-0.388467
-0.327853
-0.276141
-0.234526
-0.20296
-0.17998
-0.162537
-0.146031
-0.124816
-0.093187
-0.0408081
0.0442024
0.148857
0.249687
0.323035
0.356689
0.356587
0.344675
0.34866
0.399677
0.49502
0.604064
0.684747
0.704445
0.653426
0.54573
0.410456
0.280738
0.184803
0.125021
0.0955276
0.0953163
0.133131
0.21378
0.327853
0.450085
0.550724
0.60297
0.587602
0.496073
0.332156
0.111798
-0.139416
-0.396001
0
1.41828
4.04492
7.65618
11.6035
14.9754
16.8981
16.8578
14.8936
11.5696
7.7413
4.23803
1.61197
0.0477074
-0.578724
-0.545017
-0.376934
-0.216398
-0.0692146
0.0644073
0.189526
0.312965
0.437852
0.565463
0.694502
0.819217
0.93148
1.02379
1.09201
1.13702
1.16465
1.18412
1.2056
1.23795
1.28567
1.34897
1.42748
1.5212
1.62981
1.7528
1.88976
2.04047
2.20504
2.38399
2.57823
2.7889
3.01692
3.2626
3.52524
3.80298
4.09289
4.39139
4.69472
4.99928
5.30182
5.59878
5.88564
6.1582
6.41229
6.64106
6.83115
6.96713
7.04323
7.04264
6.93869
6.70652
6.33835
5.8523
5.28903
4.69875
4.12374
3.57177
3.04265
2.54237
2.07557
1.64581
1.25572
0.907011
0.600193
0.335555
0.117978
-0.0482513
-0.178548
-0.29148
-0.404439
-0.528787
-0.666435
-0.809409
-0.942894
-1.05071
-1.12124
-1.15871
-1.16685
-1.15444
-1.13284
-1.11299
-1.10282
-1.10577
-1.12052
-1.14191
-1.16272
-1.17583
-1.17616
-1.16269
-1.13772
-1.10454
-1.06659
-1.02731
-0.989543
-0.955038
-0.924374
-0.897193
-0.872715
-0.850371
-0.830289
-0.813693
-0.80254
-0.798686
-0.802663
-0.812817
-0.825225
-0.834544
-0.835517
-0.824572
-0.801582
-0.769709
-0.732602
-0.693748
-0.656355
-0.622779
-0.594125
-0.570133
-0.549338
-0.529446
-0.507816
-0.481979
-0.450074
-0.41115
-0.365178
-0.312804
-0.255449
-0.194535
-0.131013
-0.0650803
0.00385399
0.0769341
0.155495
0.2407
0.333216
0.433007
0.539677
0.652316
0.769376
0.888565
1.00669
1.11898
1.21994
1.30446
1.36862
1.41048
1.43023
1.42989
1.41241
1.38079
1.33752
1.28531
1.22596
1.16182
1.09623
1.03356
0.978724
0.936237
0.909226
0.90271
0.917623
0.937831
0.940304
0.900541
0.798887
0.551262
0.193088
-0.206844
-0.589936
-0.943336
0
1.77796
4.28755
7.32757
10.5663
13.5056
15.5344
16.1107
14.9979
12.4124
8.98043
5.5125
2.70969
0.947581
0.214488
0.218913
0.42604
0.614618
0.77633
0.921805
1.067
1.2113
1.34935
1.47453
1.58006
1.66212
1.72176
1.76525
1.80274
1.84547
1.90264
1.97776
2.06791
2.16889
2.27669
2.38728
2.49727
2.60448
2.70814
2.80873
2.90774
3.0075
3.11101
3.22174
3.34351
3.48011
3.63478
3.80965
4.00523
4.2203
4.4518
4.69605
4.94943
5.20921
5.47486
5.75022
6.04913
6.37243
6.67693
6.90239
7.0042
6.97197
6.82374
6.58264
6.25453
5.82618
5.31187
4.75606
4.19001
3.63019
3.08427
2.55668
2.05228
1.57445
1.12549
0.707244
0.321667
-0.0288494
-0.341565
-0.613827
-0.843361
-1.02905
-1.17191
-1.27505
-1.34403
-1.38962
-1.42754
-1.47213
-1.53369
-1.61654
-1.71806
-1.82923
-1.93662
-2.02537
-2.08373
-2.10941
-2.0933
-2.02197
-1.90659
-1.7812
-1.68046
-1.62918
-1.63535
-1.68884
-1.76663
-1.84252
-1.89742
-1.92991
-1.94976
-1.96275
-1.97323
-1.98308
-1.99049
-1.99005
-1.97409
-1.93477
-1.8673
-1.77347
-1.65744
-1.52319
-1.37647
-1.22676
-1.08608
-0.965413
-0.873056
-0.813676
-0.788041
-0.793316
-0.823753
-0.871554
-0.927765
-0.983167
-1.03036
-1.06304
-1.07654
-1.06834
-1.03817
-0.987732
-0.91992
-0.837823
-0.743732
-0.639315
-0.524809
-0.398934
-0.259739
-0.101977
0.0832275
0.291722
0.493993
0.654014
0.741959
0.745817
0.676452
0.563183
0.441552
0.33919
0.263473
0.203043
0.149918
0.100405
0.0521606
0.00403938
-0.0439215
-0.0909084
-0.135965
-0.178732
-0.219766
-0.260676
-0.30414
-0.353627
-0.413472
-0.491227
-0.601357
-0.752665
-0.939285
-1.1506
-1.37419
-1.04655
0
1.95121
4.8052
8.2356
11.5624
13.9192
14.5889
13.3413
10.562
7.08074
3.7941
1.30996
-0.197974
-0.893088
-1.01054
-0.764547
-0.513696
-0.271203
-0.0559389
0.112746
0.233311
0.320475
0.38274
0.427135
0.462093
0.495783
0.534744
0.582165
0.638871
0.704973
0.78006
0.863104
0.952581
1.04686
1.14335
1.23837
1.32876
1.41309
1.49273
1.57199
1.65726
1.7553
1.8712
2.00705
2.15991
2.32626
2.50369
2.69104
2.88912
3.10054
3.32889
3.57733
3.84774
4.14698
4.48422
4.86112
5.24392
5.59766
5.89196
6.0765
6.09678
5.92974
5.60829
5.21043
4.81077
4.42051
3.99825
3.55467
3.10295
2.6505
2.20486
1.77479
1.36913
0.995548
0.65955
0.363903
0.108713
-0.108035
-0.289676
-0.440102
-0.563241
-0.661767
-0.736247
-0.789224
-0.827082
-0.855814
-0.879478
-0.89872
-0.910247
-0.907791
-0.884401
-0.83527
-0.762093
-0.672289
-0.571566
-0.467163
-0.366508
-0.275654
-0.198421
-0.136194
-0.0883364
-0.0532694
-0.029327
-0.0142378
-0.00616818
-0.00352573
-0.00461998
-0.00746918
-0.00992851
-0.0101053
-0.00687332
-0.000457001
0.00789318
0.0165686
0.0236439
0.0272205
0.0258053
0.0185217
0.00518074
-0.0138004
-0.0376144
-0.0653732
-0.0964342
-0.130657
-0.168482
-0.210824
-0.258711
-0.312807
-0.372916
-0.437682
-0.504572
-0.569641
-0.628405
-0.676614
-0.710864
-0.728892
-0.72947
-0.711994
-0.67598
-0.620721
-0.546297
-0.452947
-0.340693
-0.207287
-0.0510128
0.119183
0.282357
0.41631
0.503486
0.535711
0.51629
0.45896
0.384084
0.313162
0.262906
0.23633
0.228361
0.232943
0.245434
0.260924
0.275023
0.284493
0.287397
0.282745
0.269834
0.247525
0.213812
0.165639
0.0993114
0.0112103
-0.102766
-0.251435
-0.431621
-0.635768
-0.852814
-0.823311
0
1.89874
4.87633
8.45727
11.821
14.0803
14.6118
13.294
10.5429
7.12642
3.84899
1.26632
-0.435997
-1.37156
-1.74075
-1.74155
-1.68926
-1.5711
-1.39137
-1.1666
-0.925587
-0.708028
-0.535768
-0.4146
-0.355994
-0.359776
-0.412263
-0.488627
-0.55932
-0.598226
-0.589127
-0.541235
-0.467142
-0.37313
-0.262644
-0.13878
-0.00411094
0.139496
0.291001
0.45035
0.618665
0.798415
0.993409
1.20855
1.44933
1.72121
2.02893
2.37585
2.76356
3.19146
3.65654
4.15312
4.6813
5.23844
5.77497
6.22544
6.53557
6.67918
6.6643
6.52541
6.30502
6.03284
5.71321
5.34706
4.9444
4.51216
4.05422
3.57631
3.08754
2.59896
2.12151
1.66451
1.2345
0.834901
0.466339
0.127552
-0.183572
-0.469071
-0.730309
-0.967777
-1.18016
-1.36684
-1.52747
-1.66195
-1.76944
-1.85416
-1.92206
-1.9802
-2.03578
-2.09521
-2.16361
-2.24369
-2.33547
-2.4363
-2.54106
-2.64302
-2.73496
-2.81064
-2.86611
-2.90157
-2.91884
-2.92177
-2.91508
-2.90343
-2.89026
-2.87745
-2.86589
-2.8558
-2.84715
-2.84011
-2.83501
-2.83195
-2.83017
-2.82734
-2.81903
-2.79887
-2.75963
-2.69489
-2.60091
-2.47884
-2.33611
-2.18014
-2.0224
-1.87635
-1.75317
-1.65942
-1.59592
-1.55802
-1.53714
-1.52294
-1.50558
-1.47773
-1.43632
-1.38035
-1.30971
-1.22551
-1.13008
-1.0268
-0.91992
-0.814357
-0.715165
-0.626533
-0.550911
-0.488341
-0.436205
-0.389514
-0.341735
-0.28594
-0.216063
-0.128436
-0.0210609
0.108085
0.257696
0.419483
0.575778
0.704803
0.788634
0.815103
0.779372
0.685307
0.546217
0.383927
0.225382
0.0968895
0.0112144
-0.0368378
-0.0514572
-0.0360931
-0.00308304
0.031546
0.0518349
0.0444115
0
-0.0786255
-0.198304
-0.354113
-0.537646
-0.738719
-0.947422
-1.15577
-1.35935
-1.09903
-0.183604
1.58496
4.27032
7.59787
10.9698
13.644
14.9788
14.6455
12.7434
9.78069
6.50101
3.60466
1.50207
0.247473
-0.3333
-0.350556
-0.245451
-0.13606
-0.0255272
0.0858658
0.201267
0.325297
0.462424
0.617342
0.79295
0.994304
1.22913
1.48667
1.72965
1.91961
2.02907
2.05132
2.00481
1.93004
1.87853
1.89679
2.00371
2.16998
2.40212
2.65443
2.87452
3.02317
3.09046
3.10148
3.10893
3.17479
3.34806
3.62922
3.97156
4.34945
4.75065
5.16514
5.58456
6.00301
6.4171
6.82498
7.22278
7.60273
7.95202
8.25421
8.49209
8.65343
8.73315
8.73122
8.64855
8.48408
8.23536
7.90725
7.5146
7.07447
6.60554
6.12774
5.65712
5.20462
4.78121
4.39606
4.05737
3.77918
3.57457
3.43186
3.33331
3.25981
3.19604
3.1342
3.07506
3.02612
2.99752
2.9971
3.02134
3.06663
3.12888
3.20226
3.28051
3.35826
3.432
3.49986
3.56153
3.61782
3.67016
3.72014
3.76906
3.81774
3.86646
3.91492
3.96232
4.00767
4.05024
4.09
4.12796
4.16637
4.20849
4.25813
4.31904
4.39379
4.48628
4.60063
4.73858
4.89382
5.04802
5.177
5.25712
5.27037
5.21005
5.08592
4.92615
4.77298
4.67155
4.64737
4.6885
4.81329
4.98513
5.15469
5.27768
5.32988
5.31428
5.25815
5.20157
5.18176
5.21825
5.29224
5.38681
5.4908
5.59119
5.67652
5.73933
5.77747
5.79449
5.79926
5.80455
5.82485
5.87347
5.95862
6.08259
6.25825
6.47809
6.70658
6.90443
7.04067
7.09965
7.08371
7.0117
6.91327
6.81903
6.74936
6.70193
6.66407
6.62709
6.58538
6.53561
6.4775
6.41371
6.34882
6.28795
6.23457
6.19018
6.15566
6.13024
6.11196
6.09809
6.08567
6.07199
6.05477
6.03317
6.00785
5.98068
6.03362
6.88799
8.80816
11.5253
14.2897
16.3361
17.3678
17.6037
17.3713
16.7024
15.374
13.3206
10.9232
8.83416
7.52087
6.98481
6.94304
6.9403
6.94713
6.96775
7.00597
7.06746
7.17414
7.38595
7.72012
8.09352
8.39327
8.51916
8.4364
8.20335
7.94872
7.80711
7.85131
7.99699
8.17196
8.35707
8.54518
8.73126
8.91207
9.08623
9.25413
9.41764
9.5798
9.74433
9.91512
10.0956
10.2882
10.4938
10.7115
10.9389
11.172
11.4069
11.6398
11.868
12.0903
12.3066
12.5184
12.729
12.9448
13.1841
13.4745
13.8013
14.1011
14.2592
14.1589
13.7521
13.0981
12.343
11.6545
11.1117
10.6193
10.144
9.6832
9.2363
8.80431
8.38967
7.99599
7.62731
7.28717
6.97781
6.69956
6.45072
6.22791
6.02674
5.84267
5.67169
5.51072
5.35766
5.21108
5.06984
4.9326
4.79781
4.66419
4.53136
4.40059
4.2751
4.16
4.06156
3.99124
3.96988
4.00756
4.0785
4.14518
4.17325
4.14589
4.071
3.97769
3.90322
3.87639
3.89593
3.94421
4.00874
4.07497
4.1304
4.16752
4.18481
4.18612
4.1789
4.17195
4.17219
4.18326
4.20605
4.23971
4.28213
4.32899
4.37511
4.41536
4.44536
4.46183
4.46259
4.44615
4.4113
4.35709
4.2837
4.19226
4.08497
3.96564
3.84002
3.71576
3.60199
3.51162
3.46441
3.47686
3.54444
3.6421
3.73934
3.80896
3.83319
3.80624
3.7342
3.63315
3.52591
3.4373
3.38493
3.39555
3.55274
3.83043
4.12766
4.32274
4.31453
4.06603
3.62838
3.126
2.70422
2.46182
2.30406
2.17348
2.05912
1.95414
1.85289
1.75159
1.64865
1.54431
1.43997
1.33711
1.23634
1.13658
1.03481
0.925229
0.791633
0.601227
0.355141
0.0743895
-0.230878
0
1.19308
3.58022
7.0278
10.9172
14.2811
16.1511
15.9506
13.7338
10.1516
6.17075
2.70231
0.315323
-0.864063
-1.0711
-0.865609
-0.677743
-0.508421
-0.361396
-0.236519
-0.129339
-0.0352185
0.0505338
0.131499
0.209627
0.285377
0.358352
0.42802
0.494188
0.557079
0.617015
0.674185
0.728732
0.780994
0.83218
0.884954
0.943516
1.01301
1.09841
1.20329
1.32725
1.46779
1.62309
1.79144
1.97154
2.16303
2.36645
2.58286
2.81323
3.05766
3.31489
3.58197
3.85465
4.12775
4.39471
4.64691
4.8746
5.06942
5.22463
5.33416
5.39239
5.39422
5.33511
5.21151
5.02135
4.76486
4.44751
4.07973
3.67366
3.24106
2.79214
2.33541
1.87927
1.4319
1.00104
0.593758
0.216183
-0.126723
-0.431335
-0.695422
-0.918129
-1.09989
-1.24225
-1.34642
-1.41324
-1.44664
-1.45592
-1.45359
-1.45243
-1.46352
-1.49436
-1.5474
-1.61957
-1.70286
-1.78607
-1.85753
-1.90918
-1.93119
-1.91428
-1.86612
-1.80441
-1.74878
-1.71464
-1.70896
-1.72927
-1.76591
-1.80635
-1.83972
-1.86184
-1.87381
-1.87738
-1.87353
-1.86295
-1.84598
-1.82265
-1.79294
-1.75677
-1.71515
-1.67098
-1.62869
-1.5929
-1.56713
-1.55269
-1.54822
-1.55008
-1.55343
-1.55367
-1.54786
-1.53568
-1.51793
-1.4962
-1.47235
-1.44793
-1.42393
-1.40076
-1.37844
-1.35676
-1.33513
-1.31253
-1.28716
-1.25646
-1.21738
-1.167
-1.10342
-1.02676
-0.93744
-0.839908
-0.741961
-0.651624
-0.575171
-0.515865
-0.47384
-0.447145
-0.433376
-0.431163
-0.439805
-0.460047
-0.493208
-0.539596
-0.597733
-0.664147
-0.733859
-0.801414
-0.862583
-0.914976
-0.957285
-0.990894
-1.01898
-1.04552
-1.07432
-1.10812
-1.14821
-1.1944
-1.24533
-1.30143
-0.924182
0
1.71843
4.31367
7.53419
10.7432
13.0917
13.8601
12.7847
10.1827
6.80101
3.48186
0.835687
-0.914847
-1.87677
-2.26189
-2.14328
-2.02424
-1.90915
-1.80263
-1.70886
-1.63058
-1.56746
-1.51727
-1.47545
-1.43587
-1.39204
-1.33887
-1.27411
-1.19713
-1.10857
-1.01002
-0.906463
-0.80492
-0.711752
-0.630911
-0.562686
-0.503352
-0.445847
-0.381289
-0.300851
-0.199041
-0.0746391
0.0725143
0.242039
0.432641
0.64258
0.87028
1.11471
1.37548
1.65257
1.94581
2.25425
2.57665
2.91198
3.24929
3.56431
3.83066
4.02687
4.14149
4.17455
4.13474
4.03376
3.87987
3.67366
3.41735
3.11642
2.77614
2.40115
1.997
1.57177
1.13628
0.703279
0.285981
-0.103748
-0.457002
-0.768726
-1.03696
-1.26393
-1.45726
-1.62598
-1.77826
-1.91972
-2.05236
-2.17476
-2.28305
-2.37188
-2.43442
-2.46757
-2.47445
-2.46375
-2.44792
-2.43986
-2.44962
-2.48224
-2.53634
-2.60404
-2.67217
-2.72501
-2.74817
-2.73442
-2.68725
-2.61075
-2.51577
-2.41614
-2.32532
-2.25345
-2.20572
-2.18217
-2.1789
-2.18991
-2.20888
-2.23006
-2.25002
-2.26662
-2.27864
-2.28555
-2.2874
-2.28561
-2.28182
-2.27719
-2.27199
-2.26547
-2.25629
-2.24325
-2.22576
-2.20481
-2.18223
-2.15976
-2.13808
-2.11634
-2.09258
-2.06454
-2.03072
-1.99151
-1.94762
-1.89958
-1.84736
-1.78981
-1.72467
-1.64898
-1.56007
-1.45658
-1.33928
-1.21154
-1.07869
-0.946579
-0.820854
-0.706047
-0.604853
-0.51791
-0.444039
-0.380856
-0.325546
-0.275581
-0.229681
-0.188271
-0.153996
-0.130614
-0.122272
-0.131879
-0.159803
-0.203461
-0.258038
-0.3181
-0.379354
-0.439722
-0.49912
-0.558168
-0.616523
-0.6717
-0.719062
-0.753
-0.768739
-0.764953
-0.74216
-0.703407
-0.653487
-0.598039
-0.552423
0
1.36635
3.66762
6.7346
10.0677
12.9129
14.4774
14.2382
12.1953
8.91793
5.32054
2.27611
0.282424
-0.643814
-0.823265
-0.612653
-0.402204
-0.196319
-0.00420914
0.163336
0.308683
0.44041
0.56541
0.688747
0.81395
0.943304
1.078
1.21799
1.36203
1.50789
1.653
1.79517
1.93317
2.06712
2.19839
2.3295
2.46366
2.6044
2.75504
2.91864
3.09761
3.29355
3.50714
3.73825
3.98617
4.24982
4.52833
4.82104
5.12738
5.44647
5.77667
6.11501
6.45694
6.79627
330
506
682
854
1022
1194
1367
1540
1716
1895
2074
2258
2443
2620
2796
2978
3347
3523
3702
3433
3604
2422
2574
2598
2737
2770
2890
3055
3132
3215
3245
3309
3365
3526
3581
3685
2754
2816
2921
3033
3084
3248
3339
3410
3487
3576
3208
3249
3298
3415
3467
3538
3575
3635
3526
3597
3691
0
0
0
0
0
0
0
0
0
0
0
0
0
0
0
0
0
0
0
0
0
0
0
0
0
0
0
0
0
0
0
0
0
0
0
0
0
0
0
0
0
0
0
0
0
0
0
0
0
0
0
0
0
0
0
0
0
0
0
0
0
0
0
0
0
0
0
0
0
0
0
0
0
0
0
0
0
0
0
0
0
0
0
0
0
0
0
0
0
0
0
0
0
0
0
0
0
0
0
0
0
0
0
0
0
0
0
0
0
0
0
0
0
0
0
0
0
0
0
0
0
0
0
0
0
0
0
0
0
0
0
0
0
0
0
0
0
0
0
0
0
0
0
0
0
0
0
0
0
0
0
0
0
0
0
0
0
0
0
0
0
0
0
0
0
0
0
0
0
0
0
0
0
0
0
0
0
0
0
0
0
0
0
0
0
0
0
0
0
0
0
0
0
0
0
0
0
0
0
0
0
0
0
0
0
0
0
0
0
0
0
0
0
0
0
0
0
0
0
0
0
0
0
0
0
0
0
0
0
0
0
0
0
0
0
0
0
0
0
0
0
0
0
0
0
0
0
0
0
0
0
0
0
0
0
0
0
0
0
0
0
0
0
0
0
0
0
0
0
0
0
0
0
0
0
0
0
0
0
0
0
0
0
0
0
0
0
0
0
0
0
0
0
0
0
0
0
0
0
0
0
0
0
0
0
0
0
0
0
0
0
0
0
0
0
0
0
0
0
0
0
0
0
0
0
0
0
0
0
0
0
0
0
0
0
0
0
0
0
0
0
0
0
0
0
0
0
0
0
0
0
0
0
0
0
0
0
0
0
0
0
0
0
0
0
0
0
0
0
0
0
0
0
0
0
0
0
0
0
0
0
0
0
0
0
0
0
0
0
0
0
0
0
0
0
0
0
0
0
0
0
0
0
0
0
0
0
0
0
0
0
0
0
0
0
0
0
0
0
0
0
0
0
0
0
0
0
0
0
0
0
0
0
0
0
0
0
0
0
0
0
0
0
0
0
0
0
0
0
0
0
0
0
0
0
0
0
0
0
0
0
0
0
0
0
0
0
0
0
0
0
0
0
0
0
0
0
0
0
0
0
0
0
0
0
0
0
0
0
0
0
0
0
0
0
0
0
0
0
0
0
0
0
0
0
0
0
0
0
0
0
0
0
0
0
0
0
0
0
0
0
0
0
0
0
0
0
0
0
0
0
0
0
0
0
0
0
0
0
0
0
0
0
0
0
0
0
0
0
0
0
0
0
0
0
0
0
0
0
0
0
0
0
0
0
0
0
0
0
0
0
0
0
0
0
0
0
0
0
0
0
0
0
0
0
0
0
0
0
0
0
0
0
0
0
0
0
0
0
0
0
0
0
0
0
0
0
0
0
0
0
0
0
0
0
0
0
0
0
0
0
0
0
0
0
0
0
0
0
0
0
0
0
0
0
0
0
0
0
0
0
0
0
0
0
0
0
0
0
0
0
0
0
0
0
0
0
0
0
0
0
0
0
0
0
0
0
0
0
0
0
0
0
0
0
0
0
0
0
0
0
0
0
0
0
0
0
0
0
0
0
0
0
0
0
0
0
0
0
0
0
0
0
0
0
0
0
0
0
0
0
0
0
0
0
0
0
0
0
0
0
0
0
0
0
0
0
0
0
0
0
0
0
0
0
0
0
0
0
0
0
0
0
0
0
0
0
0
0
0
0
0
0
0
0
0
0
0
0
0
0
0
0
0
0
0
0
0
0
0
0
0
0
0
0
0
0
0
0
0
0
0
0
0
0
0
0
0
0
0
0
0
0
0
0
0
0
0
0
0
0
0
0
0
0
0
0
0
0
0
0
0
0
0
0
0
0
0
0
0
0
0
0
0
0
0
0
0
0
0
0
0
0
0
0
0
0
0
0
0
0
0
0
0
0
0
0
0
0
0
0
0
0
0
0
0
0
0
0
0
0
0
0
0
0
0
0
0
0
0
0
0
0
0
0
0
0
0
0
0
0
0
0
0
0
0
0
0
0
0
0
0
0
0
0
0
0
0
0
0
0
0
0
0
0
0
0
0
0
0
0
0
0
0
0
0
0
0
0
0
0
0
0
0
0
0
0
0
0
0
0
0
0
0
0
0
0
0
0
0
0
0
0
0
0
0
0
0
0
0
0
0
0
0
0
0
0
0
0
0
0
0
0
0
0
0
0
0
0
0
0
0
0
0
0
0
0
0
0
0
0
0
0
0
0
0
0
0
0
0
0
0
0
0
0
0
0
0
0
0
0
0
0
0
0
0
0
0
0
0
0
0
0
0
0
0
0
0
0
0
0
0
0
0
0
0
0
0
0
0
0
0
0
0
0
0
0
0
0
0
0
0
0
0
0
0
0
0
0
0
0
0
0
0
0
0
0
0
0
0
0
0
0
0
0
0
0
0
0
0
0
0
0
0
0
0
0
0
0
0
0
0
0
0
0
0
0
0
0
0
0
0
0
0
0
0
0
0
0
0
0
0
0
0
0
0
0
0
0
0
0
0
0
0
0
0
0
0
0
0
0
0
0
0
0
0
0
0
0
0
0
0
0
0
0
0
0
0
0
0
0
0
0
0
0
0
0
0
0
0
0
0
0
0
0
0
0
0
0
0
0
0
0
0
0
0
0
0
0
0
0
0
0
0
0
0
0
0
0
0
0
0
0
0
0
0
0
0
0
0
0
0
0
0
0
0
0
0
0
0
0
0
0
0
0
0
0
0
0
0
0
0
0
0
0
0
0
0
0
0
0
0
0
0
0
0
0
0
0
0
0
0
0
0
0
0
0
0
0
0
0
0
0
0
0
0
0
0
0
0
0
0
0
0
0
0
0
0
0
0
0
0
0
0
0
0
0
0
0
0
0
0
0
0
0
0
0
0
0
0
0
0
0
0
0
0
0
0
0
0
0
0
0
0
0
0
0
0
0
0
0
0
0
0
0
0
0
0
0
0
0
0
0
0
0
0
0
0
0
0
0
0
0
0
0
0
0
0
0
0
0
0
0
0
0
0
0
0
0
0
0
0
0
0
0
0
0
0
0
0
0
0
0
0
0
0
0
0
0
0
0
0
0
0
0
0
0
0
0
0
0
0
0
0
0
0
0
0
0
0
0
0
0
0
0
0
0
0
0
0
0
0
0
0
0
0
0
0
0
0
0
0
0
0
0
0
0
0
0
0
0
0
0
0
0
0
0
0
0
0
0
0
0
0
0
0
0
0
0
0
0
0
0
0
0
0
0
0
0
0
0
0
0
0
0
0
0
0
0
0
0
0
0
0
0
0
0
0
0
0
0
0
0
0
0
0
0
0
0
0
0
0
0
0
0
0
0
0
0
0
0
0
0
0
0
0
0
0
0
0
0
0
0
0
0
0
0
0
0
0
0
0
0
0
0
0
0
0
0
0
0
0
0
0
0
0
0
0
0
0
0
0
0
0
0
0
0
0
0
0
0
0
0
0
0
0
0
0
0
0
0
0
0
0
0
0
0
0
0
0
0
0
0
0
0
0
0
0
0
0
0
0
0
0
0
0
0
0
0
0
0
0
0
0
0
0
0
0
0
0
0
0
0
0
0
0
0
0
0
0
0
0
0
0
0
0
0
0
0
0
0
0
0
0
0
0
0
0
0
0
0
0
0
0
0
0
0
0
0
0
0
0
0
0
0
0
0
0
0
0
0
0
0
0
0
0
0
0
0
0
0
0
0
0
0
0
0
0
0
0
0
0
0
0
0
0
0
0
0
0
0
0
0
0
0
0
0
0
0
0
0
0
0
0
0
0
0
0
0
0
0
0
0
0
0
0
0
0
0
0
0
0
0
0
0
0
0
0
0
0
0
0
0
0
0
0
0
0
0
0
0
0
0
0
0
0
0
0
0
0
0
0
0
0
0
0
0
0
0
0
0
0
0
0
0
0
0
0
0
0
0
0
0
0
0
0
0
0
0
0
0
0
0
0
0
0
0
0
0
0
0
0
0
0
0
0
0
0
0
0
0
0
0
0
0
0
0
0
0
0
0
0
0
0
0
0
0
0
0
0
0
0
0
0
0
0
0
0
0
0
0
0
0
0
0
0
0
0
0
0
0
0
0
0
0
0
0
0
0
0
0
0
0
0
0
0
0
0
0
0
0
0
0
0
0
0
0
0
0
0
0
0
0
0
0
0
0
0
0
0
0
0
0
0
0
0
0
0
0
0
0
0
0
0
0
0
0
0
0
0
0
0
0
0
0
0
0
0
0
0
0
0
0
0
0
0
0
0
0
0
0
0
0
0
0
0
0
0
0
0
0
0
0
0
0
0
0
0
0
0
0
0
0
0
0
0
0
0
0
0
0
0
0
0
0
0
0
0
0
0
0
0
0
0
0
0
0
0
0
0
0
0
0
0
0
0
0
0
0
0
0
0
0
0
0
0
0
0
0
0
0
0
0
0
0
0
0
0
0
0
0
0
0
0
0
0
0
0
0
0
0
0
0
0
0
0
0
0
0
0
0
0
0
0
0
0
0
0
0
0
0
0
0
0
0
0
0
0
0
0
0
0
0
0
0
0
0
0
0
0
0
0
0
0
0
0
0
0
0
0
0
0
0
0
0
0
0
0
0
0
0
0
0
0
0
0
0
0
0
0
0
0
0
0
0
0
0
0
0
0
0
0
0
0
0
0
0
0
0
0
0
0
0
0
0
0
0
0
0
0
0
0
0
0
0
0
0
0
0
0
0
0
0
0
0
0
0
0
0
0
0
0
0
0
0
0
0
0
0
0
0
0
0
0
0
0
0
0
0
0
0
0
0
0
0
0
0
0
0
0
0
0
0
0
0
0
0
0
0
0
0
0
0
0
0
0
0
0
0
0
0
0
0
0
0
0
0
0
0
0
0
0
0
0
0
0
0
0
0
0
0
0
0
0
0
0
0
0
0
0
0
0
0
0
0
0
0
0
0
0
0
0
0
0
0
0
0
0
0
0
0
0
0
0
0
0
0
0
0
0
0
0
0
0
0
0
0
0
0
0
0
0
0
0
0
0
0
0
0
0
0
0
0
0
0
0
0
0
0
0
0
0
0
0
0
0
0
0
0
0
0
0
0
0
0
0
0
0
0
0
0
0
0
0
0
0
0
0
0
0
0
0
0
0
0
0
0
0
0
0
0
0
0
0
0
0
0
0
0
0
0
0
0
0
0
0
0
0
0
0
0
0
0
0
0
0
0
0
0
0
0
0
0
0
0
0
0
0
0
0
0
0
0
0
0
0
0
0
0
0
0
0
0
0
0
0
0
0
0
0
0
0
0
0
0
0
0
0
0
0
0
0
0
0
0
0
0
0
0
0
0
0
0
0
0
0
0
0
0
0
0
0
0
0
0
0
0
0
0
0
0
0
0
0
0
0
0
0
0
0
0
0
0
0
0
0
0
0
0
0
0
0
0
0
0
0
0
0
0
0
0
0
0
0
0
0
0
0
0
0
0
0
0
0
0
0
0
0
0
0
0
0
0
0
0
0
0
0
0
0
0
0
0
0
0
0
0
0
0
0
0
0
0
0
0
0
0
0
0
0
0
0
0
0
0
0
0
0
0
0
0
0
0
0
0
0
0
0
0
0
0
0
0
0
0
0
0
0
0
0
0
0
0
0
0
0
0
0
0
0
0
0
0
0
0
0
0
0
0
0
0
0
0
0
0
0
0
0
0
0
0
0
0
0
0
0
0
0
0
0
0
0
0
0
0
0
0
0
0
0
0
0
0
0
0
0
0
0
0
0
0
0
0
0
0
0
0
0
0
0
0
0
0
0
0
0
0
0
0
0
0
0
0
0
0
0
0
0
0
0
0
0
0
0
0
0
0
0
0
0
0
0
0
0
0
0
0
0
0
0
0
0
0
0
0
0
0
0
0
0
0
0
0
0
0
0
0
0
0
0
0
0
0
0
0
0
0
0
0
0
0
0
0
0
0
0
0
0
0
0
0
0
0
0
0
0
0
0
0
0
0
0
0
0
0
0
0
0
0
0
0
0
0
0
0
0
0
0
0
0
0
0
0
0
0
0
0
0
0
0
0
0
0
0
0
0
0
0
0
0
0
0
0
0
0
0
0
0
0
0
0
0
0
0
0
0
0
0
0
0
0
0
0
0
0
0
0
0
0
0
0
0
0
0
0
0
0
0
0
0
0
0
0
0
0
0
0
0
0
0
0
0
0
0
0
0
0
0
0
0
0
0
0
0
0
0
0
0
0
0
0
0
0
0
0
0
0
0
0
0
0
0
0
0
0
0
0
0
0
0
0
0
0
0
0
0
0
0
0
0
0
0
0
0
0
0
0
0
0
0
0
0
0
0
0
0
0
0
0
0
0
0
0
0
0
0
0
0
0
0
0
0
0
0
0
0
0
0
0
0
0
0
0
0
0
0
0
0
0
0
0
0
0
0
0
0
0
0
0
0
0
0
0
0
0
0
0
0
0
0
0
0
0
0
0
0
0
0
0
0
0
0
0
0
0
0
0
0
0
0
0
0
0
0
0
0
0
0
0
0
0
0
0
0
0
0
0
0
0
0
0
0
0
0
0
0
0
0
0
0
0
0
0
0
0
0
0
0
0
0
0
0
0
0
0
0
0
0
0
0
0
0
0
0
0
0
0
0
0
0
0
0
0
0
0
0
0
0
0
0
0
0
0
0
0
0
0
0
0
0
0
0
0
0
0
0
0
0
0
0
0
0
0
0
0
0
0
0
0
0
0
0
0
0
0
0
0
0
0
0
0
0
0
0
0
0
0
0
0
0
0
0
0
0
0
0
0
0
0
0
0
0
0
0
0
0
0
0
0
0
0
0
0
0
0
0
0
0
0
0
0
0
0
0
0
0
0
0
0
0
0
0
0
0
0
0
0
0
0
0
0
0
0
0
0
0
0
0
0
0
0
0
0
0
0
0
0
0
0
0
0
0
0
0
0
0
0
0
0
0
0
0
0
0
0
0
0
0
0
0
0
0
0
0
0
0
0
0
0
0
0
0
0
0
0
0
0
0
0
0
0
0
0
0
0
0
0
0
0
0
0
0
0
0
0
0
0
0
0
0
0
0
0
0
0
0
0
0
0
0
0
0
0
0
0
0
0
0
0
0
0
0
0
0
0
0
0
0
0
0
0
0
0
0
0
0
0
0
0
0
0
0
0
0
0
0
0
0
0
0
0
0
0
0
0
0
0
0
0
0
0
0
0
0
0
0
0
0
0
0
0
0
0
0
0
0
0
0
0
0
0
0
0
0
0
0
0
0
0
0
0
0
0
0
0
0
0
0
0
0
0
0
0
0
0
0
0
0
0
0
0
0
0
0
0
0
0
0
0
0
0
0
0
0
0
0
0
0
0
0
0
0
0
0
0
0
0
0
0
0
0
0
0
0
0
0
0
0
0
0
0
0
0
0
0
0
0
0
0
0
0
0
0
0
0
0
0
0
0
0
0
0
0
0
0
0
0
0
0
0
0
0
0
0
0
0
0
0
0
0
0
0
0
0
0
0
0
0
0
0
0
0
0
0
0
0
0
0
0
0
0
0
0
0
0
0
0
0
0
0
0
0
0
0
0
0
0
0
0
0
0
0
0
0
0
0
0
0
0
0
0
0
0
0
0
0
0
0
0
0
0
0
0
0
0
0
0
0
0
0
0
0
0
0
0
0
0
0
0
0
0
0
0
0
0
0
0
0
0
0
0
0
0
0
0
0
0
0
0
0
0
0
0
0
0
0
0
0
0
0
0
0
0
0
0
0
0
0
0
0
0
0
0
0
0
0
0
0
0
0
0
0
0
0
0
0
0
0
0
0
0
0
0
0
0
0
0
0
0
0
0
0
0
0
0
0
0
0
0
0
0
0
0
0
0
0
0
0
0
0
0
0
0
0
0
0
0
0
0
0
0
0
0
0
0
0
0
0
0
0
0
0
0
0
0
0
0
0
0
0
0
0
0
0
0
0
0
0
0
0
0
0
0
0
0
0
0
0
0
0
0
0
0
0
0
0
0
0
0
0
0
0
0
0
0
0
0
0
0
0
0
0
0
0
0
0
0
0
0
0
0
0
0
0
0
0
0
0
0
0
0
0
0
0
0
0
0
0
0
0
0
0
0
0
0
0
0
0
0
0
0
0
0
0
0
0
0
0
0
0
0
0
0
0
0
0
0
0
0
0
0
0
0
0
0
0
0
0
0
0
0
0
0
0
0
0
0
0
0
0
0
0
0
0
0
0
0
0
0
0
0
0
0
0
0
0
0
0
0
0
0
0
0
0
0
0
0
0
0
0
0
0
0
0
0
0
0
0
0
0
0
0
0
0
0
0
0
0
0
0
0
0
0
0
0
0
