-0.504551
-0.508441
-0.512958
-0.518253
-0.523485
-0.527179
-0.527672
-0.523319
-0.516432
-0.51283
-0.519132
-0.539306
-0.571842
-0.609156
-0.63976
-0.652298
-0.639609
-0.606933
-0.559876
-0.502705
-0.440263
-0.37701
-0.316199
-0.26027
-0.211359
-0.170524
-0.138499
-0.115818
-0.102833
-0.0997499
-0.106775
-0.124338
-0.153238
-0.194485
-0.248293
-0.314756
-0.392647
-0.479118
-0.569893
-0.659947
-0.744502
-0.819999
-0.884114
-0.937491
-0.982487
-1.02202
-1.05832
-1.09197
-1.12169
-1.14479
-1.1582
-1.15995
-1.14969
-1.12832
-1.10167
-1.07854
-1.06773
-1.07558
-1.10424
-1.15105
-1.20938
-1.30881
-0.983059
0
1.75461
4.16412
6.84592
9.21143
10.6316
10.6568
9.20396
6.61477
3.54284
0.712794
-1.33388
-2.39087
-2.5806
-2.17506
-1.72761
-1.33934
-1.09971
-0.994731
-0.906799
-0.822684
-0.742019
-0.666676
-0.598623
-0.538975
-0.487278
-0.441354
-0.39784
-0.353245
-0.305104
-0.253008
-0.198445
-0.143353
-0.0900423
-0.0402174
0.00579395
0.0495008
0.0942705
0.144899
0.206816
0.285072
0.383327
0.502526
0.640664
0.793885
0.957046
1.12376
1.28453
1.42971
1.55181
1.64664
1.71391
1.75678
1.78076
1.79186
1.7949
1.79224
1.78389
1.76739
1.73907
1.6948
1.63065
1.5433
1.4303
1.29054
1.1276
0.946049
0.75037
0.546208
0.340296
0.139723
-0.0489801
-0.220591
-0.371798
-0.501431
-0.610026
-0.699603
-0.774114
-0.837868
-0.894764
-0.947704
-0.998292
-1.04686
-1.09277
-1.13482
-1.17167
-1.20209
-1.22496
-1.23924
-1.2439
-1.23801
-1.2197
-1.18483
-1.13311
-1.07615
-1.02968
-1.00841
-1.02037
-1.06349
-1.12628
-1.19219
-1.24523
-1.27579
-1.28704
-1.28272
-1.26342
-1.23015
-1.18406
-1.12639
-1.06141
-0.996784
-0.94077
-0.900758
-0.881767
-0.885494
-0.910162
-0.951127
-1.00195
-1.05561
-1.10596
-1.1492
-1.18298
-1.20598
-1.21785
-1.21912
-1.21142
-1.1978
-1.18314
-1.17278
-1.17111
-1.18035
-1.19983
-1.22578
-1.25196
-1.27103
-1.27307
-1.24176
-1.18483
-1.12678
-1.09675
-1.11458
-1.18042
-1.27357
-1.36173
-1.41581
-1.42193
-1.40057
-1.36456
-1.31871
-1.26667
-1.21021
-1.14928
-1.08277
-1.00951
-0.929476
-0.84375
-0.753716
-0.661286
-0.56879
-0.479043
-0.395981
-0.325383
-0.273093
-0.244862
-0.245684
-0.27832
-0.342038
-0.432146
-0.540623
-0.657648
-0.773465
-0.881432
-0.979095
-1.0646
-1.13643
-1.19393
-1.23735
-1.26756
-1.28589
-1.29402
-1.29401
-1.28791
-1.27837
-1.26882
-1.2628
-1.26361
-1.27381
-1.29489
-1.32708
-1.36939
-1.41984
-1.47583
-1.5343
-1.59251
-1.56686
-1.10861
0
1.87159
4.36231
7.07983
9.47048
10.9719
11.175
9.95705
7.54689
4.48845
1.48212
-0.852496
-2.19057
-2.57981
-2.29279
-1.86539
-1.43373
-1.07935
-0.805643
-0.625086
-0.500055
-0.405761
-0.339954
-0.300861
-0.282678
-0.27693
-0.274532
-0.267841
-0.25294
-0.229791
-0.199431
-0.162981
-0.121774
-0.0770168
-0.0296604
0.0198746
0.0717609
0.126702
0.185785
0.250296
0.321525
0.400627
0.488513
0.585597
0.692148
0.808021
0.932554
1.06447
1.2019
1.34229
1.48263
1.61956
1.74871
1.86375
1.95853
2.02864
2.07047
2.08194
2.06319
2.01676
1.94702
1.85873
1.75561
1.64091
1.51683
1.38393
1.242
1.09121
0.932581
0.768128
0.600727
0.433891
0.271469
0.117392
-0.0245712
-0.15041
-0.257243
-0.343258
-0.407143
-0.446531
-0.465023
-0.468881
-0.465154
-0.460291
-0.459044
-0.464038
-0.475999
-0.494363
-0.517854
-0.544319
-0.571846
-0.598029
-0.619902
-0.634348
-0.638651
-0.631075
-0.611222
-0.580038
-0.539524
-0.492296
-0.441423
-0.389811
-0.340351
-0.296507
-0.261853
-0.239864
-0.233403
-0.244055
-0.271534
-0.313396
-0.365182
-0.421043
-0.474671
-0.52076
-0.556057
-0.578524
-0.58733
-0.582895
-0.56657
-0.540314
-0.506495
-0.467011
-0.425312
-0.386926
-0.35743
-0.341137
-0.339729
-0.351535
-0.372014
-0.395353
-0.416505
-0.43279
-0.445243
-0.455143
-0.464236
-0.473927
-0.484707
-0.495877
-0.505544
-0.511
-0.509346
-0.497185
-0.471426
-0.428179
-0.359026
-0.261665
-0.151899
-0.0510544
0.0206444
0.0505604
0.0373383
-0.00936356
-0.0723946
-0.132018
-0.170819
-0.183601
-0.171652
-0.136299
-0.0782112
0.00150642
0.101453
0.221328
0.356834
0.495803
0.623619
0.726985
0.79599
0.825063
0.812766
0.760909
0.673798
0.558165
0.425296
0.286937
0.152797
0.0310394
-0.069986
-0.13945
-0.179788
-0.200112
-0.21196
-0.224679
-0.241903
-0.2606
-0.272906
-0.269798
-0.245036
-0.190887
-0.114487
-0.0385048
0.0103737
0.00881233
-0.0576462
-0.191896
-0.385573
-0.621691
-0.878211
-0.78296
0
1.59813
3.94391
6.73011
9.4697
11.6025
12.626
12.2375
10.4535
7.64744
4.45795
1.58262
-0.456636
-1.46336
-1.57257
-1.11086
-0.573592
-0.140908
0.0855019
0.15642
0.2239
0.28843
0.348801
0.402187
0.446108
0.479213
0.501896
0.516523
0.527156
0.538799
0.55638
0.583416
0.621008
0.668704
0.725153
0.788285
0.855648
0.924809
0.994071
1.06285
1.13179
1.20257
1.27746
1.35875
1.44817
1.54637
1.65273
1.76561
1.88262
2.00095
2.11779
2.23068
2.33771
2.43745
2.52845
2.60823
2.67298
2.71888
2.74141
2.73565
2.69738
2.62428
2.51664
2.37749
2.21208
2.02695
1.83027
1.62858
1.42628
1.22685
1.03328
0.848205
0.673969
0.512672
0.366106
0.235596
0.121776
0.0244682
-0.0573273
-0.125619
-0.183607
-0.234853
-0.282575
-0.329043
-0.375153
-0.42032
-0.4627
-0.499788
-0.529182
-0.549285
-0.559787
-0.561778
-0.557483
-0.549732
-0.541309
-0.534326
-0.529926
-0.528299
-0.528858
-0.530616
-0.532626
-0.534372
-0.535987
-0.538342
-0.542872
-0.55126
-0.565041
-0.585242
-0.612102
-0.644971
-0.682368
-0.722203
-0.762111
-0.799862
-0.833714
-0.862574
-0.885908
-0.903781
-0.916674
-0.92528
-0.930347
-0.932594
-0.932713
-0.931414
-0.929548
-0.928103
-0.928152
-0.930739
-0.936739
-0.946717
-0.96082
-0.978703
-0.999509
-1.02188
-1.0441
-1.06422
-1.08029
-1.09062
-1.09397
-1.08971
-1.07779
-1.0587
-1.03324
-1.00245
-0.967398
-0.929063
-0.888345
-0.846082
-0.802986
-0.759572
-0.715994
-0.671928
-0.626572
-0.578829
-0.527184
-0.469884
-0.407613
-0.345681
-0.292292
-0.256779
-0.247505
-0.270204
-0.327069
-0.416431
-0.532764
-0.666659
-0.806174
-0.941203
-1.06391
-1.16992
-1.25802
-1.32779
-1.38028
-1.41709
-1.43947
-1.4477
-1.44063
-1.40742
-1.33211
-1.23116
-1.13638
-1.08387
-1.09748
-1.17645
-1.2951
-1.41496
-1.50242
-1.54242
-1.55787
-1.41724
-0.963367
0
1.69406
4.10225
6.87467
9.39618
10.9806
11.1186
9.68301
7.00514
3.76737
0.747337
-1.47406
-2.69176
-3.0564
-2.8888
-2.49345
-2.01204
-1.48865
-0.960789
-0.564694
-0.442469
-0.403185
-0.38056
-0.362146
-0.343931
-0.323569
-0.300953
-0.278407
-0.259387
-0.246896
-0.242019
-0.243093
-0.245738
-0.243707
-0.23027
-0.200386
-0.152256
-0.0862215
-0.00361443
0.0935915
0.202762
0.320802
0.444496
0.570757
0.696806
0.820295
0.939425
1.05304
1.16069
1.26258
1.35937
1.45189
1.54045
1.62428
1.70103
1.76727
1.8185
1.85002
1.8579
1.83947
1.7933
1.71893
1.61644
1.48669
1.33347
1.16056
0.971085
0.768491
0.55717
0.342501
0.130352
-0.0732651
-0.262729
-0.433288
-0.580733
-0.702357
-0.798705
-0.872056
-0.925823
-0.96388
-0.99001
-1.00759
-1.01951
-1.02818
-1.03577
-1.04411
-1.05455
-1.06781
-1.08395
-1.10241
-1.12217
-1.14192
-1.16022
-1.17568
-1.18674
-1.19183
-1.18958
-1.17835
-1.15675
-1.12587
-1.0905
-1.0574
-1.03371
-1.02519
-1.03476
-1.06155
-1.10079
-1.14445
-1.18248
-1.20523
-1.19348
-1.10684
-0.962294
-0.81086
-0.712098
-0.706255
-0.793757
-0.934698
-1.07055
-1.15613
-1.181
-1.18329
-1.1788
-1.17349
-1.16916
-1.1637
-1.15299
-1.13337
-1.10394
-1.06819
-1.02944
-0.990706
-0.954833
-0.924076
-0.899581
-0.881359
-0.868425
-0.859067
-0.851192
-0.842661
-0.831562
-0.816381
-0.79607
-0.770084
-0.73797
-0.699422
-0.654258
-0.602467
-0.544297
-0.480332
-0.411545
-0.339288
-0.265196
-0.191278
-0.120713
-0.0591549
-0.0125742
0.0128407
0.0123392
-0.0154852
-0.0674269
-0.135822
-0.210325
-0.280759
-0.340259
-0.389275
-0.42902
-0.462099
-0.491888
-0.521361
-0.55211
-0.583827
-0.614316
-0.639997
-0.656757
-0.661393
-0.650699
-0.620129
-0.567213
-0.500717
-0.439668
-0.404834
-0.413401
-0.474446
-0.586596
-0.738475
-0.911317
-0.763244
0
1.4984
3.68517
6.3
8.88251
10.8629
11.7311
11.2224
9.42944
6.77331
3.84469
1.2049
-0.757396
-1.87471
-2.1718
-1.84148
-1.16653
-0.435893
0.120262
0.387242
0.418837
0.440895
0.463478
0.487208
0.512257
0.537772
0.562269
0.584348
0.603378
0.619908
0.63561
0.652811
0.673818
0.700369
0.732955
0.771625
0.816714
0.868799
0.928834
0.998023
1.0775
1.16795
1.26927
1.38028
1.49941
1.62487
1.75464
1.88656
2.01842
2.14788
2.27268
2.39076
2.5005
2.60078
2.69069
2.76874
2.83351
2.88361
2.91665
2.92927
2.91765
2.87839
2.80936
2.71051
2.58427
2.43546
2.27108
2.09864
1.92513
1.75592
1.59461
1.44388
1.30535
1.17977
1.06727
0.96764
0.880277
0.80439
0.739082
0.683362
0.63612
0.596163
0.562325
0.532727
0.505114
0.477383
0.448044
0.416647
0.383995
0.35203
0.323375
0.30066
0.285414
0.278006
0.278162
0.284423
0.294417
0.305326
0.314459
0.319732
0.319975
0.315027
0.30563
0.29315
0.279214
0.265343
0.252657
0.241732
0.232697
0.225442
0.219742
0.215397
0.212276
0.210285
0.20926
0.20882
0.208252
0.206573
0.202698
0.195687
0.185004
0.170683
0.153351
0.13407
0.114034
0.094191
0.0749638
0.0560673
0.0364016
0.0146185
-0.010165
-0.0377302
-0.0664797
-0.0937117
-0.116393
-0.131923
-0.138527
-0.137678
-0.132573
-0.126675
-0.122131
-0.118777
-0.114211
-0.104932
-0.0871386
-0.05804
-0.0233458
0.00706787
0.0237377
0.0224974
0.00711288
-0.0117477
-0.0207212
-0.00897388
0.0260489
0.0768766
0.137754
0.205349
0.276586
0.348766
0.419147
0.48414
0.539624
0.58107
0.603905
0.604711
0.582409
0.538815
0.478254
0.406359
0.328574
0.249146
0.170203
0.0925812
0.0167257
-0.0568695
-0.127472
-0.194006
-0.255049
-0.309073
-0.354614
-0.390491
-0.416023
-0.431234
-0.435902
-0.430719
-0.419764
-0.408512
-0.402452
-0.40586
-0.420867
-0.447175
-0.482484
-0.523387
-0.566298
-0.608169
-0.501211
0
1.15317
3.12575
5.78738
8.67204
11.0976
12.3968
12.165
10.4215
7.61838
4.482
1.74445
-0.118249
-1.01506
-1.17607
-0.890663
-0.589461
-0.28734
-0.0262541
0.141859
0.24916
0.331137
0.401402
0.464776
0.523071
0.576649
0.624708
0.665599
0.697796
0.720867
0.736088
0.74652
0.756539
0.771023
0.793908
0.827469
0.872965
0.930585
0.999344
1.07736
1.16227
1.25177
1.34404
1.43809
1.53386
1.63209
1.73392
1.84034
1.95165
2.06696
2.18405
2.29913
2.40696
2.50206
2.57963
2.63624
2.67028
2.68186
2.67231
2.64355
2.59734
2.53549
2.4593
2.36909
2.26453
2.14526
2.01113
1.8625
1.70033
1.52632
1.34294
1.15342
0.961664
0.77206
0.589197
0.417541
0.261531
0.125022
0.010166
-0.0822397
-0.152757
-0.203137
-0.235998
-0.2544
-0.261412
-0.259774
-0.251872
-0.239713
-0.224895
-0.209225
-0.195318
-0.186533
-0.185979
-0.195569
-0.215007
-0.241282
-0.269045
-0.291933
-0.304474
-0.300916
-0.282828
-0.25827
-0.237684
-0.229723
-0.238065
-0.260608
-0.291211
-0.322933
-0.351142
-0.375911
-0.399115
-0.422896
-0.449191
-0.478899
-0.511445
-0.54483
-0.576142
-0.602363
-0.621552
-0.632794
-0.635794
-0.632652
-0.627717
-0.625951
-0.631727
-0.647774
-0.674553
-0.710194
-0.75101
-0.792409
-0.830066
-0.861351
-0.885248
-0.901113
-0.909522
-0.91197
-0.910089
-0.905171
-0.897966
-0.888809
-0.877751
-0.86532
-0.853202
-0.843108
-0.835324
-0.827438
-0.814249
-0.789267
-0.74734
-0.687165
-0.613902
-0.535305
-0.457553
-0.386279
-0.325448
-0.276877
-0.240492
-0.215137
-0.199605
-0.193283
-0.197424
-0.214117
-0.246018
-0.295444
-0.363404
-0.448891
-0.548638
-0.657417
-0.76881
-0.876226
-0.974503
-1.06037
-1.13142
-1.18649
-1.22572
-1.25014
-1.26134
-1.26122
-1.25185
-1.23549
-1.21455
-1.19161
-1.16944
-1.15136
-1.14081
-1.14044
-1.15179
-1.17487
-1.20799
-1.24793
-1.39237
-1.08427
0
1.95497
4.5803
7.41973
9.87092
11.3349
11.3789
9.88759
7.14773
3.80054
0.639248
-1.67714
-2.8564
-3.02855
-2.60284
-2.02225
-1.55763
-1.25657
-1.02421
-0.763851
-0.545901
-0.392386
-0.284856
-0.209197
-0.15361
-0.110543
-0.076378
-0.0476417
-0.0210318
0.00631132
0.0366527
0.0716695
0.112474
0.159898
0.214354
0.276008
0.345065
0.421851
0.506726
0.599854
0.700937
0.809139
0.923028
1.04101
1.1618
1.28474
1.40981
1.53721
1.66676
1.79721
1.92566
2.0476
2.15761
2.25023
2.32089
2.36634
2.38487
2.37604
2.34038
2.27957
2.19518
2.08917
1.96409
1.82314
1.67093
1.5124
1.35218
1.19473
1.04411
0.903535
0.775048
0.65933
0.555723
0.462445
0.376952
0.296367
0.217951
0.139527
0.0598091
-0.0213891
-0.103101
-0.183259
-0.258768
-0.325541
-0.379096
-0.415896
-0.433556
-0.431341
-0.410475
-0.374157
-0.32725
-0.275667
-0.225568
-0.182469
-0.150562
-0.132194
-0.127615
-0.135011
-0.150809
-0.170213
-0.187936
-0.199029
-0.199696
-0.18849
-0.16619
-0.134316
-0.0954496
-0.0535418
-0.0130836
0.0218349
0.0481067
0.0639516
0.0689706
0.0639277
0.050331
0.0299336
0.00434361
-0.0252212
-0.0580977
-0.0940085
-0.13276
-0.17394
-0.216683
-0.259592
-0.300831
-0.338413
-0.37058
-0.395939
-0.413728
-0.424537
-0.429649
-0.430509
-0.428196
-0.423086
-0.414792
-0.402406
-0.384896
-0.361514
-0.33238
-0.297966
-0.258853
-0.215706
-0.169062
-0.11914
-0.065797
-0.00859289
0.0530698
0.119948
0.192792
0.271291
0.352364
0.429353
0.49308
0.533857
0.54351
0.517491
0.456511
0.367157
0.261026
0.15219
0.0535342
-0.028242
-0.0946214
-0.147588
-0.19118
-0.229423
-0.264438
-0.295475
-0.319265
-0.331575
-0.325762
-0.298584
-0.259967
-0.225633
-0.210935
-0.224505
-0.264605
-0.319655
-0.372575
-0.407001
-0.415454
-0.403971
-0.379701
-0.331142
0
0.703715
1.99961
3.97591
6.46548
9.02198
11.0293
11.9135
11.3623
9.45579
6.64574
3.60033
0.976304
-0.787155
-1.57467
-1.56391
-1.07775
-0.5811
-0.125978
0.239848
0.473812
0.644801
0.748895
0.778428
0.741951
0.666259
0.590427
0.552719
0.576152
0.644489
0.733524
0.831235
0.930613
1.02572
1.1118
1.18573
1.24679
1.2962
1.33683
1.37286
1.40941
1.45208
1.50636
1.577
1.66726
1.77771
1.90692
2.05189
2.20782
2.36868
2.527
2.67511
2.80631
2.91565
3.00028
3.05942
3.09393
3.10565
3.09675
3.06936
3.02556
2.96658
2.89288
2.80462
2.70187
2.58482
2.45402
2.31052
2.15598
1.99287
1.8244
1.65438
1.48689
1.32584
1.17461
1.0357
0.910593
0.799767
0.702844
0.618775
0.546075
0.483065
0.428093
0.379725
0.336916
0.299135
0.26644
0.239535
0.219773
0.208702
0.207784
0.218035
0.239599
0.272057
0.313574
0.360001
0.405376
0.443464
0.468962
0.478494
0.471244
0.44911
0.416347
0.378771
0.342653
0.313145
0.292875
0.28336
0.284897
0.292532
0.298667
0.296083
0.280462
0.252052
0.21576
0.179506
0.151444
0.137106
0.135369
0.143492
0.157451
0.172579
0.184836
0.191629
0.191999
0.186296
0.175585
0.161294
0.144567
0.125909
0.105444
0.0829359
0.0578218
0.0295618
-0.00205688
-0.0364834
-0.0721563
-0.10544
-0.131186
-0.143867
-0.138995
-0.114453
-0.0712671
-0.0135365
0.0524738
0.119769
0.182506
0.237671
0.283746
0.320672
0.349814
0.373499
0.394503
0.415558
0.438915
0.466123
0.497931
0.534262
0.574221
0.615884
0.656206
0.691461
0.717703
0.731192
0.728805
0.708391
0.669029
0.611202
0.536873
0.44952
0.35398
0.255539
0.159423
0.0703428
-0.00792561
-0.0725496
-0.122011
-0.156146
-0.176012
-0.183576
-0.181577
-0.173159
-0.161636
-0.150325
-0.142612
-0.141856
-0.150698
-0.170884
-0.202915
-0.245792
-0.296994
-0.352774
-0.412775
0
1.09735
2.96553
5.47427
8.26892
10.8175
12.5227
12.8896
11.7117
9.19788
5.95172
2.7729
0.35548
-0.966317
-1.28843
-0.958154
-0.54863
-0.183955
0.0798868
0.267781
0.395008
0.489466
0.56331
0.620644
0.663248
0.69488
0.720342
0.744231
0.769763
0.797903
0.827868
0.857886
0.885917
0.910524
0.931533
0.950277
0.969428
0.992484
1.02311
1.06405
1.117
1.18306
1.26266
1.35558
1.46107
1.57797
1.70474
1.83934
1.97915
2.12082
2.26023
2.39259
2.51304
2.61721
2.70166
2.76423
2.80412
2.8217
2.81809
2.79482
2.75337
2.69495
2.62041
2.53032
2.42544
2.30675
2.17522
2.03204
1.87887
1.71783
1.55154
1.38308
1.21586
1.05356
0.899872
0.758288
0.631791
0.522591
0.431903
0.359788
0.305118
0.265905
0.239487
0.221579
0.205859
0.186189
0.157913
0.118962
0.0705257
0.0167595
-0.0350698
-0.0767823
-0.101305
-0.104436
-0.0858623
-0.0492003
-0.00112076
0.0501325
0.0966466
0.132699
0.154172
0.159116
0.147613
0.12135
0.0830868
0.0361522
-0.0157732
-0.069197
-0.121093
-0.168674
-0.209605
-0.24217
-0.26546
-0.27948
-0.285113
-0.283961
-0.278085
-0.269743
-0.26116
-0.254597
-0.251988
-0.254826
-0.264091
-0.280194
-0.302983
-0.331777
-0.365388
-0.402079
-0.439422
-0.474611
-0.504446
-0.525774
-0.53492
-0.526084
-0.501537
-0.470243
-0.442795
-0.426836
-0.423636
-0.427759
-0.430191
-0.421711
-0.401324
-0.378365
-0.367115
-0.378393
-0.412834
-0.459679
-0.501458
-0.521471
-0.509914
-0.476803
-0.430404
-0.37454
-0.312659
-0.248048
-0.183723
-0.121827
-0.0632245
-0.00725594
0.0483253
0.109717
0.213449
0.439421
0.748366
1.01296
1.08608
0.886139
0.448568
-0.082583
-0.512419
-0.678947
-0.695887
-0.675342
-0.631703
-0.579889
-0.53268
-0.49821
-0.476476
-0.468152
-0.472119
-0.486137
-0.507265
-0.532593
-0.559819
-0.587217
-0.613693
-0.638899
-0.66324
-0.687737
-0.713748
-0.742603
-0.775136
-0.811378
-0.855325
-0.73521
0
1.55068
3.86846
6.63621
9.33908
11.3859
12.2568
11.6559
9.6366
6.63411
3.3502
0.51121
-1.39195
-2.2433
-2.25262
-1.75979
-1.1988
-0.695005
-0.356751
-0.256216
-0.194901
-0.136224
-0.0758456
-0.011965
0.0555975
0.125377
0.194708
0.260394
0.319448
0.369702
0.41017
0.440926
0.463564
0.480782
0.496158
0.513881
0.5384
0.573971
0.624149
0.691326
0.775973
0.877324
0.993578
1.12195
1.25874
1.40024
1.54274
1.68262
1.8166
1.9419
2.0564
2.15873
2.24825
2.32478
2.38827
2.43858
2.47576
2.49981
2.5104
2.50699
2.48886
2.45513
2.40463
2.3358
2.24671
2.13592
2.00282
1.84716
1.66959
1.47259
1.26076
1.04072
0.820603
0.610225
0.41966
0.257041
0.127804
0.0340822
-0.0253395
-0.0545368
-0.0595913
-0.0475896
-0.0257049
-0.000622749
0.0221545
0.037845
0.0432643
0.0368516
0.0188551
-0.00856361
-0.0414856
-0.0747749
-0.102999
-0.121547
-0.128226
-0.122971
-0.106738
-0.0832572
-0.0583694
-0.0378456
-0.0260891
-0.0252842
-0.0351783
-0.0534897
-0.0767585
-0.101338
-0.124263
-0.144025
-0.160264
-0.173052
-0.182809
-0.190185
-0.195898
-0.200624
-0.204952
-0.209355
-0.214206
-0.219802
-0.226391
-0.234209
-0.243503
-0.254552
-0.267698
-0.283326
-0.301839
-0.323577
-0.348687
-0.376968
-0.407754
-0.439764
-0.470854
-0.498292
-0.519216
-0.531125
-0.532299
-0.522033
-0.500614
-0.469085
-0.428918
-0.381722
-0.329361
-0.273535
-0.215709
-0.157399
-0.100163
-0.0453079
0.00636024
0.0547012
0.100218
0.143799
0.186287
0.227971
0.26816
0.304977
0.335473
0.356028
0.362918
0.352939
0.324
0.27562
0.209268
0.128469
0.0386454
-0.0536333
-0.141559
-0.219371
-0.282935
-0.329087
-0.358331
-0.373574
-0.379021
-0.379045
-0.377274
-0.376142
-0.376931
-0.380162
-0.386074
-0.39473
-0.406493
-0.421822
-0.441032
-0.464091
-0.490507
-0.519306
-0.54911
-0.49324
0
1.23077
3.32781
6.08791
8.97037
11.2599
12.3287
11.8659
9.97533
7.11697
3.94054
1.08695
-0.978074
-2.06164
-2.25175
-1.84857
-1.2301
-0.686379
-0.353212
-0.201301
-0.0457595
0.136797
0.316231
0.481301
0.618959
0.718252
0.774164
0.790289
0.778777
0.756995
0.741889
0.744314
0.763014
0.791428
0.823621
0.854227
0.880799
0.905033
0.932405
0.970397
1.02595
1.10241
1.1972
1.3057
1.4237
1.54709
1.67231
1.79692
1.9197
2.04019
2.15776
2.27043
2.37436
2.4643
2.53452
2.5805
2.6003
2.59492
2.56765
2.52264
2.4633
2.39199
2.30977
2.21627
2.11015
1.98977
1.85405
1.70285
1.53712
1.35896
1.17142
0.97843
0.784548
0.594708
0.413838
0.246389
0.0958967
-0.0351695
-0.145795
-0.237131
-0.312246
-0.374782
-0.427909
-0.473383
-0.510984
-0.538486
-0.549358
-0.518429
-0.399733
-0.219769
-0.0383573
0.0765909
0.0809126
-0.0255229
-0.200851
-0.382977
-0.51737
-0.576491
-0.593714
-0.590473
-0.573858
-0.546728
-0.511386
-0.470372
-0.426933
-0.385223
-0.349634
-0.324056
-0.311137
-0.311618
-0.324011
-0.344799
-0.369212
-0.392393
-0.41064
-0.422743
-0.428913
-0.431562
-0.433949
-0.438915
-0.447821
-0.460071
-0.473364
-0.48455
-0.490765
-0.490746
-0.48524
-0.475697
-0.464116
-0.452853
-0.444185
-0.439969
-0.441448
-0.449169
-0.462964
-0.481925
-0.504349
-0.527807
-0.54879
-0.563211
-0.567162
-0.5578
-0.534193
-0.495686
-0.44607
-0.393465
-0.346036
-0.309138
-0.283132
-0.262639
-0.237487
-0.19509
-0.0950074
0.130919
0.428276
0.69873
0.849607
0.838221
0.689207
0.475801
0.275819
0.13023
0.0242942
-0.0678
-0.152581
-0.22985
-0.297353
-0.351106
-0.382566
-0.381464
-0.351778
-0.311274
-0.282066
-0.282495
-0.320247
-0.389562
-0.473519
-0.550459
-0.602032
-0.625641
-0.629868
-0.621842
-0.60573
-0.585569
-0.564309
-0.543329
-0.522553
-0.491101
0
1.07217
2.7663
4.97283
7.41829
9.68377
11.2757
11.7517
10.8833
8.78382
5.91873
2.96129
0.543802
-0.965021
-1.5389
-1.30425
-0.808142
-0.299749
0.146202
0.44269
0.591083
0.61678
0.545356
0.428312
0.327157
0.291141
0.3283
0.400533
0.486609
0.575651
0.65745
0.724086
0.770971
0.797243
0.805591
0.801655
0.793136
0.788573
0.795875
0.821893
0.870968
0.943285
1.03662
1.14876
1.27675
1.41684
1.56509
1.71782
1.8721
2.02587
2.17789
2.32667
2.46899
2.599
2.70793
2.7853
2.82313
2.81977
2.78094
2.7172
2.6394
2.55443
2.46487
2.37095
2.27205
2.16704
2.05532
1.93676
1.81159
1.68018
1.54303
1.40081
1.25472
1.10689
0.960472
0.819431
0.688021
0.570403
0.470587
0.390569
0.328436
0.280394
0.241941
0.209103
0.179315
0.151726
0.126934
0.106378
0.0915056
0.0828895
0.0810327
0.0859812
0.0971582
0.11376
0.133983
0.154765
0.172552
0.183878
0.186005
0.177444
0.158181
0.129532
0.0937141
0.0532876
0.0108486
-0.0314723
-0.0718511
-0.108411
-0.138859
-0.160408
-0.17006
-0.164164
-0.134573
-0.0695476
0.0302917
0.143534
0.243349
0.306225
0.31931
0.283665
0.212831
0.127846
0.0505493
-0.00446472
-0.0372807
-0.0534118
-0.0576742
-0.0526068
-0.0405697
-0.0236526
-0.00368538
0.0176443
0.0374455
0.0516299
0.05572
0.0462539
0.0223994
-0.0130242
-0.0536961
-0.0911637
-0.11695
-0.126435
-0.120321
-0.0987725
-0.0632721
-0.0166497
0.0375006
0.0954364
0.153939
0.210653
0.26416
0.313979
0.360506
0.404864
0.448684
0.493844
0.542183
0.59537
0.654872
0.721035
0.789985
0.852529
0.89753
0.914935
0.898807
0.849158
0.771805
0.676251
0.572556
0.46862
0.368211
0.272207
0.18147
0.0984107
0.0263334
-0.0313129
-0.0710551
-0.0903675
-0.0885693
-0.0673178
-0.0305662
0.0159427
0.0653936
0.110774
0.143889
0.156261
0.141435
0.0949081
0.01521
-0.0950819
-0.228924
-0.37543
-0.504334
0
1.29421
3.34692
5.9401
8.70908
11.1751
12.7967
13.0988
11.8691
9.31842
6.07069
2.94223
0.614775
-0.610444
-0.85116
-0.423159
0.0376957
0.452521
0.745882
0.896996
0.991853
1.06509
1.11716
1.14741
1.1578
1.15337
1.14199
1.13319
1.13641
1.15903
1.20195
1.26217
1.33646
1.42136
1.51275
1.60626
1.69777
1.78359
1.86086
1.92883
1.98862
2.04323
2.09741
2.15706
2.22843
2.31694
2.42597
2.55589
2.70241
2.85944
3.02017
3.17581
3.31786
3.43971
3.5374
3.60981
3.65802
3.68435
3.69103
3.67932
3.64899
3.59848
3.52568
3.42894
3.30801
3.16457
3.00218
2.82575
2.641
2.45325
2.26635
2.08334
1.90648
1.73757
1.5782
1.42995
1.29447
1.17342
1.06819
0.979692
0.908016
0.852329
0.810997
0.781736
0.761325
0.746015
0.732309
0.717352
0.699171
0.676738
0.649874
0.619091
0.585456
0.550564
0.516396
0.485623
0.461159
0.445784
0.441541
0.44911
0.467417
0.49363
0.523621
0.552757
0.576869
0.592942
0.599545
0.596842
0.586239
0.569832
0.549845
0.528252
0.506503
0.485595
0.466337
0.44955
0.436091
0.426831
0.422517
0.423572
0.429917
0.44087
0.455141
0.47093
0.486078
0.498282
0.505131
0.504506
0.49502
0.476259
0.449034
0.415218
0.378128
0.342286
0.312294
0.292037
0.284135
0.289802
0.30908
0.341266
0.385253
0.43888
0.500121
0.567448
0.636846
0.702699
0.759568
0.803808
0.834941
0.856167
0.873712
0.895129
0.929039
0.986723
1.06198
1.13422
1.17892
1.17804
1.12762
1.03877
0.931831
0.82688
0.735684
0.655196
0.580076
0.507988
0.438332
0.371908
0.310995
0.258928
0.2193
0.197288
0.201543
0.233806
0.279982
0.322143
0.345438
0.343961
0.322683
0.294376
0.273114
0.267847
0.277088
0.294566
0.314689
0.331521
0.0144943
0
0.864947
2.87766
5.85238
9.14702
11.8725
13.2242
12.7891
10.7023
7.57819
4.25361
1.46272
-0.398014
-1.31036
-1.501
-1.23205
-0.760485
-0.181832
0.404698
0.851683
0.989065
1.01218
1.01304
1.00612
0.999935
1.00164
1.01563
1.04109
1.07496
1.11445
1.15677
1.19913
1.23894
1.27425
1.30427
1.32946
1.35164
1.37397
1.40079
1.4372
1.48843
1.55913
1.65172
1.76624
1.90146
2.05425
2.21951
2.39076
2.56035
2.72049
2.86448
2.98759
3.08756
3.16467
3.22133
3.26133
3.2889
3.30767
3.31995
3.3254
3.32106
3.30208
3.26227
3.19564
3.09811
2.9689
2.81128
2.63241
2.4422
2.25158
2.06949
1.90184
1.75244
1.62236
1.51023
1.41302
1.3268
1.24756
1.17175
1.09672
1.02091
0.943811
0.866376
0.791647
0.724471
0.670336
0.634218
0.619333
0.62623
0.652494
0.693155
0.741702
0.791399
0.836758
0.874873
0.905003
0.927404
0.942602
0.951528
0.955357
0.955362
0.952843
0.949155
0.94578
0.944349
0.946566
0.954028
0.968056
0.989506
1.01839
1.05308
1.08909
1.11947
1.13696
1.13596
1.11436
1.07471
1.02413
0.972905
0.93187
0.91164
0.923633
0.958859
0.99881
1.02354
1.02035
0.989098
0.941974
0.898022
0.874971
0.88016
0.911739
0.956505
0.996143
1.01488
1.00624
0.976041
0.939865
0.916157
0.917933
0.944915
0.985248
1.03251
1.08152
1.13014
1.18011
1.23616
1.30814
1.41037
1.53751
1.66517
1.76338
1.80887
1.79253
1.7201
1.6079
1.47689
1.3472
1.23071
1.12859
1.03851
0.958213
0.886225
0.822303
0.766814
0.720806
0.686238
0.669376
0.675614
0.697776
0.723922
0.742187
0.746274
0.738023
0.724961
0.71386
0.704054
0.682512
0.627803
0.519378
0.347451
0.118619
-0.155288
0
1.05098
3.00874
5.59188
8.33823
10.7424
12.3522
12.8338
12.0394
10.0824
7.36107
4.46549
1.98148
0.286321
-0.547404
-0.684507
-0.401395
0.0299955
0.496897
0.9089
1.17453
1.29184
1.37177
1.44101
1.50498
1.56478
1.62007
1.67019
1.71432
1.75186
1.78279
1.8078
1.82838
1.84671
1.86538
1.88707
1.91421
1.9488
1.99221
2.04511
2.10748
2.17897
2.25886
2.3464
2.44112
2.54282
2.65134
2.76621
2.88618
3.00902
3.13122
3.24835
3.35575
3.44928
3.52589
3.58384
3.62268
3.64285
3.64522
3.63089
3.60034
3.55353
3.48977
3.40788
3.30641
3.18437
3.04209
2.88091
2.70357
2.51474
2.32074
2.12885
1.9464
1.78024
1.63567
1.51439
1.41531
1.33527
1.26988
1.21451
1.16499
1.118
1.07123
1.02341
0.974324
0.92451
0.875208
0.828201
0.785531
0.749128
0.720812
0.701935
0.692485
0.691879
0.699396
0.714541
0.737113
0.767412
0.806835
0.852651
0.895414
0.922695
0.923202
0.891551
0.831444
0.755553
0.681835
0.627534
0.600631
0.597057
0.613291
0.640886
0.670611
0.695574
0.713178
0.725197
0.736041
0.750025
0.769609
0.791432
0.807813
0.8099
0.791427
0.751347
0.694275
0.628763
0.564401
0.508896
0.464298
0.430024
0.406127
0.392679
0.389304
0.395372
0.410062
0.431308
0.455976
0.480491
0.501391
0.515981
0.522916
0.522551
0.516968
0.509638
0.504793
0.506573
0.518267
0.541421
0.575374
0.618013
0.666678
0.718181
0.768994
0.815961
0.856733
0.889911
0.914935
0.931746
0.940368
0.940085
0.930058
0.908993
0.875522
0.828742
0.768739
0.696933
0.616122
0.530239
0.443878
0.361311
0.286204
0.221466
0.169262
0.130655
0.105506
0.0930006
0.0919209
0.100783
0.117733
0.141316
0.167513
0.186375
0.184229
0.145912
0.0581141
-0.109553
-0.35338
-0.655164
-0.986309
-0.872598
0
1.67674
4.02752
6.73749
9.3659
11.4295
12.4965
12.2898
10.7825
8.24842
5.22098
2.34442
0.160889
-1.067
-1.40925
-1.11847
-0.7017
-0.283157
0.0403776
0.226493
0.314857
0.375428
0.425449
0.469481
0.509377
0.546112
0.580256
0.612148
0.641946
0.669832
0.696164
0.721525
0.746646
0.772269
0.799126
0.827873
0.859347
0.894908
0.936686
0.98754
1.05061
1.12858
1.22279
1.33268
1.45492
1.58521
1.71922
1.85285
1.9828
2.10686
2.22377
2.33181
2.4285
2.51135
2.5775
2.62396
2.64858
2.65085
2.6321
2.59495
2.54227
2.47626
2.39894
2.3116
2.21443
2.10677
1.98806
1.85813
1.71727
1.56646
1.40733
1.24228
1.07462
0.90839
0.748224
0.598662
0.463611
0.346973
0.250201
0.172304
0.110975
0.0634248
0.0271547
0.000373745
-0.0180365
-0.0289128
-0.0333075
-0.0329392
-0.0299047
-0.0265623
-0.0251126
-0.0272166
-0.0337847
-0.0449664
-0.0602775
-0.078737
-0.0989624
-0.119503
-0.138778
-0.155218
-0.167486
-0.174689
-0.176431
-0.173152
-0.165841
-0.155785
-0.144276
-0.132394
-0.120886
-0.110056
-0.0997119
-0.089183
-0.0774163
-0.0632444
-0.0457396
-0.0239433
-0.000212479
0.0194533
0.0277291
0.0188671
-0.00866528
-0.0512418
-0.101379
-0.150566
-0.192102
-0.224565
-0.249528
-0.267285
-0.278135
-0.282335
-0.280097
-0.271768
-0.258076
-0.240379
-0.220441
-0.200392
-0.182483
-0.169022
-0.16157
-0.160435
-0.164459
-0.170929
-0.175844
-0.174608
-0.163038
-0.138446
-0.0994909
-0.0484509
0.0103322
0.0717126
0.131073
0.185194
0.232412
0.271575
0.3025
0.325264
0.340369
0.349514
0.356332
0.366495
0.388515
0.446307
0.561238
0.70228
0.812347
0.834009
0.737785
0.539371
0.296327
0.0830776
-0.0454891
-0.105138
-0.138966
-0.158887
-0.17544
-0.194738
-0.217473
-0.24015
-0.257789
-0.266806
-0.268369
-0.265343
-0.260972
-0.25917
-0.263836
-0.278073
-0.303737
-0.341156
-0.389046
-0.44464
-0.504035
-0.512561
0
1.27926
3.39528
6.1506
9.08689
11.583
13.0203
12.9795
11.4
8.62907
5.31671
2.18893
-0.192932
-1.57367
-2.00241
-1.72187
-1.05805
-0.303727
0.312893
0.658573
0.730228
0.795988
0.863638
0.930897
0.993185
1.04404
1.07748
1.09072
1.0858
1.06952
1.05151
1.04161
1.04694
1.06721
1.10072
1.14667
1.20409
1.27162
1.34782
1.43136
1.52121
1.61672
1.71776
1.82484
1.93923
2.06325
2.20044
2.35573
2.53534
2.74639
2.99624
3.29139
3.63643
4.033
4.47907
4.96883
5.49304
6.0399
6.59624
7.14877
7.6853
8.19565
8.67225
9.10956
9.50442
9.85604
10.1641
10.4269
10.6417
10.8078
10.9272
10.9932
10.9894
10.8952
10.6947
10.3856
9.98517
9.53125
9.07635
8.66433
8.32836
8.08852
7.94753
7.89299
7.90339
7.95538
8.02952
8.11155
8.19445
8.27543
8.3528
8.42525
8.49191
8.55239
8.60678
8.65558
8.69931
8.73779
8.7704
8.7962
8.81372
8.82161
8.81917
8.80643
8.78376
8.75118
8.70783
8.65271
8.58454
8.50252
8.40742
8.30189
8.19011
8.07704
7.96762
7.86503
7.77228
7.69216
7.62711
7.58169
7.56865
7.60307
7.6661
7.72443
7.73922
7.67921
7.53156
7.30521
7.02619
6.72796
6.44121
6.17401
5.92323
5.68912
5.4718
5.27009
5.08202
4.90542
4.73837
4.57941
4.42753
4.28199
4.14195
4.00593
3.87219
3.73927
3.60666
3.47539
3.34815
3.22886
3.12217
3.03564
2.97337
2.92838
2.8882
2.83856
2.76756
2.66861
2.54117
2.38938
2.21978
2.04022
1.85736
1.67512
1.49678
1.32571
1.16541
1.01932
0.890587
0.781723
0.694202
0.628245
0.582881
0.556286
0.545227
0.544751
0.549147
0.552505
0.549148
0.534023
0.503077
0.453612
0.384234
0.290987
0.177722
0.0505854
-0.163349
0
0.867663
2.58394
5.04684
7.88176
10.5104
12.3036
12.7732
11.7421
9.42041
6.34782
3.2161
0.641814
-1.01501
-1.71409
-1.65448
-1.21232
-0.652758
-0.159206
0.205751
0.446783
0.62139
0.768101
0.897535
1.00479
1.08435
1.1328
1.14999
1.13988
1.11063
1.07376
1.04227
1.02812
1.03687
1.06735
1.11579
1.17933
1.25381
1.33421
1.41613
1.4966
1.57451
1.65039
1.72583
1.80283
1.88315
1.96783
2.05753
2.15294
2.25471
2.36336
2.48013
2.60636
2.74
2.8722
2.98998
3.07995
3.13151
3.139
3.10231
3.02603
2.918
2.78739
2.64385
2.49455
2.34313
2.191
2.03867
1.88648
1.73517
1.58622
1.44191
1.30507
1.17866
1.06571
0.968009
0.88494
0.814375
0.753316
0.698712
0.64816
0.60029
0.554779
0.512114
0.473114
0.438548
0.409406
0.386518
0.370402
0.361333
0.359367
0.363175
0.369493
0.374741
0.376194
0.373098
0.367204
0.362391
0.363384
0.373973
0.397225
0.430396
0.466403
0.496753
0.51468
0.517507
0.507306
0.489743
0.471772
0.459253
0.4538
0.454673
0.460884
0.471199
0.484099
0.498037
0.511563
0.523311
0.531885
0.535805
0.533561
0.523735
0.505274
0.477808
0.44192
0.399269
0.352478
0.304803
0.259611
0.219764
0.187359
0.163277
0.14701
0.136953
0.130775
0.125841
0.119596
0.109883
0.0951862
0.0748371
0.0492496
0.0197046
-0.0113794
-0.0401209
-0.0621941
-0.073794
-0.0725435
-0.0580851
-0.032127
0.00211754
0.0409527
0.0813618
0.121933
0.163123
0.206919
0.256265
0.315762
0.393131
0.495348
0.61224
0.72006
0.792581
0.810386
0.767765
0.673969
0.547975
0.409466
0.27146
0.138007
0.00946102
-0.113069
-0.224459
-0.319129
-0.391016
-0.435259
-0.449884
-0.436874
-0.402205
-0.354844
-0.305078
-0.262443
-0.234478
-0.226289
-0.240402
-0.277156
-0.335333
-0.412787
-0.506829
-0.617512
-0.741171
-0.87382
-1.01218
-0.833032
0
1.68668
4.1608
7.07676
9.86938
11.9038
12.6598
11.9038
9.78646
6.81392
3.6854
1.05554
-0.669817
-1.41579
-1.37676
-0.884939
-0.431455
-0.0636244
0.174921
0.275287
0.330356
0.357149
0.375245
0.402298
0.449731
0.51696
0.596586
0.682671
0.770252
0.85466
0.932139
1.00005
1.05566
1.09737
1.12522
1.14044
1.14596
1.14694
1.15101
1.16785
1.20728
1.27711
1.38121
1.51844
1.68279
1.8646
2.05247
2.2358
2.40474
2.55003
2.66636
2.75238
2.80959
2.84187
2.85499
2.85573
2.85062
2.84439
2.83869
2.83159
2.81854
2.79342
2.75003
2.68347
2.59116
2.47318
2.33215
2.17289
2.00331
1.83008
1.65862
1.4938
1.33949
1.19827
1.07117
0.957905
0.857459
0.768762
0.691412
0.626108
0.57522
0.548511
0.575535
0.673932
0.806641
0.912115
0.93161
0.84009
0.662531
0.465429
0.326785
0.299227
0.362029
0.484412
0.616322
0.709303
0.736004
0.699926
0.631553
0.573098
0.558752
0.594923
0.663012
0.738504
0.794357
0.812001
0.788688
0.738025
0.683433
0.64738
0.641357
0.654098
0.674921
0.693518
0.700669
0.690729
0.662613
0.619197
0.565674
0.507716
0.450113
0.395413
0.344961
0.299733
0.260362
0.227093
0.199472
0.176279
0.155853
0.136391
0.116328
0.0946598
0.0711472
0.046307
0.0212242
-0.00280762
-0.0247395
-0.0439907
-0.060651
-0.0756035
-0.0904518
-0.107104
-0.127166
-0.151283
-0.178724
-0.206718
-0.229027
-0.238012
-0.226814
-0.190406
-0.121262
-0.0311672
0.0622749
0.142812
0.202158
0.242863
0.27612
0.315768
0.375094
0.454153
0.53567
0.594512
0.608125
0.564745
0.466853
0.329809
0.17693
0.0326416
-0.0891949
-0.189024
-0.270984
-0.336704
-0.387222
-0.423791
-0.446364
-0.45527
-0.450487
-0.432226
-0.399545
-0.354619
-0.303974
-0.255515
-0.216706
-0.193045
-0.187518
-0.201086
-0.233628
-0.284562
-0.350051
-0.42728
-0.513293
-0.603933
-0.646034
0
1.52052
3.84246
6.63833
9.40341
11.5637
12.6086
12.2404
10.5025
7.8085
4.81991
2.20664
0.405497
-0.492918
-0.682227
-0.405756
-0.126875
0.140786
0.370195
0.534292
0.651053
0.744912
0.826693
0.901421
0.971951
1.0404
1.10783
1.17422
1.23867
1.30018
1.35852
1.41487
1.47193
1.53339
1.60309
1.68397
1.77651
1.87949
1.9912
2.10955
2.23225
2.35742
2.48393
2.61166
2.74147
2.87493
3.0139
3.15989
3.31344
3.47369
3.63855
3.80352
3.96271
4.11004
4.24012
4.34892
4.43309
72
268
466
657
845
1042
1234
1419
1612
1807
1993
2182
2375
2561
2745
2934
3126
3314
3506
3699
2885
3164
3250
3426
3455
3610
2267
2305
2383
2574
2644
2770
2879
2970
3166
3231
3275
3359
3489
3555
3606
3753
3708
3735
0
0
0
0
0
0
0
0
0
0
0
0
0
0
0
0
0
0
0
0
0
0
0
0
0
0
0
0
0
0
0
0
0
0
0
0
0
0
0
0
0
0
0
0
0
0
0
0
0
0
0
0
0
0
0
0
0
0
0
0
0
0
0
0
0
0
0
0
0
0
0
0
0
0
0
0
0
0
0
0
0
0
0
0
0
0
0
0
0
0
0
0
0
0
0
0
0
0
0
0
0
0
0
0
0
0
0
0
0
0
0
0
0
0
0
0
0
0
0
0
0
0
0
0
0
0
0
0
0
0
0
0
0
0
0
0
0
0
0
0
0
0
0
0
0
0
0
0
0
0
0
0
0
0
0
0
0
0
0
0
0
0
0
0
0
0
0
0
0
0
0
0
0
0
0
0
0
0
0
0
0
0
0
0
0
0
0
0
0
0
0
0
0
0
0
0
0
0
0
0
0
0
0
0
0
0
0
0
0
0
0
0
0
0
0
0
0
0
0
0
0
0
0
0
0
0
0
0
0
0
0
0
0
0
0
0
0
0
0
0
0
0
0
0
0
0
0
0
0
0
0
0
0
0
0
0
0
0
0
0
0
0
0
0
0
0
0
0
0
0
0
0
0
0
0
0
0
0
0
0
0
0
0
0
0
0
0
0
0
0
0
0
0
0
0
0
0
0
0
0
0
0
0
0
0
0
0
0
0
0
0
0
0
0
0
0
0
0
0
0
0
0
0
0
0
0
0
0
0
0
0
0
0
0
0
0
0
0
0
0
0
0
0
0
0
0
0
0
0
0
0
0
0
0
0
0
0
0
0
0
0
0
0
0
0
0
0
0
0
0
0
0
0
0
0
0
0
0
0
0
0
0
0
0
0
0
0
0
0
0
0
0
0
0
0
0
0
0
0
0
0
0
0
0
0
0
0
0
0
0
0
0
0
0
0
0
0
0
0
0
0
0
0
0
0
0
0
0
0
0
0
0
0
0
0
0
0
0
0
0
0
0
0
0
0
0
0
0
0
0
0
0
0
0
0
0
0
0
0
0
0
0
0
0
0
0
0
0
0
0
0
0
0
0
0
0
0
0
0
0
0
0
0
0
0
0
0
0
0
0
0
0
0
0
0
0
0
0
0
0
0
0
0
0
0
0
0
0
0
0
0
0
0
0
0
0
0
0
0
0
0
0
0
0
0
0
0
0
0
0
0
0
0
0
0
0
0
0
0
0
0
0
0
0
0
0
0
0
0
0
0
0
0
0
0
0
0
0
0
0
0
0
0
0
0
0
0
0
0
0
0
0
0
0
0
0
0
0
0
0
0
0
0
0
0
0
0
0
0
0
0
0
0
0
0
0
0
0
0
0
0
0
0
0
0
0
0
0
0
0
0
0
0
0
0
0
0
0
0
0
0
0
0
0
0
0
0
0
0
0
0
0
0
0
0
0
0
0
0
0
0
0
0
0
0
0
0
0
0
0
0
0
0
0
0
0
0
0
0
0
0
0
0
0
0
0
0
0
0
0
0
0
0
0
0
0
0
0
0
0
0
0
0
0
0
0
0
0
0
0
0
0
0
0
0
0
0
0
0
0
0
0
0
0
0
0
0
0
0
0
0
0
0
0
0
0
0
0
0
0
0
0
0
0
0
0
0
0
0
0
0
0
0
0
0
0
0
0
0
0
0
0
0
0
0
0
0
0
0
0
0
0
0
0
0
0
0
0
0
0
0
0
0
0
0
0
0
0
0
0
0
0
0
0
0
0
0
0
0
0
0
0
0
0
0
0
0
0
0
0
0
0
0
0
0
0
0
0
0
0
0
0
0
0
0
0
0
0
0
0
0
0
0
0
0
0
0
0
0
0
0
0
0
0
0
0
0
0
0
0
0
0
0
0
0
0
0
0
0
0
0
0
0
0
0
0
0
0
0
0
0
0
0
0
0
0
0
0
0
0
0
0
0
0
0
0
0
0
0
0
0
0
0
0
0
0
0
0
0
0
0
0
0
0
0
0
0
0
0
0
0
0
0
0
0
0
0
0
0
0
0
0
0
0
0
0
0
0
0
0
0
0
0
0
0
0
0
0
0
0
0
0
0
0
0
0
0
0
0
0
0
0
0
0
0
0
0
0
0
0
0
0
0
0
0
0
0
0
0
0
0
0
0
0
0
0
0
0
0
0
0
0
0
0
0
0
0
0
0
0
0
0
0
0
0
0
0
0
0
0
0
0
0
0
0
0
0
0
0
0
0
0
0
0
0
0
0
0
0
0
0
0
0
0
0
0
0
0
0
0
0
0
0
0
0
0
0
0
0
0
0
0
0
0
0
0
0
0
0
0
0
0
0
0
0
0
0
0
0
0
0
0
0
0
0
0
0
0
0
0
0
0
0
0
0
0
0
0
0
0
0
0
0
0
0
0
0
0
0
0
0
0
0
0
0
0
0
0
0
0
0
0
0
0
0
0
0
0
0
0
0
0
0
0
0
0
0
0
0
0
0
0
0
0
0
0
0
0
0
0
0
0
0
0
0
0
0
0
0
0
0
0
0
0
0
0
0
0
0
0
0
0
0
0
0
0
0
0
0
0
0
0
0
0
0
0
0
0
0
0
0
0
0
0
0
0
0
0
0
0
0
0
0
0
0
0
0
0
0
0
0
0
0
0
0
0
0
0
0
0
0
0
0
0
0
0
0
0
0
0
0
0
0
0
0
0
0
0
0
0
0
0
0
0
0
0
0
0
0
0
0
0
0
0
0
0
0
0
0
0
0
0
0
0
0
0
0
0
0
0
0
0
0
0
0
0
0
0
0
0
0
0
0
0
0
0
0
0
0
0
0
0
0
0
0
0
0
0
0
0
0
0
0
0
0
0
0
0
0
0
0
0
0
0
0
0
0
0
0
0
0
0
0
0
0
0
0
0
0
0
0
0
0
0
0
0
0
0
0
0
0
0
0
0
0
0
0
0
0
0
0
0
0
0
0
0
0
0
0
0
0
0
0
0
0
0
0
0
0
0
0
0
0
0
0
0
0
0
0
0
0
0
0
0
0
0
0
0
0
0
0
0
0
0
0
0
0
0
0
0
0
0
0
0
0
0
0
0
0
0
0
0
0
0
0
0
0
0
0
0
0
0
0
0
0
0
0
0
0
0
0
0
0
0
0
0
0
0
0
0
0
0
0
0
0
0
0
0
0
0
0
0
0
0
0
0
0
0
0
0
0
0
0
0
0
0
0
0
0
0
0
0
0
0
0
0
0
0
0
0
0
0
0
0
0
0
0
0
0
0
0
0
0
0
0
0
0
0
0
0
0
0
0
0
0
0
0
0
0
0
0
0
0
0
0
0
0
0
0
0
0
0
0
0
0
0
0
0
0
0
0
0
0
0
0
0
0
0
0
0
0
0
0
0
0
0
0
0
0
0
0
0
0
0
0
0
0
0
0
0
0
0
0
0
0
0
0
0
0
0
0
0
0
0
0
0
0
0
0
0
0
0
0
0
0
0
0
0
0
0
0
0
0
0
0
0
0
0
0
0
0
0
0
0
0
0
0
0
0
0
0
0
0
0
0
0
0
0
0
0
0
0
0
0
0
0
0
0
0
0
0
0
0
0
0
0
0
0
0
0
0
0
0
0
0
0
0
0
0
0
0
0
0
0
0
0
0
0
0
0
0
0
0
0
0
0
0
0
0
0
0
0
0
0
0
0
0
0
0
0
0
0
0
0
0
0
0
0
0
0
0
0
0
0
0
0
0
0
0
0
0
0
0
0
0
0
0
0
0
0
0
0
0
0
0
0
0
0
0
0
0
0
0
0
0
0
0
0
0
0
0
0
0
0
0
0
0
0
0
0
0
0
0
0
0
0
0
0
0
0
0
0
0
0
0
0
0
0
0
0
0
0
0
0
0
0
0
0
0
0
0
0
0
0
0
0
0
0
0
0
0
0
0
0
0
0
0
0
0
0
0
0
0
0
0
0
0
0
0
0
0
0
0
0
0
0
0
0
0
0
0
0
0
0
0
0
0
0
0
0
0
0
0
0
0
0
0
0
0
0
0
0
0
0
0
0
0
0
0
0
0
0
0
0
0
0
0
0
0
0
0
0
0
0
0
0
0
0
0
0
0
0
0
0
0
0
0
0
0
0
0
0
0
0
0
0
0
0
0
0
0
0
0
0
0
0
0
0
0
0
0
0
0
0
0
0
0
0
0
0
0
0
0
0
0
0
0
0
0
0
0
0
0
0
0
0
0
0
0
0
0
0
0
0
0
0
0
0
0
0
0
0
0
0
0
0
0
0
0
0
0
0
0
0
0
0
0
0
0
0
0
0
0
0
0
0
0
0
0
0
0
0
0
0
0
0
0
0
0
0
0
0
0
0
0
0
0
0
0
0
0
0
0
0
0
0
0
0
0
0
0
0
0
0
0
0
0
0
0
0
0
0
0
0
0
0
0
0
0
0
0
0
0
0
0
0
0
0
0
0
0
0
0
0
0
0
0
0
0
0
0
0
0
0
0
0
0
0
0
0
0
0
0
0
0
0
0
0
0
0
0
0
0
0
0
0
0
0
0
0
0
0
0
0
0
0
0
0
0
0
0
0
0
0
0
0
0
0
0
0
0
0
0
0
0
0
0
0
0
0
0
0
0
0
0
0
0
0
0
0
0
0
0
0
0
0
0
0
0
0
0
0
0
0
0
0
0
0
0
0
0
0
0
0
0
0
0
0
0
0
0
0
0
0
0
0
0
0
0
0
0
0
0
0
0
0
0
0
0
0
0
0
0
0
0
0
0
0
0
0
0
0
0
0
0
0
0
0
0
0
0
0
0
0
0
0
0
0
0
0
0
0
0
0
0
0
0
0
0
0
0
0
0
0
0
0
0
0
0
0
0
0
0
0
0
0
0
0
0
0
0
0
0
0
0
0
0
0
0
0
0
0
0
0
0
0
0
0
0
0
0
0
0
0
0
0
0
0
0
0
0
0
0
0
0
0
0
0
0
0
0
0
0
0
0
0
0
0
0
0
0
0
0
0
0
0
0
0
0
0
0
0
0
0
0
0
0
0
0
0
0
0
0
0
0
0
0
0
0
0
0
0
0
0
0
0
0
0
0
0
0
0
0
0
0
0
0
0
0
0
0
0
0
0
0
0
0
0
0
0
0
0
0
0
0
0
0
0
0
0
0
0
0
0
0
0
0
0
0
0
0
0
0
0
0
0
0
0
0
0
0
0
0
0
0
0
0
0
0
0
0
0
0
0
0
0
0
0
0
0
0
0
0
0
0
0
0
0
0
0
0
0
0
0
0
0
0
0
0
0
0
0
0
0
0
0
0
0
0
0
0
0
0
0
0
0
0
0
0
0
0
0
0
0
0
0
0
0
0
0
0
0
0
0
0
0
0
0
0
0
0
0
0
0
0
0
0
0
0
0
0
0
0
0
0
0
0
0
0
0
0
0
0
0
0
0
0
0
0
0
0
0
0
0
0
0
0
0
0
0
0
0
0
0
0
0
0
0
0
0
0
0
0
0
0
0
0
0
0
0
0
0
0
0
0
0
0
0
0
0
0
0
0
0
0
0
0
0
0
0
0
0
0
0
0
0
0
0
0
0
0
0
0
0
0
0
0
0
0
0
0
0
0
0
0
0
0
0
0
0
0
0
0
0
0
0
0
0
0
0
0
0
0
0
0
0
0
0
0
0
0
0
0
0
0
0
0
0
0
0
0
0
0
0
0
0
0
0
0
0
0
0
0
0
0
0
0
0
0
0
0
0
0
0
0
0
0
0
0
0
0
0
0
0
0
0
0
0
0
0
0
0
0
0
0
0
0
0
0
0
0
0
0
0
0
0
0
0
0
0
0
0
0
0
0
0
0
0
0
0
0
0
0
0
0
0
0
0
0
0
0
0
0
0
0
0
0
0
0
0
0
0
0
0
0
0
0
0
0
0
0
0
0
0
0
0
0
0
0
0
0
0
0
0
0
0
0
0
0
0
0
0
0
0
0
0
0
0
0
0
0
0
0
0
0
0
0
0
0
0
0
0
0
0
0
0
0
0
0
0
0
0
0
0
0
0
0
0
0
0
0
0
0
0
0
0
0
0
0
0
0
0
0
0
0
0
0
0
0
0
0
0
0
0
0
0
0
0
0
0
0
0
0
0
0
0
0
0
0
0
0
0
0
0
0
0
0
0
0
0
0
0
0
0
0
0
0
0
0
0
0
0
0
0
0
0
0
0
0
0
0
0
0
0
0
0
0
0
0
0
0
0
0
0
0
0
0
0
0
0
0
0
0
0
0
0
0
0
0
0
0
0
0
0
0
0
0
0
0
0
0
0
0
0
0
0
0
0
0
0
0
0
0
0
0
0
0
0
0
0
0
0
0
0
0
0
0
0
0
0
0
0
0
0
0
0
0
0
0
0
0
0
0
0
0
0
0
0
0
0
0
0
0
0
0
0
0
0
0
0
0
0
0
0
0
0
0
0
0
0
0
0
0
0
0
0
0
0
0
0
0
0
0
0
0
0
0
0
0
0
0
0
0
0
0
0
0
0
0
0
0
0
0
0
0
0
0
0
0
0
0
0
0
0
0
0
0
0
0
0
0
0
0
0
0
0
0
0
0
0
0
0
0
0
0
0
0
0
0
0
0
0
0
0
0
0
0
0
0
0
0
0
0
0
0
0
0
0
0
0
0
0
0
0
0
0
0
0
0
0
0
0
0
0
0
0
0
0
0
0
0
0
0
0
0
0
0
0
0
0
0
0
0
0
0
0
0
0
0
0
0
0
0
0
0
0
0
0
0
0
0
0
0
0
0
0
0
0
0
0
0
0
0
0
0
0
0
0
0
0
0
0
0
0
0
0
0
0
0
0
0
0
0
0
0
0
0
0
0
0
0
0
0
0
0
0
0
0
0
0
0
0
0
0
0
0
0
0
0
0
0
0
0
0
0
0
0
0
0
0
0
0
0
0
0
0
0
0
0
0
0
0
0
0
0
0
0
0
0
0
0
0
0
0
0
0
0
0
0
0
0
0
0
0
0
0
0
0
0
0
0
0
0
0
0
0
0
0
0
0
0
0
0
0
0
0
0
0
0
0
0
0
0
0
0
0
0
0
0
0
0
0
0
0
0
0
0
0
0
0
0
0
0
0
0
0
0
0
0
0
0
0
0
0
0
0
0
0
0
0
0
0
0
0
0
0
0
0
0
0
0
0
0
0
0
0
0
0
0
0
0
0
0
0
0
0
0
0
0
0
0
0
0
0
0
0
0
0
0
0
0
0
0
0
0
0
0
0
0
0
0
0
0
0
0
0
0
0
0
0
0
0
0
0
0
0
0
0
0
0
0
0
0
0
0
0
0
0
0
0
0
0
0
0
0
0
0
0
0
0
0
0
0
0
0
0
0
0
0
0
0
0
0
0
0
0
0
0
0
0
0
0
0
0
0
0
0
0
0
0
0
0
0
0
0
0
0
0
0
0
0
0
0
0
0
0
0
0
0
0
0
0
0
0
0
0
0
0
0
0
0
0
0
0
0
0
0
0
0
0
0
0
0
0
0
0
0
0
0
0
0
0
0
0
0
0
0
0
0
0
0
0
0
0
0
0
0
0
0
0
0
0
0
0
0
0
0
0
0
0
0
0
0
0
0
0
0
0
0
0
0
0
0
0
0
0
0
0
0
0
0
0
0
0
0
0
0
0
0
0
0
0
0
0
0
0
0
0
0
0
0
0
0
0
0
0
0
0
0
0
0
0
0
0
0
0
0
0
0
0
0
0
0
0
0
0
0
0
0
0
0
0
0
0
0
0
0
0
0
0
0
0
0
0
0
0
0
0
0
0
0
0
0
0
0
0
0
0
0
0
0
0
0
0
0
0
0
0
0
0
0
0
0
0
0
0
0
0
0
0
0
0
0
0
0
0
0
0
0
0
0
0
0
0
0
0
0
0
0
0
0
0
0
0
0
0
0
0
0
0
0
0
0
0
0
0
0
0
0
0
0
0
0
0
0
0
0
0
0
0
0
0
0
0
0
0
0
0
0
0
0
0
0
0
0
0
0
0
0
0
0
0
0
0
0
0
0
0
0
0
0
0
0
0
0
0
0
0
0
0
0
0
0
0
0
0
0
0
0
0
0
0
0
0
0
0
0
0
0
0
0
0
0
0
0
0
0
0
0
0
0
0
0
0
0
0
0
0
0
0
0
0
0
0
0
0
0
0
0
0
0
0
0
0
0
0
0
0
0
0
0
0
0
0
0
0
0
0
0
0
0
0
0
0
0
0
0
0
0
0
0
0
0
0
0
0
0
0
0
0
0
0
0
0
0
0
0
0
0
0
0
0
0
0
0
0
0
0
0
0
0
0
0
0
0
0
0
0
0
