3.06352
3.1467
3.24739
3.37007
3.51834
3.69369
3.89566
4.12187
4.3678
4.62726
4.89306
5.15784
5.41494
5.65911
5.88691
6.09696
6.2897
6.46712
6.63223
6.78843
6.93851
7.08372
7.22188
7.343
7.42828
7.45272
7.3917
7.22808
6.9571
6.58764
6.14029
5.6437
5.13375
4.63208
4.15071
3.70075
3.29033
2.92405
2.60298
2.32512
2.0862
1.88082
1.70354
1.54975
1.41626
1.30138
1.2048
1.12698
1.06855
1.02975
1.00996
1.00766
1.02046
1.0445
1.07432
1.10384
1.12756
1.14141
1.1434
1.13395
1.11577
1.09335
1.07207
1.05716
1.05234
1.05955
1.07953
1.11177
1.15477
1.20674
1.26617
1.33213
1.40418
1.48216
1.56582
1.6547
1.74805
1.84557
1.94756
2.0551
2.17097
2.30142
2.4554
2.62992
2.80009
2.93103
2.98989
2.95744
2.83446
2.64139
2.41193
2.18268
1.97975
1.80577
1.65364
1.51781
1.39593
1.2864
1.18752
1.09758
1.01464
0.935638
0.856603
0.772945
0.680053
0.574071
0.452633
0.315326
0.163767
0
-0.215843
-0.218472
0.384516
1.81638
3.92777
6.1105
7.49862
7.37753
5.56997
2.56312
-0.705452
-3.27232
-4.54241
-4.45884
-3.41126
-1.97275
-0.640976
0.314914
0.845516
0.993754
1.10346
1.19944
1.27902
1.34141
1.388
1.42245
1.45045
1.47903
1.51549
1.56615
1.63512
1.72279
1.82647
1.94177
2.06363
2.18692
2.3074
2.4225
2.53166
2.63631
2.73936
2.84459
2.95601
3.07727
3.21148
3.36112
3.52815
3.7142
3.92066
4.14857
4.3984
4.66962
4.96034
5.26686
5.58376
5.90397
6.21462
6.49788
6.73741
6.91982
7.03619
7.08231
7.05741
6.96224
6.79732
6.56244
6.26336
5.91171
5.51829
5.09314
4.64759
4.19466
3.74741
3.31816
2.91743
2.55292
2.22887
1.94602
1.70206
1.4925
1.31174
1.15427
1.0156
0.892927
0.785317
0.693343
0.61872
0.565461
0.538797
0.535532
0.542687
0.54419
0.525848
0.480173
0.409099
0.32352
0.239858
0.174996
0.137465
0.12538
0.136233
0.167259
0.213763
0.270223
0.331329
0.392732
0.451575
0.50624
0.55616
0.601803
0.644465
0.686194
0.729744
0.778449
0.835989
0.906026
0.991759
1.09533
1.21804
1.36233
1.53255
1.73256
1.95401
2.16918
2.34444
2.4478
2.45618
2.36061
2.16794
1.90006
1.59192
1.28794
1.02353
0.806849
0.632989
0.496392
0.396479
0.329958
0.291768
0.276048
0.276843
0.28836
0.305512
0.3212
0.326724
0.313517
0.274888
0.208098
0.115752
0
-0.397153
-0.277675
0.704295
2.4887
4.54234
6.04411
6.2735
4.97565
2.49043
-0.420092
-2.92642
-4.46076
-4.8676
-4.34741
-3.2741
-2.01667
-0.835784
0.124711
0.733332
0.868258
0.964109
1.04893
1.12523
1.19586
1.2637
1.33109
1.39941
1.4689
1.53899
1.60869
1.67702
1.74346
1.80827
1.87256
1.93826
2.00784
2.08409
2.16974
2.26725
2.37862
2.50533
2.64842
2.80853
2.98609
3.18126
3.39397
3.62368
3.86927
4.12883
4.39955
4.67785
4.95952
5.23994
5.51437
5.77752
6.02241
6.24067
6.42524
6.57001
6.6691
6.71699
6.70867
6.63987
6.50727
6.30914
6.04613
5.72502
5.35627
4.95127
4.52234
4.08249
3.64362
3.21649
2.81078
2.4345
2.0936
1.79172
1.53009
1.3079
1.12238
0.968243
0.839315
0.729495
0.633628
0.548078
0.47088
0.401481
0.340191
0.287554
0.243858
0.209008
0.182531
0.163781
0.152166
0.147273
0.14889
0.157036
0.171762
0.193221
0.221729
0.25778
0.301916
0.354446
0.415067
0.482878
0.555957
0.630969
0.704727
0.775333
0.84306
0.91057
0.982266
1.06294
1.15614
1.26243
1.37933
1.50181
1.62139
1.7284
1.81395
1.87141
1.89719
1.89084
1.85458
1.79227
1.70845
1.6074
1.49297
1.36834
1.2363
1.09954
0.961119
0.824889
0.695497
0.577882
0.476535
0.394874
0.33502
0.297465
0.278735
0.268622
0.254798
0.226096
0.174958
0.098818
0
-0.266805
-0.237505
0.51403
2.01182
3.86795
5.37878
5.8281
4.83676
2.5621
-0.35904
-3.08246
-4.89553
-5.4633
-4.89115
-3.60943
-2.15245
-0.936446
-0.131801
0.326338
0.576722
0.769948
0.945473
1.10139
1.23661
1.35261
1.45286
1.54179
1.62352
1.701
1.77577
1.84821
1.91821
1.98609
2.05311
2.12183
2.19591
2.27965
2.37721
2.4919
2.62599
2.78029
2.95403
3.14504
3.35027
3.56641
3.79043
4.0201
4.25406
4.49165
4.73246
4.97575
5.21995
5.46257
5.7003
5.92958
6.14729
6.35135
6.54096
6.71573
6.87359
7.00843
7.10997
7.16379
7.14939
7.04619
6.84071
6.53199
6.13316
5.66849
5.16787
4.66195
4.16722
3.69384
3.25123
2.84666
2.4852
2.16962
1.90038
1.67584
1.49189
1.34283
1.2222
1.12355
1.04125
0.970929
0.909667
0.85575
0.80823
0.766309
0.728999
0.694831
0.661714
0.627419
0.590372
0.550364
0.509136
0.472083
0.446786
0.44085
0.459431
0.503304
0.568208
0.645747
0.72558
0.798147
0.858738
0.90556
0.939886
0.9657
0.988527
1.01411
1.04706
1.09022
1.14504
1.21203
1.29144
1.38355
1.48956
1.61413
1.77016
1.97676
2.2213
2.45565
2.62054
2.66918
2.58719
2.39815
2.15202
1.9024
1.6844
1.49539
1.3214
1.15619
0.998412
0.849148
0.710937
0.587193
0.481499
0.396928
0.335503
0.297541
0.280585
0.277848
0.278133
0.269551
0.241875
0.188378
0.106909
0
-0.204462
-0.306586
0.253939
1.66215
3.68418
5.64439
6.68603
6.20224
4.17975
1.23307
-1.69447
-3.77661
-4.63238
-4.38195
-3.45355
-2.3142
-1.28566
-0.504541
0.00379372
0.21242
0.370682
0.518374
0.65949
0.793753
0.920234
1.03764
1.14471
1.24059
1.32525
1.39982
1.46663
1.52896
1.59057
1.65507
1.72524
1.80262
1.88736
1.97849
2.07445
2.17377
2.27573
2.38089
2.49138
2.61072
2.7434
2.89418
3.06733
3.26593
3.49134
3.743
4.01842
4.3135
4.62296
4.94094
5.26159
5.57909
5.88762
6.18078
6.44972
6.68188
6.8655
6.98751
7.02907
6.97093
6.80149
6.52322
6.15383
5.72139
5.25617
4.78535
4.32157
3.86957
3.43513
3.02395
2.64134
2.29196
1.97953
1.70644
1.47361
1.2804
1.12477
1.00351
0.912444
0.846918
0.801894
0.771611
0.749298
0.728387
0.703759
0.672553
0.634622
0.592407
0.550166
0.5127
0.483968
0.465849
0.458141
0.458476
0.463391
0.469539
0.474763
0.478671
0.482609
0.489103
0.501055
0.520654
0.549108
0.586925
0.634176
0.690593
0.75567
0.828687
0.908607
0.993893
1.08241
1.17143
1.25782
1.33858
1.41154
1.47582
1.53211
1.58258
1.63034
1.67868
1.73044
1.78722
1.84722
1.90401
1.94854
1.9715
1.96581
1.92833
1.86037
1.76706
1.65583
1.53469
1.41119
1.29059
1.17613
1.07021
0.974869
0.891363
0.819944
0.759477
0.706408
0.65407
0.594202
0.518839
0.422202
0.302251
0.161368
0
-0.383681
-0.289548
0.63898
2.4208
4.61255
6.412
7.00091
5.95806
3.50041
0.400307
-2.37287
-4.07853
-4.46259
-3.75894
-2.46003
-1.07286
0.0507105
0.745847
0.885813
0.954508
1.01675
1.07783
1.14203
1.21326
1.29463
1.38786
1.49336
1.61015
1.736
1.86786
2.0023
2.13611
2.26671
2.39246
2.51275
2.62787
2.7388
2.84698
2.95414
3.06218
3.17317
3.28933
3.41294
3.5462
3.69105
3.849
4.021
4.2074
4.40801
4.62221
4.84904
5.08715
5.33478
5.58958
5.84846
6.10723
6.35852
6.59045
6.79064
6.94722
7.0501
7.09187
7.06797
6.97591
6.81446
6.58324
6.28354
5.9264
5.52678
5.09911
4.65704
4.21362
3.78077
3.36907
2.98672
2.6388
2.32717
2.05079
1.80659
1.59049
1.39846
1.2273
1.07515
0.941595
0.826707
0.730679
0.654398
0.596974
0.555505
0.526278
0.505555
0.490328
0.478761
0.470179
0.464663
0.462505
0.463567
0.467342
0.473253
0.480703
0.489329
0.499166
0.510664
0.524565
0.541699
0.562787
0.588303
0.618444
0.653181
0.692304
0.735463
0.78218
0.831893
0.884071
0.938289
0.994549
1.05368
1.11754
1.18887
1.27081
1.36592
1.47515
1.59982
1.73522
1.86811
1.98284
2.06539
2.10681
2.1048
2.06286
1.98774
1.88636
1.76457
1.62823
1.48114
1.32598
1.16591
1.00548
0.850443
0.707079
0.581262
0.478149
0.401344
0.350977
0.322275
0.30601
0.291149
0.267555
0.227974
0.169292
0.0928114
0
-0.238164
-0.102366
0.758819
2.4053
4.4443
6.09229
6.51536
5.28209
2.64428
-0.553704
-3.29252
-4.86183
-5.1153
-4.38545
-3.18104
-1.90554
-0.758463
0.193572
0.84669
0.980337
1.0707
1.14936
1.21896
1.28246
1.34336
1.40525
1.47134
1.5445
1.62688
1.71967
1.82265
1.93438
2.05165
2.16869
2.27903
2.3776
2.46252
2.53615
2.60511
2.67906
2.76875
2.88367
3.02909
3.20447
3.40655
3.63141
3.87432
4.12987
4.39259
4.65736
4.91971
5.17596
5.42332
5.66
5.88507
6.0981
6.29875
6.48604
6.65718
6.80572
6.92177
6.9915
6.99864
6.92826
6.7704
6.52254
6.19049
5.78773
5.33402
4.85783
4.38116
3.91676
3.47553
3.06688
2.69769
2.37182
2.08991
1.84968
1.64648
1.47423
1.32639
1.19697
1.08128
0.976343
0.881012
0.795598
0.721189
0.659057
0.61004
0.574157
0.550527
0.537583
0.533487
0.536607
0.545867
0.560966
0.582289
0.610563
0.646379
0.690044
0.740986
0.796783
0.852628
0.902576
0.941206
0.965179
0.974519
0.97322
0.968929
0.971644
0.991633
1.03635
1.10733
1.20381
1.32494
1.45639
1.58177
1.68774
1.76846
1.82759
1.87705
1.933
2.01981
2.16233
2.33985
2.5089
2.62396
2.65563
2.59829
2.46658
2.28564
2.08142
1.87529
1.67905
1.49664
1.32996
1.18075
1.05081
0.942075
0.85618
0.794711
0.758323
0.742606
0.73615
0.725398
0.697131
0.641065
0.551897
0.430286
0.282593
0.102542
0
0.380224
1.45739
3.20498
5.22032
6.78764
7.16902
5.98208
3.43579
0.268433
-2.58434
-4.39517
-4.90223
-4.31485
-3.11817
-1.81886
-0.757705
-0.0453739
0.382278
0.646537
0.861958
1.05034
1.20376
1.31905
1.39892
1.45184
1.49056
1.5295
1.58157
1.65488
1.74879
1.85907
1.98067
2.10756
2.23308
2.35163
2.45981
2.55708
2.64585
2.73094
2.81869
2.91584
3.02839
3.16033
3.31365
3.48859
3.68379
3.89673
4.12437
4.36376
4.61244
4.86867
5.13146
5.40038
5.67547
5.95755
6.24847
6.55055
6.86084
7.15907
7.41134
7.57777
7.62361
7.53164
7.30832
6.97861
6.57199
6.11063
5.61765
5.11744
4.62353
4.14358
3.68529
3.25724
2.86684
2.51947
2.21793
1.96237
1.7509
1.57861
1.43823
1.322
1.22282
1.13511
1.05522
0.981424
0.913408
0.851615
0.796375
0.747611
0.704783
0.666836
0.632526
0.600808
0.571187
0.543907
0.519939
0.500814
0.488313
0.484115
0.489467
0.504922
0.530168
0.563956
0.604136
0.647886
0.691689
0.731783
0.764778
0.788184
0.80087
0.803359
0.797893
0.788238
0.779234
0.776148
0.783805
0.805676
0.843531
0.897501
0.966228
1.0471
1.13663
1.23115
1.32739
1.42275
1.51492
1.60124
1.67813
1.74148
1.78646
1.80826
1.80338
1.77077
1.71221
1.63184
1.53506
1.42725
1.31346
1.19731
1.08127
0.967403
0.857867
0.754947
0.660821
0.577178
0.504764
0.44306
0.390229
0.343265
0.298293
0.251427
0.199557
0.140949
0.0755236
0
-0.249477
-0.0784845
0.884608
2.68466
4.89083
6.69473
7.26518
6.17167
3.62833
0.412381
-2.49381
-4.33286
-4.84661
-4.279
-3.15161
-1.97216
-1.03071
-0.366188
0.117865
0.409562
0.63724
0.836605
1.01024
1.15652
1.27631
1.37267
1.45006
1.5143
1.57164
1.62811
1.68895
1.75812
1.83778
1.92805
2.02716
2.13165
2.23666
2.33765
2.43165
2.51821
2.59973
2.68107
2.76863
2.86924
2.98855
3.12992
3.2954
3.48601
3.70154
3.94056
4.20061
4.47828
4.7692
5.06811
5.36893
5.66432
5.94463
6.19901
6.41758
6.59191
6.71467
6.77951
6.78087
6.71402
6.57559
6.36449
6.08321
5.7389
5.34322
4.91192
4.46362
4.01512
3.57859
3.16434
2.78038
2.43214
2.12248
1.85178
1.61847
1.419
1.24827
1.10045
0.969831
0.851532
0.742156
0.640136
0.545868
0.461301
0.38917
0.332177
0.292332
0.27044
0.265918
0.276946
0.30086
0.334633
0.3753
0.420093
0.466558
0.512398
0.554881
0.590679
0.616421
0.629134
0.627087
0.610617
0.582594
0.548254
0.514326
0.487606
0.473307
0.473194
0.487981
0.513823
0.545042
0.576021
0.603036
0.62546
0.645995
0.669926
0.703663
0.75283
0.819542
0.90348
1.00284
1.11422
1.23287
1.35336
1.47035
1.57914
1.67604
1.75826
1.82368
1.8706
1.89763
1.90342
1.88667
1.84644
1.7826
1.69632
1.59038
1.46921
1.33861
1.20516
1.07524
0.954205
0.845972
0.75251
0.673756
0.607822
0.551438
0.500589
0.451194
0.399712
0.343602
0.281592
0.213732
0.141114
0.064057
0
0.251589
1.07152
2.58477
4.55979
6.36705
7.20938
6.52827
4.33414
1.24045
-1.8228
-4.03397
-4.99364
-4.78412
-3.80492
-2.52717
-1.31043
-0.336813
0.356713
0.738473
0.920118
1.07476
1.21477
1.33845
1.44408
1.53079
1.59911
1.65076
1.68867
1.71704
1.74124
1.76733
1.80147
1.84904
1.91386
1.99706
2.09746
2.21274
2.33989
2.47565
2.61708
2.76206
2.90958
3.0598
3.21386
3.37376
3.54199
3.7213
3.91435
4.12322
4.34903
4.59145
4.84835
5.11578
5.38817
5.65879
5.91991
6.16362
6.38271
6.57033
6.71924
6.82207
6.87415
6.87043
6.80516
6.6727
6.46885
6.1924
5.84651
5.43958
4.98532
4.505
4.0184
3.54115
3.08745
2.66914
2.29479
1.96922
1.69316
1.46412
1.27736
1.12712
1.00772
0.914218
0.842716
0.790178
0.754424
0.733483
0.724505
0.723111
0.724841
0.726104
0.725017
0.721839
0.7188
0.719313
0.726801
0.743488
0.768923
0.801332
0.837081
0.870876
0.897404
0.912636
0.914754
0.904525
0.885072
0.861131
0.838083
0.821014
0.813434
0.817095
0.833089
0.862238
0.904824
0.960624
1.02895
1.10863
1.19801
1.295
1.39712
1.50156
1.60527
1.70498
1.79722
1.87853
1.94582
1.99653
2.02877
2.04133
2.03372
2.0061
1.9591
1.89381
1.81172
1.71506
1.60674
1.49017
1.36918
1.24792
1.13053
1.02066
0.920958
0.832737
0.755752
0.688258
0.627374
0.569597
0.511396
0.449764
0.382637
0.30914
0.229632
0.145341
0.0561298
0
0.312291
1.21154
2.71455
4.47384
5.8302
6.09488
4.91611
2.50373
-0.432162
-2.99621
-4.49331
-4.68232
-3.79749
-2.36842
-0.960732
0.0408134
0.521514
0.587383
0.664753
0.746496
0.832065
0.921252
1.01256
1.10313
1.18959
1.26921
1.34087
1.40554
1.46622
1.52725
1.59328
1.66816
1.75421
1.85158
1.95944
2.07698
2.20357
2.33917
2.48424
2.6394
2.80489
2.98006
3.16319
3.35184
3.54338
3.73563
3.92733
4.11831
4.30928
4.50133
4.69541
4.89199
5.09094
5.29175
5.49388
5.69708
5.90158
6.10783
6.31333
6.50568
6.66206
6.75447
6.75789
6.65694
6.44857
6.14099
5.75083
5.30052
4.82226
4.341
3.87039
3.41892
2.99573
2.60872
2.26365
1.96421
1.71207
1.50431
1.33414
1.19316
1.07293
0.966404
0.868952
0.778718
0.69628
0.623819
0.563694
0.518144
0.488364
0.474233
0.474361
0.486385
0.507349
0.534012
0.563499
0.593463
0.622365
0.649683
0.676002
0.702939
0.732878
0.768548
0.812482
0.866377
0.931029
1.00639
1.09041
1.17709
1.25661
1.3182
1.35245
1.35343
1.32033
1.25809
1.17676
1.08981
1.01172
0.953755
0.920808
0.913836
0.934188
0.98155
1.05382
1.14764
1.25898
1.38376
1.5185
1.66061
1.80857
1.96156
2.117
2.2647
2.387
2.46312
2.47695
2.42495
2.31939
2.18459
2.04748
1.92742
1.8259
1.73504
1.6501
1.56805
1.48691
1.40624
1.32687
1.25016
1.17709
1.10753
1.04024
0.972913
0.902656
0.826619
0.742533
0.649084
0.546074
0.434512
0.316321
0.190475
0
0.190133
1.08317
2.74962
4.84737
6.65681
7.35493
6.4172
3.92782
0.599763
-2.52899
-4.56007
-5.10129
-4.34988
-2.88705
-1.34352
-0.136082
0.613081
0.953089
1.03299
1.10575
1.17661
1.2465
1.31613
1.38594
1.4561
1.52663
1.59748
1.66874
1.74061
1.81334
1.88714
1.96197
2.03756
2.11348
2.18941
2.26542
2.34236
2.42192
2.50668
2.5998
2.70476
2.82492
2.9633
3.1223
3.30372
3.50866
3.7373
3.98859
4.25985
4.54647
4.84191
5.13804
5.42528
5.69454
5.93866
6.15344
6.33793
6.49385
6.62179
6.72081
6.78807
6.81855
6.80247
6.72779
6.58367
6.36404
6.06994
5.71036
5.30113
4.86264
4.41735
3.98066
3.56371
3.17581
2.82366
2.51115
2.23936
2.00776
1.81538
1.65646
1.51987
1.39414
1.26976
1.14138
1.00912
0.878617
0.759617
0.663437
0.598028
0.568805
0.587648
0.658195
0.761533
0.868183
0.950572
0.990278
0.982168
0.934646
0.866252
0.799745
0.75536
0.740823
0.751158
0.782297
0.827293
0.87466
0.912524
0.931417
0.926358
0.897919
0.852004
0.798361
0.748182
0.71148
0.693575
0.694445
0.711745
0.743685
0.788509
0.844405
0.909682
0.982616
1.06135
1.14318
1.22352
1.29684
1.35783
1.40284
1.43101
1.44492
1.4504
1.45555
1.46929
1.49921
1.55511
1.65251
1.79746
1.96383
2.11132
2.20038
2.20372
2.11415
1.94646
1.7327
1.5123
1.31998
1.16564
1.0404
0.935834
0.847847
0.774605
0.714231
0.664796
0.624393
0.590841
0.560496
0.528221
0.488587
0.436993
0.370882
0.290639
0.181507
0
0.368524
1.52682
3.38374
5.42056
6.82656
6.85424
5.21504
2.27734
-1.06844
-3.81034
-5.25366
-5.26465
-4.21928
-2.73471
-1.3614
-0.390771
0.16108
0.43014
0.632304
0.821891
1.00232
1.17093
1.32491
1.46229
1.58209
1.68454
1.77096
1.84367
1.90568
1.96036
2.01117
2.06139
2.11396
2.1714
2.23573
2.30849
2.39074
2.48323
2.58656
2.70136
2.82854
2.96935
3.1253
3.29789
3.48826
3.69671
3.92235
4.16291
4.41476
4.67317
4.93275
5.1879
5.43334
5.66444
5.8773
6.06873
6.23613
6.37709
6.48878
6.56737
6.6081
6.60628
6.55656
6.45376
6.29393
6.07549
5.80017
5.47338
5.104
4.70386
4.2868
3.86451
3.44642
3.04004
2.65067
2.28157
1.93444
1.61013
1.31079
1.03945
0.799444
0.594677
0.429452
0.306513
0.226893
0.18953
0.190875
0.224832
0.283096
0.355898
0.433126
0.505623
0.567057
0.615017
0.648679
0.66874
0.677258
0.676948
0.670511
0.66021
0.647662
0.633905
0.619722
0.605952
0.593662
0.584164
0.578867
0.579046
0.585534
0.598717
0.618605
0.644855
0.676892
0.714017
0.755465
0.800453
0.848162
0.897775
0.948575
1.00002
1.05182
1.10391
1.1565
1.20994
1.26475
1.32151
1.38079
1.44304
1.50832
1.57608
1.64491
1.71221
1.77425
1.82672
1.86523
1.88595
1.88612
1.86434
1.82071
1.7567
1.67488
1.57865
1.47186
1.3583
1.24125
1.12343
1.00696
0.893588
0.784693
0.681378
0.584451
0.494378
0.411184
0.334245
0.262383
0.194023
0.127596
0.0620115
0
0.425477
1.61721
3.51134
5.59561
7.06768
7.20117
5.72242
2.97423
-0.231282
-2.98054
-4.63388
-5.01813
-4.3806
-3.18241
-1.87186
-0.742344
0.09869
0.661281
0.878472
1.03319
1.17219
1.29927
1.41495
1.5201
1.61523
1.70046
1.776
1.84202
1.89917
1.94903
1.99445
2.03943
2.08873
2.14717
2.2189
2.30634
2.41037
2.53098
2.66751
2.81889
2.98396
3.16176
3.35151
3.55261
3.76449
3.98647
4.21772
4.4573
4.70427
4.95774
5.21687
5.4807
5.74783
6.01619
6.28132
6.53415
6.76281
6.95455
7.09753
7.18259
7.20391
7.15871
7.04635
6.86761
6.62448
6.32423
5.97621
5.5908
5.17995
4.75579
4.32872
3.90821
3.5032
3.12149
2.7691
2.45
2.16603
1.91733
1.70279
1.52064
1.36905
1.24604
1.14955
1.0775
1.02771
0.996762
0.979847
0.971832
0.967898
0.964208
0.958416
0.949881
0.939534
0.929421
0.92203
0.919424
0.922716
0.932165
0.94626
0.961573
0.973758
0.978644
0.973363
0.957313
0.932699
0.904529
0.880027
0.867568
0.874626
0.906327
0.975433
1.1001
1.28484
1.49692
1.68961
1.82109
1.86538
1.81814
1.69681
1.53548
1.37573
1.25565
1.18884
1.1657
1.17447
1.20844
1.2644
1.34027
1.43394
1.54305
1.66481
1.79606
1.93269
2.06888
2.19647
2.30641
2.39098
2.44474
2.46542
2.45416
2.41487
2.35304
2.2743
2.18335
2.08434
1.98044
1.87383
1.76651
1.6607
1.55867
1.46244
1.37315
1.29076
1.2139
1.14008
1.06602
0.988184
0.903234
0.80847
0.702202
0.584221
0.455583
0.318218
0.170723
0
0.256108
1.15343
2.71277
4.62618
6.27043
6.93617
6.18297
4.10491
1.31687
-1.34085
-3.18696
-3.93893
-3.71247
-2.84348
-1.69308
-0.549754
0.392595
0.957516
1.07066
1.14615
1.214
1.27855
1.34373
1.41278
1.48767
1.5687
1.65505
1.7454
1.83849
1.93364
2.03109
2.13189
2.23747
2.34906
2.46723
2.59147
2.7204
2.85204
2.98446
3.11631
3.24729
3.37836
3.51167
3.65026
3.79756
3.95684
4.13061
4.32023
4.52547
4.7445
4.97394
5.20926
5.44537
5.67724
5.90044
6.1113
6.30675
6.48378
6.63863
6.76605
6.85956
6.91186
6.91345
6.85423
6.72547
6.52185
6.24305
5.89454
5.48758
5.04026
4.5742
4.10615
3.6483
3.21143
2.80446
2.43408
2.10466
1.81836
1.5757
1.37524
1.21409
1.08921
0.996859
0.930875
0.884837
0.852608
0.828866
0.809494
0.791737
0.774142
0.756337
0.738747
0.722247
0.707946
0.696961
0.690221
0.688323
0.691447
0.699311
0.711376
0.726887
0.744966
0.76462
0.784722
0.803909
0.820597
0.833062
0.839611
0.838832
0.829879
0.812733
0.788405
0.759023
0.727792
0.698728
0.676352
0.665048
0.668443
0.688833
0.726784
0.781022
0.848635
0.925573
1.00733
1.08968
1.16944
1.2447
1.31492
1.38084
1.44412
1.50686
1.57107
1.63819
1.70822
1.77891
1.84513
1.89816
1.92688
1.92024
1.86884
1.76734
1.61667
1.42537
1.20917
0.988659
0.785243
0.613256
0.474433
0.369789
0.298312
0.254895
0.232058
0.221385
0.214766
0.205302
0.187794
0.158952
0.117404
0.0637058
0
-0.0807516
-0.217323
0.14685
1.26572
3.0395
4.93231
6.15294
6.03261
4.38525
1.63104
-1.38942
-3.79437
-5.01804
-4.97453
-3.98881
-2.58117
-1.23404
-0.238216
0.338609
0.532835
0.640873
0.740954
0.836733
0.928456
1.01623
1.10007
1.17999
1.25621
1.32937
1.40065
1.4718
1.545
1.62264
1.7069
1.79944
1.9011
2.01181
2.1307
2.25642
2.38751
2.52284
2.66187
2.80488
2.9529
3.10759
3.27103
3.44539
3.63269
3.83451
4.05174
4.28442
4.53163
4.7915
5.06135
5.33793
5.61767
5.89546
6.16321
6.40891
6.61843
6.7791
6.87868
6.90699
6.85771
6.72943
6.52573
6.25402
5.92391
5.54799
5.14337
4.72494
4.30282
3.88468
3.47827
3.09123
2.73049
2.40172
2.10879
1.85355
1.6359
1.45403
1.30494
1.18488
1.08976
1.01542
0.957764
0.912886
0.876911
0.845896
0.816308
0.785476
0.752003
0.715923
0.679102
0.644968
0.617674
0.601203
0.59855
0.61118
0.638867
0.679874
0.731373
0.789775
0.851497
0.913508
0.973279
1.02868
1.0779
1.11908
1.15014
1.16921
1.17448
1.16452
1.13863
1.09735
1.04278
0.978102
0.908653
0.842586
0.789589
0.758732
0.757102
0.78855
0.852877
0.945715
1.05924
1.18362
1.30891
1.42748
1.5358
1.63277
1.71792
1.79171
1.85447
1.90612
1.94602
1.97259
1.98343
1.97602
1.94858
1.90077
1.83418
1.75221
1.65958
1.56159
1.46275
1.36604
1.27287
1.18305
1.09526
1.00783
0.919492
0.829903
0.739791
0.650674
0.564303
0.481959
0.404172
0.330707
0.260581
0.19235
0.124513
0
0.200597
1.06375
2.67644
4.69975
6.40048
6.95305
5.86795
3.29032
-0.0223619
-3.03607
-4.89677
-5.25989
-4.3457
-2.74019
-1.08616
0.168069
0.868254
1.05038
1.09081
1.12857
1.16685
1.20745
1.25173
1.30063
1.3548
1.41471
1.48071
1.55287
1.63093
1.71419
1.80154
1.89166
1.98329
2.07563
2.16853
2.26249
2.35836
2.45691
2.55836
2.66218
2.76721
2.87203
2.97589
3.07957
3.18607
3.30059
3.43004
3.58191
3.76294
3.9778
4.22702
4.50802
4.81614
5.14666
5.49337
5.84316
6.17487
6.46407
6.69091
6.84228
6.90877
6.88387
6.76407
6.5504
6.24999
5.87674
5.45
4.9946
4.53303
4.07805
3.63608
3.2135
2.81599
2.4476
2.11042
1.80449
1.52758
1.27594
1.04514
0.83117
0.631324
0.444815
0.272822
0.118026
-0.0163376
-0.12751
-0.213609
-0.273637
-0.308148
-0.3221
-0.325125
-0.326789
-0.334444
-0.351666
-0.377686
-0.407996
-0.435909
-0.45456
-0.459115
-0.449257
-0.42685
-0.394278
-0.354602
-0.311419
-0.268404
-0.228822
-0.195148
-0.1689
-0.15063
-0.140082
-0.136418
-0.138495
-0.144989
-0.154218
-0.164094
-0.17191
-0.174224
-0.166989
-0.145992
-0.10755
-0.0492637
0.0293952
0.126541
0.238901
0.362035
0.491071
0.621301
0.748713
0.869672
0.980385
1.07708
1.15637
1.2148
1.24908
1.25652
1.23545
1.18563
1.10853
1.00754
0.888043
0.75737
0.623425
0.493855
0.37525
0.27207
0.187963
0.122461
0.0725115
0.0334354
0
-0.0572897
-0.117811
-0.184568
-0.259713
-0.344728
-0.440123
-0.54654
-0.712128
-0.868825
-0.393485
0.96828
3.01441
5.0479
6.14873
5.63312
3.43602
0.181461
-3.10153
-5.447
-6.34407
-5.86511
-4.51157
-2.91355
-1.55668
-0.653216
-0.212453
-0.0559994
0.0794231
0.195346
0.287796
0.356081
0.403794
0.439149
0.474248
0.523119
0.598777
0.709982
0.857626
1.03658
1.23905
1.44037
1.61539
1.74612
1.82717
1.86741
1.88731
1.91313
1.97008
2.07579
2.22673
2.41541
2.63763
2.88928
3.1652
3.45977
3.76739
4.08273
4.40092
4.71763
5.02916
5.33259
5.62573
5.90713
6.17591
6.43136
6.67149
6.89238
7.08807
7.25108
7.37321
7.44607
7.46049
7.40745
7.27916
7.07063
6.78171
6.41932
5.99892
5.54454
5.08462
4.64216
4.22888
3.85368
3.52299
3.23619
2.98843
2.77266
2.58183
2.41065
2.25649
2.11937
2.0014
1.90519
1.8328
1.78474
1.75943
1.75307
1.76009
1.77383
1.78766
1.796
1.79548
1.78502
1.76617
1.74261
1.71945
1.70203
1.69486
1.7005
1.71888
1.74777
1.78374
1.82245
1.85899
1.88855
1.90702
1.91128
1.89932
1.87023
1.82413
1.76201
1.6856
1.59727
1.49982
1.39647
1.2907
1.1862
1.08671
0.996407
0.919292
0.858422
0.815615
0.791021
0.784325
0.792565
0.811239
0.836462
0.866305
0.90145
0.944826
1.00027
1.07066
1.15941
1.26244
1.36811
1.46145
1.52759
1.55479
1.53619
1.47047
1.36163
1.21839
1.05322
0.880395
0.713422
0.562295
0.430552
0.317117
0.220306
0.13783
0.06595
0
-0.0487
-0.10144
-0.162441
-0.234746
-0.319824
-0.417325
-0.525404
-0.649511
-0.895155
-0.63952
0.413377
2.20298
4.22838
5.71583
5.97014
4.71258
2.22134
-0.785421
-3.44674
-5.08616
-5.43249
-4.66129
-3.25851
-1.78322
-0.637424
0.0444618
0.299938
0.402728
0.493828
0.578008
0.654982
0.72519
0.790189
0.852718
0.916762
0.987345
1.07004
1.17013
1.29163
1.43633
1.6031
1.78737
1.98257
2.18132
2.37621
2.56097
2.73131
2.88546
3.02413
3.15011
3.26747
3.38078
3.49429
3.61134
3.73402
3.86321
3.99882
4.14023
4.28682
4.43843
4.59568
4.75997
4.93364
5.12103
5.33128
5.5809
5.87781
6.18772
6.45793
6.63516
6.68128
6.58298
6.35022
6.00508
5.5706
5.07054
4.54977
4.03757
3.54575
3.08158
2.65394
2.27016
1.93479
1.6495
1.41312
1.22208
1.07084
0.952972
0.861222
0.78649
0.719666
0.652781
0.579966
0.498224
0.407822
0.311983
0.216756
0.130061
0.0598366
0.0126656
-0.0071579
0.00196533
0.0390305
0.100875
0.182793
0.279191
0.384106
0.491834
0.597556
0.697589
0.789336
0.871132
0.942403
1.0036
1.05603
1.10158
1.1424
1.18061
1.21802
1.2559
1.29494
1.33522
1.3763
1.41729
1.45695
1.4939
1.52674
1.55432
1.57594
1.59151
1.60174
1.60818
1.61324
1.62011
1.63286
1.65565
1.69191
1.74362
1.81075
1.8926
1.98421
2.07934
2.17181
2.25673
2.33095
2.39277
2.44021
2.4713
2.48355
2.47432
2.44213
2.3879
2.31522
2.22959
2.13687
2.04156
1.946
1.85067
1.7554
1.65989
1.56422
1.46886
1.37448
1.28141
1.1892
1.09643
1.00083
0.899607
0.790141
0.670662
0.54079
0.401588
0.249168
0
0.240664
1.29213
3.15131
5.35308
7.09122
7.56971
6.40265
3.83114
0.627669
-2.25328
-4.08005
-4.59233
-3.99657
-2.7654
-1.38872
-0.207576
0.629662
1.10889
1.33472
1.54291
1.74272
1.93204
2.10756
2.26665
2.40774
2.53077
2.63738
2.7309
2.81587
2.89733
2.98003
3.06762
3.16214
3.26429
3.37374
3.48944
3.61063
3.73747
3.8714
4.01497
4.1713
4.34332
4.53302
4.7407
4.96492
5.20324
5.45236
5.70864
5.96854
6.22887
6.48694
6.74049
6.98758
7.22652
7.45578
7.67388
7.8792
8.06924
8.23968
8.38387
8.49438
8.56308
8.58022
8.53565
8.42067
8.2299
7.96286
7.62476
7.22641
6.78552
6.32202
5.85193
5.38705
4.93743
4.51151
4.11588
3.75539
3.43318
3.15081
2.90846
2.70507
2.53853
2.40601
2.30412
2.22915
2.1774
2.14568
2.13031
2.12538
2.12397
2.11961
2.10714
2.08346
2.04778
2.00149
1.94744
1.88926
1.83074
1.77507
1.72526
1.68449
1.65572
1.64152
1.64366
1.66255
1.69682
1.74356
1.79808
1.85306
1.901
1.93567
1.95329
1.95311
1.93714
1.90934
1.87436
1.83649
1.79891
1.7635
1.73159
1.70456
1.68425
1.67258
1.67136
1.68161
1.70294
1.73384
1.77009
1.80632
1.83712
1.85818
1.86702
1.8632
1.84809
1.82431
1.79536
1.76486
1.73615
1.71253
1.69715
1.69287
1.70204
1.72634
1.7666
1.82279
1.89403
1.97852
2.07361
2.17613
2.28247
2.3884
2.48902
2.57904
2.65301
2.70594
2.73348
2.73217
2.69965
2.63498
2.53898
2.41455
2.26671
2.10251
1.93047
1.75917
1.59582
1.44661
1.31586
1.20358
1.10694
1.02129
0.941357
0.862337
0.78046
0.693106
0.598584
0.496018
0.385589
0.267682
0.142639
0
-0.151062
0.243385
1.42117
3.27364
5.26588
6.60924
6.62864
5.12157
2.48623
-0.462158
-2.87042
-4.19666
-4.35275
-3.62829
-2.47119
-1.29466
-0.360371
0.234785
0.447412
0.561037
0.659443
0.749091
0.830452
0.904634
0.973596
1.04007
1.10749
1.17967
1.26037
1.35254
1.45772
1.57555
1.70358
1.83771
1.97314
2.10513
2.22984
2.34501
2.45028
2.54726
2.63921
2.73057
2.82635
2.93161
3.05095
3.18812
3.34586
3.5258
3.72854
3.9538
4.20053
4.46705
4.75106
5.04957
5.35879
5.67454
5.99062
6.29501
6.56973
6.79797
6.96466
7.05845
7.07251
7.00396
6.85254
6.6196
6.30846
5.92942
5.50406
5.05218
4.58898
4.12684
3.67585
3.24468
2.84037
2.46812
2.13138
1.83207
1.57084
1.34762
1.16063
1.00631
0.880236
0.777607
0.693885
0.62527
0.568937
0.522984
0.486147
0.457287
0.435289
0.418858
0.406448
0.396383
0.387036
0.377029
0.365406
0.351787
0.33647
0.320416
0.305162
0.292558
0.284369
0.281849
0.285635
0.295203
0.309057
0.32526
0.341962
0.357848
0.372334
0.385502
0.397855
0.410024
0.422551
0.435826
0.450109
0.465543
0.482095
0.499425
0.516718
0.532528
0.544873
0.551521
0.550437
0.54032
0.521045
0.4939
0.461507
0.427408
0.395338
0.368297
0.348069
0.335094
0.326542
0.316813
0.299688
0.270347
0.22712
0.172374
0.112202
0.055032
0.00959358
-0.0184372
-0.0268906
-0.0150715
0.0150219
0.0592564
0.112178
0.167822
0.220827
0.266862
0.303166
0.328881
0.345193
0.355237
0.36376
0.376536
0.399597
0.438362
0.496458
0.575145
0.67366
0.789794
0.919834
1.05901
1.20181
1.34219
1.47411
1.59158
1.68809
1.75611
1.78897
1.78141
1.72957
1.6321
1.49137
1.31421
1.1118
0.898534
0.69011
0.499477
0.333578
0.19816
0.0965618
0.0295845
-0.00453224
-0.0111759
0
0.024865
0.0438866
0.0474766
0.0291813
-0.0136063
-0.0794777
-0.163424
-0.263461
-0.385713
-0.10294
0.81096
2.36012
4.17704
5.5843
5.88188
4.71131
2.27582
-0.721985
-3.39137
-5.03237
-5.38535
-4.65005
-3.30866
-1.87902
-0.722181
0.0231594
0.379367
0.471648
0.576493
0.689225
0.813488
0.955582
1.11625
1.27876
1.41844
1.5119
1.54649
1.52662
1.47393
1.42069
1.39879
1.42916
1.50243
1.60208
1.7184
1.84559
1.97888
2.11476
2.25133
2.38836
2.52712
2.67017
2.82107
2.9839
3.16275
3.36093
3.58022
3.82023
4.07818
4.34899
4.6266
4.90493
5.17905
5.44601
5.705
5.95697
6.20718
6.47695
6.80437
7.16416
7.48451
7.6815
7.68735
7.47616
7.07898
6.57687
6.06709
5.61301
5.1911
4.77965
4.37391
3.97509
3.587
3.2152
2.86614
2.54588
2.25904
2.00791
1.79156
1.60661
1.44809
1.31066
1.18972
1.0821
0.986204
0.901642
0.828988
0.768838
0.720683
0.68331
0.655071
0.634308
0.61969
0.610285
0.605389
0.604208
0.605608
0.608092
0.610012
0.609958
0.607148
0.60168
0.59456
0.58755
0.58289
0.582932
0.590002
0.606402
0.634409
0.676085
0.734002
0.812356
0.915088
1.03688
1.15988
1.26238
1.32447
1.33337
1.28664
1.19213
1.06548
0.926209
0.793712
0.679706
0.588109
0.520093
0.476992
0.459352
0.465829
0.493381
0.537596
0.593205
0.654625
0.715614
0.770109
0.813365
0.842494
0.856799
0.857792
0.848828
0.834423
0.81943
0.808308
0.804237
0.809011
0.824219
0.851321
0.89153
0.945807
1.01475
1.09845
1.19619
1.30688
1.42909
1.561
1.69838
1.83042
1.94177
2.0162
2.04075
2.01049
1.93146
1.82018
1.69924
1.59035
1.50577
1.44154
1.39084
1.34849
1.30823
1.26427
1.21268
1.15212
1.08392
1.01129
0.938174
0.867705
0.801021
0.7374
0.673675
0.605169
0.526872
0.434689
0.326436
0.201308
0
-0.070668
0.498506
1.85089
3.75977
5.61937
6.67028
6.3644
4.65306
2.02023
-0.755244
-2.95304
-4.17097
-4.37993
-3.80839
-2.7738
-1.57004
-0.420748
0.525886
1.12833
1.31179
1.44255
1.55351
1.64497
1.71714
1.77139
1.81023
1.83715
1.8564
1.87287
1.89194
1.91921
1.9599
2.01812
2.09627
2.19452
2.31081
2.44127
2.58111
2.72571
2.87166
3.01752
3.16391
3.31316
3.46866
3.63399
3.812
4.00424
4.21068
4.42983
4.65919
4.89582
5.13693
5.38045
5.62524
5.87119
6.11912
6.371
6.63069
6.90383
7.19085
7.47228
7.71315
7.87466
7.92173
7.82891
7.58551
7.2002
6.70324
6.14336
5.57747
5.03742
4.52536
4.03815
3.57925
3.15318
2.76347
2.41253
2.10146
1.8299
1.59604
1.39692
1.22888
1.08821
0.971665
0.876821
0.802044
0.746242
0.708909
0.689544
0.685763
0.691488
0.699129
0.701594
0.693909
0.674273
0.644205
0.607727
0.569988
0.535839
0.508251
0.488186
0.476034
0.472196
0.476901
0.490359
0.512744
0.544024
0.583654
0.630478
0.682652
0.7377
0.792552
0.843976
0.889058
0.925595
0.952316
0.96889
0.975745
0.973775
0.964071
0.947837
0.926357
0.901136
0.874102
0.847631
0.824317
0.806544
0.796522
0.795289
0.800674
0.807442
0.809375
0.801259
0.78066
0.748846
0.710488
0.672257
0.64086
0.620725
0.612598
0.615323
0.627798
0.648564
0.676322
0.710278
0.75017
0.79607
0.848091
0.906137
0.969859
1.03902
1.11351
1.19342
1.27891
1.36984
1.46579
1.56483
1.66253
1.75251
1.82739
1.87984
1.90357
1.89419
1.84968
1.77063
1.66026
1.5245
1.37102
1.2084
1.04555
0.890204
0.747566
0.621206
0.513626
0.425587
0.356232
0.303372
0.263726
0.233145
0.207223
0.181961
0.154258
0.122241
0.0854118
0.0445425
0
-0.042878
0.195553
0.923799
2.26948
4.05744
5.73239
6.54235
5.92212
3.84349
0.885688
-2.03615
-4.11011
-4.95997
-4.69698
-3.72389
-2.47338
-1.2464
-0.196731
0.605068
0.962273
1.09834
1.20449
1.29403
1.36919
1.43357
1.49172
1.5485
1.60847
1.67518
1.7508
1.83596
1.92993
2.03097
2.13682
2.24519
2.35413
2.46226
2.56878
2.67337
2.77598
2.87677
2.97612
3.07477
3.17408
3.27624
3.38443
3.50268
3.63561
3.78792
3.96364
4.16555
4.39446
4.64886
4.92483
5.21654
5.51671
5.81517
119
269
415
564
716
868
1019
1175
1334
1489
1650
1813
1972
2137
2298
2460
2618
2781
2946
3128
3325
3512
3699
3512
3660
3631
0
0
0
0
0
0
0
0
0
0
0
0
0
0
0
0
0
0
0
0
0
0
0
0
0
0
0
0
0
0
0
0
0
0
0
0
0
0
0
0
0
0
0
0
0
0
0
0
0
0
0
0
0
0
0
0
0
0
0
0
0
0
0
0
0
0
0
0
0
0
0
0
0
0
0
0
0
0
0
0
0
0
0
0
0
0
0
0
0
0
0
0
0
0
0
0
0
0
0
0
0
0
0
0
0
0
0
0
0
0
0
0
0
0
0
0
0
0
0
0
0
0
0
0
0
0
0
0
0
0
0
0
0
0
0
0
0
0
0
0
0
0
0
0
0
0
0
0
0
0
0
0
0
0
0
0
0
0
0
0
0
0
0
0
0
0
0
0
0
0
0
0
0
0
0
0
0
0
0
0
0
0
0
0
0
0
0
0
0
0
0
0
0
0
0
0
0
0
0
0
0
0
0
0
0
0
0
0
0
0
0
0
0
0
0
0
0
0
0
0
0
0
0
0
0
0
0
0
0
0
0
0
0
0
0
0
0
0
0
0
0
0
0
0
0
0
0
0
0
0
0
0
0
0
0
0
0
0
0
0
0
0
0
0
0
0
0
0
0
0
0
0
0
0
0
0
0
0
0
0
0
0
0
0
0
0
0
0
0
0
0
0
0
0
0
0
0
0
0
0
0
0
0
0
0
0
0
0
0
0
0
0
0
0
0
0
0
0
0
0
0
0
0
0
0
0
0
0
0
0
0
0
0
0
0
0
0
0
0
0
0
0
0
0
0
0
0
0
0
0
0
0
0
0
0
0
0
0
0
0
0
0
0
0
0
0
0
0
0
0
0
0
0
0
0
0
0
0
0
0
0
0
0
0
0
0
0
0
0
0
0
0
0
0
0
0
0
0
0
0
0
0
0
0
0
0
0
0
0
0
0
0
0
0
0
0
0
0
0
0
0
0
0
0
0
0
0
0
0
0
0
0
0
0
0
0
0
0
0
0
0
0
0
0
0
0
0
0
0
0
0
0
0
0
0
0
0
0
0
0
0
0
0
0
0
0
0
0
0
0
0
0
0
0
0
0
0
0
0
0
0
0
0
0
0
0
0
0
0
0
0
0
0
0
0
0
0
0
0
0
0
0
0
0
0
0
0
0
0
0
0
0
0
0
0
0
0
0
0
0
0
0
0
0
0
0
0
0
0
0
0
0
0
0
0
0
0
0
0
0
0
0
0
0
0
0
0
0
0
0
0
0
0
0
0
0
0
0
0
0
0
0
0
0
0
0
0
0
0
0
0
0
0
0
0
0
0
0
0
0
0
0
0
0
0
0
0
0
0
0
0
0
0
0
0
0
0
0
0
0
0
0
0
0
0
0
0
0
0
0
0
0
0
0
0
0
0
0
0
0
0
0
0
0
0
0
0
0
0
0
0
0
0
0
0
0
0
0
0
0
0
0
0
0
0
0
0
0
0
0
0
0
0
0
0
0
0
0
0
0
0
0
0
0
0
0
0
0
0
0
0
0
0
0
0
0
0
0
0
0
0
0
0
0
0
0
0
0
0
0
0
0
0
0
0
0
0
0
0
0
0
0
0
0
0
0
0
0
0
0
0
0
0
0
0
0
0
0
0
0
0
0
0
0
0
0
0
0
0
0
0
0
0
0
0
0
0
0
0
0
0
0
0
0
0
0
0
0
0
0
0
0
0
0
0
0
0
0
0
0
0
0
0
0
0
0
0
0
0
0
0
0
0
0
0
0
0
0
0
0
0
0
0
0
0
0
0
0
0
0
0
0
0
0
0
0
0
0
0
0
0
0
0
0
0
0
0
0
0
0
0
0
0
0
0
0
0
0
0
0
0
0
0
0
0
0
0
0
0
0
0
0
0
0
0
0
0
0
0
0
0
0
0
0
0
0
0
0
0
0
0
0
0
0
0
0
0
0
0
0
0
0
0
0
0
0
0
0
0
0
0
0
0
0
0
0
0
0
0
0
0
0
0
0
0
0
0
0
0
0
0
0
0
0
0
0
0
0
0
0
0
0
0
0
0
0
0
0
0
0
0
0
0
0
0
0
0
0
0
0
0
0
0
0
0
0
0
0
0
0
0
0
0
0
0
0
0
0
0
0
0
0
0
0
0
0
0
0
0
0
0
0
0
0
0
0
0
0
0
0
0
0
0
0
0
0
0
0
0
0
0
0
0
0
0
0
0
0
0
0
0
0
0
0
0
0
0
0
0
0
0
0
0
0
0
0
0
0
0
0
0
0
0
0
0
0
0
0
0
0
0
0
0
0
0
0
0
0
0
0
0
0
0
0
0
0
0
0
0
0
0
0
0
0
0
0
0
0
0
0
0
0
0
0
0
0
0
0
0
0
0
0
0
0
0
0
0
0
0
0
0
0
0
0
0
0
0
0
0
0
0
0
0
0
0
0
0
0
0
0
0
0
0
0
0
0
0
0
0
0
0
0
0
0
0
0
0
0
0
0
0
0
0
0
0
0
0
0
0
0
0
0
0
0
0
0
0
0
0
0
0
0
0
0
0
0
0
0
0
0
0
0
0
0
0
0
0
0
0
0
0
0
0
0
0
0
0
0
0
0
0
0
0
0
0
0
0
0
0
0
0
0
0
0
0
0
0
0
0
0
0
0
0
0
0
0
0
0
0
0
0
0
0
0
0
0
0
0
0
0
0
0
0
0
0
0
0
0
0
0
0
0
0
0
0
0
0
0
0
0
0
0
0
0
0
0
0
0
0
0
0
0
0
0
0
0
0
0
0
0
0
0
0
0
0
0
0
0
0
0
0
0
0
0
0
0
0
0
0
0
0
0
0
0
0
0
0
0
0
0
0
0
0
0
0
0
0
0
0
0
0
0
0
0
0
0
0
0
0
0
0
0
0
0
0
0
0
0
0
0
0
0
0
0
0
0
0
0
0
0
0
0
0
0
0
0
0
0
0
0
0
0
0
0
0
0
0
0
0
0
0
0
0
0
0
0
0
0
0
0
0
0
0
0
0
0
0
0
0
0
0
0
0
0
0
0
0
0
0
0
0
0
0
0
0
0
0
0
0
0
0
0
0
0
0
0
0
0
0
0
0
0
0
0
0
0
0
0
0
0
0
0
0
0
0
0
0
0
0
0
0
0
0
0
0
0
0
0
0
0
0
0
0
0
0
0
0
0
0
0
0
0
0
0
0
0
0
0
0
0
0
0
0
0
0
0
0
0
0
0
0
0
0
0
0
0
0
0
0
0
0
0
0
0
0
0
0
0
0
0
0
0
0
0
0
0
0
0
0
0
0
0
0
0
0
0
0
0
0
0
0
0
0
0
0
0
0
0
0
0
0
0
0
0
0
0
0
0
0
0
0
0
0
0
0
0
0
0
0
0
0
0
0
0
0
0
0
0
0
0
0
0
0
0
0
0
0
0
0
0
0
0
0
0
0
0
0
0
0
0
0
0
0
0
0
0
0
0
0
0
0
0
0
0
0
0
0
0
0
0
0
0
0
0
0
0
0
0
0
0
0
0
0
0
0
0
0
0
0
0
0
0
0
0
0
0
0
0
0
0
0
0
0
0
0
0
0
0
0
0
0
0
0
0
0
0
0
0
0
0
0
0
0
0
0
0
0
0
0
0
0
0
0
0
0
0
0
0
0
0
0
0
0
0
0
0
0
0
0
0
0
0
0
0
0
0
0
0
0
0
0
0
0
0
0
0
0
0
0
0
0
0
0
0
0
0
0
0
0
0
0
0
0
0
0
0
0
0
0
0
0
0
0
0
0
0
0
0
0
0
0
0
0
0
0
0
0
0
0
0
0
0
0
0
0
0
0
0
0
0
0
0
0
0
0
0
0
0
0
0
0
0
0
0
0
0
0
0
0
0
0
0
0
0
0
0
0
0
0
0
0
0
0
0
0
0
0
0
0
0
0
0
0
0
0
0
0
0
0
0
0
0
0
0
0
0
0
0
0
0
0
0
0
0
0
0
0
0
0
0
0
0
0
0
0
0
0
0
0
0
0
0
0
0
0
0
0
0
0
0
0
0
0
0
0
0
0
0
0
0
0
0
0
0
0
0
0
0
0
0
0
0
0
0
0
0
0
0
0
0
0
0
0
0
0
0
0
0
0
0
0
0
0
0
0
0
0
0
0
0
0
0
0
0
0
0
0
0
0
0
0
0
0
0
0
0
0
0
0
0
0
0
0
0
0
0
0
0
0
0
0
0
0
0
0
0
0
0
0
0
0
0
0
0
0
0
0
0
0
0
0
0
0
0
0
0
0
0
0
0
0
0
0
0
0
0
0
0
0
0
0
0
0
0
0
0
0
0
0
0
0
0
0
0
0
0
0
0
0
0
0
0
0
0
0
0
0
0
0
0
0
0
0
0
0
0
0
0
0
0
0
0
0
0
0
0
0
0
0
0
0
0
0
0
0
0
0
0
0
0
0
0
0
0
0
0
0
0
0
0
0
0
0
0
0
0
0
0
0
0
0
0
0
0
0
0
0
0
0
0
0
0
0
0
0
0
0
0
0
0
0
0
0
0
0
0
0
0
0
0
0
0
0
0
0
0
0
0
0
0
0
0
0
0
0
0
0
0
0
0
0
0
0
0
0
0
0
0
0
0
0
0
0
0
0
0
0
0
0
0
0
0
0
0
0
0
0
0
0
0
0
0
0
0
0
0
0
0
0
0
0
0
0
0
0
0
0
0
0
0
0
0
0
0
0
0
0
0
0
0
0
0
0
0
0
0
0
0
0
0
0
0
0
0
0
0
0
0
0
0
0
0
0
0
0
0
0
0
0
0
0
0
0
0
0
0
0
0
0
0
0
0
0
0
0
0
0
0
0
0
0
0
0
0
0
0
0
0
0
0
0
0
0
0
0
0
0
0
0
0
0
0
0
0
0
0
0
0
0
0
0
0
0
0
0
0
0
0
0
0
0
0
0
0
0
0
0
0
0
0
0
0
0
0
0
0
0
0
0
0
0
0
0
0
0
0
0
0
0
0
0
0
0
0
0
0
0
0
0
0
0
0
0
0
0
0
0
0
0
0
0
0
0
0
0
0
0
0
0
0
0
0
0
0
0
0
0
0
0
0
0
0
0
0
0
0
0
0
0
0
0
0
0
0
0
0
0
0
0
0
0
0
0
0
0
0
0
0
0
0
0
0
0
0
0
0
0
0
0
0
0
0
0
0
0
0
0
0
0
0
0
0
0
0
0
0
0
0
0
0
0
0
0
0
0
0
0
0
0
0
0
0
0
0
0
0
0
0
0
0
0
0
0
0
0
0
0
0
0
0
0
0
0
0
0
0
0
0
0
0
0
0
0
0
0
0
0
0
0
0
0
0
0
0
0
0
0
0
0
0
0
0
0
0
0
0
0
0
0
0
0
0
0
0
0
0
0
0
0
0
0
0
0
0
0
0
0
0
0
0
0
0
0
0
0
0
0
0
0
0
0
0
0
0
0
0
0
0
0
0
0
0
0
0
0
0
0
0
0
0
0
0
0
0
0
0
0
0
0
0
0
0
0
0
0
0
0
0
0
0
0
0
0
0
0
0
0
0
0
0
0
0
0
0
0
0
0
0
0
0
0
0
0
0
0
0
0
0
0
0
0
0
0
0
0
0
0
0
0
0
0
0
0
0
0
0
0
0
0
0
0
0
0
0
0
0
0
0
0
0
0
0
0
0
0
0
0
0
0
0
0
0
0
0
0
0
0
0
0
0
0
0
0
0
0
0
0
0
0
0
0
0
0
0
0
0
0
0
0
0
0
0
0
0
0
0
0
0
0
0
0
0
0
0
0
0
0
0
0
0
0
0
0
0
0
0
0
0
0
0
0
0
0
0
0
0
0
0
0
0
0
0
0
0
0
0
0
0
0
0
0
0
0
0
0
0
0
0
0
0
0
0
0
0
0
0
0
0
0
0
0
0
0
0
0
0
0
0
0
0
0
0
0
0
0
0
0
0
0
0
0
0
0
0
0
0
0
0
0
0
0
0
0
0
0
0
0
0
0
0
0
0
0
0
0
0
0
0
0
0
0
0
0
0
0
0
0
0
0
0
0
0
0
0
0
0
0
0
0
0
0
0
0
0
0
0
0
0
0
0
0
0
0
0
0
0
0
0
0
0
0
0
0
0
0
0
0
0
0
0
0
0
0
0
0
0
0
0
0
0
0
0
0
0
0
0
0
0
0
0
0
0
0
0
0
0
0
0
0
0
0
0
0
0
0
0
0
0
0
0
0
0
0
0
0
0
0
0
0
0
0
0
0
0
0
0
0
0
0
0
0
0
0
0
0
0
0
0
0
0
0
0
0
0
0
0
0
0
0
0
0
0
0
0
0
0
0
0
0
0
0
0
0
0
0
0
0
0
0
0
0
0
0
0
0
0
0
0
0
0
0
0
0
0
0
0
0
0
0
0
0
0
0
0
0
0
0
0
0
0
0
0
0
0
0
0
0
0
0
0
0
0
0
0
0
0
0
0
0
0
0
0
0
0
0
0
0
0
0
0
0
0
0
0
0
0
0
0
0
0
0
0
0
0
0
0
0
0
0
0
0
0
0
0
0
0
0
0
0
0
0
0
0
0
0
0
0
0
0
0
0
0
0
0
0
0
0
0
0
0
0
0
0
0
0
0
0
0
0
0
0
0
0
0
0
0
0
0
0
0
0
0
0
0
0
0
0
0
0
0
0
0
0
0
0
0
0
0
0
0
0
0
0
0
0
0
0
0
0
0
0
0
0
0
0
0
0
0
0
0
0
0
0
0
0
0
0
0
0
0
0
0
0
0
0
0
0
0
0
0
0
0
0
0
0
0
0
0
0
0
0
0
0
0
0
0
0
0
0
0
0
0
0
0
0
0
0
0
0
0
0
0
0
0
0
0
0
0
0
0
0
0
0
0
0
0
0
0
0
0
0
0
0
0
0
0
0
0
0
0
0
0
0
0
0
0
0
0
0
0
0
0
0
0
0
0
0
0
0
0
0
0
0
0
0
0
0
0
0
0
0
0
0
0
0
0
0
0
0
0
0
0
0
0
0
0
0
0
0
0
0
0
0
0
0
0
0
0
0
0
0
0
0
0
0
0
0
0
0
0
0
0
0
0
0
0
0
0
0
0
0
0
0
0
0
0
0
0
0
0
0
0
0
0
0
0
0
0
0
0
0
0
0
0
0
0
0
0
0
0
0
0
0
0
0
0
0
0
0
0
0
0
0
0
0
0
0
0
0
0
0
0
0
0
0
0
0
0
0
0
0
0
0
0
0
0
0
0
0
0
0
0
0
0
0
0
0
0
0
0
0
0
0
0
0
0
0
0
0
0
0
0
0
0
0
0
0
0
0
0
0
0
0
0
0
0
0
0
0
0
0
0
0
0
0
0
0
0
0
0
0
0
0
0
0
0
0
0
0
0
0
0
0
0
0
0
0
0
0
0
0
0
0
0
0
0
0
0
0
0
0
0
0
0
0
0
0
0
0
0
0
0
0
0
0
0
0
0
0
0
0
0
0
0
0
0
0
0
0
0
0
0
0
0
0
0
0
0
0
0
0
0
0
0
0
0
0
0
0
0
0
0
0
0
0
0
0
0
0
0
0
0
0
0
0
0
0
0
0
0
0
0
0
0
0
0
0
0
0
0
0
0
0
0
0
0
0
0
0
0
0
0
0
0
0
0
0
0
0
0
0
0
0
0
0
0
0
0
0
0
0
0
0
0
0
0
0
0
0
0
0
0
0
0
0
0
0
0
0
0
0
0
0
0
0
0
0
0
0
0
0
0
0
0
0
0
0
0
0
0
0
0
0
0
0
0
0
0
0
0
0
0
0
0
0
0
0
0
0
0
0
0
0
0
0
0
0
0
0
0
0
0
0
0
0
0
0
0
0
0
0
0
0
0
0
0
0
0
0
0
0
0
0
0
0
0
0
0
0
0
0
0
0
0
0
0
0
0
0
0
0
0
0
0
0
0
0
0
0
0
0
0
0
0
0
0
0
0
0
0
0
0
0
0
0
0
0
0
0
0
0
0
0
0
0
0
0
0
0
0
0
0
0
0
0
0
0
0
0
0
0
0
0
0
0
0
0
0
0
0
0
0
0
0
0
0
0
0
0
0
0
0
0
0
0
0
0
0
0
0
0
0
0
0
0
0
0
0
0
0
0
0
0
0
0
0
0
0
0
0
0
0
0
0
0
0
0
0
0
0
0
0
0
0
0
0
0
0
0
0
0
0
0
0
0
0
0
0
0
0
0
0
0
0
0
0
0
0
0
0
0
0
0
0
0
0
0
0
0
0
0
0
0
0
0
0
0
0
0
0
0
0
0
0
0
0
0
0
0
0
0
0
0
0
0
0
0
0
0
0
0
0
0
0
0
0
0
0
0
0
0
0
0
0
0
0
0
