-1.02549
-1.00573
-0.970433
-0.918771
-0.850688
-0.765957
-0.669496
-0.57078
-0.479489
-0.403058
-0.344889
-0.303869
-0.275359
-0.253282
-0.232538
-0.210941
-0.189843
-0.17492
-0.173754
-0.192404
-0.232167
-0.287784
-0.34791
-0.397848
-0.423628
-0.415826
-0.377338
-0.311111
-0.222251
-0.117434
-0.00485334
0.109527
0.218949
0.317191
0.399622
0.464136
0.511805
0.546673
0.574546
0.60119
0.630696
0.664115
0.70028
0.737918
0.775479
0.811212
0.843115
0.868759
0.885596
0.890746
0.881167
0.854048
0.807381
0.740579
0.655012
0.554272
0.444133
0.331795
0.225273
0.13259
0.0597383
0.00990295
-0.0169997
-0.0240591
-0.0168197
-0.00199013
0.0138693
0.0254766
0.0295385
-0.0109244
0
0.51637
1.84415
3.98292
6.44775
8.43279
9.25028
8.67909
6.97759
4.66696
2.33272
0.508777
-0.460966
-0.582836
-0.232969
0.0265428
0.266881
0.476629
0.646883
0.793308
0.921855
1.03386
1.13209
1.22028
1.30239
1.38171
1.45977
1.53601
1.60769
1.67177
1.72691
1.77469
1.81947
1.867
1.92253
1.98914
2.06514
2.14937
2.24117
2.34015
2.44659
2.56164
2.68724
2.82577
2.97955
3.15026
3.33829
3.54234
3.75915
3.98366
4.2093
4.42859
4.63395
4.81867
4.97732
5.10504
5.19967
5.26093
5.28954
5.28668
5.25351
5.19096
5.09968
4.98026
4.8335
4.66191
4.4683
4.2558
4.0284
3.7909
3.54852
3.30662
3.07026
2.84381
2.63068
2.43323
2.25285
2.09012
1.94504
1.8173
1.7067
1.6124
1.53333
1.46813
1.41524
1.3729
1.33932
1.3128
1.29188
1.27541
1.26249
1.2526
1.2454
1.24054
1.23765
1.23594
1.23405
1.23037
1.22339
1.21208
1.19628
1.17676
1.15509
1.13332
1.11345
1.09696
1.08481
1.07749
1.07511
1.07742
1.08394
1.09397
1.10666
1.12107
1.13617
1.15089
1.16428
1.17563
1.1846
1.19118
1.1961
1.20072
1.20689
1.21665
1.2318
1.25363
1.28299
1.31787
1.35309
1.38284
1.40272
1.41138
1.4108
1.40526
1.39916
1.39499
1.39215
1.38774
1.37798
1.36014
1.33412
1.30303
1.27257
1.24946
1.23845
1.24162
1.25921
1.29037
1.33121
1.37245
1.4032
1.41473
1.40299
1.37043
1.32642
1.28554
1.2638
1.27362
1.31561
1.38042
1.45876
1.54364
1.6276
1.70378
1.76574
1.80921
1.83175
1.83265
1.81288
1.77522
1.72247
1.66147
1.60293
1.55768
1.53457
1.5385
1.56941
1.62258
1.69011
1.76302
1.83361
1.8977
1.95297
1.99764
2.0317
2.05627
2.07328
2.08545
2.09621
2.10939
2.1286
2.16016
2.20829
2.25882
2.28797
2.27122
2.19422
2.06026
1.89047
1.7165
1.56917
1.46011
1.37671
1.31873
1.27778
1.24188
1.19786
1.13371
1.0406
0.908252
0.727694
0.507737
0.261576
0
0.231029
0.839396
1.83577
3.34575
5.39334
7.63739
9.40196
10.0375
9.29278
7.40274
4.91765
2.48278
0.666475
-0.216447
-0.253989
0.0330077
0.203673
0.366343
0.529926
0.69952
0.870695
1.03974
1.20217
1.35327
1.48987
1.61085
1.71576
1.80595
1.88431
1.95469
2.02109
2.08692
2.15527
2.22402
2.28491
2.32781
2.3463
2.34266
2.32995
2.33003
2.3675
2.46188
2.60643
2.78615
2.98978
3.2086
3.43287
3.65335
3.86351
4.0603
4.24397
4.41692
4.5822
4.74188
4.89562
5.03985
5.16757
5.27133
5.34438
5.38221
5.38318
5.34812
5.27932
5.17933
5.05002
4.89385
4.71493
4.51528
4.29569
4.05764
3.8042
3.54001
3.27135
3.00577
2.75128
2.51542
2.30465
2.12315
1.97186
1.84931
1.75112
1.66917
1.59549
1.52387
1.45112
1.37736
1.3057
1.24113
1.18924
1.15383
1.13703
1.13956
1.16021
1.19746
1.2459
1.29631
1.33994
1.37053
1.38556
1.38653
1.37803
1.36597
1.35556
1.34992
1.3488
1.35084
1.35484
1.35958
1.36425
1.3686
1.37287
1.37763
1.38337
1.39025
1.39778
1.40463
1.40824
1.40561
1.39412
1.37264
1.34235
1.30708
1.27275
1.24603
1.24016
1.26291
1.29795
1.31768
1.2974
1.22962
1.12981
1.02968
0.961542
0.942432
0.971216
1.01574
1.03469
0.998226
0.903673
0.778372
0.667082
0.609992
0.623974
0.674139
0.739835
0.8126
0.885537
0.95454
1.01796
1.07591
1.12925
1.17859
1.22396
1.26437
1.29765
1.3217
1.33466
1.33542
1.32386
1.3011
1.26946
1.23233
1.19389
1.15895
1.13232
1.11834
1.12046
1.14083
1.18019
1.23778
1.31151
1.39798
1.49284
1.59234
1.69052
1.77932
1.85009
1.89391
1.90234
1.86851
1.78839
1.66209
1.49481
1.297
1.08452
0.873115
0.677024
0.503542
0.356904
0.239832
0.1517
0.0892002
0.0470155
0.0191493
0
-0.013616
-0.0255673
-0.192307
-0.0753241
0.703589
2.27925
4.36999
6.40658
7.80746
8.16117
7.28796
5.31118
2.73468
0.334654
-1.21391
-1.721
-1.51339
-1.21082
-0.938848
-0.722219
-0.575432
-0.474716
-0.395525
-0.330875
-0.275225
-0.222301
-0.165906
-0.100882
-0.0239835
0.0656314
0.166342
0.274402
0.38607
0.498208
0.608394
0.715096
0.817506
0.914667
1.00552
1.08949
1.16628
1.23667
1.30325
1.37075
1.44573
1.53551
1.64684
1.78181
1.93972
2.11922
2.31663
2.52596
2.73967
2.94878
3.14418
3.31788
3.46379
3.57807
3.65899
3.70641
3.72103
3.70366
3.65533
3.57628
3.46587
3.32372
3.15052
2.94753
2.71749
2.46463
2.19449
1.91372
1.62905
1.34711
1.07403
0.815173
0.575068
0.357414
0.165149
0.000556803
-0.13505
-0.238615
-0.306734
-0.341225
-0.348119
-0.336237
-0.318409
-0.306575
-0.309097
-0.32928
-0.365118
-0.410311
-0.456277
-0.49456
-0.518924
-0.529556
-0.529389
-0.52047
-0.504801
-0.484744
-0.462685
-0.440813
-0.42095
-0.404418
-0.391949
-0.383644
-0.378836
-0.376142
-0.373622
-0.368836
-0.359514
-0.344073
-0.321966
-0.293733
-0.260711
-0.224515
-0.18653
-0.147635
-0.108248
-0.0687053
-0.0300235
0.00542665
0.0343184
0.0536034
0.0620847
0.0614831
0.0563449
0.0526876
0.0558814
0.0686385
0.0896665
0.114784
0.138026
0.153643
0.157902
0.150057
0.132164
0.107948
0.0812585
0.0548051
0.0295134
0.00560517
-0.0166673
-0.0364456
-0.0516552
-0.0590826
-0.0546835
-0.0344335
0.00458498
0.0741082
0.178318
0.29621
0.400465
0.467247
0.4846
0.455375
0.393676
0.317451
0.24163
0.173127
0.111945
0.0583224
0.0144511
-0.0176623
-0.035629
-0.0369369
-0.0194047
0.0183046
0.0764773
0.161879
0.277037
0.408268
0.536033
0.640742
0.707087
0.727263
0.702549
0.643459
0.568534
0.501221
0.462459
0.4661
0.512696
0.589329
0.685196
0.794681
0.912868
1.03502
1.15587
1.26747
1.36268
1.43485
1.47848
1.49009
1.46889
1.41664
1.33696
1.23458
1.11624
0.990103
0.861765
0.736116
0.617947
0.511374
0.420197
0.346115
0.288827
0.246558
0.216291
0.192372
0.168899
0.140979
0.105605
0.0621119
0
-0.0182451
0.438749
1.5559
3.38909
5.73024
7.9973
9.38846
9.31304
7.77175
5.34375
2.80941
0.765395
-0.504129
-0.965461
-0.76387
-0.32011
0.0666914
0.34495
0.494291
0.570057
0.622684
0.662937
0.692736
0.714948
0.732707
0.749432
0.768707
0.793999
0.828228
0.873333
0.929978
0.997548
1.0737
1.15668
1.24501
1.33776
1.43467
1.53596
1.64193
1.75257
1.86727
1.98473
2.10327
2.22117
2.33722
2.45104
2.56325
2.67547
2.78996
2.90919
3.03533
3.1698
3.31291
3.46379
3.62041
3.77972
3.93756
4.08807
4.22403
4.33788
4.42033
4.46152
4.45276
4.38615
4.25625
4.06228
3.80971
3.51074
3.18291
2.84612
2.51726
2.20312
1.90914
1.6384
1.39137
1.16656
0.961533
0.773758
0.601392
0.443606
0.300546
0.172997
0.0619113
-0.0320258
-0.10866
-0.168438
-0.212314
-0.241495
-0.257272
-0.261389
-0.255798
-0.242255
-0.223348
-0.201881
-0.180508
-0.161373
-0.145798
-0.134131
-0.125808
-0.119595
-0.113953
-0.107479
-0.0991403
-0.0883754
-0.0750491
-0.059455
-0.0422197
-0.0240049
-0.00533946
0.0134512
0.0322235
0.0509615
0.0697783
0.0890234
0.10949
0.132623
0.16059
0.196086
0.241831
0.29985
0.374103
0.467059
0.568723
0.664589
0.739914
0.784171
0.794098
0.774319
0.735466
0.690696
0.651909
0.624553
0.609232
0.604449
0.608031
0.618865
0.635329
0.656214
0.680848
0.708897
0.740133
0.773743
0.804257
0.821597
0.813678
0.770853
0.690869
0.576722
0.452371
0.349016
0.29461
0.304342
0.37597
0.491437
0.62336
0.743407
0.834678
0.886678
0.898215
0.876169
0.832226
0.778664
0.724762
0.674848
0.62862
0.585598
0.546442
0.512417
0.485462
0.467918
0.461822
0.468247
0.486961
0.516521
0.554749
0.599412
0.648396
0.700922
0.757172
0.817935
0.884165
0.956443
1.03445
1.1171
1.20131
1.2816
1.35206
1.40779
1.44607
1.46699
1.47308
1.46837
1.45688
1.44138
1.42265
1.39926
1.36866
1.32826
1.27676
1.21521
1.14736
1.07911
1.01707
0.972687
0.951381
0.942823
0.928002
0.88705
0.807232
0.686997
0.53451
0.362367
0.181943
0
0.106941
0.631611
1.65922
3.16502
5.04481
7.03415
8.6085
9.12184
8.2117
6.1304
3.64237
1.54922
0.270434
-0.217241
-0.17205
-0.131113
-0.0980895
-0.0706247
-0.0458959
-0.0141897
0.0968788
0.36317
0.704979
0.963131
0.997848
0.76106
0.325492
-0.124167
-0.352152
-0.212607
0.0345721
0.294522
0.538997
0.749819
0.922833
1.06723
1.20061
1.34181
1.50424
1.68486
1.87873
2.08122
2.28678
2.48897
2.68293
2.86687
3.04245
3.21422
3.38831
3.5707
3.76553
3.97398
4.19583
4.42669
4.65381
4.86187
5.03573
5.16134
5.23283
5.24708
5.20309
5.10325
4.95545
4.77377
4.57608
4.37887
4.19049
4.00819
3.82791
3.64639
3.4603
3.26708
3.06555
2.85619
2.64122
2.42422
2.2097
2.00261
1.80797
1.63077
1.47573
1.34586
1.24258
1.16633
1.11484
1.08395
1.06839
1.06253
1.06117
1.06013
1.05647
1.04852
1.03555
1.01745
0.994392
0.966699
0.934977
0.899915
0.862377
0.82347
0.784458
0.746617
0.711113
0.678936
0.650938
0.62792
0.610734
0.600297
0.597494
0.602942
0.616661
0.638535
0.667286
0.698317
0.72534
0.741946
0.743173
0.72687
0.694391
0.650293
0.601069
0.553313
0.511475
0.477832
0.452358
0.433498
0.419329
0.408577
0.401063
0.397474
0.398703
0.405046
0.416001
0.43054
0.447312
0.464978
0.482329
0.498081
0.510834
0.519041
0.521278
0.516682
0.505259
0.487818
0.465547
0.439495
0.410551
0.37957
0.347659
0.317306
0.293232
0.281732
0.289213
0.320184
0.375413
0.455768
0.550597
0.643496
0.718937
0.766978
0.785892
0.78185
0.766035
0.750534
0.744635
0.749183
0.762387
0.783068
0.809647
0.840469
0.874298
0.910607
0.949611
0.992047
1.03906
1.09208
1.15085
1.21228
1.27098
1.31843
1.34577
1.34533
1.31232
1.2462
1.15111
1.03522
0.908785
0.781672
0.661068
0.548016
0.441413
0.340884
0.246079
0.15698
0.0736437
-0.00349622
-0.0739597
-0.137631
-0.195055
-0.245801
-0.248788
0
0.633477
1.70408
3.20875
5.01974
6.72733
7.65895
7.23728
5.42989
2.85076
0.385149
-1.32127
-2.08907
-2.08342
-1.60494
-1.16627
-0.820344
-0.605526
-0.517487
-0.458218
-0.404963
-0.350803
-0.290447
-0.220726
-0.138332
-0.0464264
0.0475837
0.13584
0.213129
0.278993
0.337918
0.397453
0.465029
0.54491
0.636088
0.734671
0.835567
0.935283
1.03385
1.13492
1.24406
1.36613
1.50313
1.65078
1.80616
1.96654
2.13031
2.29776
2.47113
2.65385
2.84932
3.06622
3.31577
3.58441
3.84042
4.05367
4.20507
4.28831
4.30499
4.25868
4.15347
3.99726
3.80748
3.59868
3.38035
3.15212
2.91103
2.65709
2.38837
2.10265
1.79979
1.48217
1.15477
0.824955
0.502685
0.200932
-0.0682186
-0.294546
-0.471021
-0.594562
-0.666138
-0.689999
-0.643169
-0.518854
-0.355919
-0.19754
-0.0823527
-0.0342952
-0.0567499
-0.133669
-0.236113
-0.331559
-0.395586
-0.426483
-0.432026
-0.420718
-0.39799
-0.366536
-0.328393
-0.28513
-0.237927
-0.18779
-0.135788
-0.083217
-0.0316063
0.0174057
0.0622082
0.101572
0.134797
0.161776
0.182954
0.199186
0.211539
0.221063
0.228599
0.234634
0.23927
0.242238
0.243037
0.241114
0.236067
0.227847
0.216913
0.204316
0.191671
0.181018
0.174535
0.174178
0.181289
0.196258
0.218944
0.24785
0.279123
0.308216
0.330805
0.343724
0.345703
0.337704
0.322764
0.305361
0.290437
0.281867
0.282013
0.291648
0.310039
0.335776
0.366596
0.400058
0.433902
0.466165
0.494675
0.517057
0.531223
0.535375
0.528688
0.512073
0.488604
0.463255
0.441885
0.429773
0.42901
0.440141
0.461911
0.491805
0.527171
0.566276
0.608838
0.655907
0.711236
0.781085
0.857454
0.923743
0.962182
0.964309
0.937792
0.904595
0.890883
0.914406
0.974265
1.04725
1.12285
1.19029
1.2405
1.26723
1.26728
1.23988
1.18592
1.10737
1.00819
0.895081
0.773672
0.649999
0.531731
0.427065
0.343181
0.284803
0.259169
0.267643
0.298415
0.336992
0.37084
0.392781
0.401746
0.0875977
0
0.602818
2.05229
4.11585
6.32729
8.18253
9.20792
9.00495
7.43666
4.85441
2.06433
-0.0683117
-1.08374
-1.07931
-0.507782
-0.190666
0.0841651
0.29674
0.449835
0.580617
0.696679
0.803654
0.903828
0.997382
1.08181
1.15456
1.21406
1.26048
1.29587
1.32366
1.34799
1.3729
1.4018
1.43703
1.47988
1.53161
1.59327
1.6657
1.74951
1.84501
1.95214
2.07058
2.19986
2.33966
2.48992
2.6508
2.82237
3.00423
3.19502
3.39209
3.59141
3.78775
3.9745
4.14439
4.29147
4.41132
4.50142
4.56097
4.59035
4.59031
4.56125
4.5028
4.41468
4.2956
4.14469
3.96229
3.75047
3.5131
3.25663
2.98761
2.71199
2.43519
2.16174
1.89506
1.63763
1.39123
1.15737
0.937551
0.733518
0.54721
0.380603
0.235373
0.11318
0.0184191
-0.0453787
-0.0838235
-0.107077
-0.126449
-0.151707
-0.188503
-0.236789
-0.290809
-0.340734
-0.37545
-0.387393
-0.368775
-0.304029
-0.202805
-0.100956
-0.0357636
-0.0314545
-0.0886886
-0.182925
-0.274214
-0.324902
-0.316314
-0.265628
-0.191121
-0.123968
-0.0930172
-0.115225
-0.189882
-0.29879
-0.413064
-0.504232
-0.554719
-0.57507
-0.580628
-0.577484
-0.571973
-0.570134
-0.576968
-0.596247
-0.629558
-0.676295
-0.733552
-0.796214
-0.857418
-0.909409
-0.944743
-0.95759
-0.948007
-0.9158
-0.863327
-0.795048
-0.716913
-0.634855
-0.554065
-0.478242
-0.409501
-0.348409
-0.294391
-0.246978
-0.205159
-0.168534
-0.13771
-0.114444
-0.101548
-0.101194
-0.114637
-0.141455
-0.179001
-0.222291
-0.264502
-0.298127
-0.316574
-0.316156
-0.297874
-0.264173
-0.219858
-0.170982
-0.123624
-0.08229
-0.0502422
-0.0296954
-0.0220158
-0.0270078
-0.043129
-0.0672267
-0.0946128
-0.116947
-0.123389
-0.102291
-0.0432786
0.0604665
0.210307
0.401211
0.622085
0.857413
1.08955
1.30057
1.47735
1.61367
1.71064
1.77547
1.81889
1.85204
1.88358
1.91803
1.95525
1.98905
2.00954
2.0072
1.97588
1.91443
1.82656
1.71925
1.6004
1.4769
1.35394
1.23409
1.11905
1.01085
0.911558
0.823132
0.747868
0.686756
0.636908
0.593068
0.54905
0.499367
0.440752
0.373053
0.296626
0
0.0421288
0.821478
2.46054
4.66879
6.88875
8.52415
9.07739
8.25119
6.12092
3.26309
0.589563
-1.12108
-1.64231
-1.30586
-0.673428
-0.115958
0.263186
0.373105
0.384835
0.379373
0.367423
0.356357
0.353198
0.3635
0.389548
0.432709
0.493733
0.571621
0.665901
0.774784
0.887408
0.992479
1.08141
1.15087
1.20363
1.24735
1.29191
1.34646
1.41641
1.50013
1.59725
1.70813
1.83274
1.97064
2.1209
2.28202
2.45179
2.62741
2.8057
2.98343
3.15758
3.32559
3.48536
3.63448
3.7701
3.89061
3.99424
4.07894
4.14233
4.18063
4.19054
4.16849
4.11115
4.01609
3.88262
3.71247
3.51002
3.28191
3.03646
2.78215
2.52543
2.27068
2.02092
1.77816
1.54388
1.31958
1.1072
0.909291
0.728936
0.56972
0.435895
0.329679
0.251869
0.201548
0.17606
0.171332
0.182631
0.204609
0.232076
0.260905
0.288335
0.312931
0.334242
0.352142
0.366878
0.378677
0.387837
0.39498
0.401253
0.408329
0.418142
0.432477
0.452313
0.477618
0.508232
0.543506
0.582461
0.623906
0.666564
0.708959
0.749563
0.786973
0.82012
0.848453
0.872014
0.891313
0.907049
0.919578
0.928958
0.93465
0.935701
0.931134
0.920424
0.903903
0.882997
0.860238
0.838974
0.822764
0.81504
0.818453
0.834301
0.862139
0.901105
0.946651
0.993169
1.03514
1.06815
1.08951
1.09833
1.09513
1.08148
1.05985
1.0338
1.00642
0.981287
0.962391
0.95423
0.962614
0.992313
1.04711
1.13018
1.23209
1.32709
1.38857
1.39535
1.33932
1.23159
1.10191
0.989668
0.929898
0.928854
0.960759
1.01257
1.07708
1.14592
1.21069
1.26415
1.30127
1.31969
1.31975
1.30418
1.27756
1.24565
1.21467
1.19056
1.17731
1.17827
1.19516
1.22799
1.27514
1.33374
1.40033
1.47151
1.54445
1.61753
1.69007
1.76206
1.83369
1.9048
1.97438
2.03998
2.09822
2.14515
2.17711
2.1914
2.18669
2.16309
2.12201
2.06576
1.99734
1.92062
1.83854
1.75336
1.66696
1.58075
1.49543
1.41089
1.32597
1.23837
1.14442
1.03994
0.920998
0.784894
0.631206
0.462366
0.272838
-0.146886
0
0.906003
2.5847
4.87007
7.33363
9.26907
9.94323
9.01636
6.77234
3.94575
1.32258
-0.553229
-1.44509
-1.39227
-0.675952
-0.0200919
0.484775
0.769793
0.872717
0.946592
1.0101
1.07193
1.13964
1.22021
1.31659
1.42668
1.53944
1.63476
1.69384
1.70422
1.66472
1.58916
1.50542
1.44783
1.44578
1.51415
1.62509
1.75861
1.90762
2.06716
2.23271
2.4005
2.56753
2.73145
2.89028
3.04209
3.18429
3.31316
3.42634
3.52237
3.60142
3.66589
3.72061
3.77252
3.82981
3.90816
4.05641
4.28705
4.5432
4.74769
4.84304
4.82008
4.71296
4.56491
4.3965
4.2016
3.98065
3.74049
3.48389
3.21271
2.93118
2.64489
2.35939
2.08107
1.81772
1.57728
1.36662
1.19091
1.05276
0.951791
0.886858
0.8572
0.852326
0.860967
0.873085
0.881505
0.882752
0.876931
0.86671
0.855736
0.84698
0.84167
0.838528
0.834452
0.825878
0.810339
0.787602
0.759919
0.73135
0.706469
0.688922
0.679286
0.677245
0.682038
0.692175
0.705757
0.720822
0.735271
0.747232
0.755239
0.758385
0.756452
0.749929
0.739904
0.727836
0.715279
0.703417
0.693009
0.684359
0.677339
0.671432
0.666117
0.661115
0.656427
0.652136
0.648051
0.642882
0.634076
0.618318
0.592673
0.555944
0.509674
0.458321
0.408449
0.367159
0.33859
0.325037
0.327083
0.343088
0.369808
0.403314
0.439826
0.476515
0.511765
0.544829
0.57566
0.604676
0.632532
0.659924
0.687421
0.715298
0.743372
0.770726
0.795134
0.813642
0.82327
0.822126
0.810389
0.790732
0.767929
0.747779
0.735792
0.736157
0.748499
0.7727
0.809138
0.857672
0.918164
0.990803
1.07722
1.17839
1.29151
1.40898
1.51734
1.60151
1.64797
1.64694
1.59398
1.49136
1.34884
1.18334
1.01671
0.870582
0.753046
0.661767
0.595788
0.552838
0.528956
0.517081
0.507141
0.490186
0.459857
0.41311
0.350123
0.273532
0.187299
0.0955913
0
-0.0113655
0.296648
1.21495
2.8221
4.9007
6.99369
8.49773
8.81608
7.64129
5.23911
2.42989
0.156394
-1.05742
-1.30266
-1.01797
-0.679739
-0.381311
-0.148996
0.0126266
0.139281
0.248073
0.343713
0.425608
0.493715
0.548966
0.593159
0.628669
0.658148
0.684372
0.71032
0.738836
0.773114
0.816646
0.87297
0.945201
1.03491
1.14251
1.26682
1.40487
1.55236
1.70401
1.85386
1.99702
2.13057
2.25403
2.36925
2.4797
2.58951
2.70244
2.82093
2.94597
3.07778
3.21598
3.35998
3.50975
3.66631
3.83058
4.00022
4.16264
4.29698
4.38109
4.39856
4.34351
4.22106
4.04335
3.82394
3.5748
3.3108
3.04379
2.77907
2.51999
2.26921
2.02867
1.79953
1.58235
1.37743
1.18509
1.00597
0.8412
0.691958
0.559572
0.44538
0.350546
0.276022
0.225059
0.201116
0.203622
0.223517
0.247052
0.261332
0.258365
0.237542
0.205212
0.17129
0.144329
0.127391
0.115748
0.103212
0.0835827
0.0535319
0.0145338
-0.0270507
-0.0617571
-0.0799819
-0.0767853
-0.0536462
-0.012342
0.044919
0.109137
0.168161
0.211147
0.230824
0.224915
0.19646
0.152978
0.104564
0.0613014
0.0291372
0.00880883
0.000273323
0.00158222
0.00983336
0.022512
0.0386735
0.0595694
0.0884942
0.135853
0.232692
0.383114
0.54712
0.663771
0.680508
0.581416
0.397906
0.198031
0.0621011
0.0527797
0.125226
0.271968
0.46259
0.65637
0.815599
0.916649
0.954336
0.939604
0.893877
0.843114
0.810277
0.805008
0.830121
0.893022
0.990325
1.09579
1.17956
1.21924
1.20827
1.158
1.0928
1.04055
1.02295
1.03868
1.07456
1.12592
1.18714
1.25159
1.31257
1.36415
1.40182
1.42284
1.42637
1.41343
1.38705
1.35166
1.31306
1.27814
1.25505
1.27077
1.38256
1.58488
1.81632
2.00152
2.08839
2.0644
1.94758
1.77069
1.57255
1.3925
1.24866
1.13828
1.05241
0.983423
0.927564
0.882846
0.846544
0.815034
0.783495
0.746083
0.696828
0.62721
0.518369
0.364652
0.176255
-0.031247
-0.248022
0
0.697432
2.01055
3.94587
6.16981
8.09056
9.13954
9.00463
7.69252
5.50599
3.00794
0.884807
-0.353362
-0.653212
-0.391105
-0.111205
0.143314
0.359082
0.531635
0.679559
0.814088
0.938584
1.05477
1.16393
1.26753
1.36771
1.46712
1.56854
1.67425
1.78561
1.90269
2.02419
2.14825
2.27301
2.39732
2.5213
2.64662
2.7763
2.91399
3.06307
3.22553
3.40139
3.59037
3.78622
3.97833
4.15687
4.31606
4.45628
4.58408
4.71023
4.84631
5.00137
5.1785
5.37375
5.58222
5.80079
6.02526
6.25008
6.46965
6.68168
6.87452
7.01382
7.04695
6.92541
6.63903
6.23439
5.79836
5.41806
5.12569
4.86739
4.6212
4.38219
4.14714
3.91455
3.68527
3.46249
3.25128
3.05742
2.88792
2.75456
2.66381
2.60693
2.5703
2.53996
2.50608
2.46563
2.42238
2.38452
2.36085
2.35626
2.37579
2.41081
2.44669
2.46815
2.4647
2.4343
2.38392
2.32712
2.2795
2.25103
2.24188
2.249
2.26883
2.29595
2.32412
2.34766
2.36245
2.36646
2.35966
2.34366
2.32111
2.29535
2.26979
2.24755
2.23139
2.22338
2.22463
2.23544
2.25389
2.27649
2.29894
2.317
2.3271
2.3263
2.31376
2.29049
2.2592
2.22399
2.18957
2.16021
2.13892
2.12613
2.11957
2.11512
2.10821
2.09523
2.07462
2.04708
2.01499
1.98138
1.94873
1.91825
1.88976
1.86257
1.836
1.80973
1.78401
1.75972
1.73809
1.72039
1.70706
1.69756
1.69044
1.68363
1.67528
1.66438
1.65114
1.63679
1.62299
1.61093
1.6006
1.58999
1.57481
1.55019
1.51275
1.46248
1.40355
1.34357
1.29158
1.25548
1.23896
1.24185
1.2621
1.29621
1.34076
1.39247
1.4504
1.51445
1.58568
1.66189
1.73784
1.80576
1.85649
1.8809
1.87116
1.82186
1.73095
1.60077
1.43967
1.25964
1.07631
0.906521
0.76202
0.649221
0.575522
0.546154
0.565407
0.621983
0.686868
0.733051
0.739674
0.694866
0.597337
0.455855
0.28637
0.0606268
0
0.454782
1.68522
3.59997
5.71199
7.38345
8.10714
7.63889
6.03496
3.68551
1.26596
-0.522838
-1.32279
-1.27983
-0.995094
-0.76582
-0.579034
-0.442761
-0.352947
-0.292022
-0.251244
-0.22184
-0.196717
-0.17121
-0.143151
-0.111239
-0.0745645
-0.032361
0.0159155
0.0707364
0.132075
0.198516
0.268619
0.341751
0.418583
0.50092
0.5909
0.690011
0.798467
0.914044
1.03493
1.1604
1.29045
1.4259
1.5682
1.71897
1.87951
2.05038
2.2312
2.42073
2.61726
2.81881
3.02346
3.2295
3.43425
3.63203
3.81453
3.97088
4.08903
4.15834
4.17145
4.12484
4.01849
3.85554
3.64223
3.39101
3.11488
2.82834
2.54348
2.26683
2.0035
1.75811
1.53384
1.33248
1.15383
0.996342
0.857677
0.73516
0.626145
0.528483
0.440374
0.359321
0.283007
0.209644
0.138474
0.0702918
0.00802345
-0.0442267
-0.0820856
-0.102389
-0.104378
-0.0901539
-0.064222
-0.0323195
3.52859e-005
0.0292135
0.0532608
0.0718615
0.0859396
0.0970058
0.106463
0.115071
0.122735
0.128559
0.131325
0.130058
0.124614
0.116065
0.106758
0.09999
0.0993615
0.107942
0.128476
0.164036
0.210538
0.258811
0.298364
0.320563
0.321375
0.302709
0.271881
0.239342
0.215388
0.20485
0.207331
0.220906
0.241959
0.265655
0.28726
0.303256
0.31197
0.313588
0.309625
0.302123
0.292888
0.283083
0.273269
0.26382
0.255436
0.249456
0.247858
0.252878
0.269074
0.300992
0.343122
0.384982
0.414755
0.424181
0.412375
0.386709
0.360372
0.347766
0.358621
0.390491
0.438845
0.499952
0.570947
0.648289
0.72793
0.806151
0.879453
0.942474
0.987951
1.0104
1.0049
0.969033
0.904947
0.820324
0.727342
0.639698
0.568826
0.516899
0.480712
0.458194
0.445299
0.436813
0.427069
0.410234
0.381366
0.336907
0.275185
0.196805
0.104784
-0.00650673
0
0.366844
1.29272
2.93065
5.11226
7.23521
8.52179
8.46543
7.08592
4.84087
2.37319
0.305548
-0.905719
-1.12164
-0.595429
-0.128946
0.231622
0.433383
0.497654
0.540375
0.582963
0.63592
0.712526
0.807076
0.903825
0.984255
1.03497
1.05288
1.04571
1.0284
1.01752
1.02552
1.05146
1.09381
1.15239
1.22669
1.31574
1.41829
1.53299
1.65849
1.79361
1.93744
2.08949
2.24975
2.41862
2.59669
2.78439
2.98159
3.18729
3.39952
3.61545
3.83169
4.04473
4.25119
4.44764
4.62856
4.78507
4.91175
5.00366
5.05528
5.06211
5.02241
4.93805
4.81401
4.65672
4.47225
4.26962
4.05483
3.83141
3.60207
3.3694
3.13651
2.90705
2.68502
2.47449
2.27932
2.10282
1.94743
1.81443
1.7047
1.61932
1.55525
1.50688
1.46795
1.43263
1.3965
1.35718
1.31448
1.27011
1.22702
1.1881
1.15554
1.13095
1.11516
1.10862
1.11036
1.11734
1.12628
1.13441
1.14013
1.14307
1.14365
1.14247
1.13948
1.13389
1.12399
1.10801
1.08478
1.05462
1.01968
0.983858
0.952111
0.929336
0.919166
0.92323
0.942166
0.971016
1.00277
1.03024
1.04781
1.05265
1.04497
1.02744
1.00403
0.978822
0.954394
0.931746
0.910662
0.889956
0.867892
0.842859
0.814019
0.781434
0.74703
0.713884
0.685484
0.664867
0.65392
0.653036
0.66118
0.676284
0.695611
0.7166
0.737443
0.756854
0.774054
0.788667
0.800536
0.809347
0.81457
0.815787
0.812604
0.80491
0.793103
0.778137
0.761362
0.744234
0.728041
0.713658
0.701737
0.692958
0.688061
0.687809
0.692935
0.704301
0.720997
0.740322
0.758576
0.771995
0.777821
0.775106
0.76489
0.749695
0.732556
0.716009
0.701528
0.689698
0.680886
0.67611
0.677606
0.68872
0.713087
0.753431
0.809876
0.879243
0.958463
1.0445
1.13448
1.22625
1.31858
1.411
1.50316
1.59328
1.67491
1.73676
1.76471
1.74597
1.67345
1.54902
1.38449
1.19975
1.01841
0.858006
0.721468
0.607411
0.516302
0.446016
0.392662
0.351596
0.318354
0.289273
0.261738
0.234102
0.205487
0.175535
0.144233
0.108495
0
0.346776
1.51981
3.50597
5.87348
7.97719
9.19313
9.09191
7.6057
5.15599
2.55536
0.605433
-0.347993
-0.514398
-0.341586
-0.182099
-0.029283
0.111411
0.236498
0.348561
0.450452
0.544034
0.630485
0.710573
0.784697
0.853256
0.916703
0.97557
1.03059
1.08274
1.13315
1.18302
1.23346
1.28541
1.33966
1.397
1.45843
1.52522
1.59897
1.6815
1.77463
1.87986
1.99804
2.12898
2.2713
2.4224
2.57861
2.73557
2.88851
3.03143
3.15691
3.26046
3.3394
3.3935
3.42539
3.44079
3.44802
3.45844
3.54832
3.87157
4.33685
4.77339
5.00151
4.95568
4.72516
4.45036
4.18738
3.89611
3.57606
3.26412
2.96307
2.67269
2.39241
2.12232
1.86514
1.62436
1.40379
1.20691
1.03723
0.897801
0.787715
0.703996
0.642055
0.59645
0.56175
0.533305
0.507809
0.483571
0.460459
0.439566
0.422719
0.41187
0.408491
0.413098
0.425095
0.442438
0.462135
0.480781
0.495159
0.50274
0.502006
0.492546
0.474951
0.450612
0.421376
0.3893
0.356442
0.324693
0.295694
0.271019
0.252298
0.241304
0.239734
0.249223
0.271103
0.306063
0.353787
0.4151
0.487948
0.564804
0.636708
0.694931
0.732634
0.746078
0.735119
0.703013
0.655675
0.60068
0.545751
0.496903
0.458387
0.431418
0.414958
0.40805
0.408779
0.414748
0.423557
0.433203
0.442321
0.450228
0.456811
0.462303
0.467062
0.471343
0.475246
0.478791
0.482115
0.485718
0.490648
0.498481
0.511034
0.531453
0.563283
0.60277
0.642027
0.671257
0.682096
0.670572
0.638437
0.592537
0.54276
0.499245
0.46697
0.447727
0.442058
0.448628
0.464946
0.488214
0.51526
0.543242
0.570086
0.59466
0.616641
0.636142
0.653233
0.667279
0.676704
0.679564
0.673941
0.658857
0.635035
0.605194
0.573758
0.546071
0.527406
0.521014
0.527957
0.549531
0.585964
0.636531
0.699704
0.77344
0.855271
0.942667
1.03309
1.12407
1.21333
1.29861
1.37776
1.44849
1.50812
1.55394
1.5832
1.59317
1.58148
1.54652
1.48801
1.40736
1.30804
1.19547
1.07671
0.959121
0.849516
0.752715
0.671219
0.607598
0.559754
0.519902
0.478521
0.426665
0.358121
0.270879
0.167536
0.0545432
-0.140021
0
0.839993
2.54159
4.86104
7.22991
9.0092
9.70067
9.0635
7.21022
4.65259
2.14973
0.348143
-0.529028
-0.673513
-0.366482
-0.0241284
0.292084
0.554195
0.742394
0.880012
0.977068
1.03883
1.07391
1.09311
1.10766
1.12731
1.15849
1.20336
1.25855
1.31941
1.3819
1.44288
1.50104
1.5573
1.61457
1.67694
1.74856
1.83267
1.93007
2.03973
2.16015
2.28918
2.42445
2.56399
2.70654
2.85176
3.00007
3.15237
3.30959
3.47236
3.6408
3.81443
3.99237
4.1736
4.35722
4.54272
4.73018
4.92097
5.11971
5.32938
5.53285
5.69306
5.76593
5.72403
5.56966
5.32627
5.02036
4.67295
4.30883
3.94842
3.59999
3.26774
2.95594
2.67022
2.41543
2.1941
2.00697
1.85327
1.73117
1.63825
1.57177
1.52873
1.50851
1.51221
1.53087
1.5541
1.57193
1.57703
1.5664
1.54157
1.50759
1.47115
1.43878
1.41341
1.39652
1.38951
1.39301
1.40678
1.43009
1.46122
1.49803
1.53815
1.5792
1.61881
1.65445
1.6834
1.7029
1.7109
1.70641
1.6902
1.6652
1.63656
1.61087
1.59498
1.59594
1.62229
1.67875
1.75211
1.8182
1.8538
1.84442
1.78899
1.70018
1.60017
1.51339
1.45903
1.4353
1.43112
1.44271
1.46492
1.49169
1.51716
1.53668
1.54747
1.54873
1.54115
1.52617
1.50527
1.47937
1.44898
1.41479
1.3784
1.34291
1.31287
1.29353
1.29758
1.34161
1.40981
1.47138
1.49367
1.45828
1.3711
1.26048
1.16379
1.1101
1.10293
1.11693
1.14241
1.17281
1.20287
1.2294
1.25143
1.26955
1.28509
1.29908
1.31178
1.32202
1.327
1.32345
1.30841
1.28062
1.24182
1.19733
1.15566
1.12697
1.12088
1.14147
1.19506
1.28556
1.40664
1.53423
1.63911
1.69981
1.70873
1.67486
1.62173
1.57948
1.57298
1.61106
1.67643
1.7504
1.81101
1.83962
1.82536
1.76636
1.66802
1.54012
1.39411
1.24186
1.09314
0.952663
0.823179
0.706828
0.604505
0.51599
0.439144
0.370003
0.304206
0.238005
0.169108
0.0970884
0.0222588
0
0.308879
1.02443
2.30817
4.21903
6.44919
8.30044
9.0377
8.33573
6.4372
3.95468
1.56154
-0.202125
-1.02112
-0.887359
-0.171269
0.460072
0.915461
1.13042
1.17831
1.11054
1.00155
0.930172
0.947984
1.03982
1.15937
1.28647
1.41279
1.53284
1.64391
1.74595
1.84088
1.93145
2.02018
2.10864
2.19716
2.28524
2.37229
2.45867
2.54635
2.6392
2.74255
2.86215
3.00289
3.16758
3.356
3.56388
3.78518
4.01318
4.24083
4.46176
4.67087
4.8647
5.04119
5.19921
5.3379
5.45619
5.55349
5.62872
5.68028
5.706
5.70188
5.66492
5.59228
5.48191
5.33331
5.14818
4.93091
4.68851
4.43014
4.1663
3.90672
3.65959
3.43123
3.22545
3.04391
2.88583
2.74782
2.62562
2.51509
2.41308
2.3178
2.22867
2.14584
2.0694
1.99861
1.93182
1.86639
1.79904
1.72655
1.64642
1.55754
1.46024
1.3556
1.24983
1.15284
1.07511
1.02534
1.00865
1.02533
1.07072
1.13609
1.21027
1.28208
1.34388
1.39
1.41756
1.42651
1.4191
1.39915
1.37129
1.34062
1.31099
1.28543
1.26623
1.25516
1.2539
1.26068
1.27218
1.28479
1.29612
1.30605
1.3172
1.33426
1.36427
1.42402
1.50974
1.59748
1.65492
1.65628
1.595
1.48708
1.36368
1.25739
1.18949
1.14775
1.12068
1.10449
1.09505
1.08887
1.08378
1.079
1.07497
1.07279
1.07348
1.07762
1.08545
1.09658
1.10993
1.12385
1.13596
1.14372
1.14497
1.13834
1.12362
1.10186
1.07522
1.04661
1.01915
0.995449
0.97707
0.964991
0.959522
0.96022
0.966191
0.97589
0.987302
0.998364
1.00721
1.01238
1.01302
1.00888
1.00036
0.988427
0.974564
0.96055
0.948396
0.940358
0.938487
0.944397
0.958965
0.982137
1.01292
1.04961
1.09029
1.13333
1.17783
1.22387
1.27239
1.32507
1.38395
1.45078
1.52546
1.60025
1.65967
1.68699
1.67026
1.60734
1.50733
1.38694
1.26358
1.14889
1.04423
0.945581
0.851498
0.761586
0.675619
0.593653
0.515029
0.435283
0.347632
0.244781
0.12166
-0.0220987
-0.197909
-0.375214
0
1.07895
2.94016
5.43311
7.98601
9.70409
9.83713
8.26301
5.56275
2.65412
0.327458
-1.00535
-1.3328
-0.965347
-0.60546
-0.30848
-0.0957481
0.053471
0.183847
0.303905
0.410901
0.498835
0.561785
0.596049
0.602842
0.589577
0.569069
0.556623
0.565832
0.604646
0.669827
0.750948
0.841764
0.937737
1.03539
1.13294
1.23038
1.32917
1.43164
1.54032
1.65698
1.78293
1.91898
2.06515
2.22077
2.38461
2.55511
2.73082
2.91067
3.09436
3.28239
3.47608
3.67852
3.90095
4.18238
4.5653
4.9746
5.32567
5.5274
5.51982
5.32585
5.04567
4.77913
4.55333
4.32986
4.09039
3.83956
3.58051
3.31588
3.04917
2.78433
2.5257
2.2773
2.04212
1.82225
1.61769
1.42564
1.24276
1.06676
0.897886
0.739879
0.59917
0.483671
0.400664
0.369932
0.417062
0.531613
0.672308
0.797442
0.876398
0.894515
0.852764
0.765137
0.655134
0.55022
0.470942
0.421705
0.395296
0.380801
0.372882
0.368141
0.365969
0.368737
0.380864
0.407069
0.448925
0.506949
0.580302
0.661681
0.738854
0.800229
0.838337
0.851888
0.845608
0.827933
0.807498
0.789909
0.776035
0.763179
0.748332
0.729403
0.70648
0.682017
0.65992
0.643956
0.635691
0.634727
0.638666
0.643848
0.646571
0.644234
0.635991
0.622745
0.606594
0.590026
0.574993
0.562754
0.553973
0.549007
0.54827
0.552313
0.56179
0.577228
0.59871
0.62544
0.656144
0.688893
0.721537
0.752129
0.779237
0.802048
0.820198
0.83344
0.840478
0.840019
0.830552
0.810865
0.780929
0.742594
0.699775
0.657923
0.622916
0.599654
0.589994
0.596497
0.615634
0.640604
0.663826
0.679148
0.683551
0.677844
0.666234
0.65503
0.651038
0.6592
0.682163
0.72069
0.77466
0.844249
0.928681
1.02608
1.13331
1.2466
1.35976
1.46482
1.55419
1.62194
1.66453
1.68092
1.67181
1.63862
1.58259
1.50603
1.41243
1.30363
1.18234
1.05294
0.921403
0.794664
0.679662
0.582024
0.507433
0.463547
0.453297
0.46227
0.471412
0.462046
0.420561
0.34179
0.230201
0.090627
-0.165306
0
0.980206
2.90036
5.42495
7.8799
9.55702
9.94914
8.85798
6.4826
3.47362
0.765012
-0.871839
-1.25873
-0.835532
-0.494869
-0.197464
0.0368561
0.215912
0.379202
0.536781
0.689722
0.836705
0.973109
1.09128
1.18415
1.24702
1.2794
1.28563
1.27437
1.25701
1.24546
1.24997
1.27757
1.32703
1.39453
1.47852
1.57775
1.69075
1.81612
1.95273
2.09973
2.25654
2.42264
2.59743
2.78001
2.96903
3.16265
3.35864
3.55459
3.74813
3.93732
4.12087
4.29831
4.46991
4.63609
4.79761
4.95556
5.1083
5.24482
5.34467
5.38443
5.34716
5.23015
5.04709
4.82253
4.58144
4.33964
4.0991
3.85743
3.61294
3.36412
3.11064
2.85396
2.59767
2.34755
2.11213
1.89968
1.71713
1.57454
1.47587
1.41393
1.37728
1.35349
1.33216
1.30654
1.27361
1.23308
1.18611
1.13552
1.08342
1.0318
0.983097
0.939938
0.904708
0.879131
0.86394
0.858787
0.862403
0.872929
0.888266
0.906184
0.925061
0.94351
0.960709
0.976632
0.992174
1.00911
1.02978
1.05689
1.0931
1.1394
1.19408
1.2485
1.28763
1.29614
1.26328
1.18733
1.07798
0.95525
0.844662
0.770091
0.740628
0.743222
0.774196
0.829634
0.903659
0.989365
1.07959
79
294
491
703
918
1118
1322
1537
1754
1953
2156
2362
2546
2763
2988
3201
3416
3628
3697
3363
3533
3706
0
0
0
0
0
0
0
0
0
0
0
0
0
0
0
0
0
0
0
0
0
0
0
0
0
0
0
0
0
0
0
0
0
0
0
0
0
0
0
0
0
0
0
0
0
0
0
0
0
0
0
0
0
0
0
0
0
0
0
0
0
0
0
0
0
0
0
0
0
0
0
0
0
0
0
0
0
0
0
0
0
0
0
0
0
0
0
0
0
0
0
0
0
0
0
0
0
0
0
0
0
0
0
0
0
0
0
0
0
0
0
0
0
0
0
0
0
0
0
0
0
0
0
0
0
0
0
0
0
0
0
0
0
0
0
0
0
0
0
0
0
0
0
0
0
0
0
0
0
0
0
0
0
0
0
0
0
0
0
0
0
0
0
0
0
0
0
0
0
0
0
0
0
0
0
0
0
0
0
0
0
0
0
0
0
0
0
0
0
0
0
0
0
0
0
0
0
0
0
0
0
0
0
0
0
0
0
0
0
0
0
0
0
0
0
0
0
0
0
0
0
0
0
0
0
0
0
0
0
0
0
0
0
0
0
0
0
0
0
0
0
0
0
0
0
0
0
0
0
0
0
0
0
0
0
0
0
0
0
0
0
0
0
0
0
0
0
0
0
0
0
0
0
0
0
0
0
0
0
0
0
0
0
0
0
0
0
0
0
0
0
0
0
0
0
0
0
0
0
0
0
0
0
0
0
0
0
0
0
0
0
0
0
0
0
0
0
0
0
0
0
0
0
0
0
0
0
0
0
0
0
0
0
0
0
0
0
0
0
0
0
0
0
0
0
0
0
0
0
0
0
0
0
0
0
0
0
0
0
0
0
0
0
0
0
0
0
0
0
0
0
0
0
0
0
0
0
0
0
0
0
0
0
0
0
0
0
0
0
0
0
0
0
0
0
0
0
0
0
0
0
0
0
0
0
0
0
0
0
0
0
0
0
0
0
0
0
0
0
0
0
0
0
0
0
0
0
0
0
0
0
0
0
0
0
0
0
0
0
0
0
0
0
0
0
0
0
0
0
0
0
0
0
0
0
0
0
0
0
0
0
0
0
0
0
0
0
0
0
0
0
0
0
0
0
0
0
0
0
0
0
0
0
0
0
0
0
0
0
0
0
0
0
0
0
0
0
0
0
0
0
0
0
0
0
0
0
0
0
0
0
0
0
0
0
0
0
0
0
0
0
0
0
0
0
0
0
0
0
0
0
0
0
0
0
0
0
0
0
0
0
0
0
0
0
0
0
0
0
0
0
0
0
0
0
0
0
0
0
0
0
0
0
0
0
0
0
0
0
0
0
0
0
0
0
0
0
0
0
0
0
0
0
0
0
0
0
0
0
0
0
0
0
0
0
0
0
0
0
0
0
0
0
0
0
0
0
0
0
0
0
0
0
0
0
0
0
0
0
0
0
0
0
0
0
0
0
0
0
0
0
0
0
0
0
0
0
0
0
0
0
0
0
0
0
0
0
0
0
0
0
0
0
0
0
0
0
0
0
0
0
0
0
0
0
0
0
0
0
0
0
0
0
0
0
0
0
0
0
0
0
0
0
0
0
0
0
0
0
0
0
0
0
0
0
0
0
0
0
0
0
0
0
0
0
0
0
0
0
0
0
0
0
0
0
0
0
0
0
0
0
0
0
0
0
0
0
0
0
0
0
0
0
0
0
0
0
0
0
0
0
0
0
0
0
0
0
0
0
0
0
0
0
0
0
0
0
0
0
0
0
0
0
0
0
0
0
0
0
0
0
0
0
0
0
0
0
0
0
0
0
0
0
0
0
0
0
0
0
0
0
0
0
0
0
0
0
0
0
0
0
0
0
0
0
0
0
0
0
0
0
0
0
0
0
0
0
0
0
0
0
0
0
0
0
0
0
0
0
0
0
0
0
0
0
0
0
0
0
0
0
0
0
0
0
0
0
0
0
0
0
0
0
0
0
0
0
0
0
0
0
0
0
0
0
0
0
0
0
0
0
0
0
0
0
0
0
0
0
0
0
0
0
0
0
0
0
0
0
0
0
0
0
0
0
0
0
0
0
0
0
0
0
0
0
0
0
0
0
0
0
0
0
0
0
0
0
0
0
0
0
0
0
0
0
0
0
0
0
0
0
0
0
0
0
0
0
0
0
0
0
0
0
0
0
0
0
0
0
0
0
0
0
0
0
0
0
0
0
0
0
0
0
0
0
0
0
0
0
0
0
0
0
0
0
0
0
0
0
0
0
0
0
0
0
0
0
0
0
0
0
0
0
0
0
0
0
0
0
0
0
0
0
0
0
0
0
0
0
0
0
0
0
0
0
0
0
0
0
0
0
0
0
0
0
0
0
0
0
0
0
0
0
0
0
0
0
0
0
0
0
0
0
0
0
0
0
0
0
0
0
0
0
0
0
0
0
0
0
0
0
0
0
0
0
0
0
0
0
0
0
0
0
0
0
0
0
0
0
0
0
0
0
0
0
0
0
0
0
0
0
0
0
0
0
0
0
0
0
0
0
0
0
0
0
0
0
0
0
0
0
0
0
0
0
0
0
0
0
0
0
0
0
0
0
0
0
0
0
0
0
0
0
0
0
0
0
0
0
0
0
0
0
0
0
0
0
0
0
0
0
0
0
0
0
0
0
0
0
0
0
0
0
0
0
0
0
0
0
0
0
0
0
0
0
0
0
0
0
0
0
0
0
0
0
0
0
0
0
0
0
0
0
0
0
0
0
0
0
0
0
0
0
0
0
0
0
0
0
0
0
0
0
0
0
0
0
0
0
0
0
0
0
0
0
0
0
0
0
0
0
0
0
0
0
0
0
0
0
0
0
0
0
0
0
0
0
0
0
0
0
0
0
0
0
0
0
0
0
0
0
0
0
0
0
0
0
0
0
0
0
0
0
0
0
0
0
0
0
0
0
0
0
0
0
0
0
0
0
0
0
0
0
0
0
0
0
0
0
0
0
0
0
0
0
0
0
0
0
0
0
0
0
0
0
0
0
0
0
0
0
0
0
0
0
0
0
0
0
0
0
0
0
0
0
0
0
0
0
0
0
0
0
0
0
0
0
0
0
0
0
0
0
0
0
0
0
0
0
0
0
0
0
0
0
0
0
0
0
0
0
0
0
0
0
0
0
0
0
0
0
0
0
0
0
0
0
0
0
0
0
0
0
0
0
0
0
0
0
0
0
0
0
0
0
0
0
0
0
0
0
0
0
0
0
0
0
0
0
0
0
0
0
0
0
0
0
0
0
0
0
0
0
0
0
0
0
0
0
0
0
0
0
0
0
0
0
0
0
0
0
0
0
0
0
0
0
0
0
0
0
0
0
0
0
0
0
0
0
0
0
0
0
0
0
0
0
0
0
0
0
0
0
0
0
0
0
0
0
0
0
0
0
0
0
0
0
0
0
0
0
0
0
0
0
0
0
0
0
0
0
0
0
0
0
0
0
0
0
0
0
0
0
0
0
0
0
0
0
0
0
0
0
0
0
0
0
0
0
0
0
0
0
0
0
0
0
0
0
0
0
0
0
0
0
0
0
0
0
0
0
0
0
0
0
0
0
0
0
0
0
0
0
0
0
0
0
0
0
0
0
0
0
0
0
0
0
0
0
0
0
0
0
0
0
0
0
0
0
0
0
0
0
0
0
0
0
0
0
0
0
0
0
0
0
0
0
0
0
0
0
0
0
0
0
0
0
0
0
0
0
0
0
0
0
0
0
0
0
0
0
0
0
0
0
0
0
0
0
0
0
0
0
0
0
0
0
0
0
0
0
0
0
0
0
0
0
0
0
0
0
0
0
0
0
0
0
0
0
0
0
0
0
0
0
0
0
0
0
0
0
0
0
0
0
0
0
0
0
0
0
0
0
0
0
0
0
0
0
0
0
0
0
0
0
0
0
0
0
0
0
0
0
0
0
0
0
0
0
0
0
0
0
0
0
0
0
0
0
0
0
0
0
0
0
0
0
0
0
0
0
0
0
0
0
0
0
0
0
0
0
0
0
0
0
0
0
0
0
0
0
0
0
0
0
0
0
0
0
0
0
0
0
0
0
0
0
0
0
0
0
0
0
0
0
0
0
0
0
0
0
0
0
0
0
0
0
0
0
0
0
0
0
0
0
0
0
0
0
0
0
0
0
0
0
0
0
0
0
0
0
0
0
0
0
0
0
0
0
0
0
0
0
0
0
0
0
0
0
0
0
0
0
0
0
0
0
0
0
0
0
0
0
0
0
0
0
0
0
0
0
0
0
0
0
0
0
0
0
0
0
0
0
0
0
0
0
0
0
0
0
0
0
0
0
0
0
0
0
0
0
0
0
0
0
0
0
0
0
0
0
0
0
0
0
0
0
0
0
0
0
0
0
0
0
0
0
0
0
0
0
0
0
0
0
0
0
0
0
0
0
0
0
0
0
0
0
0
0
0
0
0
0
0
0
0
0
0
0
0
0
0
0
0
0
0
0
0
0
0
0
0
0
0
0
0
0
0
0
0
0
0
0
0
0
0
0
0
0
0
0
0
0
0
0
0
0
0
0
0
0
0
0
0
0
0
0
0
0
0
0
0
0
0
0
0
0
0
0
0
0
0
0
0
0
0
0
0
0
0
0
0
0
0
0
0
0
0
0
0
0
0
0
0
0
0
0
0
0
0
0
0
0
0
0
0
0
0
0
0
0
0
0
0
0
0
0
0
0
0
0
0
0
0
0
0
0
0
0
0
0
0
0
0
0
0
0
0
0
0
0
0
0
0
0
0
0
0
0
0
0
0
0
0
0
0
0
0
0
0
0
0
0
0
0
0
0
0
0
0
0
0
0
0
0
0
0
0
0
0
0
0
0
0
0
0
0
0
0
0
0
0
0
0
0
0
0
0
0
0
0
0
0
0
0
0
0
0
0
0
0
0
0
0
0
0
0
0
0
0
0
0
0
0
0
0
0
0
0
0
0
0
0
0
0
0
0
0
0
0
0
0
0
0
0
0
0
0
0
0
0
0
0
0
0
0
0
0
0
0
0
0
0
0
0
0
0
0
0
0
0
0
0
0
0
0
0
0
0
0
0
0
0
0
0
0
0
0
0
0
0
0
0
0
0
0
0
0
0
0
0
0
0
0
0
0
0
0
0
0
0
0
0
0
0
0
0
0
0
0
0
0
0
0
0
0
0
0
0
0
0
0
0
0
0
0
0
0
0
0
0
0
0
0
0
0
0
0
0
0
0
0
0
0
0
0
0
0
0
0
0
0
0
0
0
0
0
0
0
0
0
0
0
0
0
0
0
0
0
0
0
0
0
0
0
0
0
0
0
0
0
0
0
0
0
0
0
0
0
0
0
0
0
0
0
0
0
0
0
0
0
0
0
0
0
0
0
0
0
0
0
0
0
0
0
0
0
0
0
0
0
0
0
0
0
0
0
0
0
0
0
0
0
0
0
0
0
0
0
0
0
0
0
0
0
0
0
0
0
0
0
0
0
0
0
0
0
0
0
0
0
0
0
0
0
0
0
0
0
0
0
0
0
0
0
0
0
0
0
0
0
0
0
0
0
0
0
0
0
0
0
0
0
0
0
0
0
0
0
0
0
0
0
0
0
0
0
0
0
0
0
0
0
0
0
0
0
0
0
0
0
0
0
0
0
0
0
0
0
0
0
0
0
0
0
0
0
0
0
0
0
0
0
0
0
0
0
0
0
0
0
0
0
0
0
0
0
0
0
0
0
0
0
0
0
0
0
0
0
0
0
0
0
0
0
0
0
0
0
0
0
0
0
0
0
0
0
0
0
0
0
0
0
0
0
0
0
0
0
0
0
0
0
0
0
0
0
0
0
0
0
0
0
0
0
0
0
0
0
0
0
0
0
0
0
0
0
0
0
0
0
0
0
0
0
0
0
0
0
0
0
0
0
0
0
0
0
0
0
0
0
0
0
0
0
0
0
0
0
0
0
0
0
0
0
0
0
0
0
0
0
0
0
0
0
0
0
0
0
0
0
0
0
0
0
0
0
0
0
0
0
0
0
0
0
0
0
0
0
0
0
0
0
0
0
0
0
0
0
0
0
0
0
0
0
0
0
0
0
0
0
0
0
0
0
0
0
0
0
0
0
0
0
0
0
0
0
0
0
0
0
0
0
0
0
0
0
0
0
0
0
0
0
0
0
0
0
0
0
0
0
0
0
0
0
0
0
0
0
0
0
0
0
0
0
0
0
0
0
0
0
0
0
0
0
0
0
0
0
0
0
0
0
0
0
0
0
0
0
0
0
0
0
0
0
0
0
0
0
0
0
0
0
0
0
0
0
0
0
0
0
0
0
0
0
0
0
0
0
0
0
0
0
0
0
0
0
0
0
0
0
0
0
0
0
0
0
0
0
0
0
0
0
0
0
0
0
0
0
0
0
0
0
0
0
0
0
0
0
0
0
0
0
0
0
0
0
0
0
0
0
0
0
0
0
0
0
0
0
0
0
0
0
0
0
0
0
0
0
0
0
0
0
0
0
0
0
0
0
0
0
0
0
0
0
0
0
0
0
0
0
0
0
0
0
0
0
0
0
0
0
0
0
0
0
0
0
0
0
0
0
0
0
0
0
0
0
0
0
0
0
0
0
0
0
0
0
0
0
0
0
0
0
0
0
0
0
0
0
0
0
0
0
0
0
0
0
0
0
0
0
0
0
0
0
0
0
0
0
0
0
0
0
0
0
0
0
0
0
0
0
0
0
0
0
0
0
0
0
0
0
0
0
0
0
0
0
0
0
0
0
0
0
0
0
0
0
0
0
0
0
0
0
0
0
0
0
0
0
0
0
0
0
0
0
0
0
0
0
0
0
0
0
0
0
0
0
0
0
0
0
0
0
0
0
0
0
0
0
0
0
0
0
0
0
0
0
0
0
0
0
0
0
0
0
0
0
0
0
0
0
0
0
0
0
0
0
0
0
0
0
0
0
0
0
0
0
0
0
0
0
0
0
0
0
0
0
0
0
0
0
0
0
0
0
0
0
0
0
0
0
0
0
0
0
0
0
0
0
0
0
0
0
0
0
0
0
0
0
0
0
0
0
0
0
0
0
0
0
0
0
0
0
0
0
0
0
0
0
0
0
0
0
0
0
0
0
0
0
0
0
0
0
0
0
0
0
0
0
0
0
0
0
0
0
0
0
0
0
0
0
0
0
0
0
0
0
0
0
0
0
0
0
0
0
0
0
0
0
0
0
0
0
0
0
0
0
0
0
0
0
0
0
0
0
0
0
0
0
0
0
0
0
0
0
0
0
0
0
0
0
0
0
0
0
0
0
0
0
0
0
0
0
0
0
0
0
0
0
0
0
0
0
0
0
0
0
0
0
0
0
0
0
0
0
0
0
0
0
0
0
0
0
0
0
0
0
0
0
0
0
0
0
0
0
0
0
0
0
0
0
0
0
0
0
0
0
0
0
0
0
0
0
0
0
0
0
0
0
0
0
0
0
0
0
0
0
0
0
0
0
0
0
0
0
0
0
0
0
0
0
0
0
0
0
0
0
0
0
0
0
0
0
0
0
0
0
0
0
0
0
0
0
0
0
0
0
0
0
0
0
0
0
0
0
0
0
0
0
0
0
0
0
0
0
0
0
0
0
0
0
0
0
0
0
0
0
0
0
0
0
0
0
0
0
0
0
0
0
0
0
0
0
0
0
0
0
0
0
0
0
0
0
0
0
0
0
0
0
0
0
0
0
0
0
0
0
0
0
0
0
0
0
0
0
0
0
0
0
0
0
0
0
0
0
0
0
0
0
0
0
0
0
0
0
0
0
0
0
0
0
0
0
0
0
0
0
0
0
0
0
0
0
0
0
0
0
0
0
0
0
0
0
0
0
0
0
0
0
0
0
0
0
0
0
0
0
0
0
0
0
0
0
0
0
0
0
0
0
0
0
0
0
0
0
0
0
0
0
0
0
0
0
0
0
0
0
0
0
0
0
0
0
0
0
0
0
0
0
0
0
0
0
0
0
0
0
0
0
0
0
0
0
0
0
0
0
0
0
0
0
0
0
0
0
0
0
0
0
0
0
0
0
0
0
0
0
0
0
0
0
0
0
0
0
0
0
0
0
0
0
0
0
0
0
0
0
0
0
0
0
0
0
0
0
0
0
0
0
0
0
0
0
0
0
0
0
0
0
0
0
0
0
0
0
0
0
0
0
0
0
0
0
0
0
0
0
0
0
0
0
0
0
0
0
0
0
0
0
0
0
0
0
0
0
0
0
0
0
0
0
0
0
0
0
0
0
0
0
0
0
0
0
0
0
0
0
0
0
0
0
0
0
0
0
0
0
0
0
0
0
0
0
0
0
0
0
0
0
0
0
0
0
0
0
0
0
0
0
0
0
0
0
0
0
0
0
0
0
0
0
0
0
0
0
0
0
0
0
0
0
0
0
0
0
0
0
0
0
0
0
0
0
0
0
0
0
0
0
0
0
