0.586745
0.57469
0.570624
0.569257
0.565291
0.555038
0.537421
0.514133
0.489034
0.467072
0.452336
0.447059
0.452141
0.468621
0.496085
0.530094
0.565241
0.596578
0.620841
0.637051
0.646234
0.650414
0.651348
0.649613
0.644374
0.633985
0.617028
0.593324
0.564453
0.533602
0.504818
0.481981
0.466864
0.459613
0.460318
0.468421
0.482399
0.500596
0.521598
0.544428
0.568464
0.593149
0.617413
0.638693
0.653111
0.65624
0.644524
0.616759
0.575023
0.524656
0.473256
0.428966
0.396722
0.378363
0.379096
0.397238
0.424274
0.450194
0.466995
0.471439
0.46594
0.457188
0.453118
0.459545
0.476113
0.499272
0.525511
0.550728
0.571359
0.585208
0.591733
0.59177
0.586859
0.578462
0.56746
0.553944
0.53738
0.517225
0.493514
0.46734
0.441046
0.418218
0.403021
0.399288
0.409558
0.434337
0.472997
0.521381
0.573648
0.624029
0.668141
0.703682
0.730336
0.749053
0.760907
0.767106
0.768727
0.767329
0.765675
0.768063
0.779941
0.806859
0.853111
0.917899
0.998388
1.09189
1.19484
1.30299
1.41204
1.51831
1.61923
1.71352
1.80107
1.88204
1.95614
2.02239
2.0787
2.12115
2.14466
2.14429
2.11641
2.05921
1.97257
1.85772
1.71697
1.556
1.38191
1.20166
1.02216
0.85125
0.697222
0.574806
0.532849
0.626797
0.798065
0.953988
1.00442
0.898362
0.644439
0.305167
0
0.503445
2.04159
4.54291
7.54094
10.2877
12.0533
12.4599
11.6237
9.99734
8.05207
6.07365
4.19976
2.57458
1.39678
0.793398
0.727655
0.684595
0.643446
0.604549
0.56845
0.535853
0.507436
0.483776
0.464902
0.45046
0.439926
0.432897
0.429347
0.429727
0.434879
0.445825
0.463513
0.488331
0.520502
0.560014
0.606509
0.659246
0.717122
0.778947
0.842714
0.905767
0.965836
1.02167
1.0734
1.12242
1.17069
1.21982
1.27038
1.32061
1.3677
1.40975
1.44767
1.48598
1.53202
1.59385
1.67772
1.78339
1.90582
2.04123
2.186
2.33607
2.48757
2.63717
2.78238
2.92152
3.05359
3.17805
3.29459
3.40319
3.50405
3.59768
3.68489
3.76677
3.84443
3.91903
3.99127
4.06063
4.12399
4.17333
4.19774
4.18354
4.11718
3.98898
3.79678
3.54794
3.25886
2.95171
2.64941
2.36434
2.09992
1.86096
1.65
1.46745
1.31282
1.18342
1.07516
0.984087
0.907107
0.842439
0.789599
0.748965
0.722635
0.713409
0.719031
0.731955
0.7425
0.741507
0.723022
0.686013
0.634577
0.576706
0.522138
0.478937
0.45087
0.439261
0.444779
0.467952
0.508508
0.57081
0.668805
0.805511
0.951572
1.06407
1.10214
1.04764
0.916271
0.751008
0.601852
0.505741
0.459541
0.44018
0.439087
0.45432
0.485622
0.529269
0.577529
0.622127
0.655713
0.673407
0.673824
0.659185
0.63445
0.605766
0.57867
0.556122
0.538862
0.52657
0.517929
0.511055
0.504279
0.496681
0.488303
0.479958
0.472754
0.467517
0.464342
0.462458
0.460395
0.456361
0.448663
0.436039
0.417873
0.394349
0.366724
0.337169
0.308588
0.284747
0.272525
0.292012
0.395383
0.629169
0.922124
1.18163
1.33488
1.33833
1.18169
0.897076
0.564987
0.297556
0.1913
0.193875
0.233775
0.286354
0.344093
0.402255
0.456818
0.504872
0.544727
0.575849
0.598687
0.614393
0.624482
0.63046
0.633503
0.634226
0.63267
0.628328
0.620423
0.608231
0.59139
0.570137
0.545409
0.518781
0.492246
0.467907
0.447644
0.432779
0.424369
0.42288
0.428263
0.440452
0.459612
0.486173
0.521032
0.566681
0.623562
0.685581
0.74232
0.782356
0.797165
0.784641
0.750868
0.709548
0.679206
0.678942
0.718808
0.797342
0.9081
1.04803
1.21625
1.40558
1.6056
1.80391
1.98331
2.12885
2.23238
2.27208
2.21316
2.02583
1.70994
1.31082
0.914341
0.617274
0.444165
0.333916
0.273789
0.25875
0.275394
0.303068
0.323406
0.323529
0.297552
0.246246
0.175187
0.0921418
0
0.576701
1.73495
3.46249
5.61179
7.85572
9.72664
10.7754
10.7625
9.74561
8.01738
5.96857
3.97436
2.33024
1.20788
0.621198
0.518399
0.472376
0.428225
0.384194
0.33932
0.293815
0.249159
0.207999
0.173751
0.149661
0.138086
0.14025
0.157816
0.186933
0.220439
0.251017
0.273481
0.286466
0.292935
0.299321
0.313623
0.343084
0.389446
0.450958
0.525351
0.609485
0.699232
0.789668
0.876234
0.955432
1.02525
1.08528
1.13663
1.18155
1.22315
1.26509
1.31119
1.36533
1.43114
1.51164
1.60869
1.72265
1.8519
1.99315
2.1421
2.29365
2.44311
2.58716
2.72451
2.85598
2.98426
3.11302
3.24604
3.38618
3.53452
3.69109
3.85434
4.01646
4.16509
4.28784
4.37504
4.42148
4.42648
4.39267
4.32388
4.22338
4.09494
3.9448
3.77662
3.59215
3.39294
3.18146
2.96069
2.73322
2.50158
2.26841
2.03664
1.80962
1.59126
1.38601
1.19853
1.03421
0.903277
0.815484
0.765332
0.741966
0.732061
0.723503
0.708438
0.684702
0.655393
0.627016
0.606754
0.598
0.601298
0.616998
0.642777
0.672925
0.700827
0.720662
0.728862
0.724876
0.711026
0.691516
0.670905
0.652461
0.636953
0.623619
0.609687
0.592056
0.569009
0.541622
0.514254
0.4938
0.492474
0.534729
0.615846
0.705591
0.764711
0.764283
0.700126
0.594517
0.484671
0.40484
0.372216
0.367083
0.374066
0.387304
0.402841
0.417676
0.430008
0.439152
0.445227
0.448772
0.450308
0.450175
0.448505
0.445304
0.440652
0.434852
0.428465
0.422179
0.416616
0.412089
0.408407
0.404957
0.400928
0.395574
0.388418
0.379354
0.368634
0.356824
0.344747
0.333302
0.323427
0.315953
0.311592
0.310618
0.312763
0.317409
0.323755
0.330939
0.338061
0.344007
0.347603
0.347873
0.344523
0.338412
0.331647
0.327043
0.327178
0.334349
0.345739
0.355418
0.357008
0.346973
0.326826
0.302966
0.284112
0.277506
0.285284
0.304085
0.327057
0.346273
0.355892
0.35428
0.344244
0.331404
0.321566
0.318327
0.320979
0.326939
0.334139
0.340766
0.345937
0.350011
0.35449
0.36161
0.373683
0.392496
0.419306
0.454894
0.499602
0.553401
0.615928
0.686464
0.763868
0.846503
0.932447
1.0191
1.10391
1.18498
1.26149
1.33398
1.40413
1.47424
1.54713
1.62475
1.70458
1.77661
1.82521
1.83225
1.78074
1.65883
1.46398
1.20625
0.909243
0.60708
0.335561
0.115927
-0.0358882
-0.116894
-0.136884
-0.114987
-0.0740322
-0.0343925
-0.00663457
0.00787139
0.0105146
0.00628579
0
0.554756
1.85775
3.94869
6.56734
9.17155
11.1284
11.979
11.6069
10.2195
8.20143
5.96931
3.8896
2.2293
1.10724
0.47378
0.256404
0.134501
0.0198355
-0.0858907
-0.179767
-0.259084
-0.321496
-0.365009
-0.38857
-0.392437
-0.378133
-0.348009
-0.304601
-0.250085
-0.187027
-0.116417
-0.0385309
0.044582
0.126421
0.196586
0.243782
0.25928
0.240539
0.19366
0.133397
0.0800201
0.0535109
0.0668568
0.114738
0.183683
0.264624
0.350507
0.435101
0.514135
0.585815
0.650679
0.710959
0.769716
0.830005
0.894196
0.96394
1.04026
1.12359
1.2139
1.31079
1.41369
1.52194
1.63494
1.75225
1.87365
1.999
2.12795
2.25966
2.39257
2.52426
2.6516
2.77072
2.87706
2.96663
3.03623
3.08337
3.10617
3.10318
3.07324
3.01535
2.92876
2.81312
2.66987
2.50132
2.31028
2.10061
1.87768
1.64781
1.41769
1.19394
0.9825
0.789801
0.621409
0.475745
0.34839
0.234039
0.128601
0.0306373
-0.0584219
-0.135296
-0.196568
-0.241954
-0.273387
-0.292591
-0.302415
-0.306221
-0.307425
-0.308738
-0.312236
-0.319291
-0.330522
-0.345864
-0.36456
-0.385244
-0.406124
-0.425229
-0.440756
-0.451358
-0.456224
-0.455231
-0.448714
-0.437254
-0.421513
-0.402206
-0.380208
-0.356593
-0.33308
-0.311769
-0.2947
-0.283305
-0.277937
-0.277639
-0.280293
-0.283089
-0.283195
-0.278662
-0.268798
-0.253588
-0.234354
-0.213489
-0.194189
-0.180406
-0.175869
-0.183285
-0.203841
-0.236823
-0.279588
-0.327945
-0.376891
-0.421496
-0.457657
-0.483649
-0.498316
-0.500903
-0.491242
-0.469372
-0.432544
-0.379516
-0.321038
-0.272398
-0.248891
-0.2598
-0.303678
-0.367568
-0.430831
-0.471903
-0.47504
-0.416381
-0.298874
-0.161843
-0.0501354
0.00134873
-0.0229038
-0.116841
-0.256574
-0.407641
-0.534219
-0.61683
-0.661499
-0.679572
-0.678936
-0.663979
-0.637721
-0.603404
-0.564187
-0.522743
-0.481149
-0.440799
-0.402458
-0.366448
-0.332957
-0.302529
-0.276634
-0.257828
-0.249045
-0.253209
-0.272145
-0.305587
-0.350674
-0.402176
-0.453446
-0.497767
-0.530356
-0.54826
-0.550195
-0.536535
-0.508739
-0.468774
-0.419366
-0.362759
-0.300617
-0.235624
-0.173208
-0.120612
-0.0849929
-0.0712851
-0.080153
-0.10695
-0.142333
-0.174503
-0.192292
-0.188656
-0.165386
-0.126306
-0.0735685
-0.00879021
0.0663216
0.150171
0.241209
0.337766
0.437791
0.537352
0.630378
0.710643
0.773352
0.816564
0.841729
0.852997
0.855448
0.852893
0.846143
0.832709
0.807609
0.765492
0.702969
0.620408
0.522506
0.417429
0.314799
0.222877
0.144556
0.0802665
0.0294644
-0.0110878
-0.0461529
-0.0806483
-0.118574
-0.162297
-0.21232
-0.267558
-0.345321
0
1.08092
3.03038
5.60423
8.19176
10.0731
10.7669
10.2253
8.76746
6.84978
4.86245
3.06008
1.59049
0.533772
-0.0891792
-0.164204
-0.197245
-0.227645
-0.258089
-0.289871
-0.322072
-0.350859
-0.369992
-0.372133
-0.350531
-0.300676
-0.221531
-0.114517
0.0192551
0.166213
0.304841
0.415296
0.483941
0.506186
0.486972
0.438879
0.378562
0.322731
0.284357
0.267084
0.269207
0.289578
0.328584
0.385716
0.459438
0.548321
0.649225
0.756851
0.864001
0.961541
1.04142
1.09938
1.13608
1.15775
1.17556
1.20335
1.25378
1.33453
1.44599
1.57749
1.7197
1.86712
2.01635
2.16675
2.31985
2.47804
2.64286
2.8132
2.98601
3.15444
3.30767
3.43557
3.53133
3.5939
3.629
3.64843
3.66781
3.72849
3.86512
4.03946
4.16963
4.17783
4.03507
3.77311
3.45725
3.14085
2.83818
2.53887
2.24218
1.95064
1.66921
1.40431
1.16519
0.965138
0.811472
0.699677
0.619253
0.556933
0.500499
0.441831
0.37831
0.31249
0.250445
0.198632
0.160369
0.136835
0.133447
0.149169
0.175305
0.201608
0.219828
0.226459
0.223534
0.217133
0.214407
0.220535
0.235063
0.255061
0.278187
0.302096
0.324609
0.344066
0.359457
0.37037
0.376829
0.379137
0.377791
0.37347
0.36718
0.360393
0.355176
0.354281
0.36063
0.376803
0.404657
0.447729
0.504218
0.564113
0.61505
0.646058
0.650829
0.629206
0.586492
0.531244
0.472728
0.418379
0.37115
0.332306
0.303642
0.286569
0.279387
0.277598
0.276142
0.270932
0.260169
0.244904
0.228571
0.215649
0.209955
0.212326
0.221366
0.234895
0.248224
0.256115
0.254338
0.240952
0.217053
0.18677
0.156474
0.133367
0.123803
0.129684
0.151374
0.190123
0.241069
0.294085
0.338758
0.367287
0.376618
0.369064
0.351227
0.33157
0.317564
0.31278
0.315845
0.324109
0.334988
0.345691
0.354081
0.359261
0.361832
0.363779
0.368012
0.377663
0.395276
0.423827
0.465686
0.514033
0.555678
0.576883
0.568578
0.53025
0.470728
0.40551
0.351976
0.324707
0.323595
0.343289
0.383332
0.448624
0.546307
0.666853
0.785248
0.874334
0.913548
0.896672
0.83447
0.750766
0.674171
0.629566
0.621913
0.642101
0.685027
0.74907
0.832786
0.933939
1.0495
1.17568
1.30845
1.44227
1.56928
1.68148
1.7719
1.83569
1.87079
1.87807
1.86085
1.82394
1.77259
1.71192
1.64595
1.57685
1.50546
1.43178
1.35537
1.27565
1.19222
1.10505
1.01452
0.921332
0.826208
0.729683
0.631896
0.532448
0.430209
0.323547
0.213866
0.107503
0.013787
-0.058171
0
0.751966
2.15054
4.18342
6.61687
9.01568
10.877
11.8032
11.6224
10.4181
8.48939
6.26718
4.19219
2.58071
1.54414
1.01184
0.899967
0.80133
0.701605
0.599686
0.496422
0.395041
0.300863
0.219927
0.160843
0.133878
0.1343
0.151043
0.171364
0.18618
0.193773
0.200388
0.217716
0.258526
0.332257
0.442686
0.608285
0.809358
0.999586
1.13368
1.18206
1.141
1.03407
0.903966
0.798578
0.757284
0.776131
0.831353
0.910329
1.00665
1.11545
1.22951
1.34196
1.44731
1.54218
1.62557
1.69866
1.76422
1.82589
1.88761
1.95292
2.02498
2.10638
2.19896
2.30366
2.42036
2.54769
2.6831
2.82364
2.96603
3.10701
3.24377
3.37431
3.49759
3.61345
3.72127
3.81885
3.90259
3.96749
4.00525
4.00652
3.96394
3.87474
3.74157
3.57155
3.37415
3.16036
2.93954
2.71672
2.49499
2.27694
2.06495
1.86116
1.66737
1.4849
1.31441
1.15557
1.00754
0.869852
0.744945
0.63533
0.544371
0.476217
0.433922
0.417768
0.424562
0.448168
0.480903
0.515152
0.545425
0.568924
0.583479
0.588141
0.583182
0.570042
0.551159
0.529642
0.508791
0.491565
0.480114
0.475729
0.478607
0.488247
0.50379
0.524235
0.548412
0.575305
0.60142
0.620398
0.624925
0.609403
0.572845
0.520375
0.462237
0.410472
0.374665
0.356136
0.35009
0.352722
0.358991
0.364032
0.36428
0.358025
0.345351
0.327589
0.30655
0.283933
0.260692
0.237121
0.213161
0.188775
0.164382
0.141204
0.121385
0.1078
0.104166
0.117698
0.157706
0.219576
0.285783
0.334909
0.349883
0.324862
0.267673
0.196897
0.13503
0.100608
0.0948059
0.109106
0.136585
0.172657
0.212639
0.251608
0.2846
0.308186
0.320768
0.322716
0.316206
0.30469
0.292016
0.281346
0.2742
0.270103
0.266272
0.258892
0.244726
0.222705
0.194902
0.166491
0.144634
0.136591
0.146944
0.17488
0.220523
0.279532
0.342819
0.400634
0.44494
0.471154
0.478768
0.470796
0.452349
0.428901
0.40483
0.382267
0.361497
0.341886
0.322155
0.300768
0.276457
0.248703
0.218071
0.186548
0.157889
0.137132
0.129539
0.139504
0.169437
0.219529
0.290174
0.373297
0.455914
0.525214
0.571829
0.592088
0.588533
0.568545
0.541565
0.515889
0.495905
0.481511
0.471544
0.464795
0.461727
0.465671
0.482813
0.520819
0.586419
0.682768
0.806881
0.956098
1.11335
1.25899
1.37601
1.4539
1.48971
1.48626
1.44876
1.38162
1.28924
1.17766
1.04896
0.905146
0.750182
0.590076
0.432535
0.287441
0.165617
0.0748924
0.0196619
0
0.0123707
0.0513197
0.103915
0.157351
0.202464
0.236121
0.261385
0.0887605
0.56958
2.01023
4.32476
7.02863
9.41728
10.8405
10.9505
9.82083
7.87819
5.68101
3.67376
2.06334
0.86682
0.040013
-0.233101
-0.256809
-0.262831
-0.2525
-0.228466
-0.194042
-0.154188
-0.114864
-0.0816055
-0.0585031
-0.0475039
-0.0480419
-0.0570995
-0.0697391
-0.0800463
-0.0823199
-0.0725331
-0.0496334
-0.0150293
0.0289159
0.0792759
0.132415
0.184889
0.234108
0.278802
0.319213
0.356976
0.39472
0.435462
0.481857
0.535591
0.597302
0.666908
0.741722
0.818206
0.893228
0.964997
1.03347
1.10012
1.16719
1.23686
1.31063
1.38871
1.47109
1.55814
1.65064
1.74986
1.85742
1.97483
2.103
2.24173
2.38956
2.54372
2.70045
2.85526
3.00386
3.14298
3.27081
3.38696
3.49047
3.57817
3.64736
3.69349
3.70899
3.6861
3.62027
3.51256
3.36991
3.20307
3.02297
2.83806
2.65113
2.46173
2.2677
2.06627
1.85513
1.63357
1.40322
1.16844
0.936062
0.714548
0.513456
0.34968
0.251994
0.225822
0.244584
0.273333
0.282312
0.257359
0.202868
0.136681
0.0799765
0.0472667
0.0349838
0.0334132
0.0376945
0.0440051
0.0496471
0.0536093
0.0565444
0.0602471
0.06685
0.0779575
0.0937853
0.113591
0.136071
0.159108
0.180287
0.197348
0.208546
0.21286
0.210057
0.200615
0.185573
0.166363
0.144739
0.122545
0.101684
0.0841587
0.0719755
0.0670106
0.0708007
0.0842909
0.107587
0.14046
0.181564
0.227284
0.27223
0.310812
0.338266
0.351553
0.349888
0.334742
0.309345
0.277844
0.244383
0.212298
0.183606
0.159334
0.140072
0.126381
0.11891
0.118125
0.124239
0.137124
0.156505
0.18051
0.206289
0.23091
0.25205
0.268458
0.280007
0.287322
0.291214
0.2922
0.290354
0.285496
0.277541
0.266741
0.253652
0.238711
0.222132
0.203747
0.183407
0.161739
0.140759
0.123899
0.115301
0.118592
0.135644
0.163907
0.201439
0.244484
0.285782
0.316457
0.329033
0.319303
0.287713
0.239654
0.184185
0.131406
0.0895115
0.0624876
0.0469681
0.0408351
0.0427125
0.0512985
0.0655065
0.0842911
0.10637
0.130005
0.153401
0.174885
0.193305
0.208298
0.220286
0.230186
0.238908
0.246863
0.253561
0.25751
0.256643
0.248994
0.233524
0.210781
0.183163
0.154694
0.13038
0.115379
0.11391
0.12935
0.163865
0.218489
0.293258
0.387192
0.497154
0.619927
0.752449
0.88836
1.01736
1.12861
1.21324
1.26614
1.28664
1.27772
1.24403
1.18966
1.11651
1.02547
0.918919
0.796959
0.660754
0.513473
0.36017
0.207147
0.0612012
-0.0681486
-0.171572
-0.243614
-0.280835
-0.282034
-0.248658
-0.185175
-0.0990219
0
0.236485
0.959471
2.4343
4.62226
7.12584
9.34194
10.7101
10.9228
10.0162
8.32259
6.31492
4.41606
2.87162
1.7399
0.969506
0.531232
0.388214
0.257541
0.14046
0.0398177
-0.0417547
-0.106349
-0.15765
-0.199099
-0.232466
-0.256776
-0.269131
-0.265822
-0.244295
-0.204811
-0.151084
-0.0896049
-0.027894
0.0276225
0.0743463
0.111961
0.142862
0.171266
0.201902
0.239329
0.288931
0.348675
0.407172
0.450178
0.466678
0.454264
0.421554
0.386524
0.371325
0.39553
0.461751
0.5596
0.680945
0.820451
0.972688
1.13185
1.29254
1.45019
1.60108
1.74125
1.86538
1.97029
2.05537
2.12192
2.17425
2.22003
2.26953
2.3333
2.41924
2.53
2.65858
2.79623
2.93594
3.07097
3.19492
3.30166
3.38581
3.44326
3.47068
3.46487
3.42292
3.34266
3.22336
3.06649
2.87601
2.6582
2.42097
2.17277
1.92144
1.67281
1.43119
1.19983
0.981439
0.778895
0.596068
0.436471
0.303651
0.207684
0.156209
0.140125
0.144942
0.154628
0.15591
0.141274
0.10977
0.0657889
0.0167339
-0.029423
-0.0677668
-0.0965457
-0.115036
-0.123188
-0.121898
-0.113023
-0.0987163
-0.0811714
-0.0622321
-0.0431163
-0.0243062
-0.00564547
0.013433
0.0335772
0.0551812
0.0781366
0.101461
0.122831
0.139236
0.147845
0.146889
0.136234
0.117413
0.093122
0.0664286
0.0400633
0.0158379
-0.00510569
-0.0217442
-0.0331642
-0.038604
-0.0376923
-0.0306117
-0.0184719
-0.00386167
0.00972765
0.0187255
0.020346
0.0133263
-0.0016746
-0.0221263
-0.0441041
-0.0630661
-0.0748319
-0.0766372
-0.0676843
-0.0486176
-0.020213
0.015116
0.0526619
0.0862381
0.109855
0.119013
0.111827
0.0896925
0.0571992
0.0211409
-0.0111855
-0.0339078
-0.0446296
-0.0450296
-0.0374492
-0.0253369
-0.0121255
-0.000316465
0.00896195
0.0158682
0.0213788
0.02669
0.0326654
0.0396541
0.0475455
0.0558325
0.0637182
0.0703414
0.07511
0.0780116
0.0798632
0.08241
0.0882107
0.100312
0.121791
0.155687
0.208338
0.292964
0.421599
0.567278
0.687522
0.733967
0.672103
0.502612
0.269607
0.0463896
-0.0967728
-0.126493
-0.10522
-0.064563
-0.0142103
0.0371163
0.0831838
0.121651
0.151818
0.174806
0.192877
0.20865
0.224365
0.241263
0.259539
0.277682
0.291987
0.298219
0.293461
0.277865
0.255575
0.234283
0.223404
0.231469
0.263715
0.317667
0.390554
0.477271
0.571772
0.668143
0.762521
0.852289
0.935937
1.013
1.08395
1.15001
1.21298
1.27495
1.3379
1.40358
1.473
1.54226
1.5986
1.62355
1.5975
1.50579
1.34425
1.12214
0.861322
0.591164
0.345795
0.1536
0.0316839
-0.0164497
0
0.0624545
0.147828
0.233828
0.305234
0.359303
0.400004
0.43214
0.459948
0.512655
1.01608
2.2458
4.26081
6.73009
9.01387
10.4672
10.75
9.93232
8.36623
6.47003
4.58561
2.94682
1.69709
0.896565
0.530086
0.489207
0.445759
0.398967
0.34832
0.294706
0.24125
0.192941
0.155376
0.133465
0.130207
0.145856
0.177728
0.220877
0.268813
0.315203
0.355274
0.38675
0.410084
0.427987
0.444455
0.463657
0.488738
0.521108
0.561167
0.608777
0.663454
0.724531
0.789076
0.850949
0.903594
0.942146
0.965666
0.978476
0.989764
1.01135
1.05443
1.12661
1.22442
1.34144
1.47306
1.61555
1.76567
1.91522
2.05253
2.16744
2.25457
2.3167
2.36598
2.42168
2.5043
2.62803
2.79219
2.97988
3.17828
3.3696
3.53818
3.67463
3.77753
3.8525
3.90876
3.95237
3.98705
4.00795
4.00415
3.96447
3.88274
3.76011
3.60353
3.42197
3.22283
3.014
2.79955
2.5813
2.36123
2.14209
1.92737
1.72093
1.52647
1.34696
1.18422
1.03875
0.909809
0.795691
0.694123
0.602699
0.519184
0.441882
0.369886
0.303216
0.242898
0.190651
0.1486
0.118788
0.102763
0.101232
0.113862
0.139131
0.173406
0.209536
0.238327
0.251549
0.243981
0.215227
0.170678
0.121004
0.0799521
0.0608274
0.072514
0.111469
0.179456
0.265348
0.351391
0.42049
0.460854
0.468504
0.447026
0.40509
0.353069
0.300153
0.251758
0.209418
0.174028
0.146343
0.126695
0.115026
0.11104
0.11427
0.124097
0.139692
0.160036
0.183818
0.208527
0.230471
0.245764
0.251211
0.245226
0.228409
0.2035
0.174704
0.146586
0.122925
0.105191
0.0932297
0.0864263
0.0836754
0.0835899
0.0848339
0.0863549
0.0875378
0.0882441
0.0887558
0.0896366
0.0915323
0.0949515
0.100152
0.107006
0.114876
0.122988
0.130776
0.138165
0.145666
0.154255
0.165092
0.179223
0.197398
0.219882
0.247023
0.279132
0.316434
0.359484
0.408558
0.460662
0.508908
0.544995
0.561887
0.556541
0.531373
0.493658
0.452935
0.417426
0.390265
0.369673
0.351489
0.330646
0.303792
0.271295
0.237702
0.210431
0.197276
0.203808
0.228284
0.269
0.322794
0.385563
0.452841
0.521333
0.588743
0.653579
0.715109
0.773213
0.828209
0.880666
0.931258
0.980732
1.02999
1.08025
1.13323
1.19117
1.25659
1.3338
1.42939
1.54867
1.68581
1.81927
1.92311
1.97417
1.95707
1.86721
1.71199
1.50961
1.28511
1.0649
0.866398
0.691634
0.537573
0.406084
0.298223
0.21328
0.148896
0.101429
0.0665888
0.0401768
0.0187592
0
-0.0169536
0.046061
0.63318
1.99069
4.13973
6.76502
9.29088
11.0982
11.7602
11.1788
9.58534
7.42868
5.20838
3.31548
1.94112
1.08342
0.62653
0.504322
0.396236
0.291787
0.192168
0.0989887
0.0148082
-0.0562659
-0.109555
-0.141366
-0.149222
-0.13297
-0.0954681
-0.0424971
0.0182237
0.0787242
0.132645
0.177573
0.213328
0.241938
0.266568
0.290157
0.31442
0.338855
0.361168
0.378876
0.391163
0.400157
0.411043
0.430838
0.466254
0.521477
0.594692
0.680972
0.775583
0.874336
0.973783
1.07199
1.16875
1.26532
1.36363
1.46543
1.57151
1.68152
1.79424
1.90791
2.02096
2.1326
2.24311
2.35377
2.46647
2.58313
2.70512
2.83276
2.96521
3.10061
3.23618
3.36779
3.49001
3.598
3.68785
3.7572
3.80533
3.83263
3.8395
3.82506
3.78616
3.71776
3.61398
3.4702
3.28513
3.06222
2.80963
2.53881
2.26218
1.99008
1.7287
1.48285
1.25588
1.05024
0.868291
0.712181
0.58455
0.492816
0.44964
0.461668
0.506684
0.556431
0.585318
0.578305
0.534607
0.465736
0.388982
0.319684
0.266044
0.223904
0.188785
0.159473
0.135386
0.116656
0.104025
0.0985079
0.100541
0.110201
0.127089
0.150169
0.177975
0.207912
0.236884
0.262262
0.282471
0.297304
0.307826
0.315859
0.32321
0.330943
0.338996
0.346308
0.351415
0.353248
0.351801
0.34836
0.345167
0.344613
0.348258
0.356188
0.366354
0.374303
0.374775
0.363353
0.337989
0.299906
0.253599
0.205987
0.164973
0.136879
0.124234
0.12874
0.150504
0.188176
0.239714
0.299148
0.356464
0.402094
0.428864
0.433513
0.417318
0.385582
0.346092
0.307026
0.274922
0.251592
0.236174
0.227643
0.224616
0.225122
0.227346
0.230025
0.232638
0.235343
0.2387
0.243293
0.249466
0.2569
0.264841
0.272517
0.279621
0.286636
0.294819
0.305818
0.321082
0.341275
0.366279
0.394966
0.425929
0.458162
0.491502
0.5266
0.56452
0.606334
0.650224
0.690553
0.719509
0.729605
0.716364
0.680058
0.625859
0.562461
0.499738
0.44557
0.403053
0.372266
0.352313
0.342462
0.341551
0.348361
0.36187
0.381294
0.406203
0.436179
0.470552
0.508339
0.547814
0.585695
0.617793
0.640554
0.652584
0.656024
0.657088
0.665265
0.691096
0.743114
0.82497
0.930017
1.05035
1.17695
1.30013
1.41172
1.50593
1.57997
1.6337
1.66865
1.68692
1.6906
1.68045
1.65635
1.61783
1.56473
1.49778
1.41886
1.33085
1.23712
1.14067
1.04341
0.945656
0.846169
0.741957
0.625132
0.480581
0.312184
0.150133
0.0349233
0
0.0568446
0.193212
0.375128
0.841988
1.70879
3.2418
5.46722
8.04234
10.3481
11.7487
11.8644
10.7182
8.70029
6.38445
4.29022
2.70862
1.67045
1.04715
0.811412
0.683034
0.566436
0.464175
0.378471
0.311174
0.264285
0.242228
0.25413
0.305164
0.373935
0.431149
0.448586
0.409527
0.316706
0.193681
0.0780314
0.00849814
0.011161
0.0908581
0.243562
0.418754
0.560438
0.628508
0.612397
0.532609
0.430795
0.353552
0.336639
0.373707
0.441505
0.528136
0.627326
0.733409
0.840808
0.945042
1.04332
1.13481
1.22047
1.3026
1.38414
1.46791
1.55601
1.64948
1.74876
1.85375
1.96388
2.07907
2.20009
2.32847
2.46588
2.61321
2.76962
2.93203
3.0951
3.25194
3.39535
3.51922
3.61955
3.69486
3.74575
3.77395
3.78118
3.76808
3.73348
3.67516
3.59042
3.47726
3.33555
3.1676
2.97817
2.77372
2.56129
2.34745
2.13673
1.9322
1.73559
1.5477
1.36877
1.19894
1.03853
0.888186
0.748889
0.62189
0.508624
0.410574
0.329097
0.265176
0.21924
0.19156
0.18243
0.189938
0.207935
0.228966
0.245904
0.253249
0.248043
0.230147
0.201792
0.166585
0.128323
0.0900283
0.0533664
0.0191657
-0.0119055
-0.0386819
-0.0590729
-0.0707489
-0.071429
-0.0597274
-0.0338396
0.00349345
0.0478224
0.0945248
0.140365
0.184289
0.227032
0.269761
0.312425
0.35187
0.382294
0.397315
0.392476
0.366839
0.322975
0.265611
0.199868
0.130521
0.0607371
-0.00747948
-0.0721396
-0.130845
-0.180685
-0.218817
-0.242956
-0.251748
-0.245187
-0.224816
-0.193648
-0.155798
-0.115953
-0.0793059
-0.0504847
-0.0325238
-0.0264569
-0.0311735
-0.0436563
-0.0596253
-0.0745125
-0.0845611
-0.0877435
-0.0838809
-0.0752268
-0.0652337
-0.0573203
-0.053815
-0.0554756
-0.0616946
-0.0711621
-0.0825368
-0.0946777
-0.106509
-0.116427
-0.121889
-0.119489
-0.105656
-0.0777967
-0.0347021
0.0224742
0.0868906
0.149234
0.199982
0.231538
0.239637
0.223753
0.186683
0.133677
0.0714969
0.0076673
-0.0515115
-0.101015
-0.13668
-0.155823
-0.157462
-0.142275
-0.112316
-0.0705829
-0.020588
0.0336547
0.088668
0.140428
0.184666
0.217772
0.237315
0.242829
0.236438
0.222966
0.209365
0.203468
0.212398
0.239716
0.285043
0.346502
0.422146
0.509202
0.604822
0.706635
0.813705
0.927146
1.05363
1.21886
1.46311
1.75018
2.00653
2.13911
2.07628
1.80914
1.40274
0.970605
0.633196
0.454562
0.348061
0.268443
0.205574
0.15691
0.119661
0.0910632
0.0685846
0.0501858
0.034523
0.0208895
0.00922332
0
-0.00695095
-0.00961509
0.272447
1.05305
2.45183
4.45496
6.77143
8.90623
10.3587
10.8189
10.2581
8.89034
7.0547
5.09453
3.28503
1.81795
0.810874
0.302506
0.257044
0.201304
0.136179
0.0590704
-0.0312085
-0.134931
-0.248741
-0.36248
-0.462405
-0.535992
-0.574752
-0.575971
-0.543002
-0.484071
-0.409963
-0.331252
-0.255655
-0.18551
-0.120075
-0.0577603
0.00347481
0.0659196
0.131697
0.202395
0.279283
0.36177
0.444231
0.518009
0.574502
0.608105
0.618493
0.611414
0.597665
0.590541
0.602579
0.63921
0.698893
0.778458
0.874578
0.983641
1.10175
1.22519
1.35102
1.4774
1.60367
1.73009
1.85741
1.98636
2.1171
2.24903
2.3807
2.51006
2.63491
2.7534
2.86441
2.96786
3.06481
3.15737
3.24834
3.34095
3.44044
3.55385
3.6732
3.77474
3.82717
3.8037
3.69303
3.50327
3.25711
2.982
2.70115
2.42665
2.16032
1.90361
1.65914
1.42937
1.21651
1.02239
0.848264
0.694586
0.560887
0.445937
0.347864
0.263734
0.190278
0.124755
0.06553
0.0128174
-0.0320611
-0.0668628
-0.0894041
-0.0985935
-0.0946234
-0.0802233
-0.0599303
-0.0387451
-0.0208033
-0.00829611
-0.000963116
0.00371399
0.00968828
0.0211266
0.0414601
0.074668
0.118776
0.160473
0.182528
0.169865
0.115743
0.0256975
-0.0825025
-0.183323
-0.251012
-0.271161
-0.252151
-0.197196
-0.115592
-0.0204203
0.0744817
0.158649
0.225562
0.272363
0.29985
0.311301
0.310828
0.301742
0.285467
0.261258
0.226934
0.180282
0.120663
0.0502272
-0.0257262
-0.0994273
-0.162149
-0.206406
-0.224471
-0.207288
-0.152388
-0.0738212
0.00299053
0.0544201
0.0648041
0.0306168
-0.0380595
-0.119745
-0.187754
-0.218962
-0.207028
-0.166163
-0.10797
-0.041048
0.0251251
0.0818424
0.122509
0.143497
0.144483
0.128312
0.100416
0.0678227
0.0376462
0.0155999
0.00612974
0.00901527
0.0184262
0.0262139
0.025082
0.0113361
-0.0138908
-0.0453316
-0.0757452
-0.0985234
-0.111178
-0.1148
-0.11092
-0.100817
-0.0859939
-0.0677839
-0.0471725
-0.0248302
-0.00127916
0.0228726
0.0465782
0.0685479
0.0875071
0.102498
0.113042
0.11907
0.120671
0.117653
0.109914
0.097569
0.0815005
0.0638155
0.0478642
0.0376328
0.0366252
0.0484805
0.073264
0.104861
0.134777
0.155416
0.163183
0.16014
0.153567
0.153653
0.170235
0.20819
0.26528
0.337523
0.421954
0.515652
0.616127
0.721949
0.832938
0.949845
1.07458
1.21105
1.35688
1.49739
1.61286
1.68529
1.70451
1.67041
1.59059
1.47541
1.33384
1.17456
1.00719
0.838265
0.673158
0.517761
0.377839
0.258135
0.161906
0.0899027
0.0408222
0.0119489
0
0.00186939
0.0151471
0.0381792
0.0699245
0.109599
0.349787
0.957487
2.10983
3.95191
6.33893
8.80563
10.7299
11.5895
11.1701
9.63354
7.43657
5.14425
3.21888
1.87672
1.07942
0.649141
0.524748
0.401371
0.277321
0.151505
0.0227033
-0.108785
-0.235011
-0.339886
-0.404082
-0.412207
-0.359884
-0.257395
-0.127734
0.000761223
0.104426
0.178734
0.231889
0.269566
0.299197
0.326318
0.352696
0.373639
0.381636
0.372068
0.34779
0.32001
0.304809
0.316931
0.363872
0.434023
0.517398
0.607849
0.699361
0.787394
0.869735
0.946701
1.02072
1.09544
1.17469
1.26116
1.35593
1.45866
1.56796
1.68102
1.79427
1.90486
2.01168
2.11572
2.22001
2.32881
2.44651
2.57643
2.71927
2.87316
3.035
3.20038
3.36382
3.51942
3.66184
3.78681
3.89123
3.97289
4.0267
4.04837
4.03473
3.98215
3.88742
3.74901
3.56816
3.34948
3.10077
2.83222
2.5561
2.28203
2.01774
1.76957
1.54228
1.33854
1.15921
1.00368
0.870414
0.757392
0.662463
0.583845
0.520238
0.469259
0.428135
0.393897
0.363608
0.33469
0.30525
0.274285
0.241721
0.208274
0.175154
0.143607
0.114774
0.0894587
0.0679221
0.0500408
0.0355712
0.0244919
0.0172958
0.0151049
0.0195242
0.0322424
0.0544563
0.0862563
0.126509
0.172943
0.221778
0.268684
0.309561
0.341247
0.361987
0.371609
0.371417
0.363883
0.35225
0.340118
0.330818
0.3272
0.331293
0.344209
0.367025
0.39808
0.431961
0.462544
0.484778
0.496156
0.497288
0.491404
0.48303
0.476458
0.474179
0.476254
0.482132
0.490823
0.500803
0.51006
0.51632
0.517453
0.511796
0.498458
0.477513
0.449979
0.417581
0.382352
0.34624
0.310836
0.277298
0.246703
0.220673
0.200843
0.188902
0.186223
0.193295
0.209305
0.232113
0.258668
0.28572
0.310546
0.331726
0.348458
0.360468
0.367594
0.369228
0.36483
0.354016
0.337181
0.316126
0.294352
0.27682
0.269288
0.284687
0.33839
0.420278
0.508227
0.576539
0.60551
0.587256
0.525959
0.434373
0.329901
0.231795
0.152086
0.0950593
0.0629908
0.0564322
0.0747002
0.114581
0.17105
0.238225
0.310147
0.381928
0.449936
0.511687
0.565905
0.612535
0.652699
0.688565
0.723085
0.759628
0.801545
0.851769
0.912021
0.983386
1.06647
1.16123
1.2674
1.38563
1.51744
1.65908
1.7952
1.90614
1.97301
1.98364
1.93662
1.84078
1.71048
1.55934
1.3963
1.2281
1.05865
0.890768
0.728626
0.577215
0.441437
0.325091
0.229923
0.155261
0.0983615
0.0561728
0.0244814
0
-0.0200615
-0.035422
0.473756
1.54046
3.16071
5.27665
7.66268
9.87675
11.356
11.6637
10.7279
8.88337
6.68418
4.63511
3.02759
1.93707
1.29819
1.02575
0.826134
0.639967
0.475319
0.338022
0.231779
0.157569
0.113459
0.0949925
0.0961384
0.110551
0.132769
0.158871
0.186808
0.21576
0.245413
0.275289
0.304474
0.331786
0.356123
0.376965
0.394764
0.411077
0.428374
0.449581
0.477425
0.513722
0.559184
0.613597
0.676175
0.745171
0.818842
0.895911
0.975742
1.05816
1.14376
1.23186
1.31716
1.39228
1.45143
1.49448
1.52883
1.56755
1.62437
1.70844
1.81986
1.94776
2.0865
2.23286
2.38429
2.53893
2.69524
2.85165
3.00627
3.15729
3.303
3.44229
3.57448
3.69896
3.81581
3.92527
4.02529
4.10897
4.16602
4.18425
4.15231
4.06289
3.91563
3.71865
3.48745
3.24103
2.99655
2.76209
2.53709
2.32105
2.11417
1.91649
1.72835
1.55056
1.38439
1.2313
1.09259
0.969084
0.861048
0.768102
0.68945
0.624123
0.571178
0.529756
0.499113
0.478868
0.468046
0.463473
0.460173
0.452825
0.437018
0.410521
0.374087
0.331459
0.288535
0.251903
0.226697
0.214706
0.216434
0.230693
0.254645
0.284434
0.315879
0.344968
0.368473
0.38441
0.392203
0.392652
0.387712
0.380061
0.372507
0.367365
0.365921
0.367823
0.37179
0.375874
0.377568
0.374158
0.363028
0.342192
0.310627
0.268632
0.21809
0.162361
0.106777
0.0583686
0.0245564
0.0120157
0.0306409
0.103164
0.243179
0.420021
0.587071
0.702932
0.742644
0.702316
0.597677
0.458169
0.318387
0.208797
0.137666
0.0953457
0.0717886
0.0609805
0.0602528
0.0656375
0.0734033
0.080665
0.0858172
0.0886841
0.0903478
0.0926982
0.0978303
0.107353
0.121697
0.140614
0.163135
0.187112
0.209472
0.227045
0.237268
0.23882
0.232037
0.218988
0.203115
0.188505
0.178934
0.176599
0.182408
0.195616
0.213365
0.231957
0.24784
0.258363
0.262081
0.25858
0.247993
0.230524
0.206873
0.177429
0.14262
0.103644
0.0627954
0.023702
-0.008426
-0.0278937
-0.0294978
-0.00970535
0.0418375
0.129806
0.234254
0.329294
0.39216
0.411351
0.390196
0.344238
0.293735
0.255063
0.233579
0.222912
0.21968
0.221381
0.226948
0.237117
0.253835
0.279105
0.313973
0.357415
0.408257
0.466005
0.531202
0.605735
0.692494
0.79444
0.913422
1.04888
1.20085
1.36477
1.52811
1.67232
1.781
1.84317
1.85561
1.82422
1.76386
1.69604
1.64417
1.63054
1.69803
1.81837
1.92865
1.95828
1.86141
1.639
1.33931
1.03692
0.801427
0.649216
0.535682
0.445292
0.372937
0.312043
0.256077
0.199535
0.1387
0.0720083
0
-0.0756449
0.329633
1.39085
3.18615
5.55262
8.07073
10.1815
11.3871
11.4339
10.3885
8.57825
6.44396
4.3854
2.66989
1.42336
0.665765
0.459725
0.394856
0.336363
0.28301
0.234131
0.189808
0.150729
0.1178
0.0920261
0.0739882
0.063094
0.0580719
0.0577927
0.0619143
0.0712112
0.0873653
0.11332
0.154339
0.209601
0.267394
0.311528
0.327837
0.310924
0.267894
0.217153
0.182444
0.184477
0.228958
0.303385
0.39576
0.499244
0.607609
0.715098
0.81719
0.910826
0.994506
1.06818
1.13304
1.19119
1.24541
1.29882
1.35467
1.41597
1.48537
1.56483
1.65555
1.75784
1.8711
1.99391
2.12421
2.25952
2.39727
2.53509
2.67112
2.80412
2.93351
3.05909
3.18078
3.29822
3.4099
3.51173
3.59655
3.65596
3.68099
3.66438
3.60281
3.49828
3.35781
3.19161
3.00999
2.82103
2.62836
2.43236
2.23197
2.02568
1.81259
1.59311
1.36945
1.14558
0.926865
0.71921
0.528073
0.357672
0.210706
0.08783
-0.0137115
-0.0980192
-0.169057
-0.229392
-0.27944
-0.317454
-0.339629
-0.33128
-0.27414
-0.183986
-0.0911961
-0.0286358
-0.0170181
-0.0557589
-0.124101
-0.191838
-0.234054
-0.24281
-0.235223
-0.222107
-0.210639
-0.205356
-0.207053
-0.213171
-0.219341
-0.221359
-0.217428
-0.208392
-0.195881
-0.181953
-0.169067
-0.159662
-0.155829
-0.15911
-0.170316
-0.189409
-0.21539
-0.24638
-0.27947
-0.310442
-0.334861
-0.348881
-0.350035
-0.337778
-0.313646
-0.281027
-0.244671
-0.210087
-0.183551
-0.171775
-0.180301
-0.213365
-0.273166
-0.366424
-0.499898
-0.651728
-0.793208
-0.897691
-0.948915
-0.94475
-0.895114
-0.816243
-0.725041
-0.635767
-0.555014
-0.484945
-0.428226
-0.386176
-0.358464
-0.343224
-0.337481
-0.33781
-0.341049
-0.344844
-0.348039
-0.350376
-0.352153
-0.353957
-0.356321
-0.359461
-0.363137
-0.366665
-0.369071
-0.369348
-0.366736
-0.360871
-0.351848
-0.340529
-0.328097
-0.315751
-0.304493
-0.29509
-0.288189
-0.284825
-0.285917
-0.292299
-0.304216
-0.320764
-0.339581
-0.357067
-0.36915
-0.372393
-0.365291
-0.348424
-0.323883
-0.296179
-0.270679
-0.251682
-0.241255
-0.238848
-0.241823
-0.246699
-0.250655
-0.252442
-0.253503
-0.256782
-0.264683
-0.277015
-0.289989
-0.296857
-0.290034
-0.26389
-0.214956
-0.145305
-0.0680471
0.000891113
0.0484024
0.0689384
0.0667818
0.0550966
0.0519777
0.0747423
0.134351
0.226854
0.340924
0.46745
0.600341
0.733529
150
406
662
923
1184
1452
1712
1976
2227
2488
2738
2998
3251
3519
3571
3124
3301
3476
3652
3678
3624
3512
3699
3512
3660
3631
0
0
0
0
0
0
0
0
0
0
0
0
0
0
0
0
0
0
0
0
0
0
0
0
0
0
0
0
0
0
0
0
0
0
0
0
0
0
0
0
0
0
0
0
0
0
0
0
0
0
0
0
0
0
0
0
0
0
0
0
0
0
0
0
0
0
0
0
0
0
0
0
0
0
0
0
0
0
0
0
0
0
0
0
0
0
0
0
0
0
0
0
0
0
0
0
0
0
0
0
0
0
0
0
0
0
0
0
0
0
0
0
0
0
0
0
0
0
0
0
0
0
0
0
0
0
0
0
0
0
0
0
0
0
0
0
0
0
0
0
0
0
0
0
0
0
0
0
0
0
0
0
0
0
0
0
0
0
0
0
0
0
0
0
0
0
0
0
0
0
0
0
0
0
0
0
0
0
0
0
0
0
0
0
0
0
0
0
0
0
0
0
0
0
0
0
0
0
0
0
0
0
0
0
0
0
0
0
0
0
0
0
0
0
0
0
0
0
0
0
0
0
0
0
0
0
0
0
0
0
0
0
0
0
0
0
0
0
0
0
0
0
0
0
0
0
0
0
0
0
0
0
0
0
0
0
0
0
0
0
0
0
0
0
0
0
0
0
0
0
0
0
0
0
0
0
0
0
0
0
0
0
0
0
0
0
0
0
0
0
0
0
0
0
0
0
0
0
0
0
0
0
0
0
0
0
0
0
0
0
0
0
0
0
0
0
0
0
0
0
0
0
0
0
0
0
0
0
0
0
0
0
0
0
0
0
0
0
0
0
0
0
0
0
0
0
0
0
0
0
0
0
0
0
0
0
0
0
0
0
0
0
0
0
0
0
0
0
0
0
0
0
0
0
0
0
0
0
0
0
0
0
0
0
0
0
0
0
0
0
0
0
0
0
0
0
0
0
0
0
0
0
0
0
0
0
0
0
0
0
0
0
0
0
0
0
0
0
0
0
0
0
0
0
0
0
0
0
0
0
0
0
0
0
0
0
0
0
0
0
0
0
0
0
0
0
0
0
0
0
0
0
0
0
0
0
0
0
0
0
0
0
0
0
0
0
0
0
0
0
0
0
0
0
0
0
0
0
0
0
0
0
0
0
0
0
0
0
0
0
0
0
0
0
0
0
0
0
0
0
0
0
0
0
0
0
0
0
0
0
0
0
0
0
0
0
0
0
0
0
0
0
0
0
0
0
0
0
0
0
0
0
0
0
0
0
0
0
0
0
0
0
0
0
0
0
0
0
0
0
0
0
0
0
0
0
0
0
0
0
0
0
0
0
0
0
0
0
0
0
0
0
0
0
0
0
0
0
0
0
0
0
0
0
0
0
0
0
0
0
0
0
0
0
0
0
0
0
0
0
0
0
0
0
0
0
0
0
0
0
0
0
0
0
0
0
0
0
0
0
0
0
0
0
0
0
0
0
0
0
0
0
0
0
0
0
0
0
0
0
0
0
0
0
0
0
0
0
0
0
0
0
0
0
0
0
0
0
0
0
0
0
0
0
0
0
0
0
0
0
0
0
0
0
0
0
0
0
0
0
0
0
0
0
0
0
0
0
0
0
0
0
0
0
0
0
0
0
0
0
0
0
0
0
0
0
0
0
0
0
0
0
0
0
0
0
0
0
0
0
0
0
0
0
0
0
0
0
0
0
0
0
0
0
0
0
0
0
0
0
0
0
0
0
0
0
0
0
0
0
0
0
0
0
0
0
0
0
0
0
0
0
0
0
0
0
0
0
0
0
0
0
0
0
0
0
0
0
0
0
0
0
0
0
0
0
0
0
0
0
0
0
0
0
0
0
0
0
0
0
0
0
0
0
0
0
0
0
0
0
0
0
0
0
0
0
0
0
0
0
0
0
0
0
0
0
0
0
0
0
0
0
0
0
0
0
0
0
0
0
0
0
0
0
0
0
0
0
0
0
0
0
0
0
0
0
0
0
0
0
0
0
0
0
0
0
0
0
0
0
0
0
0
0
0
0
0
0
0
0
0
0
0
0
0
0
0
0
0
0
0
0
0
0
0
0
0
0
0
0
0
0
0
0
0
0
0
0
0
0
0
0
0
0
0
0
0
0
0
0
0
0
0
0
0
0
0
0
0
0
0
0
0
0
0
0
0
0
0
0
0
0
0
0
0
0
0
0
0
0
0
0
0
0
0
0
0
0
0
0
0
0
0
0
0
0
0
0
0
0
0
0
0
0
0
0
0
0
0
0
0
0
0
0
0
0
0
0
0
0
0
0
0
0
0
0
0
0
0
0
0
0
0
0
0
0
0
0
0
0
0
0
0
0
0
0
0
0
0
0
0
0
0
0
0
0
0
0
0
0
0
0
0
0
0
0
0
0
0
0
0
0
0
0
0
0
0
0
0
0
0
0
0
0
0
0
0
0
0
0
0
0
0
0
0
0
0
0
0
0
0
0
0
0
0
0
0
0
0
0
0
0
0
0
0
0
0
0
0
0
0
0
0
0
0
0
0
0
0
0
0
0
0
0
0
0
0
0
0
0
0
0
0
0
0
0
0
0
0
0
0
0
0
0
0
0
0
0
0
0
0
0
0
0
0
0
0
0
0
0
0
0
0
0
0
0
0
0
0
0
0
0
0
0
0
0
0
0
0
0
0
0
0
0
0
0
0
0
0
0
0
0
0
0
0
0
0
0
0
0
0
0
0
0
0
0
0
0
0
0
0
0
0
0
0
0
0
0
0
0
0
0
0
0
0
0
0
0
0
0
0
0
0
0
0
0
0
0
0
0
0
0
0
0
0
0
0
0
0
0
0
0
0
0
0
0
0
0
0
0
0
0
0
0
0
0
0
0
0
0
0
0
0
0
0
0
0
0
0
0
0
0
0
0
0
0
0
0
0
0
0
0
0
0
0
0
0
0
0
0
0
0
0
0
0
0
0
0
0
0
0
0
0
0
0
0
0
0
0
0
0
0
0
0
0
0
0
0
0
0
0
0
0
0
0
0
0
0
0
0
0
0
0
0
0
0
0
0
0
0
0
0
0
0
0
0
0
0
0
0
0
0
0
0
0
0
0
0
0
0
0
0
0
0
0
0
0
0
0
0
0
0
0
0
0
0
0
0
0
0
0
0
0
0
0
0
0
0
0
0
0
0
0
0
0
0
0
0
0
0
0
0
0
0
0
0
0
0
0
0
0
0
0
0
0
0
0
0
0
0
0
0
0
0
0
0
0
0
0
0
0
0
0
0
0
0
0
0
0
0
0
0
0
0
0
0
0
0
0
0
0
0
0
0
0
0
0
0
0
0
0
0
0
0
0
0
0
0
0
0
0
0
0
0
0
0
0
0
0
0
0
0
0
0
0
0
0
0
0
0
0
0
0
0
0
0
0
0
0
0
0
0
0
0
0
0
0
0
0
0
0
0
0
0
0
0
0
0
0
0
0
0
0
0
0
0
0
0
0
0
0
0
0
0
0
0
0
0
0
0
0
0
0
0
0
0
0
0
0
0
0
0
0
0
0
0
0
0
0
0
0
0
0
0
0
0
0
0
0
0
0
0
0
0
0
0
0
0
0
0
0
0
0
0
0
0
0
0
0
0
0
0
0
0
0
0
0
0
0
0
0
0
0
0
0
0
0
0
0
0
0
0
0
0
0
0
0
0
0
0
0
0
0
0
0
0
0
0
0
0
0
0
0
0
0
0
0
0
0
0
0
0
0
0
0
0
0
0
0
0
0
0
0
0
0
0
0
0
0
0
0
0
0
0
0
0
0
0
0
0
0
0
0
0
0
0
0
0
0
0
0
0
0
0
0
0
0
0
0
0
0
0
0
0
0
0
0
0
0
0
0
0
0
0
0
0
0
0
0
0
0
0
0
0
0
0
0
0
0
0
0
0
0
0
0
0
0
0
0
0
0
0
0
0
0
0
0
0
0
0
0
0
0
0
0
0
0
0
0
0
0
0
0
0
0
0
0
0
0
0
0
0
0
0
0
0
0
0
0
0
0
0
0
0
0
0
0
0
0
0
0
0
0
0
0
0
0
0
0
0
0
0
0
0
0
0
0
0
0
0
0
0
0
0
0
0
0
0
0
0
0
0
0
0
0
0
0
0
0
0
0
0
0
0
0
0
0
0
0
0
0
0
0
0
0
0
0
0
0
0
0
0
0
0
0
0
0
0
0
0
0
0
0
0
0
0
0
0
0
0
0
0
0
0
0
0
0
0
0
0
0
0
0
0
0
0
0
0
0
0
0
0
0
0
0
0
0
0
0
0
0
0
0
0
0
0
0
0
0
0
0
0
0
0
0
0
0
0
0
0
0
0
0
0
0
0
0
0
0
0
0
0
0
0
0
0
0
0
0
0
0
0
0
0
0
0
0
0
0
0
0
0
0
0
0
0
0
0
0
0
0
0
0
0
0
0
0
0
0
0
0
0
0
0
0
0
0
0
0
0
0
0
0
0
0
0
0
0
0
0
0
0
0
0
0
0
0
0
0
0
0
0
0
0
0
0
0
0
0
0
0
0
0
0
0
0
0
0
0
0
0
0
0
0
0
0
0
0
0
0
0
0
0
0
0
0
0
0
0
0
0
0
0
0
0
0
0
0
0
0
0
0
0
0
0
0
0
0
0
0
0
0
0
0
0
0
0
0
0
0
0
0
0
0
0
0
0
0
0
0
0
0
0
0
0
0
0
0
0
0
0
0
0
0
0
0
0
0
0
0
0
0
0
0
0
0
0
0
0
0
0
0
0
0
0
0
0
0
0
0
0
0
0
0
0
0
0
0
0
0
0
0
0
0
0
0
0
0
0
0
0
0
0
0
0
0
0
0
0
0
0
0
0
0
0
0
0
0
0
0
0
0
0
0
0
0
0
0
0
0
0
0
0
0
0
0
0
0
0
0
0
0
0
0
0
0
0
0
0
0
0
0
0
0
0
0
0
0
0
0
0
0
0
0
0
0
0
0
0
0
0
0
0
0
0
0
0
0
0
0
0
0
0
0
0
0
0
0
0
0
0
0
0
0
0
0
0
0
0
0
0
0
0
0
0
0
0
0
0
0
0
0
0
0
0
0
0
0
0
0
0
0
0
0
0
0
0
0
0
0
0
0
0
0
0
0
0
0
0
0
0
0
0
0
0
0
0
0
0
0
0
0
0
0
0
0
0
0
0
0
0
0
0
0
0
0
0
0
0
0
0
0
0
0
0
0
0
0
0
0
0
0
0
0
0
0
0
0
0
0
0
0
0
0
0
0
0
0
0
0
0
0
0
0
0
0
0
0
0
0
0
0
0
0
0
0
0
0
0
0
0
0
0
0
0
0
0
0
0
0
0
0
0
0
0
0
0
0
0
0
0
0
0
0
0
0
0
0
0
0
0
0
0
0
0
0
0
0
0
0
0
0
0
0
0
0
0
0
0
0
0
0
0
0
0
0
0
0
0
0
0
0
0
0
0
0
0
0
0
0
0
0
0
0
0
0
0
0
0
0
0
0
0
0
0
0
0
0
0
0
0
0
0
0
0
0
0
0
0
0
0
0
0
0
0
0
0
0
0
0
0
0
0
0
0
0
0
0
0
0
0
0
0
0
0
0
0
0
0
0
0
0
0
0
0
0
0
0
0
0
0
0
0
0
0
0
0
0
0
0
0
0
0
0
0
0
0
0
0
0
0
0
0
0
0
0
0
0
0
0
0
0
0
0
0
0
0
0
0
0
0
0
0
0
0
0
0
0
0
0
0
0
0
0
0
0
0
0
0
0
0
0
0
0
0
0
0
0
0
0
0
0
0
0
0
0
0
0
0
0
0
0
0
0
0
0
0
0
0
0
0
0
0
0
0
0
0
0
0
0
0
0
0
0
0
0
0
0
0
0
0
0
0
0
0
0
0
0
0
0
0
0
0
0
0
0
0
0
0
0
0
0
0
0
0
0
0
0
0
0
0
0
0
0
0
0
0
0
0
0
0
0
0
0
0
0
0
0
0
0
0
0
0
0
0
0
0
0
0
0
0
0
0
0
0
0
0
0
0
0
0
0
0
0
0
0
0
0
0
0
0
0
0
0
0
0
0
0
0
0
0
0
0
0
0
0
0
0
0
0
0
0
0
0
0
0
0
0
0
0
0
0
0
0
0
0
0
0
0
0
0
0
0
0
0
0
0
0
0
0
0
0
0
0
0
0
0
0
0
0
0
0
0
0
0
0
0
0
0
0
0
0
0
0
0
0
0
0
0
0
0
0
0
0
0
0
0
0
0
0
0
0
0
0
0
0
0
0
0
0
0
0
0
0
0
0
0
0
0
0
0
0
0
0
0
0
0
0
0
0
0
0
0
0
0
0
0
0
0
0
0
0
0
0
0
0
0
0
0
0
0
0
0
0
0
0
0
0
0
0
0
0
0
0
0
0
0
0
0
0
0
0
0
0
0
0
0
0
0
0
0
0
0
0
0
0
0
0
0
0
0
0
0
0
0
0
0
0
0
0
0
0
0
0
0
0
0
0
0
0
0
0
0
0
0
0
0
0
0
0
0
0
0
0
0
0
0
0
0
0
0
0
0
0
0
0
0
0
0
0
0
0
0
0
0
0
0
0
0
0
0
0
0
0
0
0
0
0
0
0
0
0
0
0
0
0
0
0
0
0
0
0
0
0
0
0
0
0
0
0
0
0
0
0
0
0
0
0
0
0
0
0
0
0
0
0
0
0
0
0
0
0
0
0
0
0
0
0
0
0
0
0
0
0
0
0
0
0
0
0
0
0
0
0
0
0
0
0
0
0
0
0
0
0
0
0
0
0
0
0
0
0
0
0
0
0
0
0
0
0
0
0
0
0
0
0
0
0
0
0
0
0
0
0
0
0
0
0
0
0
0
0
0
0
0
0
0
0
0
0
0
0
0
0
0
0
0
0
0
0
0
0
0
0
0
0
0
0
0
0
0
0
0
0
0
0
0
0
0
0
0
0
0
0
0
0
0
0
0
0
0
0
0
0
0
0
0
0
0
0
0
0
0
0
0
0
0
0
0
0
0
0
0
0
0
0
0
0
0
0
0
0
0
0
0
0
0
0
0
0
0
0
0
0
0
0
0
0
0
0
0
0
0
0
0
0
0
0
0
0
0
0
0
0
0
0
0
0
0
0
0
0
0
0
0
0
0
0
0
0
0
0
0
0
0
0
0
0
0
0
0
0
0
0
0
0
0
0
0
0
0
0
0
0
0
0
0
0
0
0
0
0
0
0
0
0
0
0
0
0
0
0
0
0
0
0
0
0
0
0
0
0
0
0
0
0
0
0
0
0
0
0
0
0
0
0
0
0
0
0
0
0
0
0
0
0
0
0
0
0
0
0
0
0
0
0
0
0
0
0
0
0
0
0
0
0
0
0
0
0
0
0
0
0
0
0
0
0
0
0
0
0
0
0
0
0
0
0
0
0
0
0
0
0
0
0
0
0
0
0
0
0
0
0
0
0
0
0
0
0
0
0
0
0
0
0
0
0
0
0
0
0
0
0
0
0
0
0
0
0
0
0
0
0
0
0
0
0
0
0
0
0
0
0
0
0
0
0
0
0
0
0
0
0
0
0
0
0
0
0
0
0
0
0
0
0
0
0
0
0
0
0
0
0
0
0
0
0
0
0
0
0
0
0
0
0
0
0
0
0
0
0
0
0
0
0
0
0
0
0
0
0
0
0
0
0
0
0
0
0
0
0
0
0
0
0
0
0
0
0
0
0
0
0
0
0
0
0
0
0
0
0
0
0
0
0
0
0
0
0
0
0
0
0
0
0
0
0
0
0
0
0
0
0
0
0
0
0
0
0
0
0
0
0
0
0
0
0
0
0
0
0
0
0
0
0
0
0
0
0
0
0
0
0
0
0
0
0
0
0
0
0
0
0
0
0
0
0
0
0
0
0
0
0
0
0
0
0
0
0
0
0
0
0
0
0
0
0
0
0
0
0
0
0
0
0
0
0
0
0
0
0
0
0
0
0
0
0
0
0
0
0
0
0
0
0
0
0
0
0
0
0
0
0
0
0
0
0
0
0
0
0
0
0
0
0
0
0
0
0
0
0
0
0
0
0
0
0
0
0
0
0
0
0
0
0
0
0
0
0
0
0
0
0
0
0
0
0
0
0
0
0
0
0
0
0
0
0
0
0
0
0
0
0
0
0
0
0
0
0
0
0
0
0
0
0
0
0
0
0
0
0
0
0
0
0
0
0
0
0
0
0
0
0
0
0
0
0
0
0
0
0
0
0
0
0
0
0
0
0
0
0
0
0
0
0
0
0
0
0
0
0
0
0
0
0
0
0
0
0
0
0
0
0
0
0
0
0
0
0
0
0
0
0
0
0
0
0
0
0
0
0
0
0
0
0
0
0
0
0
0
0
0
0
0
0
0
0
0
0
0
0
0
0
0
0
0
0
0
0
0
0
0
0
0
0
0
