2.70577
2.853
3.01625
3.19048
3.36719
3.53549
3.68552
3.81055
3.908
3.9793
4.02863
4.06116
4.08125
4.09195
4.09346
4.08382
4.05957
4.01632
3.94926
3.85376
3.72592
3.56348
3.36838
3.14475
2.89824
2.63647
2.36875
2.10498
1.85439
1.62613
1.42833
1.25991
1.11554
0.988252
0.872285
0.765238
0.668655
0.587483
0.540056
0.534575
0.55508
0.573329
0.56252
0.511102
0.42849
0.339913
0.273997
0.250005
0.256872
0.281546
0.318336
0.357877
0.39027
0.40807
0.407725
0.390114
0.359986
0.324352
0.29025
0.262677
0.242889
0.228825
0.218875
0.211306
0.204887
0.199119
0.194086
0.190116
0.187446
0.186097
0.185984
0.186821
0.188033
0.188607
0.186831
0.180639
0.168154
0.148551
0.122854
0.0942569
0.0676704
0.048501
0.0451376
0.062266
0.0916349
0.118758
0.129207
0.114986
0.0777918
0.0277698
-0.0211628
-0.0567821
-0.0755986
-0.081431
-0.0772358
-0.0648559
-0.0464062
-0.0241481
-0.000877619
0.0200902
0.0355869
0.0430913
0.0413056
0.0306556
0.0135037
-0.00606422
-0.0228864
-0.0316661
-0.0286347
-0.0123177
0.0184803
0.0643605
0.123325
0.188122
0.247559
0.290461
0.307884
0.295034
0.252447
0.186077
0.10617
0.0251131
-0.0452811
-0.0985324
-0.133369
-0.149819
-0.146685
-0.123307
-0.0791948
-0.0139429
0.0716603
0.176693
0.299352
0.43643
0.583375
0.734708
0.884646
1.02783
1.15949
1.27513
1.37002
1.43948
1.4812
1.49341
1.47525
1.42762
1.35382
1.25969
1.15291
1.04151
0.932086
0.827675
0.728639
0.632247
0.534051
0.429631
0.312409
0.183864
0.0568217
-0.05183
-0.1281
-0.166228
-0.169957
-0.149601
-0.116829
-0.0800489
-0.0427238
0
0.483372
1.70102
3.75167
6.37703
8.96535
10.7717
11.261
10.3633
8.47665
6.21833
4.10685
2.38803
1.08111
0.137635
-0.439143
-0.39115
-0.333775
-0.265825
-0.18192
-0.0746726
0.0554842
0.184874
0.282272
0.315324
0.261835
0.121848
-0.0773391
-0.287888
-0.457576
-0.548896
-0.585553
-0.592166
-0.571786
-0.528775
-0.467917
-0.393668
-0.309952
-0.219025
-0.121854
-0.0187201
0.0906034
0.206794
0.327864
0.444566
0.543859
0.613574
0.647361
0.648097
0.62797
0.604995
0.5974
0.618449
0.666878
0.735481
0.820127
0.918936
1.0302
1.15225
1.28337
1.42172
1.56533
1.71208
1.8601
2.00812
2.15569
2.30299
2.45047
2.59824
2.74548
2.89015
3.02885
3.15758
3.27237
3.36994
3.44805
3.50549
3.54102
3.55232
3.53854
3.4985
3.43098
3.33529
3.2117
3.0616
2.88726
2.69152
2.4786
2.25347
2.01972
1.78166
1.54437
1.31349
1.09478
0.893303
0.712791
0.555034
0.419802
0.305362
0.208294
0.124291
0.0496428
-0.0178703
-0.0778382
-0.128325
-0.166081
-0.18797
-0.18808
-0.165882
-0.129741
-0.0913631
-0.0619391
-0.0484771
-0.0518
-0.0668817
-0.0852078
-0.0981377
-0.101028
-0.0938654
-0.0780998
-0.0588665
-0.0421371
-0.0325165
-0.031509
-0.0368369
-0.0430626
-0.0433396
-0.0317319
-0.00625327
0.0334236
0.0822255
0.130319
0.167366
0.185743
0.182672
0.160562
0.125582
0.0852946
0.0464332
0.0127043
-0.0150183
-0.0361343
-0.0501124
-0.0568529
-0.0566909
-0.0499758
-0.0383546
-0.0246645
-0.0119118
-0.00252584
0.0022751
0.00272816
0.000268233
-0.00312157
-0.00567168
-0.00648183
-0.00562093
-0.00359845
-0.00123906
0.000569439
0.00100356
-0.00070591
-0.00542439
-0.0140006
-0.027074
-0.0447337
-0.0660938
-0.0890287
-0.110193
-0.125515
-0.131072
-0.124058
-0.103554
-0.0708702
-0.0293535
0.0162426
0.060633
0.0992641
0.128453
0.145637
0.149549
0.140206
0.11884
0.0878298
0.050707
0.0117068
-0.0243217
-0.0522839
-0.0672778
-0.0597236
-0.00292823
0.154921
0.395955
0.645567
0.818709
0.849045
0.721812
0.488651
0.247615
0.0959299
0.0864589
0.156364
0.256149
0.371638
0.498101
0.63153
0.767996
0.903153
1.03326
1.15557
1.26857
1.37183
1.46314
1.53957
1.59866
1.63557
1.64401
1.61861
1.55724
1.46225
1.33986
1.1982
1.04484
0.886035
0.724814
0.562036
0.398862
0.241263
0.102444
0
-0.0503706
-0.0442128
0.0109477
0.0982866
0.199442
0.302066
0.403162
0.7167
1.67877
3.47403
5.94267
8.55215
10.5886
11.4896
11.1123
9.75813
7.94229
6.09357
4.40531
2.90419
1.61477
0.638794
0.386026
0.270224
0.168188
0.0771595
-0.00403565
-0.0742171
-0.130886
-0.169213
-0.184243
-0.173395
-0.138222
-0.0847173
-0.0220675
0.0396322
0.0921164
0.13302
0.161031
0.177168
0.18444
0.187114
0.1899
0.196987
0.211571
0.23569
0.270169
0.314759
0.368408
0.429503
0.496125
0.56636
0.638563
0.711553
0.784698
0.857899
0.931484
1.00603
1.08215
1.16026
1.2404
1.3222
1.40488
1.48751
1.56931
1.65017
1.73096
1.81372
1.90152
1.99811
2.10732
2.23239
2.37503
2.53553
2.71268
2.90363
3.10409
3.30862
3.51101
3.70321
3.87585
4.02188
4.13605
4.21531
4.25881
4.26738
4.24265
4.18599
4.09769
3.97759
3.82762
3.64963
3.44525
3.21715
2.96993
2.71008
2.44525
2.18324
1.9311
1.69426
1.47564
1.27622
1.09592
0.935502
0.797929
0.685126
0.599487
0.54248
0.516924
0.519117
0.539905
0.56817
0.593435
0.608079
0.608451
0.594716
0.569731
0.537529
0.502302
0.466659
0.431988
0.399098
0.368673
0.341887
0.321665
0.311622
0.316063
0.338822
0.381785
0.445834
0.52621
0.612682
0.69318
0.756381
0.793736
0.800483
0.77578
0.722433
0.646579
0.558556
0.46839
0.387887
0.327538
0.294181
0.289331
0.308963
0.344944
0.387613
0.428485
0.463108
0.490323
0.51003
0.52334
0.532007
0.538114
0.543559
0.550028
0.558778
0.570381
0.584763
0.600496
0.615177
0.626273
0.632007
0.632064
0.627833
0.622081
0.61818
0.619158
0.626409
0.639556
0.657374
0.677871
0.698016
0.713442
0.719524
0.712516
0.690486
0.65421
0.607614
0.557486
0.512349
0.480711
0.469124
0.479397
0.516082
0.575894
0.644174
0.70493
0.745634
0.760716
0.752675
0.730496
0.705968
0.689337
0.685731
0.692285
0.704731
0.720471
0.737426
0.754784
0.773265
0.79489
0.822391
0.858373
0.904266
0.960594
1.02709
1.10262
1.18523
1.27239
1.36126
1.44891
1.53257
1.60998
1.67956
1.74042
1.79227
1.83495
1.86777
1.88745
1.88825
1.86439
1.80959
1.71937
1.5935
1.43752
1.26267
1.0839
0.916584
0.770398
0.656624
0.576999
0.521354
0.474533
0.421283
0.350507
0.257683
0.145149
0.0207082
-0.104569
0
0.650673
1.8932
3.77071
6.13395
8.58231
10.5345
11.4393
11.0265
9.43622
7.13757
4.69796
2.56452
0.976548
0.00225229
-0.395867
-0.249351
-0.111967
0.00922475
0.108696
0.183721
0.236017
0.272
0.294569
0.307046
0.312793
0.31522
0.317293
0.32195
0.332068
0.350266
0.378502
0.417595
0.467094
0.525499
0.588282
0.649074
0.701801
0.742251
0.769248
0.78511
0.79528
0.807235
0.828927
0.866453
0.921927
0.994802
1.08347
1.18584
1.29539
1.40207
1.49633
1.57138
1.62478
1.65909
1.6814
1.70184
1.73154
1.78046
1.85297
1.94892
2.06672
2.20416
2.35787
2.52337
2.69562
2.86955
3.0405
3.20465
3.3592
3.50241
3.63373
3.75356
3.86283
3.96214
4.0506
4.12547
4.18401
4.22215
4.23552
4.22118
4.17874
4.11015
4.01809
3.90381
3.76574
3.60529
3.42411
3.22054
2.99424
2.74726
2.48429
2.21232
1.93999
1.67628
1.42985
1.20853
1.01779
0.860459
0.739302
0.656441
0.605566
0.578246
0.566171
0.56268
0.5636
0.567165
0.573152
0.581654
0.592058
0.602402
0.60978
0.611321
0.605356
0.592279
0.574754
0.557156
0.544435
0.540578
0.546967
0.563377
0.587815
0.61617
0.643215
0.663713
0.673459
0.670069
0.653461
0.625977
0.592119
0.557899
0.529855
0.513835
0.513203
0.528016
0.556416
0.596128
0.642283
0.68825
0.727392
0.754102
0.764511
0.756799
0.731126
0.689326
0.634549
0.571005
0.503907
0.438416
0.379465
0.332289
0.306117
0.318702
0.37646
0.456258
0.5253
0.554444
0.530916
0.46383
0.37969
0.310358
0.279661
0.285638
0.311119
0.346613
0.386493
0.424786
0.456401
0.477764
0.487109
0.48445
0.471303
0.450244
0.424418
0.397103
0.371346
0.349592
0.333828
0.325726
0.326447
0.336537
0.355815
0.383333
0.417455
0.456071
0.496906
0.537859
0.577289
0.614063
0.647489
0.677046
0.702082
0.72178
0.735636
0.743709
0.747277
0.749482
0.755625
0.772889
0.809416
0.872866
0.980369
1.1809
1.44844
1.71562
1.91324
1.99933
1.97412
1.87404
1.74867
1.63418
1.53886
1.44614
1.34932
1.24474
1.13093
1.00938
0.884276
0.76157
0.647119
0.545461
0.460955
0.396618
0.349542
0.313187
0.279762
0.242173
0.195619
0.138428
0.0720673
0
0.527117
1.71033
3.5785
5.96637
8.49082
10.6201
11.8474
11.8984
10.8417
9.02643
6.89487
4.80742
2.98182
1.53562
0.539139
0.177616
0.170332
0.172773
0.179634
0.186519
0.190614
0.191039
0.188776
0.186174
0.186153
0.191282
0.202497
0.219953
0.242699
0.267954
0.292017
0.311536
0.324513
0.331005
0.333309
0.335552
0.342762
0.359669
0.389149
0.431285
0.484361
0.545855
0.612821
0.682121
0.750911
0.817061
0.8794
0.937766
0.992896
1.04619
1.09945
1.15452
1.21314
1.27666
1.34607
1.42197
1.50477
1.59481
1.69249
1.7984
1.91315
2.03721
2.17067
2.31298
2.46285
2.61825
2.77658
2.93493
3.0903
3.23984
3.38057
3.50908
3.62356
3.72314
3.80814
3.88003
3.94112
3.99373
4.03694
4.06723
4.07672
4.05303
3.98322
3.85863
3.67856
3.45116
3.19164
2.91829
2.64753
2.38623
2.1384
1.9066
1.69136
1.49169
1.306
1.133
0.972445
0.825581
0.695084
0.586936
0.513825
0.492035
0.523337
0.586011
0.651615
0.693749
0.695117
0.651081
0.569816
0.469708
0.374288
0.304794
0.268014
0.257914
0.265354
0.285598
0.314838
0.350401
0.391185
0.437612
0.492614
0.554972
0.614686
0.657225
0.670182
0.650393
0.607283
0.560225
0.530988
0.535005
0.585785
0.661139
0.723728
0.737729
0.684822
0.573397
0.437567
0.325702
0.281815
0.313092
0.386571
0.495206
0.617732
0.731446
0.81841
0.869855
0.887363
0.880582
0.862501
0.844109
0.830038
0.818247
0.804198
0.782114
0.7474
0.698738
0.639174
0.575877
0.51861
0.477404
0.458115
0.463568
0.493249
0.545946
0.613685
0.683031
0.741085
0.778429
0.790942
0.780031
0.751312
0.712316
0.67015
0.629768
0.593092
0.560665
0.533006
0.510581
0.493812
0.483002
0.478251
0.479383
0.485481
0.495358
0.507886
0.522281
0.538199
0.555549
0.574169
0.593243
0.610483
0.622612
0.626497
0.620617
0.606285
0.587998
0.57265
0.567813
0.579701
0.609567
0.654926
0.713934
0.783769
0.861323
0.943738
1.02916
1.11663
1.2059
1.29715
1.39066
1.48658
1.58484
1.68492
1.78372
1.87266
1.93926
1.96983
1.95423
1.89049
1.78672
1.65891
1.5252
1.39911
1.28244
1.17092
1.06131
0.950389
0.835857
0.716478
0.593966
0.47289
0.358961
0.257563
0.173442
0.109039
0.0632216
0.0328351
0.0134561
0
0.409458
1.35679
2.98916
5.27131
7.88698
10.2633
11.763
11.9652
10.8678
8.86755
6.53834
4.36833
2.62377
1.37367
0.585112
0.322051
0.290052
0.268731
0.257032
0.253349
0.2556
0.261247
0.267435
0.271654
0.272355
0.26933
0.263821
0.258286
0.255823
0.259395
0.27108
0.291319
0.318878
0.352283
0.389779
0.429799
0.471369
0.514375
0.559455
0.607729
0.660369
0.718131
0.781204
0.848945
0.91848
0.985258
1.04453
1.09262
1.12801
1.15204
1.169
1.1857
1.21054
1.25133
1.31314
1.39943
1.51241
1.6515
1.81292
1.99033
2.17662
2.36438
2.54658
2.71729
2.87194
3.00804
3.12488
3.22324
3.30498
3.37257
3.42868
3.47584
3.51617
3.5513
3.58223
3.6093
3.63209
3.64911
3.65718
3.65136
3.62591
3.5743
3.49021
3.36872
3.20737
3.00694
2.7717
2.50904
2.22934
1.94349
1.66039
1.38776
1.13167
0.896249
0.683642
0.494306
0.327468
0.18164
0.0550852
-0.0538763
-0.14673
-0.224799
-0.289377
-0.341867
-0.383866
-0.417317
-0.444418
-0.467325
-0.487839
-0.507064
-0.525121
-0.541024
-0.552753
-0.557592
-0.551877
-0.529129
-0.480634
-0.40754
-0.328104
-0.265918
-0.241305
-0.262989
-0.323602
-0.401237
-0.467051
-0.496375
-0.483644
-0.441176
-0.382363
-0.324641
-0.283632
-0.268163
-0.278086
-0.305573
-0.339097
-0.368131
-0.387254
-0.397803
-0.401655
-0.399924
-0.393545
-0.382962
-0.368262
-0.349617
-0.327702
-0.304204
-0.28189
-0.263913
-0.253041
-0.250991
-0.258119
-0.273527
-0.295461
-0.321718
-0.349761
-0.377163
-0.401444
-0.419871
-0.429676
-0.428079
-0.410488
-0.374251
-0.324269
-0.27008
-0.222869
-0.192778
-0.186753
-0.207404
-0.252748
-0.316443
-0.388308
-0.455829
-0.508467
-0.53718
-0.535997
-0.503947
-0.445613
-0.37028
-0.289833
-0.216053
-0.157268
-0.118688
-0.101838
-0.105259
-0.125591
-0.158497
-0.198288
-0.240345
-0.278468
-0.3055
-0.314372
-0.299468
-0.25812
-0.191618
-0.105212
-0.00701544
0.0938922
0.189736
0.276782
0.353436
0.419145
0.474652
0.521393
0.56131
0.596429
0.628712
0.659984
0.691823
0.725425
0.761446
0.798963
0.834871
0.864175
0.880488
0.87681
0.846483
0.784193
0.686981
0.55516
0.392993
0.200341
-0.00639498
-0.199636
-0.353255
-0.449544
-0.48349
-0.462708
-0.403281
-0.32343
-0.23769
-0.153429
-0.0715678
0
0.464096
1.58814
3.47706
5.88878
8.26192
9.96398
10.5964
10.1481
8.90985
7.25337
5.45993
3.69603
2.0906
0.794269
-0.0496201
-0.177612
-0.166644
-0.149821
-0.137898
-0.139756
-0.160386
-0.199834
-0.253394
-0.31299
-0.369363
-0.415376
-0.448182
-0.465837
-0.468174
-0.456186
-0.431099
-0.393651
-0.34389
-0.28157
-0.206931
-0.121462
-0.0285114
0.0674886
0.161896
0.250355
0.329483
0.397215
0.451961
0.493479
0.522831
0.541667
0.55227
0.557758
0.562203
0.570481
0.587808
0.619035
0.666956
0.732165
0.81446
0.912979
1.02598
1.15112
1.28591
1.42805
1.57568
1.72739
1.88212
2.039
2.19709
2.35524
2.51202
2.66583
2.81504
2.95819
3.09416
3.22217
3.34144
3.4502
3.54489
3.62184
3.67753
3.70793
3.70973
3.68132
3.62276
3.53482
3.41748
3.2691
3.09185
2.89041
2.66744
2.42531
2.16843
1.90331
1.63778
1.38004
1.13759
0.916415
0.720513
0.551836
0.410624
0.296048
0.206057
0.13804
0.0895533
0.0576793
0.0387599
0.02903
0.0248335
0.0229052
0.02066
0.0164295
0.00959802
0.000607556
-0.00918515
-0.0178444
-0.0232949
-0.0238666
-0.018367
-0.00684009
0.00796734
0.0207004
0.0255108
0.0180109
-0.00292056
-0.0341072
-0.0682487
-0.0953669
-0.105191
-0.0737753
0.0155993
0.136446
0.246425
0.306135
0.295872
0.222894
0.117029
0.0176485
-0.0421869
-0.0569911
-0.0463912
-0.0206047
0.0110494
0.0394978
0.0582076
0.0647146
0.0609014
0.0519062
0.0440189
0.0423183
0.0486161
0.0608088
0.07567
0.0898427
0.100139
0.104219
0.100918
0.0902376
0.0731325
0.051407
0.0272999
0.00303153
-0.0190823
-0.036797
-0.0482606
-0.0517302
-0.0456488
-0.0311962
-0.0135911
0.0013268
0.00944457
0.0102536
0.00726614
0.00657237
0.0140406
0.0324125
0.0595327
0.089357
0.114043
0.126981
0.125194
0.110131
0.0866845
0.0610549
0.0385257
0.0208836
0.00812917
0.000165367
-0.00334234
-0.00244398
0.00338464
0.0151835
0.0341076
0.0608166
0.0962738
0.138722
0.182898
0.222491
0.252032
0.268608
0.272701
0.267846
0.259302
0.252362
0.250656
0.255277
0.266532
0.285048
0.311683
0.347823
0.395358
0.456312
0.532228
0.623503
0.728588
0.844313
0.966265
1.08915
1.2074
1.31596
1.41075
1.48891
1.54873
1.58913
1.60941
1.60875
1.58597
1.53964
1.46842
1.37173
1.2504
1.10719
0.947055
0.776281
0.603884
0.439892
0.294429
0.175753
0.0881892
0.0322252
0.00476706
0
0.0116203
0.0315039
0.0538325
0.0750137
0.0913747
0.279879
1.30175
3.35667
6.18084
9.08506
11.2419
12.0676
11.4668
9.80298
7.65179
5.52806
3.74373
2.41468
1.52638
0.983281
0.758867
0.59681
0.451862
0.329421
0.236511
0.179273
0.153324
0.147251
0.148609
0.147496
0.13915
0.124709
0.109955
0.102635
0.109385
0.131113
0.164988
0.208894
0.257919
0.304898
0.342918
0.367352
0.377212
0.375795
0.370308
0.370351
0.385508
0.422727
0.483337
0.562044
0.652349
0.749662
0.849501
0.948225
1.04337
1.13359
1.21833
1.29755
1.37186
1.44247
1.51141
1.58159
1.65664
1.74035
1.83605
1.94587
2.06993
2.20673
2.35424
2.50995
2.67116
2.83516
2.99923
3.1606
3.31593
3.4613
3.59324
3.70886
3.80639
3.88552
3.94718
3.99311
4.02407
4.0391
4.03703
4.0148
3.96821
3.89311
3.78636
3.64649
3.47386
3.2706
3.04236
2.79718
2.54104
2.28001
2.02077
1.77011
1.53419
1.31785
1.12405
0.953564
0.805193
0.676277
0.563543
0.464016
0.376205
0.301146
0.241224
0.199714
0.180008
0.184079
0.21587
0.27355
0.345207
0.416297
0.473326
0.507008
0.513898
0.496279
0.460677
0.415763
0.370332
0.330575
0.299762
0.279267
0.269098
0.268352
0.275827
0.289713
0.307449
0.326394
0.34434
0.359788
0.372003
0.380824
0.386286
0.388184
0.385792
0.377908
0.363162
0.340603
0.310355
0.274084
0.235079
0.19786
0.167341
0.147272
0.142408
0.15634
0.183632
0.215531
0.242998
0.259798
0.264352
0.259608
0.251088
0.244041
0.240931
0.240156
0.238992
0.234016
0.222533
0.203797
0.179636
0.154293
0.133532
0.123257
0.127222
0.147585
0.186554
0.240585
0.299841
0.353143
0.390721
0.40642
0.398875
0.371494
0.331428
0.28786
0.249903
0.223238
0.209408
0.208287
0.218388
0.235363
0.253478
0.266663
0.269552
0.258337
0.231377
0.189553
0.13637
0.0775414
0.0214906
-0.0217044
-0.0429688
-0.0362719
2.64108e-005
0.0631221
0.1471
0.245111
0.351422
0.46177
0.574047
0.687097
0.799287
0.907663
1.00848
1.09822
1.17492
1.2389
1.29278
1.34052
1.38616
1.43258
1.48062
1.52972
1.57826
1.62307
1.65783
1.67508
1.66712
1.62756
1.55379
1.44899
1.32255
1.18827
1.06075
0.951114
0.863968
0.795869
0.737337
0.676718
0.604551
0.516701
0.415042
0.305962
0.197076
0.0942069
0
0.574815
1.70696
3.4119
5.6025
7.9602
9.98823
11.195
11.3067
10.3814
8.76148
6.90207
5.17854
3.77606
2.70208
1.88741
1.4324
1.24605
1.07505
0.918006
0.77478
0.645235
0.529345
0.427429
0.340524
0.270261
0.21801
0.185159
0.172527
0.179857
0.205534
0.246659
0.299462
0.359991
0.424865
0.491758
0.559729
0.628815
0.699502
0.772182
0.846773
0.922319
0.996986
1.06839
1.13402
1.19167
1.23849
1.27386
1.29891
1.31653
1.33137
1.3495
1.3776
1.42176
1.48621
1.5725
1.67637
1.79445
1.92349
2.06026
2.20219
2.34787
2.49674
2.6489
2.80465
2.96414
3.12704
3.29232
3.45816
3.62202
3.78076
3.93082
4.06899
4.19285
4.30104
4.39335
4.47036
4.53249
4.57728
4.60024
4.59718
4.56239
4.49096
4.3814
4.23742
4.06792
3.885
3.70053
3.52207
3.34992
3.18223
3.01492
2.8426
2.66007
2.46385
2.25334
2.03147
1.8045
1.58145
1.373
1.18906
1.03683
0.925306
0.858605
0.827886
0.820915
0.825772
0.833833
0.841119
0.84781
0.856456
0.869841
0.888769
0.911953
0.937843
0.964581
0.989929
1.0114
1.02678
1.03432
1.033
1.02278
1.00469
0.980894
0.954387
0.928616
0.906905
0.891663
0.88422
0.884921
0.893015
0.906838
0.923268
0.937386
0.94429
0.940416
0.924609
0.898704
0.86733
0.836884
0.813965
0.803769
0.807004
0.822691
0.849283
0.883982
0.923215
0.963194
0.999847
1.02948
1.0491
1.05668
1.05134
1.03342
1.00427
0.965955
0.92085
0.871497
0.820245
0.769122
0.72042
0.676875
0.641264
0.616223
0.603753
0.604698
0.618399
0.642677
0.674192
0.709089
0.74375
0.775571
0.80329
0.826593
0.845525
0.860379
0.871324
0.878227
0.880675
0.878065
0.869885
0.856035
0.837047
0.814144
0.789097
0.763909
0.740428
0.719961
0.70317
0.690002
0.679809
0.67158
0.664204
0.656722
0.64855
0.639658
0.630715
0.623178
0.619297
0.621986
0.635613
0.671076
0.751438
0.87848
1.01709
1.11771
1.13736
1.06023
0.907131
0.729471
0.590834
0.54352
0.573004
0.64234
0.737895
0.852781
0.979482
1.11098
1.24173
1.36815
1.48769
1.59831
1.6976
1.78205
1.84702
1.88766
1.89894
1.87774
1.82485
1.74603
1.65131
1.55264
1.46047
1.3796
1.30804
1.24156
1.17327
1.09563
1.00242
0.888741
0.749676
0.588335
0.415803
0.249107
0.108354
0.00323029
-0.0603676
-0.0782367
-0.0528601
0
0.725195
2.09308
4.16056
6.722
9.27525
11.1784
11.9379
11.4435
9.98536
8.06286
6.13566
4.47294
3.14701
2.11449
1.3086
1.03637
0.859712
0.704769
0.572895
0.463029
0.372318
0.296936
0.232956
0.177105
0.127337
0.0833887
0.047895
0.0250968
0.019781
0.0360271
0.0752934
0.135082
0.209563
0.288854
0.362912
0.424559
0.471479
0.506362
0.535216
0.564687
0.599552
0.640172
0.684929
0.732149
0.78
0.826951
0.872127
0.915427
0.957467
0.999461
1.04314
1.09068
1.14459
1.20762
1.2824
1.37106
1.4748
1.59358
1.72588
1.86912
2.02039
2.17666
2.33513
2.49341
2.64951
2.80175
2.94873
3.08953
3.22386
3.3523
3.47635
3.59827
3.72102
3.84874
3.98689
4.14213
4.31358
4.47957
4.60929
4.66651
4.6211
4.46639
4.22801
3.95247
3.67963
3.42058
3.16292
2.90417
2.64522
2.38827
2.13706
1.89636
1.67121
1.46626
1.28517
1.13034
1.00274
0.902963
0.834662
0.80158
0.795919
0.803492
0.809854
0.803896
0.780626
0.741755
0.693791
0.644711
0.600974
0.564613
0.534999
0.512852
0.498782
0.493207
0.497399
0.511634
0.530388
0.546109
0.552008
0.545293
0.529162
0.512436
0.506784
0.522712
0.570122
0.656437
0.764396
0.864609
0.929086
0.940118
0.895132
0.806885
0.699425
0.601273
0.537989
0.515117
0.523006
0.566469
0.651629
0.76118
0.866597
0.940084
0.962976
0.931824
0.85969
0.7718
0.696762
0.656356
0.649099
0.66107
0.685446
0.711267
0.727134
0.724489
0.699996
0.656709
0.603558
0.553086
0.51805
0.508016
0.523491
0.558501
0.610527
0.676915
0.755103
0.843615
0.944558
1.05934
1.17581
1.26958
1.31062
1.27457
1.1543
0.96615
0.747513
0.546438
0.406571
0.330246
0.321227
0.368552
0.450989
0.544783
0.631924
0.707967
0.777911
0.845895
0.917273
0.998309
1.08306
1.15637
1.2012
1.20776
1.17925
1.13129
1.08518
1.05871
1.05715
1.06982
1.08928
1.10656
1.11391
1.10707
1.08622
1.05571
1.02251
0.99417
0.97634
0.970925
0.977274
0.993926
1.01964
1.05288
1.09197
1.13551
1.18212
1.23076
1.28139
1.3354
1.39569
1.46641
1.55224
1.65861
1.80115
1.99134
2.21058
2.41708
2.57119
2.64691
2.6368
2.55197
2.41846
2.26883
2.12957
2.00852
1.89547
1.78237
1.66646
1.54651
1.42321
1.29875
1.176
1.05738
0.943806
0.834942
0.729198
0.624496
0.517886
0.407697
0.296574
0.189307
0.0899608
0
0.446658
1.43854
3.04595
5.24057
7.75835
10.1103
11.7378
12.2508
11.6012
10.0724
8.09386
6.02504
4.068
2.33663
0.962944
0.107194
0.20628
0.31204
0.414519
0.487357
0.504168
0.457646
0.366922
0.268992
0.200846
0.183057
0.195899
0.224036
0.257868
0.286551
0.302189
0.302099
0.289863
0.27472
0.269187
0.28544
0.331534
0.40605
0.500375
0.609187
0.720521
0.818729
0.890895
0.929552
0.934384
0.912709
0.87843
0.849326
0.843117
0.877187
0.997758
1.18093
1.36646
1.48997
1.51201
1.43785
1.31775
1.2252
1.22219
1.33018
1.48715
1.6602
1.83865
2.01693
2.19208
2.36384
2.53414
2.70607
2.88261
3.06547
3.25472
3.448
3.63664
3.8101
3.95923
4.07889
4.16901
4.23368
4.27864
4.30628
4.31698
4.30591
4.26484
4.1852
4.06112
3.89123
3.67895
3.4316
3.15985
2.87751
2.59377
2.31551
2.04902
1.79967
1.57161
1.36761
1.18907
1.03631
0.908889
0.806077
0.727139
0.672081
0.645391
0.663433
0.744928
0.85885
0.958006
0.992696
0.930692
0.773472
0.558959
0.348012
0.200964
0.1485
0.147748
0.192352
0.27283
0.3763
0.488631
0.597165
0.693309
0.770968
0.827273
0.862479
0.879226
0.88136
0.872671
0.855995
0.83351
0.80642
0.775597
0.742484
0.709316
0.678884
0.653932
0.636481
0.627686
0.626254
0.628561
0.630137
0.627052
0.617191
0.60103
0.581703
0.564368
0.555065
0.559181
0.582761
0.637556
0.723717
0.815842
0.882179
0.896786
0.851613
0.762571
0.664653
0.59648
0.581635
0.608421
0.652069
0.700108
0.742708
0.775746
0.801202
0.82484
0.852964
0.887794
0.922051
0.942451
0.936331
0.898318
0.8337
0.757068
0.687082
0.639804
0.617258
0.612805
0.621332
0.639051
0.661563
0.684665
0.70504
0.720537
0.730278
0.734565
0.734657
0.732463
0.730164
0.729832
0.733102
0.740996
0.753609
0.769927
0.788071
0.805652
0.820356
0.830526
0.835539
0.835934
0.833211
0.829392
0.826433
0.825685
0.827727
0.831959
0.83705
0.841562
0.844535
0.845811
0.845982
0.846011
0.846743
0.848522
0.851041
0.85377
0.85622
0.858212
0.860059
0.86257
0.866899
0.874244
0.885627
0.902039
0.924614
0.954336
0.992477
1.04107
1.10306
1.18208
1.2819
1.40541
1.55371
1.73392
1.94837
2.17833
2.39057
2.55479
2.65159
2.67626
2.63843
2.55803
2.45808
2.35612
2.2574
2.15633
2.04807
1.92925
1.7985
1.65788
1.51237
1.36825
1.23094
1.10262
0.982605
0.867271
0.751159
0.627568
0.489812
0.336601
0.17111
0
0.26938
1.1701
2.81599
5.16226
7.8901
10.4215
12.1147
12.5547
11.7459
10.0619
8.00082
5.9494
4.11347
2.59729
1.4912
0.862518
0.828936
0.797866
0.766101
0.732764
0.697996
0.663546
0.632532
0.608837
0.596362
0.598414
0.617393
0.654715
0.710786
0.784301
0.871672
0.96971
1.07482
1.18112
1.28202
1.37164
1.44571
1.50215
1.54093
1.56354
1.57222
1.56942
1.5583
1.54153
1.52248
1.50558
1.49645
1.50112
1.52515
1.57248
1.64468
1.7405
1.85627
1.98671
2.12611
2.26914
2.41237
2.55388
2.69287
2.82924
2.96322
3.09494
3.22432
3.35113
3.47518
3.59654
3.71565
3.83323
3.95003
4.06656
4.18278
4.29805
4.41113
4.5205
4.62453
4.72163
4.80954
4.88432
4.94125
4.97638
4.98518
4.96345
4.90843
4.81932
4.6971
4.5436
4.36061
4.15255
3.92555
3.68281
3.42687
3.16145
2.89141
2.62243
2.36044
2.11108
1.87927
1.66893
1.48299
1.32349
1.19159
1.08873
1.0193
0.988206
0.992269
1.01891
1.05244
1.07686
1.07851
1.04845
0.983938
0.889299
0.775644
0.659499
0.559683
0.492702
0.493761
0.633024
0.858162
1.08065
1.21608
1.2214
1.11214
0.95039
0.809522
0.73594
0.72059
0.721321
0.724308
0.722206
0.710892
0.690308
0.664308
0.639575
0.623855
0.624939
0.655722
0.7192
0.798727
0.870895
0.913737
0.913685
0.868992
0.789227
0.691924
0.597965
0.525549
0.480362
0.460372
0.462481
0.484627
0.525001
0.580583
0.64724
0.717889
0.781192
0.825422
0.840534
0.820202
0.763815
0.677473
0.573247
0.466708
0.373509
0.302928
0.25443
0.229111
0.227042
0.246003
0.281781
0.329864
0.383157
0.434926
0.480001
0.515609
0.541565
0.559679
0.572606
0.582533
0.590092
0.594295
0.593071
0.584654
0.568939
0.548168
0.526623
0.509404
0.500807
0.502011
0.512005
0.528394
0.547521
0.56545
0.578943
0.586196
0.587185
0.583567
0.578185
0.574237
0.57433
0.581095
0.595179
0.614022
0.634251
0.653622
0.67246
0.693794
0.722073
0.76114
0.812602
0.873926
0.942988
1.01802
1.09825
1.18397
1.27583
1.37369
1.47575
1.57832
1.67708
1.76779
1.84719
1.91341
1.96577
2.00316
2.02429
2.0268
2.00699
1.9607
1.88465
1.77792
1.64292
1.48566
1.315
1.14131
0.973351
0.816807
0.676304
0.552913
0.445289
0.350679
0.268127
0.195457
0.131715
0.0773057
0.0331573
0
0.46562
1.41781
2.89312
4.921
7.31271
9.64577
11.3986
12.161
11.7905
10.4355
8.44041
6.20432
4.07239
2.29164
1.01071
0.284873
0.244222
0.201059
0.155818
0.107869
0.0578641
0.00933356
-0.0318868
-0.0590984
-0.0665723
-0.0511463
-0.0130386
0.0443041
0.115117
0.192562
0.269898
0.342484
0.406552
0.459465
0.499823
0.527499
0.543613
0.550424
0.551145
0.549723
0.550579
0.558024
0.57624
0.608812
0.658192
0.725191
0.808722
0.908592
1.0186
1.13102
1.23901
1.33827
1.4279
1.51008
1.58873
1.66786
1.75025
1.83628
1.92551
2.01751
2.11205
2.20944
2.31058
2.41685
2.52971
2.65038
2.77945
2.91672
3.06102
3.21022
3.36131
3.51059
3.6536
3.78588
3.9033
4.0024
4.08056
4.13586
4.16711
4.1735
4.15422
4.1083
4.0346
3.93197
3.79966
3.63775
3.44761
3.23289
2.9987
2.75088
2.49585
2.24035
1.99085
1.75302
1.53146
1.3295
1.14922
0.991537
0.856435
0.743455
0.65098
0.576219
0.515938
0.466824
0.42586
0.390651
0.359639
0.33216
0.308369
0.289142
0.275633
0.269004
0.270077
0.279045
0.295309
0.317494
0.34365
0.371574
0.399169
0.424798
0.447317
0.465889
0.479857
0.488489
0.490743
0.485573
0.472389
0.451384
0.424013
0.393256
0.363469
0.339793
0.327196
0.332129
0.360023
0.40984
0.472319
0.533887
0.580801
0.60194
0.590556
0.545051
0.46907
0.37102
0.26288
0.158099
0.0680473
-0.0012465
-0.0499393
-0.0746938
-0.0560523
0.0616651
0.314935
0.653095
0.963113
1.09428
0.951753
0.571529
0.114635
-0.211836
-0.254262
-0.13698
-0.00238829
0.125686
0.233483
0.312142
0.358788
0.376268
0.371721
0.354414
0.33349
0.315769
0.304473
0.300534
0.303508
0.312154
0.324748
0.339244
0.35346
0.365216
0.372402
0.373262
0.366683
0.352411
0.331274
0.305253
0.277294
0.250843
0.229145
0.215604
0.212639
0.218017
0.22595
0.230085
0.226207
0.214223
0.198523
0.186467
0.185536
0.20073
0.23478
0.278625
0.318612
0.342363
0.344185
0.327605
0.303986
0.287982
0.291977
0.319189
0.363255
0.418732
0.482378
0.551814
0.625627
0.703684
0.787024
0.877396
0.976601
1.08767
1.21438
1.35317
1.48941
1.6055
1.6858
1.72044
1.70669
1.64795
1.55136
1.4258
1.28171
1.13036
0.979296
0.833647
0.696877
0.570781
0.456237
0.353603
0.262599
0.18296
0.114809
0.0588366
0.0159857
-0.0129031
-0.0273611
-0.0281538
-0.0178413
0
0.533171
1.46286
2.87794
4.78855
7.01153
9.1344
10.6266
11.0635
10.3224
8.62375
6.4117
4.16947
2.27098
0.911331
0.103538
-0.193768
-0.219768
-0.2356
-0.238854
-0.227598
-0.199204
-0.147657
-0.0654554
0.0377101
0.137821
0.20855
0.230448
0.198883
0.126478
0.0384991
-0.0365594
-0.0766253
-0.0830552
-0.0674529
-0.0361693
0.00763259
0.0613555
0.122552
0.189104
0.259278
0.331641
0.404902
0.477777
0.548882
0.616759
0.680227
0.738642
0.792202
0.84213
0.890643
0.940674
0.99542
1.05781
1.13002
1.21303
1.30675
1.41038
1.52259
1.64163
1.76563
1.89278
2.02152
2.15071
2.27981
2.40896
2.53888
2.67069
2.80544
2.94365
3.08481
3.22724
3.36719
3.49914
3.61777
3.71967
3.80468
3.87632
3.94088
4.00549
4.07996
4.1568
4.21121
4.21124
4.1323
3.96814
3.73297
3.45425
3.16019
2.86857
2.58194
2.29953
2.02205
1.75135
1.49077
1.24511
1.02003
0.822037
0.660658
0.548896
0.492072
0.470301
0.457619
0.429842
0.372005
0.282789
0.174186
0.0661932
-0.0215695
-0.0778217
-0.11145
-0.128385
-0.135879
-0.139995
-0.143428
-0.145122
-0.141651
-0.129513
-0.107515
-0.0789004
-0.0461335
-0.0124008
0.0190292
0.0456631
0.0662956
0.0811111
0.0914173
0.0991084
0.106011
0.113326
0.121155
0.128168
0.132162
0.130907
0.12294
0.108016
0.0870788
0.0618745
0.0344876
0.00706041
-0.0186205
-0.0407009
-0.057119
-0.0657166
-0.0645053
-0.0520531
-0.0270406
0.0112438
0.0612086
0.115317
0.162073
0.190382
0.19264
0.167232
0.11954
0.0608815
0.00545988
-0.0338652
-0.0518063
-0.0455147
-0.0220067
0.00516994
0.0216456
0.0173677
-0.00999808
-0.0547271
-0.105826
-0.151668
-0.184357
-0.204795
-0.216796
-0.222287
-0.222717
-0.218133
-0.206919
-0.18628
-0.15328
-0.106063
-0.0443987
0.0309027
0.113352
0.192834
0.258774
0.302298
0.31794
0.304641
0.265986
0.20968
0.146234
0.0868935
0.0406065
0.0117343
-1.6737e-005
0.00445004
0.0204006
0.0423071
0.0657577
0.0887494
0.111907
0.137644
0.168753
0.207106
0.252141
0.302329
0.356709
0.41457
0.475724
0.540599
0.610086
0.685229
0.766839
0.855172
0.950273
1.05188
1.15844
1.26504
1.36291
1.44133
1.48911
1.49643
1.45694
1.3695
1.2393
1.07778
0.901114
0.727007
0.568245
0.428701
0.307295
0.203864
0.116012
0.0399206
-0.0286656
-0.0935529
-0.157496
-0.222116
-0.287879
-0.354539
-0.421647
-0.488868
0
1.15882
3.11102
5.70727
8.47101
10.7126
11.8107
11.5146
10.0606
8.00834
5.91955
4.11994
2.68462
1.5813
0.79562
0.560563
0.40096
0.251736
0.113429
-0.0111025
-0.117614
-0.202745
-0.262728
-0.295103
-0.300223
-0.281739
-0.245827
-0.199546
-0.149176
-0.0992833
-0.0528433
-0.0134138
0.0160251
0.0325372
0.034478
0.0232409
0.00440333
-0.0126579
-0.0169068
0.00110059
0.0447441
0.107812
0.186537
0.273641
0.360299
0.439235
0.506648
0.563127
0.613313
0.664439
0.724151
0.798228
0.893165
1.01034
1.1329
1.2401
1.31657
1.35979
1.38248
1.40834
1.46284
1.56315
1.70501
1.86871
2.04298
2.22013
2.39373
2.55982
2.7173
2.86754
3.01351
3.15849
3.30491
3.4538
3.60386
3.75098
3.88731
4.00125
4.08342
4.12586
4.12251
4.06974
3.9665
3.81398
3.61474
3.3718
3.08996
2.78125
2.45541
2.11879
1.77741
1.43848
1.11012
0.800736
0.518356
0.272024
0.0778729
-0.0302567
-0.0125512
0.0966809
0.228661
0.318727
0.322932
0.2303
0.0660515
-0.117648
-0.260933
-0.318619
-0.311422
-0.273474
-0.219736
-0.156854
-0.0923364
-0.0326107
0.0179295
0.0574465
0.0866258
0.108083
0.125339
0.141608
0.158712
0.176218
0.189622
0.191301
0.173048
0.129112
0.0588386
-0.0319819
-0.131516
-0.223961
-0.28277
-0.217218
-0.00446281
0.262143
0.462727
0.506768
0.378008
0.148247
-0.0561231
-0.12652
-0.0448183
0.0691386
0.167856
0.221893
0.22189
0.17943
0.118639
0.0638476
0.0304855
0.014831
0.0105384
0.0167564
0.0324092
0.0562456
0.086826
0.121808
0.157602
0.190038
0.215275
0.23082
0.236287
0.233593
0.226459
0.21932
0.215967
0.218947
0.227874
0.238902
0.246911
0.247834
0.240662
0.228279
0.216756
0.213341
0.223887
0.250456
0.293456
0.344462
0.390585
0.419475
0.423341
0.40147
0.36046
0.312162
0.269983
0.244799
0.23885
0.247474
0.267228
0.293831
0.322901
0.351155
0.37713
0.401233
0.425097
0.450571
0.478779
0.508003
0.533712
0.550047
0.551923
0.53704
0.507129
0.468088
0.429037
0.400555
0.390981
0.403977
0.439715
0.496413
0.571353
0.660681
0.759601
0.863265
0.967602
1.06993
1.16915
1.26541
1.35928
1.45136
1.53955
1.61604
1.66903
1.68766
1.66702
1.61063
1.52897
1.43504
1.33909
1.2449
1.15095
1.05498
0.95474
0.847878
0.731506
0.602373
0.462366
0.322943
0.19807
0.0998083
0.0348687
0.00335424
0
0.0168553
0.0456514
0.177959
0.729607
1.9484
3.95906
6.58344
9.29253
11.3632
12.1909
11.5679
9.75414
7.31727
4.87183
2.86913
1.50757
0.749817
0.410793
0.340439
0.280586
0.228717
0.187568
0.158832
0.143001
0.139657
0.14734
0.163686
0.186188
0.212605
0.241211
0.270839
0.300752
0.330479
0.359708
0.388299
0.416316
0.444103
0.472282
0.501637
0.532916
0.566639
0.602876
0.641458
0.682101
0.724493
0.7685
0.814357
0.862702
0.914473
0.9707
1.03226
1.0997
1.17317
1.25241
1.33708
1.42701
1.52215
1.62261
1.72845
1.83959
1.95564
2.07591
2.19944
2.32517
2.45209
2.5793
2.7062
2.83254
2.95854
3.08509
3.21379
3.347
3.48758
3.63854
3.80337
3.99144
4.21246
4.45286
4.67895
4.85608
4.96008
4.98275
4.93043
4.81773
4.65985
4.4668
4.24516
4.00228
3.74495
3.47828
3.20602
2.93154
2.65832
2.39005
2.13052
1.88358
1.65297
1.4422
1.25424
1.09137
0.955877
0.848944
0.768186
0.709181
0.66684
0.636399
0.614235
0.598252
0.587735
0.582787
0.583602
0.590095
0.601246
0.615575
0.631735
0.649078
0.667908
0.689244
0.714174
0.743075
0.775024
0.807855
0.838759
0.865091
0.885364
0.900032
0.91182
0.925472
0.948122
1.00061
1.11868
1.28124
1.43687
1.5261
1.51078
1.39408
1.21982
1.05185
0.944329
0.912934
0.915402
0.930188
0.949971
0.969769
0.986382
0.998609
1.00696
1.01305
1.01877
1.02557
1.03413
1.04406
1.05399
1.06183
1.0651
1.06112
1.04792
1.02449
0.991156
0.949841
0.904032
0.858498
0.818685
0.78987
0.775984
0.778969
0.802834
0.848642
0.906448
0.96195
1.00214
1.01922
1.01271
0.9888
0.957095
0.926247
0.900363
0.877241
0.853316
0.825112
0.790536
0.749919
0.706075
0.663394
0.62635
0.597638
0.5787
0.568459
177
413
648
879
1118
1350
1593
1830
2078
2331
2592
2839
3087
3325
3571
3124
3301
3476
3652
3678
3624
3512
3699
3512
3660
3631
0
0
0
0
0
0
0
0
0
0
0
0
0
0
0
0
0
0
0
0
0
0
0
0
0
0
0
0
0
0
0
0
0
0
0
0
0
0
0
0
0
0
0
0
0
0
0
0
0
0
0
0
0
0
0
0
0
0
0
0
0
0
0
0
0
0
0
0
0
0
0
0
0
0
0
0
0
0
0
0
0
0
0
0
0
0
0
0
0
0
0
0
0
0
0
0
0
0
0
0
0
0
0
0
0
0
0
0
0
0
0
0
0
0
0
0
0
0
0
0
0
0
0
0
0
0
0
0
0
0
0
0
0
0
0
0
0
0
0
0
0
0
0
0
0
0
0
0
0
0
0
0
0
0
0
0
0
0
0
0
0
0
0
0
0
0
0
0
0
0
0
0
0
0
0
0
0
0
0
0
0
0
0
0
0
0
0
0
0
0
0
0
0
0
0
0
0
0
0
0
0
0
0
0
0
0
0
0
0
0
0
0
0
0
0
0
0
0
0
0
0
0
0
0
0
0
0
0
0
0
0
0
0
0
0
0
0
0
0
0
0
0
0
0
0
0
0
0
0
0
0
0
0
0
0
0
0
0
0
0
0
0
0
0
0
0
0
0
0
0
0
0
0
0
0
0
0
0
0
0
0
0
0
0
0
0
0
0
0
0
0
0
0
0
0
0
0
0
0
0
0
0
0
0
0
0
0
0
0
0
0
0
0
0
0
0
0
0
0
0
0
0
0
0
0
0
0
0
0
0
0
0
0
0
0
0
0
0
0
0
0
0
0
0
0
0
0
0
0
0
0
0
0
0
0
0
0
0
0
0
0
0
0
0
0
0
0
0
0
0
0
0
0
0
0
0
0
0
0
0
0
0
0
0
0
0
0
0
0
0
0
0
0
0
0
0
0
0
0
0
0
0
0
0
0
0
0
0
0
0
0
0
0
0
0
0
0
0
0
0
0
0
0
0
0
0
0
0
0
0
0
0
0
0
0
0
0
0
0
0
0
0
0
0
0
0
0
0
0
0
0
0
0
0
0
0
0
0
0
0
0
0
0
0
0
0
0
0
0
0
0
0
0
0
0
0
0
0
0
0
0
0
0
0
0
0
0
0
0
0
0
0
0
0
0
0
0
0
0
0
0
0
0
0
0
0
0
0
0
0
0
0
0
0
0
0
0
0
0
0
0
0
0
0
0
0
0
0
0
0
0
0
0
0
0
0
0
0
0
0
0
0
0
0
0
0
0
0
0
0
0
0
0
0
0
0
0
0
0
0
0
0
0
0
0
0
0
0
0
0
0
0
0
0
0
0
0
0
0
0
0
0
0
0
0
0
0
0
0
0
0
0
0
0
0
0
0
0
0
0
0
0
0
0
0
0
0
0
0
0
0
0
0
0
0
0
0
0
0
0
0
0
0
0
0
0
0
0
0
0
0
0
0
0
0
0
0
0
0
0
0
0
0
0
0
0
0
0
0
0
0
0
0
0
0
0
0
0
0
0
0
0
0
0
0
0
0
0
0
0
0
0
0
0
0
0
0
0
0
0
0
0
0
0
0
0
0
0
0
0
0
0
0
0
0
0
0
0
0
0
0
0
0
0
0
0
0
0
0
0
0
0
0
0
0
0
0
0
0
0
0
0
0
0
0
0
0
0
0
0
0
0
0
0
0
0
0
0
0
0
0
0
0
0
0
0
0
0
0
0
0
0
0
0
0
0
0
0
0
0
0
0
0
0
0
0
0
0
0
0
0
0
0
0
0
0
0
0
0
0
0
0
0
0
0
0
0
0
0
0
0
0
0
0
0
0
0
0
0
0
0
0
0
0
0
0
0
0
0
0
0
0
0
0
0
0
0
0
0
0
0
0
0
0
0
0
0
0
0
0
0
0
0
0
0
0
0
0
0
0
0
0
0
0
0
0
0
0
0
0
0
0
0
0
0
0
0
0
0
0
0
0
0
0
0
0
0
0
0
0
0
0
0
0
0
0
0
0
0
0
0
0
0
0
0
0
0
0
0
0
0
0
0
0
0
0
0
0
0
0
0
0
0
0
0
0
0
0
0
0
0
0
0
0
0
0
0
0
0
0
0
0
0
0
0
0
0
0
0
0
0
0
0
0
0
0
0
0
0
0
0
0
0
0
0
0
0
0
0
0
0
0
0
0
0
0
0
0
0
0
0
0
0
0
0
0
0
0
0
0
0
0
0
0
0
0
0
0
0
0
0
0
0
0
0
0
0
0
0
0
0
0
0
0
0
0
0
0
0
0
0
0
0
0
0
0
0
0
0
0
0
0
0
0
0
0
0
0
0
0
0
0
0
0
0
0
0
0
0
0
0
0
0
0
0
0
0
0
0
0
0
0
0
0
0
0
0
0
0
0
0
0
0
0
0
0
0
0
0
0
0
0
0
0
0
0
0
0
0
0
0
0
0
0
0
0
0
0
0
0
0
0
0
0
0
0
0
0
0
0
0
0
0
0
0
0
0
0
0
0
0
0
0
0
0
0
0
0
0
0
0
0
0
0
0
0
0
0
0
0
0
0
0
0
0
0
0
0
0
0
0
0
0
0
0
0
0
0
0
0
0
0
0
0
0
0
0
0
0
0
0
0
0
0
0
0
0
0
0
0
0
0
0
0
0
0
0
0
0
0
0
0
0
0
0
0
0
0
0
0
0
0
0
0
0
0
0
0
0
0
0
0
0
0
0
0
0
0
0
0
0
0
0
0
0
0
0
0
0
0
0
0
0
0
0
0
0
0
0
0
0
0
0
0
0
0
0
0
0
0
0
0
0
0
0
0
0
0
0
0
0
0
0
0
0
0
0
0
0
0
0
0
0
0
0
0
0
0
0
0
0
0
0
0
0
0
0
0
0
0
0
0
0
0
0
0
0
0
0
0
0
0
0
0
0
0
0
0
0
0
0
0
0
0
0
0
0
0
0
0
0
0
0
0
0
0
0
0
0
0
0
0
0
0
0
0
0
0
0
0
0
0
0
0
0
0
0
0
0
0
0
0
0
0
0
0
0
0
0
0
0
0
0
0
0
0
0
0
0
0
0
0
0
0
0
0
0
0
0
0
0
0
0
0
0
0
0
0
0
0
0
0
0
0
0
0
0
0
0
0
0
0
0
0
0
0
0
0
0
0
0
0
0
0
0
0
0
0
0
0
0
0
0
0
0
0
0
0
0
0
0
0
0
0
0
0
0
0
0
0
0
0
0
0
0
0
0
0
0
0
0
0
0
0
0
0
0
0
0
0
0
0
0
0
0
0
0
0
0
0
0
0
0
0
0
0
0
0
0
0
0
0
0
0
0
0
0
0
0
0
0
0
0
0
0
0
0
0
0
0
0
0
0
0
0
0
0
0
0
0
0
0
0
0
0
0
0
0
0
0
0
0
0
0
0
0
0
0
0
0
0
0
0
0
0
0
0
0
0
0
0
0
0
0
0
0
0
0
0
0
0
0
0
0
0
0
0
0
0
0
0
0
0
0
0
0
0
0
0
0
0
0
0
0
0
0
0
0
0
0
0
0
0
0
0
0
0
0
0
0
0
0
0
0
0
0
0
0
0
0
0
0
0
0
0
0
0
0
0
0
0
0
0
0
0
0
0
0
0
0
0
0
0
0
0
0
0
0
0
0
0
0
0
0
0
0
0
0
0
0
0
0
0
0
0
0
0
0
0
0
0
0
0
0
0
0
0
0
0
0
0
0
0
0
0
0
0
0
0
0
0
0
0
0
0
0
0
0
0
0
0
0
0
0
0
0
0
0
0
0
0
0
0
0
0
0
0
0
0
0
0
0
0
0
0
0
0
0
0
0
0
0
0
0
0
0
0
0
0
0
0
0
0
0
0
0
0
0
0
0
0
0
0
0
0
0
0
0
0
0
0
0
0
0
0
0
0
0
0
0
0
0
0
0
0
0
0
0
0
0
0
0
0
0
0
0
0
0
0
0
0
0
0
0
0
0
0
0
0
0
0
0
0
0
0
0
0
0
0
0
0
0
0
0
0
0
0
0
0
0
0
0
0
0
0
0
0
0
0
0
0
0
0
0
0
0
0
0
0
0
0
0
0
0
0
0
0
0
0
0
0
0
0
0
0
0
0
0
0
0
0
0
0
0
0
0
0
0
0
0
0
0
0
0
0
0
0
0
0
0
0
0
0
0
0
0
0
0
0
0
0
0
0
0
0
0
0
0
0
0
0
0
0
0
0
0
0
0
0
0
0
0
0
0
0
0
0
0
0
0
0
0
0
0
0
0
0
0
0
0
0
0
0
0
0
0
0
0
0
0
0
0
0
0
0
0
0
0
0
0
0
0
0
0
0
0
0
0
0
0
0
0
0
0
0
0
0
0
0
0
0
0
0
0
0
0
0
0
0
0
0
0
0
0
0
0
0
0
0
0
0
0
0
0
0
0
0
0
0
0
0
0
0
0
0
0
0
0
0
0
0
0
0
0
0
0
0
0
0
0
0
0
0
0
0
0
0
0
0
0
0
0
0
0
0
0
0
0
0
0
0
0
0
0
0
0
0
0
0
0
0
0
0
0
0
0
0
0
0
0
0
0
0
0
0
0
0
0
0
0
0
0
0
0
0
0
0
0
0
0
0
0
0
0
0
0
0
0
0
0
0
0
0
0
0
0
0
0
0
0
0
0
0
0
0
0
0
0
0
0
0
0
0
0
0
0
0
0
0
0
0
0
0
0
0
0
0
0
0
0
0
0
0
0
0
0
0
0
0
0
0
0
0
0
0
0
0
0
0
0
0
0
0
0
0
0
0
0
0
0
0
0
0
0
0
0
0
0
0
0
0
0
0
0
0
0
0
0
0
0
0
0
0
0
0
0
0
0
0
0
0
0
0
0
0
0
0
0
0
0
0
0
0
0
0
0
0
0
0
0
0
0
0
0
0
0
0
0
0
0
0
0
0
0
0
0
0
0
0
0
0
0
0
0
0
0
0
0
0
0
0
0
0
0
0
0
0
0
0
0
0
0
0
0
0
0
0
0
0
0
0
0
0
0
0
0
0
0
0
0
0
0
0
0
0
0
0
0
0
0
0
0
0
0
0
0
0
0
0
0
0
0
0
0
0
0
0
0
0
0
0
0
0
0
0
0
0
0
0
0
0
0
0
0
0
0
0
0
0
0
0
0
0
0
0
0
0
0
0
0
0
0
0
0
0
0
0
0
0
0
0
0
0
0
0
0
0
0
0
0
0
0
0
0
0
0
0
0
0
0
0
0
0
0
0
0
0
0
0
0
0
0
0
0
0
0
0
0
0
0
0
0
0
0
0
0
0
0
0
0
0
0
0
0
0
0
0
0
0
0
0
0
0
0
0
0
0
0
0
0
0
0
0
0
0
0
0
0
0
0
0
0
0
0
0
0
0
0
0
0
0
0
0
0
0
0
0
0
0
0
0
0
0
0
0
0
0
0
0
0
0
0
0
0
0
0
0
0
0
0
0
0
0
0
0
0
0
0
0
0
0
0
0
0
0
0
0
0
0
0
0
0
0
0
0
0
0
0
0
0
0
0
0
0
0
0
0
0
0
0
0
0
0
0
0
0
0
0
0
0
0
0
0
0
0
0
0
0
0
0
0
0
0
0
0
0
0
0
0
0
0
0
0
0
0
0
0
0
0
0
0
0
0
0
0
0
0
0
0
0
0
0
0
0
0
0
0
0
0
0
0
0
0
0
0
0
0
0
0
0
0
0
0
0
0
0
0
0
0
0
0
0
0
0
0
0
0
0
0
0
0
0
0
0
0
0
0
0
0
0
0
0
0
0
0
0
0
0
0
0
0
0
0
0
0
0
0
0
0
0
0
0
0
0
0
0
0
0
0
0
0
0
0
0
0
0
0
0
0
0
0
0
0
0
0
0
0
0
0
0
0
0
0
0
0
0
0
0
0
0
0
0
0
0
0
0
0
0
0
0
0
0
0
0
0
0
0
0
0
0
0
0
0
0
0
0
0
0
0
0
0
0
0
0
0
0
0
0
0
0
0
0
0
0
0
0
0
0
0
0
0
0
0
0
0
0
0
0
0
0
0
0
0
0
0
0
0
0
0
0
0
0
0
0
0
0
0
0
0
0
0
0
0
0
0
0
0
0
0
0
0
0
0
0
0
0
0
0
0
0
0
0
0
0
0
0
0
0
0
0
0
0
0
0
0
0
0
0
0
0
0
0
0
0
0
0
0
0
0
0
0
0
0
0
0
0
0
0
0
0
0
0
0
0
0
0
0
0
0
0
0
0
0
0
0
0
0
0
0
0
0
0
0
0
0
0
0
0
0
0
0
0
0
0
0
0
0
0
0
0
0
0
0
0
0
0
0
0
0
0
0
0
0
0
0
0
0
0
0
0
0
0
0
0
0
0
0
0
0
0
0
0
0
0
0
0
0
0
0
0
0
0
0
0
0
0
0
0
0
0
0
0
0
0
0
0
0
0
0
0
0
0
0
0
0
0
0
0
0
0
0
0
0
0
0
0
0
0
0
0
0
0
0
0
0
0
0
0
0
0
0
0
0
0
0
0
0
0
0
0
0
0
0
0
0
0
0
0
0
0
0
0
0
0
0
0
0
0
0
0
0
0
0
0
0
0
0
0
0
0
0
0
0
0
0
0
0
0
0
0
0
0
0
0
0
0
0
0
0
0
0
0
0
0
0
0
0
0
0
0
0
0
0
0
0
0
0
0
0
0
0
0
0
0
0
0
0
0
0
0
0
0
0
0
0
0
0
0
0
0
0
0
0
0
0
0
0
0
0
0
0
0
0
0
0
0
0
0
0
0
0
0
0
0
0
0
0
0
0
0
0
0
0
0
0
0
0
0
0
0
0
0
0
0
0
0
0
0
0
0
0
0
0
0
0
0
0
0
0
0
0
0
0
0
0
0
0
0
0
0
0
0
0
0
0
0
0
0
0
0
0
0
0
0
0
0
0
0
0
0
0
0
0
0
0
0
0
0
0
0
0
0
0
0
0
0
0
0
0
0
0
0
0
0
0
0
0
0
0
0
0
0
0
0
0
0
0
0
0
0
0
0
0
0
0
0
0
0
0
0
0
0
0
0
0
0
0
0
0
0
0
0
0
0
0
0
0
0
0
0
0
0
0
0
0
0
0
0
0
0
0
0
0
0
0
0
0
0
0
0
0
0
0
0
0
0
0
0
0
0
0
0
0
0
0
0
0
0
0
0
0
0
0
0
0
0
0
0
0
0
0
0
0
0
0
0
0
0
0
0
0
0
0
0
0
0
0
0
0
0
0
0
0
0
0
0
0
0
0
0
0
0
0
0
0
0
0
0
0
0
0
0
0
0
0
0
0
0
0
0
0
0
0
0
0
0
0
0
0
0
0
0
0
0
0
0
0
0
0
0
0
0
0
0
0
0
0
0
0
0
0
0
0
0
0
0
0
0
0
0
0
0
0
0
0
0
0
0
0
0
0
0
0
0
0
0
0
0
0
0
0
0
0
0
0
0
0
0
0
0
0
0
0
0
0
0
0
0
0
0
0
0
0
0
0
0
0
0
0
0
0
0
0
0
0
0
0
0
0
0
0
0
0
0
0
0
0
0
0
0
0
0
0
0
0
0
0
0
0
0
0
0
0
0
0
0
0
0
0
0
0
0
0
0
0
0
0
0
0
0
0
0
0
0
0
0
0
0
0
0
0
0
0
0
0
0
0
0
0
0
0
0
0
0
0
0
0
0
0
0
0
0
0
0
0
0
0
0
0
0
0
0
0
0
0
0
0
0
0
0
0
0
0
0
0
0
0
0
0
0
0
0
0
0
0
0
0
0
0
0
0
0
0
0
0
0
0
0
0
0
0
0
0
0
0
0
0
0
0
0
0
0
0
0
0
0
0
0
0
0
0
0
0
0
0
0
0
0
0
0
0
0
0
0
0
0
0
0
0
0
0
0
0
0
0
0
0
0
0
0
0
0
0
0
0
0
0
0
0
0
0
0
0
0
0
0
0
0
0
0
0
0
0
0
0
0
0
0
0
0
0
0
0
0
0
0
0
0
0
0
0
0
0
0
0
0
0
0
0
0
0
0
0
0
0
0
0
0
0
0
0
0
0
0
0
0
0
0
0
0
0
0
0
0
0
0
0
0
0
0
0
0
0
0
0
0
0
0
0
0
0
0
0
0
0
0
0
0
0
0
0
0
0
0
0
0
0
0
0
0
0
0
0
0
0
0
0
0
0
0
0
0
0
0
0
0
0
0
0
0
0
0
0
0
0
0
0
0
0
0
0
0
0
0
0
0
0
0
0
0
0
0
0
0
0
0
0
0
0
0
0
0
0
0
0
0
0
0
0
0
0
0
0
0
0
0
0
0
0
0
0
0
0
0
0
0
0
0
0
0
0
0
0
0
0
0
0
0
0
0
0
0
0
0
0
0
0
