1.1741
1.81122
2.35309
2.57889
2.37627
1.79188
0.988659
0.15669
-0.550671
-0.992238
-1.18767
-1.15473
-0.925209
-0.582432
-0.217006
0.095401
0.279954
0.372287
0.435169
0.486562
0.531266
0.571249
0.608207
0.643388
0.677607
0.711318
0.744815
0.778349
0.812169
0.846468
0.881261
0.916295
0.951035
0.9847
1.01635
1.04505
1.07012
1.09134
1.10909
1.1244
1.13896
1.15494
1.17475
1.20071
1.2347
1.27774
1.32998
1.39104
1.46001
1.53547
1.61565
1.69856
1.78192
1.86272
1.93693
2.00077
2.05089
2.08501
2.10245
2.10437
2.09357
2.07384
2.04908
2.02243
1.99564
1.96884
1.94121
1.91113
1.87659
1.83556
1.78647
1.72857
1.66215
1.58854
1.50984
1.42853
1.34704
1.26723
1.19039
1.11717
1.04791
0.983012
0.923758
0.871726
0.828734
0.796526
0.776183
0.767673
0.76974
0.780169
0.796265
0.815393
0.835307
0.854602
0.872438
0.888495
0.90291
0.916248
0.929455
0.943773
0.960581
0.981155
1.00634
1.03636
1.07095
1.10863
1.14654
1.18118
1.20916
1.22793
1.2363
1.23456
1.2244
1.20847
1.18983
1.17148
1.15569
1.14399
1.13738
1.13653
1.14168
1.15257
1.16847
1.18822
1.21021
1.23238
1.25236
1.26772
1.27634
1.27664
1.26793
1.25057
1.22604
1.19678
1.16592
1.1368
1.11243
1.09514
1.08657
1.08754
1.09828
1.11855
1.14788
1.18543
1.23019
1.28123
1.33691
1.39415
1.449
1.49713
1.53423
1.5565
1.56087
1.54527
1.50867
1.45123
1.37483
1.28191
1.17569
1.06
0.939093
0.816927
0.696564
0.580465
0.470473
0.367826
0.273371
0.18756
0.110445
0.04333
0
0.0889606
0.437941
0.943636
1.47189
1.88994
2.09921
2.05996
1.79374
1.36601
0.857869
0.344104
-0.0878738
-0.290284
-0.378315
-0.373833
-0.279073
-0.122029
0.0552475
0.213693
0.33019
0.418298
0.491405
0.554272
0.607489
0.651827
0.688201
0.717849
0.742391
0.763711
0.783623
0.803442
0.823682
0.843601
0.861528
0.875699
0.88518
0.890442
0.893335
0.896481
0.902401
0.912817
0.92771
0.947124
0.971086
0.999878
1.03415
1.07476
1.12237
1.17687
1.23699
1.30129
1.36779
1.43386
1.49697
1.55521
1.60764
1.65427
1.69581
1.73311
1.76623
1.79452
1.81627
1.82897
1.83
1.81742
1.79047
1.74968
1.69665
1.63362
1.56372
1.48959
1.41291
1.33476
1.25576
1.17601
1.09521
1.01281
0.928355
0.841825
0.754001
0.666638
0.58242
0.504625
0.436707
0.38282
0.347903
0.332775
0.330775
0.332402
0.327969
0.310378
0.277091
0.230696
0.177964
0.127748
0.0877804
0.060635
0.0486446
0.0524834
0.0668499
0.0844959
0.0984131
0.103819
0.0993111
0.0868256
0.0704693
0.0547428
0.0427898
0.0349304
0.0303776
0.0280014
0.0267963
0.026527
0.0279747
0.0326981
0.0423862
0.058091
0.0799576
0.105914
0.132431
0.155287
0.170494
0.175102
0.167698
0.148558
0.119542
0.0840031
0.0459576
0.00924797
-0.0224926
-0.0462151
-0.0598104
-0.0623299
-0.0540211
-0.0361673
-0.010778
0.0197968
0.0532141
0.0874952
0.12128
0.153848
0.185046
0.215253
0.24532
0.276442
0.309957
0.347091
0.388944
0.436392
0.48865
0.540854
0.585527
0.614754
0.622306
0.605296
0.564752
0.504947
0.431951
0.352134
0.271422
0.193615
0.123307
0.0649815
0.0227831
0.000315666
0
0.030205
0.0821619
0.153209
0.239756
0.344384
0.488037
0.732247
1.07804
1.44144
1.71149
1.79752
1.67045
1.36868
0.970082
0.557778
0.232911
0.0798052
0.0156395
-0.00883255
0.00679588
0.0565451
0.128985
0.209801
0.285244
0.345855
0.387312
0.410673
0.420813
0.423927
0.425113
0.426833
0.429066
0.430939
0.431326
0.429511
0.42558
0.420473
0.415726
0.412954
0.413139
0.416685
0.423649
0.43265
0.440398
0.443202
0.438261
0.424921
0.40542
0.384772
0.369733
0.367173
0.381728
0.414132
0.464182
0.529455
0.605996
0.689089
0.774045
0.857309
0.935729
1.00618
1.06646
1.11556
1.15328
1.18033
1.19813
1.20848
1.21291
1.21212
1.20558
1.19185
1.16869
1.134
1.08665
1.02693
0.956594
0.878447
0.795606
0.710918
0.626008
0.541588
0.457793
0.374572
0.292154
0.211446
0.134193
0.0628241
0
-0.0479172
-0.0778875
-0.0914202
-0.0945877
-0.0944971
-0.0962574
-0.100819
-0.104783
-0.102295
-0.0880138
-0.0596445
-0.0217066
0.0218693
0.068187
0.114778
0.160126
0.203741
0.245828
0.28673
0.326298
0.363621
0.397218
0.425694
0.448622
0.467163
0.484083
0.503084
0.52831
0.564963
0.610101
0.653025
0.680309
0.681541
0.65398
0.603932
0.544394
0.490249
0.453269
0.433489
0.425855
0.427387
0.436238
0.449734
0.465052
0.480017
0.49339
0.504877
0.514886
0.524104
0.533032
0.541669
0.549442
0.555457
0.55892
0.559534
0.557681
0.554304
0.550588
0.547583
0.545844
0.545515
0.54664
0.549263
0.553589
0.560071
0.569416
0.582482
0.600095
0.622859
0.651045
0.684416
0.722105
0.761944
0.798683
0.824675
0.831563
0.81221
0.762817
0.684509
0.583706
0.471008
0.35887
0.258702
0.174307
0.10598
0.0551079
0.0215178
0.00385485
0
0.01277
0.0417938
0.113387
0.340133
0.733009
1.22642
1.70779
2.03299
2.08609
1.83643
1.35313
0.761594
0.174281
-0.337075
-0.705801
-0.953821
-1.01355
-0.860259
-0.533804
-0.13466
0.216621
0.420978
0.514472
0.570462
0.609136
0.631311
0.639042
0.63565
0.625472
0.613309
0.603662
0.599949
0.603315
0.613028
0.627914
0.646399
0.66678
0.687713
0.708592
0.729745
0.75242
0.778546
0.810346
0.849761
0.897959
0.955125
1.02036
1.09207
1.1671
1.24073
1.30804
1.36509
1.40962
1.44151
1.46277
1.47713
1.48937
1.5046
1.52713
1.55977
1.6047
1.66649
1.75661
1.88854
2.04707
2.19919
2.31
2.35535
2.33073
2.25175
2.14592
2.03985
1.94869
1.86864
1.79325
1.71978
1.64721
1.57531
1.50448
1.43546
1.36906
1.30577
1.24554
1.18782
1.13183
1.07684
1.02244
0.968754
0.916461
0.86678
0.821226
0.782036
0.751311
0.731024
0.722716
0.727174
0.744164
0.772271
0.809113
0.851656
0.894841
0.93266
0.959555
0.971241
0.965356
0.941825
0.902854
0.852581
0.796479
0.74064
0.690189
0.650007
0.623694
0.613288
0.618971
0.639005
0.669983
0.707365
0.746186
0.781758
0.810637
0.830446
0.839412
0.836579
0.821771
0.796
0.760683
0.718055
0.671036
0.62292
0.576894
0.535391
0.500028
0.471415
0.448375
0.428754
0.410185
0.390848
0.370013
0.348223
0.327059
0.308593
0.294704
0.286101
0.282748
0.283764
0.287475
0.291783
0.294584
0.294152
0.28946
0.28039
0.267825
0.253609
0.240357
0.231083
0.228805
0.237424
0.262229
0.306675
0.365697
0.426994
0.4765
0.502041
0.496129
0.45719
0.389165
0.29998
0.19954
0.0979463
0.00234585
-0.0837029
-0.157318
-0.214839
-0.253815
-0.272642
-0.270726
-0.248617
-0.208018
-0.151631
-0.0828305
0
0.110039
0.294616
0.598497
0.965854
1.26824
1.35906
1.15867
0.705148
0.133219
-0.396214
-0.728282
-0.887644
-0.965929
-0.955679
-0.865774
-0.720441
-0.554882
-0.406987
-0.301595
-0.232118
-0.183405
-0.14646
-0.117028
-0.0924602
-0.0703019
-0.0484273
-0.0252822
0
0.026664
0.0531877
0.0764461
0.0934971
0.102866
0.105523
0.105123
0.107281
0.118019
0.141837
0.179498
0.230596
0.289096
0.347423
0.399127
0.440931
0.473304
0.499454
0.523386
0.54806
0.574277
0.601499
0.629237
0.657305
0.686183
0.717093
0.751764
0.791982
0.838804
0.893029
0.955009
1.02296
1.09182
1.15457
1.20394
1.23369
1.23963
1.22035
1.17751
1.11561
1.04124
0.961891
0.884192
0.81202
0.746101
0.685227
0.62783
0.571816
0.515228
0.456777
0.396108
0.333752
0.270817
0.20856
0.147956
0.0896793
0.0341277
-0.01844
-0.067624
-0.112819
-0.153251
-0.188012
-0.216264
-0.237439
-0.25138
-0.258378
-0.259122
-0.254592
-0.246014
-0.234468
-0.22103
-0.20659
-0.191777
-0.176941
-0.162199
-0.147534
-0.132923
-0.11844
-0.104306
-0.0908707
-0.0785668
-0.0678651
-0.0592628
-0.053481
-0.0509954
-0.0520539
-0.0564281
-0.0631863
-0.0706325
-0.0765188
-0.0785427
-0.0748885
-0.0642288
-0.0475367
-0.0286974
-0.0130311
-0.00562086
-0.00977507
-0.0259667
-0.0515528
-0.0813428
-0.108859
-0.127956
-0.135245
-0.130967
-0.117191
-0.095949
-0.0708813
-0.0460497
-0.0251241
-0.0106859
-0.00375242
-0.00358725
-0.00781841
-0.0128472
-0.0145012
-0.00900812
0.00624294
0.0322349
0.0686818
0.114104
0.164134
0.214087
0.26033
0.301328
0.338002
0.373294
0.411095
0.456361
0.513305
0.58083
0.649584
0.704945
0.732244
0.720048
0.662555
0.56136
0.426244
0.274152
0.125825
0
-0.111338
-0.200216
-0.269504
-0.320074
-0.353974
-0.373913
-0.38279
-0.383429
-0.377645
-0.363303
-0.32082
-0.130541
0.240544
0.717746
1.14048
1.31518
1.11614
0.560612
-0.196792
-0.947648
-1.516
-1.79974
-1.96156
-1.98374
-1.88237
-1.68204
-1.41796
-1.14607
-0.94433
-0.834888
-0.777671
-0.744255
-0.723879
-0.713605
-0.710193
-0.710564
-0.712283
-0.713853
-0.714755
-0.715261
-0.716083
-0.717989
-0.721528
-0.726929
-0.734172
-0.743138
-0.753726
-0.765831
-0.779281
-0.793633
-0.808007
-0.821044
-0.831002
-0.835989
-0.834325
-0.82493
-0.807196
-0.780979
-0.746644
-0.704982
-0.657097
-0.60431
-0.548127
-0.490244
-0.432621
-0.377848
-0.32862
-0.287127
-0.254579
-0.230701
-0.213538
-0.199689
-0.185001
-0.16535
-0.136137
-0.0955358
-0.0496406
-0.0122702
0
-0.0238529
-0.0973437
-0.22118
-0.385695
-0.571644
-0.753778
-0.907917
-1.00404
-0.995198
-0.912073
-0.812271
-0.75344
-0.769813
-0.861637
-0.999533
-1.1394
-1.2412
-1.29298
-1.31818
-1.33127
-1.33661
-1.33756
-1.33562
-1.33016
-1.31902
-1.2997
-1.2695
-1.22812
-1.18087
-1.13529
-1.09833
-1.07385
-1.06159
-1.05793
-1.05786
-1.05679
-1.05219
-1.043
-1.02794
-1.00583
-0.975682
-0.93711
-0.888585
-0.833219
-0.77765
-0.729207
-0.693353
-0.671799
-0.662223
-0.659723
-0.659143
-0.657046
-0.652862
-0.647069
-0.640234
-0.632651
-0.624161
-0.614386
-0.60318
-0.591
-0.578906
-0.568175
-0.559676
-0.553236
-0.547308
-0.53909
-0.52513
-0.502226
-0.468898
-0.425795
-0.373829
-0.315426
-0.255103
-0.197832
-0.147557
-0.106225
-0.0733481
-0.0461983
-0.0205629
0.00818629
0.0440437
0.0890567
0.143117
0.205373
0.274812
0.350239
0.430073
0.510419
0.58288
0.636517
0.659682
0.643123
0.583464
0.485611
0.362854
0.234261
0.119941
0.0309605
-0.0328186
-0.0701566
-0.0839832
-0.0802485
-0.0661799
-0.0484393
-0.0316514
-0.0176737
-0.00732146
0
0.133139
0.490431
0.994348
1.51866
1.90399
2.0157
1.80362
1.32116
0.691029
0.0421532
-0.534218
-0.973712
-1.28706
-1.41079
-1.30363
-0.976024
-0.517718
-0.0797477
0.179489
0.27245
0.347217
0.423701
0.510493
0.599224
0.6677
0.691257
0.657613
0.576475
0.47792
0.400272
0.374137
0.398696
0.4483
0.512142
0.584451
0.659124
0.730102
0.792423
0.842661
0.879122
0.901898
0.912816
0.915275
0.913953
0.914317
0.921826
0.941136
0.975164
1.02416
1.08708
1.1594
1.23354
1.30176
1.35783
1.39831
1.42287
1.43375
1.43481
1.43048
1.42515
1.42199
1.42365
1.43235
1.45057
1.48244
1.53118
1.5911
1.64842
1.6873
1.6944
1.66268
1.59276
1.49169
1.36997
1.23831
1.10551
0.975767
0.850603
0.731001
0.61809
0.513185
0.417808
0.3333
0.2607
0.200599
0.152963
0.11705
0.0914387
0.0741687
0.0629325
0.055279
0.0488366
0.0413053
0.0308242
0.0163041
-0.00229621
-0.0238192
-0.0459432
-0.0651149
-0.0776435
-0.0806952
-0.073129
-0.0558752
-0.0317163
-0.00455847
0.021529
0.0434386
0.0594713
0.0686577
0.0709071
0.0667858
0.0574437
0.0441802
0.0285111
0.0120724
-0.00352712
-0.0168911
-0.0268658
-0.0327769
-0.0343826
-0.0315201
-0.0237739
-0.0102764
0.0102169
0.0412827
0.0894023
0.152911
0.214952
0.252211
0.244268
0.183659
0.0814558
-0.0350571
-0.132483
-0.185012
-0.19682
-0.186093
-0.160037
-0.127033
-0.0943991
-0.0663305
-0.0441177
-0.0271877
-0.0134551
0
0.0266894
0.0588909
0.0991217
0.149352
0.210737
0.283384
0.366419
0.457766
0.554676
0.654189
0.753472
0.848632
0.93225
0.996583
1.03057
1.02231
0.964606
0.860309
0.723762
0.5769
0.442012
0.333155
0.243714
0.16956
0.110481
0.0654798
0.0332057
0.0122157
0.001088
0
0.0153898
0.0990244
0.357008
0.778026
1.3235
1.89285
2.33316
2.48882
2.26921
1.69767
0.90734
0.0832098
-0.608473
-1.02081
-1.12564
-1.05098
-0.79806
-0.440265
-0.0831595
0.165111
0.278178
0.347142
0.404147
0.456215
0.505333
0.552531
0.597245
0.637172
0.669184
0.690862
0.701776
0.703937
0.701279
0.698432
0.699423
0.706615
0.71984
0.739385
0.765104
0.796462
0.832475
0.871706
0.910825
0.946086
0.974552
0.995396
1.01064
1.02489
1.04415
1.07402
1.11676
1.17067
1.23328
1.302
1.37297
1.44193
1.50526
1.56048
1.60655
1.64371
1.67305
1.69607
1.71411
1.72822
1.73891
1.74609
1.7494
1.74826
1.74197
1.72973
1.71061
1.68365
1.64795
1.60274
1.5477
1.48309
1.40988
1.32982
1.24529
1.15911
1.07426
0.993532
0.919317
0.853351
0.796575
0.749146
0.710538
0.679714
0.655376
0.636092
0.620491
0.607384
0.595828
0.585131
0.57487
0.564881
0.555321
0.546721
0.540003
0.536394
0.537198
0.543455
0.556118
0.575255
0.59845
0.621248
0.638704
0.646742
0.643292
0.62879
0.605875
0.578429
0.550368
0.524562
0.502166
0.483302
0.468023
0.456311
0.448261
0.444062
0.443798
0.447183
0.453322
0.460942
0.468551
0.474742
0.47851
0.479459
0.477799
0.474184
0.46944
0.464298
0.459253
0.454535
0.45024
0.446496
0.443622
0.442205
0.443101
0.447402
0.45639
0.471398
0.494018
0.525877
0.568409
0.622516
0.688946
0.768784
0.859832
0.954618
1.04211
1.11099
1.15154
1.15679
1.12309
1.05026
0.94185
0.805297
0.651741
0.495249
0.348967
0.221745
0.121294
0.0516566
0.0126223
0
0.00827079
0.0278001
0.051263
0.0736856
0.0934416
0.107056
0.118394
0.369483
0.871639
1.5113
2.08663
2.39493
2.32603
1.90147
1.24143
0.494622
-0.214193
-0.780335
-1.0134
-1.11719
-1.04758
-0.833254
-0.546866
-0.266732
-0.0459479
0.12157
0.262716
0.371477
0.440542
0.464285
0.443589
0.389607
0.323399
0.270332
0.25114
0.269326
0.308716
0.359585
0.413119
0.461273
0.498845
0.524686
0.541686
0.555588
0.573092
0.599931
0.638499
0.687528
0.745147
0.809677
0.879065
0.951166
1.02361
1.09409
1.16106
1.22391
1.28315
1.34012
1.39648
1.45346
1.51129
1.56808
1.62023
1.66373
1.69578
1.71592
1.7262
1.73026
1.73178
1.73287
1.7332
1.73039
1.72069
1.70009
1.66536
1.6148
1.54844
1.46781
1.3753
1.27414
1.16745
1.05741
0.945475
0.832834
0.720478
0.609307
0.500225
0.394266
0.292718
0.197232
0.109849
0.0329165
-0.0311251
-0.0794459
-0.107206
-0.10693
-0.0762352
-0.0288569
0.0174584
0.0460608
0.0463911
0.0169056
-0.035218
-0.0973748
-0.156277
-0.201999
-0.233972
-0.254946
-0.266322
-0.267752
-0.258793
-0.237843
-0.200852
-0.143705
-0.0700348
0.00653069
0.0695862
0.105025
0.105776
0.0744917
0.0232968
-0.0294715
-0.0648942
-0.0714317
-0.0530614
-0.0196043
0.0227042
0.0662836
0.104019
0.130864
0.144796
0.146869
0.140464
0.130025
0.119743
0.112287
0.108708
0.10964
0.115448
0.126745
0.14479
0.171581
0.209585
0.265792
0.355704
0.483569
0.625059
0.747626
0.823217
0.838291
0.796663
0.715301
0.616478
0.520265
0.437676
0.36718
0.304856
0.248023
0.195009
0.145179
0.0989734
0.0580962
0.0254372
0.00479898
0
0.011159
0.0423946
0.0932161
0.161506
0.246717
0.358784
0.523844
0.77615
1.08545
1.37904
1.55116
1.51692
1.26599
0.869774
0.434954
0.0477095
-0.233161
-0.433396
-0.559997
-0.590422
-0.519284
-0.366917
-0.178036
-0.006786
0.106743
0.171981
0.21866
0.256464
0.291626
0.328571
0.369
0.41196
0.455866
0.498966
0.539926
0.57832
0.614813
0.650986
0.688904
0.730546
0.777231
0.829247
0.885809
0.945241
1.0053
1.06357
1.11795
1.16693
1.20986
1.24692
1.27904
1.30765
1.33444
1.36105
1.38889
1.41903
1.4521
1.48844
1.52812
1.57111
1.61737
1.6668
1.71912
1.77403
1.82999
1.88284
1.92678
1.9559
1.96583
1.95504
1.9252
1.88024
1.82489
1.76321
1.69846
1.6323
1.56551
1.49867
1.43238
1.36738
1.3045
1.24461
1.18867
1.13769
1.0928
1.0552
1.02592
1.00566
0.99456
0.992699
0.999217
1.01114
1.02448
1.03562
1.0422
1.04366
1.04123
1.03725
1.03422
1.03383
1.03623
1.04068
1.04587
1.05074
1.05508
1.05981
1.06684
1.07836
1.09613
1.12036
1.15016
1.18373
1.2172
1.24583
1.26576
1.27516
1.2748
1.26776
1.25834
1.25044
1.24644
1.24468
1.24025
1.22714
1.20102
1.16144
1.11249
1.06172
1.01779
0.987599
0.971129
0.966401
0.972509
0.987316
1.00767
1.03002
1.05066
1.06603
1.07367
1.07241
1.06257
1.04584
1.02504
1.00345
0.984074
0.96879
0.958195
0.950243
0.940861
0.925101
0.898411
0.857736
0.802151
0.732919
0.653078
0.566769
0.478668
0.39253
0.311018
0.236226
0.169794
0.112725
0.0653868
0.0276445
0
-0.0224991
0.000161934
0.176272
0.525824
0.951744
1.32282
1.50686
1.4243
1.07688
0.542304
-0.0594186
-0.60381
-0.950019
-1.12822
-1.22168
-1.21858
-1.12813
-0.978381
-0.810209
-0.667887
-0.576618
-0.524017
-0.4932
-0.475555
-0.468203
-0.469226
-0.476676
-0.488667
-0.503404
-0.519202
-0.534517
-0.547987
-0.558475
-0.565079
-0.567157
-0.564131
-0.555532
-0.541039
-0.520591
-0.494226
-0.462703
-0.427786
-0.392185
-0.359556
-0.334226
-0.319672
-0.317959
-0.329008
-0.350106
-0.375896
-0.399063
-0.411737
-0.407353
-0.382699
-0.340868
-0.287343
-0.226903
-0.165511
-0.108932
-0.0618399
-0.0272926
-0.00667591
0
0.000889015
-0.00989819
-0.0304129
-0.0584059
-0.0916637
-0.127525
-0.163021
-0.195286
-0.221444
-0.239141
-0.250548
-0.262877
-0.285278
-0.325499
-0.386718
-0.465898
-0.55447
-0.641138
-0.715716
-0.774472
-0.816813
-0.846107
-0.867809
-0.887084
-0.906861
-0.926992
-0.944684
-0.955836
-0.956865
-0.947798
-0.929833
-0.903603
-0.870814
-0.834558
-0.798585
-0.766186
-0.739521
-0.719195
-0.704169
-0.692096
-0.67999
-0.665056
-0.645548
-0.621376
-0.593263
-0.562635
-0.531194
-0.50036
-0.470842
-0.442445
-0.414169
-0.384554
-0.352184
-0.316241
-0.276555
-0.234118
-0.19132
-0.151209
-0.116781
-0.0903111
-0.0728766
-0.0641893
-0.0627211
-0.0660472
-0.0712766
-0.0755074
-0.0763857
-0.0720743
-0.0609735
-0.0418875
-0.0141
0.0225921
0.0678827
0.121026
0.180974
0.246565
0.316688
0.390357
0.466716
0.544983
0.623687
0.699191
0.76513
0.813758
0.837699
0.832469
0.798603
0.742399
0.674736
0.608159
0.553193
0.512429
0.483156
0.462462
0.445386
0.426116
0.399235
0.360763
0.308804
0.243731
0.167956
0.0855411
0
-0.056913
0.150942
0.614272
1.24053
1.84969
2.23008
2.23359
1.84696
1.19587
0.478771
-0.122407
-0.484019
-0.446298
-0.330266
-0.202415
-0.0733739
0.0458221
0.147358
0.231958
0.305817
0.371579
0.429733
0.480673
0.523682
0.557096
0.579532
0.591056
0.593721
0.591221
0.587864
0.587338
0.591114
0.599013
0.610819
0.625834
0.643412
0.663299
0.685744
0.711357
0.740797
0.774392
0.811869
0.852183
0.893845
0.935295
0.975085
1.01211
1.04574
1.0758
1.10251
1.1263
1.14771
1.16725
1.18548
1.20299
1.22052
1.23894
1.25928
1.28256
1.30957
1.34108
1.37708
1.4151
1.45025
1.47669
1.48882
1.48239
1.45518
1.40714
1.34004
1.25704
1.16281
1.06258
0.960408
0.859425
0.762139
0.670331
0.585152
0.507325
0.437034
0.373957
0.31736
0.266303
0.219167
0.173597
0.12743
0.0792995
0.0291633
-0.0215125
-0.0700527
-0.113336
-0.148631
-0.172997
-0.187811
-0.196937
-0.205143
-0.216285
-0.231907
-0.250788
-0.269506
-0.283685
-0.289383
-0.285771
-0.27362
-0.25385
-0.227573
-0.196541
-0.163748
-0.133571
-0.110395
-0.0976696
-0.0971081
-0.108171
-0.128105
-0.152607
-0.176936
-0.197134
-0.21145
-0.220417
-0.225307
-0.227557
-0.228851
-0.230856
-0.234818
-0.241287
-0.250015
-0.26001
-0.269765
-0.27763
-0.282256
-0.282689
-0.278865
-0.272301
-0.265056
-0.258834
-0.254115
-0.249662
-0.242624
-0.229197
-0.205631
-0.169349
-0.12062
-0.0610086
0.00768843
0.0834416
0.163986
0.246945
0.328887
0.403467
0.463323
0.500134
0.506411
0.478163
0.417209
0.33191
0.235875
0.145046
0.0740472
0.0256631
0
-0.00432043
0.0121997
0.0449596
0.0882026
0.136321
0.185087
0.232624
0.279211
0.32679
0.386309
0.517012
0.785114
1.11359
1.41618
1.61281
1.63968
1.46888
1.12073
0.659256
0.178533
-0.169604
-0.280808
-0.292435
-0.235793
-0.123477
0.0185086
0.160131
0.278438
0.373248
0.454577
0.526315
0.590318
0.648294
0.701535
0.75099
0.797256
0.840913
0.88272
0.923647
0.964759
1.00697
1.05074
1.09596
1.14156
1.18521
1.22402
1.25547
1.27842
1.29373
1.30438
1.31497
1.33066
1.35591
1.39277
1.44019
1.49612
1.5583
1.624
1.6905
1.75587
1.81935
1.88144
1.94366
2.00794
2.07599
2.14873
2.22576
2.30547
2.38545
2.46282
2.53473
2.59882
2.65339
2.6974
2.73019
2.75045
2.75609
2.74581
2.71821
2.67238
2.60854
2.52849
2.43569
2.33476
2.2307
2.12796
2.02927
1.93624
1.84968
1.76979
1.69662
1.63044
1.57208
1.52314
1.48526
1.45999
1.44834
1.45118
1.46864
1.49824
1.53452
1.57003
1.59767
1.61219
1.61116
1.59511
1.56705
1.53124
1.49181
1.45172
1.41227
1.37352
1.33531
1.29765
1.2609
1.22575
1.19298
1.16335
1.13688
1.113
1.09073
1.06894
1.04664
1.02301
0.99736
0.9691
0.937788
0.903353
0.866379
0.82828
0.791198
0.757617
0.729777
0.709048
0.6951
0.687395
0.684728
0.685536
0.688232
0.691529
0.694604
0.697221
0.699722
0.702903
0.707759
0.715187
0.725867
0.740031
0.756975
0.775823
0.796193
0.818775
0.845533
0.879383
0.923352
0.983247
1.06416
1.15802
1.2492
1.32071
1.35935
1.35877
1.31958
1.24767
1.15188
1.04224
0.929174
0.819061
0.715291
0.619457
0.531836
0.452336
0.380847
0.316865
0.259659
0.208128
0.161061
0.117266
0.0757113
0.0359183
0
0.0276703
0.32631
0.864186
1.47868
1.9325
2.03023
1.72331
1.13189
0.468083
-0.0876995
-0.459587
-0.649876
-0.77777
-0.861887
-0.889143
-0.856237
-0.772507
-0.658575
-0.54004
-0.438584
-0.361599
-0.300515
-0.248319
-0.20203
-0.160163
-0.121832
-0.0867298
-0.0549932
-0.0269459
-0.00275679
0.0178189
0.0355188
0.0514507
0.0668219
0.0826175
0.0993528
0.116966
0.13494
0.152513
0.168934
0.183697
0.196675
0.208172
0.218908
0.230038
0.243119
0.260087
0.283142
0.314528
0.356194
0.409422
0.474536
0.550525
0.635461
0.727104
0.822919
0.920375
1.01622
1.10477
1.17973
1.23444
1.26302
1.26272
1.23573
1.18922
1.1332
1.07698
1.02609
0.979592
0.934867
0.889704
0.841763
0.788979
0.729786
0.66319
0.588768
0.507031
0.418919
0.325846
0.229937
0.13397
0.0411662
-0.0451506
-0.121964
-0.186895
-0.23859
-0.276903
-0.302533
-0.316714
-0.322271
-0.322443
-0.320168
-0.317627
-0.315988
-0.315416
-0.315294
-0.314598
-0.312256
-0.307553
-0.300069
-0.289495
-0.275681
-0.258608
-0.238427
-0.215556
-0.190693
-0.165037
-0.140241
-0.118044
-0.099915
-0.0867157
-0.0784945
-0.0744723
-0.0732135
-0.0729144
-0.0717423
-0.068245
-0.0614384
-0.0507846
-0.0363212
-0.0186265
0.00122728
0.0217453
0.0413063
0.0584213
0.0719612
0.0813001
0.0863473
0.0874776
0.0853959
0.0810003
0.075263
0.0691041
0.0634019
0.0589755
0.0565671
0.0568193
0.0602451
0.0672048
0.0778975
0.092377
0.11059
0.132411
0.157734
0.186484
0.218592
0.25392
0.292124
0.332678
0.374544
0.415747
0.454025
0.487364
0.514447
0.534778
0.548368
0.555081
0.553163
0.54025
0.513191
0.4694
0.408514
0.333603
0.251314
0.170701
0.101058
0.0481155
0.0135956
-0.00312672
-0.0057251
0
0.00912476
0.0155481
0.0166975
0.0126444
0.00396366
0.00431032
0.206266
0.627211
1.13069
1.52356
1.64248
1.45202
1.06054
0.636101
0.286568
-0.000317764
-0.284223
-0.537827
-0.713267
-0.757359
-0.644806
-0.404195
-0.113924
0.130871
0.261257
0.315809
0.346235
0.363061
0.371671
0.376571
0.381024
0.387129
0.396444
0.410584
0.431584
0.461812
0.503434
0.557615
0.62381
0.698745
0.778182
0.858006
0.934134
1.00322
1.06301
1.11266
1.15262
1.18437
1.21004
1.2321
1.25304
1.27521
1.30065
1.33099
1.36727
1.40987
1.45835
1.51194
1.56862
1.62569
1.68067
1.73208
1.77976
1.82482
1.86909
1.9144
1.96173
2.00929
2.05275
2.08629
2.10425
2.10243
2.07893
2.03431
1.97117
1.89339
1.80601
1.71301
1.61703
1.51968
1.42193
1.32445
1.22807
1.13396
1.04372
0.959211
0.882331
0.814717
0.757519
0.711264
0.675762
0.650321
0.633949
0.625516
0.623812
0.627669
0.635904
0.64651
0.656477
0.66269
0.662578
0.654797
0.639647
0.619034
0.595944
0.573628
0.554772
0.540422
0.530684
0.525372
0.523873
0.525395
0.529178
0.534645
0.541368
0.549196
0.55825
0.568824
0.581188
0.595401
0.611015
0.626125
0.637904
0.643562
0.641485
0.632126
0.618165
0.603806
0.593426
0.59015
0.593897
0.60273
0.614699
0.62723
0.637595
0.643302
0.642171
0.632919
0.615199
0.589747
0.558463
0.524168
0.490745
0.4622
0.441857
0.431656
0.431761
0.440638
0.45559
0.473575
0.492053
0.509704
0.526507
0.54359
0.562782
0.585989
0.614536
0.648616
0.687503
0.729884
0.773669
0.81658
0.856486
0.891548
0.920129
0.940042
0.946914
0.936287
0.903794
0.845764
0.760973
0.652156
0.526557
0.39505
0.269952
0.162149
0.0830219
0.0367331
0.0140455
0
-0.0249959
-0.0677046
-0.132119
-0.21509
-0.30875
-0.399967
-0.224757
0.226969
0.845665
1.43371
1.78559
1.78493
1.44566
0.880381
0.228438
-0.402849
-0.943998
-1.25099
-1.33985
-1.32578
-1.19798
-0.982993
-0.735153
-0.516198
-0.373841
-0.282017
-0.214726
-0.165229
-0.132134
-0.113296
-0.106178
-0.107966
-0.115654
-0.126137
-0.136312
-0.143223
-0.144211
-0.137303
-0.121365
-0.0958549
-0.0606437
-0.0149837
0.0389162
0.0933325
0.139717
0.171206
0.184953
0.183266
0.172951
0.163077
0.162129
0.175232
0.200704
0.235992
0.279526
0.329897
0.385646
0.445424
0.508021
0.572361
0.637477
0.702563
0.767027
0.830513
0.892726
0.95299
1.00952
1.05905
1.09686
1.11769
1.1176
1.09574
1.05495
1.00093
0.940333
0.87858
0.818173
0.759061
0.700495
0.641734
0.582366
0.522587
0.463246
0.405598
0.35102
0.300586
0.253933
0.209222
0.163531
0.113516
0.0561787
-0.0104799
-0.0870538
-0.172599
-0.266955
-0.365983
-0.457568
-0.526598
-0.558629
-0.544435
-0.484121
-0.388628
-0.277382
-0.172695
-0.0931537
-0.0392032
-0.00548019
0.00960636
0.00979595
7.03812e-005
-0.014297
-0.0285886
-0.0397219
-0.0461047
-0.0470291
-0.0429448
-0.0353782
-0.0261957
-0.0170904
-0.00926437
-0.00341206
0
0.0137722
0.0231938
0.0264655
0.0214572
0.00641995
-0.019202
-0.0540903
-0.0947639
-0.135851
-0.170931
-0.194107
-0.192528
-0.153988
-0.0905149
-0.0228427
0.0288184
0.053847
0.0554182
0.0476463
0.0473601
0.0652006
0.0982476
0.136525
0.174529
0.207241
0.231254
0.245157
0.249203
0.244572
0.232655
0.215381
0.194137
0.169875
0.143748
0.117541
0.093529
0.0742505
0.0622591
0.0599801
0.0690201
0.0901838
0.123394
0.16768
0.221227
0.281476
0.345265
0.409025
0.468964
0.520963
0.561397
0.587246
0.59638
0.587804
0.56181
0.519973
0.464976
0.400289
0.32981
0.257618
0.187181
0.122162
0.0670175
0.0260577
0.00278249
0
0.0155507
0.053266
0.111361
0.188044
0.287183
0.420639
0.598575
0.865229
1.2027
1.51274
1.65583
1.5328
1.1434
0.578701
-0.0405292
-0.613326
-1.08296
-1.41891
-1.58979
-1.56853
-1.3592
-1.01192
-0.606979
-0.221356
0.0773837
0.241588
0.336397
0.406196
0.462601
0.507548
0.543754
0.574339
0.602271
0.629941
0.659
0.690502
0.725227
0.764004
0.807848
0.857793
0.91448
0.977683
1.046
1.11675
1.18694
1.25368
1.31481
1.36949
1.41835
1.46334
1.5072
1.55279
1.60234
1.65691
1.71628
1.77913
1.84299
1.90428
1.95952
2.00622
2.04348
2.07207
2.09411
2.11225
2.12841
2.14329
2.15477
2.15819
2.1478
2.11866
2.06804
1.99609
1.90569
1.80166
1.69009
1.57673
1.4653
1.35804
1.25616
1.16019
1.07004
0.985168
0.904754
0.82799
0.754226
0.68307
0.614434
0.548537
0.48592
0.427441
0.374284
0.327867
0.289618
0.260737
0.242039
0.234058
0.236418
0.246711
0.259966
0.270261
0.272246
0.262291
0.239272
0.204811
0.162926
0.119218
0.0797994
0.0496052
0.0309727
0.0244099
0.0295355
0.0456493
0.0714436
0.103271
0.135575
0.162833
0.180516
0.185822
0.178026
0.158419
0.129935
0.0966297
0.0631657
0.0336126
0.0116072
0
0.00485744
0.0219257
0.0497997
0.0857353
0.126131
0.167142
0.205361
0.238126
0.26343
0.279431
0.284656
0.278875
0.262718
0.237978
0.207777
0.176372
0.148491
0.128347
0.118649
0.119783
0.130243
0.147003
0.166443
0.18534
0.201592
0.214493
0.224643
0.233547
0.243013
0.254464
0.26881
0.286432
0.306567
0.32745
0.347319
0.36525
0.381802
0.399167
0.420733
0.450139
0.490168
0.541362
0.601574
0.668011
0.737781
0.807689
0.874646
0.935881
0.988713
1.02953
1.05401
1.05911
1.04224
1.00222
0.940222
0.860399
0.769677
0.676595
0.589496
0.51564
0.46
0.419289
0.385592
0.349366
0.302702
0.241692
0.167234
0.0843416
0
0.0334156
0.345098
0.846723
1.41561
1.89253
2.13257
2.0581
1.68557
1.11531
0.489708
-0.0599327
-0.437899
-0.528095
-0.513174
-0.463649
-0.377994
-0.261917
-0.127512
0.00957556
0.134848
0.242488
0.333523
0.409166
0.469727
0.516914
0.553344
0.582126
0.606441
0.629176
0.652612
0.678218
0.70656
0.737332
0.769546
0.801824
0.832698
0.860901
0.88561
0.906627
0.924439
0.940149
0.955322
0.971747
0.991145
1.01487
1.04362
1.07731
1.115
1.15504
1.19508
1.23255
1.26502
1.29058
1.30802
1.31687
1.31781
1.31255
1.30374
1.29482
1.28968
1.29219
1.30682
1.34245
1.40299
1.47437
1.53624
1.56914
1.56142
1.51251
1.43124
1.33026
1.22004
1.10615
0.990875
0.875378
0.760839
0.648982
0.542068
0.442585
0.3531
0.27539
0.209396
0.153884
0.10694
0.0665915
0.0312748
0
-0.0157051
-0.0282896
-0.0385206
-0.0474943
-0.0562487
-0.0652458
-0.0739815
-0.0809931
-0.0843262
-0.0822851
-0.0741491
-0.0611057
-0.0447254
-0.0272594
-0.0112055
0.00107765
0.00762825
0.00702181
-0.00153227
-0.0177481
-0.0405157
-0.0681374
-0.0979993
-0.126747
-0.150671
-0.166249
-0.170441
-0.160699
-0.135733
-0.0970105
-0.0503538
-0.00432825
0.032784
0.0548328
0.0591191
0.0468538
0.0226078
-0.00713968
-0.0359592
-0.0595828
-0.0774488
-0.0909363
-0.101442
-0.110606
-0.119597
-0.128599
-0.136656
-0.141943
-0.142385
-0.135737
-0.120764
-0.09906
-0.0738117
-0.0487834
-0.027177
-0.0108423
-0.000109959
0.00578961
0.00800774
0.0076211
0.00527215
0.00113063
-0.00474567
-0.0120206
-0.0198363
-0.0266952
-0.0304478
-0.0287244
-0.0193788
-0.000999388
0.0266856
0.063434
0.107184
0.154372
0.201563
0.246525
0.289038
0.331176
0.376967
0.438283
0.551083
0.732095
0.935005
1.08739
1.122
1.00859
0.773121
0.4925
0.261557
0.143605
0.0871841
0.047941
0.0184256
-0.00649323
-0.0289913
-0.0482316
-0.0613585
-0.0650878
-0.0576444
-0.0389779
0
0.100951
0.318881
0.722493
1.25921
1.72967
1.88471
1.58358
0.892276
0.0463176
-0.694076
-1.14748
-1.26641
-1.33588
-1.36395
-1.34612
-1.28679
-1.19893
-1.10102
-1.01209
-0.946759
-0.905686
-0.88207
-0.874964
-0.882485
-0.902365
-0.931537
-0.967387
-1.00778
-1.05048
-1.09319
-1.13367
-1.17001
-1.20079
-1.22499
-1.24213
-1.25216
-1.25527
-1.25153
-1.24112
-1.2238
-1.19877
-1.16464
-1.11961
-1.06179
-0.989641
-0.902437
-0.800519
-0.685842
-0.560769
-0.427633
-0.289077
-0.149641
-0.0177202
0.0962803
0.181414
0.226966
0.225398
0.175654
0.0852123
-0.0302183
-0.149718
-0.252312
-0.327823
-0.379219
-0.412149
-0.427575
-0.427489
-0.414283
-0.390271
-0.358127
-0.320068
-0.277702
-0.232656
-0.186866
-0.142463
-0.101721
-0.0670081
-0.0401467
-0.0217259
-0.0111662
-0.00671649
-0.00569177
-0.00495453
-0.00155883
0.00661607
0.0204475
0.0392375
0.0615495
0.0857914
0.110417
0.134188
0.156224
0.175896
0.192685
0.206197
0.216085
0.222215
0.224741
0.224063
0.220653
0.214848
0.206594
0.195714
0.182083
0.166079
0.149006
0.133271
0.12221
0.119567
0.128774
0.152238
0.19002
0.241519
0.305755
0.38221
0.467128
0.549555
0.615944
0.653524
0.653556
0.614599
0.543963
0.456263
0.369527
0.300504
0.255765
0.231604
0.224066
0.231051
0.250692
0.280834
0.318168
0.357632
0.393929
0.422678
0.441188
0.448933
0.44759
0.44061
0.432451
0.427675
0.429826
0.44077
0.461294
0.491668
0.53178
0.581144
0.639162
0.70537
0.77943
0.860724
0.946808
1.03081
1.1023
1.14973
1.16286
1.13564
1.0688
0.971017
0.857802
0.74787
0.657657
0.590624
0.540518
0.503004
0.472987
0.444574
0.412406
0.372685
0.323706
0.265822
0.201012
0.132336
0.0631469
0
0.0427074
0.341047
0.850655
1.45037
1.96465
2.23345
2.17579
1.81317
1.24692
0.607967
0.00940783
-0.461541
-0.631403
-0.649963
-0.599596
-0.486485
-0.335863
-0.180556
-0.0458146
0.0649946
0.163565
0.256097
0.344616
0.429728
0.511427
0.589327
0.662969
0.732132
0.797072
0.858561
0.917728
0.975741
1.03345
1.09114
1.1484
1.20429
1.25757
1.3071
1.35206
1.39224
1.428
1.46046
1.49133
1.5227
1.55683
1.59589
1.64158
1.69488
1.75571
1.82288
1.89404
1.9663
2.03643
2.10129
2.15805
2.20441
2.23889
2.26082
2.27026
2.26796
2.25536
2.23459
2.20841
2.17998
2.15255
2.12904
2.11153
2.10107
2.09773
2.10033
2.10606
2.11032
2.10761
2.09242
2.06015
2.00787
1.935
1.8436
1.73822
1.62538
1.51254
1.40606
1.311
1.23207
1.17215
1.13114
1.10756
1.09945
1.10515
1.12386
1.15708
1.21304
1.30368
1.42599
1.55463
1.65874
1.71292
1.70526
1.64008
1.53578
1.4189
1.31624
1.24354
1.19741
1.16992
1.15613
1.15405
1.16245
1.17991
1.20514
1.23524
1.26656
1.29577
1.3207
1.34078
1.35719
1.37237
1.38919
1.40989
1.43495
1.46361
1.49382
1.52241
1.54599
1.56195
1.56914
1.56825
1.56176
1.55338
1.54705
1.54581
1.55139
1.56203
1.56862
1.5575
1.51348
1.42357
1.28044
1.08454
0.844642
0.560971
0.2658
0
-0.212365
-0.351361
-0.41723
-0.417702
-0.360768
-0.250645
-0.0882805
0.1212
0.367262
0.638138
0.934916
1.23495
1.49828
1.68732
1.77499
1.75363
1.64003
1.47125
1.29109
1.13249
1.00059
0.879143
0.759673
0.639187
0.515962
0.388374
0.256434
0.12474
0
-0.11157
-0.204705
-0.110489
0.3575
1.02984
1.70777
2.17764
2.30865
2.1124
1.71686
1.27848
0.898046
0.59709
0.378741
0.28322
0.242639
0.230026
0.239107
0.269513
0.319037
0.384119
0.460432
0.543028
0.627566
0.710778
0.789876
0.862605
0.927331
0.983109
1.02971
1.06752
1.09746
1.12112
1.14042
1.15744
1.17419
1.19241
1.21329
1.23763
1.26532
1.29432
1.32178
1.34535
1.36428
1.38009
1.39623
1.41699
1.446
1.48504
1.53243
1.58552
1.64247
1.70168
1.76216
1.82357
1.88597
1.94935
2.01327
2.07655
2.13732
2.19326
2.2416
2.2794
2.30467
2.31652
2.31511
2.30151
2.27764
2.24586
2.20851
2.16747
2.12369
2.07733
2.02798
1.97465
1.91646
1.85292
1.78418
1.71117
1.63554
1.55946
1.48528
1.41525
1.35135
1.29521
1.2473
1.20688
1.17253
1.14266
1.11593
1.09148
1.06892
1.04816
1.02913
1.0116
0.995332
0.980233
0.966709
0.955802
0.949121
0.94852
0.955606
0.970895
0.993815
1.02361
1.05843
1.09398
1.12419
1.14311
1.14625
1.13159
1.10024
1.05617
1.00534
0.954332
0.908899
0.871423
0.842106
0.82104
0.807942
0.802114
0.802089
0.806237
0.813203
0.822179
0.833003
0.84606
0.861997
0.881326
0.904041
0.929289
0.955627
0.980853
1.00247
1.01821
1.0265
1.02678
1.01967
1.00694
0.9914
0.976572
0.966362
0.964302
0.973762
0.99727
1.03606
1.08972
1.15637
1.23294
1.31323
1.3903
1.45743
1.50896
1.54079
1.55053
1.53751
1.50264
1.44866
1.37942
1.29945
1.21361
1.12629
1.04051
0.957133
0.875229
0.7924
0.705411
0.611084
0.507152
0.392879
0.269295
0.138699
0
-0.0235894
0.26596
0.836338
1.54774
2.16777
2.47973
2.39327
1.98102
1.41505
0.854287
0.373655
-0.0159707
-0.20732
-0.131977
-0.015927
0.112631
0.246875
0.378156
0.497509
0.598869
0.678182
0.733785
0.766806
0.780585
0.77979
0.769499
0.754606
0.739169
0.726198
0.718065
0.717002
0.725096
0.744181
0.775709
0.820482
0.878391
0.948262
1.0279
1.11435
1.20434
1.2948
1.38331
1.46837
1.54939
1.62649
1.70021
1.77118
1.83995
1.90691
1.97237
2.03659
2.09989
2.16249
2.22444
2.28542
2.34465
2.40089
2.45282
2.49928
2.53961
2.57381
2.60235
2.6259
2.64453
2.65725
2.66231
2.65692
2.63796
2.6029
2.55066
2.48217
2.4003
2.30948
2.21492
2.12161
2.03302
6
179
350
433
525
704
741
883
958
1060
1215
1237
1407
1571
1732
1802
1897
2067
2238
2414
2595
2721
2781
2910
2971
3058
3159
3334
3486
3508
3679
0
0
0
0
0
0
0
0
0
0
0
0
0
0
0
0
0
0
0
0
0
0
0
0
0
0
0
0
0
0
0
0
0
0
0
0
0
0
0
0
0
0
0
0
0
0
0
0
0
0
0
0
0
0
0
0
0
0
0
0
0
0
0
0
0
0
0
0
0
0
0
0
0
0
0
0
0
0
0
0
0
0
0
0
0
0
0
0
0
0
0
0
0
0
0
0
0
0
0
0
0
0
0
0
0
0
0
0
0
0
0
0
0
0
0
0
0
0
0
0
0
0
0
0
0
0
0
0
0
0
0
0
0
0
0
0
0
0
0
0
0
0
0
0
0
0
0
0
0
0
0
0
0
0
0
0
0
0
0
0
0
0
0
0
0
0
0
0
0
0
0
0
0
0
0
0
0
0
0
0
0
0
0
0
0
0
0
0
0
0
0
0
0
0
0
0
0
0
0
0
0
0
0
0
0
0
0
0
0
0
0
0
0
0
0
0
0
0
0
0
0
0
0
0
0
0
0
0
0
0
0
0
0
0
0
0
0
0
0
0
0
0
0
0
0
0
0
0
0
0
0
0
0
0
0
0
0
0
0
0
0
0
0
0
0
0
0
0
0
0
0
0
0
0
0
0
0
0
0
0
0
0
0
0
0
0
0
0
0
0
0
0
0
0
0
0
0
0
0
0
0
0
0
0
0
0
0
0
0
0
0
0
0
0
0
0
0
0
0
0
0
0
0
0
0
0
0
0
0
0
0
0
0
0
0
0
0
0
0
0
0
0
0
0
0
0
0
0
0
0
0
0
0
0
0
0
0
0
0
0
0
0
0
0
0
0
0
0
0
0
0
0
0
0
0
0
0
0
0
0
0
0
0
0
0
0
0
0
0
0
0
0
0
0
0
0
0
0
0
0
0
0
0
0
0
0
0
0
0
0
0
0
0
0
0
0
0
0
0
0
0
0
0
0
0
0
0
0
0
0
0
0
0
0
0
0
0
0
0
0
0
0
0
0
0
0
0
0
0
0
0
0
0
0
0
0
0
0
0
0
0
0
0
0
0
0
0
0
0
0
0
0
0
0
0
0
0
0
0
0
0
0
0
0
0
0
0
0
0
0
0
0
0
0
0
0
0
0
0
0
0
0
0
0
0
0
0
0
0
0
0
0
0
0
0
0
0
0
0
0
0
0
0
0
0
0
0
0
0
0
0
0
0
0
0
0
0
0
0
0
0
0
0
0
0
0
0
0
0
0
0
0
0
0
0
0
0
0
0
0
0
0
0
0
0
0
0
0
0
0
0
0
0
0
0
0
0
0
0
0
0
0
0
0
0
0
0
0
0
0
0
0
0
0
0
0
0
0
0
0
0
0
0
0
0
0
0
0
0
0
0
0
0
0
0
0
0
0
0
0
0
0
0
0
0
0
0
0
0
0
0
0
0
0
0
0
0
0
0
0
0
0
0
0
0
0
0
0
0
0
0
0
0
0
0
0
0
0
0
0
0
0
0
0
0
0
0
0
0
0
0
0
0
0
0
0
0
0
0
0
0
0
0
0
0
0
0
0
0
0
0
0
0
0
0
0
0
0
0
0
0
0
0
0
0
0
0
0
0
0
0
0
0
0
0
0
0
0
0
0
0
0
0
0
0
0
0
0
0
0
0
0
0
0
0
0
0
0
0
0
0
0
0
0
0
0
0
0
0
0
0
0
0
0
0
0
0
0
0
0
0
0
0
0
0
0
0
0
0
0
0
0
0
0
0
0
0
0
0
0
0
0
0
0
0
0
0
0
0
0
0
0
0
0
0
0
0
0
0
0
0
0
0
0
0
0
0
0
0
0
0
0
0
0
0
0
0
0
0
0
0
0
0
0
0
0
0
0
0
0
0
0
0
0
0
0
0
0
0
0
0
0
0
0
0
0
0
0
0
0
0
0
0
0
0
0
0
0
0
0
0
0
0
0
0
0
0
0
0
0
0
0
0
0
0
0
0
0
0
0
0
0
0
0
0
0
0
0
0
0
0
0
0
0
0
0
0
0
0
0
0
0
0
0
0
0
0
0
0
0
0
0
0
0
0
0
0
0
0
0
0
0
0
0
0
0
0
0
0
0
0
0
0
0
0
0
0
0
0
0
0
0
0
0
0
0
0
0
0
0
0
0
0
0
0
0
0
0
0
0
0
0
0
0
0
0
0
0
0
0
0
0
0
0
0
0
0
0
0
0
0
0
0
0
0
0
0
0
0
0
0
0
0
0
0
0
0
0
0
0
0
0
0
0
0
0
0
0
0
0
0
0
0
0
0
0
0
0
0
0
0
0
0
0
0
0
0
0
0
0
0
0
0
0
0
0
0
0
0
0
0
0
0
0
0
0
0
0
0
0
0
0
0
0
0
0
0
0
0
0
0
0
0
0
0
0
0
0
0
0
0
0
0
0
0
0
0
0
0
0
0
0
0
0
0
0
0
0
0
0
0
0
0
0
0
0
0
0
0
0
0
0
0
0
0
0
0
0
0
0
0
0
0
0
0
0
0
0
0
0
0
0
0
0
0
0
0
0
0
0
0
0
0
0
0
0
0
0
0
0
0
0
0
0
0
0
0
0
0
0
0
0
0
0
0
0
0
0
0
0
0
0
0
0
0
0
0
0
0
0
0
0
0
0
0
0
0
0
0
0
0
0
0
0
0
0
0
0
0
0
0
0
0
0
0
0
0
0
0
0
0
0
0
0
0
0
0
0
0
0
0
0
0
0
0
0
0
0
0
0
0
0
0
0
0
0
0
0
0
0
0
0
0
0
0
0
0
0
0
0
0
0
0
0
0
0
0
0
0
0
0
0
0
0
0
0
0
0
0
0
0
0
0
0
0
0
0
0
0
0
0
0
0
0
0
0
0
0
0
0
0
0
0
0
0
0
0
0
0
0
0
0
0
0
0
0
0
0
0
0
0
0
0
0
0
0
0
0
0
0
0
0
0
0
0
0
0
0
0
0
0
0
0
0
0
0
0
0
0
0
0
0
0
0
0
0
0
0
0
0
0
0
0
0
0
0
0
0
0
0
0
0
0
0
0
0
0
0
0
0
0
0
0
0
0
0
0
0
0
0
0
0
0
0
0
0
0
0
0
0
0
0
0
0
0
0
0
0
0
0
0
0
0
0
0
0
0
0
0
0
0
0
0
0
0
0
0
0
0
0
0
0
0
0
0
0
0
0
0
0
0
0
0
0
0
0
0
0
0
0
0
0
0
0
0
0
0
0
0
0
0
0
0
0
0
0
0
0
0
0
0
0
0
0
0
0
0
0
0
0
0
0
0
0
0
0
0
0
0
0
0
0
0
0
0
0
0
0
0
0
0
0
0
0
0
0
0
0
0
0
0
0
0
0
0
0
0
0
0
0
0
0
0
0
0
0
0
0
0
0
0
0
0
0
0
0
0
0
0
0
0
0
0
0
0
0
0
0
0
0
0
0
0
0
0
0
0
0
0
0
0
0
0
0
0
0
0
0
0
0
0
0
0
0
0
0
0
0
0
0
0
0
0
0
0
0
0
0
0
0
0
0
0
0
0
0
0
0
0
0
0
0
0
0
0
0
0
0
0
0
0
0
0
0
0
0
0
0
0
0
0
0
0
0
0
0
0
0
0
0
0
0
0
0
0
0
0
0
0
0
0
0
0
0
0
0
0
0
0
0
0
0
0
0
0
0
0
0
0
0
0
0
0
0
0
0
0
0
0
0
0
0
0
0
0
0
0
0
0
0
0
0
0
0
0
0
0
0
0
0
0
0
0
0
0
0
0
0
0
0
0
0
0
0
0
0
0
0
0
0
0
0
0
0
0
0
0
0
0
0
0
0
0
0
0
0
0
0
0
0
0
0
0
0
0
0
0
0
0
0
0
0
0
0
0
0
0
0
0
0
0
0
0
0
0
0
0
0
0
0
0
0
0
0
0
0
0
0
0
0
0
0
0
0
0
0
0
0
0
0
0
0
0
0
0
0
0
0
0
0
0
0
0
0
0
0
0
0
0
0
0
0
0
0
0
0
0
0
0
0
0
0
0
0
0
0
0
0
0
0
0
0
0
0
0
0
0
0
0
0
0
0
0
0
0
0
0
0
0
0
0
0
0
0
0
0
0
0
0
0
0
0
0
0
0
0
0
0
0
0
0
0
0
0
0
0
0
0
0
0
0
0
0
0
0
0
0
0
0
0
0
0
0
0
0
0
0
0
0
0
0
0
0
0
0
0
0
0
0
0
0
0
0
0
0
0
0
0
0
0
0
0
0
0
0
0
0
0
0
0
0
0
0
0
0
0
0
0
0
0
0
0
0
0
0
0
0
0
0
0
0
0
0
0
0
0
0
0
0
0
0
0
0
0
0
0
0
0
0
0
0
0
0
0
0
0
0
0
0
0
0
0
0
0
0
0
0
0
0
0
0
0
0
0
0
0
0
0
0
0
0
0
0
0
0
0
0
0
0
0
0
0
0
0
0
0
0
0
0
0
0
0
0
0
0
0
0
0
0
0
0
0
0
0
0
0
0
0
0
0
0
0
0
0
0
0
0
0
0
0
0
0
0
0
0
0
0
0
0
0
0
0
0
0
0
0
0
0
0
0
0
0
0
0
0
0
0
0
0
0
0
0
0
0
0
0
0
0
0
0
0
0
0
0
0
0
0
0
0
0
0
0
0
0
0
0
0
0
0
0
0
0
0
0
0
0
0
0
0
0
0
0
0
0
0
0
0
0
0
0
0
0
0
0
0
0
0
0
0
0
0
0
0
0
0
0
0
0
0
0
0
0
0
0
0
0
0
0
0
0
0
0
0
0
0
0
0
0
0
0
0
0
0
0
0
0
0
0
0
0
0
0
0
0
0
0
0
0
0
0
0
0
0
0
0
0
0
0
0
0
0
0
0
0
0
0
0
0
0
0
0
0
0
0
0
0
0
0
0
0
0
0
0
0
0
0
0
0
0
0
0
0
0
0
0
0
0
0
0
0
0
0
0
0
0
0
0
0
0
0
0
0
0
0
0
0
0
0
0
0
0
0
0
0
0
0
0
0
0
0
0
0
0
0
0
0
0
0
0
0
0
0
0
0
0
0
0
0
0
0
0
0
0
0
0
0
0
0
0
0
0
0
0
0
0
0
0
0
0
0
0
0
0
0
0
0
0
0
0
0
0
0
0
0
0
0
0
0
0
0
0
0
0
0
0
0
0
0
0
0
0
0
0
0
0
0
0
0
0
0
0
0
0
0
0
0
0
0
0
0
0
0
0
0
0
0
0
0
0
0
0
0
0
0
0
0
0
0
0
0
0
0
0
0
0
0
0
0
0
0
0
0
0
0
0
0
0
0
0
0
0
0
0
0
0
0
0
0
0
0
0
0
0
0
0
0
0
0
0
0
0
0
0
0
0
0
0
0
0
0
0
0
0
0
0
0
0
0
0
0
0
0
0
0
0
0
0
0
0
0
0
0
0
0
0
0
0
0
0
0
0
0
0
0
0
0
0
0
0
0
0
0
0
0
0
0
0
0
0
0
0
0
0
0
0
0
0
0
0
0
0
0
0
0
0
0
0
0
0
0
0
0
0
0
0
0
0
0
0
0
0
0
0
0
0
0
0
0
0
0
0
0
0
0
0
0
0
0
0
0
0
0
0
0
0
0
0
0
0
0
0
0
0
0
0
0
0
0
0
0
0
0
0
0
0
0
0
0
0
0
0
0
0
0
0
0
0
0
0
0
0
0
0
0
0
0
0
0
0
0
0
0
0
0
0
0
0
0
0
0
0
0
0
0
0
0
0
0
0
0
0
0
0
0
0
0
0
0
0
0
0
0
0
0
0
0
0
0
0
0
0
0
0
0
0
0
0
0
0
0
0
0
0
0
0
0
0
0
0
0
0
0
0
0
0
0
0
0
0
0
0
0
0
0
0
0
0
0
0
0
0
0
0
0
0
0
0
0
0
0
0
0
0
0
0
0
0
0
0
0
0
0
0
0
0
0
0
0
0
0
0
0
0
0
0
0
0
0
0
0
0
0
0
0
0
0
0
0
0
0
0
0
0
0
0
0
0
0
0
0
0
0
0
0
0
0
0
0
0
0
0
0
0
0
0
0
0
0
0
0
0
0
0
0
0
0
0
0
0
0
0
0
0
0
0
0
0
0
0
0
0
0
0
0
0
0
0
0
0
0
0
0
0
0
0
0
0
0
0
0
0
0
0
0
0
0
0
0
0
0
0
0
0
0
0
0
0
0
0
0
0
0
0
0
0
0
0
0
0
0
0
0
0
0
0
0
0
0
0
0
0
0
0
0
0
0
0
0
0
0
0
0
0
0
0
0
0
0
0
0
0
0
0
0
0
0
0
0
0
0
0
0
0
0
0
0
0
0
0
0
0
0
0
0
0
0
0
0
0
0
0
0
0
0
0
0
0
0
0
0
0
0
0
0
0
0
0
0
0
0
0
0
0
0
0
0
0
0
0
0
0
0
0
0
0
0
0
0
0
0
0
0
0
0
0
0
0
0
0
0
0
0
0
0
0
0
0
0
0
0
0
0
0
0
0
0
0
0
0
0
0
0
0
0
0
0
0
0
0
0
0
0
0
0
0
0
0
0
0
0
0
0
0
0
0
0
0
0
0
0
0
0
0
0
0
0
0
0
0
0
0
0
0
0
0
0
0
0
0
0
0
0
0
0
0
0
0
0
0
0
0
0
0
0
0
0
0
0
0
0
0
0
0
0
0
0
0
0
0
0
0
0
0
0
0
0
0
0
0
0
0
0
0
0
0
0
0
0
0
0
0
0
0
0
0
0
0
0
0
0
0
0
0
0
0
0
0
0
0
0
0
0
0
0
0
0
0
0
0
0
0
0
0
0
0
0
0
0
0
0
0
0
0
0
0
0
0
0
0
0
0
0
0
0
0
0
0
0
0
0
0
0
0
0
0
0
0
0
0
0
0
0
0
0
0
0
0
0
0
0
0
0
0
0
0
0
0
0
0
0
0
0
0
0
0
0
0
0
0
0
0
0
0
0
0
0
0
0
0
0
0
0
0
0
0
0
0
0
0
0
0
0
0
0
0
0
0
0
0
0
0
0
0
0
0
0
0
0
0
0
0
0
0
0
0
0
0
0
0
0
0
0
0
0
0
0
0
0
0
0
0
0
0
0
0
0
0
0
0
0
0
0
0
0
0
0
0
0
0
0
0
0
0
0
0
0
0
0
0
0
0
0
0
0
0
0
0
0
0
0
0
0
0
0
0
0
0
0
0
0
0
0
0
0
0
0
0
0
0
0
0
0
0
0
0
0
0
0
0
0
0
0
0
0
0
0
0
0
0
0
0
0
0
0
0
0
0
0
0
0
0
0
0
0
0
0
0
0
0
0
0
0
0
0
0
0
0
0
0
0
0
0
0
0
0
0
0
0
0
0
0
0
0
0
0
0
0
0
0
0
0
0
0
0
0
0
0
0
0
0
0
0
0
0
0
0
0
0
0
0
0
0
0
0
0
0
0
0
0
0
0
0
0
0
0
0
0
0
0
0
0
0
0
0
0
0
0
0
0
0
0
0
0
0
0
0
0
0
0
0
0
0
0
0
0
0
0
0
0
0
0
0
0
0
0
0
0
0
0
0
0
0
0
0
0
0
0
0
0
0
0
0
0
0
0
0
0
0
0
0
0
0
0
0
0
0
0
0
0
0
0
0
0
0
0
0
0
0
0
0
0
0
0
0
0
0
0
0
0
0
0
0
0
0
0
0
0
0
0
0
0
0
0
0
0
0
0
0
0
0
0
0
0
0
0
0
0
0
0
0
0
0
0
0
0
0
0
0
0
0
0
0
0
0
0
0
0
0
0
0
0
0
0
0
0
0
0
0
0
0
0
0
0
0
0
0
0
0
0
0
0
0
0
0
0
0
0
0
0
0
0
0
0
0
0
0
0
0
0
0
0
0
0
0
0
0
0
0
0
0
0
0
0
0
0
0
0
0
0
0
0
0
0
0
0
0
0
0
0
0
0
0
0
0
0
0
0
0
0
0
0
0
0
0
0
0
0
0
0
0
0
0
0
0
0
0
0
0
0
0
0
0
0
0
0
0
0
0
0
0
0
0
0
0
0
0
0
0
0
0
0
0
0
0
0
0
0
0
0
0
0
0
0
0
0
0
0
0
0
0
0
0
0
0
0
0
0
0
0
0
0
0
0
0
0
0
0
0
0
0
0
0
0
0
0
0
0
0
0
0
0
0
0
0
0
0
0
0
0
0
0
0
0
0
0
0
0
0
0
0
0
0
0
0
0
0
0
0
0
0
0
0
0
0
0
0
0
0
0
0
0
0
0
0
0
0
0
0
0
0
0
0
0
0
0
0
0
0
0
0
0
0
0
0
0
0
0
0
0
0
0
0
