3.16556
3.15138
3.12319
3.08084
3.02385
2.95145
2.86271
2.75664
2.63238
2.48964
2.32874
2.15088
1.95848
1.7551
1.54526
1.33408
1.12685
0.928527
0.743452
0.57504
0.425632
0.296407
0.187427
0.0978394
0.0257172
-0.0318443
-0.0779427
-0.115334
-0.146013
-0.171015
-0.190553
-0.204421
-0.212516
-0.215149
-0.213586
-0.209908
-0.206255
-0.204068
-0.203444
-0.202919
-0.199801
-0.190941
-0.173707
-0.146827
-0.110517
-0.0664894
-0.017173
0.0351028
0.088694
0.142756
0.196912
0.250677
0.302972
0.352148
0.39611
0.43294
0.461469
0.481655
0.494584
0.502099
0.506158
0.508183
0.508447
0.505875
0.498383
0.483469
0.459086
0.424422
0.380302
0.329096
0.274177
0.219157
0.167175
0.120245
0.0797424
0.0466431
0.0217621
0.00593414
0
0.000466919
0.0130341
0.0470032
0.21656
0.668405
1.555
3.006
4.87356
6.66114
7.66385
7.28615
5.37617
2.37218
-0.856545
-3.40412
-4.72621
-4.79704
-4.10924
-3.1566
-2.32616
-1.74837
-1.3547
-0.997473
-0.695227
-0.437811
-0.220952
-0.0467682
0.0811195
0.164696
0.211345
0.232497
0.241437
0.250819
0.269991
0.302932
0.350039
0.410138
0.480784
0.558409
0.639973
0.723995
0.811019
0.903476
1.00495
1.11911
1.24856
1.39406
1.5537
1.72402
1.90083
2.07956
2.2558
2.4257
2.58608
2.73441
2.86869
2.98728
3.08879
3.1718
3.23492
3.27698
3.2969
3.29365
3.26637
3.21465
3.13869
3.03963
2.91963
2.78197
2.63109
2.47192
2.30948
2.14839
1.99247
1.84436
1.70536
1.57565
1.4546
1.34135
1.23533
1.13665
1.04616
0.965273
0.895578
0.838374
0.79427
0.76291
0.742993
0.73239
0.728387
0.727972
0.727997
0.725427
0.717755
0.703307
0.681523
0.653094
0.619928
0.584877
0.551328
0.522711
0.501953
0.491451
0.492566
0.505632
0.529948
0.563897
0.605201
0.651293
0.699761
0.748791
0.797449
0.845725
0.89425
0.943856
0.995029
1.04745
1.09969
1.14911
1.1922
1.22502
1.24379
1.24536
1.22767
1.19
1.13314
1.05939
0.972523
0.877411
0.779375
0.683481
0.593813
0.513156
0.442547
0.380542
0.323895
0.268563
0.210798
0.148138
0.0798248
0
0.0327309
0.614532
1.92304
3.90938
6.15526
7.9115
8.36558
7.04096
4.10363
0.36488
-3.05976
-5.2518
-5.85572
-5.17368
-3.84109
-2.5099
-1.57164
-1.11066
-0.987418
-0.903872
-0.828326
-0.757594
-0.691481
-0.630139
-0.573563
-0.521611
-0.474049
-0.430619
-0.390865
-0.353947
-0.318452
-0.282185
-0.242153
-0.19479
-0.136464
-0.0641212
0.0241272
0.128519
0.247974
0.380593
0.524166
0.676692
0.836743
1.00348
1.17633
1.35452
1.53668
1.72057
1.90301
2.07969
2.24479
2.39122
2.51249
2.60298
2.65832
2.67593
2.6554
2.59843
2.50848
2.39015
2.24862
2.09029
1.92096
1.74491
1.56536
1.38483
1.20507
1.02708
0.851288
0.677783
0.506798
0.339078
0.176186
0.0205933
-0.124437
-0.255171
-0.367858
-0.459264
-0.527143
-0.57024
-0.588562
-0.584656
-0.564456
-0.536322
-0.509221
-0.491403
-0.48913
-0.505741
-0.541216
-0.592287
-0.653049
-0.715948
-0.773137
-0.817961
-0.845401
-0.851949
-0.836161
-0.798596
-0.741497
-0.668279
-0.582916
-0.48933
-0.390656
-0.288831
-0.184494
-0.0771996
0.0341537
0.150646
0.272617
0.399238
0.52784
0.653272
0.768871
0.867842
0.944627
0.995979
1.02146
1.02325
1.00536
0.972657
0.929951
0.881512
0.830305
0.77814
0.726025
0.674315
0.622785
0.570686
0.516911
0.460276
0.399881
0.335471
0.267657
0.197919
0.128354
0.0612572
0
-0.0271133
0.284533
0.996472
2.32428
4.33309
6.72487
8.80275
9.71107
8.85888
6.27493
2.65428
-0.950069
-3.60536
-4.86367
-4.83226
-3.98614
-2.85095
-1.79738
-0.974258
-0.371615
0.046627
0.31151
0.519006
0.695387
0.848257
0.980582
1.09398
1.19057
1.2734
1.3462
1.41296
1.47772
1.54428
1.61594
1.69517
1.78341
1.88101
1.98732
2.10104
2.22079
2.34532
2.4738
2.60585
2.74145
2.88073
3.02388
3.17099
3.32202
3.47668
3.63443
3.79401
3.95216
4.10204
4.23416
4.33748
4.40132
4.41763
4.38259
4.29732
4.16742
4.00175
3.81092
3.60631
3.3968
3.18857
2.98571
2.79129
2.60785
2.43722
2.28036
2.1373
2.00698
1.88726
1.77514
1.66708
1.5596
1.44981
1.33593
1.21768
1.09633
0.974532
0.855861
0.74422
0.643227
0.555701
0.483329
0.426669
0.385342
0.358335
0.344303
0.341753
0.349104
0.364619
0.386256
0.41159
0.437856
0.462241
0.482426
0.497057
0.506099
0.510947
0.514251
0.519491
0.530434
0.550599
0.582597
0.628008
0.687842
0.762328
0.850704
0.951552
1.06231
1.17804
1.29122
1.39306
1.47523
1.53121
1.55751
1.55409
1.52403
1.47249
1.40523
1.32735
1.24274
1.15366
1.06116
0.965684
0.867653
0.76785
0.667491
0.568104
0.471292
0.378498
0.290822
0.208938
0.133109
0.0633034
0
-0.0358139
0.0829231
0.638593
1.74966
3.42592
5.411
7.15932
7.98004
7.32791
5.10833
1.80418
-1.68983
-4.45318
-5.91998
-6.06729
-5.2696
-4.05162
-2.84502
-1.8912
-1.27573
-1.00206
-0.813731
-0.641774
-0.480193
-0.33084
-0.19749
-0.0833763
0.00968475
0.0820106
0.136348
0.17764
0.212273
0.247034
0.287854
0.338609
0.401393
0.476918
0.564749
0.663688
0.772319
0.889444
1.01429
1.14643
1.28547
1.43062
1.58031
1.73192
1.88192
2.02605
2.15991
2.27949
2.38146
2.46345
2.52391
2.56191
2.57711
2.56959
2.53979
2.48854
2.41716
2.32743
2.22155
2.10206
1.97193
1.83429
1.69237
1.54953
1.40913
1.27418
1.14702
1.02896
0.920046
0.819113
0.724038
0.632227
0.54123
0.449361
0.356228
0.263081
0.172933
0.0906082
0.0220951
-0.0264801
-0.0498131
-0.0444607
-0.00966797
0.0530693
0.140289
0.243867
0.351801
0.451628
0.532956
0.589181
0.618491
0.623959
0.612729
0.594467
0.579434
0.576232
0.589849
0.621908
0.672067
0.739131
0.8214
0.916483
1.02175
1.13404
1.24793
1.35439
1.44278
1.50295
1.52792
1.51637
1.47383
1.41194
1.34574
1.28984
1.25317
1.23593
1.23667
1.25012
1.26864
1.28403
1.2891
1.27876
1.2504
1.20358
1.13948
1.06031
0.969233
0.869174
0.762577
0.651661
0.53854
0.425174
0.313264
0.204147
0.0988339
0
-0.0414574
0.308629
1.23104
2.85224
5.0381
7.31146
8.94365
9.228
7.8242
4.98178
1.48886
-1.65873
-3.69414
-4.36629
-3.98675
-3.11864
-2.23274
-1.5564
-1.06941
-0.647544
-0.293688
-0.0116436
0.21787
0.404828
0.557181
0.679971
0.777697
0.856355
0.922208
0.980735
1.03615
1.09132
1.14848
1.20992
1.27854
1.35783
1.45142
1.56219
1.69135
1.83692
1.9952
2.16129
2.32938
2.49343
2.64822
2.79003
2.91712
3.02975
3.12989
3.22061
3.30528
3.38687
3.46721
3.54659
3.62342
3.69414
3.7535
3.79549
3.81395
3.80338
3.75951
3.67983
3.5638
3.41293
3.23073
3.0228
2.79665
2.55998
2.31999
2.0835
1.85658
1.64403
1.44912
1.27347
1.11728
0.979723
0.859491
0.755271
0.666066
0.591238
0.530312
0.482603
0.446864
0.421016
0.401962
0.385784
0.36856
0.347098
0.319529
0.285585
0.246469
0.204377
0.161845
0.121143
0.0838605
0.0509757
0.022997
0.000224495
-0.0170493
-0.0284963
-0.0338616
-0.0331471
-0.0267488
-0.0153525
0.000222445
0.0193412
0.0418629
0.0683084
0.099791
0.137688
0.183123
0.236404
0.296668
0.361699
0.427793
0.490521
0.545443
0.58875
0.617658
0.630482
0.626449
0.605412
0.567793
0.514795
0.448116
0.370196
0.284614
0.196021
0.110112
0.0326994
-0.0312427
-0.0783908
-0.10755
-0.119665
-0.117365
-0.104223
-0.0839481
-0.0597129
-0.0327023
0
0.436457
1.49376
3.22325
5.31911
7.1096
7.79511
6.85232
4.36178
1.02731
-2.15211
-4.35967
-5.23911
-5.05568
-4.34648
-3.42842
-2.5443
-1.82573
-1.45246
-1.30009
-1.20006
-1.11637
-1.03879
-0.960899
-0.877662
-0.786149
-0.686305
-0.580012
-0.470403
-0.361476
-0.257369
-0.161474
-0.0755191
0.000698471
0.0693095
0.133983
0.199196
0.269286
0.347511
0.435372
0.532305
0.636078
0.744149
0.854291
0.965337
1.07755
1.19245
1.31214
1.43834
1.57141
1.71006
1.85014
1.98407
2.10297
2.19876
2.26583
2.30206
2.30861
2.28892
2.24716
2.18684
2.11113
2.0224
1.92168
1.80957
1.68726
1.55672
1.42052
1.28145
1.14212
1.00461
0.87035
0.740172
0.614441
0.493258
0.376655
0.264762
0.157931
0.0568504
-0.0373892
-0.123277
-0.198967
-0.262419
-0.311975
-0.346737
-0.366439
-0.372042
-0.36708
-0.356228
-0.344323
-0.335363
-0.331731
-0.333844
-0.340285
-0.348306
-0.354534
-0.355938
-0.350298
-0.336042
-0.312555
-0.280101
-0.239767
-0.193419
-0.143048
-0.0903202
-0.0362654
0.0188087
0.0751431
0.133177
0.193153
0.254786
0.317175
0.378907
0.43815
0.492751
0.540524
0.579692
0.609016
0.627956
0.636709
0.636083
0.627211
0.611189
0.588792
0.56047
0.526514
0.487237
0.443507
0.396954
0.34987
0.304755
0.26373
0.228086
0.19711
0.168056
0.137018
0.0999769
0.0538103
-0.00483189
-0.144912
0
0.850954
2.54404
4.88085
7.28556
8.94377
9.11252
7.47999
4.37603
0.684443
-2.52964
-4.48309
-4.9611
-4.33322
-3.20523
-2.1134
-1.30762
-0.767376
-0.413291
-0.23425
-0.105732
-0.000850296
0.0894388
0.170132
0.246955
0.32531
0.409107
0.499786
0.596293
0.696124
0.79587
0.891795
0.980519
1.05988
1.12941
1.19045
1.24602
1.30039
1.35844
1.42489
1.50347
1.59642
1.70394
1.82468
1.95657
2.09715
2.2441
2.39545
2.54964
2.70519
2.85972
3.0082
3.14183
3.24995
3.32144
3.34757
3.32434
3.25363
3.14269
3.00216
2.84351
2.67719
2.51023
2.34592
2.18562
2.02986
1.87862
1.73158
1.58838
1.44885
1.3131
1.18155
1.05483
0.933597
0.818419
0.709608
0.607175
0.510861
0.420228
0.334798
0.254198
0.178289
0.107257
0.0416269
-0.0177893
-0.0700726
-0.114389
-0.150122
-0.177044
-0.195445
-0.205941
-0.209315
-0.206401
-0.198087
-0.185453
-0.169875
-0.153537
-0.139525
-0.131302
-0.13196
-0.143318
-0.165125
-0.194671
-0.226972
-0.255539
-0.273546
-0.275443
-0.25818
-0.220971
-0.164236
-0.0900185
-0.00146599
0.0976265
0.20317
0.311192
0.417246
0.515966
0.601916
0.670412
0.718214
0.744287
0.750121
0.739356
0.716745
0.686824
0.652792
0.61622
0.577287
0.535774
0.492058
0.447679
0.405263
0.367776
0.33742
0.31455
0.297464
0.282377
0.264567
0.23979
0.205575
0.161954
0.10654
0
0.353882
1.43111
3.2988
5.67794
7.93196
9.24693
8.96662
6.92744
3.6011
-0.0633801
-3.04006
-4.65853
-4.81991
-4.0058
-2.83418
-1.82906
-1.2099
-0.93023
-0.775105
-0.643125
-0.520523
-0.40505
-0.29631
-0.193943
-0.097318
-0.00573339
0.0814222
0.16457
0.243867
0.319281
0.390799
0.458749
0.524154
0.589028
0.656538
0.730947
0.817298
0.920847
1.04629
1.19692
1.37385
1.57546
1.79732
2.03251
2.27241
2.50776
2.72978
2.93103
3.10579
3.25014
3.36243
3.44306
3.49352
3.51594
3.51276
3.48656
3.43997
3.37568
3.29642
3.20498
3.10418
2.99649
2.88395
2.76814
2.65001
2.52985
2.40728
2.28145
2.15129
2.01594
1.87515
1.72966
1.58137
1.43332
1.28944
1.15401
1.03106
0.923724
0.833785
0.761695
0.706269
0.664373
0.632209
0.606595
0.585904
0.570563
0.562867
0.56614
0.583439
0.616204
0.663325
0.72134
0.783721
0.842902
0.891937
0.925951
0.942965
0.94399
0.932479
0.913421
0.89245
0.87447
0.8634
0.862147
0.872396
0.89463
0.928363
0.972396
1.02525
1.0855
1.15187
1.22311
1.29781
1.37275
1.44154
1.49592
1.52764
1.53112
1.50558
1.45581
1.39085
1.32102
1.25436
1.19324
1.13499
1.07484
1.0067
0.925183
0.827462
0.714416
0.590717
0.463833
0.34226
0.233223
0.14041
0.0658416
0.0082325
-0.0359936
-0.0716748
-0.103891
-0.137754
-0.22533
0
0.915855
2.65245
5.01602
7.41546
9.0063
9.03808
7.24529
4.04522
0.388695
-2.67453
-4.45787
-4.8537
-4.25398
-3.19606
-2.121
-1.25215
-0.642249
-0.286489
-0.0802072
0.0843484
0.228709
0.358072
0.474115
0.578008
0.671292
0.756167
0.835372
0.911948
0.988967
1.06926
1.15513
1.24816
1.34903
1.45747
1.57243
1.69223
1.81502
1.93908
2.06317
2.18666
2.30958
2.43236
2.55555
2.67935
2.80316
2.9249
3.03991
3.14099
3.22022
3.27039
3.28711
3.27049
3.22556
3.1612
3.0876
3.01318
2.94156
2.871
2.79652
2.7107
2.60549
2.47413
2.31273
2.12122
1.90335
1.66605
1.41846
1.17
0.928785
0.701703
0.493871
0.308443
0.146671
0.00799351
-0.109462
-0.20836
-0.291649
-0.362179
-0.422479
-0.474691
-0.520661
-0.56205
-0.600294
-0.636478
-0.671158
-0.704182
-0.734605
-0.760773
-0.780529
-0.791519
-0.791571
-0.779182
-0.753741
-0.715721
-0.66672
-0.609341
-0.546817
-0.482762
-0.420541
-0.362826
-0.311315
-0.266689
-0.228774
-0.196803
-0.169662
-0.145973
-0.124189
-0.102472
-0.078685
-0.0505299
-0.0158707
0.0268127
0.0779484
0.13649
0.200149
0.265241
0.326968
0.380048
0.419316
0.440274
0.439549
0.415255
0.367265
0.29738
0.209393
0.108988
0.00342064
-0.0988396
-0.188503
-0.257524
-0.30034
-0.31491
-0.303129
-0.27043
-0.224567
-0.173853
-0.125302
-0.082888
-0.0474216
-0.0226288
0
0.490759
1.63157
3.4787
5.78629
7.94907
9.14453
8.68019
6.3795
2.76009
-1.14217
-4.22934
-5.81437
-5.84289
-4.80324
-3.36703
-2.09174
-1.24857
-0.853729
-0.721784
-0.603994
-0.492146
-0.385869
-0.286597
-0.195091
-0.11101
-0.032766
0.0422783
0.117246
0.194959
0.277196
0.364319
0.45525
0.548085
0.64091
0.732525
0.822761
0.912267
1.00191
1.09213
1.18249
1.27173
1.35884
1.44415
1.53023
1.62176
1.72448
1.84323
1.97992
2.1323
2.29446
2.45386
2.59654
2.71058
2.78866
2.82887
2.83348
2.80656
2.75146
2.67056
2.56681
2.44013
2.29032
2.119
1.93001
1.72923
1.52385
1.32126
1.12784
0.948979
0.788731
0.649675
0.532977
0.438508
0.36501
0.31023
0.271085
0.243964
0.225158
0.211237
0.199356
0.187455
0.174333
0.159629
0.143763
0.127854
0.113618
0.103228
0.0990723
0.10337
0.11797
0.144157
0.181288
0.225438
0.270301
0.309024
0.335944
0.348112
0.346119
0.333926
0.317729
0.304235
0.298735
0.303635
0.31866
0.342353
0.372628
0.407375
0.444994
0.484526
0.525345
0.56665
0.606982
0.64403
0.674785
0.695827
0.704533
0.699621
0.681611
0.652864
0.617136
0.578702
0.541299
0.507226
0.476773
0.448204
0.418592
0.385009
0.345661
0.300608
0.251814
0.202549
0.156377
0.115745
0.081456
0.0532322
0.0294045
0.00738297
-0.0156361
-0.0419922
-0.0730495
-0.10989
-0.161134
0
0.661338
1.96672
3.86004
5.9822
7.68327
8.22931
7.14778
4.52345
1.03612
-2.32253
-4.69613
-5.70092
-5.49524
-4.54365
-3.35396
-2.28785
-1.52046
-1.09608
-0.95402
-0.878428
-0.823954
-0.782621
-0.752497
-0.732563
-0.720826
-0.714501
-0.710345
-0.705029
-0.695472
-0.679164
-0.654203
-0.619147
-0.573019
-0.515305
-0.445947
-0.365378
-0.27452
-0.174756
-0.0678112
0.0444328
0.160176
0.277915
0.396558
0.515378
0.633775
0.750899
0.865155
0.973523
1.07161
1.15448
1.21733
1.25656
1.27068
1.26065
1.2296
1.18207
1.12284
1.05608
0.984248
0.907655
0.824662
0.732047
0.625955
0.502714
0.359834
0.19681
0.0155136
-0.179966
-0.383967
-0.590212
-0.792809
-0.987026
-1.16922
-1.33681
-1.48803
-1.62169
-1.73716
-1.83373
-1.91113
-1.97124
-2.01797
-2.05554
-2.08732
-2.11485
-2.13757
-2.15329
-2.15945
-2.15452
-2.13918
-2.11601
-2.08975
-2.06526
-2.04567
-2.03124
-2.01912
-2.00434
-1.98149
-1.94642
-1.89827
-1.83874
-1.77005
-1.69434
-1.61338
-1.52803
-1.43821
-1.34313
-1.24184
-1.13388
-1.01967
-0.900725
-0.779466
-0.658802
-0.541534
-0.42977
-0.324499
-0.225454
-0.131297
-0.0401188
0.0498768
0.139651
0.228749
0.314758
0.39328
0.458999
0.506813
0.533134
0.536864
0.519788
0.486268
0.442355
0.394542
0.348452
0.307582
0.27312
0.24458
0.220096
0.196964
0.172505
0.144794
0.113016
0.0733198
0
0.416877
1.63218
3.72068
6.36548
8.8449
10.2525
9.89165
7.64641
4.09964
0.299524
-2.70112
-4.27094
-4.34798
-3.39655
-2.07915
-0.835251
0.0569007
0.459943
0.714984
0.944329
1.15917
1.35812
1.53986
1.70361
1.8495
1.97888
2.09436
2.1996
2.29884
2.39618
2.49498
2.59733
2.70394
2.81438
2.92766
3.04289
3.1599
3.27962
3.40416
3.53646
3.67984
3.83734
4.01112
4.202
4.40914
4.62997
4.86034
5.09471
5.32521
5.53961
5.72298
5.86357
5.95316
5.98918
5.97611
5.92514
5.8519
5.77261
5.69994
5.63887
5.58667
5.53888
5.48996
5.43394
5.36561
5.28141
5.17974
5.06084
4.92632
4.77864
4.62089
4.45635
4.28831
4.12021
3.95594
3.79986
3.65626
3.52892
3.42055
3.33236
3.26405
3.21395
3.17958
3.15813
3.14685
3.14348
3.14629
3.15385
3.16485
3.17786
3.19116
3.20257
3.20937
3.20838
3.19616
3.16939
3.12531
3.06239
2.98089
2.88326
2.77432
2.66083
2.55064
2.45149
2.37058
2.3158
2.29026
2.28784
2.29919
2.31536
2.33077
2.34453
2.35934
2.37865
2.40354
2.43007
2.44916
2.44918
2.41967
2.35478
2.25501
2.12677
1.98016
1.82598
1.67299
1.52532
1.38443
1.25051
1.12276
0.999879
0.880675
0.764495
0.651496
0.542644
0.439498
0.343822
0.257154
0.180428
0.113743
0.0563253
0.00703735
-0.0317349
0
0.512078
1.70483
3.65895
6.10448
8.39834
9.71123
9.38469
7.28267
3.92197
0.274143
-2.66501
-4.29389
-4.46075
-3.88529
-2.92695
-1.97868
-1.22756
-0.721097
-0.386461
-0.122416
0.104127
0.300104
0.460657
0.582429
0.663984
0.70597
0.711181
0.684483
0.632595
0.564164
0.488205
0.412749
0.344408
0.288274
0.247634
0.223882
0.216813
0.225179
0.247351
0.281898
0.327931
0.385128
0.453411
0.532512
0.621643
0.718998
0.820848
0.921572
1.01492
1.09513
1.158
1.20157
1.22622
1.23398
1.2274
1.20839
1.17775
1.13441
1.0753
0.996539
0.894356
0.76608
0.610867
0.430084
0.22727
0.00771179
-0.222209
-0.455743
-0.686406
-0.908374
-1.11665
-1.30702
-1.47596
-1.62055
-1.73855
-1.82866
-1.8908
-1.92642
-1.9385
-1.93151
-1.91156
-1.88531
-1.85901
-1.8376
-1.82424
-1.82017
-1.82505
-1.83747
-1.85562
-1.87755
-1.90143
-1.92521
-1.94638
-1.96184
-1.96812
-1.96172
-1.93853
-1.89597
-1.83625
-1.76362
-1.68298
-1.59824
-1.51134
-1.4224
-1.33077
-1.23659
-1.14188
-1.05104
-0.96971
-0.902895
-0.853101
-0.819199
-0.796487
-0.777957
-0.756232
-0.726169
-0.686308
-0.637299
-0.581253
-0.521861
-0.463715
-0.411555
-0.369643
-0.34124
-0.328273
-0.331151
-0.348706
-0.378508
-0.417126
-0.460522
-0.504492
-0.545131
-0.578999
-0.603139
-0.615364
-0.614331
-0.59951
-0.571257
-0.530769
-0.475882
-0.376277
0
0.725154
2.03645
3.94245
6.07374
7.72253
8.14423
6.96463
4.41727
1.24109
-1.68685
-3.73492
-4.6858
-4.66262
-4.05028
-3.10987
-2.10511
-1.25206
-0.788101
-0.703348
-0.686618
-0.684901
-0.688422
-0.692786
-0.694153
-0.68945
-0.676363
-0.653188
-0.618872
-0.572951
-0.515422
-0.446513
-0.366547
-0.275363
-0.172198
-0.0557785
0.0753769
0.222478
0.38591
0.564839
0.757018
0.95895
1.16622
1.37399
1.57746
1.77233
1.95505
2.12302
2.27462
2.40914
2.52661
2.62756
2.71274
2.78277
2.83793
2.87823
2.90339
2.91291
2.90627
2.88319
2.84401
2.7895
2.72082
2.63932
2.54629
2.44265
2.32886
2.20495
2.07094
1.9274
1.77586
1.61897
1.46187
1.31143
1.17457
1.05665
0.96017
0.884275
0.825263
0.77791
0.737134
0.699257
0.662794
0.628199
0.597028
0.571134
0.551725
0.53885
0.531435
0.527038
0.521452
0.509315
0.485771
0.447749
0.395007
0.330563
0.260284
0.191644
0.131934
0.0864891
0.0565475
0.0399384
0.0333366
0.0332054
0.0361771
0.039917
0.0435898
0.04785
0.0544067
0.065316
0.0822228
0.105678
0.13485
0.167475
0.200091
0.228342
0.247871
0.255046
0.247524
0.224497
0.186588
0.135423
0.0730713
0.00127449
-0.078159
-0.163542
-0.252856
-0.343223
-0.430581
-0.509768
-0.575068
-0.621081
-0.643798
-0.642181
-0.616315
-0.568185
-0.501274
-0.420101
-0.329099
-0.231441
-0.127937
0
0.470344
1.60248
3.4232
5.51523
7.07611
7.26382
5.65453
2.5282
-1.21603
-4.47926
-6.4643
-6.96858
-6.34286
-5.18445
-4.01628
-3.10853
-2.49836
-2.1353
-1.92047
-1.73149
-1.55339
-1.38407
-1.22428
-1.07597
-0.942093
-0.827145
-0.736967
-0.676471
-0.648459
-0.653066
-0.686341
-0.739402
-0.798653
-0.84729
-0.867931
-0.845794
-0.774551
-0.657393
-0.501289
-0.313996
-0.10428
0.118161
0.343758
0.563968
0.771822
0.962136
1.13144
1.27789
1.40091
1.50093
1.57851
1.63358
1.6655
1.67378
1.65781
1.6165
1.54888
1.4546
1.33426
1.18929
1.02159
0.833164
0.626614
0.405094
0.171967
-0.0690821
-0.31297
-0.551137
-0.773334
-0.96957
-1.13206
-1.25686
-1.34456
-1.40004
-1.4312
-1.44716
-1.45669
-1.46616
-1.47898
-1.49639
-1.51802
-1.54233
-1.56713
-1.59015
-1.6095
-1.62403
-1.63332
-1.63767
-1.63777
-1.63445
-1.62833
-1.61959
-1.60781
-1.59212
-1.57143
-1.5448
-1.51167
-1.47207
-1.4265
-1.3757
-1.32027
-1.26051
-1.19637
-1.12763
-1.05428
-0.976895
-0.896956
-0.816835
-0.739559
-0.668301
-0.605705
-0.553284
-0.511
-0.477148
-0.448588
-0.421268
-0.390969
-0.354113
-0.308502
-0.253819
-0.191693
-0.125547
-0.0606617
-0.00301514
0.0420223
0.0707428
0.0817978
0.0763618
0.0577583
0.0306435
0
-0.0435436
-0.0833359
-0.118009
-0.14741
-0.172264
-0.193029
-0.205618
-0.0040081
0.738021
2.28845
4.60155
7.14556
9.00331
9.26251
7.50702
4.10801
0.10968
-3.24989
-5.10794
-5.2976
-4.32969
-2.94922
-1.73892
-0.926852
-0.468997
-0.263698
-0.110871
0.0209114
0.133527
0.228803
0.310596
0.383911
0.453867
0.524817
0.599784
0.680399
0.767543
0.861706
0.963252
1.07248
1.18947
1.31385
1.44456
1.57993
1.71786
1.85632
1.99375
2.12943
2.26358
2.39727
2.53207
2.66972
2.81172
2.95908
3.11209
3.27028
3.43223
3.59556
3.75632
3.90793
4.04173
4.14871
4.22014
4.2489
4.23057
4.16398
4.05123
3.89711
3.70834
3.49364
3.26233
3.02272
2.78198
2.54617
2.32052
2.10959
1.91683
1.74444
1.59278
1.46031
1.34407
1.24024
1.14465
1.05333
0.962933
0.871019
0.776282
0.678757
0.579744
0.481726
0.388068
0.302451
0.228177
0.167862
0.122478
0.090567
0.0686409
0.0522575
0.0371246
0.0201401
0.000110626
-0.0220436
-0.0436218
-0.0609283
-0.0703537
-0.0694611
-0.0575829
-0.0358765
-0.00694885
0.0254738
0.0575043
0.0860413
0.109544
0.128465
0.145253
0.163914
0.189213
0.225536
0.275919
0.342534
0.425569
0.519984
0.615584
0.700172
0.762041
0.792158
0.785745
0.742954
0.668642
0.5714
0.462074
0.35207
0.250832
0.164626
0.096347
0.0466225
0.0151367
0
0.00264282
0.0150749
0.0335823
0.0549034
0.0764854
0.0962563
0.105125
0.228764
0.908401
2.34694
4.41583
6.57176
8.00784
7.99905
6.27675
3.21609
-0.295012
-3.24881
-4.95283
-5.26121
-4.55499
-3.40107
-2.30239
-1.51923
-1.07813
-0.855009
-0.676518
-0.50923
-0.346905
-0.187137
-0.027932
0.132577
0.295734
0.461827
0.629612
0.796036
0.956303
1.10482
1.23627
1.34672
1.43447
1.50046
1.54817
1.58318
1.6125
1.64372
1.68399
1.73965
1.81582
1.91588
2.04096
2.18968
2.3583
2.54121
2.73083
2.91682
3.08711
3.23105
3.34052
3.41101
3.44185
3.43581
3.39802
3.33455
3.25098
3.15204
3.04112
2.91968
2.78775
2.64486
2.4906
2.32501
2.14881
1.96336
1.77053
1.57249
1.37141
1.16929
0.96796
0.769242
0.57528
0.388863
0.213592
0.0539017
-0.085672
-0.201305
-0.290318
-0.350333
-0.382969
-0.395238
-0.396021
-0.394153
-0.396617
-0.407392
-0.427196
-0.454073
-0.484451
-0.514254
-0.540101
-0.559495
-0.570267
-0.570661
-0.559359
-0.535533
-0.498915
-0.449868
-0.389365
-0.318887
-0.240255
-0.155501
-0.066803
0.0235764
0.112999
0.198106
0.275172
0.340874
0.39296
0.431033
0.457018
0.475052
0.490733
0.509889
0.53722
0.574738
0.621445
0.674818
0.730455
0.781617
0.819291
0.835066
0.822344
0.777909
0.703101
0.604143
0.491244
0.376594
0.271722
0.184243
0.114948
0.0630081
0.0260429
0
-0.0183113
-0.0254181
0.341296
1.29525
2.91981
5.0622
7.26897
8.84259
9.07555
7.59327
4.6198
0.967878
-2.29011
-4.29909
-4.75981
-4.01018
-2.67199
-1.35086
-0.380024
0.182752
0.373425
0.478033
0.567277
0.649576
0.727802
0.804538
0.881741
0.960441
1.04073
1.12206
1.20367
1.28513
1.36658
1.44888
1.53332
1.62125
1.71372
1.81108
1.91314
2.01926
2.1287
2.24099
2.35627
2.47542
2.60007
2.73228
2.87424
3.02768
3.19355
3.37166
3.56074
3.75841
3.96008
4.15564
4.32897
4.46321
4.54367
4.56191
4.51877
4.42453
4.29563
4.14905
3.99691
3.8441
3.69062
3.53572
3.37928
3.22252
3.06837
2.92112
2.78552
2.66565
2.56442
2.4825
2.41724
2.36294
2.31263
2.25967
2.19921
2.12907
2.05009
1.96562
1.88053
1.79998
1.72789
1.66635
1.61619
1.57682
1.54657
1.52324
1.50469
1.48929
1.4761
1.4649
1.45597
1.44985
1.447
1.44775
1.45223
1.46054
1.47303
1.49039
1.51373
1.54441
1.58367
1.63229
1.69009
1.75579
1.82703
1.90054
1.97229
2.03792
2.09345
2.13568
2.16255
2.17322
2.16787
2.14738
2.11283
2.06495
2.00397
1.92961
1.84112
1.73768
1.61906
1.48624
1.34172
1.18954
1.03478
0.88279
0.738476
0.605524
0.485117
0.37627
0.276406
0.182265
0.0907974
0
-0.0756004
0.393964
1.67446
3.80136
6.42372
8.7974
10.0141
9.40446
6.90742
3.16628
-0.73568
-3.75744
-5.32412
-5.46409
-4.64114
-3.42623
-2.24025
-1.2716
-0.54683
-0.0964233
0.0599205
0.162518
0.248943
0.327421
0.40099
0.471313
0.539182
0.604654
0.667419
0.727549
0.786226
0.846066
0.910956
0.985339
1.07327
1.17751
1.29827
1.43411
1.58282
1.74172
1.90792
2.07866
2.25135
2.42344
2.59215
2.75419
2.90576
3.04292
3.16254
3.26265
3.34307
3.40563
3.454
3.49311
3.52813
3.56337
3.60122
3.64152
3.67997
3.70849
3.71717
3.69642
3.63907
3.54163
3.40474
3.23259
3.03193
2.81163
2.5817
2.35038
2.12481
1.91181
1.71746
1.54667
1.40274
1.28687
1.19749
1.13068
1.08092
1.04209
1.00833
0.974893
0.938619
0.898127
0.853732
0.80713
0.760928
0.718111
0.681574
0.653685
0.635918
0.628566
0.630714
0.639857
0.651374
0.659569
0.659107
0.646279
0.619983
0.582154
0.537459
0.492344
0.453715
0.427081
0.415527
0.420803
0.442529
0.478432
0.5248
0.577007
0.6304
0.680742
0.724695
0.760095
0.785989
0.802392
0.809858
0.808975
0.799968
0.782594
0.756094
0.719565
0.672463
0.61503
0.548568
0.475471
0.398995
0.322864
0.250714
0.185719
0.130231
0.0855583
0.0519051
0.0284611
0.0136284
0.005336
0.00138588
0
0.00213242
0.0544872
0.571984
1.86667
4.00284
6.5839
8.77564
9.62546
8.53993
5.6408
1.76447
-1.91624
-4.42924
-5.39167
-5.05799
-4.05513
-2.98498
-2.17842
-1.65239
-1.24666
-0.883672
-0.611113
-0.391044
-0.209449
-0.057851
0.0708801
0.180831
0.276436
0.361883
0.440479
0.514581
0.585548
0.654351
0.72204
0.790024
0.860123
0.934405
1.01495
1.10355
1.20167
1.31064
1.43162
1.56564
1.7135
1.87555
2.05139
2.23955
2.43734
2.64077
2.84475
3.04316
3.22931
3.39675
3.5397
3.65334
3.734
3.77955
3.78896
3.76221
3.7002
3.60479
3.47872
3.32561
3.14981
2.95638
2.75114
2.54003
2.32865
2.12243
1.92642
1.74483
1.58092
1.43652
1.311
1.2022
1.10705
1.02242
0.945652
0.874961
0.809293
0.747981
0.690318
0.635271
0.58158
0.527929
0.47333
0.41751
0.361177
0.306096
0.255156
0.212101
0.1807
0.164275
0.16515
0.184256
0.220991
0.273351
0.338245
0.411901
0.490153
0.568938
0.644409
0.713017
0.772096
0.820162
0.857182
0.884572
0.90482
0.920802
0.935006
0.948927
0.962883
0.976286
0.988141
0.997506
1.00371
1.0062
1.00422
0.996389
0.980791
0.954994
0.916755
0.8647
0.798867
0.720901
0.633863
0.541711
0.448717
0.358641
0.274542
0.198922
0.133754
0.0803894
0.0396526
0.0120808
0
0.0251667
0.2678
0.822078
1.7637
3.24542
5.20711
7.21395
8.51737
8.38647
6.53725
3.37
-0.17737
-3.0873
-4.74028
-5.10905
-4.63661
-3.82854
-3.01888
-2.2949
-1.6105
-0.954256
-0.475896
-0.178222
0.0217445
0.165832
0.269417
0.335961
0.372376
0.388134
0.393892
0.399877
0.414085
0.441097
0.482147
0.535999
0.600727
0.674139
0.754528
0.841126
0.934041
1.03373
1.14028
1.25272
1.3688
1.48538
1.59897
1.70673
1.80721
1.90069
1.98887
2.07411
2.1581
2.24069
2.31771
2.38112
2.42109
2.42922
2.40123
2.33833
2.24654
2.13444
2.01041
1.88081
1.74879
1.61523
1.48023
1.34403
1.20754
1.07256
0.941541
0.817128
0.701642
0.596504
0.501968
0.417197
0.340517
0.269777
0.202687
0.137057
0.0709724
0.00293503
-0.0679306
-0.141652
-0.21722
-0.29254
-0.364627
-0.430021
-0.485361
-0.527961
-0.556142
-0.569394
-0.568292
-0.554271
-0.529393
-0.496002
-0.456637
-0.414301
-0.372072
-0.33229
-0.295948
-0.262258
-0.228624
-0.191161
-0.145701
-0.0890225
-0.019994
0.0594387
0.145733
0.233974
0.318693
0.394989
0.459457
0.510759
0.549743
0.579109
0.602703
0.624576
0.647982
0.674699
0.704345
0.733358
0.755899
0.765317
0.755783
0.723697
0.668514
0.592865
0.502049
0.403148
0.304022
0.211339
0.130877
0.0673496
0.0238846
0.00171356
0
0.0149952
0.0724804
0.386628
0.985998
2.05679
3.72361
5.80533
7.72604
8.69331
8.09226
5.86001
2.57982
-0.784339
-3.34635
-4.66149
-4.79899
-4.17795
-3.24299
-2.30918
-1.51318
-0.878289
-0.424903
-0.16674
0.0112511
0.151628
0.268074
0.366278
0.449508
0.521237
0.585105
0.644491
0.702298
0.760983
0.822789
0.890074
0.96553
1.0522
1.15318
1.27109
1.40738
1.56177
1.7319
1.91345
2.10066
2.28723
2.46727
2.63618
2.79113
2.93111
3.05642
3.16784
3.266
3.35061
3.42021
3.47255
3.50518
3.5163
3.50573
3.47555
3.43014
3.37567
3.31895
3.26607
3.2208
3.1836
3.15248
3.12311
3.08845
3.04028
2.97069
2.87374
2.7468
2.59134
2.41303
2.22108
2.02679
1.84154
1.67385
1.52994
1.41374
1.32723
1.26769
1.22836
1.20146
1.17997
1.15898
1.13631
1.11237
1.08938
1.07034
1.05792
1.05374
1.05898
1.07469
1.10172
1.1407
1.19194
1.25499
1.32846
1.40985
1.4944
1.57556
1.64647
1.70111
1.73546
1.74817
1.74069
1.71681
1.6818
1.64146
1.60114
1.56486
1.53527
1.51369
1.5003
1.49427
1.49389
1.4965
1.49861
1.49634
1.48598
1.4644
1.42933
1.37953
1.31472
1.23534
1.14247
1.0379
0.924102
0.80399
0.680884
0.558572
0.440921
0.331322
0.232128
0.144246
0.0670227
0
-0.0434143
0.08121
0.694499
2.04976
4.17331
6.70485
8.90223
9.87825
9.00848
6.29507
2.44723
-1.40778
-4.23059
-5.50075
-5.33828
-4.3138
-3.06036
-2.01062
-1.30757
-0.909316
-0.709893
-0.544239
-0.389041
-0.240704
-0.0985756
0.037479
0.167669
0.2925
0.412794
0.529535
0.643616
0.755552
0.865265
0.972008
1.07463
1.17204
1.26379
1.35052
1.43414
1.51774
1.60494
1.69915
1.80279
1.91653
2.03922
2.1683
2.30013
2.43073
2.5564
2.6742
2.78223
2.87951
2.96551
3.0395
3.10027
3.14623
3.17526
3.18491
3.17292
3.13778
3.07905
2.99739
2.89435
2.77199
2.63296
2.48007
2.31586
2.14271
1.96328
1.78064
1.59815
1.41922
1.24686
1.08332
0.929718
0.786037
0.65122
0.5236
0.401448
0.283545
0.169612
0.0605041
-0.0419319
-0.135282
-0.217146
-0.285601
-0.339664
-0.379674
-0.40689
-0.422995
-0.429554
-0.427601
-0.417481
-0.398975
-0.371613
-0.335036
-0.289384
-0.235177
-0.173125
-0.103976
-0.0282871
0.0537117
0.142055
0.236803
0.337706
0.44387
0.553571
0.664148
0.772195
0.873827
0.964988
1.04205
1.10254
1.14524
1.17025
1.17897
1.17373
1.15739
1.13267
1.10161
1.06515
1.02315
0.974493
0.917409
0.850206
0.771834
0.682358
0.583264
0.477542
0.369572
0.264911
0.170178
0.0917816
0.0351967
0.00414925
0
0.0347179
0.0912567
0.172339
0.327968
0.695894
1.49745
2.93744
4.93624
7.00243
8.34781
8.24349
6.42454
3.28291
-0.292086
-3.32958
-5.1917
-5.75624
-5.32385
-4.35409
-3.24751
-2.24028
-1.41904
-0.800371
-0.467568
-0.311378
-0.20757
-0.128703
-0.0662693
-0.0167828
0.0232479
0.0571743
0.087793
0.117139
0.146502
0.176767
0.208792
0.243777
0.283519
0.330466
0.387521
0.457637
0.543263
0.645797
0.765156
0.899609
1.04624
1.20134
1.36109
1.52222
1.68253
1.84094
1.99718
2.15096
2.30071
2.44172
2.56619
2.66407
2.72612
2.74709
2.72764
2.67412
2.59613
2.50299
2.40081
2.2919
2.17563
2.04999
1.91252
1.76169
1.5976
1.4223
1.23966
1.05493
0.874075
0.703095
0.547329
0.410902
0.29634
0.204388
0.134124
0.0831869
0.0480545
0.0246937
0.00934467
-0.00089016
-0.00768852
-0.011474
-0.011717
-0.00747128
0.00211477
0.0173148
0.0373145
0.0604166
0.0846197
0.108212
0.130211
0.15046
0.169361
0.187359
0.204434
0.219862
0.23234
0.240484
0.243513
0.241844
0.237374
0.233306
0.233557
0.24193
0.261074
0.292189
0.335152
0.388539
0.450057
0.517055
0.586903
0.657362
0.726535
0.792711
0.854196
0.909389
0.956976
0.995993
1.02594
1.04673
1.05841
1.06084
1.05286
1.03316
1.00041
0.954152
0.895683
0.828622
0.758586
0.691995
0.634694
0.591151
0.558996
0.53045
0.494728
0.441424
0.363767
0.260702
0.137224
0
-0.0974513
0.28604
1.32511
3.13228
5.5165
7.90644
9.48521
9.53021
7.79152
4.67851
1.11571
-1.87345
-3.61513
-3.99178
-3.41224
-2.41539
-1.4005
-0.556253
0.0765069
0.445562
0.674486
0.856317
1.01102
1.14312
1.25245
1.3393
1.40494
1.45143
1.48174
1.49985
1.51085
1.52066
1.53563
1.56162
1.60323
1.66317
1.74208
1.83888
1.9514
2.07718
2.21382
2.3596
2.51369
2.6755
2.84421
3.01832
3.19544
3.37194
3.54239
3.69916
3.83457
3.94205
4.01701
4.05767
4.06514
4.04276
3.99471
3.9246
3.83445
3.72638
3.60234
3.46327
3.31065
3.14731
2.97725
2.80489
2.63434
2.46862
2.3097
2.15859
2.01582
1.88182
1.75728
1.64319
1.54062
1.45042
1.37311
1.3087
1.25671
1.2163
1.18638
1.16563
1.15259
1.14555
1.14252
1.1413
1.13972
1.13577
1.12775
1.11428
1.09431
1.06711
1.0323
0.990186
0.941872
0.889598
0.836854
0.788389
0.749479
0.724979
0.718266
0.730377
0.760472
0.804519
0.855631
0.906425
0.950728
0.984972
1.00893
1.0256
1.0404
1.05976
1.08938
1.13239
1.19004
1.26193
1.34319
1.42462
1.49566
1.54663
1.5706
1.56456
1.52966
1.47055
1.39391
1.30682
1.21555
1.12405
1.03417
0.946455
0.860755
0.776614
0.693459
0.610705
0.527752
0.44395
0.358603
0.271069
0.180929
0.0881882
-0.00659599
-0.102299
-0.197351
-0.288769
-0.344561
0
0.893601
2.42515
4.47134
6.61206
8.20013
8.58982
7.43847
4.9174
1.68495
-1.3902
-3.60271
-4.66065
-4.58582
-4.07847
-3.32125
-2.54663
-1.89202
-1.48458
-1.28177
-1.15533
-1.06236
-0.989667
-0.932035
-0.886142
-0.848515
-0.815832
-0.785097
-0.753792
-0.719851
-0.681644
-0.637953
-0.587928
-0.531012
-0.466816
-0.394978
-0.315048
-0.226474
-0.128711
-0.0214432
0.0951534
0.220203
0.352058
0.488466
0.62689
0.76489
0.900518
1.03259
1.16076
1.28535
1.40697
1.52601
1.64204
1.75325
1.85615
1.94611
2.01806
2.06746
2.09128
2.08842
2.05967
2.00711
1.9331
1.83954
1.72814
1.60036
1.45744
1.30066
1.13219
0.955801
0.776921
0.602251
0.439116
0.294702
0.175371
0.0859924
0.0296719
0.0076149
0.0192516
0.0644638
0.144841
0.257375
0.383849
0.499361
0.580201
0.610252
0.586181
0.519016
0.431083
0.349197
0.296621
0.279538
0.291211
0.325331
0.377287
0.441374
0.512046
0.584896
0.657364
0.728685
0.799546
0.871444
0.9459
1.0238
1.10458
1.18541
1.2612
1.32585
1.37381
1.40154
1.40846
1.39727
1.37319
1.34271
1.31196
1.28526
1.2642
1.24847
1.23696
1.22798
1.21978
1.21107
1.20127
1.19058
1.17973
1.16962
1.16079
1.15298
1.14457
1.13212
1.1109
1.07583
1.02287
0.950357
0.859801
0.755923
0.645707
0.536817
0.435651
0.345655
0.267989
0.201303
0.1425
0.0878044
0.0338249
-0.025824
0
0.62084
2.09923
4.41258
7.12169
9.43344
10.4855
9.72836
7.20572
3.56809
-0.191921
-3.13761
-4.71872
-4.88878
-4.03189
-2.697
-1.39187
-0.426591
0.102164
0.238944
0.313334
0.382899
0.453905
0.529708
0.613438
0.707582
0.813787
91
229
367
505
644
782
922
1064
1207
1348
1491
1633
1776
1918
2059
2198
2335
2473
2609
2748
2884
3021
3158
3296
3439
3583
3729
3484
3609
3732
3663
0
0
0
0
0
0
0
0
0
0
0
0
0
0
0
0
0
0
0
0
0
0
0
0
0
0
0
0
0
0
0
0
0
0
0
0
0
0
0
0
0
0
0
0
0
0
0
0
0
0
0
0
0
0
0
0
0
0
0
0
0
0
0
0
0
0
0
0
0
0
0
0
0
0
0
0
0
0
0
0
0
0
0
0
0
0
0
0
0
0
0
0
0
0
0
0
0
0
0
0
0
0
0
0
0
0
0
0
0
0
0
0
0
0
0
0
0
0
0
0
0
0
0
0
0
0
0
0
0
0
0
0
0
0
0
0
0
0
0
0
0
0
0
0
0
0
0
0
0
0
0
0
0
0
0
0
0
0
0
0
0
0
0
0
0
0
0
0
0
0
0
0
0
0
0
0
0
0
0
0
0
0
0
0
0
0
0
0
0
0
0
0
0
0
0
0
0
0
0
0
0
0
0
0
0
0
0
0
0
0
0
0
0
0
0
0
0
0
0
0
0
0
0
0
0
0
0
0
0
0
0
0
0
0
0
0
0
0
0
0
0
0
0
0
0
0
0
0
0
0
0
0
0
0
0
0
0
0
0
0
0
0
0
0
0
0
0
0
0
0
0
0
0
0
0
0
0
0
0
0
0
0
0
0
0
0
0
0
0
0
0
0
0
0
0
0
0
0
0
0
0
0
0
0
0
0
0
0
0
0
0
0
0
0
0
0
0
0
0
0
0
0
0
0
0
0
0
0
0
0
0
0
0
0
0
0
0
0
0
0
0
0
0
0
0
0
0
0
0
0
0
0
0
0
0
0
0
0
0
0
0
0
0
0
0
0
0
0
0
0
0
0
0
0
0
0
0
0
0
0
0
0
0
0
0
0
0
0
0
0
0
0
0
0
0
0
0
0
0
0
0
0
0
0
0
0
0
0
0
0
0
0
0
0
0
0
0
0
0
0
0
0
0
0
0
0
0
0
0
0
0
0
0
0
0
0
0
0
0
0
0
0
0
0
0
0
0
0
0
0
0
0
0
0
0
0
0
0
0
0
0
0
0
0
0
0
0
0
0
0
0
0
0
0
0
0
0
0
0
0
0
0
0
0
0
0
0
0
0
0
0
0
0
0
0
0
0
0
0
0
0
0
0
0
0
0
0
0
0
0
0
0
0
0
0
0
0
0
0
0
0
0
0
0
0
0
0
0
0
0
0
0
0
0
0
0
0
0
0
0
0
0
0
0
0
0
0
0
0
0
0
0
0
0
0
0
0
0
0
0
0
0
0
0
0
0
0
0
0
0
0
0
0
0
0
0
0
0
0
0
0
0
0
0
0
0
0
0
0
0
0
0
0
0
0
0
0
0
0
0
0
0
0
0
0
0
0
0
0
0
0
0
0
0
0
0
0
0
0
0
0
0
0
0
0
0
0
0
0
0
0
0
0
0
0
0
0
0
0
0
0
0
0
0
0
0
0
0
0
0
0
0
0
0
0
0
0
0
0
0
0
0
0
0
0
0
0
0
0
0
0
0
0
0
0
0
0
0
0
0
0
0
0
0
0
0
0
0
0
0
0
0
0
0
0
0
0
0
0
0
0
0
0
0
0
0
0
0
0
0
0
0
0
0
0
0
0
0
0
0
0
0
0
0
0
0
0
0
0
0
0
0
0
0
0
0
0
0
0
0
0
0
0
0
0
0
0
0
0
0
0
0
0
0
0
0
0
0
0
0
0
0
0
0
0
0
0
0
0
0
0
0
0
0
0
0
0
0
0
0
0
0
0
0
0
0
0
0
0
0
0
0
0
0
0
0
0
0
0
0
0
0
0
0
0
0
0
0
0
0
0
0
0
0
0
0
0
0
0
0
0
0
0
0
0
0
0
0
0
0
0
0
0
0
0
0
0
0
0
0
0
0
0
0
0
0
0
0
0
0
0
0
0
0
0
0
0
0
0
0
0
0
0
0
0
0
0
0
0
0
0
0
0
0
0
0
0
0
0
0
0
0
0
0
0
0
0
0
0
0
0
0
0
0
0
0
0
0
0
0
0
0
0
0
0
0
0
0
0
0
0
0
0
0
0
0
0
0
0
0
0
0
0
0
0
0
0
0
0
0
0
0
0
0
0
0
0
0
0
0
0
0
0
0
0
0
0
0
0
0
0
0
0
0
0
0
0
0
0
0
0
0
0
0
0
0
0
0
0
0
0
0
0
0
0
0
0
0
0
0
0
0
0
0
0
0
0
0
0
0
0
0
0
0
0
0
0
0
0
0
0
0
0
0
0
0
0
0
0
0
0
0
0
0
0
0
0
0
0
0
0
0
0
0
0
0
0
0
0
0
0
0
0
0
0
0
0
0
0
0
0
0
0
0
0
0
0
0
0
0
0
0
0
0
0
0
0
0
0
0
0
0
0
0
0
0
0
0
0
0
0
0
0
0
0
0
0
0
0
0
0
0
0
0
0
0
0
0
0
0
0
0
0
0
0
0
0
0
0
0
0
0
0
0
0
0
0
0
0
0
0
0
0
0
0
0
0
0
0
0
0
0
0
0
0
0
0
0
0
0
0
0
0
0
0
0
0
0
0
0
0
0
0
0
0
0
0
0
0
0
0
0
0
0
0
0
0
0
0
0
0
0
0
0
0
0
0
0
0
0
0
0
0
0
0
0
0
0
0
0
0
0
0
0
0
0
0
0
0
0
0
0
0
0
0
0
0
0
0
0
0
0
0
0
0
0
0
0
0
0
0
0
0
0
0
0
0
0
0
0
0
0
0
0
0
0
0
0
0
0
0
0
0
0
0
0
0
0
0
0
0
0
0
0
0
0
0
0
0
0
0
0
0
0
0
0
0
0
0
0
0
0
0
0
0
0
0
0
0
0
0
0
0
0
0
0
0
0
0
0
0
0
0
0
0
0
0
0
0
0
0
0
0
0
0
0
0
0
0
0
0
0
0
0
0
0
0
0
0
0
0
0
0
0
0
0
0
0
0
0
0
0
0
0
0
0
0
0
0
0
0
0
0
0
0
0
0
0
0
0
0
0
0
0
0
0
0
0
0
0
0
0
0
0
0
0
0
0
0
0
0
0
0
0
0
0
0
0
0
0
0
0
0
0
0
0
0
0
0
0
0
0
0
0
0
0
0
0
0
0
0
0
0
0
0
0
0
0
0
0
0
0
0
0
0
0
0
0
0
0
0
0
0
0
0
0
0
0
0
0
0
0
0
0
0
0
0
0
0
0
0
0
0
0
0
0
0
0
0
0
0
0
0
0
0
0
0
0
0
0
0
0
0
0
0
0
0
0
0
0
0
0
0
0
0
0
0
0
0
0
0
0
0
0
0
0
0
0
0
0
0
0
0
0
0
0
0
0
0
0
0
0
0
0
0
0
0
0
0
0
0
0
0
0
0
0
0
0
0
0
0
0
0
0
0
0
0
0
0
0
0
0
0
0
0
0
0
0
0
0
0
0
0
0
0
0
0
0
0
0
0
0
0
0
0
0
0
0
0
0
0
0
0
0
0
0
0
0
0
0
0
0
0
0
0
0
0
0
0
0
0
0
0
0
0
0
0
0
0
0
0
0
0
0
0
0
0
0
0
0
0
0
0
0
0
0
0
0
0
0
0
0
0
0
0
0
0
0
0
0
0
0
0
0
0
0
0
0
0
0
0
0
0
0
0
0
0
0
0
0
0
0
0
0
0
0
0
0
0
0
0
0
0
0
0
0
0
0
0
0
0
0
0
0
0
0
0
0
0
0
0
0
0
0
0
0
0
0
0
0
0
0
0
0
0
0
0
0
0
0
0
0
0
0
0
0
0
0
0
0
0
0
0
0
0
0
0
0
0
0
0
0
0
0
0
0
0
0
0
0
0
0
0
0
0
0
0
0
0
0
0
0
0
0
0
0
0
0
0
0
0
0
0
0
0
0
0
0
0
0
0
0
0
0
0
0
0
0
0
0
0
0
0
0
0
0
0
0
0
0
0
0
0
0
0
0
0
0
0
0
0
0
0
0
0
0
0
0
0
0
0
0
0
0
0
0
0
0
0
0
0
0
0
0
0
0
0
0
0
0
0
0
0
0
0
0
0
0
0
0
0
0
0
0
0
0
0
0
0
0
0
0
0
0
0
0
0
0
0
0
0
0
0
0
0
0
0
0
0
0
0
0
0
0
0
0
0
0
0
0
0
0
0
0
0
0
0
0
0
0
0
0
0
0
0
0
0
0
0
0
0
0
0
0
0
0
0
0
0
0
0
0
0
0
0
0
0
0
0
0
0
0
0
0
0
0
0
0
0
0
0
0
0
0
0
0
0
0
0
0
0
0
0
0
0
0
0
0
0
0
0
0
0
0
0
0
0
0
0
0
0
0
0
0
0
0
0
0
0
0
0
0
0
0
0
0
0
0
0
0
0
0
0
0
0
0
0
0
0
0
0
0
0
0
0
0
0
0
0
0
0
0
0
0
0
0
0
0
0
0
0
0
0
0
0
0
0
0
0
0
0
0
0
0
0
0
0
0
0
0
0
0
0
0
0
0
0
0
0
0
0
0
0
0
0
0
0
0
0
0
0
0
0
0
0
0
0
0
0
0
0
0
0
0
0
0
0
0
0
0
0
0
0
0
0
0
0
0
0
0
0
0
0
0
0
0
0
0
0
0
0
0
0
0
0
0
0
0
0
0
0
0
0
0
0
0
0
0
0
0
0
0
0
0
0
0
0
0
0
0
0
0
0
0
0
0
0
0
0
0
0
0
0
0
0
0
0
0
0
0
0
0
0
0
0
0
0
0
0
0
0
0
0
0
0
0
0
0
0
0
0
0
0
0
0
0
0
0
0
0
0
0
0
0
0
0
0
0
0
0
0
0
0
0
0
0
0
0
0
0
0
0
0
0
0
0
0
0
0
0
0
0
0
0
0
0
0
0
0
0
0
0
0
0
0
0
0
0
0
0
0
0
0
0
0
0
0
0
0
0
0
0
0
0
0
0
0
0
0
0
0
0
0
0
0
0
0
0
0
0
0
0
0
0
0
0
0
0
0
0
0
0
0
0
0
0
0
0
0
0
0
0
0
0
0
0
0
0
0
0
0
0
0
0
0
0
0
0
0
0
0
0
0
0
0
0
0
0
0
0
0
0
0
0
0
0
0
0
0
0
0
0
0
0
0
0
0
0
0
0
0
0
0
0
0
0
0
0
0
0
0
0
0
0
0
0
0
0
0
0
0
0
0
0
0
0
0
0
0
0
0
0
0
0
0
0
0
0
0
0
0
0
0
0
0
0
0
0
0
0
0
0
0
0
0
0
0
0
0
0
0
0
0
0
0
0
0
0
0
0
0
0
0
0
0
0
0
0
0
0
0
0
0
0
0
0
0
0
0
0
0
0
0
0
0
0
0
0
0
0
0
0
0
0
0
0
0
0
0
0
0
0
0
0
0
0
0
0
0
0
0
0
0
0
0
0
0
0
0
0
0
0
0
0
0
0
0
0
0
0
0
0
0
0
0
0
0
0
0
0
0
0
0
0
0
0
0
0
0
0
0
0
0
0
0
0
0
0
0
0
0
0
0
0
0
0
0
0
0
0
0
0
0
0
0
0
0
0
0
0
0
0
0
0
0
0
0
0
0
0
0
0
0
0
0
0
0
0
0
0
0
0
0
0
0
0
0
0
0
0
0
0
0
0
0
0
0
0
0
0
0
0
0
0
0
0
0
0
0
0
0
0
0
0
0
0
0
0
0
0
0
0
0
0
0
0
0
0
0
0
0
0
0
0
0
0
0
0
0
0
0
0
0
0
0
0
0
0
0
0
0
0
0
0
0
0
0
0
0
0
0
0
0
0
0
0
0
0
0
0
0
0
0
0
0
0
0
0
0
0
0
0
0
0
0
0
0
0
0
0
0
0
0
0
0
0
0
0
0
0
0
0
0
0
0
0
0
0
0
0
0
0
0
0
0
0
0
0
0
0
0
0
0
0
0
0
0
0
0
0
0
0
0
0
0
0
0
0
0
0
0
0
0
0
0
0
0
0
0
0
0
0
0
0
0
0
0
0
0
0
0
0
0
0
0
0
0
0
0
0
0
0
0
0
0
0
0
0
0
0
0
0
0
0
0
0
0
0
0
0
0
0
0
0
0
0
0
0
0
0
0
0
0
0
0
0
0
0
0
0
0
0
0
0
0
0
0
0
0
0
0
0
0
0
0
0
0
0
0
0
0
0
0
0
0
0
0
0
0
0
0
0
0
0
0
0
0
0
0
0
0
0
0
0
0
0
0
0
0
0
0
0
0
0
0
0
0
0
0
0
0
0
0
0
0
0
0
0
0
0
0
0
0
0
0
0
0
0
0
0
0
0
0
0
0
0
0
0
0
0
0
0
0
0
0
0
0
0
0
0
0
0
0
0
0
0
0
0
0
0
0
0
0
0
0
0
0
0
0
0
0
0
0
0
0
0
0
0
0
0
0
0
0
0
0
0
0
0
0
0
0
0
0
0
0
0
0
0
0
0
0
0
0
0
0
0
0
0
0
0
0
0
0
0
0
0
0
0
0
0
0
0
0
0
0
0
0
0
0
0
0
0
0
0
0
0
0
0
0
0
0
0
0
0
0
0
0
0
0
0
0
0
0
0
0
0
0
0
0
0
0
0
0
0
0
0
0
0
0
0
0
0
0
0
0
0
0
0
0
0
0
0
0
0
0
0
0
0
0
0
0
0
0
0
0
0
0
0
0
0
0
0
0
0
0
0
0
0
0
0
0
0
0
0
0
0
0
0
0
0
0
0
0
0
0
0
0
0
0
0
0
0
0
0
0
0
0
0
0
0
0
0
0
0
0
0
0
0
0
0
0
0
0
0
0
0
0
0
0
0
0
0
0
0
0
0
0
0
0
0
0
0
0
0
0
0
0
0
0
0
0
0
0
0
0
0
0
0
0
0
0
0
0
0
0
0
0
0
0
0
0
0
0
0
0
0
0
0
0
0
0
0
0
0
0
0
0
0
0
0
0
0
0
0
0
0
0
0
0
0
0
0
0
0
0
0
0
0
0
0
0
0
0
0
0
0
0
0
0
0
0
0
0
0
0
0
0
0
0
0
0
0
0
0
0
0
0
0
0
0
0
0
0
0
0
0
0
0
0
0
0
0
0
0
0
0
0
0
0
0
0
0
0
0
0
0
0
0
0
0
0
0
0
0
0
0
0
0
0
0
0
0
0
0
0
0
0
0
0
0
0
0
0
0
0
0
0
0
0
0
0
0
0
0
0
0
0
0
0
0
0
0
0
0
0
0
0
0
0
0
0
0
0
0
0
0
0
0
0
0
0
0
0
0
0
0
0
0
0
0
0
0
0
0
0
0
0
0
0
0
0
0
0
0
0
0
0
0
0
0
0
0
0
0
0
0
0
0
0
0
0
0
0
0
0
0
0
0
0
0
0
0
0
0
0
0
0
0
0
0
0
0
0
0
0
0
0
0
0
0
0
0
0
0
0
0
0
0
0
0
0
0
0
0
0
0
0
0
0
0
0
0
0
0
0
0
0
0
0
0
0
0
0
0
0
0
0
0
0
0
0
0
0
0
0
0
0
0
0
0
0
0
0
0
0
0
0
0
0
0
0
0
0
0
0
0
0
0
0
0
0
0
0
0
0
0
0
0
0
0
0
0
0
0
0
0
0
0
0
0
0
0
0
0
0
0
0
0
0
0
0
0
0
0
0
0
0
0
0
0
0
0
0
0
0
0
0
0
0
0
0
0
0
0
0
0
0
0
0
0
0
0
0
0
0
0
0
0
0
0
0
0
0
0
0
0
0
0
0
0
0
0
0
0
0
0
0
0
0
0
0
0
0
0
0
0
0
0
0
0
0
0
0
0
0
0
0
0
0
0
0
0
0
0
0
0
0
0
0
0
0
0
0
0
0
0
0
0
0
0
0
0
0
0
0
0
0
0
0
0
0
0
0
0
0
0
0
0
0
0
0
0
0
0
0
0
0
0
0
0
0
0
0
0
0
0
0
0
0
0
0
0
0
0
0
0
0
0
0
0
0
0
0
0
0
0
0
0
0
0
0
0
0
0
0
0
0
0
0
0
0
0
0
0
0
0
0
0
0
0
0
0
0
0
0
0
0
0
0
0
0
0
0
0
0
0
0
0
0
0
0
0
0
0
0
0
0
0
0
0
0
0
0
0
0
0
0
0
0
0
0
0
0
0
0
0
0
0
0
0
0
0
0
0
0
0
0
0
0
0
0
0
0
0
0
0
0
0
0
0
0
0
0
0
0
0
0
0
0
0
0
0
0
0
0
0
0
0
0
0
0
0
0
0
0
0
0
0
0
0
0
0
0
0
0
0
0
0
0
0
0
0
0
0
0
0
0
0
0
0
0
0
0
0
0
0
0
0
0
0
0
0
