0.250336
1.21618
2.5674
4.08427
5.32073
5.81072
5.33417
4.06093
2.471
1.10587
0.311295
0.112738
0.255024
0.129882
0.000919342
-0.127365
-0.250278
-0.361536
-0.454198
-0.522406
-0.552619
-0.518753
-0.405416
-0.252545
-0.109357
-0.01847
-0.00457382
-0.0691494
-0.192739
-0.343322
-0.486294
-0.591697
-0.656805
-0.690304
-0.682115
-0.579059
-0.356631
-0.0871964
0.135551
0.232006
0.171653
-0.00978661
-0.221408
-0.352997
-0.32157
-0.163137
0.115273
0.4715
0.80982
1.05814
1.18188
1.17883
1.06794
0.882535
0.670454
0.496331
0.422523
0.449635
0.541738
0.669971
0.81854
0.980639
1.14395
1.29441
1.41997
1.5124
1.56806
1.58767
1.57502
1.5352
1.47277
1.39094
1.29244
1.17873
1.05036
0.90778
0.752138
0.585655
0.411562
0.233632
0.0555382
-0.119742
-0.290323
-0.455465
-0.615305
-0.770372
-0.92105
-1.06714
-1.20766
-1.3408
-1.46389
-1.57318
-1.66545
-1.73857
-1.79146
-1.82429
-1.83848
-1.8364
-1.82102
-1.7955
-1.76284
-1.7261
-1.6877
-1.64979
-1.61444
-1.58344
-1.5582
-1.53962
-1.528
-1.52326
-1.52514
-1.53345
-1.54809
-1.56908
-1.59643
-1.62964
-1.66728
-1.70687
-1.74472
-1.77635
-1.79715
-1.80311
-1.79141
-1.76045
-1.70702
-1.62686
-1.52227
-1.41227
-1.3204
-1.26786
-1.26692
-1.31549
-1.39596
-1.47957
-1.53536
-1.54033
-1.50219
-1.42457
-1.31217
-1.19033
-1.08694
-1.02536
-1.01943
-1.07159
-1.17421
-1.31336
-1.47319
-1.6392
-1.80062
-1.95309
-2.09466
-2.21881
-2.28149
-2.09673
-1.63991
-1.10078
-0.680969
-0.530589
-0.683934
-1.05624
-1.49923
-1.86902
-2.04518
-2.05016
-2.00449
-1.94404
-1.87738
-1.81015
-1.74925
-1.70062
-1.66796
-1.6517
-1.64852
-1.65196
-1.6539
-1.64689
-1.62198
-1.57954
-1.53296
-1.50102
-1.50011
-1.53701
-1.60555
-1.68827
-1.7624
-1.80761
-1.81927
-1.80535
-1.77222
-1.72223
-1.6579
-1.58123
-1.49031
-1.37461
-1.22102
-1.05051
-0.905052
-0.831921
-0.858222
-0.971735
-1.12016
-1.23148
-1.24767
-1.16689
-1.04121
-0.905791
-0.796044
-0.734061
-0.720674
-0.737256
-0.756407
-0.755915
-0.728632
-0.689731
-0.648906
-0.613846
-0.589555
-0.577163
-0.574175
-0.575814
-0.576803
-0.573246
-0.563658
-0.547657
-0.525211
-0.496886
-0.46367
-0.426707
-0.387405
-0.34799
-0.310655
-0.277127
-0.248287
-0.224072
-0.203772
-0.186635
-0.172617
-0.16252
-0.157957
-0.160623
-0.171362
-0.189412
-0.212163
-0.235551
-0.254954
-0.266694
-0.269104
-0.262255
-0.247106
-0.225861
-0.201644
-0.178009
-0.158165
-0.144139
-0.136292
-0.133119
-0.131397
-0.126699
-0.114207
-0.0896994
-0.0504803
0.00322189
0.0687702
0.142905
0.221228
0.297844
0.366918
0.423812
0.465633
0.491299
0.501172
0.49643
0.478451
0.448514
0.408372
0.360298
0.305973
0.252005
0.209114
0.18877
0.199568
0.243811
0.320774
0.413944
0.502241
0.566985
0.597559
0.593486
0.562366
0.515093
0.460797
0.404099
0.345614
0.284572
0.219685
0.150283
0.0766708
0
-0.0856663
0.186306
0.954389
2.36459
4.34523
6.49545
8.16188
8.72284
7.93385
6.09982
3.9334
2.1771
1.23581
1.05222
1.26835
1.32197
1.35071
1.36414
1.35977
1.33821
1.3029
1.25934
1.21405
1.17266
1.13882
1.11381
1.09732
1.08494
1.07044
1.04788
1.01374
0.968426
0.916797
0.867362
0.83051
0.816184
0.828043
0.868011
0.940151
1.05248
1.19671
1.34375
1.46421
1.53576
1.54849
1.50686
1.42765
1.33516
1.25518
1.20774
1.19415
1.20892
1.24801
1.30878
1.38877
1.48526
1.59526
1.7157
1.84355
1.97582
2.1094
2.24075
2.36517
2.47815
2.57577
2.65535
2.71588
2.75792
2.78298
2.79262
2.78761
2.76765
2.73126
2.67654
2.60189
2.5066
2.39101
2.25632
2.10421
1.93791
1.7603
1.57345
1.37973
1.18222
0.984744
0.791731
0.60776
0.437012
0.282732
0.146756
0.0293068
-0.0708504
-0.156038
-0.229172
-0.293289
-0.351209
-0.405408
-0.458065
-0.511222
-0.566945
-0.627304
-0.694171
-0.76885
-0.851644
-0.941496
-1.03587
-1.13099
-1.22239
-1.30573
-1.37726
-1.43352
-1.47319
-1.49989
-1.51892
-1.53567
-1.55413
-1.5762
-1.60179
-1.62963
-1.65831
-1.68708
-1.71594
-1.74525
-1.77519
-1.80543
-1.83495
-1.8622
-1.88539
-1.90318
-1.91479
-1.91963
-1.91781
-1.90991
-1.89742
-1.88401
-1.87496
-1.87565
-1.89006
-1.91952
-1.96196
-2.01226
-2.06361
-2.10947
-2.14566
-2.1712
-2.18712
-2.19597
-2.20034
-2.20171
-2.19998
-2.1939
-2.1822
-2.16421
-2.14204
-2.12049
-2.10526
-2.10095
-2.10946
-2.12955
-2.15757
-2.18895
-2.21964
-2.24729
-2.27095
-2.28946
-2.3015
-2.30546
-2.2997
-2.28306
-2.25523
-2.21699
-2.17127
-2.12281
-2.07786
-2.04294
-2.02309
-2.02087
-2.03562
-2.06315
-2.0959
-2.12396
-2.13676
-2.12527
-2.08603
-2.02246
-1.93599
-1.83216
-1.72424
-1.62556
-1.54605
-1.48972
-1.45408
-1.43142
-1.41178
-1.38633
-1.35054
-1.30483
-1.25467
-1.20833
-1.17392
-1.15667
-1.15721
-1.17128
-1.1909
-1.20653
-1.20962
-1.19672
-1.16852
-1.12745
-1.07676
-1.02041
-0.962903
-0.908468
-0.860401
-0.820708
-0.790039
-0.767881
-0.752911
-0.743379
-0.737389
-0.733188
-0.729258
-0.724307
-0.717301
-0.707544
-0.694778
-0.679273
-0.662042
-0.64513
-0.631356
-0.623702
-0.624667
-0.635663
-0.656589
-0.685735
-0.720005
-0.755396
-0.787611
-0.813057
-0.829373
-0.835109
-0.829046
-0.809675
-0.776977
-0.737646
-0.702006
-0.679964
-0.677746
-0.695432
-0.726462
-0.759514
-0.782126
-0.784637
-0.767211
-0.735314
-0.691575
-0.640192
-0.587583
-0.541209
-0.506887
-0.48753
-0.482386
-0.487034
-0.494385
-0.496648
-0.487777
-0.465543
-0.432977
-0.395586
-0.360075
-0.33177
-0.312492
-0.299639
-0.286759
-0.265322
-0.227004
-0.168186
-0.0896774
0.0111584
0.137938
0.29258
0.469733
0.649545
0.805741
0.91258
0.947024
0.89474
0.757566
0.557669
0.334895
0.137415
0.00348587
-0.0739483
-0.116207
-0.129725
-0.115488
-0.082098
-0.0429974
-0.0118084
0
-0.0125805
-0.0549175
-0.125237
-0.218205
-0.326552
-0.442693
-0.560679
-0.677458
-0.78756
-0.590169
-0.00667801
1.12664
2.79168
4.67717
6.24177
6.95193
6.55742
5.22508
3.44414
1.77216
0.587571
-0.0182732
-0.18597
-0.180349
-0.234768
-0.289326
-0.341341
-0.388369
-0.428305
-0.45945
-0.481271
-0.495242
-0.504078
-0.510709
-0.517337
-0.524736
-0.53206
-0.537251
-0.537888
-0.532147
-0.519417
-0.500583
-0.477467
-0.451896
-0.424756
-0.395449
-0.36202
-0.321904
-0.273005
-0.214672
-0.149025
-0.0789856
-0.00756378
0.06222
0.128039
0.18875
0.244584
0.29697
0.348089
0.400222
0.4551
0.513384
0.574541
0.63658
0.696487
0.750995
0.797311
0.833712
0.859834
0.876624
0.886008
0.890384
0.892141
0.893138
0.894474
0.896479
0.898743
0.900155
0.898928
0.892623
0.878035
0.851217
0.808309
0.745837
0.661397
0.554299
0.425976
0.27997
0.121466
-0.0435638
-0.209351
-0.371495
-0.527107
-0.674894
-0.814901
-0.947991
-1.07521
-1.19724
-1.31402
-1.42469
-1.52779
-1.62169
-1.70488
-1.7763
-1.83637
-1.88733
-1.93215
-1.97376
-2.01419
-2.05393
-2.09196
-2.12621
-2.15455
-2.17417
-2.18532
-2.19386
-2.20804
-2.23522
-2.27855
-2.33503
-2.396
-2.44987
-2.48604
-2.50134
-2.49943
-2.48295
-2.45797
-2.4316
-2.4103
-2.39868
-2.39906
-2.41167
-2.43534
-2.46813
-2.50741
-2.55047
-2.5949
-2.63807
-2.67708
-2.70907
-2.73171
-2.74335
-2.74399
-2.73513
-2.71954
-2.70084
-2.68321
-2.67106
-2.66793
-2.67589
-2.69519
-2.72408
-2.759
-2.7952
-2.82771
-2.85246
-2.86813
-2.8747
-2.8733
-2.86804
-2.86416
-2.86621
-2.87671
-2.89543
-2.91953
-2.94462
-2.96637
-2.98202
-2.99152
-2.99746
-3.00435
-3.01712
-3.03962
-3.07331
-3.11674
-3.16565
-3.21378
-3.25437
-3.28212
-3.29388
-3.28504
-3.24851
-3.18099
-3.09769
-3.0209
-2.97119
-2.96045
-2.98758
-3.03886
-3.09349
-3.13179
-3.14221
-3.13148
-3.10893
-3.07937
-3.04568
-3.01019
-2.97444
-2.93924
-2.90489
-2.8714
-2.83882
-2.80737
-2.77747
-2.74975
-2.725
-2.70404
-2.68769
-2.67667
-2.67108
-2.67026
-2.67251
-2.67487
-2.67253
-2.65958
-2.62994
-2.57856
-2.50259
-2.40217
-2.28064
-2.14405
-2.0002
-1.85737
-1.72282
-1.60288
-1.50361
-1.42972
-1.38187
-1.35859
-1.35638
-1.36982
-1.39191
-1.41482
-1.43092
-1.43397
-1.42068
-1.39216
-1.34864
-1.29073
-1.2132
-1.09385
-0.872099
-0.542401
-0.190636
0.0643364
0.121157
-0.0552921
-0.411298
-0.819886
-1.1233
-1.18279
-1.10177
-0.986301
-0.861403
-0.737259
-0.622669
-0.52372
-0.443091
-0.380182
-0.332002
-0.294537
-0.264836
-0.240246
-0.219556
-0.202082
-0.18643
-0.169617
-0.147154
-0.114137
-0.0603504
0.0174438
0.106728
0.187874
0.241582
0.255464
0.226714
0.160697
0.0677059
-0.0394672
-0.146368
-0.242648
-0.322029
-0.379709
-0.406443
-0.385833
-0.309321
-0.197733
-0.0873684
-0.0132534
0
-0.0533085
-0.169305
-0.328752
-0.507838
-0.68513
-0.374424
0.459072
1.81779
3.51024
5.14076
6.21248
6.33803
5.45397
3.89308
2.23644
1.0189
0.474166
0.477235
0.624622
0.620821
0.610697
0.59748
0.58328
0.569923
0.558766
0.550557
0.545743
0.544827
0.54856
0.558081
0.574802
0.60007
0.635429
0.682774
0.740361
0.800282
0.852705
0.888738
0.903264
0.896637
0.874573
0.846253
0.82131
0.806499
0.801849
0.804944
0.812129
0.817935
0.817302
0.807347
0.788652
0.76566
0.74606
0.739316
0.754797
0.807915
0.960292
1.27396
1.64902
1.9775
2.17089
2.18166
2.02085
1.75937
1.50581
1.36813
1.40617
1.52053
1.65608
1.79678
1.93272
2.05554
2.15958
2.24232
2.3041
2.34724
2.37468
2.38852
2.38901
2.3748
2.34227
2.2871
2.20552
2.09561
1.95824
1.79738
1.6198
1.43426
1.24987
1.07427
0.91364
0.772614
0.653852
0.558034
0.484454
0.431702
0.3964
0.371622
0.349095
0.321111
0.281894
0.228698
0.162274
0.0865253
0.00738831
-0.068696
-0.136889
-0.194915
-0.241109
-0.274944
-0.296461
-0.305652
-0.302027
-0.284197
-0.245463
-0.169927
-0.0426409
0.111915
0.252188
0.334517
0.329634
0.234926
0.0776064
-0.0929848
-0.222281
-0.271748
-0.25134
-0.183806
-0.111486
-0.0798433
-0.118095
-0.226213
-0.375004
-0.518926
-0.614228
-0.569359
-0.351516
-0.068441
0.167631
0.281757
0.247556
0.0798151
-0.178781
-0.468143
-0.72007
-0.89528
-1.01775
-0.950823
-0.58213
-0.0740974
0.412861
0.723168
0.754542
0.497657
0.0387636
-0.47246
-0.869985
-0.972371
-0.872501
-0.742546
-0.612069
-0.495254
-0.404344
-0.347282
-0.32607
-0.336191
-0.367292
-0.405173
-0.435004
-0.445856
-0.42698
-0.384262
-0.336326
-0.305498
-0.307815
-0.345674
-0.406884
-0.470671
-0.517506
-0.537691
-0.541807
-0.537275
-0.530575
-0.526431
-0.526094
-0.52703
-0.524121
-0.511853
-0.485938
-0.443716
-0.392917
-0.345996
-0.315751
-0.310862
-0.333213
-0.377955
-0.436102
-0.498314
-0.558101
-0.613857
-0.666217
-0.715338
-0.759799
-0.796447
-0.820579
-0.826392
-0.808389
-0.762991
-0.689905
-0.592832
-0.477318
-0.354748
-0.23983
-0.145656
-0.0809153
-0.0482807
-0.0443848
-0.061236
-0.0884815
-0.115711
-0.135148
-0.143318
-0.138438
-0.119043
-0.0842401
-0.0340733
0.0310783
0.110977
0.203408
0.301155
0.393431
0.469403
0.52025
0.540932
0.531266
0.496055
0.444245
0.387198
0.336265
0.298767
0.276939
0.269515
0.273637
0.286095
0.302929
0.320206
0.334621
0.343802
0.34633
0.341564
0.329451
0.310686
0.285957
0.256351
0.223406
0.189111
0.15582
0.126027
0.102092
0.0860766
0.0794454
0.0828271
0.0960991
0.118736
0.148718
0.18062
0.208057
0.225682
0.230775
0.224221
0.210405
0.195935
0.187563
0.190032
0.202776
0.223589
0.249047
0.274324
0.294665
0.306447
0.307835
0.298915
0.281316
0.257525
0.230104
0.201156
0.171815
0.142467
0.113149
0.0839402
0.0554228
0.029413
0.00942459
0
0.00327129
0.025541
0.0680463
0.128807
0.202595
0.281992
0.289688
0.374025
0.939571
2.1863
3.95331
5.70548
6.7624
6.65622
5.40051
3.49639
1.66671
0.482717
0.112744
0.324577
0.402492
0.394556
0.354854
0.288734
0.209278
0.133303
0.0761168
0.0430347
0.0290724
0.0323767
0.0486996
0.0726191
0.0988363
0.123318
0.143913
0.159798
0.171275
0.179314
0.185096
0.189708
0.19406
0.198982
0.205422
0.214575
0.22787
0.246761
0.272395
0.305285
0.345076
0.390461
0.439724
0.491143
0.543236
0.595049
0.646291
0.697298
0.748841
0.801839
0.857044
0.914769
0.974698
1.03585
1.09661
1.1549
1.2084
1.2553
1.29474
1.32702
1.35356
1.37659
1.39846
1.42111
1.44491
1.46665
1.48078
1.4817
1.46593
1.43279
1.38338
1.31839
1.23637
1.13643
1.01905
0.883055
0.729721
0.563046
0.389062
0.214499
0.0449865
-0.116517
-0.267573
-0.406707
-0.532987
-0.645635
-0.743862
-0.826859
-0.893386
-0.94235
-0.975448
-0.998758
-1.02016
-1.04767
-1.08756
-1.14272
-1.21173
-1.28926
-1.36627
-1.43204
-1.47735
-1.4968
-1.49019
-1.46231
-1.42134
-1.37651
-1.33556
-1.30165
-1.27484
-1.25431
-1.23785
-1.22257
-1.20563
-1.18481
-1.15879
-1.12734
-1.09123
-1.05197
-1.01134
-0.971281
-0.933818
-0.901272
-0.876213
-0.860784
-0.856655
-0.864506
-0.883441
-0.910618
-0.941322
-0.969592
-0.989277
-0.995236
-0.984874
-0.957476
-0.91455
-0.859244
-0.795538
-0.727662
-0.659077
-0.592388
-0.529797
-0.473297
-0.42489
-0.386574
-0.359893
-0.345916
-0.344899
-0.355939
-0.376796
-0.403996
-0.433246
-0.460122
-0.480866
-0.493459
-0.497442
-0.493618
-0.48438
-0.473144
-0.463375
-0.457548
-0.456508
-0.459274
-0.463373
-0.465645
-0.463293
-0.454152
-0.438233
-0.419032
-0.401159
-0.388128
-0.38047
-0.37507
-0.366125
-0.347368
-0.312005
-0.257214
-0.194644
-0.142069
-0.116295
-0.126323
-0.169551
-0.23232
-0.294359
-0.335237
-0.342202
-0.319858
-0.276779
-0.216102
-0.140655
-0.0579191
0.0193516
0.0781784
0.108139
0.103794
0.0666565
0.00585613
-0.0631573
-0.121955
-0.153824
-0.15362
-0.127321
-0.0810774
-0.018911
0.050102
0.116373
0.171764
0.211074
0.232684
0.238253
0.231667
0.217633
0.200423
0.18293
0.166372
0.151008
0.136492
0.122205
0.10751
0.0918711
0.0748301
0.0558744
0.0342428
0.00930958
-0.0192204
-0.0508371
-0.0837847
-0.114866
-0.139714
-0.153669
-0.152939
-0.132885
-0.0928888
-0.03936
0.0173166
0.065885
0.0968874
0.104674
0.0883936
0.0519737
0.00323467
-0.0476383
-0.0901468
-0.115895
-0.121096
-0.107183
-0.0725088
-0.0180021
0.0471491
0.107399
0.148515
0.16162
0.146168
0.110507
0.0691692
0.0373766
0.0249298
0.0307629
0.04613
0.0636385
0.0767424
0.082052
0.0799439
0.0732958
0.065085
0.0561287
0.0443996
0.0260202
-0.00262527
-0.0424587
-0.0899197
-0.136615
-0.170675
-0.179105
-0.113177
0.0550137
0.271975
0.460932
0.558929
0.542972
0.434878
0.287125
0.159781
0.0983625
0.0952843
0.124989
0.175659
0.224934
0.250578
0.238274
0.187732
0.114036
0.0427456
0
0.00514355
0.0574924
0.132733
0.194326
0.208568
0.15757
0.0447725
-0.138681
-0.183226
0.338649
1.57866
3.48633
5.72538
7.69595
8.72517
8.38
6.72314
4.32811
2.01229
0.43878
-0.161522
0.00324116
0.478136
0.891045
1.18716
1.33526
1.32996
1.16659
0.848477
0.42484
0.0239328
-0.158795
-0.111625
0.0191513
0.174119
0.333608
0.479362
0.598488
0.686018
0.745149
0.785076
0.817215
0.851133
0.892506
0.939089
0.982335
1.01144
1.01774
0.998034
0.955836
0.900541
0.845225
0.80393
0.802882
0.938334
1.22117
1.55184
1.79872
1.85454
1.6947
1.39865
1.11462
0.985353
1.0719
1.23189
1.40347
1.57317
1.73379
1.87997
2.00858
2.11863
2.21082
2.28704
2.3497
2.40128
2.44391
2.47911
2.50763
2.52932
2.54299
2.5465
2.53723
2.51235
2.46928
2.40634
2.32317
2.221
2.10259
1.97177
1.83292
1.6904
1.54763
1.40706
1.27028
1.13821
1.01146
0.890668
0.776787
0.671099
0.575107
0.490316
0.417866
0.358276
0.31135
0.276172
0.251183
0.234298
0.2232
0.215165
0.207147
0.196296
0.180313
0.157813
0.128616
0.093852
0.0558723
0.0179579
-0.0161034
-0.0427853
-0.0588869
-0.0616432
-0.0491053
-0.0194048
0.030253
0.103434
0.198187
0.299115
0.386504
0.44231
0.45542
0.42524
0.361966
0.283253
0.208644
0.154039
0.121786
0.106714
0.104754
0.113419
0.130298
0.152135
0.174988
0.194976
0.208911
0.214805
0.212249
0.202552
0.188574
0.174235
0.163783
0.160815
0.167328
0.183847
0.209973
0.244145
0.282751
0.32109
0.354881
0.381081
0.398293
0.406649
0.407276
0.401602
0.390818
0.375967
0.357934
0.3377
0.31692
0.298004
0.283852
0.277296
0.280326
0.293719
0.317242
0.348884
0.384189
0.416869
0.441275
0.453965
0.454713
0.446616
0.435127
0.426213
0.424281
0.431323
0.445222
0.461791
0.477221
0.490103
0.501942
0.515923
0.534782
0.559078
0.586219
0.6136
0.638707
0.659954
0.676888
0.689774
0.698906
0.70421
0.705281
0.701469
0.692635
0.679609
0.664344
0.649706
0.638984
0.634765
0.638675
0.651827
0.674618
0.706603
0.746619
0.79298
0.843661
0.896475
0.94925
0.999897
1.04664
1.08812
1.12343
1.15209
1.17395
1.18895
1.19721
1.19892
1.19459
1.18523
1.17252
1.15883
1.14719
1.14073
1.14213
1.15308
1.17392
1.20361
1.23995
1.28013
1.32128
1.36109
1.39817
1.43197
1.46263
1.4907
1.51669
1.54068
1.56226
1.58066
1.59506
1.60517
1.61161
1.6159
1.62008
1.62608
1.63506
1.64683
1.66041
1.67425
1.68662
1.696
1.70125
1.70163
1.69679
1.68675
1.67208
1.65394
1.63424
1.61562
1.60104
1.59311
1.59348
1.60258
1.61918
1.64106
1.66566
1.69073
1.71467
1.73641
1.75507
1.76922
1.77694
1.77587
1.7638
1.73941
1.70292
1.65617
1.60219
1.5442
1.48463
1.42429
1.36228
1.2965
1.2245
1.14441
1.05565
0.958968
0.856085
0.748926
0.638414
0.523756
0.401207
0.269298
0.132108
0
0.0275736
0.653196
1.88546
3.6332
5.58912
7.28404
8.23457
8.14228
7.04794
5.34251
3.60806
2.36043
1.83136
1.90488
2.10894
2.06613
2.01337
1.95682
1.90288
1.85716
1.82326
1.80069
1.78696
1.77966
1.77577
1.77223
1.76645
1.75663
1.74187
1.72219
1.69833
1.67155
1.64334
1.61524
1.58874
1.56512
1.54599
1.53312
1.52832
1.5332
1.5488
1.57523
1.61155
1.65586
1.70567
1.75853
1.8125
1.8666
1.92082
1.9758
2.03256
2.09191
2.15125
2.2042
2.24324
2.26331
2.26474
2.25386
2.2407
2.23505
2.24289
2.26232
2.2892
2.32169
2.35897
2.40146
2.45163
2.51892
2.63129
2.81532
3.03048
3.20761
3.27741
3.20129
2.99115
2.7077
2.43553
2.24382
2.12816
2.03536
1.94488
1.84708
1.73359
1.59851
1.43929
1.25726
1.05745
0.848056
0.639054
0.44014
0.261784
0.119863
0.0450019
0.080373
0.218379
0.387613
0.515898
0.544545
0.440712
0.208544
-0.106653
-0.42733
-0.667832
-0.796868
-0.862735
-0.896218
-0.893437
-0.840076
-0.706554
-0.488208
-0.232637
-0.0154253
0.0714801
-0.0318046
-0.310764
-0.675508
-1.00113
-1.18112
-1.22521
-1.22193
-1.20115
-1.1694
-1.13115
-1.0906
-1.05152
-1.01766
-0.993065
-0.980839
-0.983363
-1.00185
-1.03594
-1.08357
-1.14119
-1.20448
-1.26913
-1.33152
-1.38957
-1.4417
-1.48645
-1.52241
-1.5481
-1.56207
-1.56159
-1.54311
-1.50787
-1.46961
-1.4461
-1.45377
-1.50175
-1.58785
-1.69843
-1.81241
-1.908
-1.96938
-2.00157
-2.00903
-1.99358
-1.95846
-1.90759
-1.84507
-1.77407
-1.70112
-1.63538
-1.58617
-1.56088
-1.56282
-1.58989
-1.63482
-1.68696
-1.73522
-1.77083
-1.79187
-1.80059
-1.7994
-1.79006
-1.77416
-1.75302
-1.72765
-1.69856
-1.66585
-1.62942
-1.58928
-1.54591
-1.50024
-1.45461
-1.41223
-1.37633
-1.34926
-1.33174
-1.32269
-1.3195
-1.31881
-1.31752
-1.3138
-1.30753
-1.29964
-1.29216
-1.28828
-1.29164
-1.30552
-1.33206
-1.37167
-1.42263
-1.48172
-1.5417
-1.59378
-1.62945
-1.64219
-1.62873
-1.58961
-1.52903
-1.45392
-1.37274
-1.29389
-1.22374
-1.16747
-1.12854
-1.10859
-1.10742
-1.12313
-1.15234
-1.19031
-1.23125
-1.26886
-1.29705
-1.30759
-1.28197
-1.20054
-1.08176
-0.963109
-0.885365
-0.878466
-0.952756
-1.09851
-1.2923
-1.50615
-1.71516
-1.8037
-1.46728
-0.775887
0.0705874
0.752862
0.989521
0.695967
0.0247412
-0.735518
-1.32607
-1.61595
-1.55362
-1.373
-1.04783
-0.591379
-0.111949
0.239972
0.315742
0.0591946
-0.432697
-0.936462
-1.20441
-1.05689
-0.753548
-0.402377
-0.118564
0
-0.0820364
-0.333905
-0.684329
-1.06822
-1.12431
-0.664106
0.415271
2.04035
3.89697
5.46967
6.21983
5.83966
4.43843
2.52681
0.778081
-0.300132
-0.586492
-0.333737
-0.213161
-0.167734
-0.139178
-0.126315
-0.126353
-0.135967
-0.15217
-0.172382
-0.194703
-0.217889
-0.240622
-0.261473
-0.279094
-0.29246
-0.300875
-0.304997
-0.306031
-0.305015
-0.302045
-0.295811
-0.283676
-0.262307
-0.228649
-0.180931
-0.119292
-0.045109
0.0388651
0.127399
0.209589
0.272588
0.304589
0.298002
0.253839
0.185024
0.115526
0.0738461
0.0826237
0.145143
0.252444
0.379267
0.495566
0.578344
0.620341
0.631993
0.636311
0.659415
0.720866
0.850428
1.02856
1.20424
1.32428
1.35684
1.30593
1.21031
1.12577
1.09875
1.14636
1.23122
1.33015
1.43647
1.54589
1.65634
1.76658
1.86938
1.93862
1.93143
1.80743
1.55315
1.1963
0.800832
0.44423
0.186972
-0.0119899
-0.142976
-0.224628
-0.284654
-0.350266
-0.438826
-0.552092
-0.676375
-0.788588
-0.865679
-0.89674
-0.884027
-0.834641
-0.761219
-0.677877
-0.597088
-0.528696
-0.480731
-0.458872
-0.466274
-0.502246
-0.560987
-0.631632
-0.700222
-0.753136
-0.780615
-0.785585
-0.769584
-0.735264
-0.686336
-0.626563
-0.560169
-0.489944
-0.41818
-0.347915
-0.282606
-0.225718
-0.180104
-0.147321
-0.127171
-0.117655
-0.115396
-0.11642
-0.117087
-0.115004
-0.108852
-0.0989059
-0.0862993
-0.0721983
-0.0570389
-0.0401512
-0.0199301
0.00551853
0.0375381
0.0761909
0.119625
0.165509
0.211155
0.25377
0.290792
0.319512
0.338386
0.346645
0.344387
0.332673
0.313535
0.289813
0.264774
0.241607
0.222902
0.20988
0.203233
0.203337
0.210339
0.224423
0.245933
0.275279
0.313294
0.3617
0.42001
0.478376
0.521907
0.535772
0.511197
0.450267
0.367025
0.283827
0.224098
0.204341
0.245273
0.326302
0.410864
0.463217
0.463802
0.416477
0.345082
0.281683
0.252431
0.262515
0.29459
0.337141
0.384444
0.431329
0.47371
0.509077
0.536519
0.556359
0.569523
0.57682
0.577828
0.571865
0.557698
0.534435
0.502541
0.464567
0.425246
0.390847
0.367951
0.361754
0.380885
0.433995
0.515692
0.602964
0.670428
0.698194
0.678129
0.61665
0.532773
0.451529
0.394776
0.36944
0.364102
0.370142
0.378977
0.382386
0.374936
0.355609
0.328126
0.299866
0.279669
0.275171
0.28784
0.316502
0.359669
0.409878
0.45809
0.495913
0.517443
0.520224
0.50517
0.475703
0.43658
0.393077
0.349785
0.310084
0.277029
0.253283
0.240997
0.241661
0.255955
0.283655
0.323627
0.373873
0.431694
0.493885
0.555494
0.608493
0.643943
0.653112
0.629404
0.57057
0.480454
0.36946
0.253299
0.150169
0.0961745
0.157127
0.302587
0.460853
0.554025
0.5342
0.405404
0.221872
0.0635026
0
0.0507488
0.153564
0.277309
0.411922
0.5511
0.684554
0.862655
1.46152
2.6301
4.25575
5.9323
7.10391
7.33308
6.53762
5.03817
3.38364
2.06681
1.30887
1.03113
0.991766
0.945544
0.90072
0.857854
0.818388
0.78404
0.756727
0.738273
0.730277
0.735634
0.75685
0.788353
0.820367
0.842447
0.846814
0.830884
0.797842
0.75513
0.711755
0.675771
0.650177
0.635266
0.632089
0.642088
0.666417
0.705815
0.760343
0.828982
0.909638
0.999667
1.09497
1.18879
1.2737
1.344
1.39711
1.43426
1.46015
1.48147
1.50493
1.53529
1.57434
1.62048
1.67254
1.72977
1.79277
1.86341
1.94417
2.03681
2.14125
2.25388
2.37066
2.4858
2.59144
2.67927
2.74326
2.77977
2.78783
2.76898
2.72668
2.6654
2.58948
2.5022
2.40579
2.30151
2.18936
2.06833
1.93725
1.79543
1.64314
1.48191
1.31477
1.14614
0.981463
0.826514
0.687437
0.571683
0.483963
0.420118
0.372593
0.33323
0.29614
0.259487
0.225447
0.1984
0.183026
0.182676
0.189394
0.189295
0.168489
0.119602
0.0456424
-0.0407066
-0.121963
-0.182563
-0.218272
-0.236728
-0.242312
-0.238965
-0.23106
-0.222509
-0.216066
-0.213163
-0.213987
-0.217813
-0.223497
-0.229969
-0.236662
-0.243707
-0.251959
-0.262691
-0.277117
-0.295875
-0.318673
-0.34421
-0.3704
-0.394815
-0.415171
-0.429975
-0.438429
-0.440103
-0.435074
-0.423863
-0.407351
-0.386766
-0.364263
-0.343218
-0.327415
-0.320082
-0.322871
-0.335044
-0.353219
-0.371871
-0.384565
-0.385595
-0.367653
-0.327219
-0.274968
-0.226968
-0.198753
-0.199522
-0.228719
-0.276192
-0.325679
-0.360174
-0.368328
-0.352212
-0.305577
-0.238399
-0.174207
-0.138169
-0.149137
-0.213081
-0.320208
-0.447098
-0.563307
-0.639872
-0.589933
-0.384894
-0.117979
0.101641
0.196703
0.145144
-0.0240182
-0.25106
-0.463783
-0.587353
-0.605553
-0.56552
-0.489877
-0.398784
-0.316511
-0.263366
-0.248054
-0.264175
-0.292715
-0.309495
-0.286843
-0.196106
-0.0667024
0.0473203
0.0936408
0.0452205
-0.0877275
-0.26143
-0.416965
-0.506744
-0.530596
-0.525383
-0.507985
-0.48695
-0.46872
-0.456233
-0.448582
-0.441744
-0.430085
-0.408179
-0.373988
-0.326599
-0.264901
-0.193786
-0.12367
-0.0655997
-0.0283284
-0.0160213
-0.0272327
-0.0554272
-0.0908373
-0.123099
-0.144585
-0.153621
-0.150242
-0.13601
-0.116534
-0.0984059
-0.0872263
-0.0858364
-0.0932981
-0.104947
-0.113557
-0.111332
-0.0927259
-0.0573973
-0.00717897
0.0550641
0.122198
0.186202
0.240125
0.279693
0.304077
0.315638
0.318753
0.318135
0.317213
0.317212
0.316455
0.311488
0.299065
0.278127
0.250897
0.22258
0.199789
0.188342
0.190722
0.20386
0.225269
0.251436
0.278308
0.301825
0.318909
0.328005
0.329377
0.325176
0.319264
0.316779
0.32376
0.354812
0.44066
0.586303
0.749845
0.873822
0.910127
0.841838
0.691093
0.509211
0.354255
0.266587
0.230315
0.215334
0.209862
0.206532
0.199137
0.18385
0.159869
0.129296
0.0962521
0.065453
0.0407103
0.0234121
0.0125352
0.00646029
0.00296278
0
-0.00501204
-0.0112009
-0.0390429
0.333696
1.30542
2.89132
4.81756
6.55942
7.54497
7.43156
6.29086
4.57717
2.89168
1.6894
1.10484
0.980529
1.01979
1.02489
1.03185
1.04283
1.05991
1.08429
1.11606
1.15427
1.19723
1.24259
1.28808
1.33213
1.37412
1.41438
1.45392
1.49391
1.53535
1.57882
1.62447
1.67246
1.72306
1.77676
1.83415
1.89575
1.96163
2.03127
2.10298
2.17368
2.23924
2.29508
2.33758
2.36475
2.37688
2.37691
2.37026
2.36417
2.36644
2.38391
2.42087
2.47675
2.54732
2.62814
2.71395
2.79898
2.87845
2.94969
3.01256
3.06948
3.12473
3.18348
3.25058
3.33324
3.4372
3.5579
3.68046
3.78684
3.86085
3.89128
3.87324
3.80836
3.70443
3.57421
3.43272
3.29269
3.15948
3.03047
2.90077
2.76631
2.62398
2.47287
2.31479
2.15395
1.99582
1.84573
1.70745
1.58277
1.47148
1.37208
1.28262
1.20155
1.12804
1.06188
1.00321
0.951866
0.907215
0.868164
0.833345
0.801366
0.770992
0.74123
0.71138
0.68114
0.650707
0.620924
0.593385
0.570391
0.554726
0.549283
0.556192
0.57812
0.619666
0.688576
0.785833
0.887459
0.961622
0.977485
0.91718
0.785975
0.614547
0.45032
0.34062
0.312052
0.333844
0.388962
0.478776
0.607185
0.771514
0.949078
1.10678
1.20073
1.18928
1.05697
0.830428
0.573916
0.3655
0.265645
0.245809
0.261416
0.296756
0.347057
0.407469
0.473486
0.541242
0.60775
0.670055
0.724814
0.769384
0.801572
0.819919
0.824062
0.814883
0.794266
0.764538
0.727872
0.68597
0.640681
0.593635
0.546944
0.503722
0.467975
0.444053
0.437331
0.458909
0.51433
0.58746
0.655269
0.696312
0.698804
0.664733
0.608391
0.550396
0.510236
0.498146
0.508162
0.533655
0.573086
0.624873
0.681901
0.732898
0.767443
0.778913
0.766945
0.73794
0.702851
0.672917
0.655398
0.649696
0.650677
0.655111
0.660041
0.663616
0.665235
0.665093
0.663523
0.660618
0.656217
0.65037
0.643958
0.63908
0.63898
0.647403
0.667523
0.704109
0.759067
0.822246
0.879218
0.916172
0.924719
0.904526
0.862727
0.810593
0.759194
0.715827
0.680859
0.652689
0.630807
0.614731
0.604029
0.598248
0.596996
0.598965
0.602053
0.603634
0.600995
0.591895
0.575049
0.55042
0.519252
0.483858
0.44728
0.412562
0.382479
0.359382
0.345017
0.340743
0.347765
0.367057
0.399293
0.445705
0.50981
0.592835
0.685946
0.773823
0.840215
0.872519
0.865406
0.822196
0.753767
0.675628
0.604138
0.550426
0.516869
0.501368
0.500533
0.512001
0.531553
0.553507
0.572023
0.581835
0.578799
0.560221
0.525015
0.473771
0.408808
0.333316
0.252703
0.17808
0.121826
0.0946577
0.102709
0.145533
0.215967
0.302035
0.39015
0.468291
0.531811
0.578555
0.605103
0.610452
0.5947
0.559104
0.506329
0.440575
0.367309
0.29249
0.221435
0.15722
0.0998686
0.0483873
0
-0.0536591
-0.112451
-0.180059
-0.260577
-0.357582
-0.468832
-0.589867
-0.715134
-0.838881
-0.610018
0.0382486
1.12933
2.64
4.35534
5.85943
6.67774
6.5169
5.44308
3.86163
2.29765
1.12737
0.439103
0.0914896
-0.0613527
-0.0614687
-0.0525681
-0.0368246
-0.0171309
0.00204029
0.016156
0.0221933
0.0196709
0.010647
-0.00127888
-0.0124695
-0.0205368
-0.0254631
-0.0280659
-0.0290712
-0.0290285
-0.0280085
-0.0255934
-0.02117
-0.0144213
-0.00565586
0.00316887
0.00756798
0.00170536
-0.0199167
-0.0604206
-0.118834
-0.189326
-0.261809
-0.323878
-0.363614
-0.372682
-0.348089
-0.280945
-0.183356
-0.0821468
-0.00378838
0.0339567
0.0271658
-0.0137693
-0.0682066
-0.112326
-0.126701
-0.108364
-0.0664177
-0.00848293
0.0604296
0.135912
0.213741
0.290253
0.362467
0.427884
0.484394
0.530348
0.564235
0.584397
0.588959
0.575829
0.542789
0.487646
0.408469
0.303921
0.173969
0.0199539
-0.155494
-0.348264
-0.552781
-0.762783
-0.972392
-1.1766
-1.37166
-1.55548
-1.72773
-1.88935
-2.04178
-2.18627
-2.32333
-2.45257
-2.57302
-2.68373
-2.78426
-2.8752
-2.95917
-3.04041
-3.12337
-3.21138
-3.30536
-3.40312
-3.49938
-3.58452
-3.6246
-3.54806
-3.38127
-3.20078
-3.09502
-3.12136
-3.28218
-3.53036
-3.79741
-4.02517
-4.18844
-4.31545
-4.42243
-4.51267
-4.58415
-4.63525
-4.66457
-4.67134
-4.65058
-4.60042
-4.52992
-4.45548
-4.394
-4.35886
-4.35698
-4.3876
-4.44304
-4.511
-4.57778
-4.63222
-4.6698
-4.69181
-4.70208
-4.70391
-4.70074
-4.69662
-4.69536
-4.69966
-4.71075
-4.72833
-4.75095
-4.77649
-4.80298
-4.82917
-4.85487
-4.88068
-4.90751
-4.93578
-4.96492
-4.9933
-5.01873
-5.03934
-5.05369
-5.06462
-5.07862
-5.10342
-5.14493
-5.20466
-5.2786
-5.35827
-5.4333
-5.49469
-5.54027
-5.57237
-5.59228
-5.60274
-5.60721
-5.60926
-5.61202
-5.61815
-5.62974
-5.64832
-5.67481
-5.70944
-5.7516
-5.79969
-5.85109
-5.90224
-5.94836
-5.98382
-6.00376
-6.00487
-5.98611
-5.94429
-5.88857
-5.83171
-5.78644
-5.76171
-5.76034
-5.77868
-5.80829
-5.83846
-5.85899
-5.86579
-5.85738
-5.82986
-5.77404
-5.68759
-5.58876
-5.50121
-5.44637
-5.43584
-5.46722
-5.52534
-5.58803
-5.6334
-5.64827
-5.63665
-5.604
-5.55263
-5.48403
-5.40035
-5.30455
-5.20027
-5.09167
-4.98318
-4.87922
-4.78368
-4.69943
-4.62794
-4.5691
-4.52114
-4.48086
-4.44379
-4.40471
-4.358
-4.29831
-4.221
-4.12255
-4.00086
-3.8558
-3.68944
-3.50578
-3.30889
-3.10874
-2.9198
-2.75472
-2.62122
-2.51977
-2.44297
-2.37683
-2.30378
-2.20648
-2.07182
-1.90024
-1.69645
-1.46409
-1.20661
-0.928063
-0.632368
-0.322496
0
0.365778
0.745531
1.14144
1.55583
1.99042
2.44572
2.92055
3.41198
3.97222
4.81217
5.87113
7.2411
8.83666
10.3422
11.3367
11.5247
10.906
9.75954
8.46328
7.29405
6.34091
5.55571
4.86414
4.22853
3.58975
2.94923
2.30685
1.6634
1.02091
0.382695
-0.24664
-0.86145
-1.45539
-2.02185
-2.55445
-3.04746
-3.49618
-3.89716
-4.2461
-4.5378
-4.77067
-4.94739
-5.07183
-5.14862
-5.18265
-5.17859
-5.14044
-5.07106
-4.97198
-4.84371
-4.68612
-4.49806
-4.27859
-4.02863
-3.75187
-3.45339
-3.13805
-2.81157
-2.47959
-2.14605
-1.81249
-1.47806
-1.14032
-0.796435
-0.444451
-0.0840606
0.283041
0.654621
1.02869
1.40443
1.78287
2.16697
2.56113
2.97025
3.39854
3.84851
4.32018
4.81084
5.31525
5.82625
6.33567
6.8353
7.31784
7.77761
8.21092
8.61606
8.99296
9.34254
9.66607
9.96388
10.2339
10.4748
10.6863
10.8684
11.0227
11.1529
11.2642
11.3635
11.4584
11.5559
11.6619
11.7836
11.9354
12.1344
12.3652
12.5872
12.7539
12.8277
12.7936
12.6632
12.465
12.2287
11.9732
11.7077
11.4342
11.1513
10.8551
10.5389
10.1953
9.81639
9.39487
8.92541
8.4053
7.83494
7.21746
6.55781
5.8614
5.13268
4.37413
3.58582
2.76579
1.91103
1.01885
0.0882303
-0.879222
-1.8789
-2.90356
-3.94413
-4.99079
-6.0338
-7.06392
-8.07213
-9.04915
-9.98467
-10.8671
-11.684
-12.4229
-13.0731
-13.627
-14.0815
-14.4385
-14.7046
-14.8902
-15.0076
-15.07
-15.09
-15.0785
-15.0441
-14.9933
-14.93
-14.856
-14.7711
-14.673
-14.5577
-14.4193
-14.2509
-14.0442
-13.791
-13.4834
-13.115
-12.6814
-12.1805
-11.6133
-10.9832
-10.296
-9.55905
-8.7811
-7.97143
-7.13977
-6.29607
-5.45036
-4.61252
-3.79193
-2.99689
-2.23406
-1.5079
-0.820369
-0.170949
0.443059
1.02606
1.58368
2.12238
2.64916
3.17134
3.69629
4.231
4.78147
5.35328
5.97881
6.70423
7.44259
8.07237
8.5149
8.75634
8.83529
8.8111
8.73168
8.61619
8.45918
8.26781
8.05876
7.8449
7.63537
7.43627
7.25089
7.0819
6.93256
6.80525
6.70137
6.62132
6.56445
6.529
6.51226
6.51083
6.52045
6.53622
6.5535
6.5684
6.57806
6.58059
6.57475
6.5594
6.53286
6.49292
6.4366
6.36026
6.26049
6.13501
5.98315
5.80608
5.60641
5.38744
5.15207
4.90184
4.63654
4.35442
4.05294
3.72988
3.38444
3.01785
2.63344
2.2359
1.83023
1.4205
1.00901
0.595953
0.17972
-0.242368
-0.673068
-1.11831
-1.5935
-2.10597
-2.58899
-2.96631
-3.21427
-3.32717
-3.3049
-3.15744
-2.90923
-2.5901
-2.2142
-1.76163
-1.2187
-0.620119
0
0.624772
1.24674
1.86191
2.46708
3.0608
3.64353
4.21754
4.78652
5.355
5.92758
6.57787
7.93485
9.8356
12.0002
13.8927
14.9685
14.9752
14.0966
12.8403
11.7524
11.1582
11.081
11.325
11.4544
11.5694
11.6691
11.752
11.8197
11.8755
11.9223
11.9614
11.9932
12.0163
12.0285
12.0276
12.0126
11.9841
11.9443
11.8969
11.8467
11.8016
11.7705
11.7614
11.7801
11.8286
11.9053
12.0048
12.1199
12.2429
12.3679
12.4917
12.6142
12.7365
12.8605
12.9885
13.1224
13.2636
13.4127
13.5695
13.7335
13.9042
14.0811
14.2643
14.454
14.6504
14.8534
15.0625
15.2767
15.4946
15.7152
15.9387
16.166
16.3994
16.6409
16.8916
17.1504
17.4138
17.6763
17.9306
18.1695
18.3872
18.5798
18.7456
18.8808
18.9856
19.0613
19.1101
19.135
19.1414
19.1373
19.1328
19.1392
19.1673
19.2568
19.4924
19.8666
20.2652
20.5853
20.7579
20.762
20.6281
20.4288
20.2613
20.2267
20.3363
20.5104
20.7072
20.9125
21.1171
21.3141
21.4996
21.6734
21.838
21.9974
22.1556
22.3148
22.4751
22.6348
22.7914
22.9433
23.0903
23.2348
23.3809
23.5337
23.6976
23.8744
24.0674
24.2721
24.4728
24.6521
24.7973
24.9049
24.9824
25.0456
25.1138
25.2103
25.3525
25.5163
25.6577
25.7354
25.7319
25.6639
25.5769
25.5249
25.5454
25.6215
25.7216
25.8331
25.9436
26.0449
26.1345
26.2147
26.2908
26.3678
26.4482
26.531
26.6143
26.6958
26.7737
26.8475
26.9181
26.9879
27.0603
27.1389
27.2267
27.3259
27.4381
27.564
27.704
27.8582
28.0259
28.2002
28.3654
28.5047
28.6041
28.6587
28.6763
28.6782
28.6933
28.7487
28.8606
29.0342
29.2548
29.4795
29.6646
29.7804
29.8198
29.7996
29.7543
29.7258
29.7499
29.8301
29.9466
30.084
30.234
30.3901
30.5463
30.6982
30.8429
30.9794
31.1077
31.2277
31.3392
31.4419
31.5348
31.6174
31.6899
31.7543
31.8141
31.8736
31.9366
32.0059
32.0814
32.1619
32.2454
32.3299
32.4137
32.4956
32.5752
32.6518
32.7255
32.7963
32.8649
32.9326
33.0022
33.0766
33.1582
33.2482
33.3449
33.4451
33.5454
33.6423
33.7322
33.8123
33.8803
33.9344
33.9741
33.9997
34.0122
34.0141
34.0088
34.0005
33.9944
33.9957
34.0088
34.037
34.0838
34.1542
34.2576
34.3967
34.548
34.6821
34.7718
34.802
34.7764
34.7175
34.6597
34.6367
34.67
34.7437
34.8425
34.9705
35.1344
35.3329
35.5386
35.7161
35.8277
35.8468
35.7727
35.6353
35.4855
35.3735
35.3287
35.3258
35.3419
35.3688
35.4035
35.4431
35.4854
35.5284
35.5706
35.6106
8
308
616
902
1197
1500
1797
2065
2342
2639
2942
3208
3483
3078
3374
3614
3558
3675
3527
3739
0
0
0
0
0
0
0
0
0
0
0
0
0
0
0
0
0
0
0
0
0
0
0
0
0
0
0
0
0
0
0
0
0
0
0
0
0
0
0
0
0
0
0
0
0
0
0
0
0
0
0
0
0
0
0
0
0
0
0
0
0
0
0
0
0
0
0
0
0
0
0
0
0
0
0
0
0
0
0
0
0
0
0
0
0
0
0
0
0
0
0
0
0
0
0
0
0
0
0
0
0
0
0
0
0
0
0
0
0
0
0
0
0
0
0
0
0
0
0
0
0
0
0
0
0
0
0
0
0
0
0
0
0
0
0
0
0
0
0
0
0
0
0
0
0
0
0
0
0
0
0
0
0
0
0
0
0
0
0
0
0
0
0
0
0
0
0
0
0
0
0
0
0
0
0
0
0
0
0
0
0
0
0
0
0
0
0
0
0
0
0
0
0
0
0
0
0
0
0
0
0
0
0
0
0
0
0
0
0
0
0
0
0
0
0
0
0
0
0
0
0
0
0
0
0
0
0
0
0
0
0
0
0
0
0
0
0
0
0
0
0
0
0
0
0
0
0
0
0
0
0
0
0
0
0
0
0
0
0
0
0
0
0
0
0
0
0
0
0
0
0
0
0
0
0
0
0
0
0
0
0
0
0
0
0
0
0
0
0
0
0
0
0
0
0
0
0
0
0
0
0
0
0
0
0
0
0
0
0
0
0
0
0
0
0
0
0
0
0
0
0
0
0
0
0
0
0
0
0
0
0
0
0
0
0
0
0
0
0
0
0
0
0
0
0
0
0
0
0
0
0
0
0
0
0
0
0
0
0
0
0
0
0
0
0
0
0
0
0
0
0
0
0
0
0
0
0
0
0
0
0
0
0
0
0
0
0
0
0
0
0
0
0
0
0
0
0
0
0
0
0
0
0
0
0
0
0
0
0
0
0
0
0
0
0
0
0
0
0
0
0
0
0
0
0
0
0
0
0
0
0
0
0
0
0
0
0
0
0
0
0
0
0
0
0
0
0
0
0
0
0
0
0
0
0
0
0
0
0
0
0
0
0
0
0
0
0
0
0
0
0
0
0
0
0
0
0
0
0
0
0
0
0
0
0
0
0
0
0
0
0
0
0
0
0
0
0
0
0
0
0
0
0
0
0
0
0
0
0
0
0
0
0
0
0
0
0
0
0
0
0
0
0
0
0
0
0
0
0
0
0
0
0
0
0
0
0
0
0
0
0
0
0
0
0
0
0
0
0
0
0
0
0
0
0
0
0
0
0
0
0
0
0
0
0
0
0
0
0
0
0
0
0
0
0
0
0
0
0
0
0
0
0
0
0
0
0
0
0
0
0
0
0
0
0
0
0
0
0
0
0
0
0
0
0
0
0
0
0
0
0
0
0
0
0
0
0
0
0
0
0
0
0
0
0
0
0
0
0
0
0
0
0
0
0
0
0
0
0
0
0
0
0
0
0
0
0
0
0
0
0
0
0
0
0
0
0
0
0
0
0
0
0
0
0
0
0
0
0
0
0
0
0
0
0
0
0
0
0
0
0
0
0
0
0
0
0
0
0
0
0
0
0
0
0
0
0
0
0
0
0
0
0
0
0
0
0
0
0
0
0
0
0
0
0
0
0
0
0
0
0
0
0
0
0
0
0
0
0
0
0
0
0
0
0
0
0
0
0
0
0
0
0
0
0
0
0
0
0
0
0
0
0
0
0
0
0
0
0
0
0
0
0
0
0
0
0
0
0
0
0
0
0
0
0
0
0
0
0
0
0
0
0
0
0
0
0
0
0
0
0
0
0
0
0
0
0
0
0
0
0
0
0
0
0
0
0
0
0
0
0
0
0
0
0
0
0
0
0
0
0
0
0
0
0
0
0
0
0
0
0
0
0
0
0
0
0
0
0
0
0
0
0
0
0
0
0
0
0
0
0
0
0
0
0
0
0
0
0
0
0
0
0
0
0
0
0
0
0
0
0
0
0
0
0
0
0
0
0
0
0
0
0
0
0
0
0
0
0
0
0
0
0
0
0
0
0
0
0
0
0
0
0
0
0
0
0
0
0
0
0
0
0
0
0
0
0
0
0
0
0
0
0
0
0
0
0
0
0
0
0
0
0
0
0
0
0
0
0
0
0
0
0
0
0
0
0
0
0
0
0
0
0
0
0
0
0
0
0
0
0
0
0
0
0
0
0
0
0
0
0
0
0
0
0
0
0
0
0
0
0
0
0
0
0
0
0
0
0
0
0
0
0
0
0
0
0
0
0
0
0
0
0
0
0
0
0
0
0
0
0
0
0
0
0
0
0
0
0
0
0
0
0
0
0
0
0
0
0
0
0
0
0
0
0
0
0
0
0
0
0
0
0
0
0
0
0
0
0
0
0
0
0
0
0
0
0
0
0
0
0
0
0
0
0
0
0
0
0
0
0
0
0
0
0
0
0
0
0
0
0
0
0
0
0
0
0
0
0
0
0
0
0
0
0
0
0
0
0
0
0
0
0
0
0
0
0
0
0
0
0
0
0
0
0
0
0
0
0
0
0
0
0
0
0
0
0
0
0
0
0
0
0
0
0
0
0
0
0
0
0
0
0
0
0
0
0
0
0
0
0
0
0
0
0
0
0
0
0
0
0
0
0
0
0
0
0
0
0
0
0
0
0
0
0
0
0
0
0
0
0
0
0
0
0
0
0
0
0
0
0
0
0
0
0
0
0
0
0
0
0
0
0
0
0
0
0
0
0
0
0
0
0
0
0
0
0
0
0
0
0
0
0
0
0
0
0
0
0
0
0
0
0
0
0
0
0
0
0
0
0
0
0
0
0
0
0
0
0
0
0
0
0
0
0
0
0
0
0
0
0
0
0
0
0
0
0
0
0
0
0
0
0
0
0
0
0
0
0
0
0
0
0
0
0
0
0
0
0
0
0
0
0
0
0
0
0
0
0
0
0
0
0
0
0
0
0
0
0
0
0
0
0
0
0
0
0
0
0
0
0
0
0
0
0
0
0
0
0
0
0
0
0
0
0
0
0
0
0
0
0
0
0
0
0
0
0
0
0
0
0
0
0
0
0
0
0
0
0
0
0
0
0
0
0
0
0
0
0
0
0
0
0
0
0
0
0
0
0
0
0
0
0
0
0
0
0
0
0
0
0
0
0
0
0
0
0
0
0
0
0
0
0
0
0
0
0
0
0
0
0
0
0
0
0
0
0
0
0
0
0
0
0
0
0
0
0
0
0
0
0
0
0
0
0
0
0
0
0
0
0
0
0
0
0
0
0
0
0
0
0
0
0
0
0
0
0
0
0
0
0
0
0
0
0
0
0
0
0
0
0
0
0
0
0
0
0
0
0
0
0
0
0
0
0
0
0
0
0
0
0
0
0
0
0
0
0
0
0
0
0
0
0
0
0
0
0
0
0
0
0
0
0
0
0
0
0
0
0
0
0
0
0
0
0
0
0
0
0
0
0
0
0
0
0
0
0
0
0
0
0
0
0
0
0
0
0
0
0
0
0
0
0
0
0
0
0
0
0
0
0
0
0
0
0
0
0
0
0
0
0
0
0
0
0
0
0
0
0
0
0
0
0
0
0
0
0
0
0
0
0
0
0
0
0
0
0
0
0
0
0
0
0
0
0
0
0
0
0
0
0
0
0
0
0
0
0
0
0
0
0
0
0
0
0
0
0
0
0
0
0
0
0
0
0
0
0
0
0
0
0
0
0
0
0
0
0
0
0
0
0
0
0
0
0
0
0
0
0
0
0
0
0
0
0
0
0
0
0
0
0
0
0
0
0
0
0
0
0
0
0
0
0
0
0
0
0
0
0
0
0
0
0
0
0
0
0
0
0
0
0
0
0
0
0
0
0
0
0
0
0
0
0
0
0
0
0
0
0
0
0
0
0
0
0
0
0
0
0
0
0
0
0
0
0
0
0
0
0
0
0
0
0
0
0
0
0
0
0
0
0
0
0
0
0
0
0
0
0
0
0
0
0
0
0
0
0
0
0
0
0
0
0
0
0
0
0
0
0
0
0
0
0
0
0
0
0
0
0
0
0
0
0
0
0
0
0
0
0
0
0
0
0
0
0
0
0
0
0
0
0
0
0
0
0
0
0
0
0
0
0
0
0
0
0
0
0
0
0
0
0
0
0
0
0
0
0
0
0
0
0
0
0
0
0
0
0
0
0
0
0
0
0
0
0
0
0
0
0
0
0
0
0
0
0
0
0
0
0
0
0
0
0
0
0
0
0
0
0
0
0
0
0
0
0
0
0
0
0
0
0
0
0
0
0
0
0
0
0
0
0
0
0
0
0
0
0
0
0
0
0
0
0
0
0
0
0
0
0
0
0
0
0
0
0
0
0
0
0
0
0
0
0
0
0
0
0
0
0
0
0
0
0
0
0
0
0
0
0
0
0
0
0
0
0
0
0
0
0
0
0
0
0
0
0
0
0
0
0
0
0
0
0
0
0
0
0
0
0
0
0
0
0
0
0
0
0
0
0
0
0
0
0
0
0
0
0
0
0
0
0
0
0
0
0
0
0
0
0
0
0
0
0
0
0
0
0
0
0
0
0
0
0
0
0
0
0
0
0
0
0
0
0
0
0
0
0
0
0
0
0
0
0
0
0
0
0
0
0
0
0
0
0
0
0
0
0
0
0
0
0
0
0
0
0
0
0
0
0
0
0
0
0
0
0
0
0
0
0
0
0
0
0
0
0
0
0
0
0
0
0
0
0
0
0
0
0
0
0
0
0
0
0
0
0
0
0
0
0
0
0
0
0
0
0
0
0
0
0
0
0
0
0
0
0
0
0
0
0
0
0
0
0
0
0
0
0
0
0
0
0
0
0
0
0
0
0
0
0
0
0
0
0
0
0
0
0
0
0
0
0
0
0
0
0
0
0
0
0
0
0
0
0
0
0
0
0
0
0
0
0
0
0
0
0
0
0
0
0
0
0
0
0
0
0
0
0
0
0
0
0
0
0
0
0
0
0
0
0
0
0
0
0
0
0
0
0
0
0
0
0
0
0
0
0
0
0
0
0
0
0
0
0
0
0
0
0
0
0
0
0
0
0
0
0
0
0
0
0
0
0
0
0
0
0
0
0
0
0
0
0
0
0
0
0
0
0
0
0
0
0
0
0
0
0
0
0
0
0
0
0
0
0
0
0
0
0
0
0
0
0
0
0
0
0
0
0
0
0
0
0
0
0
0
0
0
0
0
0
0
0
0
0
0
0
0
0
0
0
0
0
0
0
0
0
0
0
0
0
0
0
0
0
0
0
0
0
0
0
0
0
0
0
0
0
0
0
0
0
0
0
0
0
0
0
0
0
0
0
0
0
0
0
0
0
0
0
0
0
0
0
0
0
0
0
0
0
0
0
0
0
0
0
0
0
0
0
0
0
0
0
0
0
0
0
0
0
0
0
0
0
0
0
0
0
0
0
0
0
0
0
0
0
0
0
0
0
0
0
0
0
0
0
0
0
0
0
0
0
0
0
0
0
0
0
0
0
0
0
0
0
0
0
0
0
0
0
0
0
0
0
0
0
0
0
0
0
0
0
0
0
0
0
0
0
0
0
0
0
0
0
0
0
0
0
0
0
0
0
0
0
0
0
0
0
0
0
0
0
0
0
0
0
0
0
0
0
0
0
0
0
0
0
0
0
0
0
0
0
0
0
0
0
0
0
0
0
0
0
0
0
0
0
0
0
0
0
0
0
0
0
0
0
0
0
0
0
0
0
0
0
0
0
0
0
0
0
0
0
0
0
0
0
0
0
0
0
0
0
0
0
0
0
0
0
0
0
0
0
0
0
0
0
0
0
0
0
0
0
0
0
0
0
0
0
0
0
0
0
0
0
0
0
0
0
0
0
0
0
0
0
0
0
0
0
0
0
0
0
0
0
0
0
0
0
0
0
0
0
0
0
0
0
0
0
0
0
0
0
0
0
0
0
0
0
0
0
0
0
0
0
0
0
0
0
0
0
0
0
0
0
0
0
0
0
0
0
0
0
0
0
0
0
0
0
0
0
0
0
0
0
0
0
0
0
0
0
0
0
0
0
0
0
0
0
0
0
0
0
0
0
0
0
0
0
0
0
0
0
0
0
0
0
0
0
0
0
0
0
0
0
0
0
0
0
0
0
0
0
0
0
0
0
0
0
0
0
0
0
0
0
0
0
0
0
0
0
0
0
0
0
0
0
0
0
0
0
0
0
0
0
0
0
0
0
0
0
0
0
0
0
0
0
0
0
0
0
0
0
0
0
0
0
0
0
0
0
0
0
0
0
0
0
0
0
0
0
0
0
0
0
0
0
0
0
0
0
0
0
0
0
0
0
0
0
0
0
0
0
0
0
0
0
0
0
0
0
0
0
0
0
0
0
0
0
0
0
0
0
0
0
0
0
0
0
0
0
0
0
0
0
0
0
0
0
0
0
0
0
0
0
0
0
0
0
0
0
0
0
0
0
0
0
0
0
0
0
0
0
0
0
0
0
0
0
0
0
0
0
0
0
0
0
0
0
0
0
0
0
0
0
0
0
0
0
0
0
0
0
0
0
0
0
0
0
0
0
0
0
0
0
0
0
0
0
0
0
0
0
0
0
0
0
0
0
0
0
0
0
0
0
0
0
0
0
0
0
0
0
0
0
0
0
0
0
0
0
0
0
0
0
0
0
0
0
0
0
0
0
0
0
0
0
0
0
0
0
0
0
0
0
0
0
0
0
0
0
0
0
0
0
0
0
0
0
0
0
0
0
0
0
0
0
0
0
0
0
0
0
0
0
0
0
0
0
0
0
0
0
0
0
0
0
0
0
0
0
0
0
0
0
0
0
0
0
0
0
0
0
0
0
0
0
0
0
0
0
0
0
0
0
0
0
0
0
0
0
0
0
0
0
0
0
0
0
0
0
0
0
0
0
0
0
0
0
0
0
0
0
0
0
0
0
0
0
0
0
0
0
0
0
0
0
0
0
0
0
0
0
0
0
0
0
0
0
0
0
0
0
0
0
0
0
0
0
0
0
0
0
0
0
0
0
0
0
0
0
0
0
0
0
0
0
0
0
0
0
0
0
0
0
0
0
0
0
0
0
0
0
0
0
0
0
0
0
0
0
0
0
0
0
0
0
0
0
0
0
0
0
0
0
0
0
0
0
0
0
0
0
0
0
0
0
0
0
0
0
0
0
0
0
0
0
0
0
0
0
0
0
0
0
0
0
0
0
0
0
0
0
0
0
0
0
0
0
0
0
0
0
0
0
0
0
0
0
0
0
0
0
0
0
0
0
0
0
0
0
0
0
0
0
0
0
0
0
0
0
0
0
0
0
0
0
0
0
0
0
0
0
0
0
0
0
0
0
0
0
0
0
0
0
0
0
0
0
0
0
0
0
0
0
0
0
0
0
0
0
0
0
0
0
0
0
0
0
0
0
0
0
0
0
0
0
0
0
0
0
0
0
0
0
0
0
0
0
0
0
0
0
0
0
0
0
0
0
0
0
0
0
0
0
0
0
0
0
0
0
0
0
0
0
0
0
0
0
0
0
0
0
0
0
0
0
0
0
0
0
0
0
0
0
0
0
0
0
0
0
0
0
0
0
0
0
0
0
0
0
0
0
0
0
0
0
0
0
0
0
0
0
0
0
0
0
0
0
0
0
0
0
0
0
0
0
0
0
0
0
0
0
0
0
0
0
0
0
0
0
0
0
0
0
0
0
0
0
0
0
0
0
0
0
0
0
0
0
0
0
0
0
0
0
0
0
0
0
0
0
0
0
0
0
0
0
0
0
0
0
0
0
0
0
0
0
0
0
0
0
0
0
0
0
0
0
0
0
0
0
0
0
0
0
0
0
0
0
0
0
0
0
0
0
0
0
0
0
0
0
0
0
0
0
0
0
0
0
0
0
0
0
0
0
0
0
0
0
0
0
0
0
0
0
0
0
0
0
0
0
0
0
0
0
0
0
0
0
0
0
0
0
0
0
0
0
0
0
0
0
0
0
0
0
0
0
0
0
0
0
0
0
0
0
0
0
0
0
0
0
0
0
0
0
0
0
0
0
0
0
0
0
0
0
0
0
0
0
0
0
0
0
0
0
0
0
0
0
0
0
0
0
0
0
0
0
0
0
0
0
0
0
0
0
0
0
0
0
0
0
0
0
0
0
0
0
0
0
0
0
0
0
0
0
0
0
0
0
0
0
0
0
0
0
0
0
0
0
0
0
0
0
0
0
0
0
0
0
0
0
0
0
0
0
0
0
0
0
0
0
0
0
0
0
0
0
0
0
0
0
0
0
0
0
0
0
0
0
0
0
0
0
0
0
0
0
0
0
0
0
0
0
0
0
0
0
0
0
0
0
0
0
0
0
0
0
0
0
0
0
0
0
0
0
0
0
0
0
0
0
0
0
0
0
0
0
0
0
0
0
0
0
0
0
0
0
