1.82109
1.83552
1.85018
1.85962
1.86044
1.85237
1.83793
1.82105
1.80506
1.79116
1.77814
1.764
1.74645
1.72371
1.69519
1.66187
1.62613
1.59138
1.56117
1.53834
1.52443
1.51945
1.52212
1.53038
1.54205
1.55531
1.56913
1.58328
1.59808
1.61429
1.63294
1.65524
1.68254
1.71628
1.75796
1.80899
1.87045
1.94276
2.02535
2.11676
2.21418
2.31234
2.40442
2.48343
2.54312
2.57853
2.58629
2.56441
2.51214
2.42975
2.31878
2.18369
2.03031
1.8652
1.69587
1.5306
1.37725
1.24303
1.13561
1.06233
1.02793
1.03448
1.08221
1.16284
1.2474
1.30042
1.28488
1.16829
0.93469
0.596191
0.195327
-0.272972
0
1.34118
3.68195
6.49198
8.98461
10.4432
10.4863
9.16282
6.89122
4.30932
2.07185
0.63072
0.0800212
0.169038
0.352827
0.460305
0.553854
0.635177
0.709065
0.780646
0.854115
0.932567
1.01723
1.10707
1.19952
1.291
1.37784
1.45705
1.52684
1.5868
1.63774
1.68146
1.72052
1.75772
1.79606
1.83858
1.88811
1.94701
2.01693
2.09839
2.19106
2.29392
2.40537
2.52356
2.64677
2.77361
2.90324
3.03541
3.17046
3.30918
3.45266
3.60206
3.75827
3.92154
4.09111
4.26504
4.44016
4.61233
4.77701
4.92981
5.06715
5.18649
5.28621
5.36478
5.42007
5.44926
5.44999
5.41883
5.3519
5.24578
5.0985
4.91035
4.68431
4.42596
4.14332
3.84696
3.54606
3.24865
2.96196
2.69188
2.44258
2.21638
2.01375
1.83364
1.67388
1.53166
1.40404
1.28827
1.18209
1.08393
0.993065
0.909591
0.834268
0.768182
0.712429
0.668463
0.637175
0.615536
0.597864
0.57869
0.555076
0.528304
0.504081
0.49091
0.497087
0.527424
0.580619
0.650268
0.725621
0.795162
0.849982
0.885968
0.904103
0.908978
0.90633
0.900657
0.894004
0.886049
0.875196
0.859408
0.837044
0.807534
0.771771
0.732166
0.692421
0.657046
0.63076
0.61798
0.622217
0.64561
0.688594
0.749773
0.825984
0.912934
1.0053
1.0949
1.17259
1.23039
1.26248
1.26605
1.24169
1.19328
1.12727
1.0518
0.975581
0.906119
0.848036
0.804707
0.779294
0.773588
0.787746
0.821232
0.874781
0.942453
1.0117
1.06998
1.10819
1.12335
1.11977
1.10795
1.10165
1.11408
1.15219
1.21306
1.29199
1.38976
1.50226
1.61458
1.71028
1.7759
1.80449
1.79746
1.76381
1.71679
1.66905
1.62791
1.59135
1.55434
1.51046
1.45295
1.37674
1.2801
1.16545
1.03902
0.909368
0.785267
0.672676
0.576131
0.495153
0.42593
0.362905
0.300638
0.235326
0.165594
0.0924943
0.0189202
-0.0514343
0
0.462523
1.48041
3.22668
5.66426
8.41742
10.7911
12.0111
11.5999
9.65467
6.82505
3.98803
1.83766
0.646227
0.289346
0.44035
0.658263
0.8569
1.02526
1.16308
1.28172
1.3896
1.48888
1.5794
1.66044
1.73183
1.79437
1.84988
1.90094
1.95037
2.00071
2.05372
2.11017
2.17001
2.23295
2.29861
2.36673
2.43719
2.50996
2.58486
2.6615
2.73923
2.81742
2.89578
2.97487
3.05663
3.14441
3.24268
3.3561
3.48838
3.64093
3.81194
3.99638
4.18619
4.37033
4.53844
4.68308
4.8013
4.89486
4.96931
5.03207
5.09025
5.14898
5.20996
5.2688
5.31676
5.3439
5.34175
5.30503
5.23171
5.1221
4.97744
4.79895
4.59112
4.3601
4.1111
3.84811
3.575
3.29629
3.01721
2.7434
2.48054
2.23394
2.00814
1.8068
1.63233
1.48543
1.36537
1.27016
1.19675
1.14229
1.10383
1.07579
1.05227
1.02806
0.999354
0.964336
0.923311
0.878358
0.832494
0.788616
0.748227
0.711402
0.677511
0.645231
0.61333
0.581466
0.551013
0.526141
0.513278
0.519927
0.552823
0.62664
0.765323
0.948638
1.12845
1.25651
1.30211
1.26218
1.16012
1.03423
0.921237
0.843326
0.792841
0.757054
0.730578
0.711264
0.697142
0.686492
0.677244
0.667732
0.656993
0.645033
0.632849
0.622106
0.614486
0.610982
0.611375
0.614259
0.617664
0.619514
0.618188
0.612834
0.603406
0.590476
0.575016
0.558248
0.541259
0.525044
0.51035
0.497556
0.486352
0.475073
0.461289
0.442703
0.418268
0.38914
0.35904
0.333846
0.320478
0.325485
0.351301
0.39977
0.47119
0.563946
0.67484
0.799002
0.930848
1.06527
1.19698
1.32065
1.43189
1.52758
1.60629
1.66827
1.71511
1.74911
1.7723
1.7849
1.78394
1.76521
1.72273
1.65066
1.54565
1.40887
1.2469
1.07109
0.895616
0.734605
0.59458
0.486533
0.418445
0.384269
0.36979
0.357837
0.332027
0.279658
0.193297
0.0711635
-0.0833702
-0.262763
-0.477153
-0.56321
0
1.55618
4.15261
7.3623
10.3442
12.1561
12.1855
10.4489
7.56973
4.45849
1.90503
0.312062
-0.33462
-0.324436
-0.118518
-0.0011174
0.106521
0.206995
0.304144
0.40164
0.501399
0.604227
0.709461
0.815015
0.917507
1.01292
1.09768
1.16961
1.22834
1.27548
1.31419
1.34854
1.38266
1.41995
1.46267
1.51165
1.56672
1.62762
1.69435
1.7673
1.84723
1.93509
2.03154
2.13663
2.24956
2.36875
2.49209
2.61741
2.74281
2.86702
2.98946
3.11011
3.22924
3.34714
3.46387
3.57915
3.69236
3.80236
3.907
4.00285
4.08651
4.15433
4.20281
4.22927
4.23251
4.21297
4.17231
4.11243
4.03427
3.93816
3.82277
3.68553
3.52428
3.33845
3.128
2.89543
2.64587
2.3865
2.12554
1.87099
1.6296
1.40671
1.2059
1.02922
0.877386
0.75009
0.646304
0.564439
0.501875
0.4546
0.417751
0.386199
0.355142
0.320744
0.280723
0.234754
0.184602
0.133884
0.0879027
0.0525039
0.0329558
0.0328672
0.0548189
0.102957
0.173586
0.250729
0.317434
0.361074
0.377492
0.372418
0.35934
0.354265
0.369243
0.407025
0.457193
0.510396
0.556308
0.586906
0.598802
0.594007
0.579116
0.56343
0.556609
0.564786
0.606239
0.697032
0.811551
0.908639
0.947298
0.904917
0.788799
0.633737
0.48619
0.384106
0.33626
0.316968
0.312634
0.319363
0.333853
0.35048
0.363681
0.369741
0.367877
0.361014
0.355734
0.361851
0.409362
0.547074
0.760443
0.981146
1.14153
1.20028
1.14598
0.987033
0.741774
0.43939
0.131156
-0.117731
-0.283074
-0.346861
-0.298774
-0.15263
0.0566003
0.284621
0.494002
0.673357
0.835058
0.983614
1.12172
1.2505
1.36933
1.47554
1.56499
1.63345
1.67783
1.69694
1.69153
1.66388
1.61719
1.55607
1.48457
1.40588
1.32256
1.23656
1.14918
1.06095
0.97161
0.880329
0.785944
0.687251
0.582874
0.472038
0.357842
0.247876
0.151057
0.0751583
0.0247063
0
-0.00459728
0.00658665
0.032811
0.27984
0.927471
2.16545
4.0579
6.431
8.83537
10.6472
11.2974
10.52
8.49068
5.77007
3.07215
0.975766
-0.27019
-0.748208
-0.671108
-0.309518
0.149952
0.652817
1.065
1.23618
1.29723
1.32711
1.34352
1.35262
1.35999
1.36999
1.38493
1.40589
1.43357
1.4681
1.50917
1.55614
1.60812
1.66403
1.72274
1.78316
1.84426
1.90507
1.96461
2.02193
2.07665
2.12943
2.18246
2.23966
2.30655
2.38942
2.49402
2.62417
2.78051
2.9582
3.14999
3.34859
3.54577
3.73069
3.89482
4.0332
4.14542
4.23575
4.31237
4.38571
4.46602
4.56781
4.70037
4.84651
4.9778
5.06698
5.09806
5.06952
4.9899
4.86968
4.71414
4.52594
4.31084
4.07318
3.8162
3.54375
3.26097
2.97413
2.69014
2.4159
2.15765
1.92038
1.70743
1.52038
1.35921
1.22288
1.10912
1.01415
0.933962
0.86504
0.804904
0.752502
0.70829
0.673976
0.651981
0.644508
0.654232
0.684939
0.740158
0.818896
0.909025
0.990238
1.04231
1.04966
1.0053
0.913344
0.789003
0.655899
0.541035
0.465429
0.429519
0.42507
0.45148
0.504821
0.578312
0.663502
0.751719
0.83562
0.9109
0.97459
1.02529
1.06256
1.08558
1.09427
1.08869
1.06909
1.03652
0.993394
0.943777
0.893108
0.847435
0.812317
0.791514
0.786698
0.797056
0.819548
0.84952
0.881526
0.909142
0.925895
0.926607
0.907787
0.868113
0.808774
0.733476
0.64798
0.559217
0.474198
0.397892
0.332881
0.291016
0.326921
0.582025
1.04313
1.54038
1.91107
2.06445
2.00279
1.77371
1.42186
1.00104
0.637337
0.530972
0.64706
0.839736
1.05367
1.27386
1.48814
1.67882
1.83207
1.93817
1.99124
1.9895
1.93524
1.83379
1.69161
1.51435
1.30649
1.07846
0.840112
0.598626
0.3608
0.139388
0
0.144118
0.493555
0.876376
1.11449
1.10421
0.856194
0.4779
0.104002
-0.173717
0.181955
1.15972
2.79841
5.01652
7.5277
9.7969
11.1446
11.0273
9.35227
6.59826
3.61818
1.2321
-0.128378
-0.516968
-0.304226
-0.0165342
0.244609
0.464531
0.638001
0.776429
0.892692
0.984048
1.05144
1.10056
1.14096
1.18316
1.23576
1.30162
1.3717
1.43136
1.46823
1.47889
1.47071
1.45837
1.45742
1.47872
1.51945
1.57425
1.64137
1.72042
1.81127
1.9156
2.03899
2.19004
2.36576
2.541
2.68507
2.77192
2.78919
2.74369
2.66279
2.59143
2.58284
2.67709
2.85843
3.09047
3.34991
3.61283
3.8555
4.05935
4.21399
4.31745
4.3739
4.39038
4.37381
4.33407
4.27458
4.19599
4.09755
3.97744
3.83321
3.66474
3.47326
3.25941
3.02469
2.77198
2.50519
2.22862
1.94631
1.66158
1.37695
1.0944
0.815936
0.544112
0.282493
0.0359293
-0.189265
-0.387319
-0.553263
-0.682205
-0.756163
-0.736599
-0.580328
-0.321527
-0.0526587
0.154818
0.250307
0.208784
0.0397364
-0.210776
-0.471793
-0.668214
-0.760812
-0.792355
-0.798502
-0.792914
-0.780531
-0.764554
-0.746798
-0.727429
-0.705123
-0.677596
-0.64238
-0.597777
-0.543801
-0.481316
-0.41216
-0.340025
-0.269315
-0.204326
-0.148558
-0.104219
-0.072007
-0.0511606
-0.0397636
-0.0352242
-0.0348393
-0.0364752
-0.0390722
-0.0430679
-0.0504639
-0.0641527
-0.0866461
-0.118755
-0.158723
-0.202145
-0.242737
-0.273672
-0.289901
-0.290598
-0.273454
-0.236457
-0.179608
-0.108224
-0.0357243
0.0215164
0.0490593
0.038241
-0.0105097
-0.0862455
-0.169179
-0.235684
-0.265297
-0.253446
-0.211653
-0.149605
-0.0726755
0.0131157
0.102314
0.19102
0.277266
0.360673
0.442006
0.522417
0.602781
0.682171
0.755833
0.816883
0.859711
0.883403
0.893287
0.899435
0.913239
0.946115
0.986057
1.00396
0.968118
0.861979
0.694816
0.499308
0.317633
0.184507
0.0993168
0.0416851
0.00944252
0
0.0190046
0.0657864
0.122367
0.164011
0.162119
0.0572361
-0.256567
-0.744582
-1.32656
-1.53981
-0.843654
0.950046
3.66808
6.76999
9.48648
11.068
11.0603
9.49474
6.887
4.02162
1.62517
0.103241
-0.531861
-0.547841
-0.420971
-0.359243
-0.300799
-0.236651
-0.157829
-0.0580851
0.0634943
0.201298
0.343819
0.47568
0.583049
0.6579
0.700257
0.717635
0.722048
0.725858
0.738155
0.761237
0.793203
0.832742
0.879237
0.932902
0.995031
1.06769
1.15299
1.25224
1.36486
1.48871
1.6209
1.75816
1.89738
2.03624
2.17355
2.30936
2.4447
2.58122
2.7207
2.8647
3.01444
3.17073
3.33408
3.5048
3.68299
3.86932
4.06585
4.27276
4.48127
4.6751
4.83678
4.95198
5.01173
5.01163
4.95
4.82705
4.64622
4.41681
4.15692
3.8886
3.63181
3.39454
3.17554
2.97384
2.78812
2.6136
2.44388
2.27251
2.09465
1.90839
1.71533
1.52028
1.3301
1.15179
0.990254
0.849011
0.729149
0.628762
0.54256
0.464673
0.390432
0.317716
0.247493
0.183369
0.130292
0.0947774
0.0870999
0.103202
0.132836
0.163901
0.187663
0.202257
0.212829
0.228387
0.257004
0.303011
0.362541
0.42218
0.466013
0.481933
0.466183
0.42451
0.369799
0.317433
0.280406
0.262862
0.261015
0.270929
0.290149
0.31648
0.347439
0.38011
0.411053
0.436724
0.453824
0.459703
0.452834
0.433244
0.402774
0.365063
0.325217
0.289141
0.262267
0.248773
0.252483
0.277266
0.325371
0.395135
0.477292
0.555787
0.614783
0.642191
0.632405
0.587951
0.519328
0.442449
0.373991
0.326109
0.298831
0.285166
0.280495
0.280987
0.28371
0.287347
0.292168
0.299354
0.310032
0.324806
0.342764
0.362334
0.38241
0.403464
0.428112
0.460875
0.507236
0.572356
0.657987
0.762567
0.884753
1.02436
1.18211
1.35446
1.52864
1.68782
1.81611
1.90104
1.93506
1.91573
1.84544
1.73146
1.58627
1.42761
1.27277
1.13361
1.01509
0.914514
0.829291
0.755223
0.687244
0.620733
0.552429
0.480747
0.405522
0.327439
0.247115
0.165448
0.0830198
0
0.0438653
0.652504
2.09052
4.35561
7.1184
9.78527
11.6594
12.1729
11.1251
8.80766
5.90971
3.22359
1.31614
0.357435
0.172462
0.423308
0.600154
0.758693
0.88864
0.986494
1.0643
1.13074
1.18962
1.24363
1.29463
1.3436
1.3907
1.43558
1.47785
1.5176
1.55573
1.59408
1.63523
1.68198
1.73666
1.801
1.8771
1.96058
2.04391
2.11974
2.18399
2.23763
2.28659
2.33974
2.40606
2.49237
2.59749
2.71891
2.85661
3.00985
3.17704
3.35547
3.54119
3.72916
3.91245
4.08456
4.24096
4.38042
4.5055
4.6221
4.73797
4.86943
5.04291
5.25994
5.47825
5.6508
5.74224
5.73509
5.63117
5.4503
5.22454
4.98637
4.75286
4.51848
4.27783
4.03053
3.7774
3.52001
3.26165
3.00697
2.7612
2.52926
2.31451
2.11834
1.9403
1.77867
1.63134
1.49667
1.37408
1.26421
1.16863
1.08913
1.02703
0.983339
0.958258
0.948667
0.95028
0.958443
0.968893
0.978264
0.984293
0.98577
0.982413
0.974892
0.964441
0.952803
0.942053
0.934216
0.930821
0.932601
0.939242
0.949499
0.961782
0.974801
0.988122
1.0024
1.01919
1.04037
1.06737
1.10078
1.1399
1.18156
1.22179
1.25711
1.28569
1.30785
1.32575
1.34247
1.36086
1.38234
1.40673
1.43326
1.46069
1.48736
1.51151
1.53137
1.54519
1.55132
1.54836
1.53535
1.51201
1.4788
1.43652
1.38851
1.34105
1.30115
1.2752
1.26762
1.27991
1.31041
1.35483
1.40727
1.46157
1.51264
1.55737
1.59409
1.62147
1.63824
1.64368
1.63736
1.61944
1.59089
1.55263
1.51017
1.47309
1.45192
1.45563
1.48929
1.55279
1.64095
1.74508
1.85531
1.96317
2.06441
2.15707
2.23951
2.30886
2.36109
2.39392
2.40442
2.38992
2.34932
2.28384
2.19688
2.09296
1.97619
1.84956
1.71585
1.57603
1.43091
1.28236
1.13358
0.988985
0.853543
0.731759
0.627948
0.544778
0.481329
0.433067
0.393654
0.356313
0.315145
0.266058
0.207126
0.0829329
0
0.495026
1.93867
4.35684
7.29065
9.91883
11.3945
11.215
9.44149
6.66613
3.74367
1.42218
0.0651337
-0.39449
-0.278134
-0.00452576
0.250902
0.478032
0.669658
0.830751
0.972715
1.09827
1.20693
1.29835
1.37288
1.43066
1.47264
1.50158
1.52239
1.54162
1.56604
1.601
1.64889
1.70771
1.77366
1.84357
1.9146
1.98509
2.05496
2.12559
2.19919
2.27795
2.36317
2.45539
2.55393
2.65644
2.76119
2.86838
2.98057
3.10195
3.23664
3.38673
3.55079
3.7232
3.89678
4.06426
4.2196
4.35904
4.48136
4.58719
4.67803
4.75514
4.81899
4.86891
4.9033
4.91905
4.91373
4.88513
4.83153
4.75194
4.64609
4.51433
4.35721
4.17522
3.96868
3.74059
3.49329
3.22854
2.94964
2.66147
2.37036
2.08338
1.80757
1.54917
1.31304
1.10253
0.919999
0.76758
0.644935
0.550704
0.483487
0.443003
0.423084
0.415864
0.413414
0.409154
0.398987
0.381756
0.358873
0.333294
0.308212
0.285603
0.265846
0.248313
0.231446
0.213168
0.191505
0.165223
0.134355
0.100517
0.0669451
0.0387518
0.0219335
0.0224216
0.0450616
0.0927579
0.165981
0.262773
0.381567
0.520091
0.675517
0.839868
0.998152
1.12995
1.20526
1.19352
1.08214
0.890481
0.66844
0.478607
0.37048
0.330935
0.323472
0.331461
0.348724
0.370259
0.391718
0.409844
0.422527
0.428797
0.428697
0.423101
0.413534
0.402011
0.390915
0.382888
0.380649
0.386773
0.403381
0.43179
0.472188
0.523408
0.583197
0.64812
0.712965
0.772387
0.821873
0.858501
0.881372
0.891677
0.892491
0.888431
0.88528
0.889062
0.905933
0.941817
1.00156
1.08805
1.20426
1.35818
1.54408
1.73623
1.90742
2.03617
2.11079
2.12924
2.09583
2.0171
1.89904
1.74719
1.57269
1.38534
1.19285
1.00242
0.820629
0.651703
0.498883
0.366458
0.257215
0.171618
0.108532
0.0652873
0.0378841
0.0213755
0.0103877
-0.000303555
-0.0152568
-0.102757
0
0.738344
2.26267
4.44913
6.89418
9.00403
10.1768
10.0315
8.58528
6.26507
3.7279
1.58258
0.165834
-0.513416
-0.663655
-0.429205
-0.176796
0.0907708
0.342634
0.531689
0.651918
0.731771
0.792542
0.842559
0.890849
0.945156
1.01026
1.08531
1.16764
1.25392
1.33882
1.41663
1.48243
1.53293
1.56699
1.58578
1.59266
1.59293
1.59323
1.60069
1.62174
1.66192
1.72542
1.81422
1.92792
2.06429
2.21929
2.38778
2.56428
2.74391
2.9229
3.09869
3.26989
3.43609
3.59754
3.75511
3.91016
4.06448
4.22015
4.37991
4.5492
4.72963
4.90503
5.04934
5.13713
5.1549
5.10569
5.00421
4.86622
4.69961
4.50709
4.29616
4.07175
3.83626
3.59187
3.34174
3.08955
2.83881
2.59261
2.35352
2.12365
1.90477
1.69846
1.50615
1.32899
1.16773
1.02238
0.892106
0.77515
0.668817
0.569973
0.47564
0.383648
0.293215
0.205267
0.122566
0.0493431
-0.00983135
-0.0510514
-0.0676353
-0.0530546
-0.015121
0.031282
0.0703168
0.0901899
0.0866404
0.0637035
0.0317009
0.00347384
-0.00963072
-0.004769
0.0157272
0.0494184
0.0940825
0.147058
0.205317
0.265812
0.325737
0.3826
0.434255
0.479256
0.516785
0.546671
0.569344
0.585703
0.59687
0.603874
0.607347
0.607385
0.603417
0.59463
0.580301
0.560236
0.53507
0.506331
0.47622
0.447211
0.421605
0.401091
0.386863
0.379633
0.379905
0.387943
0.403844
0.427361
0.457807
0.493481
0.531522
0.567999
0.598159
0.617499
0.622522
0.611479
0.584942
0.546093
0.500659
0.45645
0.422677
0.408406
0.421073
0.465163
0.541363
0.646405
0.773632
0.914174
1.05844
1.19825
1.32823
1.44444
1.5448
1.629
1.69805
1.75378
1.79801
1.83214
1.85744
1.87444
1.88306
1.8827
1.87245
1.8511
1.81716
1.76893
1.70505
1.62505
1.52902
1.41824
1.29577
1.16648
1.03659
0.91295
0.803719
0.719394
0.66317
0.623054
0.579976
0.513757
0.409494
0.262142
0.0780066
-0.127016
-0.299736
0
1.03157
2.95039
5.62594
8.53525
10.8634
11.8262
11.049
8.76545
5.71396
2.79679
0.70663
-0.292678
-0.363411
0.0711964
0.310537
0.514021
0.665261
0.766853
0.85246
0.932475
1.01309
1.09756
1.18598
1.27461
1.35788
1.43054
1.48951
1.53492
1.56994
1.59987
1.63053
1.66646
1.70967
1.76103
1.82088
1.88843
1.96307
2.04501
2.13568
2.23745
2.35362
2.49794
2.67737
2.86775
3.03376
3.14438
3.1882
3.18033
3.15793
3.16621
3.24076
3.37886
3.55121
3.73994
3.93463
4.12547
4.30483
4.46829
4.6147
4.74323
4.85164
4.93955
5.00528
5.04303
5.04618
5.01119
4.93957
4.83672
4.70833
4.55635
4.38106
4.18439
3.96684
3.72706
3.46602
3.18772
2.89879
2.60755
2.32264
2.05176
1.80084
1.57373
1.37247
1.19789
1.0501
0.929681
0.841629
0.79265
0.779571
0.788688
0.803176
0.807195
0.790217
0.749834
0.692066
0.629118
0.575362
0.541256
0.528663
0.534271
0.553963
0.583943
0.619542
0.656009
0.689294
0.716119
0.733913
0.741073
0.736785
0.721044
0.694755
0.659885
0.619539
0.577888
0.539869
0.510596
0.494767
0.496576
0.523244
0.58147
0.665938
0.757722
0.83559
0.88191
0.887253
0.852372
0.787278
0.708077
0.63271
0.575621
0.540503
0.524732
0.524888
0.539837
0.565765
0.596742
0.626288
0.648602
0.659478
0.656911
0.641343
0.615516
0.58402
0.552611
0.527262
0.512835
0.512325
0.528453
0.566503
0.629699
0.708223
0.783249
0.83581
0.852947
0.832252
0.782747
0.721491
0.667278
0.634309
0.623614
0.628221
0.643534
0.667349
0.698295
0.735784
0.780206
0.832945
0.896053
0.971708
1.06153
1.1659
1.28345
1.41146
1.54481
1.67611
1.79766
1.90252
1.98539
2.0429
2.07338
2.07641
2.05235
2.0028
1.92985
1.83564
1.72348
1.59797
1.46493
1.33093
1.20238
1.08439
0.981209
0.896482
0.831616
0.7822
0.739226
0.691543
0.627771
0.538208
0.407122
0.21923
-0.0148069
-0.274528
-0.445986
0
1.35216
3.64249
6.53305
9.35274
11.302
11.7673
10.5995
8.19311
5.30381
2.70768
0.901977
-0.0050878
-0.209359
-0.00991082
0.215564
0.434642
0.636867
0.810153
0.949337
1.04648
1.09878
1.11092
1.09546
1.07055
1.0556
1.0665
1.10683
1.16939
1.24877
1.34123
1.44236
1.54729
1.65105
1.74933
1.83906
1.91868
1.98831
2.04949
2.10482
2.15751
2.21083
2.26774
2.33073
2.40183
2.48271
2.57468
2.67874
2.79548
2.92498
3.06666
3.21914
3.38033
3.5476
3.71809
3.88914
4.05859
4.22495
4.38711
4.54362
4.69231
4.82956
4.94957
5.04511
5.10842
5.13318
5.11604
5.0571
4.95938
4.82751
4.66612
4.47935
4.2721
4.04907
3.81399
3.56965
3.31868
3.06437
2.81077
2.56233
2.32351
2.09834
1.89
1.70059
1.53096
1.38076
1.24906
1.13388
1.03241
0.941945
0.860383
0.78689
0.721242
0.664047
0.616363
0.579336
0.553992
0.541202
0.541715
0.556104
0.583963
0.627698
0.687603
0.757503
0.827036
0.884829
0.921109
0.929801
0.909435
0.862851
0.796116
0.717217
0.635083
0.55697
0.487828
0.43072
0.387106
0.357574
0.342305
0.340849
0.352423
0.376406
0.412657
0.461574
0.523854
0.600111
0.694097
0.808524
0.934144
1.05231
1.14331
1.19247
1.19441
1.15402
1.08401
1.00072
0.92017
0.853248
0.802872
0.769605
0.754279
0.757795
0.779453
0.816816
0.867558
0.925501
0.983236
1.03386
1.07212
1.09511
1.10229
1.09506
1.0761
1.04891
1.01806
0.988043
0.965188
0.956632
0.969524
1.00959
1.07961
1.17843
1.30082
1.43843
1.58132
1.72012
1.84861
1.96105
2.0535
2.12355
2.16991
2.19198
2.18968
2.16341
2.11419
2.04384
1.95521
1.85218
1.73933
1.62155
1.50359
1.38936
1.28159
1.18225
1.09231
1.01191
0.940346
0.87613
0.817051
0.760234
0.70197
0.638212
0.565204
0.480081
0.38048
0.267536
0.123538
0
0.407543
1.55628
3.44354
5.79855
8.1209
9.81187
10.3586
9.52139
7.46162
4.73557
2.10851
0.238772
-0.600691
-0.583625
-0.171018
0.137388
0.408535
0.624545
0.778143
0.900027
0.999627
1.07953
1.14292
1.19339
1.23465
1.27046
1.3044
1.33986
1.3798
1.42657
1.48161
1.54569
1.61941
1.70016
1.7802
1.8512
1.90702
1.94626
1.97334
1.99767
2.03093
2.0837
2.16234
2.26306
2.3806
2.51164
2.65343
2.80324
2.95859
3.11724
3.27714
3.43631
3.59304
3.74614
3.89524
4.04078
4.18379
4.32532
4.46579
4.60411
4.73674
4.85705
4.95612
5.0259
5.05971
5.05317
5.00496
4.91742
4.7967
4.65211
4.49442
4.33332
4.1742
4.01721
3.85994
3.69871
3.52896
3.34647
3.14844
2.93452
2.70731
2.47229
2.23705
2.01006
1.79948
1.61496
1.46581
1.34618
1.24362
1.14336
1.03301
0.906322
0.764915
0.617486
0.477186
0.364658
0.371773
0.633886
1.02018
1.38479
1.59684
1.57789
1.33585
0.966944
0.617901
0.426077
0.441424
0.521353
0.614857
0.710487
0.802073
0.883373
0.949007
0.996218
1.02427
1.0346
1.03087
1.01879
1.00543
0.998062
1.00266
1.02207
1.05466
1.09718
1.14604
1.19672
1.24482
1.28675
1.32016
1.3439
1.35775
1.36192
1.35699
1.34369
1.32288
1.29563
1.26325
1.22721
1.18891
1.14939
1.1093
1.06884
1.02808
0.987292
0.947283
0.909677
0.877074
0.852811
0.840449
0.843162
0.865247
0.915576
0.996624
1.09024
1.17337
1.22603
1.23865
1.21557
1.17269
1.13043
1.10558
1.10501
1.12219
1.15357
1.19977
1.26264
1.34497
1.46408
1.64139
1.85504
2.06565
2.23319
2.33257
2.35893
2.32232
2.23872
2.12421
1.99419
1.86356
1.73994
1.62609
1.52117
1.42254
1.32798
1.23678
1.14894
1.06521
0.986458
0.912955
0.844131
0.776409
0.704521
0.622983
0.524277
0.40865
0.281904
0
0.293858
1.47296
3.56082
6.22884
8.87173
10.7924
11.4355
10.5941
8.51086
5.80267
3.21522
1.32396
0.346676
0.157637
0.45632
0.700047
0.919261
1.09639
1.22092
1.309
1.3627
1.38703
1.38925
1.37813
1.36302
1.35271
1.35427
1.372
1.40546
1.45094
1.5049
1.5642
1.62575
1.68686
1.7455
1.80029
1.85045
1.89602
1.93778
1.97716
2.0163
2.05792
2.10516
2.16124
2.22909
2.31103
2.40812
2.52069
2.6487
2.79152
2.94798
3.11623
3.29371
3.47704
3.66212
3.84401
4.01769
4.17903
4.32563
4.45726
4.57567
4.68196
4.77676
4.86052
4.92875
4.97129
4.97652
4.93607
4.84748
4.71383
4.54123
4.33582
4.10571
3.85931
3.6016
3.33534
3.06298
2.78762
2.51306
2.24358
1.98358
1.73713
1.50755
1.29706
1.10658
0.935813
0.783506
0.647974
0.527707
0.421495
0.328912
0.250784
0.189086
0.145847
0.123066
0.122146
0.143155
0.184233
0.241304
0.309563
0.380281
0.443332
0.489986
0.514618
0.515606
0.495126
0.458023
0.410278
0.357749
0.30554
0.257121
0.216318
0.186566
0.170996
0.172041
0.190997
0.22777
0.28091
0.347857
0.425232
0.509778
0.59663
0.677313
0.742129
0.781774
0.789605
0.763786
0.708334
0.63256
0.549065
0.470976
0.407145
0.360094
0.329373
0.314716
0.314896
0.327464
0.349183
0.3765
0.405971
0.434588
0.460055
0.480633
0.495205
0.503486
0.50597
0.503979
0.49963
0.495663
0.495062
0.500518
0.514486
0.538651
0.571265
0.607762
0.642476
0.670267
0.688083
0.696059
0.697884
0.700367
0.712268
0.741767
0.794367
0.872557
0.975085
1.09892
1.23779
1.38003
1.51189
1.62115
1.69913
1.74159
1.74863
1.72365
1.67199
1.59946
1.51131
1.4121
1.3059
1.19586
1.08448
0.974176
0.867494
0.766992
0.674953
0.59289
0.521349
0.459806
0.406744
0.359877
0.316467
0.273699
0.229033
0.180275
0.125748
0.0653504
0
-0.120222
0.104169
0.988442
2.69145
5.0956
7.76295
10.0387
11.2719
11.0635
9.43753
6.85631
4.05483
1.74655
0.337772
-0.191945
-0.172724
0.00485787
0.182346
0.357267
0.521738
0.662457
0.776775
0.865664
0.93232
0.982516
1.0205
1.05125
1.08021
1.11233
1.15097
1.19757
1.25219
1.31387
1.38095
1.45145
1.52354
1.59574
1.66714
1.73732
1.80635
1.87472
1.9433
2.01324
2.08589
2.16262
2.24451
2.33215
2.42544
2.52364
2.62556
2.72997
2.83616
2.94428
3.05568
3.1728
3.29882
3.43697
3.58979
3.75832
3.94163
4.13791
4.34255
4.54645
4.739
4.91023
5.05018
5.14855
5.19987
5.20071
5.14797
5.03927
4.87456
4.65791
4.3986
4.11076
3.81123
3.51549
3.23056
2.96033
2.70736
2.47063
2.24703
2.03259
1.82397
1.61964
1.42039
1.22912
1.04983
0.887616
0.746624
0.62693
0.526145
0.440618
0.367072
0.304025
0.252462
0.215548
0.206418
0.2583
0.393617
0.569097
0.721614
0.793529
0.754366
0.612327
0.413061
0.225671
0.117988
0.111766
0.168602
0.273373
0.391274
0.486205
0.531723
0.517372
0.4495
0.348172
0.241923
0.160791
0.121028
0.118989
0.143541
0.184804
0.23711
0.294655
0.352488
0.407208
0.457063
0.501259
0.538338
0.56716
0.585644
0.59128
0.582447
0.559616
0.525668
0.485076
0.442257
0.399887
0.357946
0.314943
0.268914
0.218525
0.164116
0.108188
0.0566896
0.0177096
-0.000510168
0.00827603
0.0465281
0.117068
0.217353
0.328151
0.426211
0.492398
0.517054
0.50242
0.461406
0.413052
0.376347
0.364789
0.377647
0.407921
0.451315
0.505932
0.570534
0.644485
0.727804
0.820997
0.924746
1.04022
1.17147
1.32554
1.49578
1.65561
1.77298
1.82241
1.79748
1.7161
1.61399
1.52817
1.47863
1.4516
1.42682
1.38988
1.32835
1.23517
1.11018
0.959647
0.793948
0.6247
0.461285
0.311056
0.183923
0.0870325
0.0247752
0
0.0110157
0.0564301
0.129219
0.220029
0.319452
0.421569
0.364008
0.723413
1.88102
3.95192
6.64733
9.3158
11.1542
11.5231
10.2362
7.67068
4.60933
1.88559
0.0416459
-0.806981
-0.871376
-0.491577
-0.146916
0.128875
0.315878
0.420068
0.498552
0.56858
0.634423
0.698254
0.760593
0.82081
0.877948
0.931569
0.982366
1.0324
1.08491
1.1437
1.21229
1.2939
1.39474
1.51625
1.64194
1.75056
1.82348
1.85186
1.84086
1.80914
1.78392
1.79348
1.85928
1.97214
2.11888
2.29217
2.48624
2.69427
2.90912
3.12404
3.33376
3.53498
3.72642
3.90694
4.07258
4.21974
4.34367
4.43629
4.49124
4.5093
4.50047
4.4812
4.46783
4.46976
4.48308
4.49998
4.50873
4.49639
4.4515
4.36619
4.23745
4.06788
3.86596
3.64554
3.4178
3.1909
2.96911
2.75233
2.53915
2.32709
2.11386
1.89846
1.68186
1.467
1.25839
1.06054
0.878175
0.715339
0.574876
0.458085
0.365393
0.296871
0.250432
0.220762
0.202168
0.18945
0.178537
0.166724
0.152469
0.134932
0.113514
0.0877755
0.0575379
0.0229501
-0.015029
-0.0545493
-0.0931118
-0.128068
-0.157174
-0.179252
-0.193689
-0.200483
-0.199967
-0.192616
-0.179076
-0.159663
-0.135808
-0.111372
-0.0910679
-0.0791239
-0.0776502
-0.0853995
-0.0974824
-0.106199
-0.10271
-0.0657291
0.0448726
0.232074
0.436024
0.585757
0.620336
0.508294
0.262691
-0.056439
-0.357452
-0.548569
-0.621598
-0.639598
-0.622906
-0.579617
-0.518192
-0.445408
-0.365586
-0.280854
-0.189658
-0.0897573
0.014625
0.110072
0.178609
0.204392
0.18039
0.112031
0.0163965
-0.0826901
-0.161896
-0.209095
-0.227592
-0.224242
-0.20238
-0.162432
-0.104473
-0.0281473
0.0669922
0.181631
0.320806
0.484027
0.658481
0.823599
0.958859
1.04887
1.0859
1.07011
1.008
0.909876
0.786819
0.647864
0.4993
0.346091
0.192745
0.0433331
-0.0971031
-0.222403
-0.323446
-0.374475
-0.342105
-0.245901
-0.128379
-0.0356009
0
-0.0279402
-0.1116
-0.228087
-0.353976
-0.473593
-0.585398
-0.692328
-0.630626
-0.293686
0.529508
2.01522
4.12301
6.48642
8.47339
9.42303
8.94459
7.11529
4.47244
1.80283
-0.176787
-1.10037
-1.06241
-0.542895
-0.315241
-0.117835
0.0392626
0.157871
0.260026
0.349268
0.427627
0.497162
0.559065
0.614243
0.663966
0.710169
0.755255
0.801479
0.85024
0.901809
0.954982
1.00798
1.05948
1.1095
1.15966
1.21263
1.27114
1.33688
1.41001
1.48926
1.57298
1.66048
1.75294
1.85351
1.96637
2.09526
2.24202
2.40421
2.57736
2.75743
2.94035
3.12247
3.30105
3.4744
3.64168
3.80251
3.9564
4.10201
4.23675
4.35789
4.46226
4.54687
4.60935
4.64813
4.66229
4.65107
4.61344
4.54799
4.45409
4.33086
4.17771
3.99539
3.78657
3.55599
3.31005
3.05591
2.80039
2.54895
2.30509
2.0703
1.84454
1.62714
1.41777
1.21708
1.02714
0.851185
0.693206
0.557172
0.446306
0.362472
0.306366
0.279531
0.284372
0.316105
0.358425
0.394409
0.410457
0.399961
0.365331
0.317309
0.271443
0.242785
0.239717
0.256875
0.291705
0.335883
0.379675
0.414802
0.436716
0.445596
0.44586
0.444397
0.448151
0.461774
0.485147
0.515331
0.548803
0.58105
0.607494
0.624322
0.629105
0.621198
0.601896
0.574371
0.542971
0.514003
0.493747
0.487168
0.496867
0.522652
0.561926
0.610778
0.665325
0.722737
0.781384
0.840616
0.899013
0.952445
0.994004
1.01589
1.01244
0.982667
0.930833
0.865019
0.794522
0.727493
0.66783
0.617217
0.58003
0.560265
0.561109
0.584948
0.632428
0.70171
0.788343
0.886005
0.987919
1.08849
1.18502
1.27706
1.36535
1.45114
1.53489
1.61514
1.68779
1.74679
1.78599
1.80097
1.78993
1.75341
1.69323
1.61135
1.51083
1.39615
1.27075
1.13737
0.999711
0.862413
0.730721
0.609778
0.50433
0.418748
0.361015
0.353934
0.437426
0.601627
0.787139
0.923039
0.951678
0.849225
0.630535
0.335911
0
0.0341609
0.656267
2.02418
4.11422
6.61641
8.93068
10.3443
10.3416
8.87309
6.40076
3.68152
1.42921
0.0537517
-0.410236
-0.207243
0.136191
0.443868
0.686609
0.846975
0.947473
0.998545
1.0096
0.993851
0.966775
0.944354
0.940232
0.962134
1.01092
1.08353
1.1758
1.2837
1.40033
1.51773
1.62861
1.72755
1.81189
1.88204
1.94108
1.99405
2.04682
2.10484
2.17221
2.25155
2.34364
2.4476
2.56173
2.68402
2.81265
2.94653
3.08554
3.23058
3.38323
3.54523
3.7177
3.90056
4.09389
4.29261
4.48306
4.64958
4.7795
4.86724
4.91649
4.93926
4.95257
4.9736
5.02763
5.11838
5.21715
5.2817
5.27465
5.17773
4.99652
4.75491
4.48319
4.20572
3.93261
3.66388
3.399
3.13866
2.8842
2.63769
2.40182
2.1796
1.97383
1.78669
1.61927
1.47148
1.34209
1.22914
1.13035
1.04362
0.967452
0.901112
0.84462
0.798546
0.763696
0.740666
0.729522
0.729758
0.740411
0.759101
0.781983
0.804857
0.823784
0.83572
0.839043
0.83388
0.82216
0.807352
0.793908
0.786292
0.78822
0.802127
0.829302
0.86873
0.916904
0.968978
1.01896
1.05978
1.08594
1.09413
1.08372
1.05696
1.01861
0.975166
0.933615
0.900274
0.87927
0.870816
0.8746
0.891259
0.921754
0.968886
1.03587
1.11505
1.18532
1.22143
1.2024
1.1204
0.986091
0.827156
0.679859
0.576995
0.524491
0.515188
0.543577
0.598428
0.665699
0.731536
0.786892
0.827508
0.850311
0.85483
0.843014
0.818884
0.788089
0.757383
0.734026
0.725028
0.736308
0.771886
0.83325
0.919111
1.02562
1.14702
1.27652
1.40711
1.53274
1.64714
1.74542
1.82392
1.87996
1.9118
1.9186
1.90037
1.85799
1.79329
1.70907
1.61011
1.50148
1.38806
1.27473
1.16586
1.0645
0.972684
0.89145
0.8197
0.754162
0.690632
0.62494
0.553842
0.474992
0.388016
0.294213
0.196401
0.0976865
0
-0.0954944
0.0844421
0.825493
2.36609
4.64704
7.24547
9.51509
10.8498
10.9149
9.74102
7.67721
5.25463
3.01236
1.33455
0.353564
-0.0347847
0.00867474
0.126416
0.273178
0.441286
0.623844
0.814128
1.0003
1.17316
1.32748
1.46114
1.57247
1.65789
1.71606
1.74837
1.75921
1.7556
1.74632
1.74054
1.74632
1.7683
1.80642
1.85879
1.92365
1.99886
2.08125
2.16838
2.25907
2.35369
2.45379
2.56134
2.67788
2.80384
2.93825
3.07934
3.22527
3.375
3.52882
3.68824
3.85521
4.03086
4.2152
4.40536
4.58942
4.75299
4.88426
4.97862
5.04094
5.08474
5.12857
5.23378
5.45402
5.72341
5.94737
6.05356
6.01278
5.835
5.55249
5.20403
4.83111
4.47842
4.15662
3.85626
3.57045
3.29689
3.03516
2.78515
2.5476
2.32444
2.11875
1.93423
1.77546
1.6514
1.57415
1.53952
1.5287
1.51932
1.49189
1.43506
1.34779
1.23779
1.11774
1.00096
0.895906
0.804595
0.732961
0.684524
0.661564
0.664689
0.692291
0.740236
0.802034
0.869626
0.934527
0.989202
1.02846
1.05024
1.05575
1.04902
1.03585
1.02246
1.01415
1.01407
1.02239
1.03746
1.05775
1.08183
1.10907
1.14014
1.17697
1.22338
1.2885
1.38606
1.51141
1.63619
1.72487
1.74909
1.69981
1.59187
1.45848
1.3377
1.25643
1.20957
1.17898
1.15546
1.13363
1.10953
1.08139
1.04962
1.01633
0.984427
0.956542
0.934106
0.918032
0.908992
0.907273
0.912932
0.925918
0.946094
0.97316
1.00649
1.0451
1.08766
1.13189
1.17484
1.21395
1.24771
1.27622
1.3013
1.32614
1.35452
1.39003
1.4351
1.49023
1.55534
1.63033
1.71544
1.81214
1.92212
2.04207
2.16037
2.26117
2.32822
2.34913
2.31874
2.24082
2.12794
1.99937
1.87664
1.77488
1.69689
1.63646
1.58704
1.54231
1.49524
1.43938
1.36994
1.2843
1.18212
1.06151
0.922493
0.771248
0.616727
0.468687
0.337246
0.219529
0.108468
0
0.0649181
0.720797
2.22353
4.53846
7.28639
9.85406
11.5951
12.0435
11.0825
9.00541
6.41689
3.98776
2.18381
1.12613
0.653374
0.583867
0.690073
0.815189
0.955408
1.10103
1.23945
1.36076
1.46492
1.55745
1.64292
1.72307
1.79908
1.87127
1.93881
1.99908
2.04808
2.08316
2.10308
2.10912
2.10585
2.10089
2.10371
2.1234
2.16631
2.23262
2.3157
2.41039
2.51283
2.61924
2.72664
2.83326
2.93859
3.04324
3.1486
3.25638
3.36823
3.48548
3.60885
3.73836
3.87317
4.01156
4.15107
4.2878
4.41753
4.53696
4.64485
4.74284
4.83541
4.92949
5.04458
5.19113
5.34413
5.45924
5.49688
5.44167
5.30621
5.11949
4.9085
4.68477
4.44863
4.20163
3.9455
3.68142
3.4112
3.13818
2.86721
2.60413
2.35504
2.12538
1.91977
81
279
481
683
876
1071
1273
1477
1675
1877
2082
2280
2477
2676
2879
3077
3271
3470
3672
3730
3620
1885
2039
2090
2203
2378
2497
2566
2709
2810
2884
2993
3064
3136
3236
3336
3416
3489
3598
0
0
0
0
0
0
0
0
0
0
0
0
0
0
0
0
0
0
0
0
0
0
0
0
0
0
0
0
0
0
0
0
0
0
0
0
0
0
0
0
0
0
0
0
0
0
0
0
0
0
0
0
0
0
0
0
0
0
0
0
0
0
0
0
0
0
0
0
0
0
0
0
0
0
0
0
0
0
0
0
0
0
0
0
0
0
0
0
0
0
0
0
0
0
0
0
0
0
0
0
0
0
0
0
0
0
0
0
0
0
0
0
0
0
0
0
0
0
0
0
0
0
0
0
0
0
0
0
0
0
0
0
0
0
0
0
0
0
0
0
0
0
0
0
0
0
0
0
0
0
0
0
0
0
0
0
0
0
0
0
0
0
0
0
0
0
0
0
0
0
0
0
0
0
0
0
0
0
0
0
0
0
0
0
0
0
0
0
0
0
0
0
0
0
0
0
0
0
0
0
0
0
0
0
0
0
0
0
0
0
0
0
0
0
0
0
0
0
0
0
0
0
0
0
0
0
0
0
0
0
0
0
0
0
0
0
0
0
0
0
0
0
0
0
0
0
0
0
0
0
0
0
0
0
0
0
0
0
0
0
0
0
0
0
0
0
0
0
0
0
0
0
0
0
0
0
0
0
0
0
0
0
0
0
0
0
0
0
0
0
0
0
0
0
0
0
0
0
0
0
0
0
0
0
0
0
0
0
0
0
0
0
0
0
0
0
0
0
0
0
0
0
0
0
0
0
0
0
0
0
0
0
0
0
0
0
0
0
0
0
0
0
0
0
0
0
0
0
0
0
0
0
0
0
0
0
0
0
0
0
0
0
0
0
0
0
0
0
0
0
0
0
0
0
0
0
0
0
0
0
0
0
0
0
0
0
0
0
0
0
0
0
0
0
0
0
0
0
0
0
0
0
0
0
0
0
0
0
0
0
0
0
0
0
0
0
0
0
0
0
0
0
0
0
0
0
0
0
0
0
0
0
0
0
0
0
0
0
0
0
0
0
0
0
0
0
0
0
0
0
0
0
0
0
0
0
0
0
0
0
0
0
0
0
0
0
0
0
0
0
0
0
0
0
0
0
0
0
0
0
0
0
0
0
0
0
0
0
0
0
0
0
0
0
0
0
0
0
0
0
0
0
0
0
0
0
0
0
0
0
0
0
0
0
0
0
0
0
0
0
0
0
0
0
0
0
0
0
0
0
0
0
0
0
0
0
0
0
0
0
0
0
0
0
0
0
0
0
0
0
0
0
0
0
0
0
0
0
0
0
0
0
0
0
0
0
0
0
0
0
0
0
0
0
0
0
0
0
0
0
0
0
0
0
0
0
0
0
0
0
0
0
0
0
0
0
0
0
0
0
0
0
0
0
0
0
0
0
0
0
0
0
0
0
0
0
0
0
0
0
0
0
0
0
0
0
0
0
0
0
0
0
0
0
0
0
0
0
0
0
0
0
0
0
0
0
0
0
0
0
0
0
0
0
0
0
0
0
0
0
0
0
0
0
0
0
0
0
0
0
0
0
0
0
0
0
0
0
0
0
0
0
0
0
0
0
0
0
0
0
0
0
0
0
0
0
0
0
0
0
0
0
0
0
0
0
0
0
0
0
0
0
0
0
0
0
0
0
0
0
0
0
0
0
0
0
0
0
0
0
0
0
0
0
0
0
0
0
0
0
0
0
0
0
0
0
0
0
0
0
0
0
0
0
0
0
0
0
0
0
0
0
0
0
0
0
0
0
0
0
0
0
0
0
0
0
0
0
0
0
0
0
0
0
0
0
0
0
0
0
0
0
0
0
0
0
0
0
0
0
0
0
0
0
0
0
0
0
0
0
0
0
0
0
0
0
0
0
0
0
0
0
0
0
0
0
0
0
0
0
0
0
0
0
0
0
0
0
0
0
0
0
0
0
0
0
0
0
0
0
0
0
0
0
0
0
0
0
0
0
0
0
0
0
0
0
0
0
0
0
0
0
0
0
0
0
0
0
0
0
0
0
0
0
0
0
0
0
0
0
0
0
0
0
0
0
0
0
0
0
0
0
0
0
0
0
0
0
0
0
0
0
0
0
0
0
0
0
0
0
0
0
0
0
0
0
0
0
0
0
0
0
0
0
0
0
0
0
0
0
0
0
0
0
0
0
0
0
0
0
0
0
0
0
0
0
0
0
0
0
0
0
0
0
0
0
0
0
0
0
0
0
0
0
0
0
0
0
0
0
0
0
0
0
0
0
0
0
0
0
0
0
0
0
0
0
0
0
0
0
0
0
0
0
0
0
0
0
0
0
0
0
0
0
0
0
0
0
0
0
0
0
0
0
0
0
0
0
0
0
0
0
0
0
0
0
0
0
0
0
0
0
0
0
0
0
0
0
0
0
0
0
0
0
0
0
0
0
0
0
0
0
0
0
0
0
0
0
0
0
0
0
0
0
0
0
0
0
0
0
0
0
0
0
0
0
0
0
0
0
0
0
0
0
0
0
0
0
0
0
0
0
0
0
0
0
0
0
0
0
0
0
0
0
0
0
0
0
0
0
0
0
0
0
0
0
0
0
0
0
0
0
0
0
0
0
0
0
0
0
0
0
0
0
0
0
0
0
0
0
0
0
0
0
0
0
0
0
0
0
0
0
0
0
0
0
0
0
0
0
0
0
0
0
0
0
0
0
0
0
0
0
0
0
0
0
0
0
0
0
0
0
0
0
0
0
0
0
0
0
0
0
0
0
0
0
0
0
0
0
0
0
0
0
0
0
0
0
0
0
0
0
0
0
0
0
0
0
0
0
0
0
0
0
0
0
0
0
0
0
0
0
0
0
0
0
0
0
0
0
0
0
0
0
0
0
0
0
0
0
0
0
0
0
0
0
0
0
0
0
0
0
0
0
0
0
0
0
0
0
0
0
0
0
0
0
0
0
0
0
0
0
0
0
0
0
0
0
0
0
0
0
0
0
0
0
0
0
0
0
0
0
0
0
0
0
0
0
0
0
0
0
0
0
0
0
0
0
0
0
0
0
0
0
0
0
0
0
0
0
0
0
0
0
0
0
0
0
0
0
0
0
0
0
0
0
0
0
0
0
0
0
0
0
0
0
0
0
0
0
0
0
0
0
0
0
0
0
0
0
0
0
0
0
0
0
0
0
0
0
0
0
0
0
0
0
0
0
0
0
0
0
0
0
0
0
0
0
0
0
0
0
0
0
0
0
0
0
0
0
0
0
0
0
0
0
0
0
0
0
0
0
0
0
0
0
0
0
0
0
0
0
0
0
0
0
0
0
0
0
0
0
0
0
0
0
0
0
0
0
0
0
0
0
0
0
0
0
0
0
0
0
0
0
0
0
0
0
0
0
0
0
0
0
0
0
0
0
0
0
0
0
0
0
0
0
0
0
0
0
0
0
0
0
0
0
0
0
0
0
0
0
0
0
0
0
0
0
0
0
0
0
0
0
0
0
0
0
0
0
0
0
0
0
0
0
0
0
0
0
0
0
0
0
0
0
0
0
0
0
0
0
0
0
0
0
0
0
0
0
0
0
0
0
0
0
0
0
0
0
0
0
0
0
0
0
0
0
0
0
0
0
0
0
0
0
0
0
0
0
0
0
0
0
0
0
0
0
0
0
0
0
0
0
0
0
0
0
0
0
0
0
0
0
0
0
0
0
0
0
0
0
0
0
0
0
0
0
0
0
0
0
0
0
0
0
0
0
0
0
0
0
0
0
0
0
0
0
0
0
0
0
0
0
0
0
0
0
0
0
0
0
0
0
0
0
0
0
0
0
0
0
0
0
0
0
0
0
0
0
0
0
0
0
0
0
0
0
0
0
0
0
0
0
0
0
0
0
0
0
0
0
0
0
0
0
0
0
0
0
0
0
0
0
0
0
0
0
0
0
0
0
0
0
0
0
0
0
0
0
0
0
0
0
0
0
0
0
0
0
0
0
0
0
0
0
0
0
0
0
0
0
0
0
0
0
0
0
0
0
0
0
0
0
0
0
0
0
0
0
0
0
0
0
0
0
0
0
0
0
0
0
0
0
0
0
0
0
0
0
0
0
0
0
0
0
0
0
0
0
0
0
0
0
0
0
0
0
0
0
0
0
0
0
0
0
0
0
0
0
0
0
0
0
0
0
0
0
0
0
0
0
0
0
0
0
0
0
0
0
0
0
0
0
0
0
0
0
0
0
0
0
0
0
0
0
0
0
0
0
0
0
0
0
0
0
0
0
0
0
0
0
0
0
0
0
0
0
0
0
0
0
0
0
0
0
0
0
0
0
0
0
0
0
0
0
0
0
0
0
0
0
0
0
0
0
0
0
0
0
0
0
0
0
0
0
0
0
0
0
0
0
0
0
0
0
0
0
0
0
0
0
0
0
0
0
0
0
0
0
0
0
0
0
0
0
0
0
0
0
0
0
0
0
0
0
0
0
0
0
0
0
0
0
0
0
0
0
0
0
0
0
0
0
0
0
0
0
0
0
0
0
0
0
0
0
0
0
0
0
0
0
0
0
0
0
0
0
0
0
0
0
0
0
0
0
0
0
0
0
0
0
0
0
0
0
0
0
0
0
0
0
0
0
0
0
0
0
0
0
0
0
0
0
0
0
0
0
0
0
0
0
0
0
0
0
0
0
0
0
0
0
0
0
0
0
0
0
0
0
0
0
0
0
0
0
0
0
0
0
0
0
0
0
0
0
0
0
0
0
0
0
0
0
0
0
0
0
0
0
0
0
0
0
0
0
0
0
0
0
0
0
0
0
0
0
0
0
0
0
0
0
0
0
0
0
0
0
0
0
0
0
0
0
0
0
0
0
0
0
0
0
0
0
0
0
0
0
0
0
0
0
0
0
0
0
0
0
0
0
0
0
0
0
0
0
0
0
0
0
0
0
0
0
0
0
0
0
0
0
0
0
0
0
0
0
0
0
0
0
0
0
0
0
0
0
0
0
0
0
0
0
0
0
0
0
0
0
0
0
0
0
0
0
0
0
0
0
0
0
0
0
0
0
0
0
0
0
0
0
0
0
0
0
0
0
0
0
0
0
0
0
0
0
0
0
0
0
0
0
0
0
0
0
0
0
0
0
0
0
0
0
0
0
0
0
0
0
0
0
0
0
0
0
0
0
0
0
0
0
0
0
0
0
0
0
0
0
0
0
0
0
0
0
0
0
0
0
0
0
0
0
0
0
0
0
0
0
0
0
0
0
0
0
0
0
0
0
0
0
0
0
0
0
0
0
0
0
0
0
0
0
0
0
0
0
0
0
0
0
0
0
0
0
0
0
0
0
0
0
0
0
0
0
0
0
0
0
0
0
0
0
0
0
0
0
0
0
0
0
0
0
0
0
0
0
0
0
0
0
0
0
0
0
0
0
0
0
0
0
0
0
0
0
0
0
0
0
0
0
0
0
0
0
0
0
0
0
0
0
0
0
0
0
0
0
0
0
0
0
0
0
0
0
0
0
0
0
0
0
0
0
0
0
0
0
0
0
0
0
0
0
0
0
0
0
0
0
0
0
0
0
0
0
0
0
0
0
0
0
0
0
0
0
0
0
0
0
0
0
0
0
0
0
0
0
0
0
0
0
0
0
0
0
0
0
0
0
0
0
0
0
0
0
0
0
0
0
0
0
0
0
0
0
0
0
0
0
0
0
0
0
0
0
0
0
0
0
0
0
0
0
0
0
0
0
0
0
0
0
0
0
0
0
0
0
0
0
0
0
0
0
0
0
0
0
0
0
0
0
0
0
0
0
0
0
0
0
0
0
0
0
0
0
0
0
0
0
0
0
0
0
0
0
0
0
0
0
0
0
0
0
0
0
0
0
0
0
0
0
0
0
0
0
0
0
0
0
0
0
0
0
0
0
0
0
0
0
0
0
0
0
0
0
0
0
0
0
0
0
0
0
0
0
0
0
0
0
0
0
0
0
0
0
0
0
0
0
0
0
0
0
0
0
0
0
0
0
0
0
0
0
0
0
0
0
0
0
0
0
0
0
0
0
0
0
0
0
0
0
0
0
0
0
0
0
0
0
0
0
0
0
0
0
0
0
0
0
0
0
0
0
0
0
0
0
0
0
0
0
0
0
0
0
0
0
0
0
0
0
0
0
0
0
0
0
0
0
0
0
0
0
0
0
0
0
0
0
0
0
0
0
0
0
0
0
0
0
0
0
0
0
0
0
0
0
0
0
0
0
0
0
0
0
0
0
0
0
0
0
0
0
0
0
0
0
0
0
0
0
0
0
0
0
0
0
0
0
0
0
0
0
0
0
0
0
0
0
0
0
0
0
0
0
0
0
0
0
0
0
0
0
0
0
0
0
0
0
0
0
0
0
0
0
0
0
0
0
0
0
0
0
0
0
0
0
0
0
0
0
0
0
0
0
0
0
0
0
0
0
0
0
0
0
0
0
0
0
0
0
0
0
0
0
0
0
0
0
0
0
0
0
0
0
0
0
0
0
0
0
0
0
0
0
0
0
0
0
0
0
0
0
0
0
0
0
0
0
0
0
0
0
0
0
0
0
0
0
0
0
0
0
0
0
0
0
0
0
0
0
0
0
0
0
0
0
0
0
0
0
0
0
0
0
0
0
0
0
0
0
0
0
0
0
0
0
0
0
0
0
0
0
0
0
0
0
0
0
0
0
0
0
0
0
0
0
0
0
0
0
0
0
0
0
0
0
0
0
0
0
0
0
0
0
0
0
0
0
0
0
0
0
0
0
0
0
0
0
0
0
0
0
0
0
0
0
0
0
0
0
0
0
0
0
0
0
0
0
0
0
0
0
0
0
0
0
0
0
0
0
0
0
0
0
0
0
0
0
0
0
0
0
0
0
0
0
0
0
0
0
0
0
0
0
0
0
0
0
0
0
0
0
0
0
0
0
0
0
0
0
0
0
0
0
0
0
0
0
0
0
0
0
0
0
0
0
0
0
0
0
0
0
0
0
0
0
0
0
0
0
0
0
0
0
0
0
0
0
0
0
0
0
0
0
0
0
0
0
0
0
0
0
0
0
0
0
0
0
0
0
0
0
0
0
0
0
0
0
0
0
0
0
0
0
0
0
0
0
0
0
0
0
0
0
0
0
0
0
0
0
0
0
0
0
0
0
0
0
0
0
0
0
0
0
0
0
0
0
0
0
0
0
0
0
0
0
0
0
0
0
0
0
0
0
0
0
0
0
0
0
0
0
0
0
0
0
0
0
0
0
0
0
0
0
0
0
0
0
0
0
0
0
0
0
0
0
0
0
0
0
0
0
0
0
0
0
0
0
0
0
0
0
0
0
0
0
0
0
0
0
0
0
0
0
0
0
0
0
0
0
0
0
0
0
0
0
0
0
0
0
0
0
0
0
0
0
0
0
0
0
0
0
0
0
0
0
0
0
0
0
0
0
0
0
0
0
0
0
0
0
0
0
0
0
0
0
0
0
0
0
0
0
0
0
0
0
0
0
0
0
0
0
0
0
0
0
0
0
0
0
0
0
0
0
0
0
0
0
0
0
0
0
0
0
0
0
0
0
0
0
0
0
0
0
0
0
0
0
0
0
0
0
0
0
0
0
0
0
0
0
0
0
0
0
0
0
0
0
0
0
0
0
0
0
0
0
0
0
0
0
0
0
0
0
0
0
0
0
0
0
0
0
0
0
0
0
0
0
0
0
0
0
0
0
0
0
0
0
0
0
0
0
0
0
0
0
0
0
0
0
0
0
0
0
0
0
0
0
0
0
0
0
0
0
0
0
0
0
0
0
0
0
0
0
0
0
0
0
0
0
0
0
0
0
0
0
0
0
0
0
0
0
0
0
0
0
0
0
0
0
0
0
0
0
0
0
0
0
0
0
0
0
0
0
0
0
0
0
0
0
0
0
0
0
0
0
0
0
0
0
0
0
0
0
0
0
0
0
0
0
0
0
0
0
0
0
0
0
0
0
0
0
0
0
0
0
0
0
0
0
0
0
0
0
0
0
0
0
0
0
0
0
0
0
0
0
0
0
0
0
0
0
0
0
0
0
0
0
0
0
0
0
0
0
0
0
0
0
0
0
0
0
0
0
0
0
0
0
0
0
0
0
0
0
0
0
0
0
0
0
0
0
0
0
0
0
0
0
0
0
0
0
0
0
0
0
0
0
0
0
0
0
0
0
0
0
0
0
0
0
0
0
0
0
0
0
0
0
0
0
0
0
0
0
0
0
0
0
0
0
0
0
0
0
0
0
0
0
0
0
0
0
0
0
0
0
0
0
0
0
0
0
0
0
0
0
0
0
0
0
0
0
0
0
0
0
0
0
0
0
0
0
0
0
0
0
0
0
0
0
0
0
0
0
0
0
0
0
0
0
0
0
0
0
0
0
0
0
0
0
0
0
0
0
0
0
0
0
0
0
0
0
0
0
