4.23743
4.2123
4.18587
4.15698
4.12414
4.08591
4.04128
3.9897
3.93113
3.86592
3.79473
3.71861
3.63925
3.5592
3.48262
3.41514
3.36354
3.3436
3.41619
3.67681
4.04305
4.38807
4.59393
4.59575
4.40467
4.10086
3.7963
3.58171
3.47841
3.41418
3.36038
3.3097
3.25909
3.20684
3.15207
3.09408
3.03167
2.9629
2.88523
2.79603
2.69101
2.56572
2.41334
2.21264
1.99053
1.67284
1.13609
0.429069
-0.13073
0
1.29234
3.81419
7.0697
10.1719
12.2549
12.8767
12.1652
10.6429
8.88729
7.26066
5.85531
4.62052
3.52241
2.60845
2.13845
2.02801
1.94745
1.88577
1.84058
1.8073
1.78053
1.75521
1.72767
1.6964
1.66234
1.62867
1.60018
1.58203
1.57832
1.59179
1.62402
1.67516
1.74366
1.82667
1.92048
2.02121
2.12544
2.23094
2.33692
2.44422
2.55529
2.6739
2.8046
2.95214
3.1207
3.31327
3.53121
3.77385
4.0385
4.32048
4.61381
4.91091
5.19472
5.44573
5.64685
5.78757
5.86689
5.89327
5.88124
5.84548
5.79489
5.73044
5.64973
5.54483
5.40808
5.2343
5.02214
4.77423
4.49645
4.19678
3.88585
3.57092
3.25767
2.95074
2.65358
2.3683
2.09581
1.83615
1.58914
1.35648
1.1438
0.958135
0.807038
0.698066
0.635778
0.619254
0.641177
0.688932
0.747432
0.802712
0.846537
0.875747
0.891306
0.897718
0.901277
0.908104
0.921895
0.943496
0.972781
1.00648
1.03836
1.06144
1.06989
1.06059
1.03418
0.995313
0.951868
0.913242
0.888168
0.881147
0.891963
0.919201
0.9586
1.00402
1.04855
1.0855
1.10901
1.11426
1.09766
1.05686
0.990792
0.886094
0.740133
0.58456
0.461357
0.409009
0.447576
0.570166
0.745211
0.928494
1.07944
1.18426
1.25969
1.31286
1.35015
1.37982
1.41054
1.44996
1.50607
1.59029
1.71828
1.90184
2.12129
2.32932
2.47364
2.50216
2.37871
2.10549
1.73771
1.37391
1.11547
0.985489
0.915749
0.871058
0.845404
0.834139
0.834256
0.843532
0.860837
0.877614
0.879744
0.849209
0.736288
0.440915
0
-0.509055
-1.03567
-0.441708
1.27158
3.88129
6.746
9.04572
10.1557
9.92987
8.72052
7.1351
5.70256
4.65976
3.95142
3.38737
2.84403
2.50357
2.22325
1.97919
1.77102
1.60217
1.47306
1.38234
1.32564
1.29671
1.2894
1.29854
1.32036
1.35231
1.3934
1.44307
1.49685
1.54707
1.58603
1.60947
1.61968
1.62644
1.64502
1.69169
1.77863
1.9037
2.05634
2.22897
2.41615
2.61265
2.81447
3.01958
3.22795
3.44126
3.66217
3.89363
4.13813
4.39734
4.67185
4.96172
5.27201
5.61442
5.97891
6.31867
6.57327
6.69182
6.65947
6.50804
6.30008
6.09379
5.91186
5.73505
5.55059
5.35548
5.14711
4.9245
4.68913
4.44444
4.19521
3.94643
3.70272
3.46783
3.24446
3.03447
2.83914
2.65961
2.49714
2.35311
2.22876
2.12519
2.0433
1.98213
1.93854
1.90866
1.88868
1.87574
1.86837
1.8666
1.8716
1.88511
1.90854
1.94239
1.98692
2.04193
2.10668
2.18017
2.2602
2.34311
2.42411
2.49744
2.55677
2.59719
2.61573
2.61206
2.58892
2.55185
2.50829
2.46613
2.43212
2.41046
2.40116
2.4029
2.41508
2.43684
2.46732
2.5058
2.55168
2.6043
2.66264
2.72573
2.79238
2.86113
2.92983
2.99457
3.05052
3.09279
3.11775
3.12433
3.11459
3.09304
3.06498
3.0345
3.00297
2.96941
2.93156
2.88716
2.83513
2.77635
2.71377
2.65192
2.59583
2.54909
2.514
2.49145
2.47929
2.47324
2.46783
2.398
1.95185
1.22004
0.414545
-0.141464
0
1.24726
3.46925
6.16058
8.56404
10.008
10.2085
9.35349
7.93481
6.46215
5.25004
4.37862
3.78661
3.38466
3.16952
3.01395
2.87954
2.76285
2.6666
2.59278
2.53936
2.50255
2.47853
2.46477
2.4609
2.46864
2.491
2.53073
2.58881
2.66331
2.75081
2.84322
2.9319
3.01008
3.07504
3.12909
3.17936
3.23635
3.3117
3.41583
3.55242
3.72045
3.91766
4.14068
4.38428
4.64177
4.90592
5.16982
5.42769
5.6754
5.91071
6.1331
6.34332
6.54267
6.7319
6.91092
7.07874
7.23319
7.37046
7.48418
7.56482
7.6032
7.59108
7.52094
7.38776
7.19103
6.93593
6.63324
6.29751
5.94428
5.58799
5.23679
4.89635
4.57114
4.26456
3.97918
3.71719
3.48172
3.27309
3.08992
2.93042
2.7931
2.67739
2.58364
2.51243
2.46927
2.45409
2.45851
2.47187
2.485
2.49375
2.50011
2.51034
2.53134
2.56721
2.61454
2.66999
2.73167
2.79846
2.87067
2.95005
3.04147
3.15535
3.30246
3.46791
3.61786
3.7151
3.73427
3.67331
3.55582
3.42245
3.3145
3.25756
3.23916
3.23975
3.25014
3.26543
3.28138
3.29463
3.30234
3.30261
3.29431
3.2774
3.2533
3.22513
3.19741
3.17537
3.16376
3.16595
3.18304
3.21477
3.25994
3.31732
3.3859
3.46519
3.55604
3.66169
3.78348
3.91596
4.04766
4.16296
4.24374
4.27433
4.24227
4.14029
3.9689
3.73929
3.47436
3.20614
2.9692
2.786
2.68219
2.67932
2.75811
2.87083
2.97129
3.02689
3.02181
2.95357
2.50174
1.73699
0.845698
0.115596
0
1.33272
3.87479
7.04234
9.97758
11.9334
12.5752
12.041
10.7713
9.24847
7.80523
6.57433
5.5516
4.69314
3.97985
3.60486
3.42098
3.27499
3.15547
3.06561
3.00855
2.9819
2.97176
2.96337
2.94551
2.91413
2.87405
2.83766
2.82094
2.83818
2.89616
2.98491
3.09867
3.22908
3.36644
3.50167
3.62662
3.73605
3.82875
3.90736
3.97809
4.05004
4.13404
4.24118
4.38127
4.56163
4.7813
5.03722
5.3279
5.65092
6.00228
6.37639
6.76967
7.17432
7.56596
7.9138
8.19075
8.37914
8.47328
8.47814
8.40534
8.26859
8.08074
7.85304
7.60089
7.33619
7.0666
6.79715
6.53106
6.27028
6.01592
5.76817
5.52642
5.28948
5.05583
4.82392
4.59246
4.36086
4.12964
3.90084
3.67862
3.47066
3.28513
3.13008
3.01146
2.9314
2.88887
2.87848
2.88906
2.9089
2.92858
2.943
2.95176
2.95819
2.96726
2.98334
3.00779
3.03897
3.07416
3.11008
3.14308
3.16977
3.18742
3.19426
3.18996
3.17551
3.15328
3.12694
3.1012
3.08134
3.07336
3.08635
3.13077
3.2095
3.3104
3.40892
3.47762
3.49268
3.43792
3.30819
3.1128
2.87767
2.64309
2.45528
2.34386
2.308
2.34656
2.4434
2.57183
2.70226
2.8103
2.89235
2.94664
2.97635
2.98841
2.99098
2.99103
2.9928
2.99748
3.00495
3.01446
3.02507
3.03599
3.04658
3.05602
3.06302
3.06566
3.06142
3.04759
3.02181
2.98262
2.92999
2.86553
2.79259
2.71614
2.64165
2.5743
2.519
2.4815
2.46602
2.46953
2.48315
2.4952
2.4935
2.42542
2.00266
1.32224
0.548182
-0.153615
0
1.36115
3.89379
7.05404
9.99276
11.9389
12.5245
11.8696
10.419
8.67992
7.02713
5.64684
4.58085
3.78743
3.18389
2.75965
2.46532
2.20994
2.00609
1.86206
1.7782
1.74747
1.75648
1.78806
1.82654
1.8612
1.88795
1.90848
1.92776
1.95086
1.98066
2.01616
2.05651
2.10112
2.15063
2.20722
2.2741
2.35449
2.45055
2.56164
2.68592
2.82223
2.97008
3.12996
3.30359
3.49369
3.70336
3.93515
4.1902
4.46755
4.76383
5.07341
5.38888
5.70141
5.9993
6.26964
6.50111
6.68471
6.81407
6.88678
6.90247
6.86239
6.7694
6.62802
6.44424
6.22505
5.97753
5.70867
5.42583
5.13505
4.84048
4.54596
4.2559
3.97508
3.70811
3.45875
3.22928
3.02005
2.82942
2.65418
2.49028
2.33386
2.18229
2.03462
1.89306
1.7631
1.65229
1.56833
1.51715
1.50169
1.52131
1.57178
1.6458
1.73385
1.82521
1.91108
1.98555
2.04573
2.09046
2.11982
2.13518
2.13847
2.13111
2.11452
2.08987
2.05856
2.02289
1.9865
1.95426
1.93154
1.92297
1.93161
1.95986
2.00382
2.05409
2.09954
2.12996
2.13841
2.12246
2.08431
2.03004
1.96809
1.90771
1.85689
1.82096
1.80251
1.80238
1.82084
1.85783
1.91254
1.9832
2.06725
2.16184
2.26235
2.36069
2.44721
2.51273
2.54995
2.55454
2.52552
2.46501
2.37756
2.26937
2.14813
2.0223
1.89868
1.78291
1.67986
1.5934
1.527
1.48287
1.45962
1.45037
1.445
1.43258
1.40303
1.34834
1.24353
0.963593
0.514971
0
-0.457637
-0.815985
0.0210247
1.91008
4.48809
7.01337
8.70006
9.09177
8.25517
6.69546
5.06618
3.85138
3.18788
2.89982
2.67061
2.41193
2.17776
1.96486
1.77684
1.61715
1.48738
1.38691
1.31349
1.26392
1.23486
1.22304
1.2257
1.24065
1.26674
1.30284
1.3484
1.40349
1.46868
1.54492
1.63296
1.73292
1.84367
1.96262
2.086
2.2095
2.32899
2.44177
2.54758
2.64899
2.75134
2.86214
2.99007
3.14379
3.33078
3.55428
3.81505
4.11176
4.43956
4.79675
5.17269
5.53536
5.85188
6.09658
6.25682
6.33409
6.33989
6.28847
6.18998
6.0494
5.87643
5.67495
5.4444
5.18674
4.90691
4.6123
4.31177
4.01399
3.72618
3.4539
3.20083
2.96888
2.7587
2.5701
2.40239
2.25449
2.12484
2.01138
1.9108
1.81793
1.72659
1.63022
1.52123
1.38628
1.21097
1.00201
0.794471
0.629224
0.540669
0.550432
0.664415
0.870241
1.13511
1.40842
1.6342
1.7867
1.88226
1.93229
1.94752
1.94129
1.92531
1.90701
1.88932
1.87319
1.85958
1.85018
1.84714
1.85409
1.87286
1.89496
1.90619
1.89238
1.8464
1.77272
1.68677
1.60944
1.55915
1.54066
1.54376
1.5649
1.59839
1.63785
1.67755
1.7137
1.74434
1.76952
1.79128
1.81341
1.84105
1.88524
1.9838
2.18795
2.45409
2.6883
2.7894
2.70429
2.46037
2.15314
1.89492
1.75434
1.69115
1.64747
1.60817
1.56574
1.51653
1.46109
1.40328
1.34851
1.3015
1.26354
1.23315
1.21262
1.17857
0.764758
0
-0.807215
-1.29061
-0.662179
1.16102
3.82894
6.61209
8.74023
9.74512
9.60901
8.66463
7.35634
6.03152
4.86424
3.89526
3.10513
2.4609
2.06166
1.80104
1.57909
1.38936
1.23567
1.12183
1.04753
1.00676
0.99217
0.996763
1.0152
1.0443
1.08275
1.13022
1.18639
1.25003
1.31889
1.39088
1.4641
1.53721
1.60967
1.68196
1.75554
1.83284
1.91714
2.01246
2.12333
2.25437
2.40969
2.59224
2.80326
3.04145
3.3036
3.58507
3.8799
4.18126
4.48191
4.77452
5.05123
5.30373
5.52542
5.71133
5.85807
5.96384
6.02816
6.05143
6.03439
5.97768
5.88162
5.74742
5.57666
5.37127
5.13422
4.87046
4.58698
4.29187
3.99356
3.70024
3.41903
3.15518
2.9115
2.68873
2.48609
2.30207
2.13514
1.98401
1.848
1.72675
1.61917
1.52387
1.43949
1.36501
1.3004
1.24633
1.20429
1.17608
1.16328
1.16674
1.18636
1.22104
1.2688
1.32665
1.39185
1.46074
1.52704
1.58359
1.6244
1.6466
1.65206
1.64761
1.64339
1.64955
1.67838
1.72673
1.7794
1.8172
1.82727
1.81041
1.78117
1.76048
1.76473
1.79713
1.84519
1.88855
1.90711
1.88949
1.83727
1.76347
1.68699
1.62598
1.58875
1.57242
1.5738
1.59137
1.62371
1.66894
1.72499
1.78994
1.86211
1.94017
2.02314
2.11016
2.19873
2.28134
2.3464
2.38106
2.37564
2.328
2.24574
2.14486
2.04529
1.96511
1.91157
1.87976
1.86541
1.86569
1.8771
1.89464
1.91071
1.91753
1.90882
1.88094
1.83362
1.77004
1.69595
1.61818
1.54293
1.49662
1.42234
0.911144
0
-0.920376
-1.25769
-0.390826
1.79301
4.87906
8.05882
10.4897
11.6488
11.4931
10.3742
8.79776
7.18685
5.76403
4.56942
3.55569
2.6801
2.05773
1.79824
1.58439
1.39959
1.24873
1.13526
1.05894
1.0129
0.986818
0.970853
0.957878
0.944899
0.933395
0.928489
0.937203
0.96627
1.01887
1.09364
1.18703
1.29477
1.41231
1.53519
1.65979
1.7839
1.9068
2.02904
2.15188
2.27688
2.40555
2.53939
2.68019
2.83032
2.9931
3.17264
3.37344
3.59949
3.85327
4.13492
4.44331
4.77619
5.12587
5.47943
5.81493
6.09989
6.32636
6.49311
6.57727
6.54565
6.3833
6.11351
5.79051
5.46678
5.16037
4.85466
4.54493
4.23239
3.91906
3.60848
3.30545
3.01528
2.74296
2.49239
2.26595
2.06436
1.88683
1.73143
1.59555
1.47621
1.37066
1.27712
1.1955
1.12633
1.07058
1.0296
1.00428
0.99443
0.998508
1.01398
1.03808
1.06868
1.10455
1.14547
1.19235
1.24717
1.31155
1.38103
1.444
1.48673
1.49844
1.47593
1.42527
1.35986
1.29555
1.24532
1.2133
1.19568
1.18921
1.19294
1.2063
1.22931
1.26306
1.31099
1.37392
1.44075
1.49376
1.51447
1.49074
1.42229
1.3221
1.21281
1.11964
1.0624
1.03923
1.04037
1.06072
1.09637
1.14336
1.1986
1.26055
1.32923
1.40588
1.49212
1.58914
1.69817
1.81824
1.94595
2.07593
2.2002
2.30585
2.37812
2.40256
2.36477
2.25547
2.07763
1.85122
1.61126
1.398
1.24279
1.13915
1.07596
1.04256
1.02541
1.01273
0.99758
0.978627
0.958197
0.938628
0.918461
0.890411
0.841592
0.732375
0.449693
0
-0.542411
-1.02126
-0.32313
1.64035
4.43951
7.20868
9.07841
9.59714
8.88709
7.47097
5.92995
4.62725
3.63795
2.86341
2.1987
1.67849
1.50995
1.4017
1.31694
1.25015
1.20037
1.16563
1.14313
1.12959
1.12257
1.12089
1.1247
1.13517
1.15375
1.18149
1.21884
1.26495
1.3178
1.37561
1.43795
1.50645
1.58486
1.67822
1.7916
1.92859
2.08873
2.26901
2.46588
2.67517
2.89231
3.11317
3.33461
3.55491
3.77387
3.99276
4.21396
4.44045
4.67522
4.92052
5.17933
5.45478
5.74375
6.03026
6.28707
6.48918
6.61813
6.66329
6.62169
6.49823
6.30537
6.06071
5.7823
5.48486
5.1799
4.87433
4.57201
4.27649
3.99201
3.72282
3.4726
3.24379
3.03706
2.85154
2.68531
2.53284
2.38817
2.24639
2.10503
1.96494
1.83073
1.70936
1.60804
1.53198
1.48296
1.45913
1.45596
1.46797
1.49027
1.5194
1.55496
1.59823
1.65139
1.71639
1.796
1.89477
2.00751
2.11856
2.2107
2.27157
2.29848
2.29908
2.28723
2.27626
2.27274
2.273
2.27073
2.25894
2.23259
2.19083
2.13812
2.08347
2.03825
2.0124
2.01077
2.04236
2.09842
2.16369
2.22221
2.26316
2.28424
2.29128
2.29467
2.30449
2.32559
2.35544
2.39088
2.4287
2.46517
2.49655
2.51951
2.53111
2.52852
2.50987
2.47405
2.42096
2.35179
2.26913
2.17679
2.07932
1.98133
1.88671
1.79803
1.71688
1.6438
1.57828
1.51914
1.46516
1.41601
1.37217
1.21044
0.736281
0
-0.703976
-0.96856
-0.177245
1.79558
4.61163
7.5121
9.66038
10.5389
10.1483
8.90199
7.32417
5.78291
4.41787
3.2412
2.2712
1.57584
1.34004
1.36883
1.41066
1.45636
1.50316
1.54977
1.59658
1.64546
1.69898
1.76155
1.837
1.91659
1.98274
2.01615
2.00478
1.95091
1.87257
1.79818
1.75701
1.7699
1.82564
1.91123
2.02395
2.16009
2.31557
2.48637
2.67061
2.86727
3.07587
3.29615
3.52767
3.76946
4.01973
4.27575
4.53389
4.7899
5.0394
5.2784
5.50395
5.71452
5.91008
6.09173
6.26088
6.41823
6.56266
6.68865
6.78476
6.83319
6.81514
6.71727
6.53705
6.2847
5.98104
5.65169
5.3201
4.99733
4.6852
4.38505
4.09739
3.82197
3.55842
3.30683
3.06822
2.84463
2.63966
2.45961
2.3094
2.19242
2.11018
2.06148
2.0423
2.04623
2.06554
2.09258
2.12095
2.14635
2.16663
2.18139
2.19149
2.19852
2.2045
2.2117
2.22266
2.23991
2.26557
2.30069
2.34488
2.39578
2.4502
2.50424
2.55399
2.59603
2.62781
2.64774
2.65515
2.6503
2.63436
2.60962
2.5794
2.548
2.52018
2.50045
2.4921
2.49715
2.51661
2.54757
2.58311
2.61519
2.6364
2.64159
2.62868
2.59883
2.55589
2.50561
2.45482
2.4099
2.3766
2.36046
2.36609
2.3967
2.45347
2.53515
2.64376
2.77543
2.91285
3.03418
3.1206
3.16125
3.15619
3.11595
3.05749
2.99784
2.94775
2.90638
2.86732
2.82469
2.77306
2.70934
2.63386
2.55027
2.46426
2.38153
2.30542
2.23539
2.16858
2.09927
2.00353
1.72408
1.26012
0.725999
0.285088
0
0.959805
3.01256
5.82993
8.73874
11.0087
12.1601
12.1112
11.114
9.57108
7.86633
6.28006
4.9732
3.99627
3.30819
2.86786
2.65769
2.46989
2.29742
2.14274
2.00706
1.89124
1.79739
1.72792
1.68334
1.66444
1.67132
1.70224
1.75294
1.81671
1.8856
1.95229
2.0121
2.06426
2.11216
2.16226
2.22223
2.29876
2.39422
2.50719
2.63536
2.77623
2.92705
3.08589
3.25236
3.42778
3.61475
3.81635
4.03503
4.27166
4.52473
4.79026
5.06229
5.33331
5.59418
5.83443
6.045
6.21969
6.35496
6.44997
6.50618
6.52664
6.515
6.47434
6.4061
6.30961
6.1821
6.01941
5.81814
5.57713
5.29595
4.97822
4.63197
4.26916
3.90425
3.55187
3.22488
2.93348
2.68411
2.47906
2.31677
2.19261
2.09986
2.03061
1.97688
1.93061
1.88424
1.83166
1.76849
1.68919
1.5916
1.48886
1.40099
1.34809
1.34351
1.38937
1.47605
1.58599
1.69969
1.80128
1.88745
1.96034
2.02052
2.06855
2.10543
2.13232
2.15024
2.16005
2.16247
2.15812
2.14771
2.13215
2.11269
2.09092
2.06877
2.04838
2.03178
2.02069
2.01628
2.01909
2.02896
2.04511
2.06609
2.08989
2.11377
2.13366
2.14503
2.14357
2.12624
2.09228
2.04395
1.98666
1.92834
1.87822
1.84493
1.83368
1.84852
1.89055
1.95777
2.04542
2.14668
2.2534
2.35757
2.45183
2.5302
2.58846
2.62434
2.63735
2.62839
2.59931
2.55242
2.49021
2.41547
2.33101
2.23955
2.14386
2.04669
1.95068
1.85796
1.76974
1.6859
1.60466
1.52241
1.43414
1.33109
1.1862
0.967185
0.681556
0.350984
0
0.50691
2.04766
4.49994
7.29505
9.636
10.878
10.8283
9.77551
8.25667
6.74966
5.49674
4.52335
3.76284
3.1607
2.83022
2.60282
2.40559
2.2338
2.09003
1.97508
1.88773
1.82423
1.78002
1.75067
1.7328
1.72461
1.72609
1.73881
1.76541
1.8087
1.87084
1.95328
2.05653
2.17963
2.3201
2.47417
2.63714
2.80407
2.97049
3.13308
3.29028
3.44259
3.59257
3.7445
3.90376
4.07598
4.26611
4.47751
4.71119
4.96531
5.23506
5.51302
5.78993
6.05532
6.29869
6.51171
6.68878
6.82728
6.92712
6.98983
7.01731
7.01005
6.96725
6.88677
6.7654
6.60014
6.38976
6.13619
5.84538
5.52736
5.19537
4.86418
4.54682
4.2555
4.00179
3.78971
3.61659
3.47545
3.35708
3.25214
3.15267
3.05294
2.94952
2.84101
2.7281
2.6121
2.49557
2.38392
2.28511
2.20797
2.16089
2.15007
2.17825
2.24409
2.34254
2.46558
2.60321
2.74398
2.87844
2.99763
3.09413
3.16273
3.20122
3.21069
3.19528
3.1614
3.1166
3.06842
3.02319
2.98481
2.95544
2.93622
2.92773
2.92938
2.93833
2.94991
2.959
2.96119
2.95389
2.93711
2.91372
2.88905
2.8697
2.86191
2.86938
2.89275
2.93169
2.98243
3.03951
3.09743
3.15212
3.20161
3.24603
3.28671
3.32485
3.36048
3.39158
3.41413
3.42311
3.41386
3.38348
3.33176
3.26151
3.17815
3.08888
3.00107
2.9207
2.85147
2.79471
2.75105
2.71997
2.70028
2.69052
2.68917
2.69466
2.70516
2.71835
2.73105
2.64653
2.14637
1.27798
0.365778
0
0.896487
3.13918
6.17453
8.99001
10.6344
10.7017
9.46828
7.63524
5.90136
4.66071
3.95941
3.63478
3.47263
3.30218
3.15068
3.01523
2.89911
2.80658
2.74178
2.70522
2.692
2.69442
2.7039
2.71269
2.71535
2.7097
2.69709
2.68203
2.67117
2.67158
2.68901
2.72672
2.78455
2.86223
2.95561
3.05784
3.16328
3.26968
3.37928
3.49823
3.63469
3.79602
3.9864
4.20271
4.43833
4.68743
4.94435
5.20381
5.46137
5.71353
5.95745
6.19025
6.40806
6.60706
6.78345
6.93364
7.0546
7.14407
7.19881
7.2176
7.19933
7.14286
7.04711
6.91142
6.736
6.5224
6.27385
5.9957
5.69654
5.38442
5.06697
4.752
4.44687
4.15795
3.89018
3.64677
3.42913
3.23703
3.06877
2.92165
2.79235
2.67733
2.57368
2.48003
2.39664
2.32484
2.26738
2.22792
2.20947
2.2132
2.23765
2.27887
2.33127
2.38877
2.44597
2.49967
2.54821
2.59094
2.62792
2.65964
2.68717
2.71187
2.73523
2.75869
2.7835
2.81042
2.83956
2.86981
2.8985
2.9219
2.93606
2.93789
2.92611
2.90191
2.86884
2.83211
2.79727
2.7688
2.7498
2.73987
2.73586
2.7336
2.72968
2.72263
2.7132
2.7035
2.69583
2.69172
2.69132
2.69493
2.70333
2.71827
2.74234
2.77827
2.82783
2.89041
2.96394
3.04356
3.12077
3.1859
3.23011
3.24671
3.23202
3.18552
3.10965
3.00938
2.89187
2.76642
2.64221
2.52685
2.42658
2.34672
2.29389
2.27461
2.28817
2.32422
2.36881
2.40677
2.34718
1.84552
1.04263
0.195918
-0.428482
0
1.67941
4.41685
7.54587
10.1867
11.6347
11.6564
10.532
8.84282
7.15802
5.80632
4.83617
4.13054
3.55729
3.17532
2.89
2.63737
2.4152
2.22855
2.08486
1.98891
1.93146
1.90041
1.88392
1.87329
1.86459
1.85857
1.85923
1.87169
1.8999
1.94299
1.99939
2.06812
2.14751
2.23528
2.32892
2.42508
2.5203
2.61259
2.70266
2.79467
2.89616
3.01692
3.16686
3.35353
3.57988
3.84091
4.12716
4.42936
4.73901
5.04902
5.35481
5.65481
5.94899
6.23949
6.53362
6.82579
7.08464
7.2694
7.34979
7.31854
7.19209
7.00128
6.77751
6.54054
6.29524
6.04041
5.77556
5.50056
5.21556
4.92153
4.62096
4.31798
4.01808
3.72754
3.45265
3.19892
2.97087
2.7715
2.60118
2.45865
2.34173
2.24785
2.17451
2.11927
2.08101
2.05828
2.04643
2.04032
2.03519
2.02777
2.01688
2.00343
1.98968
1.97807
1.96999
1.9652
1.96299
1.96215
1.96118
1.95922
1.95665
1.95543
1.95894
1.97131
1.99636
2.0363
2.09123
2.15964
2.23399
2.3049
2.36346
2.40303
2.42001
2.41321
2.38244
2.32696
2.24521
2.13902
1.99841
1.80689
1.59494
1.40975
1.29807
1.28629
1.36866
1.50983
1.66
1.77474
1.83729
1.86937
1.87533
1.86279
1.84053
1.81666
1.79684
1.78403
1.7797
1.78436
1.79782
1.81942
1.8481
1.88254
1.92115
1.96213
2.00344
2.04277
2.07765
2.10592
2.12589
2.13655
2.13758
2.12925
2.11219
2.08708
2.05442
2.01462
1.96819
1.91537
1.85665
1.79287
1.72516
1.65478
1.58283
1.51002
1.43648
1.36136
1.27781
1.1113
0.720971
0.132478
-0.438827
-0.744113
0
1.90652
4.72669
7.80517
10.3468
11.7483
11.8173
10.7816
9.11469
7.30023
5.66126
4.3137
3.22881
2.33779
1.68819
1.54418
1.42685
1.32641
1.24111
1.16759
1.10277
1.04543
0.99698
0.960702
0.940129
0.937154
0.9483
0.970824
1.00076
1.03412
1.06813
1.10215
1.13798
1.17959
1.23238
1.3021
1.39363
1.50996
1.65078
1.8133
1.99391
2.18861
2.39339
2.60497
2.82118
3.04115
3.26503
3.49362
3.72772
3.96763
4.2127
4.4611
4.70989
4.95541
5.19383
5.42204
5.6383
5.84263
6.03583
6.21819
6.39094
6.55255
6.68576
6.75804
6.73403
6.59088
6.32888
5.97299
5.5648
5.14887
4.75394
4.38088
4.02753
3.6962
3.38811
3.10377
2.84326
2.60645
2.39303
2.20258
2.03454
1.8883
1.76332
1.65934
1.57627
1.51355
1.47035
1.44785
1.44473
1.4548
1.47173
1.49099
1.51135
1.53516
1.56694
1.61087
1.67104
1.74247
1.81516
1.8784
1.926
1.95938
1.98709
2.02112
2.07779
2.15234
2.22227
2.25924
2.24488
2.18104
2.08917
2.00005
1.94045
1.91962
1.92359
1.94242
1.97142
2.00678
2.04496
2.08211
2.11462
2.13971
2.15575
2.1624
2.16051
2.15177
2.13796
2.12043
2.0998
2.07631
2.05044
2.02369
1.99892
1.9802
1.97211
1.97878
2.00098
2.03886
2.09192
2.15836
2.23533
2.31995
2.4093
2.50124
2.59466
2.68946
2.7864
2.88652
2.98567
3.07061
3.12231
3.12319
3.06521
2.95441
2.80968
2.65649
2.51884
2.40594
2.31334
2.23792
2.17826
2.13071
2.09062
2.05306
2.01347
1.96678
1.89619
1.69926
1.28354
0.66385
0
-0.428922
0.137393
1.97593
4.86984
8.0343
10.4643
11.441
10.8692
9.24325
7.3049
5.64619
4.50122
3.79273
3.32234
2.96231
2.72047
2.50281
2.30502
2.13861
2.01136
1.92877
1.89296
1.90172
1.94801
2.02073
2.10661
2.19302
2.27083
2.33716
2.39321
2.4437
2.49488
2.55236
2.61913
2.69467
2.77753
2.86594
2.95789
3.0505
3.13861
3.21737
3.28448
3.34319
3.40449
3.48606
3.60744
3.78282
4.01507
4.28501
4.57265
4.86712
5.16003
5.44571
5.72171
5.98815
6.24588
6.49507
6.73435
6.95814
7.1558
7.31472
7.42421
7.47591
7.46382
7.38417
7.23579
7.02111
6.74726
6.42627
6.0754
5.71295
5.35207
5.00029
4.66337
4.34669
4.05445
3.78955
3.55354
3.34772
3.17215
3.02218
2.8921
2.7765
2.67154
2.57572
2.48987
2.41627
2.35732
2.31397
2.28549
2.26925
2.26153
2.25859
2.25783
2.25849
2.26176
2.27037
2.28762
2.31593
2.35686
2.41081
2.47665
2.5523
2.63329
2.71384
2.78838
2.8525
2.90336
2.93965
2.9611
2.96686
2.9571
2.93217
2.89318
2.84258
2.78475
2.72677
2.67651
2.64088
2.62443
2.62848
2.65136
2.68914
2.73683
2.78883
2.84103
2.89044
2.93503
2.9739
3.00733
3.03667
3.06395
3.09134
3.12042
3.15171
3.18335
3.21078
3.22807
3.22955
3.21145
3.1731
3.11707
3.04843
2.97332
2.89723
2.82347
2.75281
2.68466
2.61782
2.55074
2.48201
2.4106
2.33603
2.25821
2.1773
2.09315
2.00369
1.89216
1.62485
1.15041
0.546537
0.0803442
0
1.06049
3.13759
5.74704
8.1125
9.54706
9.76794
8.96357
7.6169
6.23358
5.1386
4.41382
3.95498
3.58207
3.23201
2.95064
2.70499
2.49097
2.31274
2.17302
2.06892
1.99468
1.94334
1.90841
1.88541
1.87265
1.87136
1.88492
1.91759
1.97219
2.0493
2.1471
2.26171
2.38802
2.51979
2.65108
2.77745
2.89682
3.00979
3.1195
3.23095
3.3501
3.48278
3.63379
3.80666
4.00312
4.22299
4.4643
4.72353
4.99597
5.27616
5.55818
5.8359
6.10294
6.35169
6.5736
6.76158
6.91071
7.01754
7.08014
7.09774
7.07017
6.99725
6.87851
6.71332
6.50399
6.25587
5.97462
5.66606
5.33715
4.99611
4.65167
4.31213
3.98485
3.67593
3.3902
3.13136
2.90217
2.70441
2.53914
2.40878
2.31537
2.25359
2.2143
2.188
2.16685
2.14621
2.12503
2.10519
2.08993
2.08236
2.08333
2.09273
2.11055
2.1365
2.17024
2.21134
2.25897
2.31166
2.36717
2.42279
2.47594
2.52455
2.56746
2.60449
2.63618
2.66334
2.68651
2.70544
2.71883
2.72488
2.72192
2.70915
2.68731
2.65893
2.62795
2.5988
2.57515
2.5603
2.55328
2.55044
2.54725
2.54026
2.52873
2.51494
2.50354
2.5001
2.5092
2.5316
2.56803
2.61906
2.68411
2.7614
2.84853
2.94208
3.03577
3.12202
3.19376
3.24564
3.27484
3.28121
3.26656
3.23374
3.1857
3.12596
3.05767
2.98259
2.90242
2.81905
2.73463
2.65157
2.57236
2.49975
2.43671
2.38636
2.35152
2.33566
2.34362
2.37274
2.4166
2.46879
2.41285
1.84203
0.898763
0
-0.43493
0.410609
2.51803
5.46374
8.47654
10.7645
11.8285
11.6102
10.4331
8.80434
7.19334
5.88067
4.92177
4.21131
3.6009
3.19013
2.90523
2.65899
2.4465
2.27173
2.13537
2.03534
1.96756
1.92627
1.9051
1.89894
1.90472
1.92145
1.94979
1.99117
2.0468
2.11681
2.19963
2.29216
2.39127
2.49412
2.59853
2.70336
2.8086
2.91523
3.02492
3.13965
3.26148
3.39247
3.53467
3.69028
3.86165
4.0512
4.26117
4.49309
4.74728
5.02232
5.31472
5.61895
5.92798
6.23219
6.51964
6.77834
6.99795
7.17045
7.29072
7.3563
7.36587
7.3188
7.2153
7.05712
6.84847
6.59649
6.31103
6.00411
5.68787
5.37126
5.0597
4.75701
4.46555
4.18668
3.92133
3.67063
3.43632
3.22091
3.02748
2.85916
2.71941
2.61684
2.56483
2.55252
2.55212
2.53374
2.47656
2.37793
2.25579
2.14236
2.07124
2.06393
2.10465
2.18392
2.28538
2.39096
2.48585
2.56637
2.63152
2.68057
2.71424
2.73404
2.74156
2.73805
2.7242
2.70027
2.66637
2.62295
2.57125
2.51376
2.45429
2.39813
2.35148
2.32036
2.30953
2.32842
2.38569
2.46903
2.55553
2.62159
2.65097
2.63995
2.5979
2.54304
2.49556
2.47091
2.46927
2.4843
2.51138
2.54727
2.5888
2.63325
2.67887
2.72502
2.772
2.82064
2.87191
2.92623
2.98247
3.03732
3.08545
3.12057
3.13689
3.13034
3.09951
3.04589
2.97349
2.88774
2.79417
2.69729
2.59995
2.50335
2.40796
2.31423
2.22287
2.13481
2.05111
1.97247
1.89885
1.82908
1.76103
1.68324
1.46567
1.0282
0.432595
-0.188037
0
1.42089
4.02702
7.23685
10.1812
12.1002
12.6486
11.9555
10.4601
8.66806
6.97137
5.585
4.56418
3.8465
3.30131
2.89097
2.5638
2.26644
2.00661
1.79015
1.61931
1.49328
1.41
1.36794
1.36402
1.39556
1.45944
1.56048
1.69364
1.83458
1.95541
2.03335
2.05874
2.03856
1.99413
1.95428
1.94662
1.98455
2.06084
2.16707
2.29838
2.45116
2.62165
2.80647
3.00322
3.21076
3.42932
3.66014
3.90489
4.16483
4.43995
4.72824
5.02527
5.3242
5.61609
5.89012
6.13532
6.34263
6.50529
6.61913
6.68228
6.69448
6.65639
6.56901
6.43362
6.25229
6.02916
5.76966
5.47997
5.16715
4.83916
4.50435
4.17067
3.84516
3.53358
3.24024
2.96799
2.71851
2.49262
2.29068
2.11289
1.95968
1.83113
1.72705
1.64856
1.5955
1.5632
1.54517
1.5345
1.52519
1.51336
1.49794
1.48063
1.46518
1.45621
1.45708
1.46943
1.49622
1.53578
1.57952
1.61786
1.64391
1.65665
1.66178
1.66994
1.69261
1.74502
1.82691
1.91912
1.99473
2.03055
2.01633
1.95811
1.87556
1.79498
1.74022
1.71772
1.72177
1.74487
1.77329
1.79243
1.79172
1.76804
1.72617
1.67643
1.63074
1.599
1.58282
1.58087
1.59304
1.62011
1.66306
1.72311
1.80156
1.89938
2.01676
2.15381
2.31069
2.48566
2.67171
2.85311
3.00931
3.12135
3.17409
3.15855
3.07404
2.92912
2.74054
2.52989
2.31875
2.12178
1.94235
1.7795
1.63324
1.50523
1.39676
1.30744
1.23553
1.17749
1.12769
1.07842
1.01113
0.826083
0.48161
0
-0.549073
-0.290704
1.2014
3.75431
6.62799
8.8648
9.76987
9.22849
7.6894
5.86504
4.36194
3.45006
3.05575
2.91716
2.70492
2.51164
2.3303
2.16371
2.01632
1.89099
1.78769
1.70456
1.63868
1.58694
1.5469
1.51732
1.49835
1.49126
1.49764
1.51902
1.55689
1.61193
1.68369
1.77065
1.87047
1.98041
2.09786
2.22071
2.34769
2.47848
2.61362
2.75426
2.90211
3.05921
3.22792
3.41071
3.6099
3.82734
4.06383
4.31862
4.58893
4.86983
5.15462
5.43093
5.68373
5.89957
6.06913
6.18899
6.26184
6.29488
6.29693
6.27526
6.23301
6.17112
6.08682
5.9748
5.83049
5.6515
5.43836
5.1944
4.92501
4.6371
4.33865
4.03547
3.73303
3.43683
3.15247
2.88548
2.64098
2.42309
2.23448
2.07677
1.94995
1.85
1.77103
1.7069
1.65252
1.60481
1.56321
1.52949
1.50703
1.49977
1.51094
1.54236
1.59377
1.66252
1.74435
1.83352
1.92121
1.99882
2.05976
2.10067
2.12184
2.12682
2.12113
2.11076
2.10076
2.09409
2.09173
2.09416
2.10142
2.11328
2.12929
2.1488
2.17088
2.1943
2.21773
2.23984
2.25955
2.27622
2.28985
2.30114
2.31158
2.32329
2.33893
2.3612
2.39227
2.43337
2.48589
2.54742
2.61082
2.6677
2.71081
2.73606
2.74339
2.73605
2.71866
2.69489
2.66612
2.63169
2.5894
2.53642
2.47078
2.39225
2.3029
2.20711
2.11107
2.02174
1.94538
1.88743
1.85284
1.84467
1.85857
1.88659
1.91845
1.91921
1.55447
0.843066
0
-0.701863
-0.364747
1.239
3.8745
6.80244
9.11288
10.1555
9.81043
8.45928
6.71774
5.1212
3.94084
3.18672
2.72802
2.44289
2.30478
2.18452
2.07448
1.97517
1.88814
1.81479
1.75646
1.71381
1.68701
1.67566
1.6787
1.69435
1.72024
1.75381
1.79283
1.8359
1.88269
1.93408
1.99194
2.05858
2.13628
2.22672
2.33075
2.44862
2.58005
2.72444
2.88113
3.04972
3.23014
3.42267
3.62782
3.84596
4.07703
4.3201
4.57319
4.83315
5.09596
5.35712
5.61225
5.85759
6.08981
6.30433
6.49383
6.65109
6.77157
6.84813
6.8732
6.84188
6.75397
6.61331
6.42495
6.19218
5.9193
5.61673
5.29317
4.95449
4.60755
4.26144
3.92641
3.61257
3.3285
3.07941
2.86699
2.68972
2.54386
2.42454
2.32692
2.2469
2.18134
2.12798
2.08526
2.05203
2.02734
2.01037
2.00053
1.9974
2.00071
2.01022
2.02561
2.04615
2.07071
2.09778
2.12563
2.15243
2.17658
2.19723
2.21455
2.22986
2.24545
2.26402
2.28795
2.3185
2.3554
2.39619
2.43693
2.47308
2.50063
2.51697
2.52138
2.515
2.50036
2.48069
2.45922
2.4383
2.41928
2.40248
2.38734
2.37261
2.35663
2.3377
2.31442
2.2861
2.25277
2.21568
2.1778
2.14319
2.11652
2.10256
2.10585
2.13037
2.17927
2.25439
2.35571
2.48457
2.64294
2.81295
2.97081
3.09381
3.16673
3.18553
3.15694
3.09423
3.0117
2.92008
2.82556
2.72997
2.63385
2.53781
2.44316
2.35221
2.26815
2.19466
2.13549
2.09525
2.07771
2.07854
2.0889
2.09664
2.05198
1.67881
1.03963
0.322313
-0.317658
0
1.45166
3.91152
6.86438
9.5941
11.4674
12.1482
11.6519
10.2607
8.38712
6.45536
4.81257
3.65828
3.00387
2.70011
2.52791
2.36946
2.22173
2.08912
1.97534
1.88369
1.81765
1.77903
1.76756
1.7815
1.81745
1.87029
1.93354
1.99998
2.06285
2.11708
2.16032
2.19334
2.21984
2.24555
2.27725
2.32089
2.38011
2.45775
2.55596
2.67566
2.81665
2.97795
3.15822
3.3562
3.57098
3.80202
4.04895
4.31105
4.58684
4.87366
5.16755
5.46349
5.75578
6.03802
6.30275
6.541
6.74306
6.90196
7.01425
7.07711
7.08898
7.05045
6.96485
6.83799
6.67676
6.4871
6.27377
6.04029
5.78823
5.51745
5.22709
4.918
4.59388
4.26158
3.93073
3.6127
3.31917
3.06324
2.85826
2.70954
2.60992
2.54687
2.50597
2.47449
2.44387
2.41086
2.37711
2.3478
2.3296
2.32749
2.34384
2.3853
2.45939
2.55993
2.66358
2.74389
2.77946
2.7611
2.69526
2.60211
2.50903
2.44194
2.41287
2.41378
2.43513
2.47116
2.51738
2.56865
2.62039
2.66908
2.71252
2.74952
2.77942
2.80105
2.81214
2.81003
2.79161
2.75435
2.69764
2.62378
2.53833
2.44954
2.36691
2.29923
2.25239
2.23296
2.24027
2.26478
2.294
2.31608
2.32297
2.31214
2.28647
2.25263
2.21847
2.19051
2.17149
2.16073
2.15653
2.15785
2.16408
2.17555
2.19358
2.22015
2.2572
2.30558
2.36473
2.43386
2.50933
2.58463
2.65309
2.70949
2.75129
2.77895
2.79541
2.80474
2.8106
2.81518
2.81884
2.82061
2.81895
2.8125
2.80056
2.78327
2.76147
2.73635
2.70927
2.68134
2.65336
2.62588
2.59918
2.57326
2.5478
2.52217
2.48874
2.21838
1.60493
0.700454
-0.214902
-0.639619
0
1.96809
5.01263
8.39024
11.1797
12.693
12.7381
11.6034
9.82755
7.93113
6.25562
4.94256
3.99241
3.33322
2.93263
2.75271
2.59312
2.4483
2.32183
2.2173
2.13754
2.08342
2.05475
2.0501
2.0667
2.10037
2.1458
2.19717
2.24858
2.29518
2.3342
2.36556
2.392
2.41876
2.45275
2.50149
2.57188
2.66871
2.79323
2.94449
3.12082
3.31957
3.53713
3.76942
4.01245
4.26265
4.51718
4.7739
5.03126
5.28803
5.54293
5.79442
6.04051
6.27867
6.50593
58
225
381
544
713
875
1034
1201
1370
1527
1693
1862
2025
2189
2362
2533
2695
2860
3028
3193
3352
3520
3701
3712
0
0
0
0
0
0
0
0
0
0
0
0
0
0
0
0
0
0
0
0
0
0
0
0
0
0
0
0
0
0
0
0
0
0
0
0
0
0
0
0
0
0
0
0
0
0
0
0
0
0
0
0
0
0
0
0
0
0
0
0
0
0
0
0
0
0
0
0
0
0
0
0
0
0
0
0
0
0
0
0
0
0
0
0
0
0
0
0
0
0
0
0
0
0
0
0
0
0
0
0
0
0
0
0
0
0
0
0
0
0
0
0
0
0
0
0
0
0
0
0
0
0
0
0
0
0
0
0
0
0
0
0
0
0
0
0
0
0
0
0
0
0
0
0
0
0
0
0
0
0
0
0
0
0
0
0
0
0
0
0
0
0
0
0
0
0
0
0
0
0
0
0
0
0
0
0
0
0
0
0
0
0
0
0
0
0
0
0
0
0
0
0
0
0
0
0
0
0
0
0
0
0
0
0
0
0
0
0
0
0
0
0
0
0
0
0
0
0
0
0
0
0
0
0
0
0
0
0
0
0
0
0
0
0
0
0
0
0
0
0
0
0
0
0
0
0
0
0
0
0
0
0
0
0
0
0
0
0
0
0
0
0
0
0
0
0
0
0
0
0
0
0
0
0
0
0
0
0
0
0
0
0
0
0
0
0
0
0
0
0
0
0
0
0
0
0
0
0
0
0
0
0
0
0
0
0
0
0
0
0
0
0
0
0
0
0
0
0
0
0
0
0
0
0
0
0
0
0
0
0
0
0
0
0
0
0
0
0
0
0
0
0
0
0
0
0
0
0
0
0
0
0
0
0
0
0
0
0
0
0
0
0
0
0
0
0
0
0
0
0
0
0
0
0
0
0
0
0
0
0
0
0
0
0
0
0
0
0
0
0
0
0
0
0
0
0
0
0
0
0
0
0
0
0
0
0
0
0
0
0
0
0
0
0
0
0
0
0
0
0
0
0
0
0
0
0
0
0
0
0
0
0
0
0
0
0
0
0
0
0
0
0
0
0
0
0
0
0
0
0
0
0
0
0
0
0
0
0
0
0
0
0
0
0
0
0
0
0
0
0
0
0
0
0
0
0
0
0
0
0
0
0
0
0
0
0
0
0
0
0
0
0
0
0
0
0
0
0
0
0
0
0
0
0
0
0
0
0
0
0
0
0
0
0
0
0
0
0
0
0
0
0
0
0
0
0
0
0
0
0
0
0
0
0
0
0
0
0
0
0
0
0
0
0
0
0
0
0
0
0
0
0
0
0
0
0
0
0
0
0
0
0
0
0
0
0
0
0
0
0
0
0
0
0
0
0
0
0
0
0
0
0
0
0
0
0
0
0
0
0
0
0
0
0
0
0
0
0
0
0
0
0
0
0
0
0
0
0
0
0
0
0
0
0
0
0
0
0
0
0
0
0
0
0
0
0
0
0
0
0
0
0
0
0
0
0
0
0
0
0
0
0
0
0
0
0
0
0
0
0
0
0
0
0
0
0
0
0
0
0
0
0
0
0
0
0
0
0
0
0
0
0
0
0
0
0
0
0
0
0
0
0
0
0
0
0
0
0
0
0
0
0
0
0
0
0
0
0
0
0
0
0
0
0
0
0
0
0
0
0
0
0
0
0
0
0
0
0
0
0
0
0
0
0
0
0
0
0
0
0
0
0
0
0
0
0
0
0
0
0
0
0
0
0
0
0
0
0
0
0
0
0
0
0
0
0
0
0
0
0
0
0
0
0
0
0
0
0
0
0
0
0
0
0
0
0
0
0
0
0
0
0
0
0
0
0
0
0
0
0
0
0
0
0
0
0
0
0
0
0
0
0
0
0
0
0
0
0
0
0
0
0
0
0
0
0
0
0
0
0
0
0
0
0
0
0
0
0
0
0
0
0
0
0
0
0
0
0
0
0
0
0
0
0
0
0
0
0
0
0
0
0
0
0
0
0
0
0
0
0
0
0
0
0
0
0
0
0
0
0
0
0
0
0
0
0
0
0
0
0
0
0
0
0
0
0
0
0
0
0
0
0
0
0
0
0
0
0
0
0
0
0
0
0
0
0
0
0
0
0
0
0
0
0
0
0
0
0
0
0
0
0
0
0
0
0
0
0
0
0
0
0
0
0
0
0
0
0
0
0
0
0
0
0
0
0
0
0
0
0
0
0
0
0
0
0
0
0
0
0
0
0
0
0
0
0
0
0
0
0
0
0
0
0
0
0
0
0
0
0
0
0
0
0
0
0
0
0
0
0
0
0
0
0
0
0
0
0
0
0
0
0
0
0
0
0
0
0
0
0
0
0
0
0
0
0
0
0
0
0
0
0
0
0
0
0
0
0
0
0
0
0
0
0
0
0
0
0
0
0
0
0
0
0
0
0
0
0
0
0
0
0
0
0
0
0
0
0
0
0
0
0
0
0
0
0
0
0
0
0
0
0
0
0
0
0
0
0
0
0
0
0
0
0
0
0
0
0
0
0
0
0
0
0
0
0
0
0
0
0
0
0
0
0
0
0
0
0
0
0
0
0
0
0
0
0
0
0
0
0
0
0
0
0
0
0
0
0
0
0
0
0
0
0
0
0
0
0
0
0
0
0
0
0
0
0
0
0
0
0
0
0
0
0
0
0
0
0
0
0
0
0
0
0
0
0
0
0
0
0
0
0
0
0
0
0
0
0
0
0
0
0
0
0
0
0
0
0
0
0
0
0
0
0
0
0
0
0
0
0
0
0
0
0
0
0
0
0
0
0
0
0
0
0
0
0
0
0
0
0
0
0
0
0
0
0
0
0
0
0
0
0
0
0
0
0
0
0
0
0
0
0
0
0
0
0
0
0
0
0
0
0
0
0
0
0
0
0
0
0
0
0
0
0
0
0
0
0
0
0
0
0
0
0
0
0
0
0
0
0
0
0
0
0
0
0
0
0
0
0
0
0
0
0
0
0
0
0
0
0
0
0
0
0
0
0
0
0
0
0
0
0
0
0
0
0
0
0
0
0
0
0
0
0
0
0
0
0
0
0
0
0
0
0
0
0
0
0
0
0
0
0
0
0
0
0
0
0
0
0
0
0
0
0
0
0
0
0
0
0
0
0
0
0
0
0
0
0
0
0
0
0
0
0
0
0
0
0
0
0
0
0
0
0
0
0
0
0
0
0
0
0
0
0
0
0
0
0
0
0
0
0
0
0
0
0
0
0
0
0
0
0
0
0
0
0
0
0
0
0
0
0
0
0
0
0
0
0
0
0
0
0
0
0
0
0
0
0
0
0
0
0
0
0
0
0
0
0
0
0
0
0
0
0
0
0
0
0
0
0
0
0
0
0
0
0
0
0
0
0
0
0
0
0
0
0
0
0
0
0
0
0
0
0
0
0
0
0
0
0
0
0
0
0
0
0
0
0
0
0
0
0
0
0
0
0
0
0
0
0
0
0
0
0
0
0
0
0
0
0
0
0
0
0
0
0
0
0
0
0
0
0
0
0
0
0
0
0
0
0
0
0
0
0
0
0
0
0
0
0
0
0
0
0
0
0
0
0
0
0
0
0
0
0
0
0
0
0
0
0
0
0
0
0
0
0
0
0
0
0
0
0
0
0
0
0
0
0
0
0
0
0
0
0
0
0
0
0
0
0
0
0
0
0
0
0
0
0
0
0
0
0
0
0
0
0
0
0
0
0
0
0
0
0
0
0
0
0
0
0
0
0
0
0
0
0
0
0
0
0
0
0
0
0
0
0
0
0
0
0
0
0
0
0
0
0
0
0
0
0
0
0
0
0
0
0
0
0
0
0
0
0
0
0
0
0
0
0
0
0
0
0
0
0
0
0
0
0
0
0
0
0
0
0
0
0
0
0
0
0
0
0
0
0
0
0
0
0
0
0
0
0
0
0
0
0
0
0
0
0
0
0
0
0
0
0
0
0
0
0
0
0
0
0
0
0
0
0
0
0
0
0
0
0
0
0
0
0
0
0
0
0
0
0
0
0
0
0
0
0
0
0
0
0
0
0
0
0
0
0
0
0
0
0
0
0
0
0
0
0
0
0
0
0
0
0
0
0
0
0
0
0
0
0
0
0
0
0
0
0
0
0
0
0
0
0
0
0
0
0
0
0
0
0
0
0
0
0
0
0
0
0
0
0
0
0
0
0
0
0
0
0
0
0
0
0
0
0
0
0
0
0
0
0
0
0
0
0
0
0
0
0
0
0
0
0
0
0
0
0
0
0
0
0
0
0
0
0
0
0
0
0
0
0
0
0
0
0
0
0
0
0
0
0
0
0
0
0
0
0
0
0
0
0
0
0
0
0
0
0
0
0
0
0
0
0
0
0
0
0
0
0
0
0
0
0
0
0
0
0
0
0
0
0
0
0
0
0
0
0
0
0
0
0
0
0
0
0
0
0
0
0
0
0
0
0
0
0
0
0
0
0
0
0
0
0
0
0
0
0
0
0
0
0
0
0
0
0
0
0
0
0
0
0
0
0
0
0
0
0
0
0
0
0
0
0
0
0
0
0
0
0
0
0
0
0
0
0
0
0
0
0
0
0
0
0
0
0
0
0
0
0
0
0
0
0
0
0
0
0
0
0
0
0
0
0
0
0
0
0
0
0
0
0
0
0
0
0
0
0
0
0
0
0
0
0
0
0
0
0
0
0
0
0
0
0
0
0
0
0
0
0
0
0
0
0
0
0
0
0
0
0
0
0
0
0
0
0
0
0
0
0
0
0
0
0
0
0
0
0
0
0
0
0
0
0
0
0
0
0
0
0
0
0
0
0
0
0
0
0
0
0
0
0
0
0
0
0
0
0
0
0
0
0
0
0
0
0
0
0
0
0
0
0
0
0
0
0
0
0
0
0
0
0
0
0
0
0
0
0
0
0
0
0
0
0
0
0
0
0
0
0
0
0
0
0
0
0
0
0
0
0
0
0
0
0
0
0
0
0
0
0
0
0
0
0
0
0
0
0
0
0
0
0
0
0
0
0
0
0
0
0
0
0
0
0
0
0
0
0
0
0
0
0
0
0
0
0
0
0
0
0
0
0
0
0
0
0
0
0
0
0
0
0
0
0
0
0
0
0
0
0
0
0
0
0
0
0
0
0
0
0
0
0
0
0
0
0
0
0
0
0
0
0
0
0
0
0
0
0
0
0
0
0
0
0
0
0
0
0
0
0
0
0
0
0
0
0
0
0
0
0
0
0
0
0
0
0
0
0
0
0
0
0
0
0
0
0
0
0
0
0
0
0
0
0
0
0
0
0
0
0
0
0
0
0
0
0
0
0
0
0
0
0
0
0
0
0
0
0
0
0
0
0
0
0
0
0
0
0
0
0
0
0
0
0
0
0
0
0
0
0
0
0
0
0
0
0
0
0
0
0
0
0
0
0
0
0
0
0
0
0
0
0
0
0
0
0
0
0
0
0
0
0
0
0
0
0
0
0
0
0
0
0
0
0
0
0
0
0
0
0
0
0
0
0
0
0
0
0
0
0
0
0
0
0
0
0
0
0
0
0
0
0
0
0
0
0
0
0
0
0
0
0
0
0
0
0
0
0
0
0
0
0
0
0
0
0
0
0
0
0
0
0
0
0
0
0
0
0
0
0
0
0
0
0
0
0
0
0
0
0
0
0
0
0
0
0
0
0
0
0
0
0
0
0
0
0
0
0
0
0
0
0
0
0
0
0
0
0
0
0
0
0
0
0
0
0
0
0
0
0
0
0
0
0
0
0
0
0
0
0
0
0
0
0
0
0
0
0
0
0
0
0
0
0
0
0
0
0
0
0
0
0
0
0
0
0
0
0
0
0
0
0
0
0
0
0
0
0
0
0
0
0
0
0
0
0
0
0
0
0
0
0
0
0
0
0
0
0
0
0
0
0
0
0
0
0
0
0
0
0
0
0
0
0
0
0
0
0
0
0
0
0
0
0
0
0
0
0
0
0
0
0
0
0
0
0
0
0
0
0
0
0
0
0
0
0
0
0
0
0
0
0
0
0
0
0
0
0
0
0
0
0
0
0
0
0
0
0
0
0
0
0
0
0
0
0
0
0
0
0
0
0
0
0
0
0
0
0
0
0
0
0
0
0
0
0
0
0
0
0
0
0
0
0
0
0
0
0
0
0
0
0
0
0
0
0
0
0
0
0
0
0
0
0
0
0
0
0
0
0
0
0
0
0
0
0
0
0
0
0
0
0
0
0
0
0
0
0
0
0
0
0
0
0
0
0
0
0
0
0
0
0
0
0
0
0
0
0
0
0
0
0
0
0
0
0
0
0
0
0
0
0
0
0
0
0
0
0
0
0
0
0
0
0
0
0
0
0
0
0
0
0
0
0
0
0
0
0
0
0
0
0
0
0
0
0
0
0
0
0
0
0
0
0
0
0
0
0
0
0
0
0
0
0
0
0
0
0
0
0
0
0
0
0
0
0
0
0
0
0
0
0
0
0
0
0
0
0
0
0
0
0
0
0
0
0
0
0
0
0
0
0
0
0
0
0
0
0
0
0
0
0
0
0
0
0
0
0
0
0
0
0
0
0
0
0
0
0
0
0
0
0
0
0
0
0
0
0
0
0
0
0
0
0
0
0
0
0
0
0
0
0
0
0
0
0
0
0
0
0
0
0
0
0
0
0
0
0
0
0
0
0
0
0
0
0
0
0
0
0
0
0
0
0
0
0
0
0
0
0
0
0
0
0
0
0
0
0
0
0
0
0
0
0
0
0
0
0
0
0
0
0
0
0
0
0
0
0
0
0
0
0
0
0
0
0
0
0
0
0
0
0
0
0
0
0
0
0
0
0
0
0
0
0
0
0
0
0
0
0
0
0
0
0
0
0
0
0
0
0
0
0
0
0
0
0
0
0
0
0
0
0
0
0
0
0
0
0
0
0
0
0
0
0
0
0
0
0
0
0
0
0
0
0
0
0
0
0
0
0
0
0
0
0
0
0
0
0
0
0
0
0
0
0
0
0
0
0
0
0
0
0
0
0
0
0
0
0
0
0
0
0
0
0
0
0
0
0
0
0
0
0
0
0
0
0
0
0
0
0
0
0
0
0
0
0
0
0
0
0
0
0
0
0
0
0
0
0
0
0
0
0
0
0
0
0
0
0
0
0
0
0
0
0
0
0
0
0
0
0
0
0
0
0
0
0
0
0
0
0
0
0
0
0
0
0
0
0
0
0
0
0
0
0
0
0
0
0
0
0
0
0
0
0
0
0
0
0
0
0
0
0
0
0
0
0
0
0
0
0
0
0
0
0
0
0
0
0
0
0
0
0
0
0
0
0
0
0
0
0
0
0
0
0
0
0
0
0
0
0
0
0
0
0
0
0
0
0
0
0
0
0
0
0
0
0
0
0
0
0
0
0
0
0
0
0
0
0
0
0
0
0
0
0
0
0
0
0
0
0
0
0
0
0
0
0
0
0
0
0
0
0
0
0
0
0
0
0
0
0
0
0
0
0
0
0
0
0
0
0
0
0
0
0
0
0
0
0
0
0
0
0
0
0
0
0
0
0
0
0
0
0
0
0
0
0
0
0
0
0
0
0
0
0
0
0
0
0
0
0
0
0
0
0
0
0
0
0
0
0
0
0
0
0
0
0
0
0
0
0
0
0
0
0
0
0
0
0
0
0
0
0
0
0
0
0
0
0
0
0
0
0
0
0
0
0
0
0
0
0
0
0
0
0
0
0
0
0
0
0
0
0
0
0
0
0
0
0
0
0
0
0
0
0
0
0
0
0
0
0
0
0
0
0
0
0
0
0
0
0
0
0
0
0
0
0
0
0
0
0
0
0
0
0
0
0
0
0
0
0
0
0
0
0
0
0
0
0
0
0
0
0
0
0
0
0
0
0
0
0
0
0
0
0
0
0
0
0
0
0
0
0
0
0
0
0
0
0
0
0
0
0
0
0
0
0
0
0
0
0
0
0
0
0
0
0
0
0
0
0
0
0
0
0
0
0
0
0
0
0
0
0
0
0
0
0
0
0
0
0
0
0
0
0
0
0
0
0
0
0
0
0
0
0
0
0
0
0
0
0
0
0
0
0
0
0
0
0
0
0
0
0
0
0
0
0
0
0
0
0
0
0
0
0
0
0
0
0
0
0
0
0
0
0
0
0
0
0
0
0
0
0
0
0
0
0
0
0
0
0
0
0
0
0
0
0
0
0
0
0
0
0
0
0
0
0
0
0
0
0
0
0
0
0
0
0
0
0
0
0
0
0
0
0
0
0
0
0
0
0
0
0
0
0
0
0
0
0
0
0
0
0
0
0
0
0
0
0
0
0
0
0
0
0
0
0
0
0
0
0
0
0
0
0
0
0
0
0
0
0
0
0
0
0
0
0
0
0
0
0
0
0
0
0
0
0
0
0
0
0
0
0
0
0
0
0
0
0
0
0
0
0
0
0
0
0
0
0
0
0
0
0
0
0
0
0
0
