-1.12903
-0.938985
-0.788574
-0.6742
-0.592169
-0.5365
-0.499686
-0.473512
-0.449804
-0.421487
-0.383078
-0.331301
-0.265425
-0.187244
-0.100508
-0.00916824
0.0833239
0.175013
0.265983
0.35829
0.455306
0.560655
0.677042
0.805195
0.943627
1.08878
1.23556
1.37825
1.51158
1.63163
1.73641
1.82599
1.90221
1.96807
2.02697
2.08194
2.13492
2.18618
2.23397
2.27389
2.2979
2.296
2.25904
2.18059
2.05965
1.90253
1.72301
1.5404
1.3758
1.25103
1.19141
1.20067
1.25479
1.31788
1.35336
1.33368
1.24623
1.09515
0.899875
0.690815
0.501853
0.357138
0.265002
0.220293
0.218286
0.247752
0.294029
0.342667
0.382633
0.408113
0.418521
0.416985
0.408087
0.395862
0.382653
0.369099
0.355106
0.340704
0.32678
0.315469
0.310087
0.314565
0.332461
0.366328
0.417148
0.483881
0.563482
0.651506
0.742735
0.832003
0.914968
0.98863
1.05152
1.10354
1.14563
1.17934
1.20659
1.22942
1.24981
1.26961
1.29028
1.31257
1.33612
1.35885
1.37628
1.38216
1.36965
1.33286
1.26844
1.1765
1.0607
0.927429
0.784414
0.639497
0.499216
0.368546
0.2522
0.154812
0.0797008
0.0286665
0.00247917
0
0.0295403
0.0604256
0.0784468
0.0720045
0.0349964
-0.0317566
-0.173024
-0.192137
0.634165
2.51858
5.24642
8.15105
10.3539
11.124
10.1612
7.6753
4.27439
0.752993
-2.1426
-3.91583
-4.29415
-3.85609
-2.85242
-1.68377
-0.633274
0.106166
0.443976
0.634436
0.778011
0.897192
0.998092
1.08569
1.16481
1.23936
1.312
1.38395
1.45539
1.52593
1.59527
1.66381
1.73302
1.80548
1.88463
1.97412
2.07703
2.19505
2.32834
2.47465
2.6289
2.78427
2.93268
3.06482
3.1727
3.25239
3.30437
3.33403
3.35141
3.3698
3.40332
3.46373
3.56727
3.71681
3.89168
4.05765
4.17896
4.22807
4.1922
4.07581
3.89889
3.6918
3.48732
3.31022
3.16798
3.05437
2.96039
2.88047
2.80832
2.73823
2.66581
2.58828
2.50426
2.41366
2.31719
2.21591
2.11128
2.0054
1.90122
1.80261
1.71436
1.642
1.59101
1.56602
1.57108
1.61038
1.685
1.78618
1.89444
1.98879
2.05214
2.07589
2.06215
2.02293
1.97631
1.94094
1.93032
1.94553
1.98066
2.02956
2.08311
2.13197
2.16895
2.19074
2.1986
2.19789
2.19651
2.20271
2.22265
2.25848
2.30923
2.36779
2.42508
2.47342
2.50964
2.53664
2.56296
2.60039
2.66039
2.75699
2.90167
3.07482
3.22673
3.29902
3.2421
3.03102
2.6752
2.21853
1.72895
1.28041
0.917114
0.680948
0.744266
1.19184
1.79419
2.31563
2.55542
2.39236
1.83845
1.06474
0.35891
0
0.00405545
0.107263
0.228605
0.339834
0.420527
0.460498
0.255606
0.241026
1.29396
3.49899
6.4304
9.25369
11.0423
11.1606
9.51841
6.55864
3.02404
-0.335644
-2.96833
-4.58028
-5.08778
-4.74991
-3.7881
-2.51869
-1.22128
-0.124231
0.450946
0.579875
0.614305
0.618403
0.604376
0.585752
0.574646
0.579268
0.600128
0.633884
0.676577
0.72347
0.769861
0.812127
0.84846
0.879185
0.906709
0.93514
0.969687
1.01589
1.07869
1.16183
1.26732
1.39488
1.54164
1.70255
1.87054
2.03678
2.19227
2.32957
2.44394
2.53388
2.60101
2.64941
2.68439
2.71133
2.73469
2.75743
2.78081
2.80459
2.8272
2.84575
2.85557
2.85017
2.82259
2.76597
2.67492
2.54691
2.38325
2.1894
1.97455
1.75056
1.53044
1.32522
1.14508
0.998916
0.896804
0.84988
0.859981
0.910635
0.976398
1.03042
1.05066
1.02486
0.953133
0.847454
0.728488
0.620256
0.541684
0.500471
0.494776
0.518086
0.56384
0.623408
0.688034
0.750493
0.806092
0.852911
0.891408
0.923696
0.952871
0.982081
1.0142
1.05146
1.09508
1.14502
1.19983
1.25617
1.30969
1.35588
1.39107
1.41327
1.42272
1.42195
1.41556
1.40961
1.41071
1.42532
1.45953
1.52062
1.62119
1.79156
2.09191
2.53263
3.0099
3.38196
3.51053
3.32238
2.85633
2.25974
1.72766
1.41236
1.28406
1.22525
1.19198
1.17187
1.15602
1.1388
1.11812
1.09472
1.07082
1.04833
1.02724
1.0044
0.972322
0.920586
0.838228
0.716688
0.552362
0.347961
0.112196
-0.142846
-0.422198
0
1.14578
3.11792
5.82913
8.8387
11.3687
12.5609
11.875
9.38988
5.80729
2.13702
-0.757123
-2.48309
-3.13515
-2.90443
-2.54261
-2.02477
-1.40119
-0.767291
-0.239617
0.169011
0.500266
0.783761
1.02729
1.22682
1.37906
1.48252
1.53916
1.5556
1.54348
1.51828
1.49705
1.49525
1.52118
1.57578
1.6557
1.75614
1.86979
1.98819
2.10386
2.21167
2.30954
2.39825
2.48059
2.56011
2.63992
2.72178
2.80582
2.89086
2.97469
3.05443
3.12668
3.18833
3.23698
3.27115
3.2905
3.2958
3.28865
3.27099
3.24449
3.2101
3.16824
3.11862
3.06061
2.99385
2.91836
2.83457
2.743
2.64395
2.53754
2.4236
2.30204
2.17352
2.03984
1.90415
1.77075
1.64448
1.52996
1.43107
1.35013
1.28727
1.241
1.20875
1.18749
1.17429
1.16671
1.16299
1.16186
1.16265
1.16502
1.16884
1.17389
1.17957
1.1846
1.18708
1.18492
1.17649
1.16126
1.14017
1.11555
1.09063
1.0688
1.05269
1.04398
1.04404
1.05399
1.07476
1.10724
1.15197
1.20872
1.27709
1.35453
1.43452
1.50925
1.57189
1.61882
1.65104
1.67431
1.69773
1.73136
1.78366
1.85694
1.94949
2.05898
2.1808
2.30669
2.42429
2.52023
2.58227
2.6012
2.57254
2.49757
2.38336
2.24172
2.0871
1.93401
1.7932
1.66998
1.56623
1.48236
1.41674
1.3662
1.32672
1.294
1.26376
1.23191
1.19445
1.1474
1.08693
1.0094
0.911732
0.79192
0.649503
0.485914
0.302021
0.0575737
0
0.80694
2.7823
5.7928
9.19239
12.0104
13.3241
12.6323
10.0415
6.19797
2.03188
-1.55224
-3.92437
-4.85556
-4.46904
-3.383
-2.02797
-0.825772
-0.035738
0.243333
0.377751
0.488008
0.590937
0.691633
0.79355
0.898591
1.00686
1.11682
1.22573
1.3305
1.42865
1.51918
1.60311
1.68356
1.76526
1.85363
1.95348
2.06778
2.19669
2.3381
2.48603
2.63206
2.76792
2.88748
2.98815
3.07112
3.14056
3.20209
3.26099
3.32081
3.38265
3.44572
3.50783
3.56594
3.61681
3.65742
3.68525
3.69824
3.69472
3.67338
3.6333
3.57426
3.49713
3.40431
3.29999
3.19004
3.08137
2.98091
2.89532
2.83094
2.78733
2.75243
2.70924
2.64116
2.53757
2.39747
2.22991
2.05125
1.88057
1.73328
1.61389
1.52298
1.46129
1.42758
1.41893
1.42902
1.44713
1.46188
1.4638
1.44729
1.41194
1.36269
1.30859
1.26044
1.22787
1.21524
1.22296
1.24934
1.28675
1.32514
1.35592
1.37468
1.38269
1.38651
1.39588
1.42058
1.46723
1.53568
1.62068
1.71628
1.81639
1.91555
2.00999
2.09817
2.18061
2.2592
2.33628
2.41384
2.4929
2.5733
2.65375
2.73186
2.80432
2.86752
2.91797
2.95269
2.96963
2.96777
2.94706
2.90823
2.85248
2.78147
2.69745
2.60268
2.49957
2.39078
2.27901
2.16657
2.05507
1.94518
1.83662
1.7285
1.61974
1.50952
1.39756
1.284
1.16912
1.05279
0.934125
0.81133
0.681938
0.543313
0.393269
0.227426
-0.0620354
0
1.045
3.28319
6.45801
9.81852
12.3255
13.0408
11.5321
8.09332
3.65299
-0.59306
-3.64934
-5.06422
-4.94315
-3.9985
-2.76686
-1.66007
-0.793305
-0.132733
0.255995
0.520724
0.726608
0.879044
0.98526
1.05888
1.11587
1.16994
1.22922
1.29424
1.36214
1.42954
1.49324
1.55144
1.60409
1.65271
1.69988
1.74851
1.80137
1.8611
1.93021
2.01103
2.10557
2.21516
2.33996
2.47889
2.629
2.78457
2.93706
3.07593
3.19086
3.27367
3.31964
3.32823
3.30319
3.25158
3.18216
3.10335
3.02132
2.93901
2.8564
2.77198
2.6841
2.59215
2.49726
2.40231
2.31112
2.2274
2.15313
2.08842
2.03166
1.9795
1.92744
1.87056
1.80435
1.72541
1.63193
1.52416
1.4045
1.27737
1.14858
1.0249
0.912831
0.817638
0.742505
0.688185
0.653161
0.634272
0.627601
0.629369
0.636509
0.647078
0.660037
0.67487
0.691126
0.708106
0.724657
0.739398
0.751194
0.759699
0.765761
0.771508
0.780026
0.794683
0.818272
0.852082
0.895444
0.946448
1.00168
1.05678
1.10766
1.15129
1.18628
1.21306
1.23351
1.25043
1.26675
1.28493
1.30627
1.33084
1.35734
1.38299
1.40321
1.4117
1.40153
1.36597
1.29977
1.20036
1.06884
0.910226
0.733038
0.54822
0.36741
0.200232
0.0542164
-0.0651688
-0.155614
-0.21899
-0.260953
-0.289554
-0.313835
-0.342174
-0.380801
-0.432767
-0.497496
-0.571013
-0.646811
-0.717213
-0.774941
-0.814576
-0.833515
-0.832303
-0.80141
-0.597428
0
1.18993
3.15276
5.77656
8.54137
10.6081
11.1343
9.68686
6.50697
2.44682
-1.41108
-4.22369
-5.6765
-5.87704
-5.4903
-4.79
-4.01016
-3.23481
-2.48374
-1.85828
-1.4456
-1.17816
-0.997578
-0.87959
-0.817419
-0.796704
-0.797779
-0.799277
-0.782244
-0.736551
-0.661605
-0.557122
-0.427831
-0.28872
-0.159195
-0.0561581
0.0105928
0.0412437
0.0462097
0.043544
0.0541271
0.0960499
0.177489
0.294154
0.437309
0.598517
0.769712
0.943155
1.11234
1.27245
1.4201
1.55298
1.66978
1.76952
1.8512
1.91376
1.95616
1.97712
1.97608
1.95295
1.90834
1.84357
1.7607
1.66232
1.55129
1.43043
1.30236
1.16964
1.03453
0.899405
0.766934
0.639985
0.52132
0.413138
0.316645
0.23182
0.157423
0.0912838
0.0309237
-0.0257301
-0.0796402
-0.13028
-0.175634
-0.212598
-0.237789
-0.248456
-0.24321
-0.222407
-0.188092
-0.14359
-0.0928627
-0.0398844
0.0122519
0.0614716
0.106794
0.148172
0.186098
0.221089
0.253129
0.281497
0.304821
0.321468
0.330153
0.330509
0.323395
0.310825
0.29559
0.280741
0.269083
0.262891
0.264187
0.274943
0.297172
0.332929
0.384083
0.45191
0.53663
0.636993
0.750134
0.871906
0.997003
1.11924
1.23171
1.32707
1.39882
1.44217
1.45436
1.43513
1.38708
1.31542
1.22735
1.13082
1.03323
0.939999
0.853714
0.774829
0.702379
0.634354
0.56836
0.502162
0.434
0.362664
0.287424
0.207951
0.124296
0.036957
-0.0529709
-0.143334
-0.230736
-0.311166
-0.38083
-0.437096
-0.478839
-0.478254
0
0.94617
2.60227
5.05621
7.98622
10.6254
12.0167
11.4605
8.89595
4.97802
0.795197
-2.60212
-4.59596
-5.06778
-4.52791
-3.46033
-2.25587
-1.1664
-0.35561
-0.0103603
0.131426
0.215052
0.266211
0.2996
0.332303
0.379822
0.452362
0.549937
0.665993
0.793601
0.92627
1.05811
1.18479
1.30408
1.41576
1.52096
1.62143
1.71866
1.81333
1.90515
1.99324
2.07671
2.15538
2.23034
2.30397
2.37945
2.45984
2.54687
2.64055
2.73768
2.8317
2.91464
2.97912
3.02036
3.03735
3.03323
3.01435
2.98874
2.96406
2.94542
2.93443
2.93028
2.92914
2.92499
2.91137
2.88289
2.83631
2.77094
2.68833
2.59138
2.48337
2.36747
2.24635
2.12197
1.99632
1.87186
1.75162
1.63894
1.53704
1.44833
1.37426
1.31505
1.26996
1.23765
1.21669
1.2061
1.20568
1.21589
1.23749
1.27122
1.31741
1.37333
1.4301
1.47523
1.49677
1.48759
1.44867
1.38984
1.32741
1.27913
1.25846
1.26718
1.3
1.34817
1.40066
1.44761
1.48292
1.50513
1.51667
1.52196
1.52547
1.53021
1.53747
1.54786
1.56174
1.5797
1.60287
1.63293
1.67169
1.72065
1.78028
1.85015
1.92741
2.00605
2.0784
2.13656
2.17393
2.18641
2.17297
2.13555
2.07834
2.0067
1.92647
1.84248
1.75818
1.67583
1.59676
1.52168
1.4508
1.38386
1.31991
1.2571
1.19236
1.12138
1.03922
0.941208
0.824121
0.687144
0.532427
0.36458
0.190605
0.0179621
-0.14703
-0.299485
-0.410748
0
0.898537
2.48969
4.82094
7.57295
10.0644
11.488
11.2611
9.29621
6.04371
2.30617
-1.06994
-3.47168
-4.66469
-4.69679
-4.23061
-3.50381
-2.77005
-2.109
-1.47886
-0.948965
-0.579691
-0.324361
-0.147476
-0.0382084
0.0145658
0.0293983
0.0278
0.0293112
0.0468546
0.082972
0.136309
0.204981
0.286271
0.376881
0.4735
0.573116
0.673134
0.77137
0.866039
0.955714
1.03945
1.11728
1.19032
1.26105
1.33329
1.41188
1.502
1.60953
1.74156
1.90348
2.08859
2.26985
2.41295
2.48785
2.47927
2.3933
2.25724
2.11131
1.99475
1.93159
1.91225
1.9153
1.92776
1.93662
1.93187
1.90796
1.86354
1.80004
1.71999
1.62713
1.52537
1.41749
1.30705
1.19835
1.09606
1.0044
0.925907
0.861251
0.809946
0.769915
0.737845
0.709773
0.681588
0.649437
0.610022
0.560847
0.500455
0.428699
0.347016
0.258527
0.167975
0.0816551
0.0113064
0.00326862
0.284406
1.06508
2.07644
3.03152
3.60299
3.52539
2.72268
1.37589
-0.123631
-1.2812
-1.47413
-1.156
-0.730315
-0.200746
0.433204
1.07993
1.62482
1.97763
2.09139
1.97251
1.68261
1.32686
1.02504
0.870616
0.85211
0.904515
0.989974
1.09125
1.19701
1.29771
1.38585
1.45593
1.50402
1.5272
1.5233
1.49046
1.42723
1.33294
1.20836
1.05625
0.881789
0.692552
0.49809
0.308975
0.135419
-0.0136833
-0.130265
-0.205653
-0.237094
-0.239848
-0.235016
-0.242929
-0.277195
-0.341
-0.427041
-0.521022
-0.607249
-0.674062
-0.721317
-0.741311
-0.566891
0
1.21275
3.23931
5.87102
8.49136
10.2553
10.4247
8.70886
5.43777
1.45888
-2.20388
-4.76061
-5.91454
-5.85728
-5.12045
-4.12451
-3.15445
-2.31277
-1.63406
-1.19852
-0.933687
-0.744637
-0.599442
-0.48674
-0.403367
-0.346892
-0.313382
-0.297745
-0.294181
-0.296733
-0.299859
-0.298943
-0.290622
-0.272987
-0.245298
-0.207396
-0.159236
-0.100649
-0.0312031
0.0497077
0.1426
0.247606
0.364267
0.491531
0.627966
0.772073
0.922552
1.07839
1.23866
1.40209
1.56657
1.72814
1.88015
2.01451
2.12283
2.19806
2.236
2.23606
2.2012
2.13712
2.05102
1.95078
1.84393
1.73605
1.63122
1.53232
1.44106
1.35801
1.28235
1.21231
1.1458
1.08104
1.01711
0.954012
0.89247
0.833256
0.776502
0.721141
0.664848
0.604361
0.536315
0.458226
0.369328
0.270994
0.166651
0.0612492
-0.0394664
-0.129726
-0.204107
-0.257448
-0.284922
-0.280826
-0.228022
-0.0858203
0.173265
0.484248
0.745654
0.855758
0.75632
0.461332
0.056359
-0.33198
-0.583944
-0.658134
-0.629215
-0.545222
-0.417201
-0.256594
-0.0743871
0.119029
0.316011
0.510433
0.696138
0.866701
1.0169
1.14286
1.24295
1.31853
1.37397
1.41573
1.45069
1.48404
1.5174
1.5466
1.56101
1.54655
1.4903
1.38515
1.23299
1.04518
0.840187
0.639238
0.461169
0.313361
0.195799
0.109265
0.0515794
0.0183729
0.00409341
0.00317702
0.00961604
0.0176923
0.0229286
0.022519
0.0155865
0.00313439
-0.0123811
-0.027798
-0.0401239
-0.047368
-0.0490236
-0.0428771
0
0.394916
1.4762
3.4029
5.95023
8.4874
10.1776
10.3112
8.61722
5.40103
1.44265
-2.29352
-5.00227
-6.26628
-6.19614
-5.18632
-3.77989
-2.44484
-1.45689
-0.923665
-0.734211
-0.576274
-0.424568
-0.277054
-0.135984
-0.0056509
0.108486
0.200627
0.266023
0.302354
0.310768
0.296333
0.267803
0.236685
0.215618
0.215924
0.245903
0.309635
0.406552
0.532782
0.681964
0.845791
1.01448
1.1785
1.33063
1.467
1.58747
1.69516
1.79533
1.89375
1.99516
2.10191
2.21359
2.32664
2.43472
2.52904
2.60058
2.64211
2.64936
2.6218
2.56279
2.4789
2.37847
2.26978
2.15948
2.05148
1.94696
1.8461
1.7488
1.65524
1.56616
1.48254
1.40521
1.33422
1.26796
1.2038
1.13902
1.07198
1.00292
0.934133
0.869244
0.812065
0.765845
0.731891
0.709316
0.696558
0.692946
0.699848
0.720693
0.759941
0.829505
0.931415
1.03952
1.11439
1.11865
1.03414
0.872431
0.672898
0.489312
0.370724
0.330773
0.344707
0.414962
0.526762
0.649091
0.751252
0.810422
0.817146
0.777567
0.711787
0.648648
0.618147
0.641707
0.717931
0.850746
1.03578
1.23548
1.40742
1.51832
1.55575
1.5327
1.48287
1.44849
1.46537
1.55018
1.71943
1.93688
2.13529
2.24892
2.23487
2.08782
1.84424
1.57129
1.33997
1.1924
1.10579
1.04017
0.971229
0.880896
0.764215
0.630718
0.499779
0.39209
0.320942
0.278587
0.25854
0.24728
0.229433
0.192079
0.127989
0.036951
-0.0760931
-0.318227
0
1.29472
3.65259
6.70523
9.66756
11.6088
11.8387
10.2131
7.19079
3.60922
0.313849
-2.14791
-3.62449
-4.13276
-4.17978
-3.8226
-3.18539
-2.36022
-1.41315
-0.419955
0.419693
0.99992
1.39204
1.5502
1.48664
1.27578
1.0296
0.852183
0.797176
0.819933
0.871591
0.933822
0.996509
1.0538
1.10455
1.15145
1.19937
1.25333
1.31613
1.3891
1.47232
1.56229
1.65168
1.73372
1.80519
1.86829
1.93069
2.00311
2.09531
2.21185
2.34898
2.49464
2.63682
2.76302
2.8629
2.93008
2.9626
2.96221
2.93286
2.87949
2.80705
2.71858
2.6157
2.49943
2.37103
2.23248
2.08679
1.93797
1.79065
1.64942
1.51806
1.39897
1.29275
1.19821
1.11286
1.03371
0.958211
0.885113
0.81493
0.749989
0.693917
0.650717
0.624279
0.617518
0.630215
0.657024
0.688229
0.712852
0.721287
0.707744
0.671839
0.61893
0.559068
0.504801
0.468349
0.457633
0.474364
0.515667
0.577595
0.652328
0.729729
0.799233
0.851562
0.879967
0.881066
0.855252
0.806696
0.742944
0.674069
0.611425
0.56607
0.546668
0.557713
0.600727
0.674046
0.772733
0.889447
1.01558
1.14241
1.26235
1.3692
1.45829
1.5264
1.57129
1.59124
1.58443
1.54867
1.48305
1.388
1.26625
1.12349
0.968526
0.812373
0.666689
0.543619
0.454139
0.401017
0.375654
0.362848
0.34521
0.307812
0.241883
0.146716
0.0294807
-0.0968132
-0.216603
-0.316374
-0.388672
-0.432673
-0.450469
-0.446219
-0.421227
-0.343248
0
0.970503
2.80263
5.3778
8.14931
10.2823
10.9763
9.80841
6.92557
2.9948
-1.04586
-4.30731
-6.20825
-6.58542
-5.72916
-4.1504
-2.4471
-1.09246
-0.343305
-0.232731
-0.23251
-0.246306
-0.263301
-0.275261
-0.273212
-0.248983
-0.197358
-0.116468
-0.00880928
0.120766
0.260547
0.396518
0.515975
0.610555
0.678154
0.723226
0.755483
0.787481
0.831835
0.89717
0.987342
1.1032
1.24316
1.40304
1.57692
1.75676
1.93262
2.09484
2.23525
2.34815
2.43099
2.48446
2.51226
2.52029
2.51558
2.50507
2.49391
2.48491
2.47782
2.46849
2.45074
2.41872
2.36927
2.30337
2.22599
2.14442
2.06561
1.99343
1.9269
1.8623
1.79378
1.71536
1.62297
1.51611
1.39839
1.27704
1.1614
1.0608
0.981455
0.92625
0.896379
0.889712
0.900123
0.917709
0.931219
0.930623
0.908897
0.863176
0.795026
0.709748
0.614889
0.518387
0.426819
0.34403
0.271889
0.211492
0.163718
0.12999
0.112571
0.114251
0.13751
0.183484
0.250318
0.334478
0.430345
0.530502
0.626293
0.709806
0.775286
0.820027
0.844678
0.852914
0.850593
0.844596
0.841662
0.847267
0.864819
0.896097
0.941797
1.0016
1.0742
1.15734
1.24803
1.34242
1.43593
1.52347
1.5996
1.65846
1.69356
1.69836
1.66762
1.59755
1.48696
1.33828
1.15841
0.958677
0.753912
0.560498
0.393441
0.26397
0.182296
0.15213
0.164864
0.204223
0.250915
0.28621
0.294736
0.266098
0.195356
0.0826721
-0.0674937
-0.246888
-0.445268
-0.660086
-0.655139
0
1.49602
3.84977
6.71815
9.40932
11.0959
11.1434
9.38669
6.20956
2.39537
-1.16475
-3.76937
-5.09389
-5.10595
-4.45042
-3.41815
-2.36396
-1.50013
-0.948994
-0.633528
-0.407192
-0.223347
-0.0706014
0.0505854
0.141641
0.206538
0.251393
0.283692
0.311292
0.341436
0.379927
0.430363
0.494527
0.57312
0.665936
0.77199
0.8897
1.01697
1.15126
1.28967
1.42899
1.56582
1.69676
1.81837
1.92708
2.01968
2.0951
2.15417
2.19997
2.23795
2.27529
2.31955
2.3769
2.45033
2.53852
2.63546
2.73285
2.821
2.89053
2.93381
2.94586
2.92478
2.87167
2.79106
2.68945
2.57428
2.45346
2.33424
2.22198
2.11891
2.02484
1.93663
1.84956
1.75881
1.66096
1.55508
1.44321
1.33009
1.22237
1.12718
1.05038
0.996661
0.969282
0.971087
1.00293
1.05648
1.1148
1.15951
1.17504
1.15239
1.09119
0.999482
0.891327
0.78322
0.689392
0.616555
0.566718
0.540268
0.536118
0.551092
0.580647
0.619682
0.663302
0.707409
0.749078
0.786518
0.818888
0.846001
0.868083
0.885684
0.8997
0.911529
0.923295
0.937971
0.959343
0.991739
1.03959
1.10691
1.19687
1.31214
1.45536
1.63071
1.84216
2.07735
2.29604
2.44832
2.48697
2.384
2.14413
1.80706
1.43638
1.09965
0.844947
0.660759
0.525508
0.431541
0.375162
0.35145
0.353322
0.370877
0.393638
0.412556
0.421089
0.415777
0.396143
0.363953
0.322056
0.273211
0.21945
0.161739
0.0988836
0
0.175563
1.19916
3.25611
6.03301
8.77767
10.6078
10.8832
9.44748
6.64723
3.16508
-0.228206
-2.90082
-4.503
-4.93899
-4.59494
-3.7285
-2.67055
-1.66569
-0.858309
-0.306063
0.0805596
0.386766
0.628917
0.792348
0.871015
0.871159
0.812532
0.725683
0.645277
0.601418
0.609513
0.661681
0.744755
0.849687
0.96978
1.09898
1.23228
1.36591
1.49729
1.62465
1.74675
1.86268
1.97192
2.07435
2.17042
2.26118
2.34812
2.43293
2.51723
2.60215
2.68805
2.7743
2.85906
2.93915
3.01016
3.06751
3.10697
3.1256
3.12239
3.09858
3.05753
3.0041
2.94372
2.88145
2.82107
2.76459
2.71252
2.66409
2.61735
2.5693
2.51618
2.45386
2.37855
2.28753
2.18005
2.05801
1.92625
1.79222
1.6656
1.55645
1.47337
1.42191
1.40354
1.41594
1.45258
1.50387
1.55813
1.60305
1.62858
1.62837
1.60086
1.54954
1.48245
1.4108
1.34679
1.30099
1.27922
1.28109
1.30426
1.34157
1.38384
1.42202
1.4491
1.46129
1.45815
1.44208
1.41714
1.38813
1.35964
1.33547
1.31904
1.31352
1.3217
1.34587
1.38736
1.44622
1.52092
1.60827
1.70371
1.80149
1.89543
1.97945
2.04791
2.09574
2.11916
2.11569
2.0842
2.02504
1.94008
1.83264
1.70723
1.56901
1.42329
1.27501
1.12825
0.986227
0.851528
0.726215
0.61195
0.510073
0.421508
0.346533
0.284828
0.235491
0.197149
0.168089
0.146415
0.130122
0.117188
0.105667
0.0937527
0.0785364
0
0.35892
1.59564
3.83271
6.72173
9.48499
11.1921
11.1479
9.19039
5.75895
1.71854
-1.95421
-4.48995
-5.52848
-5.23767
-4.12022
-2.74476
-1.54943
-0.715928
-0.294618
-0.150923
-0.0550986
0.0259452
0.0997419
0.169896
0.239254
0.309682
0.381783
0.4549
0.527349
0.596622
0.659794
0.714648
0.760333
0.798071
0.831558
0.866818
0.911412
0.973061
1.05797
1.16913
1.30651
1.4661
1.63798
1.80802
1.95992
2.07842
2.15303
2.17941
2.16075
2.10833
2.04098
1.983
1.96046
1.99633
2.10175
2.30574
2.62718
3.0173
3.39728
3.69532
3.86464
3.88928
3.7798
3.5645
3.28123
2.97234
2.67944
2.42826
2.22852
2.08099
1.98619
1.94351
1.9489
1.99376
2.06032
2.12979
2.18582
2.21711
2.21849
2.19033
2.13685
2.06415
1.9794
1.88949
1.79993
1.71609
1.64336
1.58653
1.54904
1.53228
1.53611
1.55672
1.58866
1.62615
1.6643
1.69987
1.73133
1.75839
1.78127
1.80028
1.8156
1.82734
1.836
1.84275
1.84939
1.85805
1.87059
1.88794
1.90972
1.93452
1.9597
1.982
1.99873
2.009
2.01457
2.02037
2.03417
2.06554
2.12536
2.23553
2.43167
2.73862
3.10718
3.44677
3.67056
3.7191
3.57621
3.27374
2.88125
2.4827
2.15021
1.90165
1.7114
1.55928
1.43651
1.33938
1.26391
1.2056
1.16008
1.1234
1.09213
1.0632
1.03348
0.99918
0.955407
0.896684
0.817492
0.713376
0.582155
0.424848
0.245601
0.0236122
0
0.73062
2.43455
5.04515
8.0665
10.6344
11.8273
11.089
8.51758
4.83544
1.06057
-1.9213
-3.65405
-4.09959
-3.66319
-2.92583
-2.05751
-1.2222
-0.544773
-0.133563
0.118279
0.299365
0.442192
0.556584
0.652137
0.739019
0.826017
0.919015
1.01972
1.12689
1.23779
1.34873
1.45582
1.55547
1.6448
1.72205
1.7866
1.839
1.88098
1.91534
1.94571
1.97614
2.01072
2.05317
2.10646
2.17283
2.25383
2.35024
2.46184
2.58712
2.72345
2.86633
3.00757
3.13673
3.24325
3.31831
3.35645
3.35626
3.32027
3.25379
3.16344
3.05611
2.9382
2.81429
2.68769
2.56121
2.43773
2.32033
2.21216
2.11613
2.03441
1.96819
1.91657
1.87528
1.83775
1.79686
1.74662
1.68363
1.60783
1.52239
1.43278
1.34532
1.26541
1.19622
1.13897
1.09381
1.05977
1.0353
1.01873
1.00883
1.00484
1.00643
1.01327
1.02499
1.04061
1.05827
1.076
1.0924
1.10727
1.12174
1.13791
1.15804
1.18362
1.21466
1.24944
1.28561
1.32082
1.35324
1.3821
1.40793
1.43235
1.45771
1.48645
1.52059
1.56129
1.60869
1.66181
1.71873
1.77687
1.83322
1.88465
1.92834
1.96201
1.98413
1.99395
1.99148
1.9773
1.95232
1.91747
1.87359
1.82125
1.76053
1.69132
1.61357
1.52764
1.43464
1.33656
1.23629
1.13726
1.04303
0.95664
0.880026
0.813686
0.756574
0.706218
0.659019
0.610648
0.556514
0.492417
0.415169
0.32316
0.21521
0.049224
0
0.832366
2.81274
5.74295
8.91213
11.3273
12.1122
10.8761
7.87176
3.88818
-0.0545042
-3.06538
-4.65862
-4.78957
-4.04795
-2.90842
-1.82793
-1.0146
-0.481522
-0.165308
0.0548137
0.235733
0.392698
0.531993
0.657895
0.77444
0.884954
0.991168
1.09193
1.18212
1.25428
1.30099
1.31842
1.30911
1.28307
1.25649
1.24846
1.27637
1.34949
1.46396
1.6121
1.78713
1.97959
2.17898
2.37558
2.56151
2.73135
2.88242
3.01449
3.1292
3.22928
3.31759
3.39621
3.46571
3.52483
3.57102
3.60075
3.61041
3.59733
3.5605
3.50086
3.42108
3.32505
3.21737
3.10323
2.98735
2.87392
2.76684
2.66938
2.58386
2.51142
2.4511
2.39926
2.35077
2.30011
2.24256
2.17522
2.09752
2.01119
1.91982
1.82818
1.7412
1.66371
1.59985
1.55263
1.52354
1.51229
1.51681
1.53345
1.55755
1.58409
1.6085
1.62737
1.63858
1.64151
1.63706
1.62762
1.61665
1.60849
1.60773
1.61837
1.64297
1.68194
1.73408
1.79481
1.85694
1.9128
1.95584
1.98199
1.99021
1.98231
1.96223
1.93508
1.90647
1.88159
1.86515
1.86197
1.8767
1.91339
1.97629
2.06927
2.19484
2.35024
2.51763
2.66453
2.75639
2.76488
2.67619
2.49667
2.25342
1.98847
1.74745
1.56464
1.43826
1.35881
1.32012
1.30853
1.3097
1.31277
1.313
1.31183
1.31435
1.32506
1.34534
1.36144
1.34535
1.26332
1.08769
0.808275
0.438577
0
-0.547072
-0.0270508
1.83517
4.82824
8.2301
11.0328
12.3329
11.6996
9.34305
5.9945
2.57074
-0.196145
-1.98025
-2.84144
-2.66173
-2.37587
-1.9324
-1.35304
-0.72305
-0.162699
0.258994
0.570996
0.816344
1.01679
1.17931
1.31168
1.4223
1.51892
1.60765
1.69232
1.77441
1.85332
1.92705
1.9931
2.04975
2.09686
2.13644
2.17268
2.2115
2.25962
2.32332
2.40727
2.51329
2.6397
2.78237
2.93555
3.09218
3.24421
3.38312
3.50081
3.59078
3.64828
3.67058
3.65734
3.61079
3.53569
3.43897
3.32892
3.21413
3.1021
2.99789
2.90391
2.82013
2.74414
2.67201
2.59925
2.5218
2.4368
2.34296
2.24065
2.13167
2.01894
1.90593
1.79625
1.69339
1.60041
1.51955
1.45207
1.39806
1.35642
1.32493
1.30063
1.2801
1.25993
1.23701
1.20892
1.17418
1.13256
1.08531
1.03518
0.986462
0.944657
0.915404
0.903357
0.911023
0.938093
0.982103
1.03594
1.08975
1.13385
1.16092
1.16763
1.15522
1.12909
1.09744
1.06954
1.05364
1.05494
1.07617
1.11836
1.18072
1.26048
1.35335
1.45417
1.55752
1.65865
1.75407
1.84181
1.92126
1.99258
2.05566
2.10948
2.15165
2.17886
2.18728
2.17378
2.13711
2.07858
2.00198
1.91272
1.81655
1.71826
1.62071
1.52477
1.43007
1.33552
1.23997
1.14258
1.04307
0.941724
0.83922
0.73643
0.634255
0.533543
0.435041
0.339372
0.247009
0.158266
0.0732739
-0.00803061
-0.0855052
-0.154242
0
0.718659
2.24996
4.64132
7.53816
10.1785
11.6336
11.2083
8.79243
4.96
0.751027
-2.75409
-4.84821
-5.34345
-4.76789
-3.72968
-2.72709
-2.04032
-1.67217
-1.41053
-1.19157
-0.995968
-0.818677
-0.658161
-0.51268
-0.37973
-0.257128
-0.143207
-0.0374385
0.0586514
0.141061
0.205128
0.246249
0.261924
0.253466
0.226759
0.191698
0.160428
0.144921
0.154535
0.191258
0.253458
0.339555
0.44714
0.572955
0.713643
0.865995
1.02696
1.19344
1.36198
1.52853
1.68816
1.83566
1.96592
2.0745
2.15815
2.21496
2.24443
2.24729
2.22541
2.18197
2.12152
2.04984
1.97388
1.90102
1.838
1.7915
1.76523
1.75227
1.73688
1.7002
1.62632
1.50785
1.34914
1.16617
0.983069
0.82656
0.713731
0.684292
0.779853
0.948233
1.10591
1.17056
1.09561
0.891841
0.624875
0.388547
0.266353
0.284227
0.377574
0.514427
0.678426
0.844741
0.98953
1.09474
1.15063
1.15664
1.12053
1.05628
0.981276
0.913424
0.866558
0.847795
0.860964
0.910213
1.0041
1.14757
1.32035
1.48678
1.61139
1.67013
1.65871
1.59435
1.50987
1.44222
1.42016
1.44549
1.50366
1.58266
1.6734
1.76684
1.85482
1.93096
1.99105
2.03288
2.05576
2.05995
2.04621
2.01572
1.97006
1.91151
1.84329
1.76959
1.6953
1.62548
1.56452
1.51553
1.47979
1.45619
1.44114
1.42871
1.41118
1.38024
1.32832
1.24976
1.14185
1.00536
0.843929
0.664265
0.475538
0.287069
0.107989
0
0.573846
1.70805
3.53189
5.98751
8.66613
10.8409
11.7261
10.8488
8.31064
4.76657
1.1337
-1.78726
-3.56553
-4.07625
-3.79765
-2.97389
-1.96045
-1.04553
-0.410393
-0.0828157
0.109429
0.260637
0.394395
0.517707
0.633824
0.744848
0.851985
0.95546
1.05462
1.14817
1.23461
1.31269
1.38163
1.44118
1.49133
1.53217
1.56381
1.5866
1.60142
1.61019
1.61638
1.62513
1.64295
1.67688
1.73337
1.81699
1.9289
2.06682
2.22625
2.4003
2.58065
2.75874
2.92681
3.07871
3.21033
3.31961
3.4061
3.47015
3.51257
3.53402
3.53463
3.51395
3.47136
3.40652
3.32
3.21368
3.09091
2.95637
2.81549
2.67378
2.53622
2.40676
2.28812
2.18172
2.08784
2.00583
1.9343
1.87151
1.8154
1.76384
1.71542
1.66994
1.62869
1.59421
1.56958
1.55732
1.55846
1.57212
1.59405
1.61843
1.63939
1.65265
1.65662
1.65258
1.64406
1.63563
1.63146
1.634
1.64409
1.6611
1.68297
1.70643
1.72734
1.74154
1.74598
1.73969
1.72446
1.70503
1.68853
1.68318
1.69651
1.73349
1.79536
1.88047
1.98254
2.09366
2.20647
2.31555
2.41789
2.51219
2.5968
2.66925
2.72549
2.76017
2.76804
2.74555
2.6919
2.60937
2.50292
2.37949
2.24814
2.11683
1.99233
1.88049
1.78628
1.71384
1.66331
1.62604
1.5897
1.54167
1.47257
1.37855
1.26165
1.12807
0.98529
0.839193
0.692444
0.544757
0.394286
0.237089
0
0.181285
1.32111
3.5583
6.60597
9.77506
12.1639
12.9594
11.7417
8.67505
4.49572
0.279405
-2.93824
-4.53111
-4.33032
-3.21574
-1.69871
-0.371777
0.45936
0.803267
1.05374
1.27366
1.45246
1.57959
1.64898
1.66198
1.62857
1.56602
1.49499
1.43448
1.39717
1.38343
1.38952
1.41288
1.45153
1.50356
1.56744
1.64203
1.72631
1.81918
1.9193
2.02528
2.13581
2.2499
2.36688
2.48636
2.6079
2.7306
2.85258
2.97019
3.07705
3.16465
3.22487
3.25138
3.24195
3.20011
3.13549
3.06233
2.99635
2.95071
2.93177
2.94375
2.97308
2.99807
2.99638
2.95227
2.86143
2.73174
2.58005
2.4267
2.28979
2.17582
2.08348
2.01075
1.95549
1.91332
1.87738
1.84001
1.79425
1.73489
1.65938
1.56819
1.46459
1.35398
1.24287
1.13754
1.04291
0.962932
0.899994
0.854997
0.827776
0.817288
0.822365
0.84223
0.876782
0.926488
0.991892
1.07377
1.17202
1.28312
1.39686
1.49743
1.5682
1.5959
1.57437
1.50688
1.40607
1.29155
1.1855
1.1077
1.06613
1.05856
1.07989
1.12531
1.18841
1.26204
1.33939
1.41476
1.48372
1.54263
1.58894
1.62066
1.636
1.63321
1.61055
1.56637
1.49934
1.40883
1.29539
1.16201
1.01307
0.85455
0.694046
0.539594
0.398514
0.276544
0.177017
0.100995
0.0477425
0.0153482
0.00120068
0.00215359
0.014517
0.033877
0.0550213
0.0725857
0.0818499
0.0796164
0.0648739
0.0390013
0
-0.0893364
0.318339
1.60641
3.85318
6.62832
9.07305
10.2702
9.68508
7.41283
4.10374
0.64731
-2.18333
-3.95797
-4.42701
-4.27855
-3.82105
-3.23977
-2.69435
-2.22548
-1.78337
-1.36437
-0.981797
-0.642037
-0.349498
-0.105781
0.0834236
0.217395
0.300768
0.343057
0.357403
0.358803
0.362145
0.379877
0.419731
0.485162
0.576726
0.692434
0.828363
0.978369
1.13474
1.29017
1.43877
1.57667
1.70201
1.81449
1.91402
2.00169
2.07872
2.14665
2.20752
2.26391
2.31868
2.37432
2.43224
2.49231
2.55295
2.61182
2.6662
2.71341
2.75107
2.77703
2.78915
2.78482
2.7613
2.71632
2.64858
2.55865
2.44948
2.32639
2.19621
2.06592
1.94087
1.82391
1.71336
1.60307
1.48499
1.35229
1.2024
1.03629
0.867984
0.720756
0.618818
0.57972
0.608678
0.696847
0.824015
0.964638
1.09496
1.20234
1.28329
1.33779
1.36999
1.38604
1.39209
1.39338
1.39319
1.39347
1.39537
1.39953
1.40613
1.41486
1.4249
1.43519
1.44478
1.45335
1.46143
1.4705
1.48272
1.50051
1.52605
1.56081
1.60609
1.66269
1.73067
1.80921
1.89636
1.98913
2.08297
2.1724
2.25186
2.31647
2.36255
2.3878
2.39113
2.37226
2.33145
2.26999
2.18959
2.0922
1.98069
1.85862
1.72991
1.59813
1.46593
1.33469
1.20467
1.07555
0.947301
0.821077
0.699943
0.589336
0.496204
0.427793
0.39204
0.403443
0.466135
0.555103
0.635725
0.674562
0.649673
0.556144
0.208738
0
0.930939
3.25361
6.6218
10.0949
12.4744
12.831
10.9316
7.32843
3.06888
-0.778883
-3.50305
-4.86659
-4.96815
-4.18325
-2.83635
-1.29677
0.0899081
0.999706
1.29738
1.47374
1.62596
1.76548
1.89314
2.00852
2.10968
2.19368
2.25754
2.29956
2.32064
2.32505
2.3203
2.31625
2.32334
2.35065
2.40347
2.48239
2.58582
2.71094
2.85431
3.01304
3.18544
3.37089
3.56893
3.77802
3.99529
4.21281
4.41812
4.59755
4.73945
4.83704
4.88998
4.90414
4.88995
4.85998
4.82654
4.79871
4.78154
4.77749
4.78724
4.80928
4.83971
4.87284
4.90183
4.91922
4.91749
4.88975
4.8309
4.73843
4.61321
4.45999
4.28734
4.10677
3.93119
3.77286
3.64049
3.53942
3.47097
3.43158
3.41441
3.41105
3.41308
3.4134
3.40693
3.39087
3.36454
3.32919
3.28747
3.24287
3.19937
3.16105
3.13145
3.113
3.10684
3.11204
3.12414
3.13619
3.14087
3.13243
3.10847
3.07078
3.02494
2.97887
2.94049
2.91505
2.90644
2.91168
2.92381
2.93467
2.93773
2.93006
2.91258
2.88887
2.86313
2.83842
2.81556
2.79421
2.77384
2.75427
2.736
2.71997
2.70688
2.69617
2.68536
2.66953
2.6417
2.59404
2.51956
2.41385
2.27645
2.11136
1.92658
1.7328
1.54157
1.36259
1.20273
1.06667
0.956211
0.870573
0.806849
0.760537
0.726027
0.69698
0.666229
0.626432
0.570958
0.494745
0.395148
0.272546
0.128773
-0.0635483
0
0.86045
2.6282
5.1358
7.8966
10.204
11.3447
10.8626
8.74745
5.45468
1.73966
-1.60743
-3.99893
-5.14201
-5.15794
-4.33324
-3.0417
-1.65844
-0.4603
0.319328
0.540484
0.6363
0.712825
0.78884
0.877741
0.989167
1.12903
1.29538
1.47005
1.63032
1.75733
1.84291
1.89167
1.91807
1.94004
1.97262
2.02134
2.08425
2.15971
2.24628
2.34238
2.44676
2.55853
2.67702
2.8015
2.93112
3.06479
3.20118
3.33871
3.47561
3.6099
3.7393
3.86108
3.97193
4.06837
4.14763
4.20773
4.24789
4.26873
4.272
4.26005
4.23503
4.19817
4.14979
4.08991
4.01801
3.93435
3.84073
3.74082
3.63987
3.54384
3.45819
3.38696
3.33267
3.29533
3.27251
3.2607
3.25652
3.25763
3.26319
3.27364
3.28999
3.31282
3.34165
3.37405
3.40593
3.43229
3.44829
3.45048
3.43771
3.41166
3.37676
3.33959
3.30771
3.28819
3.28635
3.3047
3.34335
3.40013
3.47101
3.55092
3.63455
3.71706
3.79436
138
288
440
596
751
904
1058
1213
1369
1522
1674
1827
1982
2134
2286
2439
2592
2743
2895
3048
3199
3349
3501
3652
3684
0
0
0
0
0
0
0
0
0
0
0
0
0
0
0
0
0
0
0
0
0
0
0
0
0
0
0
0
0
0
0
0
0
0
0
0
0
0
0
0
0
0
0
0
0
0
0
0
0
0
0
0
0
0
0
0
0
0
0
0
0
0
0
0
0
0
0
0
0
0
0
0
0
0
0
0
0
0
0
0
0
0
0
0
0
0
0
0
0
0
0
0
0
0
0
0
0
0
0
0
0
0
0
0
0
0
0
0
0
0
0
0
0
0
0
0
0
0
0
0
0
0
0
0
0
0
0
0
0
0
0
0
0
0
0
0
0
0
0
0
0
0
0
0
0
0
0
0
0
0
0
0
0
0
0
0
0
0
0
0
0
0
0
0
0
0
0
0
0
0
0
0
0
0
0
0
0
0
0
0
0
0
0
0
0
0
0
0
0
0
0
0
0
0
0
0
0
0
0
0
0
0
0
0
0
0
0
0
0
0
0
0
0
0
0
0
0
0
0
0
0
0
0
0
0
0
0
0
0
0
0
0
0
0
0
0
0
0
0
0
0
0
0
0
0
0
0
0
0
0
0
0
0
0
0
0
0
0
0
0
0
0
0
0
0
0
0
0
0
0
0
0
0
0
0
0
0
0
0
0
0
0
0
0
0
0
0
0
0
0
0
0
0
0
0
0
0
0
0
0
0
0
0
0
0
0
0
0
0
0
0
0
0
0
0
0
0
0
0
0
0
0
0
0
0
0
0
0
0
0
0
0
0
0
0
0
0
0
0
0
0
0
0
0
0
0
0
0
0
0
0
0
0
0
0
0
0
0
0
0
0
0
0
0
0
0
0
0
0
0
0
0
0
0
0
0
0
0
0
0
0
0
0
0
0
0
0
0
0
0
0
0
0
0
0
0
0
0
0
0
0
0
0
0
0
0
0
0
0
0
0
0
0
0
0
0
0
0
0
0
0
0
0
0
0
0
0
0
0
0
0
0
0
0
0
0
0
0
0
0
0
0
0
0
0
0
0
0
0
0
0
0
0
0
0
0
0
0
0
0
0
0
0
0
0
0
0
0
0
0
0
0
0
0
0
0
0
0
0
0
0
0
0
0
0
0
0
0
0
0
0
0
0
0
0
0
0
0
0
0
0
0
0
0
0
0
0
0
0
0
0
0
0
0
0
0
0
0
0
0
0
0
0
0
0
0
0
0
0
0
0
0
0
0
0
0
0
0
0
0
0
0
0
0
0
0
0
0
0
0
0
0
0
0
0
0
0
0
0
0
0
0
0
0
0
0
0
0
0
0
0
0
0
0
0
0
0
0
0
0
0
0
0
0
0
0
0
0
0
0
0
0
0
0
0
0
0
0
0
0
0
0
0
0
0
0
0
0
0
0
0
0
0
0
0
0
0
0
0
0
0
0
0
0
0
0
0
0
0
0
0
0
0
0
0
0
0
0
0
0
0
0
0
0
0
0
0
0
0
0
0
0
0
0
0
0
0
0
0
0
0
0
0
0
0
0
0
0
0
0
0
0
0
0
0
0
0
0
0
0
0
0
0
0
0
0
0
0
0
0
0
0
0
0
0
0
0
0
0
0
0
0
0
0
0
0
0
0
0
0
0
0
0
0
0
0
0
0
0
0
0
0
0
0
0
0
0
0
0
0
0
0
0
0
0
0
0
0
0
0
0
0
0
0
0
0
0
0
0
0
0
0
0
0
0
0
0
0
0
0
0
0
0
0
0
0
0
0
0
0
0
0
0
0
0
0
0
0
0
0
0
0
0
0
0
0
0
0
0
0
0
0
0
0
0
0
0
0
0
0
0
0
0
0
0
0
0
0
0
0
0
0
0
0
0
0
0
0
0
0
0
0
0
0
0
0
0
0
0
0
0
0
0
0
0
0
0
0
0
0
0
0
0
0
0
0
0
0
0
0
0
0
0
0
0
0
0
0
0
0
0
0
0
0
0
0
0
0
0
0
0
0
0
0
0
0
0
0
0
0
0
0
0
0
0
0
0
0
0
0
0
0
0
0
0
0
0
0
0
0
0
0
0
0
0
0
0
0
0
0
0
0
0
0
0
0
0
0
0
0
0
0
0
0
0
0
0
0
0
0
0
0
0
0
0
0
0
0
0
0
0
0
0
0
0
0
0
0
0
0
0
0
0
0
0
0
0
0
0
0
0
0
0
0
0
0
0
0
0
0
0
0
0
0
0
0
0
0
0
0
0
0
0
0
0
0
0
0
0
0
0
0
0
0
0
0
0
0
0
0
0
0
0
0
0
0
0
0
0
0
0
0
0
0
0
0
0
0
0
0
0
0
0
0
0
0
0
0
0
0
0
0
0
0
0
0
0
0
0
0
0
0
0
0
0
0
0
0
0
0
0
0
0
0
0
0
0
0
0
0
0
0
0
0
0
0
0
0
0
0
0
0
0
0
0
0
0
0
0
0
0
0
0
0
0
0
0
0
0
0
0
0
0
0
0
0
0
0
0
0
0
0
0
0
0
0
0
0
0
0
0
0
0
0
0
0
0
0
0
0
0
0
0
0
0
0
0
0
0
0
0
0
0
0
0
0
0
0
0
0
0
0
0
0
0
0
0
0
0
0
0
0
0
0
0
0
0
0
0
0
0
0
0
0
0
0
0
0
0
0
0
0
0
0
0
0
0
0
0
0
0
0
0
0
0
0
0
0
0
0
0
0
0
0
0
0
0
0
0
0
0
0
0
0
0
0
0
0
0
0
0
0
0
0
0
0
0
0
0
0
0
0
0
0
0
0
0
0
0
0
0
0
0
0
0
0
0
0
0
0
0
0
0
0
0
0
0
0
0
0
0
0
0
0
0
0
0
0
0
0
0
0
0
0
0
0
0
0
0
0
0
0
0
0
0
0
0
0
0
0
0
0
0
0
0
0
0
0
0
0
0
0
0
0
0
0
0
0
0
0
0
0
0
0
0
0
0
0
0
0
0
0
0
0
0
0
0
0
0
0
0
0
0
0
0
0
0
0
0
0
0
0
0
0
0
0
0
0
0
0
0
0
0
0
0
0
0
0
0
0
0
0
0
0
0
0
0
0
0
0
0
0
0
0
0
0
0
0
0
0
0
0
0
0
0
0
0
0
0
0
0
0
0
0
0
0
0
0
0
0
0
0
0
0
0
0
0
0
0
0
0
0
0
0
0
0
0
0
0
0
0
0
0
0
0
0
0
0
0
0
0
0
0
0
0
0
0
0
0
0
0
0
0
0
0
0
0
0
0
0
0
0
0
0
0
0
0
0
0
0
0
0
0
0
0
0
0
0
0
0
0
0
0
0
0
0
0
0
0
0
0
0
0
0
0
0
0
0
0
0
0
0
0
0
0
0
0
0
0
0
0
0
0
0
0
0
0
0
0
0
0
0
0
0
0
0
0
0
0
0
0
0
0
0
0
0
0
0
0
0
0
0
0
0
0
0
0
0
0
0
0
0
0
0
0
0
0
0
0
0
0
0
0
0
0
0
0
0
0
0
0
0
0
0
0
0
0
0
0
0
0
0
0
0
0
0
0
0
0
0
0
0
0
0
0
0
0
0
0
0
0
0
0
0
0
0
0
0
0
0
0
0
0
0
0
0
0
0
0
0
0
0
0
0
0
0
0
0
0
0
0
0
0
0
0
0
0
0
0
0
0
0
0
0
0
0
0
0
0
0
0
0
0
0
0
0
0
0
0
0
0
0
0
0
0
0
0
0
0
0
0
0
0
0
0
0
0
0
0
0
0
0
0
0
0
0
0
0
0
0
0
0
0
0
0
0
0
0
0
0
0
0
0
0
0
0
0
0
0
0
0
0
0
0
0
0
0
0
0
0
0
0
0
0
0
0
0
0
0
0
0
0
0
0
0
0
0
0
0
0
0
0
0
0
0
0
0
0
0
0
0
0
0
0
0
0
0
0
0
0
0
0
0
0
0
0
0
0
0
0
0
0
0
0
0
0
0
0
0
0
0
0
0
0
0
0
0
0
0
0
0
0
0
0
0
0
0
0
0
0
0
0
0
0
0
0
0
0
0
0
0
0
0
0
0
0
0
0
0
0
0
0
0
0
0
0
0
0
0
0
0
0
0
0
0
0
0
0
0
0
0
0
0
0
0
0
0
0
0
0
0
0
0
0
0
0
0
0
0
0
0
0
0
0
0
0
0
0
0
0
0
0
0
0
0
0
0
0
0
0
0
0
0
0
0
0
0
0
0
0
0
0
0
0
0
0
0
0
0
0
0
0
0
0
0
0
0
0
0
0
0
0
0
0
0
0
0
0
0
0
0
0
0
0
0
0
0
0
0
0
0
0
0
0
0
0
0
0
0
0
0
0
0
0
0
0
0
0
0
0
0
0
0
0
0
0
0
0
0
0
0
0
0
0
0
0
0
0
0
0
0
0
0
0
0
0
0
0
0
0
0
0
0
0
0
0
0
0
0
0
0
0
0
0
0
0
0
0
0
0
0
0
0
0
0
0
0
0
0
0
0
0
0
0
0
0
0
0
0
0
0
0
0
0
0
0
0
0
0
0
0
0
0
0
0
0
0
0
0
0
0
0
0
0
0
0
0
0
0
0
0
0
0
0
0
0
0
0
0
0
0
0
0
0
0
0
0
0
0
0
0
0
0
0
0
0
0
0
0
0
0
0
0
0
0
0
0
0
0
0
0
0
0
0
0
0
0
0
0
0
0
0
0
0
0
0
0
0
0
0
0
0
0
0
0
0
0
0
0
0
0
0
0
0
0
0
0
0
0
0
0
0
0
0
0
0
0
0
0
0
0
0
0
0
0
0
0
0
0
0
0
0
0
0
0
0
0
0
0
0
0
0
0
0
0
0
0
0
0
0
0
0
0
0
0
0
0
0
0
0
0
0
0
0
0
0
0
0
0
0
0
0
0
0
0
0
0
0
0
0
0
0
0
0
0
0
0
0
0
0
0
0
0
0
0
0
0
0
0
0
0
0
0
0
0
0
0
0
0
0
0
0
0
0
0
0
0
0
0
0
0
0
0
0
0
0
0
0
0
0
0
0
0
0
0
0
0
0
0
0
0
0
0
0
0
0
0
0
0
0
0
0
0
0
0
0
0
0
0
0
0
0
0
0
0
0
0
0
0
0
0
0
0
0
0
0
0
0
0
0
0
0
0
0
0
0
0
0
0
0
0
0
0
0
0
0
0
0
0
0
0
0
0
0
0
0
0
0
0
0
0
0
0
0
0
0
0
0
0
0
0
0
0
0
0
0
0
0
0
0
0
0
0
0
0
0
0
0
0
0
0
0
0
0
0
0
0
0
0
0
0
0
0
0
0
0
0
0
0
0
0
0
0
0
0
0
0
0
0
0
0
0
0
0
0
0
0
0
0
0
0
0
0
0
0
0
0
0
0
0
0
0
0
0
0
0
0
0
0
0
0
0
0
0
0
0
0
0
0
0
0
0
0
0
0
0
0
0
0
0
0
0
0
0
0
0
0
0
0
0
0
0
0
0
0
0
0
0
0
0
0
0
0
0
0
0
0
0
0
0
0
0
0
0
0
0
0
0
0
0
0
0
0
0
0
0
0
0
0
0
0
0
0
0
0
0
0
0
0
0
0
0
0
0
0
0
0
0
0
0
0
0
0
0
0
0
0
0
0
0
0
0
0
0
0
0
0
0
0
0
0
0
0
0
0
0
0
0
0
0
0
0
0
0
0
0
0
0
0
0
0
0
0
0
0
0
0
0
0
0
0
0
0
0
0
0
0
0
0
0
0
0
0
0
0
0
0
0
0
0
0
0
0
0
0
0
0
0
0
0
0
0
0
0
0
0
0
0
0
0
0
0
0
0
0
0
0
0
0
0
0
0
0
0
0
0
0
0
0
0
0
0
0
0
0
0
0
0
0
0
0
0
0
0
0
0
0
0
0
0
0
0
0
0
0
0
0
0
0
0
0
0
0
0
0
0
0
0
0
0
0
0
0
0
0
0
0
0
0
0
0
0
0
0
0
0
0
0
0
0
0
0
0
0
0
0
0
0
0
0
0
0
0
0
0
0
0
0
0
0
0
0
0
0
0
0
0
0
0
0
0
0
0
0
0
0
0
0
0
0
0
0
0
0
0
0
0
0
0
0
0
0
0
0
0
0
0
0
0
0
0
0
0
0
0
0
0
0
0
0
0
0
0
0
0
0
0
0
0
0
0
0
0
0
0
0
0
0
0
0
0
0
0
0
0
0
0
0
0
0
0
0
0
0
0
0
0
0
0
0
0
0
0
0
0
0
0
0
0
0
0
0
0
0
0
0
0
0
0
0
0
0
0
0
0
0
0
0
0
0
0
0
0
0
0
0
0
0
0
0
0
0
0
0
0
0
0
0
0
0
0
0
0
0
0
0
0
0
0
0
0
0
0
0
0
0
0
0
0
0
0
0
0
0
0
0
0
0
0
0
0
0
0
0
0
0
0
0
0
0
0
0
0
0
0
0
0
0
0
0
0
0
0
0
0
0
0
0
0
0
0
0
0
0
0
0
0
0
0
0
0
0
0
0
0
0
0
0
0
0
0
0
0
0
0
0
0
0
0
0
0
0
0
0
0
0
0
0
0
0
0
0
0
0
0
0
0
0
0
0
0
0
0
0
0
0
0
0
0
0
0
0
0
0
0
0
0
0
0
0
0
0
0
0
0
0
0
0
0
0
0
0
0
0
0
0
0
0
0
0
0
0
0
0
0
0
0
0
0
0
0
0
0
0
0
0
0
0
0
0
0
0
0
0
0
0
0
0
0
0
0
0
0
0
0
0
0
0
0
0
0
0
0
0
0
0
0
0
0
0
0
0
0
0
0
0
0
0
0
0
0
0
0
0
0
0
0
0
0
0
0
0
0
0
0
0
0
0
0
0
0
0
0
0
0
0
0
0
0
0
0
0
0
0
0
0
0
0
0
0
0
0
0
0
0
0
0
0
0
0
0
0
0
0
0
0
0
0
0
0
0
0
0
0
0
0
0
0
0
0
0
0
0
0
0
0
0
0
0
0
0
0
0
0
0
0
0
0
0
0
0
0
0
0
0
0
0
0
0
0
0
0
0
0
0
0
0
0
0
0
0
0
0
0
0
0
0
0
0
0
0
0
0
0
0
0
0
0
0
0
0
0
0
0
0
0
0
0
0
0
0
0
0
0
0
0
0
0
0
0
0
0
0
0
0
0
0
0
0
0
0
0
0
0
0
0
0
0
0
0
0
0
0
0
0
0
0
0
0
0
0
0
0
0
0
0
0
0
0
0
0
0
0
0
0
0
0
0
0
0
0
0
0
0
0
0
0
0
0
0
0
0
0
0
0
0
0
0
0
0
0
0
0
0
0
0
0
0
0
0
0
0
0
0
0
0
0
0
0
0
0
0
0
0
0
0
0
0
0
0
0
0
0
0
0
0
0
0
0
0
0
0
0
0
0
0
0
0
0
0
0
0
0
0
0
0
0
0
0
0
0
0
0
0
0
0
0
0
0
0
0
0
0
0
0
0
0
0
0
0
0
0
0
0
0
0
0
0
0
0
0
0
0
0
0
0
0
0
0
0
0
0
0
0
0
0
0
0
0
0
0
0
0
0
0
0
0
0
0
0
0
0
0
0
0
0
0
0
0
0
0
0
0
0
0
0
0
0
0
0
0
0
0
0
0
0
0
0
0
0
0
0
0
0
0
0
0
0
0
0
0
0
0
0
0
0
0
0
0
0
0
0
0
0
0
0
0
0
0
0
0
0
0
0
0
0
0
0
0
0
0
0
0
0
0
0
0
0
0
0
0
0
0
0
0
0
0
0
0
0
0
0
0
0
0
0
0
0
0
0
0
0
0
0
0
0
0
0
0
0
0
0
0
0
0
0
0
0
0
0
0
0
0
0
0
0
0
0
0
0
0
0
0
0
0
0
0
0
0
0
0
0
0
0
0
0
0
0
0
0
0
0
0
0
0
0
0
0
0
0
0
0
0
0
0
0
0
0
0
0
0
0
0
0
0
0
0
0
0
0
0
0
0
0
0
0
0
0
0
0
0
0
0
0
0
0
0
0
0
0
0
0
0
0
0
0
0
0
0
0
0
0
0
0
0
0
0
0
0
0
0
0
0
0
0
0
0
0
0
0
0
0
0
0
0
0
0
0
0
0
0
0
0
0
0
0
0
0
0
0
0
0
0
0
0
0
0
0
0
0
0
0
0
0
0
0
0
0
0
0
0
0
0
0
0
0
0
0
0
0
0
0
0
0
0
0
0
0
0
0
0
0
0
0
0
0
0
0
0
0
0
0
0
0
0
0
0
0
0
0
0
0
0
0
0
0
0
0
0
0
0
0
0
0
0
0
0
0
0
0
0
0
0
0
0
0
0
0
0
0
0
0
0
0
0
0
0
0
0
0
0
0
0
0
0
0
0
0
