0.559805
0.407842
0.259001
0.114026
-0.0239241
-0.14996
-0.25797
-0.338826
-0.376583
-0.356592
-0.299008
-0.239557
-0.214674
-0.248455
-0.343429
-0.479058
-0.619137
-0.725583
-0.773154
-0.753764
-0.691991
-0.629426
-0.607095
-0.647897
-0.745957
-0.867451
-0.963225
-0.988651
-0.92997
-0.815049
-0.659154
-0.489707
-0.33467
-0.216209
-0.147647
-0.133573
-0.171467
-0.253048
-0.364777
-0.487498
-0.602829
-0.694097
-0.749786
-0.770886
-0.764136
-0.732731
-0.681119
-0.613584
-0.531459
-0.418131
-0.194338
0.195248
0.651363
0.997963
1.07892
0.853775
0.426306
-0.0177694
-0.319998
-0.428468
-0.467799
-0.486278
-0.492597
-0.486251
-0.465584
-0.42908
-0.376044
-0.307139
-0.224599
-0.13204
-0.0339403
0.0650393
0.160804
0.250064
0.330137
0.398442
0.451983
0.488125
0.505457
0.503602
0.484068
0.450319
0.408909
0.369084
0.340184
0.329523
0.340845
0.373887
0.425112
0.489154
0.560266
0.632883
0.702915
0.765456
0.813702
0.840931
0.84075
0.80877
0.744725
0.654
0.547766
0.441389
0.351413
0.291945
0.281926
0.339264
0.444722
0.5581
0.63972
0.663908
0.62665
0.545729
0.453317
0.383029
0.355833
0.362076
0.38617
0.408465
0.409641
0.377487
0.310798
0.21899
0.117887
0.0236597
-0.0541468
-0.116821
-0.16793
-0.209626
-0.244525
-0.27546
-0.305134
-0.354493
0
1.11239
3.14727
5.91454
8.83054
11.0918
12.0046
11.3
9.25438
6.55175
3.97408
2.09276
1.10168
0.836062
0.924196
0.837432
0.752473
0.670641
0.594427
0.526624
0.470201
0.427878
0.402392
0.397063
0.420169
0.49093
0.629906
0.813979
0.991665
1.1067
1.11884
1.0214
0.848856
0.6702
0.56649
0.596896
0.724764
0.910715
1.11828
1.30695
1.44493
1.51908
1.53805
1.52795
1.5225
1.5512
1.62342
1.75398
1.91608
2.06923
2.17758
2.22722
2.23421
2.2386
2.28627
2.40704
2.5942
2.80688
3.02446
3.23285
3.42076
3.58112
3.71107
3.81084
3.87977
3.92002
3.93265
3.91746
3.87363
3.80059
3.69871
3.56959
3.4158
3.24102
3.05034
2.84802
2.63748
2.42233
2.20675
1.99552
1.79367
1.6061
1.43774
1.29273
1.17216
1.07531
1.00013
0.943797
0.90325
0.875473
0.857947
0.847763
0.841646
0.836472
0.829661
0.819561
0.805608
0.788141
0.767972
0.74591
0.722591
0.698502
0.674272
0.651125
0.631076
0.616801
0.611123
0.618222
0.642234
0.680972
0.724281
0.758949
0.772672
0.757772
0.713326
0.645159
0.564101
0.483367
0.414783
0.36387
0.332117
0.321314
0.330692
0.35793
0.397455
0.442266
0.486025
0.524658
0.557364
0.583836
0.63971
0.986838
1.56373
2.12488
2.40864
2.29323
1.85168
1.28654
0.817533
0.623933
0.686205
0.79347
0.90227
0.987618
1.03115
1.02735
0.985046
0.922603
0.859011
0.805752
0.761968
0.721783
0.68195
0.640109
0.595401
0.548355
0.500322
0.452939
0.407697
0.366355
0.331011
0.303967
0.288666
0.291471
0.308886
0.332093
0.350789
0.358232
0.35486
0.347897
0.346745
0.357879
0.375853
0.384592
0.364441
0.302128
0.198713
0.0719107
-0.0481113
-0.127633
-0.145826
-0.10748
0.00731449
0.210365
0.449537
0.663862
0.804165
0.847863
0.802948
0.700755
0.581587
0.479579
0.408514
0.358299
0.320175
0.289759
0.264224
0.241716
0.221768
0.205293
0.194172
0.190611
0.196443
0.212548
0.23878
0.274032
0.316615
0.364717
0.416669
0.471338
0.527958
0.585717
0.643283
0.698016
0.744396
0.772815
0.77229
0.73121
0.640057
0.49436
0.292018
0.0458002
-0.223686
-0.477652
0
1.42727
3.8784
7.06597
10.2867
12.5942
13.1917
11.8515
9.08191
5.90212
3.34075
1.96143
1.68803
1.99004
1.90546
1.74916
1.586
1.42545
1.27745
1.1504
1.04775
0.967799
0.909483
0.869963
0.845434
0.83181
0.825504
0.823819
0.824979
0.828081
0.833079
0.840763
0.852689
0.871036
0.898332
0.937038
0.989036
1.05515
1.13461
1.22526
1.32382
1.42617
1.5279
1.6248
1.71362
1.79259
1.86171
1.92282
1.9794
2.03613
2.09828
2.17093
2.25827
2.36268
2.48477
2.62363
2.77676
2.94053
3.11064
3.28273
3.45287
3.61801
3.77614
3.92644
4.06914
4.20501
4.33446
4.45596
4.56221
4.63843
4.66046
4.60045
4.43735
4.16775
3.81129
3.40717
3.00257
2.63831
2.31429
2.02309
1.76762
1.54901
1.36689
1.21974
1.10899
1.03871
1.00414
0.992851
0.992232
0.992862
0.991327
0.990971
0.999995
1.03422
1.11184
1.21601
1.30987
1.35379
1.32444
1.22519
1.08295
0.93409
0.807799
0.711373
0.633263
0.566614
0.511561
0.471569
0.451156
0.456163
0.491369
0.563214
0.675847
0.808238
0.933187
1.02749
1.08042
1.0962
1.08932
1.07531
1.06195
1.04597
1.01829
0.969699
0.897122
0.807256
0.7157
0.641746
0.601103
0.594182
0.619815
0.666854
0.721093
0.770526
0.808781
0.835325
0.852752
0.862089
0.861591
0.846376
0.812695
0.762715
0.706518
0.659693
0.637634
0.649504
0.686271
0.739367
0.802374
0.868164
0.930477
0.984756
1.0277
1.05762
1.07416
1.07796
1.07042
1.05346
1.02939
1.00074
0.970181
0.940471
0.914313
0.894397
0.88341
0.88389
0.898137
0.92871
0.980059
1.05844
1.16069
1.26588
1.34844
1.38581
1.36627
1.29343
1.18523
1.06805
0.969038
0.907056
0.880497
0.884092
0.916616
0.978944
1.07103
1.19156
1.34299
1.52772
1.73417
1.93534
2.10384
2.21788
2.26519
2.24385
2.15991
2.02353
1.84591
1.63873
1.41804
1.1967
0.984253
0.791034
0.626207
0.496595
0.405459
0.351983
0.331722
0.337881
0.362998
0.400403
0.444352
0.491441
0.538828
0.582769
0.618712
0.641571
0.646717
0.631115
0.594
0.536814
0.462582
0.375124
0.279489
0.179469
0.0781559
-0.0212355
-0.116167
-0.205319
-0.288947
-0.366556
0
1.03935
3.04709
5.97954
9.29195
12.0698
13.4332
12.9761
10.9589
8.13956
5.37476
3.25575
1.97007
1.39235
1.27029
1.24079
1.19928
1.15428
1.10797
1.06462
1.02981
1.00899
1.00635
1.02838
1.07367
1.13045
1.18424
1.22269
1.23962
1.23657
1.22167
1.20641
1.20187
1.2142
1.24282
1.28602
1.34272
1.4115
1.49034
1.57677
1.66814
1.76159
1.85437
1.94447
2.03108
2.11483
2.19762
2.28217
2.37123
2.46687
2.56988
2.6795
2.79413
2.91202
3.03181
3.15299
3.27611
3.40264
3.5344
3.67292
3.81986
3.97487
4.1301
4.27139
4.38414
4.45857
4.49355
4.49737
4.48445
4.46908
4.45914
4.44659
4.40793
4.31315
4.13932
3.88257
3.56268
3.21756
2.89022
2.61294
2.37204
2.16105
1.97663
1.81273
1.662
1.5176
1.37474
1.2317
1.0906
0.958238
0.844511
0.760091
0.713959
0.732905
0.849489
1.06444
1.32232
1.55511
1.71588
1.77798
1.73058
1.57956
1.35412
1.1112
0.925723
0.853065
0.87219
0.935499
1.01644
1.10369
1.18746
1.26019
1.31719
1.35663
1.37892
1.38573
1.37922
1.36178
1.33462
1.29824
1.25288
1.19894
1.13692
1.06762
0.996087
0.934048
0.895914
0.895357
0.94113
1.03371
1.16411
1.31541
1.46659
1.59736
1.69321
1.74791
1.76501
1.7568
1.74095
1.73543
1.76394
1.82716
1.89913
1.94249
1.92798
1.84998
1.72946
1.60305
1.50533
1.45494
1.43312
1.42622
1.4303
1.44204
1.45902
1.4798
1.5036
1.52977
1.55728
1.58448
1.60861
1.62561
1.63179
1.62462
1.60375
1.57159
1.53303
1.49427
1.46119
1.43778
1.42477
1.4215
1.42638
1.43802
1.4559
1.4803
1.51174
1.55004
1.59291
1.63631
1.67517
1.7046
1.72106
1.72336
1.71296
1.69388
1.6719
1.6533
1.64339
1.64517
1.65865
1.67996
1.70503
1.72925
1.74831
1.75881
1.75836
1.74548
1.71959
1.68157
1.63275
1.57556
1.51341
1.45019
1.38959
1.33434
1.28537
1.24275
1.2056
1.17252
1.14223
1.11396
1.0876
1.06355
1.04221
1.02342
1.0059
0.985988
0.957409
0.912105
0.841515
0.722228
0.52555
0.258691
-0.0593279
-0.403663
0
1.28097
3.49116
6.42987
9.60398
12.2866
13.7342
13.5053
11.7027
8.957
6.1341
3.93281
2.61097
1.98152
1.64177
1.2974
1.0077
0.831096
0.812007
0.951389
1.19531
1.45786
1.66409
1.78067
1.85218
1.90553
1.94697
1.97806
1.9989
2.00743
2.00067
1.97587
1.93116
1.86685
1.78277
1.68707
1.59619
1.52879
1.50128
1.52401
1.5993
1.72162
1.8795
2.0581
2.24104
2.41564
2.57168
2.70274
2.8073
2.8891
2.95637
3.01976
3.08964
3.17365
3.27465
3.38912
3.51346
3.64453
3.77851
3.91089
4.035
4.14435
4.23356
4.30018
4.34629
4.37933
4.41048
4.5203
4.82831
5.24544
5.57386
5.61296
5.26564
4.59834
3.81689
3.16547
2.80674
2.56932
2.36513
2.18589
2.02975
1.8965
1.78468
1.68892
1.60338
1.52269
1.44308
1.36316
1.28403
1.20857
1.14019
1.08081
1.03004
0.987747
0.952929
0.924395
0.901508
0.884715
0.875666
0.877385
0.89895
0.954213
1.02866
1.09149
1.10625
1.04749
0.914787
0.736131
0.558156
0.428248
0.377358
0.375817
0.413133
0.481833
0.572942
0.67816
0.790225
0.90554
1.02286
1.14217
1.26355
1.37902
1.46623
1.49325
1.43323
1.28197
1.06722
0.841839
0.662948
0.568362
0.530855
0.533319
0.564586
0.612321
0.665622
0.716721
0.761169
0.793949
0.811835
0.812772
0.7965
0.765193
0.723588
0.678211
0.635708
0.603596
0.581473
0.556469
0.508676
0.419331
0.27957
0.0959541
-0.109598
-0.305583
-0.460322
-0.563035
-0.606303
-0.594697
-0.542467
-0.468459
-0.389982
-0.317476
-0.253075
-0.193393
-0.132265
-0.0644946
0.0111971
0.0905718
0.16739
0.234177
0.284281
0.313532
0.321091
0.309406
0.283497
0.249856
0.215328
0.185183
0.162884
0.150885
0.150902
0.160196
0.171821
0.177647
0.170559
0.146392
0.104986
0.0501448
-0.0113344
-0.0710894
-0.121681
-0.159056
-0.179606
-0.174557
-0.13313
-0.0660374
0.00205183
0.04394
0.0402023
-0.012741
-0.101149
-0.199936
-0.282724
-0.330694
-0.349241
-0.348301
-0.331693
-0.302249
-0.263476
-0.219205
-0.17339
-0.129739
-0.0913004
-0.0600998
-0.036869
-0.0209635
-0.0275087
0
0.540475
1.9835
4.42171
7.40928
10.0441
11.3756
10.8992
8.82203
5.93613
3.20325
1.31685
0.481811
0.477969
0.880954
1.02933
1.13307
1.16488
1.11639
0.998676
0.836177
0.657349
0.486426
0.333755
0.199156
0.0900299
0.010932
-0.0345293
-0.044717
-0.0212145
0.0305435
0.101934
0.1832
0.266313
0.34764
0.428979
0.514751
0.615253
0.767272
1.03368
1.36628
1.67136
1.85285
1.8552
1.68903
1.42758
1.17475
1.02052
1.00035
1.04815
1.12749
1.22822
1.3478
1.48441
1.63583
1.79921
1.97092
2.1468
2.32244
2.49393
2.65873
2.81617
2.96751
3.11477
3.2616
3.4119
3.55456
3.66288
3.70337
3.64886
3.48899
3.23344
2.90781
2.54555
2.18051
1.83171
1.5034
1.20057
0.929051
0.692828
0.493795
0.333997
0.215239
0.131974
0.0751764
0.0359436
0.00732212
-0.0145582
-0.0304108
-0.0387394
-0.0373482
-0.0247564
-0.0020956
0.029443
0.0679247
0.111228
0.157452
0.20511
0.253023
0.300328
0.346457
0.39114
0.434333
0.476041
0.516011
0.553832
0.589103
0.622013
0.653981
0.688019
0.728551
0.780656
0.848951
0.935048
1.03748
1.15502
1.28657
1.4268
1.56461
1.68764
1.78524
1.85069
1.88264
1.88538
1.86791
1.84219
1.8211
1.81482
1.82869
1.86918
1.95514
2.11325
2.34675
2.60448
2.82601
2.96039
2.97558
2.8644
2.64717
2.37
2.09729
1.89751
1.78803
1.76913
1.9651
2.30139
2.64646
2.85655
2.8405
2.61502
2.30812
2.09489
2.10151
2.44987
2.96456
3.39391
3.54785
3.38683
3.02252
2.64133
2.40167
2.35084
2.34057
2.32271
2.28433
2.21579
2.1146
1.98618
1.84292
1.70155
1.57923
1.48864
1.43737
1.4372
1.47558
1.5325
1.58736
1.62534
1.64076
1.63673
1.62142
1.60319
1.58636
1.56993
1.55092
1.52542
1.48981
1.44192
1.3818
1.31188
1.23658
1.16163
1.09304
1.03701
0.999577
0.984372
0.993165
1.02569
1.07967
1.15094
1.23397
1.32242
1.40991
1.49084
1.55998
1.61291
1.64772
1.6645
1.66553
1.65516
1.63912
1.62303
1.61059
1.60184
1.58784
1.55226
1.4742
1.24603
0.862053
0.359615
-0.206754
0
1.23604
3.47632
6.3843
9.39893
11.8631
13.1852
13.0161
11.3966
8.78793
5.92338
3.52073
1.99449
1.33617
1.23115
1.28059
1.34414
1.42084
1.52089
1.65462
1.82749
2.04348
2.30262
2.59947
2.92306
3.25925
3.59385
3.91564
4.21322
4.47157
4.6733
4.8155
4.89851
4.92202
4.88823
4.80663
4.69622
4.58267
4.49147
4.44038
4.42379
4.4306
4.45874
4.50739
4.57726
4.67093
4.79248
4.94637
5.13613
5.36194
5.63862
5.99864
6.40846
6.78605
7.05407
7.16559
7.12107
6.96798
6.77997
6.6248
6.53861
6.49496
6.4657
6.43936
6.40698
6.35856
6.28508
6.17927
6.03667
5.85656
5.64223
5.40055
5.14077
4.8727
4.60505
4.34341
4.09165
3.85216
3.62649
3.41594
3.22196
3.0463
2.89212
2.76171
2.6526
2.56002
2.47783
2.39984
2.32132
2.23987
2.1557
2.07117
1.9899
1.91498
1.84868
1.79275
1.74829
1.71561
1.69239
1.67335
1.65291
1.62677
1.59335
1.55427
1.51406
1.47873
1.45416
1.44357
1.4462
1.46123
1.48668
1.5196
1.5569
1.59563
1.63379
1.67066
1.70678
1.74361
1.78285
1.82629
1.87229
1.91004
1.92334
1.89654
1.822
1.70575
1.56813
1.43843
1.34551
1.30698
1.3191
1.3726
1.45046
1.53389
1.60792
1.66941
1.71931
1.75806
1.78717
1.80838
1.82279
1.83044
1.83025
1.82065
1.80006
1.76775
1.7244
1.67245
1.61573
1.55877
1.50584
1.46028
1.42364
1.39594
1.3762
1.36326
1.35631
1.35515
1.35994
1.3707
1.38662
1.40605
1.42628
1.44275
1.44899
1.43957
1.41176
1.36747
1.31422
1.26405
1.23031
1.22319
1.24596
1.29181
1.35097
1.41198
1.46546
1.50658
1.53518
1.55402
1.56585
1.57205
1.57188
1.56392
1.54814
1.52738
1.50737
1.49524
1.49743
1.51606
1.54848
1.59223
1.64514
1.7034
1.75951
1.80388
1.82763
1.8247
1.79397
1.74025
1.67335
1.60519
1.54567
1.49919
1.46305
1.42955
1.3892
1.3349
1.26501
1.18431
1.10251
1.03127
0.979306
0.947487
0.935198
0.941518
0.963357
0.995943
1.03352
1.0692
1.0943
1.10081
1.08193
1.03299
0.952234
0.841323
0.703956
0.545547
0.37455
0.199864
0.0267586
-0.143434
0
0.807115
2.64774
5.52783
8.90959
11.8623
13.4847
13.3449
11.6607
9.12422
6.51493
4.3605
2.82629
1.82246
1.18424
0.987477
0.906348
0.838659
0.784026
0.740932
0.707588
0.682457
0.664646
0.654003
0.650938
0.656038
0.669643
0.691321
0.720086
0.754661
0.793396
0.834395
0.875458
0.913498
0.945225
0.967987
0.980697
0.984801
0.984652
0.986867
0.99865
1.02557
1.06964
1.12957
1.19883
1.26941
1.33506
1.39386
1.44892
1.507
1.57562
1.65985
1.75906
1.86921
1.9854
2.10294
2.2195
2.33639
2.45858
2.59352
2.75175
2.96646
3.28995
3.7117
4.12461
4.44963
4.64837
4.70099
4.59713
4.34198
3.96903
3.5469
3.16562
2.86513
2.60197
2.34905
2.0996
1.85312
1.61194
1.38069
1.1656
0.973957
0.814605
0.697739
0.631199
0.610682
0.612883
0.611533
0.5849
0.521965
0.425476
0.310696
0.199847
0.113925
0.064417
0.0421988
0.0392203
0.0471128
0.0576831
0.0652803
0.0678908
0.0667237
0.0646565
0.0643071
0.0663502
0.06984
0.0723913
0.0714853
0.0658758
0.0565881
0.0470813
0.042431
0.0477358
0.0710954
0.115225
0.164934
0.197239
0.190462
0.133811
0.0330534
-0.0905176
-0.207569
-0.291373
-0.332128
-0.343485
-0.331976
-0.303497
-0.264848
-0.222432
-0.180854
-0.14276
-0.109519
-0.0814503
-0.0582445
-0.0393231
-0.0240593
-0.0120621
-0.00326309
0.00210228
0.0036068
0.000636959
-0.00690975
-0.0184125
-0.0321505
-0.0450396
-0.0524365
-0.0488445
-0.0288726
0.011596
0.0743413
0.158684
0.263536
0.382249
0.499626
0.598244
0.663568
0.686868
0.666998
0.610661
0.530991
0.444664
0.368253
0.312505
0.278689
0.264672
0.268394
0.288164
0.321227
0.364108
0.412969
0.463722
0.511334
0.550709
0.577429
0.588422
0.582675
0.561697
0.52947
0.491807
0.455196
0.425479
0.405877
0.398381
0.403121
0.41907
0.444847
0.479329
0.521807
0.571651
0.627945
0.688749
0.749722
0.805709
0.852167
0.886528
0.908842
0.921387
0.927467
0.929971
0.930512
0.929155
0.924762
0.915669
0.900164
0.876901
0.845195
0.805181
0.757949
0.705242
0.649223
0.592217
0.536345
0.48318
0.433746
0.388248
0.346154
0.307138
0.271953
0.243079
0.224815
0.223072
0.260224
0.368223
0.522713
0.672887
0.763495
0.761645
0.67142
0.527581
0.373592
0.239101
0.127206
0.0244996
-0.0749021
-0.173661
-0.273594
-0.388133
0
1.19199
3.33893
6.27305
9.44771
12.0698
13.3969
13.0549
11.198
8.42721
5.52382
3.15183
1.66358
1.05675
1.05372
1.01382
0.940013
0.855931
0.768914
0.68974
0.629637
0.597395
0.597633
0.630574
0.69293
0.779138
0.88102
0.990596
1.10219
1.21151
1.31562
1.41346
1.50516
1.59193
1.67563
1.75796
1.83979
1.92055
1.99817
2.06984
2.13325
2.18765
2.23429
2.2761
2.31679
2.35966
2.4065
2.45762
2.5132
2.57326
2.6384
2.71028
2.79165
2.88598
2.99648
3.12492
3.2778
3.45324
3.6286
3.77586
3.87131
3.90434
3.88149
3.8228
3.73492
4.04705
4.72451
5.50297
6.09839
6.28813
5.99359
5.31525
4.49493
3.80738
3.457
3.33779
3.22108
3.09944
2.97185
2.83652
2.69269
2.54089
2.38293
2.22195
2.06228
1.9093
1.76931
1.64862
1.55288
1.48635
1.45651
1.47687
1.55561
1.66955
1.78263
1.861
1.88269
1.8435
1.75665
1.64622
1.53717
1.44664
1.37517
1.31724
1.27035
1.23666
1.21921
1.22254
1.25498
1.35362
1.56701
1.85363
2.13715
2.34491
2.43602
2.40937
2.29267
2.12554
1.94969
1.8073
1.7163
1.67242
1.66668
1.68951
1.73226
1.7888
1.85244
1.91642
1.97446
2.02059
2.05027
2.06149
2.05438
2.0313
1.99655
1.95579
1.91506
1.87947
1.8534
1.83724
1.82873
1.82447
1.82173
1.81968
1.81935
1.82261
1.83054
1.84187
1.85313
1.85914
1.85379
1.83116
1.78669
1.71824
1.62684
1.51721
1.39586
1.27758
1.18113
1.12326
1.11397
1.15324
1.23075
1.32893
1.42806
1.51145
1.57103
1.60369
1.61177
1.60143
1.58095
1.55874
1.54068
1.53063
1.52988
1.53706
1.54804
1.55741
1.56014
1.55301
1.53565
1.51057
1.48248
1.4568
1.43799
1.42802
1.42679
1.43206
1.44012
1.4468
1.44862
1.44372
1.43251
1.41789
1.40503
1.40019
1.41078
1.45737
1.56901
1.73104
1.90153
2.03196
2.08695
2.05627
1.95451
1.81199
1.66322
1.53679
1.43835
1.36149
1.30016
1.2501
1.20898
1.17492
1.14603
1.12059
1.09544
1.06606
1.02784
0.97753
0.9148
0.84291
0.76819
0.698417
0.640833
0.59855
0.571407
0.560665
0.567038
0.597944
0.683851
0.884374
1.16228
1.4251
1.55484
1.46339
1.13567
0.629989
0.0376405
0
0.993765
3.17455
6.28221
9.63704
12.3347
13.5957
13.1052
11.1494
8.46318
5.87323
3.94877
2.83931
2.34686
2.13597
1.89307
1.66404
1.45465
1.27439
1.13132
1.03098
0.975728
0.964554
0.993426
1.05578
1.14304
1.24435
1.34949
1.45044
1.54132
1.61906
1.68361
1.73582
1.77714
1.80948
1.83453
1.85271
1.86325
1.86536
1.85842
1.84331
1.82357
1.80566
1.79837
1.81121
1.85243
1.92581
2.03143
2.16637
2.32451
2.49779
2.67692
2.85494
3.02633
3.18711
3.33474
3.46735
3.58378
3.68424
3.76958
3.84145
3.90238
3.95586
4.00617
4.05805
4.11758
4.19782
4.33613
4.57708
4.87774
5.14918
5.27135
5.15156
4.78481
4.26357
3.72329
3.26174
2.87875
2.52639
2.19041
1.87363
1.58381
1.32739
1.11013
0.936009
0.806304
0.719412
0.671244
0.656068
0.667461
0.698686
0.742875
0.795345
0.851192
0.904114
0.9465
0.970881
0.970801
0.9422
0.884711
0.802415
0.703633
0.599649
0.50251
0.421249
0.358877
0.317466
0.295792
0.289495
0.292828
0.300081
0.306626
0.309352
0.306522
0.297435
0.282088
0.261103
0.235835
0.208462
0.181834
0.159014
0.142631
0.133849
0.132017
0.136282
0.1451
0.156083
0.166593
0.174074
0.176301
0.171526
0.158537
0.136644
0.105638
0.0657805
0.0176881
-0.0376479
-0.0988478
-0.1641
-0.23111
-0.297036
-0.358353
-0.411287
-0.452128
-0.47762
-0.485265
-0.473473
-0.441553
-0.389646
-0.317234
-0.218812
-0.092342
0.0486712
0.179749
0.274221
0.310432
0.277721
0.179391
0.0328711
-0.13206
-0.277201
-0.369954
-0.400705
-0.375883
-0.300825
-0.166725
0.014474
0.21014
0.387141
0.519809
0.594468
0.609859
0.574643
0.503896
0.415937
0.329503
0.257819
0.207341
0.186501
0.196588
0.220156
0.233434
0.21534
0.15624
0.0626676
-0.0439831
-0.13418
-0.179743
-0.174702
-0.132172
-0.057101
0.0442857
0.162887
0.288286
0.41042
0.520943
0.614003
0.68647
0.736413
0.765362
0.776487
0.774146
0.7635
0.750057
0.739021
0.734478
0.738622
0.751074
0.769071
0.78905
0.806749
0.817941
0.81901
0.807273
0.781081
0.739814
0.684278
0.616268
0.538219
0.453541
0.366478
0.2817
0.20368
0.136569
0.0836229
0.0452645
0.0189098
0
-0.0143479
-0.0322619
-0.0580466
-0.0941399
-0.140793
-0.196172
-0.256684
-0.449044
-0.120381
1.26612
3.93529
7.53453
11.1659
13.7434
14.4865
13.2607
10.5834
7.328
4.33087
2.11828
0.847079
0.40113
0.53004
0.70394
0.843556
0.925006
0.942546
0.909952
0.854754
0.807082
0.787679
0.795496
0.819885
0.847338
0.86383
0.859686
0.832451
0.787098
0.733985
0.685629
0.652294
0.637788
0.642401
0.665426
0.705705
0.761655
0.831305
0.912376
1.00253
1.09957
1.20164
1.30726
1.41532
1.52502
1.6357
1.7467
1.85726
1.9666
2.07408
2.17952
2.28351
2.38767
2.4946
2.60765
2.73032
2.86555
3.01501
3.18202
3.3672
3.55442
3.72077
3.84593
3.92022
3.94934
3.95329
3.95949
4.01011
4.11312
4.22536
4.27514
4.19823
3.96876
3.6093
3.17831
2.74608
2.37267
2.04718
1.75383
1.49534
1.27633
1.09352
0.941981
0.816778
0.714577
0.634561
0.578276
0.548997
0.563072
0.623027
0.7138
0.813129
0.89862
0.953958
0.971255
0.949686
0.892926
0.807827
0.707651
0.604247
0.508485
0.430702
0.378397
0.350888
0.349811
0.368037
0.393947
0.416458
0.428676
0.430009
0.425947
0.425531
0.437443
0.46991
0.519161
0.572144
0.611953
0.624368
0.603004
0.551243
0.480813
0.408163
0.349984
0.313499
0.299325
0.31751
0.360173
0.407517
0.43812
0.437698
0.405641
0.355895
0.311259
0.293506
0.323974
0.392008
0.467471
0.515504
0.51238
0.454865
0.35984
0.255857
0.171172
0.120363
0.0947568
0.0840757
0.083198
0.0871256
0.0919694
0.0960901
0.10066
0.109519
0.134171
0.224902
0.497558
0.887606
1.268
1.4967
1.47494
1.20241
0.796111
0.445506
0.306524
0.370344
0.446166
0.492465
0.493059
0.462171
0.439544
0.471494
0.586896
0.775277
0.989744
1.20647
1.40316
1.56422
1.6831
1.76153
1.80648
1.82653
1.82975
1.82318
1.80908
1.78876
1.76323
1.7337
1.70189
1.67009
1.64076
1.61623
1.59856
1.5899
1.5911
1.59804
1.60388
1.60088
1.58245
1.54475
1.48731
1.41253
1.32452
1.22776
1.12701
1.02522
0.924286
0.825957
0.73195
0.644193
0.564959
0.496835
0.442478
0.40773
0.403731
0.431492
0.477203
0.521046
0.54345
0.53133
0.481007
0.396816
0.287082
0.160171
0.0245266
-0.114879
-0.266399
0
1.00007
2.85469
5.38315
8.09117
10.2862
11.3111
10.8234
8.9734
6.3604
3.76612
1.80846
0.716687
0.335311
0.308042
0.260363
0.219743
0.188012
0.16969
0.169298
0.182875
0.198752
0.204162
0.190964
0.160438
0.124856
0.104648
0.121893
0.192472
0.357883
0.582436
0.804276
0.963763
1.02983
1.01126
0.94862
0.892825
0.882477
0.922482
0.985857
1.0633
1.14407
1.21835
1.28026
1.32934
1.37043
1.41192
1.46301
1.53101
1.61964
1.72525
1.84382
1.97379
2.11437
2.26545
2.42734
2.60026
2.7836
2.97532
3.17217
3.36809
3.55365
3.71791
3.85157
3.94805
4.00442
4.02137
4.00242
3.95234
3.87541
3.77399
3.64901
3.50191
3.3343
3.14728
2.94246
2.72337
2.49534
2.2648
2.03825
1.82163
1.61941
1.4341
1.26695
1.11924
0.995102
0.897887
0.832162
0.813564
0.886577
1.04638
1.23777
1.3933
1.46245
1.4326
1.33171
1.21306
1.13069
1.11801
1.15556
1.21934
1.29959
1.39291
1.49773
1.61673
1.75886
1.92565
2.08928
2.20392
2.22413
2.12943
1.94035
1.7157
1.53016
1.44184
1.43874
1.47425
1.53631
1.6112
1.68635
1.75296
1.80647
1.84042
1.85073
1.83398
1.78795
1.69715
1.55444
1.39338
1.26023
1.1976
1.22784
1.3444
1.51484
1.69333
1.83644
1.92708
1.9799
1.99349
1.96914
1.90999
1.82009
1.70403
1.56866
1.42158
1.26932
1.12307
0.996352
0.902156
0.850332
0.845383
0.885525
0.963208
1.06676
1.18355
1.29802
1.39399
1.4588
1.48456
1.46947
1.41877
1.34418
1.26158
1.18722
1.13365
1.10191
1.08685
1.08385
1.08926
1.09854
1.10647
1.10783
1.09861
1.07674
1.04274
1.00013
0.955455
0.917694
0.897954
0.938244
1.13339
1.44175
1.76001
1.97613
2.02126
1.89746
1.66971
1.43033
1.2536
1.15677
1.07358
0.978498
0.856665
0.698498
0.498381
0.258045
0.0110072
-0.203187
-0.353172
-0.426044
-0.429359
-0.384683
-0.316552
-0.242336
-0.167457
-0.0906148
-0.00775232
0.0884592
0.208848
0.358907
0.518698
0.652326
0.721036
0.693552
0.555812
0.31741
0.0117188
-0.311111
-0.596014
-0.816264
-0.94666
-0.976704
-0.911866
-0.771381
-0.582797
-0.374956
-0.184401
0
0.778542
2.60369
5.48816
8.81874
11.5579
12.7443
11.9847
9.63158
6.56274
3.72741
1.742
0.730257
0.424331
0.41185
0.406058
0.407582
0.417095
0.436459
0.458691
0.472613
0.467021
0.435321
0.378528
0.305141
0.227908
0.159093
0.105861
0.065431
0.0361853
0.016827
0.00633278
0.00462818
0.0126584
0.0318391
0.0657352
0.118704
0.183671
0.246489
0.292653
0.314065
0.313722
0.305583
0.309286
0.342253
0.413146
0.510372
0.622478
0.743753
0.870403
1.00015
1.13263
1.26931
1.41294
1.56681
1.73402
1.91688
2.11658
2.3331
2.56649
2.82173
3.1156
3.48568
3.95351
4.44972
4.88667
5.17637
5.24239
5.04717
4.62402
4.08566
3.5884
3.27237
3.08439
2.91727
2.75144
2.58402
2.41434
2.24306
2.07229
1.90527
1.74573
1.59719
1.46223
1.34215
1.23684
1.14415
1.06062
0.983014
0.909574
0.840817
0.779667
0.730761
0.70525
0.723113
0.78081
0.854165
0.911636
0.928463
0.897732
0.832245
0.756429
0.693041
0.652022
0.622472
0.594762
0.561969
0.519672
0.467642
0.410177
0.355072
0.311614
0.28699
0.283362
0.30366
0.349912
0.419507
0.503882
0.588962
0.659258
0.701808
0.708298
0.676517
0.610925
0.521984
0.42407
0.332285
0.25878
0.207045
0.174267
0.157538
0.155862
0.168276
0.194097
0.233022
0.284873
0.351063
0.434727
0.530557
0.623427
0.696798
0.739631
0.752387
0.748819
0.752159
0.796658
0.937334
1.14754
1.35922
1.50179
1.53598
1.46385
1.31517
1.12538
0.923181
0.733254
0.569579
0.436949
0.341139
0.288868
0.281453
0.319183
0.390272
0.475469
0.555064
0.613548
0.642645
0.641952
0.617499
0.579118
0.537617
0.501249
0.47361
0.457728
0.455631
0.462147
0.469871
0.472216
0.466431
0.455321
0.446808
0.451398
0.478562
0.531837
0.605007
0.69309
0.791737
0.895877
1.00084
1.10339
1.2021
1.29726
1.39021
1.4823
1.57399
1.66248
1.74109
1.80122
1.8354
1.84019
1.81743
1.77358
1.71728
1.65603
1.59358
1.5292
1.4601
1.38247
1.29271
1.18495
1.05416
0.914775
0.79282
0.715805
0.702752
0.756709
0.862915
0.993536
1.11736
1.21079
1.2759
1.31801
1.34843
1.38328
1.46101
1.62894
1.84356
2.01685
2.05411
1.88933
1.50958
0.959128
0.315678
-0.360234
0
1.64613
4.58158
8.31227
11.9462
14.4893
15.2301
14.0413
11.4329
8.3098
5.56002
3.70311
2.78308
2.52029
2.55833
2.458
2.35373
2.24745
2.14099
2.03785
1.94254
1.85957
1.79261
1.74396
1.71457
1.70442
1.71312
1.74017
1.78428
1.84598
1.9281
2.02226
2.11255
2.18197
2.21792
2.21674
2.18501
2.13749
2.093
2.07003
2.07502
2.10697
2.1666
2.25383
2.36566
2.49901
2.64613
2.79567
2.93767
3.06588
3.17902
3.28063
3.37727
3.47579
3.5806
3.6934
3.80645
3.90738
3.98426
4.03046
4.04723
4.04325
4.03166
4.02616
4.04984
4.19773
4.56096
5.06545
5.61377
6.05684
6.22454
6.01156
5.44161
4.66431
3.88757
3.29848
2.89499
2.51466
2.14386
1.78278
1.43665
1.11153
0.81344
0.547532
0.318679
0.131193
-0.016358
-0.133043
-0.229605
-0.31573
-0.397817
-0.477991
-0.554702
-0.624614
-0.683607
-0.731129
-0.772821
-0.817684
-0.874446
-0.947949
-1.03725
-1.13609
-1.23516
-1.3248
-1.40007
-1.45765
-1.49418
-1.50802
-1.49914
-1.4694
-1.42254
-1.36389
-1.29946
-1.23492
-1.17475
-1.12105
-1.07629
-1.04418
-1.02686
-1.02676
-1.04558
-1.08274
-1.13425
-1.19273
-1.2489
-1.29398
-1.32254
-1.33555
-1.33425
-1.32373
-1.30976
-1.29676
-1.2864
-1.27754
-1.26729
-1.25274
-1.23162
-1.20638
-1.18243
-1.16542
-1.15805
-1.15824
-1.15932
-1.15243
-1.12966
-1.08736
-1.0299
-0.961885
-0.887008
-0.809254
-0.733182
-0.663622
-0.604422
-0.558083
-0.525418
-0.505455
-0.495664
-0.492525
-0.492274
-0.491606
-0.488312
-0.481279
-0.469773
-0.453219
-0.431041
-0.402543
-0.366957
-0.323615
-0.272199
-0.21291
-0.146742
-0.0755409
-0.00192671
0.070369
0.135705
0.188138
0.222532
0.235482
0.226397
0.198212
0.157402
0.113133
0.075684
0.0545369
0.0535736
0.0728089
0.111988
0.170134
0.245116
0.334331
0.435399
0.546589
0.667543
0.800565
0.953054
1.14033
1.36954
1.60499
1.79514
1.88924
1.85552
1.6948
1.44193
1.15123
0.872574
0.632936
0.4231
0.235299
0.0763728
-0.0462998
-0.125691
-0.158258
-0.146522
-0.0996696
-0.0317214
0.0419314
0.108136
0.161559
0.202277
0.230693
0.246707
0.250528
0.242947
0.225102
0.198542
0.16494
0.127328
0.0895283
0.0553803
0.0280652
0.00949907
0
0.00408707
0.0331043
0.287048
1.0332
2.55302
4.88052
7.63341
10.0538
11.3037
10.8787
8.88848
6.01553
3.167
1.0433
-0.122536
-0.535419
-0.612649
-0.679455
-0.738959
-0.785181
-0.81351
-0.817869
-0.79505
-0.752343
-0.702606
-0.659433
-0.633415
-0.629424
-0.645779
-0.675421
-0.708538
-0.735637
-0.751528
-0.755687
-0.749294
-0.733556
-0.709965
-0.679887
-0.64412
-0.602811
-0.55573
-0.501926
-0.440537
-0.375916
-0.316249
-0.270322
-0.244012
-0.237789
-0.246742
-0.263224
-0.28059
-0.295801
-0.309696
-0.323144
-0.335528
-0.343374
-0.339966
-0.316229
-0.262556
-0.173391
-0.0495456
0.109045
0.29986
0.517783
0.758373
1.01441
1.27146
1.50609
1.69746
1.82869
1.88899
1.87671
1.8011
1.68021
1.53476
1.38053
1.22405
1.06539
0.904432
0.741909
0.579788
0.42169
0.272536
0.137761
0.0238715
-0.0604151
-0.112204
-0.143377
-0.171265
-0.213445
-0.282359
-0.381685
-0.505641
-0.641245
-0.772552
-0.886948
-0.982188
-1.05759
-1.11176
-1.14786
-1.17146
-1.18881
-1.20556
-1.22588
-1.25218
-1.28536
-1.32543
-1.37211
-1.42474
-1.48282
-1.54612
-1.61411
-1.68562
-1.75876
-1.831
-1.89946
-1.96128
-2.01403
-2.05616
-2.08739
-2.10881
-2.1227
-2.13456
-2.15335
-2.18849
-2.24746
-2.33341
-2.4436
-2.56921
-2.69686
-2.81136
-2.89964
-2.94876
-2.93559
-2.84759
-2.71835
-2.59486
-2.51845
-2.51227
-2.57345
-2.67325
-2.76713
-2.81201
-2.78298
-2.70308
-2.59875
-2.48232
-2.36077
-2.23988
-2.12433
-2.01678
-1.9173
-1.82359
-1.7312
-1.6341
-1.52541
-1.39829
-1.24695
-1.06747
-0.859701
-0.626065
-0.370191
-0.0975793
0.184454
0.467274
0.737915
0.983542
1.19353
1.36123
1.48493
1.56756
1.61522
1.63487
1.63229
1.61216
1.57724
1.52736
1.46229
1.3826
1.28998
1.18715
1.07726
0.963229
0.84729
0.730476
0.612919
0.494075
0.372988
0.248585
0.119956
-0.0132987
-0.150924
-0.291749
-0.433613
-0.573319
-0.706991
-0.830313
-0.938089
-1.02456
-1.0866
-1.12255
-1.13196
-1.11544
-1.07435
-1.01033
-0.924823
-0.8186
-0.690998
-0.518808
-0.255344
0.0792766
0.408413
0.64001
0.711433
0.616792
0.401775
0.135763
-0.118692
-0.328589
-0.509925
0
1.37638
3.76248
6.86522
9.96196
12.1735
12.8611
11.9098
9.74635
7.10672
4.7152
3.04363
2.22444
2.09987
2.32243
2.34634
2.36757
2.38894
2.41339
2.44443
2.4856
2.53987
2.60782
2.68906
2.78285
2.88704
2.99949
3.11511
3.225
3.31999
3.39264
3.43913
3.46008
3.46015
3.44633
3.42592
3.40488
3.38643
3.37217
3.3634
3.36114
3.36625
3.37914
3.40048
3.42984
3.45987
3.47767
3.46972
3.42735
3.35163
3.25525
3.16006
3.0908
3.06752
3.09177
3.16284
3.27291
3.41107
3.56769
3.73557
3.91196
4.10015
4.31558
4.59996
4.97728
5.36895
5.68502
5.85581
5.84989
5.68027
5.3934
5.04026
4.64605
4.2153
3.78524
3.38074
3.01134
2.69422
2.44181
2.25904
2.14248
2.08128
2.06005
2.06236
2.07404
2.08532
2.09193
2.09232
2.08761
2.08109
2.07777
2.0838
2.10561
2.14874
2.22567
2.3508
2.50452
2.65594
2.77381
2.83762
2.84358
2.80327
2.73698
2.66566
2.60362
2.552
2.50804
2.4687
2.42692
2.37415
2.30221
2.20517
2.08071
1.9305
1.75905
1.57004
1.37411
1.19197
1.0463
0.960109
0.952905
1.03322
1.19127
1.39672
1.60477
1.76983
1.8718
1.92861
1.94955
1.94262
1.91761
1.88309
1.8441
1.80167
1.75357
1.69645
1.6277
1.54722
1.45834
1.36765
1.28371
1.2154
1.17702
1.1766
1.1992
1.2205
1.216
1.17021
1.08202
0.96428
0.838179
0.724497
0.634504
0.562161
0.499334
0.440205
0.378939
0.311412
0.236401
0.155939
0.0747538
-0.00104417
-0.0657812
-0.116106
-0.147718
-0.161657
-0.16669
-0.173281
-0.189815
-0.21958
-0.259683
-0.302364
-0.338124
-0.35925
-0.363487
-0.354648
-0.334536
-0.304642
-0.265342
-0.215453
-0.1526
-0.0742684
0.0208881
0.131619
0.255074
0.385097
0.513705
0.632391
0.731309
0.798667
0.827327
0.812908
0.753597
0.651015
0.511206
0.345007
0.167187
-0.00570083
-0.158191
-0.284744
-0.380487
-0.443355
-0.474605
-0.477994
-0.458737
-0.422502
-0.374659
-0.32019
-0.262992
-0.205826
-0.150849
-0.0999114
-0.0546615
-0.0166401
0.0125988
0.0312858
0.0371777
0.0276019
0
-0.0480962
-0.118624
-0.219213
-0.360748
-0.538433
-0.742601
-0.96299
-1.19072
-0.750272
0.415135
2.4661
5.32149
8.54241
11.3844
13.0532
13.0487
11.402
8.66167
5.6374
3.06003
1.34475
0.543551
0.447408
0.59954
0.675556
0.737298
0.783972
0.816467
0.836983
0.848472
0.854098
0.857026
0.860203
0.866709
0.879878
0.903132
0.939418
0.993678
1.07282
1.16738
1.25758
1.32364
1.35529
1.35772
1.3504
1.35837
1.40016
1.4788
1.57404
1.67201
1.76057
1.83243
1.88696
1.92952
1.96865
2.01265
2.06651
2.13008
2.20231
2.2828
2.37151
2.4691
2.57692
2.69652
2.82884
2.97353
3.12844
3.28997
3.45306
3.61196
3.76107
3.89493
4.00643
4.08663
4.13089
4.13471
4.09362
4.00396
3.8638
3.67394
3.43837
3.16451
2.86318
2.55072
2.23989
1.94204
1.66828
1.43521
1.26872
1.17855
1.14537
1.14031
1.13425
1.10609
1.04689
0.959334
0.853818
0.743694
0.640685
0.550308
0.474499
0.414024
0.368807
0.338706
0.323951
0.320482
0.317675
0.304047
0.270609
0.214195
0.139457
0.0586239
-0.0107843
-0.0139721
0.139942
0.396075
0.63845
0.749379
0.664181
0.402513
0.0630959
-0.219614
-0.342036
-0.32698
-0.27389
-0.211744
-0.158475
-0.126503
-0.120509
-0.137155
-0.166601
-0.195285
-0.209561
-0.202207
-0.171689
-0.106812
-0.0148472
0.0821617
0.160815
0.205842
0.216318
0.205233
0.192196
0.19462
0.213904
0.233944
0.230596
0.186071
0.0996182
-0.0117367
-0.122426
-0.211615
-0.274125
-0.324048
-0.367643
-0.409828
-0.452208
-0.491963
-0.522293
-0.53417
-0.51778
-0.43851
-0.264247
-0.0407368
0.165308
0.292279
0.305874
0.209707
0.0417519
-0.140279
-0.279033
-0.340627
-0.352354
-0.341146
-0.3174
-0.291147
-0.26919
-0.253596
-0.242243
-0.231226
-0.21735
-0.202405
-0.192374
-0.19301
-0.204898
-0.221466
-0.231493
-0.224669
-0.196855
-0.155814
-0.109672
-0.0643173
-0.0247391
0.00611382
0.0278019
141
365
595
821
1038
1259
1491
1728
1967
2203
2429
2656
2890
3124
3342
3570
3554
3221
3407
3596
3616
3523
3688
3471
3612
0
0
0
0
0
0
0
0
0
0
0
0
0
0
0
0
0
0
0
0
0
0
0
0
0
0
0
0
0
0
0
0
0
0
0
0
0
0
0
0
0
0
0
0
0
0
0
0
0
0
0
0
0
0
0
0
0
0
0
0
0
0
0
0
0
0
0
0
0
0
0
0
0
0
0
0
0
0
0
0
0
0
0
0
0
0
0
0
0
0
0
0
0
0
0
0
0
0
0
0
0
0
0
0
0
0
0
0
0
0
0
0
0
0
0
0
0
0
0
0
0
0
0
0
0
0
0
0
0
0
0
0
0
0
0
0
0
0
0
0
0
0
0
0
0
0
0
0
0
0
0
0
0
0
0
0
0
0
0
0
0
0
0
0
0
0
0
0
0
0
0
0
0
0
0
0
0
0
0
0
0
0
0
0
0
0
0
0
0
0
0
0
0
0
0
0
0
0
0
0
0
0
0
0
0
0
0
0
0
0
0
0
0
0
0
0
0
0
0
0
0
0
0
0
0
0
0
0
0
0
0
0
0
0
0
0
0
0
0
0
0
0
0
0
0
0
0
0
0
0
0
0
0
0
0
0
0
0
0
0
0
0
0
0
0
0
0
0
0
0
0
0
0
0
0
0
0
0
0
0
0
0
0
0
0
0
0
0
0
0
0
0
0
0
0
0
0
0
0
0
0
0
0
0
0
0
0
0
0
0
0
0
0
0
0
0
0
0
0
0
0
0
0
0
0
0
0
0
0
0
0
0
0
0
0
0
0
0
0
0
0
0
0
0
0
0
0
0
0
0
0
0
0
0
0
0
0
0
0
0
0
0
0
0
0
0
0
0
0
0
0
0
0
0
0
0
0
0
0
0
0
0
0
0
0
0
0
0
0
0
0
0
0
0
0
0
0
0
0
0
0
0
0
0
0
0
0
0
0
0
0
0
0
0
0
0
0
0
0
0
0
0
0
0
0
0
0
0
0
0
0
0
0
0
0
0
0
0
0
0
0
0
0
0
0
0
0
0
0
0
0
0
0
0
0
0
0
0
0
0
0
0
0
0
0
0
0
0
0
0
0
0
0
0
0
0
0
0
0
0
0
0
0
0
0
0
0
0
0
0
0
0
0
0
0
0
0
0
0
0
0
0
0
0
0
0
0
0
0
0
0
0
0
0
0
0
0
0
0
0
0
0
0
0
0
0
0
0
0
0
0
0
0
0
0
0
0
0
0
0
0
0
0
0
0
0
0
0
0
0
0
0
0
0
0
0
0
0
0
0
0
0
0
0
0
0
0
0
0
0
0
0
0
0
0
0
0
0
0
0
0
0
0
0
0
0
0
0
0
0
0
0
0
0
0
0
0
0
0
0
0
0
0
0
0
0
0
0
0
0
0
0
0
0
0
0
0
0
0
0
0
0
0
0
0
0
0
0
0
0
0
0
0
0
0
0
0
0
0
0
0
0
0
0
0
0
0
0
0
0
0
0
0
0
0
0
0
0
0
0
0
0
0
0
0
0
0
0
0
0
0
0
0
0
0
0
0
0
0
0
0
0
0
0
0
0
0
0
0
0
0
0
0
0
0
0
0
0
0
0
0
0
0
0
0
0
0
0
0
0
0
0
0
0
0
0
0
0
0
0
0
0
0
0
0
0
0
0
0
0
0
0
0
0
0
0
0
0
0
0
0
0
0
0
0
0
0
0
0
0
0
0
0
0
0
0
0
0
0
0
0
0
0
0
0
0
0
0
0
0
0
0
0
0
0
0
0
0
0
0
0
0
0
0
0
0
0
0
0
0
0
0
0
0
0
0
0
0
0
0
0
0
0
0
0
0
0
0
0
0
0
0
0
0
0
0
0
0
0
0
0
0
0
0
0
0
0
0
0
0
0
0
0
0
0
0
0
0
0
0
0
0
0
0
0
0
0
0
0
0
0
0
0
0
0
0
0
0
0
0
0
0
0
0
0
0
0
0
0
0
0
0
0
0
0
0
0
0
0
0
0
0
0
0
0
0
0
0
0
0
0
0
0
0
0
0
0
0
0
0
0
0
0
0
0
0
0
0
0
0
0
0
0
0
0
0
0
0
0
0
0
0
0
0
0
0
0
0
0
0
0
0
0
0
0
0
0
0
0
0
0
0
0
0
0
0
0
0
0
0
0
0
0
0
0
0
0
0
0
0
0
0
0
0
0
0
0
0
0
0
0
0
0
0
0
0
0
0
0
0
0
0
0
0
0
0
0
0
0
0
0
0
0
0
0
0
0
0
0
0
0
0
0
0
0
0
0
0
0
0
0
0
0
0
0
0
0
0
0
0
0
0
0
0
0
0
0
0
0
0
0
0
0
0
0
0
0
0
0
0
0
0
0
0
0
0
0
0
0
0
0
0
0
0
0
0
0
0
0
0
0
0
0
0
0
0
0
0
0
0
0
0
0
0
0
0
0
0
0
0
0
0
0
0
0
0
0
0
0
0
0
0
0
0
0
0
0
0
0
0
0
0
0
0
0
0
0
0
0
0
0
0
0
0
0
0
0
0
0
0
0
0
0
0
0
0
0
0
0
0
0
0
0
0
0
0
0
0
0
0
0
0
0
0
0
0
0
0
0
0
0
0
0
0
0
0
0
0
0
0
0
0
0
0
0
0
0
0
0
0
0
0
0
0
0
0
0
0
0
0
0
0
0
0
0
0
0
0
0
0
0
0
0
0
0
0
0
0
0
0
0
0
0
0
0
0
0
0
0
0
0
0
0
0
0
0
0
0
0
0
0
0
0
0
0
0
0
0
0
0
0
0
0
0
0
0
0
0
0
0
0
0
0
0
0
0
0
0
0
0
0
0
0
0
0
0
0
0
0
0
0
0
0
0
0
0
0
0
0
0
0
0
0
0
0
0
0
0
0
0
0
0
0
0
0
0
0
0
0
0
0
0
0
0
0
0
0
0
0
0
0
0
0
0
0
0
0
0
0
0
0
0
0
0
0
0
0
0
0
0
0
0
0
0
0
0
0
0
0
0
0
0
0
0
0
0
0
0
0
0
0
0
0
0
0
0
0
0
0
0
0
0
0
0
0
0
0
0
0
0
0
0
0
0
0
0
0
0
0
0
0
0
0
0
0
0
0
0
0
0
0
0
0
0
0
0
0
0
0
0
0
0
0
0
0
0
0
0
0
0
0
0
0
0
0
0
0
0
0
0
0
0
0
0
0
0
0
0
0
0
0
0
0
0
0
0
0
0
0
0
0
0
0
0
0
0
0
0
0
0
0
0
0
0
0
0
0
0
0
0
0
0
0
0
0
0
0
0
0
0
0
0
0
0
0
0
0
0
0
0
0
0
0
0
0
0
0
0
0
0
0
0
0
0
0
0
0
0
0
0
0
0
0
0
0
0
0
0
0
0
0
0
0
0
0
0
0
0
0
0
0
0
0
0
0
0
0
0
0
0
0
0
0
0
0
0
0
0
0
0
0
0
0
0
0
0
0
0
0
0
0
0
0
0
0
0
0
0
0
0
0
0
0
0
0
0
0
0
0
0
0
0
0
0
0
0
0
0
0
0
0
0
0
0
0
0
0
0
0
0
0
0
0
0
0
0
0
0
0
0
0
0
0
0
0
0
0
0
0
0
0
0
0
0
0
0
0
0
0
0
0
0
0
0
0
0
0
0
0
0
0
0
0
0
0
0
0
0
0
0
0
0
0
0
0
0
0
0
0
0
0
0
0
0
0
0
0
0
0
0
0
0
0
0
0
0
0
0
0
0
0
0
0
0
0
0
0
0
0
0
0
0
0
0
0
0
0
0
0
0
0
0
0
0
0
0
0
0
0
0
0
0
0
0
0
0
0
0
0
0
0
0
0
0
0
0
0
0
0
0
0
0
0
0
0
0
0
0
0
0
0
0
0
0
0
0
0
0
0
0
0
0
0
0
0
0
0
0
0
0
0
0
0
0
0
0
0
0
0
0
0
0
0
0
0
0
0
0
0
0
0
0
0
0
0
0
0
0
0
0
0
0
0
0
0
0
0
0
0
0
0
0
0
0
0
0
0
0
0
0
0
0
0
0
0
0
0
0
0
0
0
0
0
0
0
0
0
0
0
0
0
0
0
0
0
0
0
0
0
0
0
0
0
0
0
0
0
0
0
0
0
0
0
0
0
0
0
0
0
0
0
0
0
0
0
0
0
0
0
0
0
0
0
0
0
0
0
0
0
0
0
0
0
0
0
0
0
0
0
0
0
0
0
0
0
0
0
0
0
0
0
0
0
0
0
0
0
0
0
0
0
0
0
0
0
0
0
0
0
0
0
0
0
0
0
0
0
0
0
0
0
0
0
0
0
0
0
0
0
0
0
0
0
0
0
0
0
0
0
0
0
0
0
0
0
0
0
0
0
0
0
0
0
0
0
0
0
0
0
0
0
0
0
0
0
0
0
0
0
0
0
0
0
0
0
0
0
0
0
0
0
0
0
0
0
0
0
0
0
0
0
0
0
0
0
0
0
0
0
0
0
0
0
0
0
0
0
0
0
0
0
0
0
0
0
0
0
0
0
0
0
0
0
0
0
0
0
0
0
0
0
0
0
0
0
0
0
0
0
0
0
0
0
0
0
0
0
0
0
0
0
0
0
0
0
0
0
0
0
0
0
0
0
0
0
0
0
0
0
0
0
0
0
0
0
0
0
0
0
0
0
0
0
0
0
0
0
0
0
0
0
0
0
0
0
0
0
0
0
0
0
0
0
0
0
0
0
0
0
0
0
0
0
0
0
0
0
0
0
0
0
0
0
0
0
0
0
0
0
0
0
0
0
0
0
0
0
0
0
0
0
0
0
0
0
0
0
0
0
0
0
0
0
0
0
0
0
0
0
0
0
0
0
0
0
0
0
0
0
0
0
0
0
0
0
0
0
0
0
0
0
0
0
0
0
0
0
0
0
0
0
0
0
0
0
0
0
0
0
0
0
0
0
0
0
0
0
0
0
0
0
0
0
0
0
0
0
0
0
0
0
0
0
0
0
0
0
0
0
0
0
0
0
0
0
0
0
0
0
0
0
0
0
0
0
0
0
0
0
0
0
0
0
0
0
0
0
0
0
0
0
0
0
0
0
0
0
0
0
0
0
0
0
0
0
0
0
0
0
0
0
0
0
0
0
0
0
0
0
0
0
0
0
0
0
0
0
0
0
0
0
0
0
0
0
0
0
0
0
0
0
0
0
0
0
0
0
0
0
0
0
0
0
0
0
0
0
0
0
0
0
0
0
0
0
0
0
0
0
0
0
0
0
0
0
0
0
0
0
0
0
0
0
0
0
0
0
0
0
0
0
0
0
0
0
0
0
0
0
0
0
0
0
0
0
0
0
0
0
0
0
0
0
0
0
0
0
0
0
0
0
0
0
0
0
0
0
0
0
0
0
0
0
0
0
0
0
0
0
0
0
0
0
0
0
0
0
0
0
0
0
0
0
0
0
0
0
0
0
0
0
0
0
0
0
0
0
0
0
0
0
0
0
0
0
0
0
0
0
0
0
0
0
0
0
0
0
0
0
0
0
0
0
0
0
0
0
0
0
0
0
0
0
0
0
0
0
0
0
0
0
0
0
0
0
0
0
0
0
0
0
0
0
0
0
0
0
0
0
0
0
0
0
0
0
0
0
0
0
0
0
0
0
0
0
0
0
0
0
0
0
0
0
0
0
0
0
0
0
0
0
0
0
0
0
0
0
0
0
0
0
0
0
0
0
0
0
0
0
0
0
0
0
0
0
0
0
0
0
0
0
0
0
0
0
0
0
0
0
0
0
0
0
0
0
0
0
0
0
0
0
0
0
0
0
0
0
0
0
0
0
0
0
0
0
0
0
0
0
0
0
0
0
0
0
0
0
0
0
0
0
0
0
0
0
0
0
0
0
0
0
0
0
0
0
0
0
0
0
0
0
0
0
0
0
0
0
0
0
0
0
0
0
0
0
0
0
0
0
0
0
0
0
0
0
0
0
0
0
0
0
0
0
0
0
0
0
0
0
0
0
0
0
0
0
0
0
0
0
0
0
0
0
0
0
0
0
0
0
0
0
0
0
0
0
0
0
0
0
0
0
0
0
0
0
0
0
0
0
0
0
0
0
0
0
0
0
0
0
0
0
0
0
0
0
0
0
0
0
0
0
0
0
0
0
0
0
0
0
0
0
0
0
0
0
0
0
0
0
0
0
0
0
0
0
0
0
0
0
0
0
0
0
0
0
0
0
0
0
0
0
0
0
0
0
0
0
0
0
0
0
0
0
0
0
0
0
0
0
0
0
0
0
0
0
0
0
0
0
0
0
0
0
0
0
0
0
0
0
0
0
0
0
0
0
0
0
0
0
0
0
0
0
0
0
0
0
0
0
0
0
0
0
0
0
0
0
0
0
0
0
0
0
0
0
0
0
0
0
0
0
0
0
0
0
0
0
0
0
0
0
0
0
0
0
0
0
0
0
0
0
0
0
0
0
0
0
0
0
0
0
0
0
0
0
0
0
0
0
0
0
0
0
0
0
0
0
0
0
0
0
0
0
0
0
0
0
0
0
0
0
0
0
0
0
0
0
0
0
0
0
0
0
0
0
0
0
0
0
0
0
0
0
0
0
0
0
0
0
0
0
0
0
0
0
0
0
0
0
0
0
0
0
0
0
0
0
0
0
0
0
0
0
0
0
0
0
0
0
0
0
0
0
0
0
0
0
0
0
0
0
0
0
0
0
0
0
0
0
0
0
0
0
0
0
0
0
0
0
0
0
0
0
0
0
0
0
0
0
0
0
0
0
0
0
0
0
0
0
0
0
0
0
0
0
0
0
0
0
0
0
0
0
0
0
0
0
0
0
0
0
0
0
0
0
0
0
0
0
0
0
0
0
0
0
0
0
0
0
0
0
0
0
0
0
0
0
0
0
0
0
0
0
0
0
0
0
0
0
0
0
0
0
0
0
0
0
0
0
0
0
0
0
0
0
0
0
0
0
0
0
0
0
0
0
0
0
0
0
0
0
0
0
0
0
0
0
0
0
0
0
0
0
0
0
0
0
0
0
0
0
0
0
0
0
0
0
0
0
0
0
0
0
0
0
0
0
0
0
0
0
0
0
0
0
0
0
0
0
0
0
0
0
0
0
0
0
0
0
0
0
0
0
0
0
0
0
0
0
0
0
0
0
0
0
0
0
0
0
0
0
0
0
0
0
0
0
0
0
0
0
0
0
0
0
0
0
0
0
0
0
0
0
0
0
0
0
0
0
0
0
0
0
0
0
0
0
0
0
0
0
0
0
0
0
0
0
0
0
0
0
0
0
0
0
0
0
0
0
0
0
0
0
0
0
0
0
0
0
0
0
0
0
0
0
0
0
0
0
0
0
0
0
0
0
0
0
0
0
0
0
0
0
0
0
0
0
0
0
0
0
0
0
0
0
0
0
0
0
0
0
0
0
0
0
0
0
0
0
0
0
0
0
0
0
0
0
0
0
0
0
0
0
0
0
0
0
0
0
0
0
0
0
0
0
0
0
0
0
0
0
0
0
0
0
0
0
0
0
0
0
0
0
0
0
0
0
0
0
0
0
0
0
0
0
0
0
0
0
0
0
0
0
0
0
0
0
0
0
0
0
0
0
0
0
0
0
0
0
0
0
0
0
0
0
0
0
0
0
0
0
0
0
0
0
0
0
0
0
0
0
0
0
0
0
0
0
0
0
0
0
0
0
0
0
0
0
0
0
0
0
0
0
0
0
0
0
0
0
0
0
0
0
0
0
0
0
0
0
0
0
0
0
0
0
0
0
0
0
0
0
0
0
0
0
0
0
0
0
0
0
0
0
0
0
0
0
0
0
0
0
0
0
0
0
0
0
0
0
0
0
0
0
0
0
0
0
0
0
0
0
0
0
0
0
0
0
0
0
0
0
0
0
0
0
0
0
0
0
0
0
0
0
0
0
0
0
0
0
0
0
0
0
0
0
0
0
0
0
0
0
0
0
0
0
0
0
0
0
0
0
0
0
0
0
0
0
0
0
0
0
0
0
0
0
0
0
0
0
0
0
0
0
0
0
0
0
0
0
0
0
0
0
0
0
0
0
0
0
0
0
0
0
0
0
0
0
0
0
0
0
0
0
0
0
0
0
0
0
0
0
0
0
0
0
0
0
0
0
0
0
0
0
0
0
0
0
0
0
0
0
0
0
0
0
0
0
0
0
0
0
0
0
0
0
0
0
0
0
0
0
0
0
0
0
0
0
0
0
0
0
0
0
0
0
0
0
0
0
0
0
0
0
0
0
0
0
0
0
0
0
0
0
0
0
0
0
0
0
0
0
0
0
0
0
0
0
0
0
0
0
0
0
0
0
0
0
0
0
0
0
0
0
0
0
0
0
0
0
0
0
0
0
0
0
0
0
0
0
0
0
0
0
0
0
0
0
0
