2.53206
2.38273
2.24692
2.12783
2.02898
1.95343
1.90282
1.87663
1.87204
1.88426
1.90735
1.9348
1.96105
1.98147
1.99238
1.99118
1.97632
1.9473
1.90468
1.85015
1.7866
1.71821
1.64992
1.58731
1.53582
1.49986
1.48212
1.48458
1.50532
1.53748
1.57271
1.60352
1.6254
1.63822
1.6464
1.65787
1.68224
1.72848
1.81354
1.95649
2.14924
2.34748
2.50021
2.56618
2.52732
2.39585
2.21256
2.03583
1.92404
1.91007
2.10204
2.45689
2.84332
3.13653
3.26747
3.23211
3.06231
2.78631
2.41514
1.97013
1.52484
1.13699
0.831523
0.606012
0.471435
0.483347
0.67022
0.950168
1.21765
1.38623
1.40131
1.24941
0.959994
0.591935
0.205341
-0.165142
0
0.817035
2.29811
4.31928
6.52937
8.40712
9.42191
9.23493
7.84771
5.62492
3.1681
1.08918
-0.213755
-0.671755
-0.395892
-0.124271
0.13138
0.356291
0.539146
0.680976
0.79193
0.873181
0.921102
0.934478
0.913037
0.858721
0.776887
0.676789
0.570841
0.47257
0.398406
0.367573
0.372301
0.390427
0.396167
0.372838
0.321245
0.259619
0.215446
0.213445
0.261956
0.343313
0.444045
0.557134
0.67563
0.794511
0.911579
1.02751
1.14516
1.26832
1.4004
1.54342
1.69723
1.8598
2.02804
2.1983
2.36665
2.52858
2.67893
2.8129
2.92589
3.01327
3.07081
3.09517
3.0845
3.03898
2.96114
2.85583
2.73044
2.59292
2.45056
2.30935
2.17281
2.04162
1.91497
1.79095
1.66717
1.54137
1.41201
1.27873
1.14238
1.00505
0.869704
0.739795
0.618728
0.509292
0.413324
0.331218
0.261137
0.199302
0.141112
0.0821648
0.0191818
-0.0494225
-0.123481
-0.201482
-0.281242
-0.360601
-0.437966
-0.512218
-0.582465
-0.647739
-0.70666
-0.757275
-0.797086
-0.823337
-0.833584
-0.826298
-0.799926
-0.752994
-0.68991
-0.622441
-0.563972
-0.526281
-0.516526
-0.535452
-0.577361
-0.631745
-0.685998
-0.729065
-0.756074
-0.765893
-0.755718
-0.728266
-0.693513
-0.662868
-0.645577
-0.645432
-0.658951
-0.675749
-0.681157
-0.660316
-0.603195
-0.511787
-0.39325
-0.254604
-0.102933
0.0534744
0.206469
0.34864
0.472734
0.569768
0.628868
0.644029
0.610937
0.529168
0.40473
0.251565
0.0908131
-0.0525642
-0.155046
-0.185791
-0.11428
0.0367001
0.212497
0.356043
0.426625
0.409592
0.316782
0.180144
0.0410431
-0.0625568
-0.114188
-0.123425
-0.107969
-0.0704315
0
0.304071
1.3032
3.20585
5.73933
8.17519
9.6365
9.51604
7.77303
4.95089
1.9206
-0.508181
-1.90435
-2.31403
-2.0756
-1.84378
-1.62349
-1.41487
-1.21161
-1.01139
-0.816839
-0.631116
-0.457652
-0.299184
-0.158294
-0.0425465
0.0398525
0.0836872
0.0856133
0.046944
-0.0238686
-0.110679
-0.192037
-0.24618
-0.256815
-0.22213
-0.154422
-0.0592693
0.0559357
0.183923
0.318129
0.454786
0.591406
0.72589
0.855354
0.97506
1.07989
1.16547
1.22997
1.27578
1.31004
1.3435
1.3879
1.45272
1.54227
1.65152
1.77218
1.89631
2.01546
2.12239
2.2125
2.28473
2.34168
2.3891
2.43496
2.49052
2.58169
2.76705
3.07513
3.42183
3.6938
3.78716
3.64749
3.29929
2.84522
2.42351
2.13659
1.96661
1.83843
1.72636
1.6284
1.54782
1.49126
1.46684
1.48101
1.53559
1.62618
1.74239
1.86982
1.99323
2.10169
2.18774
2.24877
2.28688
2.30761
2.31815
2.32547
2.33484
2.34899
2.36863
2.39361
2.42334
2.4573
2.49521
2.5369
2.58201
2.62903
2.67444
2.71258
2.73676
2.74061
2.71954
2.67185
2.59925
2.50651
2.40052
2.28898
2.17917
2.07653
1.98428
1.905
1.84134
1.79465
1.76533
1.75252
1.75388
1.7656
1.78281
1.8004
1.814
1.82104
1.82088
1.81488
1.80595
1.79775
1.79385
1.79693
1.8088
1.83055
1.86279
1.90579
1.95961
2.02427
2.09983
2.18524
2.27709
2.36846
2.44822
2.50424
2.52579
2.50611
2.44412
2.34477
2.21737
2.07234
1.91718
1.75351
1.57834
1.36513
1.01946
0.53123
0.0185138
-0.355333
-0.473895
-0.326581
0
0.37293
0.705731
0.95379
1.15447
1.33655
1.50988
1.65284
1.93661
2.70536
4.15925
6.19164
8.31819
9.8304
10.1146
8.97227
6.75091
4.18548
2.03234
0.714584
0.194394
0.134908
0.109303
0.0935755
0.0939053
0.115287
0.160806
0.231074
0.323946
0.434619
0.556172
0.680438
0.799919
0.908685
1.00357
1.08477
1.15561
1.22137
1.2875
1.35861
1.43373
1.50565
1.5629
1.59286
1.58497
1.5332
1.43777
1.30613
1.15304
0.999249
0.867012
0.776507
0.739207
0.749702
0.802987
0.887768
0.989256
1.09263
1.18722
1.2687
1.33511
1.38784
1.43094
1.47009
1.51148
1.56082
1.62241
1.69859
1.78947
1.89383
2.00735
2.12253
2.23099
2.32463
2.39543
2.43663
2.44591
2.42397
2.37415
2.30176
2.21276
2.11226
2.00309
1.88528
1.75743
1.61754
1.4656
1.30508
1.14301
0.988526
0.850341
0.734176
0.639722
0.565193
0.506671
0.459761
0.420996
0.388531
0.361966
0.341575
0.327193
0.31762
0.311224
0.305856
0.299333
0.289944
0.276783
0.2598
0.23959
0.21704
0.193023
0.168222
0.14329
0.119289
0.0982178
0.0834986
0.0806755
0.0961037
0.136129
0.205477
0.305635
0.433832
0.586502
0.750119
0.908122
1.04501
1.14933
1.21539
1.2432
1.23721
1.20438
1.15238
1.08962
1.02218
0.954304
0.889659
0.831649
0.78361
0.748675
0.731415
0.746811
0.85222
1.14375
1.55547
1.93991
2.12606
2.00645
1.59792
1.04027
0.539965
0.293001
0.326551
0.465639
0.661199
0.903401
1.16573
1.4149
1.62067
1.76181
1.82747
1.81713
1.73944
1.61008
1.44812
1.27104
1.09039
0.910856
0.733587
0.56012
0.394002
0.241025
0.109476
0.0192753
0
0.0671278
0.150076
0.191242
0.140863
-0.0242632
-0.292449
-0.621256
-1.00735
-0.693899
0.57002
2.78234
5.57712
8.25033
9.9629
10.0759
8.46552
5.62543
2.46511
-0.109468
-1.5997
-2.07557
-2.08539
-2.17802
-2.26461
-2.33152
-2.33429
-2.14859
-1.76236
-1.30441
-0.948173
-0.822497
-0.951615
-1.25501
-1.59502
-1.83315
-1.86423
-1.75145
-1.57096
-1.35215
-1.0935
-0.808185
-0.52879
-0.287897
-0.108779
0.00168853
0.0547489
0.0751015
0.0918832
0.129325
0.196767
0.287791
0.39714
0.522199
0.6607
0.810608
0.970035
1.13654
1.30503
1.46497
1.60291
1.70618
1.76766
1.79023
1.78867
1.78781
1.82045
1.98379
2.28346
2.63283
2.91001
3.02635
2.97044
2.79903
2.58622
2.37609
2.1811
2.0047
1.84812
1.71494
1.62312
1.58721
1.58899
1.59504
1.5682
1.48161
1.32853
1.1233
0.893477
0.667492
0.460591
0.270471
0.0950354
-0.0657787
-0.21089
-0.334836
-0.431278
-0.49193
-0.508278
-0.474146
-0.386026
-0.238045
-0.0336941
0.212628
0.474091
0.714224
0.902497
1.0135
1.02698
0.935839
0.758103
0.542916
0.361562
0.282712
0.328749
0.508853
0.761052
1.00091
1.15954
1.20808
1.15655
1.03346
0.864108
0.66261
0.444852
0.22182
0
-0.172512
-0.330005
-0.408237
-0.0324196
0.781107
1.95448
3.17773
3.92177
3.74689
2.65606
1.19374
0.1613
0.137636
1.09581
2.10706
2.78811
2.83423
2.28943
1.47958
0.783355
0.477903
0.707967
1.07255
1.4708
1.88873
2.31636
2.74338
3.16085
3.56019
3.93136
4.26038
4.53348
4.74444
4.88469
4.94497
4.91887
4.80628
4.61482
4.35931
4.06036
3.74432
3.43448
3.14394
2.88632
2.69538
2.63114
2.66442
2.72136
2.71063
2.55752
2.23449
1.77409
1.25755
0.782803
0.425334
0.142558
-0.0841759
-0.265778
-0.278875
0
0.722465
2.28989
4.79521
7.80993
10.4443
11.7122
11.0273
8.53371
5.05349
1.67926
-0.748777
-1.96889
-2.27403
-2.42413
-2.56663
-2.70193
-2.82539
-2.93137
-3.01341
-3.07173
-3.11372
-3.14984
-3.19043
-3.24253
-3.30815
-3.38454
-3.46609
-3.54677
-3.62295
-3.69378
-3.75899
-3.81814
-3.87039
-3.91376
-3.9449
-3.95939
-3.95141
-3.89811
-3.73192
-3.41848
-3.04873
-2.75487
-2.65059
-2.77135
-3.04802
-3.3316
-3.46103
-3.34468
-3.08762
-2.79294
-2.4923
-2.20172
-1.93291
-1.69231
-1.48137
-1.29806
-1.14036
-1.00857
-0.901176
-0.819047
-0.763793
-0.735469
-0.730788
-0.742601
-0.760748
-0.773819
-0.771419
-0.732095
-0.601011
-0.331664
0.00195313
0.282191
0.375387
0.190756
-0.264017
-0.874322
-1.46814
-1.89214
-2.12084
-2.26472
-2.3635
-2.41858
-2.43249
-2.40893
-2.35314
-2.27198
-2.17367
-2.06701
-1.96029
-1.85962
-1.76786
-1.68587
-1.61322
-1.54824
-1.48866
-1.43228
-1.37741
-1.32309
-1.26909
-1.21559
-1.16295
-1.11138
-1.06089
-1.01142
-0.96319
-0.917301
-0.876738
-0.84696
-0.834598
-0.846273
-0.886417
-0.955193
-1.04722
-1.15157
-1.25326
-1.33585
-1.38634
-1.40075
-1.3802
-1.32637
-1.24423
-1.1416
-1.02768
-0.911419
-0.79987
-0.697269
-0.604654
-0.520032
-0.43908
-0.356153
-0.265501
-0.162336
-0.0437702
0.0906075
0.238634
0.396189
0.557621
0.717136
0.86982
1.01218
1.14008
1.24654
1.32494
1.36944
1.37282
1.33064
1.24568
1.1297
1.00072
0.877141
0.771701
0.684745
0.610842
0.54771
0.493445
0.447516
0.410761
0.38448
0.36907
0.363105
0.362484
0.360534
0.350201
0.326212
0.286827
0.211275
0
0.377228
1.61947
3.66456
6.09768
8.22896
9.30283
8.80754
6.75589
3.75611
0.766806
-1.36234
-2.28487
-2.23523
-1.9244
-1.63457
-1.37174
-1.14602
-0.959563
-0.802824
-0.674425
-0.574513
-0.50244
-0.456887
-0.432778
-0.423226
-0.420069
-0.414685
-0.399161
-0.367633
-0.317504
-0.249364
-0.16788
-0.0819114
-0.0010067
0.0670682
0.117987
0.151229
0.168009
0.17253
0.170954
0.170418
0.179529
0.208408
0.267329
0.363859
0.49955
0.667784
0.851013
1.03413
1.20293
1.34605
1.45722
1.53633
1.58913
1.62576
1.65854
1.6994
1.75716
1.8361
1.93635
2.05669
2.18852
2.31564
2.42076
2.48958
2.51343
2.49048
2.42538
2.32754
2.20878
2.08074
1.95274
1.82957
1.71251
1.60062
1.49166
1.38255
1.27023
1.15247
1.02849
0.899223
0.767252
0.636401
0.511242
0.396357
0.295748
0.212417
0.148151
0.103512
0.0780022
0.0703148
0.078611
0.100737
0.134094
0.176306
0.225373
0.279592
0.337589
0.398386
0.461401
0.526347
0.593053
0.661202
0.730095
0.798494
0.864626
0.926368
0.981677
1.0291
1.06827
1.10021
1.12738
1.15341
1.18254
1.21884
1.26547
1.324
1.39418
1.47396
1.55986
1.64759
1.73268
1.81117
1.88008
1.93765
1.98325
2.01703
2.03964
2.05193
2.0546
2.04798
2.03203
2.00662
1.9719
1.9284
1.87713
1.81951
1.75705
1.6909
1.62137
1.54742
1.46667
1.37558
1.27014
1.14676
1.00327
0.839794
0.65737
0.45975
0.25904
0.0708603
-0.089785
-0.211412
-0.288027
-0.319765
-0.312189
-0.274702
-0.218551
-0.155598
-0.0944382
-0.0407234
0
-0.176041
-0.237386
0.506436
2.31827
4.92659
7.53202
9.13488
9.02326
7.14585
4.14468
1.02663
-1.32986
-2.53905
-2.75334
-2.34849
-1.93012
-1.48917
-1.02686
-0.564181
-0.129602
0.242789
0.52074
0.683867
0.731539
0.684516
0.578893
0.454683
0.344151
0.260777
0.198476
0.151048
0.114755
0.0862228
0.0621437
0.0395981
0.016098
-0.0104424
-0.0417488
-0.0792397
-0.124006
-0.17671
-0.237405
-0.305292
-0.37837
-0.453132
-0.523805
-0.580621
-0.612449
-0.608361
-0.560362
-0.466064
-0.330344
-0.165285
0.0130363
0.183865
0.329842
0.441579
0.520281
0.577563
0.632485
0.706459
0.844342
1.07971
1.35713
1.58671
1.69288
1.65517
1.51783
1.36317
1.26502
1.25025
1.27188
1.2975
1.3034
1.27342
1.20174
1.0916
0.951491
0.791585
0.623485
0.456418
0.300422
0.166348
0.0645531
0.00259857
-0.0168808
0.00299988
0.0543564
0.126933
0.210849
0.298246
0.38507
0.469534
0.550494
0.627071
0.698441
0.763781
0.822382
0.873893
0.918576
0.957545
0.99285
1.02735
1.06441
1.10733
1.15872
1.21987
1.29145
1.37029
1.44703
1.51098
1.5539
1.57367
1.57641
1.57608
1.60423
1.77512
2.08174
2.40873
2.58813
2.49248
2.11178
1.5702
1.07248
0.809628
0.857416
1.01339
1.22169
1.46374
1.71302
1.93334
2.09564
2.18361
2.19857
2.16105
2.10646
2.07502
2.10454
2.23842
2.45944
2.70559
2.91209
3.03471
3.05154
2.95584
2.75398
2.47158
2.1576
1.87366
1.66541
1.52647
1.422
1.3313
1.24618
1.16048
1.0709
0.977017
0.880344
0.783069
0.68683
0.592085
0.498366
0.40441
0.30842
0.208923
0.105733
0
-0.085051
0.183188
1.01831
2.47753
4.46723
6.67665
8.60557
9.70397
9.5886
8.22822
5.97804
3.42992
1.16363
-0.458643
-1.35608
-1.34148
-1.20605
-1.04974
-0.875805
-0.689365
-0.496367
-0.302947
-0.115491
0.0558388
0.199431
0.304108
0.360947
0.367794
0.33331
0.278085
0.231294
0.223386
0.277152
0.442422
0.686005
0.941171
1.13757
1.23029
1.21588
1.12959
1.02684
0.959473
0.958286
1.00365
1.07706
1.17161
1.28549
1.41776
1.5683
1.73742
1.92587
2.1352
2.3667
2.61807
2.87497
3.11114
3.29871
3.41477
3.44849
3.40667
3.3149
3.21258
3.14277
3.14049
3.23006
3.4683
3.80632
4.14339
4.37973
4.44605
4.32418
4.05276
3.71344
3.40062
3.18537
3.04593
2.93743
2.8392
2.74071
2.63276
2.50795
2.36197
2.19459
2.00987
1.81567
1.62237
1.44113
1.28303
1.15655
1.06616
1.01272
0.99398
1.00548
1.04129
1.09706
1.16535
1.23593
1.29887
1.34588
1.37176
1.37549
1.36039
1.3332
1.30225
1.275
1.25525
1.24401
1.24032
1.23994
1.23727
1.22686
1.20466
1.16879
1.1194
1.05795
0.986153
0.905512
0.816901
0.719782
0.613133
0.49567
0.365761
0.222141
0.0696358
-0.0740204
-0.184241
-0.235894
-0.210177
-0.100529
0.084787
0.324422
0.589117
0.84833
1.08136
1.28359
1.45545
1.59253
1.69488
1.7657
1.81119
1.84021
1.86338
1.89164
1.93434
1.99734
2.08094
2.18237
2.29212
2.3964
2.48101
2.53423
2.5487
2.52203
2.4564
2.35746
2.2333
2.09439
1.95099
1.81103
1.6808
1.56613
1.47078
1.39433
1.33294
1.27995
1.22686
1.16466
1.08515
0.982045
0.846666
0.672652
0.466069
0.237894
0
0.1998
1.05338
2.4705
4.40304
6.76359
9.28722
11.4128
12.3896
11.6485
9.21085
5.80281
2.5294
0.305378
-0.566377
-0.407541
-0.17584
0.0275524
0.201879
0.342853
0.456099
0.550882
0.634137
0.712678
0.791944
0.875142
0.963599
1.05732
1.15532
1.25588
1.35632
1.45196
1.5358
1.60044
1.63925
1.6487
1.63035
1.59165
1.5449
1.50442
1.48271
1.4856
1.50944
1.5514
1.60278
1.65392
1.69724
1.72945
1.75232
1.77179
1.79581
1.83191
1.88516
1.95514
2.03948
2.13648
2.24356
2.35745
2.47436
2.58994
2.69939
2.79812
2.88261
2.95105
3.00386
3.04355
3.07402
3.0994
3.12258
3.14435
3.16161
3.168
3.15631
3.12119
3.06122
2.9792
2.88086
2.77238
2.65806
2.53961
2.41663
2.28753
2.15083
2.00614
1.85484
1.70015
1.54767
1.40649
1.28703
1.19829
1.14628
1.1325
1.15305
1.19921
1.25926
1.32123
1.37556
1.41826
1.44931
1.46906
1.47818
1.47803
1.47012
1.45639
1.44006
1.42628
1.42221
1.44217
1.52771
1.70919
1.93527
2.11653
2.16866
2.05653
1.81298
1.52083
1.26851
1.10624
1.00662
0.931104
0.867608
0.81261
0.765488
0.728093
0.703385
0.693703
0.698456
0.714738
0.738194
0.762854
0.781738
0.788081
0.777032
0.746388
0.697158
0.633664
0.563152
0.494866
0.43867
0.40341
0.3944
0.413354
0.459193
0.527349
0.611584
0.702164
0.787109
0.854627
0.894699
0.899966
0.866351
0.793421
0.68453
0.546672
0.390022
0.227068
0.0711479
-0.0664574
-0.178302
-0.251707
-0.264296
-0.204106
-0.107125
-0.0230652
0
-0.0542168
-0.200748
-0.410192
-0.632187
-0.813089
-0.917441
-0.964712
-0.978169
-0.950921
-0.448854
0.406276
1.88863
4.14556
6.94398
9.60987
11.2528
11.1969
9.36921
6.38587
3.26152
0.907075
-0.276299
-0.475341
-0.244868
-0.0937904
0.0502647
0.184586
0.306587
0.415909
0.511236
0.591259
0.655156
0.701678
0.731408
0.745952
0.748124
0.741952
0.732313
0.724115
0.721096
0.725615
0.735239
0.741605
0.733392
0.69996
0.635081
0.539284
0.419923
0.288898
0.158997
0.0394882
-0.0671364
-0.161001
-0.242712
-0.313454
-0.373836
-0.423111
-0.459076
-0.478539
-0.474438
-0.437805
-0.371669
-0.294849
-0.231868
-0.204911
-0.22644
-0.295936
-0.402222
-0.530112
-0.667933
-0.8111
-0.959609
-1.11404
-1.27477
-1.43975
-1.60444
-1.76299
-1.90827
-2.03604
-2.15297
-2.27425
-2.42
-2.60955
-2.8557
-3.161
-3.51721
-3.90802
-4.31273
-4.71539
-5.1075
-5.48411
-5.84416
-6.18992
-6.52599
-6.85806
-7.19168
-7.53115
-7.87845
-8.2325
-8.58866
-8.93896
-9.27294
-9.57797
-9.8324
-10.0113
-10.1214
-10.1829
-10.2226
-10.2641
-10.321
-10.3947
-10.478
-10.561
-10.6363
-10.7036
-10.7639
-10.816
-10.8587
-10.8889
-10.9025
-10.8945
-10.8601
-10.7951
-10.6967
-10.564
-10.3995
-10.2069
-9.99224
-9.76348
-9.5291
-9.29713
-9.07321
-8.86125
-8.66378
-8.48057
-8.30921
-8.14521
-7.98243
-7.81361
-7.6313
-7.42893
-7.2019
-6.94957
-6.67411
-6.37919
-6.07039
-5.7549
-5.4408
-5.13704
-4.85158
-4.5905
-4.35732
-4.15254
-3.97377
-3.81627
-3.67382
-3.53958
-3.40681
-3.26964
-3.1231
-2.9629
-2.7857
-2.58939
-2.37352
-2.13966
-1.89156
-1.63497
-1.37704
-1.12555
-0.887861
-0.669296
-0.472361
-0.296308
-0.137276
0
-0.0483089
0.299336
1.56637
3.89478
6.74618
9.0377
9.71367
8.38404
5.57256
2.40111
-0.0568956
-1.30126
-1.48966
-1.36458
-1.26143
-1.17777
-1.11663
-1.07598
-1.04921
-1.03074
-0.886143
-0.224279
0.783705
1.77984
2.35193
2.25746
1.55853
0.568736
-0.328147
-0.81144
-0.846
-0.811849
-0.768404
-0.725173
-0.689166
-0.665813
-0.658192
-0.666586
-0.688499
-0.719112
-0.752091
-0.780753
-0.79909
-0.802265
-0.78708
-0.752253
-0.698172
-0.626154
-0.538427
-0.43731
-0.324537
-0.200846
-0.0658222
0.0829618
0.25344
0.469348
0.796785
1.31216
1.92767
2.51839
2.94769
3.08004
2.83879
2.27544
1.5954
1.09876
1.01714
1.05592
1.0657
1.00672
0.854794
0.613469
0.311053
-0.011396
-0.315185
-0.58483
-0.827361
-1.04007
-1.22278
-1.37711
-1.50522
-1.6096
-1.69782
-1.78009
-1.86804
-1.97794
-2.14462
-2.36982
-2.59671
-2.74724
-2.75632
-2.59758
-2.28754
-1.86569
-1.35872
-0.745336
0
0.849613
1.81678
2.92419
4.18975
5.62067
7.2121
8.9472
10.7985
12.73
14.7004
16.6655
18.5814
20.4071
22.107
23.6526
25.0235
26.2012
27.1783
27.9617
28.568
29.0197
29.3422
29.5616
29.7031
29.7893
29.839
29.8673
29.8847
29.8979
29.9102
29.9223
29.9334
29.9422
29.9471
29.9467
29.9397
29.9252
29.9018
29.8676
29.8198
29.7546
29.6673
29.5531
29.4078
29.2288
29.0165
28.7752
28.51
28.2342
27.9696
27.7374
27.5533
27.4238
27.3463
27.3116
27.3082
27.3273
27.3639
27.4197
27.4994
27.6072
27.7544
27.9389
28.1371
28.3186
28.4544
28.5217
28.5052
28.3955
28.189
27.8896
27.5163
27.0987
26.6754
26.2877
25.9675
25.7095
25.5113
25.3689
25.2746
25.2196
25.195
25.1906
25.203
25.2282
25.2585
25.2837
25.2942
25.2829
25.2478
25.1926
25.1254
25.0555
24.9908
24.9347
24.879
24.8081
24.7064
24.5655
24.3879
24.1853
23.9725
23.7608
23.5534
23.3477
23.1413
22.932
22.718
22.4991
22.2761
22.0509
21.826
21.6044
21.3891
21.1838
20.9922
20.8177
20.6632
20.5303
20.4201
20.3319
20.2573
20.1825
20.0921
19.9723
19.8126
19.6066
19.3517
19.0475
18.6954
18.3028
17.8793
17.4297
16.9583
16.47
15.9708
15.467
14.9651
14.4708
13.989
13.523
13.0745
12.6434
12.2282
11.8266
11.4372
11.0592
10.6938
10.3432
10.0104
9.69828
9.4088
9.14255
8.89845
8.67374
8.46418
8.26492
8.06901
7.86875
7.65767
7.43224
7.19329
6.94653
6.70191
6.47164
6.26946
6.11618
6.02096
5.963
5.90986
5.82966
5.70248
5.52642
5.31641
5.09666
4.89074
4.71118
4.55374
4.41244
4.28498
4.1685
4.06016
3.95717
3.85649
3.75432
3.64562
3.52405
3.38273
3.21518
3.01674
2.78579
2.52459
2.23939
1.93976
1.63727
1.3435
1.0687
0.82083
0.604949
0.423251
0.276896
0.164825
0.0838276
0.0301891
0
0.0146358
0.0445084
0.0853504
0.13395
0.192437
0.35597
1.00191
2.25275
3.91547
5.48992
6.35859
6.06698
4.55478
2.21016
-0.297817
-2.32793
-3.53179
-3.53663
-3.48101
-3.40133
-3.29611
-3.16726
-3.01935
-2.85897
-2.69314
-2.53219
-2.3913
-2.28587
-2.23003
-2.233
-2.29523
-2.40616
-2.54525
-2.68647
-2.80487
-2.88679
-2.93604
-2.95655
-2.95079
-2.92312
-2.87869
-2.82273
-2.75936
-2.69127
-2.61989
-2.54567
-2.46838
-2.38748
-2.30247
-2.21311
-2.11952
-2.02214
-1.9216
-1.81859
-1.71367
-1.60727
-1.49969
-1.39115
-1.28186
-1.17198
-1.06173
-0.951382
-0.841452
-0.732953
-0.627688
-0.527901
-0.4361
-0.354564
-0.284924
-0.228106
-0.184723
-0.155814
-0.143591
-0.151416
-0.182713
-0.242268
-0.333844
-0.458887
-0.615518
-0.798109
-0.997577
-1.20218
-1.40024
-1.58098
-1.73572
-1.85787
-1.94503
-1.9979
-2.0193
-2.01304
-1.98301
-1.93256
-1.86443
-1.78103
-1.68491
-1.57938
-1.46854
-1.35797
-1.25522
-1.16707
-1.09796
-1.04836
-1.014
-0.986242
-0.954157
-0.906503
-0.829929
-0.729846
-0.62394
-0.535206
-0.48248
-0.472794
-0.498632
-0.540638
-0.574186
-0.577765
-0.548108
-0.490593
-0.410172
-0.311857
-0.203557
-0.0931711
0.0131296
0.112007
0.203144
0.288524
0.37113
0.453548
0.536939
0.620868
0.703607
0.782739
0.85567
0.919757
0.971985
1.00784
1.02043
1.00298
0.949154
0.855246
0.722204
0.556655
0.370343
0.178084
-0.00506287
-0.168899
-0.307802
-0.416947
-0.493322
-0.537752
-0.553036
-0.543514
-0.514653
-0.472723
-0.424127
-0.374632
-0.32857
-0.288273
-0.254231
-0.231644
0
0.666717
1.87019
3.66231
5.87395
8.01714
9.36756
9.26502
7.49297
4.48903
1.20665
-1.32328
-2.47418
-2.2602
-1.78344
-1.35443
-1.00851
-0.759912
-0.599228
-0.504781
-0.449972
-0.411732
-0.374745
-0.333488
-0.284802
-0.226745
-0.157992
-0.0776798
0.0144215
0.116916
0.22746
0.343568
0.461906
0.577325
0.682276
0.768731
0.829167
0.858185
0.854066
0.819706
0.76246
0.692842
0.622494
0.561974
0.517378
0.491349
0.487128
0.507825
0.555435
0.631507
0.736967
0.871761
1.03456
1.22271
1.43251
1.66102
1.90805
2.17781
2.47041
2.75886
2.99251
3.11024
3.07496
2.90433
2.6728
2.47977
2.40132
2.43896
2.51816
2.60923
2.67984
2.70238
2.6601
2.55093
2.38809
2.197
2.00884
1.8523
1.73919
1.66398
1.62047
1.60634
1.61741
1.64838
1.69492
1.75104
1.80897
1.86113
1.90116
1.92499
1.93179
1.92441
1.90874
1.8922
1.88149
1.8809
1.8921
1.90659
1.91183
1.89714
1.85953
1.80654
1.75439
1.72182
1.72237
1.75567
1.81329
1.88125
1.94409
1.98978
2.01249
2.01239
1.9931
1.95846
1.91149
1.85391
1.78448
1.70172
1.60526
1.49675
1.38031
1.2625
1.15086
1.05512
0.992406
0.976099
0.992881
1.01712
1.02137
0.988479
0.919215
0.83178
0.753568
0.709247
0.704642
0.735188
0.78618
0.835278
0.859859
0.843464
0.779731
0.672753
0.534161
0.37856
0.21944
0.0658928
-0.0783402
-0.211031
-0.329668
-0.432004
-0.515139
-0.575627
-0.618925
-0.660625
-0.719223
-0.810065
-0.939383
-1.1042
-1.2847
-1.45472
-1.59104
-1.68105
-1.6266
-0.911021
0
1.22911
2.97993
5.25307
7.64714
9.38758
9.65791
8.07005
4.95834
1.27918
-1.83919
-3.62067
-3.92614
-3.07448
-2.24138
-1.56567
-1.17966
-1.06928
-1.00128
-0.93821
-0.872108
-0.799717
-0.723209
-0.648592
-0.583424
-0.534566
-0.506664
-0.50167
-0.519212
-0.557322
-0.612637
-0.68035
-0.756598
-0.836975
-0.916749
-0.99126
-1.05638
-1.10961
-1.14876
-1.17244
-1.17987
-1.17075
-1.14525
-1.10411
-1.04877
-0.981468
-0.905186
-0.823471
-0.74006
-0.658386
-0.581154
-0.509965
-0.445158
-0.385886
-0.33041
-0.276516
-0.221897
-0.164417
-0.102361
-0.0342468
0.0411346
0.124926
0.218488
0.321391
0.424123
0.507278
0.547141
0.522204
0.419888
0.240562
-0.00276337
-0.288561
-0.592674
-0.894109
-1.18375
-1.45882
-1.71686
-1.95693
-2.1798
-2.38761
-2.58277
-2.76711
-2.94115
-3.10385
-3.25287
-3.38499
-3.49591
-3.58334
-3.65053
-3.70492
-3.75572
-3.81133
-3.87679
-3.95225
-4.03283
-4.11001
-4.17417
-4.2183
-4.24034
-4.24112
-4.22366
-4.1933
-4.15574
-4.11548
-4.07484
-4.03381
-3.99064
-3.94301
-3.8889
-3.82758
-3.75892
-3.68265
-3.59805
-3.50339
-3.39138
-3.24221
-3.05202
-2.86452
-2.75143
-2.77958
-2.97096
-3.28113
-3.61126
-3.84927
-3.91809
-3.87158
-3.76005
-3.59648
-3.39543
-3.17083
-2.93774
-2.70604
-2.48827
-2.29664
-2.14138
-2.02822
-1.95648
-1.91884
-1.90311
-1.8954
-1.88347
-1.86135
-1.828
-1.78348
-1.7294
-1.66961
-1.60932
-1.55427
-1.51023
-1.48179
-1.47168
-1.48066
-1.5076
-1.54988
-1.60399
-1.6661
-1.73236
-1.79891
-1.86168
-1.91609
-1.95561
-1.97337
-1.96256
-1.9177
-1.83604
-1.71851
-1.56975
-1.39721
-1.20959
-1.01509
-0.819702
-0.630095
-0.614271
0
1.51641
3.9892
7.00108
9.77409
11.4516
11.4565
9.74438
6.81665
3.49804
0.606696
-1.32146
-2.14679
-2.06372
-1.63721
-1.24589
-0.917717
-0.670554
-0.497275
-0.368229
-0.273355
-0.203698
-0.149702
-0.102421
-0.0545467
-0.00121727
0.0604996
0.131148
0.204773
0.269195
0.311558
0.322935
0.302408
0.259176
0.211726
0.18394
0.199067
0.272319
0.398147
0.562567
0.751982
0.953978
1.15196
1.32884
1.47109
1.57063
1.62569
1.64046
1.62384
1.5876
1.54448
1.50656
1.48279
1.47866
1.49839
1.54384
1.6144
1.70721
1.81756
1.93941
2.06649
2.19275
2.31204
2.41706
2.49973
2.55375
2.57372
2.55527
2.4962
2.39767
2.26466
2.10542
1.93021
1.74968
1.57306
1.40599
1.25138
1.11075
0.985321
0.875496
0.778871
0.690581
0.605463
0.519577
0.431658
0.344058
0.262894
0.197246
0.157561
0.151687
0.182453
0.250712
0.370167
0.545621
0.74024
0.909904
1.01729
1.04424
0.997317
0.904528
0.804738
0.734398
0.712684
0.727516
0.766686
0.824056
0.8895
0.951979
1.00231
1.03474
1.04758
1.04276
1.02456
0.997894
0.966851
0.933927
0.899698
0.86354
0.824405
0.781558
0.735271
0.687222
0.640617
0.59999
0.570688
0.558126
0.566905
0.599976
0.657854
0.738021
0.836499
0.948113
1.06708
1.18809
1.30707
1.42189
1.53258
1.64101
1.75022
1.86431
1.98775
2.11739
2.23762
2.32648
2.36296
2.3338
2.23719
2.08235
1.88625
1.66888
1.44888
1.23724
1.03779
0.851205
0.677012
0.516665
0.371806
0.244578
0.138563
0.0586025
0.0106308
0
0.0307178
0.104725
0.220964
0.37521
0.560347
0.767111
0.985091
1.20374
1.25164
1.48073
2.34542
3.96898
6.14256
8.35143
9.92038
10.2476
9.05607
6.55166
3.3889
0.429538
-1.60405
-2.40414
-2.00874
-1.29496
-0.528343
0.0025322
0.216686
0.319574
0.402702
0.476012
0.538178
0.585886
0.616573
0.629221
0.624844
0.606529
0.579082
0.548366
0.520443
0.500231
0.491231
0.495893
0.516107
0.551723
0.595328
0.63255
0.64799
0.629825
0.573962
0.486105
0.380793
0.277559
0.195484
0.144956
0.123614
0.137121
0.179309
0.228493
0.26144
0.260782
0.220857
0.149875
0.0672829
-0.00287094
-0.0400833
-0.0381218
-0.00822754
0.0407906
0.102693
0.169157
0.231809
0.283061
0.31655
0.326997
0.309319
0.261861
0.185678
0.0853477
-0.030513
-0.149521
-0.255027
-0.300893
-0.23679
-0.102646
0.00695496
-0.0110229
-0.21384
-0.582832
-1.03211
-1.44837
-1.73989
-1.92892
-2.06924
-2.17199
-2.24433
-2.29406
-2.32835
-2.35279
-2.37104
-2.38479
-2.39411
-2.39787
-2.39431
-2.38151
-2.35754
-2.32095
-2.27107
-2.20732
-2.13102
-2.04424
-1.94934
-1.84858
-1.74395
-1.63726
-1.53041
-1.42565
-1.32553
-1.23249
-1.14827
-1.0733
-1.00642
-0.945088
-0.886039
-0.826212
-0.763791
-0.698473
-0.632
-0.569525
-0.518232
-0.485034
-0.474225
-0.485713
-0.514509
-0.551781
-0.587158
-0.611418
-0.619471
-0.612701
-0.592824
-0.561584
-0.521299
-0.474387
-0.422601
-0.366946
-0.307589
-0.243906
-0.174722
-0.0986893
-0.0148125
0.0773048
0.177142
0.281287
0.38277
0.472891
0.542749
0.584846
0.594394
0.570084
0.514299
0.432876
0.334526
0.230359
0.130575
0.0437447
-0.0236263
-0.0661148
-0.0801395
-0.0670223
-0.0352634
0
0.0310177
0.0334888
-0.0032814
-0.0837368
-0.205581
-0.360627
-0.536744
-0.752879
-0.522525
0.309999
1.84317
4.00049
6.44496
8.5793
9.70336
9.31172
7.38162
4.45052
1.3934
-0.985148
-2.29367
-2.63116
-2.42863
-2.2489
-2.08621
-1.94657
-1.83391
-1.74687
-1.68259
-1.63915
-1.61332
-1.60077
-1.59618
-1.59347
-1.58601
-1.56722
-1.53126
-1.47301
-1.38339
-1.25706
-1.10892
-0.964991
-0.851931
-0.788342
-0.778665
-0.811917
-0.865661
-0.913612
-0.933943
-0.921854
-0.8841
-0.827576
-0.757251
-0.676911
-0.589474
-0.496465
-0.397998
-0.293266
-0.181387
-0.0613987
0.0662212
0.195424
0.316327
0.41938
0.499221
0.557365
0.60244
0.64769
0.706644
0.788598
0.899124
1.03282
1.16964
1.28238
1.34567
1.34187
1.26523
1.12394
0.939254
0.740951
0.559126
0.412047
0.296021
0.200243
0.115913
0.0323093
-0.0601601
-0.167328
-0.289806
-0.42308
-0.559009
-0.688168
-0.803535
-0.902265
-0.982461
-1.04395
-1.0879
-1.11671
-1.13277
-1.13746
-1.13058
-1.11034
-1.07405
-1.01708
-0.928262
-0.805317
-0.669629
-0.550456
-0.473685
-0.450844
-0.474277
-0.521174
-0.564322
-0.584029
-0.579764
-0.563591
-0.543137
-0.526332
-0.519702
-0.526945
-0.548401
-0.581358
-0.620935
-0.661156
-0.696035
-0.720665
-0.731476
-0.72526
-0.699183
-0.651482
-0.581913
-0.48823
-0.370911
-0.241871
-0.119047
-0.0200993
0.0424688
0.064893
0.0530291
0.0202183
-0.0169611
-0.0434147
-0.0519321
-0.0425575
-0.0166101
0.0255278
0.083506
0.157603
0.249058
0.359864
0.493682
0.661026
0.872233
1.11682
1.36216
1.57069
1.71007
1.75984
1.71332
1.57666
1.36761
1.11449
0.853335
0.615332
0.415643
0.254001
0.124783
0.0253349
-0.0487221
-0.101507
-0.135518
-0.151469
-0.148378
-0.120883
-0.0762272
-0.0296839
0
0.032762
0.0249405
-0.0209276
-0.0941839
-0.180817
-0.2695
0.0466753
0.763858
2.12307
4.22281
6.78219
9.11016
10.3596
9.94312
7.86123
4.74186
1.55925
-0.808747
-1.94223
-1.98127
-1.76767
-1.56365
-1.37284
-1.19906
-1.04413
-0.909617
-0.797181
-0.708103
-0.644847
-0.610521
-0.607704
-0.637099
-0.69651
-0.780469
-0.88063
-0.986696
-1.08886
-1.17984
-1.255
-1.31125
-1.34759
-1.36738
-1.37872
-1.39059
-1.4105
-1.44245
-1.48598
-1.53638
-1.58606
-1.6264
-1.65032
-1.65349
-1.63208
-1.58388
-1.50814
-1.40553
-1.27819
-1.12989
-0.965987
-0.793028
-0.618051
-0.447624
-0.28643
-0.137311
-0.00142298
0.121862
0.234605
0.33987
0.441316
0.542825
0.648221
0.761051
0.884504
1.0212
1.17338
1.34076
1.50838
1.64369
1.70771
1.66697
1.50785
1.24692
0.931085
0.62566
0.394692
0.337491
0.504889
0.784087
1.01686
1.06757
0.875532
0.47891
0
-0.353107
-0.510674
-0.104791
0.660037
1.42272
1.85543
1.82516
1.44858
1.00679
0.774556
0.857795
1.04096
1.21462
1.34606
1.41322
1.40977
1.34537
1.24194
1.12731
1.02732
0.953096
0.906453
0.888887
0.900842
0.940065
1.00207
1.08119
1.17134
1.26644
1.36066
1.44826
1.5232
1.57877
1.60727
1.6004
1.54949
1.4468
1.28726
1.07036
0.801614
0.493291
0.163823
-0.163998
-0.447699
-0.592128
-0.594637
-0.513053
-0.436105
-0.439671
-0.554408
-0.760318
-1.0059
-1.23619
-1.41579
-1.55903
-1.67521
-1.76258
-1.81873
-1.84102
-1.82764
-1.77745
-1.68161
-1.52692
-1.32382
-1.10058
-0.888358
-0.712938
-0.58849
-0.515573
-0.483341
-0.473924
-0.467074
-0.447319
-0.409119
-0.346512
-0.256486
-0.154191
-0.062207
-0.0031456
0.00813522
-0.0308052
-0.110449
-0.214198
-0.324638
-0.42897
-0.523153
-0.599792
-0.654388
-0.683234
-0.683894
-0.656104
-0.602509
-0.429023
0
0.815757
2.46678
5.06557
8.08295
10.4786
11.2539
10.0466
7.3369
4.14183
1.45098
-0.201663
-0.806979
-0.651575
-0.314146
0.00685272
0.299587
0.564575
0.813506
1.05933
1.30693
1.55852
1.8139
2.07077
2.32525
2.57219
2.80224
3.00749
3.18162
3.32124
3.42784
3.50846
3.57429
3.63701
3.7046
3.77846
3.85347
3.92206
3.97785
4.01919
4.05076
4.08266
4.1276
4.1974
4.29574
4.42042
4.56858
4.73752
4.92388
5.12427
5.33586
5.55709
5.78839
6.03214
6.29199
6.57639
6.91555
7.30712
7.69498
8.00589
8.18626
8.23258
8.19481
8.14919
8.15731
8.23698
8.34481
8.45792
8.564
8.65812
8.74352
8.82878
8.92856
9.04294
9.14106
9.17429
9.1019
8.91615
8.65192
8.3751
8.15619
8.04395
8.00231
8.01164
8.06688
8.16105
8.29176
8.46405
8.669
8.87074
9.02479
9.09086
9.05092
8.92284
8.7614
8.64285
8.63726
8.7691
8.98284
9.23703
9.51667
9.80688
10.0948
10.372
10.6333
10.877
11.1037
11.3167
11.5201
11.7195
11.921
12.1308
12.3549
12.5984
12.8648
13.1552
13.4686
13.8014
14.1478
14.5006
14.8507
15.1833
15.4818
15.7318
15.9227
16.0503
16.1184
16.1388
16.1302
16.1148
16.1144
16.1431
16.2061
16.3131
16.4983
16.8113
17.2168
17.6082
17.8753
17.9294
17.7452
17.3936
17.0314
16.8379
16.937
17.2468
17.6457
18.0948
18.5855
19.1116
19.6651
20.2367
20.8161
21.3934
21.9604
22.512
23.0472
23.5691
24.0851
24.6049
25.1395
25.6991
26.2912
26.9198
27.5841
28.2787
28.9944
29.7192
30.44
31.1443
31.8221
32.467
33.0766
33.653
34.2013
34.7287
35.2429
35.7502
36.2543
36.7541
37.239
37.6874
38.0744
38.3785
38.5858
38.6902
38.6909
38.589
38.3873
38.0941
37.7278
37.3195
36.9098
36.5404
36.24
36.0016
35.8282
35.7161
35.6584
35.6475
35.671
35.7202
35.7927
35.8788
35.9607
36.0193
36.0385
36.0086
35.9281
35.8027
35.6418
35.4543
35.2455
35.0187
34.7746
34.5119
34.2285
33.9231
33.596
33.2492
32.8867
32.513
32.1328
31.7499
31.3669
30.9847
30.603
30.2206
29.837
29.4522
29.0676
28.6856
28.3089
27.9399
27.5796
27.2275
26.8818
26.54
26.2
25.8606
25.5221
25.186
24.8547
24.5302
24.2136
23.9048
23.6026
23.3048
23.009
22.7121
22.4105
22.1002
21.7769
21.4359
21.073
20.6854
20.2725
19.8365
19.3824
18.9176
18.4506
17.99
17.5436
17.1169
16.7134
16.334
15.9779
15.643
15.3267
15.0264
14.74
14.4662
14.2037
13.9514
13.7078
13.4706
13.2367
13.0029
12.7668
12.5276
12.286
12.0449
11.8085
11.5808
11.3644
11.1607
10.9687
10.7835
10.599
10.409
10.2097
9.99992
9.78185
9.55958
9.33783
9.12033
8.90859
8.70263
8.50123
8.30282
8.10627
7.91134
7.71869
7.52931
7.34379
7.16209
6.98333
6.806
6.62866
6.45074
6.27335
6.10058
5.93895
5.79592
5.67802
5.58911
5.52958
5.49643
5.4842
5.48601
5.49386
5.50062
5.49872
5.48016
5.43602
5.35671
5.23439
5.06349
4.84202
4.57245
4.26183
3.92098
3.56285
3.20061
2.84536
2.50358
2.18102
1.88235
1.61053
1.36749
1.15435
0.971388
0.819304
0.696432
0.599918
0.525661
0.469542
0.425145
0.38594
0.346233
0.302098
0.239193
0
0.38904
1.65696
3.64814
5.82308
7.45573
7.90875
6.87658
4.5165
1.41571
-1.61379
-3.85063
-4.94699
-4.82261
-4.41343
-3.83754
-3.28215
-2.85057
-2.66345
-2.61478
-2.61822
-2.64986
-2.70493
-2.78028
-2.87268
-2.97921
-3.09636
-3.22119
-3.35034
-3.47982
-3.60525
-3.7225
-3.82864
-3.92324
-4.00701
-4.08373
-4.16124
-4.24897
-4.35526
-4.485
-4.63794
-4.80829
-4.98569
-5.15731
-5.31027
-5.43493
-5.52391
-5.57297
-5.58055
-5.54719
-5.4759
-5.37427
-5.24804
-5.10268
-4.94407
-4.77774
-4.60812
-4.43803
-4.26876
-4.10075
-3.9346
-3.77334
-3.62703
-3.51183
-3.44692
-3.44789
-3.52084
-3.65947
-3.84678
-4.06061
-4.28071
-4.494
-4.69825
-4.89598
-5.08944
-5.28057
-5.47178
-5.66633
-5.86775
-6.07926
-6.30297
-6.53895
-6.78471
-7.03525
-7.28365
-7.52199
-7.74356
-7.93925
-8.10196
-8.22543
-8.30158
-8.27544
-8.04168
-7.65112
-7.25257
-6.99907
-6.99106
-7.23736
-7.64942
-8.07519
-8.36174
-8.42082
-8.35976
-8.25923
-8.14256
-8.02412
-7.92323
-7.85559
-7.83116
-7.8525
-7.91345
-7.99963
-8.09172
-8.17149
-8.2232
-8.25306
-8.28355
-8.34119
-8.4408
-8.57492
-8.71463
-8.82158
-8.86515
-8.84286
-8.78544
85
251
424
598
717
775
942
1105
1273
1447
1619
1785
1891
2091
2247
2411
2584
2755
2924
3099
3185
3279
3631
3384
3553
3284
3319
3400
3484
3653
3716
3356
3423
3512
3558
3596
3296
3431
3550
3611
0
0
0
0
0
0
0
0
0
0
0
0
0
0
0
0
0
0
0
0
0
0
0
0
0
0
0
0
0
0
0
0
0
0
0
0
0
0
0
0
0
0
0
0
0
0
0
0
0
0
0
0
0
0
0
0
0
0
0
0
0
0
0
0
0
0
0
0
0
0
0
0
0
0
0
0
0
0
0
0
0
0
0
0
0
0
0
0
0
0
0
0
0
0
0
0
0
0
0
0
0
0
0
0
0
0
0
0
0
0
0
0
0
0
0
0
0
0
0
0
0
0
0
0
0
0
0
0
0
0
0
0
0
0
0
0
0
0
0
0
0
0
0
0
0
0
0
0
0
0
0
0
0
0
0
0
0
0
0
0
0
0
0
0
0
0
0
0
0
0
0
0
0
0
0
0
0
0
0
0
0
0
0
0
0
0
0
0
0
0
0
0
0
0
0
0
0
0
0
0
0
0
0
0
0
0
0
0
0
0
0
0
0
0
0
0
0
0
0
0
0
0
0
0
0
0
0
0
0
0
0
0
0
0
0
0
0
0
0
0
0
0
0
0
0
0
0
0
0
0
0
0
0
0
0
0
0
0
0
0
0
0
0
0
0
0
0
0
0
0
0
0
0
0
0
0
0
0
0
0
0
0
0
0
0
0
0
0
0
0
0
0
0
0
0
0
0
0
0
0
0
0
0
0
0
0
0
0
0
0
0
0
0
0
0
0
0
0
0
0
0
0
0
0
0
0
0
0
0
0
0
0
0
0
0
0
0
0
0
0
0
0
0
0
0
0
0
0
0
0
0
0
0
0
0
0
0
0
0
0
0
0
0
0
0
0
0
0
0
0
0
0
0
0
0
0
0
0
0
0
0
0
0
0
0
0
0
0
0
0
0
0
0
0
0
0
0
0
0
0
0
0
0
0
0
0
0
0
0
0
0
0
0
0
0
0
0
0
0
0
0
0
0
0
0
0
0
0
0
0
0
0
0
0
0
0
0
0
0
0
0
0
0
0
0
0
0
0
0
0
0
0
0
0
0
0
0
0
0
0
0
0
0
0
0
0
0
0
0
0
0
0
0
0
0
0
0
0
0
0
0
0
0
0
0
0
0
0
0
0
0
0
0
0
0
0
0
0
0
0
0
0
0
0
0
0
0
0
0
0
0
0
0
0
0
0
0
0
0
0
0
0
0
0
0
0
0
0
0
0
0
0
0
0
0
0
0
0
0
0
0
0
0
0
0
0
0
0
0
0
0
0
0
0
0
0
0
0
0
0
0
0
0
0
0
0
0
0
0
0
0
0
0
0
0
0
0
0
0
0
0
0
0
0
0
0
0
0
0
0
0
0
0
0
0
0
0
0
0
0
0
0
0
0
0
0
0
0
0
0
0
0
0
0
0
0
0
0
0
0
0
0
0
0
0
0
0
0
0
0
0
0
0
0
0
0
0
0
0
0
0
0
0
0
0
0
0
0
0
0
0
0
0
0
0
0
0
0
0
0
0
0
0
0
0
0
0
0
0
0
0
0
0
0
0
0
0
0
0
0
0
0
0
0
0
0
0
0
0
0
0
0
0
0
0
0
0
0
0
0
0
0
0
0
0
0
0
0
0
0
0
0
0
0
0
0
0
0
0
0
0
0
0
0
0
0
0
0
0
0
0
0
0
0
0
0
0
0
0
0
0
0
0
0
0
0
0
0
0
0
0
0
0
0
0
0
0
0
0
0
0
0
0
0
0
0
0
0
0
0
0
0
0
0
0
0
0
0
0
0
0
0
0
0
0
0
0
0
0
0
0
0
0
0
0
0
0
0
0
0
0
0
0
0
0
0
0
0
0
0
0
0
0
0
0
0
0
0
0
0
0
0
0
0
0
0
0
0
0
0
0
0
0
0
0
0
0
0
0
0
0
0
0
0
0
0
0
0
0
0
0
0
0
0
0
0
0
0
0
0
0
0
0
0
0
0
0
0
0
0
0
0
0
0
0
0
0
0
0
0
0
0
0
0
0
0
0
0
0
0
0
0
0
0
0
0
0
0
0
0
0
0
0
0
0
0
0
0
0
0
0
0
0
0
0
0
0
0
0
0
0
0
0
0
0
0
0
0
0
0
0
0
0
0
0
0
0
0
0
0
0
0
0
0
0
0
0
0
0
0
0
0
0
0
0
0
0
0
0
0
0
0
0
0
0
0
0
0
0
0
0
0
0
0
0
0
0
0
0
0
0
0
0
0
0
0
0
0
0
0
0
0
0
0
0
0
0
0
0
0
0
0
0
0
0
0
0
0
0
0
0
0
0
0
0
0
0
0
0
0
0
0
0
0
0
0
0
0
0
0
0
0
0
0
0
0
0
0
0
0
0
0
0
0
0
0
0
0
0
0
0
0
0
0
0
0
0
0
0
0
0
0
0
0
0
0
0
0
0
0
0
0
0
0
0
0
0
0
0
0
0
0
0
0
0
0
0
0
0
0
0
0
0
0
0
0
0
0
0
0
0
0
0
0
0
0
0
0
0
0
0
0
0
0
0
0
0
0
0
0
0
0
0
0
0
0
0
0
0
0
0
0
0
0
0
0
0
0
0
0
0
0
0
0
0
0
0
0
0
0
0
0
0
0
0
0
0
0
0
0
0
0
0
0
0
0
0
0
0
0
0
0
0
0
0
0
0
0
0
0
0
0
0
0
0
0
0
0
0
0
0
0
0
0
0
0
0
0
0
0
0
0
0
0
0
0
0
0
0
0
0
0
0
0
0
0
0
0
0
0
0
0
0
0
0
0
0
0
0
0
0
0
0
0
0
0
0
0
0
0
0
0
0
0
0
0
0
0
0
0
0
0
0
0
0
0
0
0
0
0
0
0
0
0
0
0
0
0
0
0
0
0
0
0
0
0
0
0
0
0
0
0
0
0
0
0
0
0
0
0
0
0
0
0
0
0
0
0
0
0
0
0
0
0
0
0
0
0
0
0
0
0
0
0
0
0
0
0
0
0
0
0
0
0
0
0
0
0
0
0
0
0
0
0
0
0
0
0
0
0
0
0
0
0
0
0
0
0
0
0
0
0
0
0
0
0
0
0
0
0
0
0
0
0
0
0
0
0
0
0
0
0
0
0
0
0
0
0
0
0
0
0
0
0
0
0
0
0
0
0
0
0
0
0
0
0
0
0
0
0
0
0
0
0
0
0
0
0
0
0
0
0
0
0
0
0
0
0
0
0
0
0
0
0
0
0
0
0
0
0
0
0
0
0
0
0
0
0
0
0
0
0
0
0
0
0
0
0
0
0
0
0
0
0
0
0
0
0
0
0
0
0
0
0
0
0
0
0
0
0
0
0
0
0
0
0
0
0
0
0
0
0
0
0
0
0
0
0
0
0
0
0
0
0
0
0
0
0
0
0
0
0
0
0
0
0
0
0
0
0
0
0
0
0
0
0
0
0
0
0
0
0
0
0
0
0
0
0
0
0
0
0
0
0
0
0
0
0
0
0
0
0
0
0
0
0
0
0
0
0
0
0
0
0
0
0
0
0
0
0
0
0
0
0
0
0
0
0
0
0
0
0
0
0
0
0
0
0
0
0
0
0
0
0
0
0
0
0
0
0
0
0
0
0
0
0
0
0
0
0
0
0
0
0
0
0
0
0
0
0
0
0
0
0
0
0
0
0
0
0
0
0
0
0
0
0
0
0
0
0
0
0
0
0
0
0
0
0
0
0
0
0
0
0
0
0
0
0
0
0
0
0
0
0
0
0
0
0
0
0
0
0
0
0
0
0
0
0
0
0
0
0
0
0
0
0
0
0
0
0
0
0
0
0
0
0
0
0
0
0
0
0
0
0
0
0
0
0
0
0
0
0
0
0
0
0
0
0
0
0
0
0
0
0
0
0
0
0
0
0
0
0
0
0
0
0
0
0
0
0
0
0
0
0
0
0
0
0
0
0
0
0
0
0
0
0
0
0
0
0
0
0
0
0
0
0
0
0
0
0
0
0
0
0
0
0
0
0
0
0
0
0
0
0
0
0
0
0
0
0
0
0
0
0
0
0
0
0
0
0
0
0
0
0
0
0
0
0
0
0
0
0
0
0
0
0
0
0
0
0
0
0
0
0
0
0
0
0
0
0
0
0
0
0
0
0
0
0
0
0
0
0
0
0
0
0
0
0
0
0
0
0
0
0
0
0
0
0
0
0
0
0
0
0
0
0
0
0
0
0
0
0
0
0
0
0
0
0
0
0
0
0
0
0
0
0
0
0
0
0
0
0
0
0
0
0
0
0
0
0
0
0
0
0
0
0
0
0
0
0
0
0
0
0
0
0
0
0
0
0
0
0
0
0
0
0
0
0
0
0
0
0
0
0
0
0
0
0
0
0
0
0
0
0
0
0
0
0
0
0
0
0
0
0
0
0
0
0
0
0
0
0
0
0
0
0
0
0
0
0
0
0
0
0
0
0
0
0
0
0
0
0
0
0
0
0
0
0
0
0
0
0
0
0
0
0
0
0
0
0
0
0
0
0
0
0
0
0
0
0
0
0
0
0
0
0
0
0
0
0
0
0
0
0
0
0
0
0
0
0
0
0
0
0
0
0
0
0
0
0
0
0
0
0
0
0
0
0
0
0
0
0
0
0
0
0
0
0
0
0
0
0
0
0
0
0
0
0
0
0
0
0
0
0
0
0
0
0
0
0
0
0
0
0
0
0
0
0
0
0
0
0
0
0
0
0
0
0
0
0
0
0
0
0
0
0
0
0
0
0
0
0
0
0
0
0
0
0
0
0
0
0
0
0
0
0
0
0
0
0
0
0
0
0
0
0
0
0
0
0
0
0
0
0
0
0
0
0
0
0
0
0
0
0
0
0
0
0
0
0
0
0
0
0
0
0
0
0
0
0
0
0
0
0
0
0
0
0
0
0
0
0
0
0
0
0
0
0
0
0
0
0
0
0
0
0
0
0
0
0
0
0
0
0
0
0
0
0
0
0
0
0
0
0
0
0
0
0
0
0
0
0
0
0
0
0
0
0
0
0
0
0
0
0
0
0
0
0
0
0
0
0
0
0
0
0
0
0
0
0
0
0
0
0
0
0
0
0
0
0
0
0
0
0
0
0
0
0
0
0
0
0
0
0
0
0
0
0
0
0
0
0
0
0
0
0
0
0
0
0
0
0
0
0
0
0
0
0
0
0
0
0
0
0
0
0
0
0
0
0
0
0
0
0
0
0
0
0
0
0
0
0
0
0
0
0
0
0
0
0
0
0
0
0
0
0
0
0
0
0
0
0
0
0
0
0
0
0
0
0
0
0
0
0
0
0
0
0
0
0
0
0
0
0
0
0
0
0
0
0
0
0
0
0
0
0
0
0
0
0
0
0
0
0
0
0
0
0
0
0
0
0
0
0
0
0
0
0
0
0
0
0
0
0
0
0
0
0
0
0
0
0
0
0
0
0
0
0
0
0
0
0
0
0
0
0
0
0
0
0
0
0
0
0
0
0
0
0
0
0
0
0
0
0
0
0
0
0
0
0
0
0
0
0
0
0
0
0
0
0
0
0
0
0
0
0
0
0
0
0
0
0
0
0
0
0
0
0
0
0
0
0
0
0
0
0
0
0
0
0
0
0
0
0
0
0
0
0
0
0
0
0
0
0
0
0
0
0
0
0
0
0
0
0
0
0
0
0
0
0
0
0
0
0
0
0
0
0
0
0
0
0
0
0
0
0
0
0
0
0
0
0
0
0
0
0
0
0
0
0
0
0
0
0
0
0
0
0
0
0
0
0
0
0
0
0
0
0
0
0
0
0
0
0
0
0
0
0
0
0
0
0
0
0
0
0
0
0
0
0
0
0
0
0
0
0
0
0
0
0
0
0
0
0
0
0
0
0
0
0
0
0
0
0
0
0
0
0
0
0
0
0
0
0
0
0
0
0
0
0
0
0
0
0
0
0
0
0
0
0
0
0
0
0
0
0
0
0
0
0
0
0
0
0
0
0
0
0
0
0
0
0
0
0
0
0
0
0
0
0
0
0
0
0
0
0
0
0
0
0
0
0
0
0
0
0
0
0
0
0
0
0
0
0
0
0
0
0
0
0
0
0
0
0
0
0
0
0
0
0
0
0
0
0
0
0
0
0
0
0
0
0
0
0
0
0
0
0
0
0
0
0
0
0
0
0
0
0
0
0
0
0
0
0
0
0
0
0
0
0
0
0
0
0
0
0
0
0
0
0
0
0
0
0
0
0
0
0
0
0
0
0
0
0
0
0
0
0
0
0
0
0
0
0
0
0
0
0
0
0
0
0
0
0
0
0
0
0
0
0
0
0
0
0
0
0
0
0
0
0
0
0
0
0
0
0
0
0
0
0
0
0
0
0
0
0
0
0
0
0
0
0
0
0
0
0
0
0
0
0
0
0
0
0
0
0
0
0
0
0
0
0
0
0
0
0
0
0
0
0
0
0
0
0
0
0
0
0
0
0
0
0
0
0
0
0
0
0
0
0
0
0
0
0
0
0
0
0
0
0
0
0
0
0
0
0
0
0
0
0
0
0
0
0
0
0
0
0
0
0
0
0
0
0
0
0
0
0
0
0
0
0
0
0
0
0
0
0
0
0
0
0
0
0
0
0
0
0
0
0
0
0
0
0
0
0
0
0
0
0
0
0
0
0
0
0
0
0
0
0
0
0
0
0
0
0
0
0
0
0
0
0
0
0
0
0
0
0
0
0
0
0
0
0
0
0
0
0
0
0
0
0
0
0
0
0
0
0
0
0
0
0
0
0
0
0
0
0
0
0
0
0
0
0
0
0
0
0
0
0
0
0
0
0
0
0
0
0
0
0
0
0
0
0
0
0
0
0
0
0
0
0
0
0
0
0
0
0
0
0
0
0
0
0
0
0
0
0
0
0
0
0
0
0
0
0
0
0
0
0
0
0
0
0
0
0
0
0
0
0
0
0
0
0
0
0
0
0
0
0
0
0
0
0
0
0
0
0
0
0
0
0
0
0
0
0
0
0
0
0
0
0
0
0
0
0
0
0
0
0
0
0
0
0
0
0
0
0
0
0
0
0
0
0
0
0
0
0
0
0
0
0
0
0
0
0
0
0
0
0
0
0
0
0
0
0
0
0
0
0
0
0
0
0
0
0
0
0
0
0
0
0
0
0
0
0
0
0
0
0
0
0
0
0
0
0
0
0
0
0
0
0
0
0
0
0
0
0
0
0
0
0
0
0
0
0
0
0
0
0
0
0
0
0
0
0
0
0
0
0
0
0
0
0
0
0
0
0
0
0
0
0
0
0
0
0
0
0
0
0
0
0
0
0
0
0
0
0
0
0
0
0
0
0
0
0
0
0
0
0
0
0
0
0
0
0
0
0
0
0
0
0
0
0
0
0
0
0
0
0
0
0
0
0
0
0
0
0
0
0
0
0
0
0
0
0
0
0
0
0
0
0
0
0
0
0
0
0
0
0
0
0
0
0
0
0
0
0
0
0
0
0
0
0
0
0
0
0
0
0
0
0
0
0
0
0
0
0
0
0
0
0
0
0
0
0
0
0
0
0
0
0
0
0
0
0
0
0
0
0
0
0
0
0
0
0
0
0
0
0
0
0
0
0
0
0
0
0
0
0
0
0
0
0
0
0
0
0
0
0
0
0
0
0
0
0
0
0
0
0
0
0
0
0
0
0
0
0
0
0
0
0
0
0
0
0
0
0
0
0
0
0
0
0
0
0
0
0
0
0
0
0
0
0
0
0
0
0
0
0
0
0
0
0
0
0
0
0
0
0
0
0
0
0
0
0
0
0
0
0
0
0
0
0
0
0
0
0
0
0
0
0
0
0
0
0
0
0
0
0
0
0
0
0
0
0
0
0
0
0
0
0
0
0
0
0
0
0
0
0
0
0
0
0
0
0
0
0
0
0
0
0
0
0
0
0
0
0
0
0
0
0
0
0
0
0
0
0
0
0
0
0
0
0
0
0
0
0
0
0
0
0
0
0
0
0
0
0
0
0
0
0
0
0
0
0
0
0
0
0
0
0
0
0
0
0
0
0
0
0
0
0
0
0
0
0
0
0
0
0
0
0
0
0
0
0
0
0
0
0
0
0
0
0
0
0
0
0
0
0
0
0
0
0
0
0
0
0
0
0
0
0
0
0
0
0
0
0
0
0
0
0
0
0
0
0
0
0
0
0
0
0
0
0
0
0
0
0
0
0
0
0
0
0
0
0
0
0
0
0
0
0
0
0
0
0
0
0
0
0
0
0
0
0
0
0
0
0
0
0
0
0
0
0
0
0
0
0
0
0
0
0
0
0
0
0
0
0
0
0
0
0
0
0
0
0
0
0
0
0
0
0
0
0
0
0
0
0
0
0
0
0
0
0
0
0
0
0
0
0
0
0
0
