1.37213
1.40464
1.44091
1.4888
1.55487
1.64107
1.7466
1.8706
2.01183
2.16843
2.3383
2.5194
2.70991
2.90827
3.11297
3.32232
3.53418
3.74586
3.95413
4.15547
4.34653
4.52469
4.68856
4.83829
4.97569
5.10381
5.2265
5.34905
5.48197
5.64926
5.874
6.12251
6.33989
6.46133
6.43145
6.22864
5.87804
5.44153
4.98715
4.55631
4.14298
3.74048
3.3478
2.9688
2.6086
2.27275
1.96661
1.6946
1.45957
1.26239
1.10239
0.976984
0.880603
0.806702
0.748615
0.700307
0.656885
0.614812
0.571833
0.526725
0.478994
0.428719
0.376328
0.322604
0.268883
0.217449
0.172012
0.136717
0.115565
0.111447
0.125212
0.155143
0.197054
0.245048
0.292714
0.334438
0.367431
0.390178
0.402992
0.407573
0.40631
0.401616
0.395174
0.387625
0.378783
0.367995
0.354839
0.339819
0.324766
0.31276
0.307542
0.312588
0.330142
0.359793
0.399916
0.447283
0.497542
0.545562
0.586648
0.617503
0.636747
0.645095
0.645175
0.640971
0.636991
0.637273
0.644468
0.659163
0.680472
0.704874
0.72792
0.745676
0.755915
0.758713
0.756271
0.752079
0.749793
0.752307
0.760865
0.776305
0.799324
0.830891
0.872347
0.925031
0.989559
1.06506
1.14848
1.23529
1.32084
1.40041
1.47035
1.52873
1.57558
1.61269
1.64289
1.66913
1.69315
1.71486
1.73102
1.73572
1.7222
1.68493
1.62117
1.53171
1.42062
1.29442
1.16151
1.02943
0.903175
0.786662
0.682977
0.594112
0.519505
0.455072
0.394934
0.332561
0.262031
0.179126
0.0819946
-0.0286873
-0.150051
-0.277798
-0.42619
-0.434494
0
1.29758
3.73824
7.13593
10.6997
13.2475
13.7263
11.7555
7.85866
3.23046
-0.820835
-3.43012
-4.43566
-4.25863
-3.54411
-2.80682
-2.26051
-1.86701
-1.50471
-1.13252
-0.912347
-0.796389
-0.721603
-0.662429
-0.607808
-0.551262
-0.486899
-0.41044
-0.320623
-0.218733
-0.10708
0.0100075
0.126889
0.237278
0.334535
0.413639
0.47269
0.512472
0.536253
0.549183
0.557333
0.566488
0.581034
0.603264
0.632792
0.668376
0.709164
0.754959
0.806611
0.865921
0.935162
1.01644
1.11071
1.21742
1.33598
1.4656
1.60521
1.75349
1.90896
2.06999
2.23484
2.4018
2.56935
2.73641
2.90253
3.06794
3.23347
3.40057
3.57184
3.74958
3.9274
4.08695
4.2049
4.26108
4.24523
4.15914
4.01324
3.81986
3.58696
3.32013
3.0289
2.72191
2.40514
2.08328
1.76106
1.44386
1.13754
0.847889
0.580191
0.338783
0.1268
-0.0539509
-0.202967
-0.320969
-0.409783
-0.4717
-0.507649
-0.518148
-0.509505
-0.491984
-0.474119
-0.460195
-0.448566
-0.431899
-0.399748
-0.342802
-0.257209
-0.142571
-0.0146976
0.105251
0.198672
0.256211
0.280284
0.282676
0.278813
0.28159
0.295552
0.317653
0.344967
0.37507
0.405532
0.434465
0.46086
0.484645
0.506491
0.527486
0.54873
0.571005
0.594557
0.619009
0.643468
0.666724
0.687497
0.704636
0.717155
0.72465
0.727222
0.725447
0.72027
0.712803
0.704047
0.694562
0.684293
0.672547
0.658332
0.64095
0.620509
0.598082
0.575352
0.553872
0.534229
0.51553
0.495454
0.471018
0.439796
0.401176
0.357211
0.312663
0.274872
0.251611
0.248919
0.270932
0.321061
0.388387
0.458529
0.519332
0.565654
0.601158
0.636415
0.684346
0.755163
0.849448
0.959963
1.0816
1.21031
1.34202
1.47299
1.60015
1.72107
1.83361
1.93539
2.02344
2.09457
2.14597
2.17466
2.17787
2.1535
2.10043
2.01878
1.91013
1.77754
1.62615
1.46288
1.29452
1.1274
0.967515
0.82034
0.690238
0.579988
0.490652
0.421893
0.371726
0.33543
0.306139
0.277145
0.24314
0.201167
0.151068
0.0901226
-0.129276
0
0.906315
2.95646
6.16259
9.97345
13.3286
15.0438
14.3643
11.3724
6.99035
2.5589
-0.762361
-2.43214
-2.59825
-1.84053
-0.826125
-0.00417709
0.44183
0.528597
0.586354
0.64384
0.701582
0.759418
0.816581
0.871842
0.923745
0.970846
1.01161
1.04468
1.06978
1.08751
1.09948
1.10842
1.11797
1.13219
1.15465
1.18754
1.23216
1.28678
1.34521
1.4003
1.44641
1.48142
1.50766
1.53127
1.56052
1.60357
1.66554
1.74643
1.84469
1.95898
2.08772
2.22891
2.38036
2.5399
2.70549
2.87537
3.04819
3.22316
3.40018
3.57984
3.7633
3.952
4.14735
4.35028
4.56085
4.77791
4.99947
5.22074
5.4319
5.62082
5.77584
5.88747
5.94955
5.95918
5.91577
5.81965
5.67118
5.47082
5.22337
4.93747
4.62342
4.29133
3.95061
3.60991
3.27724
2.95973
2.66322
2.39205
2.14908
1.93586
1.75274
1.59915
1.47353
1.37308
1.29397
1.23156
1.18088
1.13687
1.09475
1.05107
1.00419
0.954643
0.904981
0.859415
0.822731
0.799522
0.796281
0.814113
0.8464
0.883179
0.914119
0.931454
0.931924
0.917311
0.8936
0.869185
0.852123
0.847013
0.855195
0.877479
0.910005
0.945801
0.977459
0.99925
1.00853
1.00592
0.994454
0.977968
0.959759
0.941777
0.924705
0.908808
0.894277
0.88148
0.871026
0.863641
0.859821
0.859555
0.862337
0.867025
0.871463
0.872418
0.866235
0.849557
0.82019
0.77795
0.725215
0.666524
0.609967
0.565491
0.542132
0.545704
0.578733
0.64284
0.722757
0.799378
0.855785
0.88227
0.878456
0.85194
0.814401
0.77709
0.746878
0.724266
0.708315
0.698551
0.694435
0.695577
0.70193
0.713826
0.73192
0.756988
0.789867
0.831404
0.882213
0.942496
1.01186
1.08919
1.17261
1.25952
1.34686
1.43128
1.50927
1.57768
1.63416
1.67716
1.70595
1.72042
1.72079
1.70728
1.67975
1.6376
1.58018
1.50702
1.41769
1.31269
1.19394
1.06504
0.931172
0.798631
0.674097
0.563775
0.473797
0.411449
0.38196
0.380076
0.391488
0.400311
0.393479
0.364267
0.313867
0.250577
-0.010236
0
0.715448
2.57047
5.69421
9.62871
13.3117
15.4446
15.103
12.2437
7.77919
3.14864
-0.3618
-2.14703
-2.38594
-1.73847
-0.903988
-0.284772
0.0388351
0.161904
0.259791
0.354508
0.447242
0.537561
0.62474
0.708037
0.786764
0.86035
0.928356
0.99038
1.04595
1.09469
1.13678
1.17282
1.20406
1.23258
1.26118
1.29316
1.33181
1.37984
1.4388
1.50835
1.58707
1.67304
1.76398
1.85771
1.95255
2.0477
2.14332
2.2405
2.34097
2.44676
2.55977
2.6814
2.81236
2.95253
3.10103
3.25648
3.41729
3.58196
3.74948
3.91953
4.09257
4.26981
4.45283
4.64312
4.84145
5.04754
5.26041
5.47291
5.67156
5.84144
5.96971
6.0484
6.07511
6.05174
5.98178
5.86771
5.70975
5.51364
5.28506
5.02793
4.74563
4.44268
4.12532
3.80106
3.47786
3.16345
2.86465
2.58685
2.33381
2.10772
1.90937
1.73839
1.59348
1.47256
1.37293
1.29135
1.22416
1.16759
1.11825
1.07364
1.03247
0.994915
0.962504
0.937614
0.92288
0.920469
0.931549
0.956074
0.992339
1.03725
1.08612
1.13227
1.1688
1.19026
1.19376
1.17986
1.15286
1.1202
1.09082
1.07285
1.07291
1.09437
1.12775
1.15849
1.17312
1.16521
1.13838
1.10502
1.08119
1.07976
1.10258
1.13977
1.18411
1.22712
1.26117
1.28114
1.28521
1.27446
1.25185
1.22088
1.18524
1.14749
1.10916
1.07148
1.03561
1.00278
0.974284
0.951359
0.935002
0.925768
0.923636
0.92774
0.935899
0.944514
0.949458
0.94697
0.934469
0.911153
0.878219
0.83863
0.796488
0.756205
0.721388
0.694063
0.675339
0.666084
0.666402
0.67597
0.694585
0.722356
0.759646
0.806741
0.863376
0.929366
1.00269
1.07894
1.15364
1.22376
1.28885
1.35124
1.41513
1.48506
1.56413
1.65186
1.74578
1.8424
1.93557
2.01678
2.07808
2.11279
2.11634
2.08688
2.02565
1.93681
1.82692
1.70397
1.57648
1.45148
1.33328
1.22474
1.12824
1.04522
0.975933
0.919446
0.873729
0.835541
0.799987
0.761219
0.713843
0.654024
0.580408
0.494588
0.394121
0.00522499
0
0.872653
3.01928
6.42749
10.4887
14.0888
16.0043
15.4399
12.4221
7.82057
2.97939
-0.843126
-2.93473
-3.28549
-2.42246
-1.06758
0.182603
1.02196
1.40396
1.34777
1.28635
1.22396
1.1645
1.11309
1.07501
1.05302
1.04707
1.05619
1.07932
1.11544
1.16326
1.22105
1.28664
1.35765
1.43117
1.50332
1.57033
1.62957
1.68027
1.72388
1.76372
1.80403
1.84874
1.90027
1.9587
2.02232
2.0891
2.15722
2.22589
2.29576
2.36896
2.44855
2.53796
2.63992
2.75587
2.88704
3.03408
3.19682
3.37425
3.5646
3.76542
3.97377
4.18643
4.40007
4.61146
4.81755
5.01543
5.20207
5.37356
5.52578
5.65566
5.76045
5.83757
5.88447
5.89792
5.87496
5.81233
5.70679
5.55571
5.35775
5.1137
4.82702
4.50412
4.15447
3.79103
3.42555
3.06893
2.73153
2.42234
2.14838
1.91435
1.7215
1.56774
1.44846
1.35741
1.28768
1.23259
1.1864
1.14478
1.10491
1.06544
1.02624
0.987978
0.951809
0.918905
0.890178
0.866154
0.846907
0.831911
0.820255
0.8109
0.802918
0.79568
0.788934
0.782804
0.777704
0.774231
0.773044
0.774757
0.779819
0.788392
0.800246
0.814696
0.830637
0.846672
0.861362
0.873429
0.881962
0.88655
0.887303
0.884843
0.880184
0.874582
0.869325
0.865478
0.86368
0.86393
0.864968
0.864274
0.858769
0.84563
0.82312
0.791188
0.751632
0.70782
0.664066
0.624754
0.59302
0.570742
0.559303
0.559026
0.569139
0.587937
0.613121
0.642055
0.672247
0.701701
0.729109
0.753861
0.775886
0.795402
0.812676
0.827907
0.841143
0.852393
0.861779
0.869765
0.877319
0.885966
0.897738
0.914991
0.940092
0.975023
1.021
1.07819
1.14547
1.22073
1.30131
1.38424
1.46657
1.54551
1.61818
1.68119
1.73115
1.76524
1.78071
1.77525
1.74746
1.69735
1.6266
1.53859
1.43824
1.33173
1.22511
1.12301
1.02899
0.94641
0.876527
0.816213
0.76021
0.702554
0.6381
0.563653
0.478358
0.383332
0.280797
0.173344
0.0632986
-0.0481154
-0.161206
-0.280019
0
1.1182
3.38736
6.69155
10.3415
13.2208
14.2324
12.8335
9.35093
4.86129
0.689778
-2.17886
-3.44078
-3.4122
-2.68632
-1.77795
-0.956699
-0.294346
0.200499
0.38105
0.444415
0.492405
0.532891
0.567431
0.596983
0.622127
0.642803
0.658482
0.668508
0.672513
0.670783
0.664552
0.656161
0.649079
0.647574
0.656439
0.68033
0.722977
0.786397
0.870317
0.971558
1.08545
1.20607
1.32733
1.44417
1.55318
1.65306
1.74455
1.83008
1.91302
1.99695
2.08504
2.1796
2.28195
2.39268
2.51198
2.63995
2.7769
2.92331
3.07966
3.24601
3.42163
3.60472
3.79254
3.98169
4.1689
4.35183
4.52953
4.70172
4.87193
5.06448
5.30619
5.55947
5.76118
5.86155
5.84213
5.71134
5.49046
5.20191
4.86356
4.49227
4.10769
3.72388
3.3478
2.98322
2.63462
2.30692
2.00413
1.72898
1.48284
1.26585
1.07716
0.915302
0.778431
0.664854
0.573413
0.501712
0.446219
0.403127
0.36871
0.339786
0.314139
0.290783
0.269978
0.253008
0.241578
0.237277
0.241445
0.254856
0.277422
0.308168
0.345466
0.387288
0.4315
0.476098
0.51928
0.559379
0.594669
0.623019
0.64171
0.648349
0.641321
0.620351
0.587198
0.545896
0.502413
0.463971
0.437085
0.425903
0.431114
0.449834
0.476497
0.50442
0.527497
0.541995
0.546186
0.540617
0.527696
0.511132
0.494975
0.482683
0.476995
0.47942
0.491006
0.510311
0.532819
0.553106
0.566395
0.570001
0.564219
0.552359
0.539943
0.533313
0.537836
0.555425
0.585507
0.626784
0.677486
0.733281
0.788306
0.837618
0.878501
0.911216
0.938893
0.966579
0.999693
1.04245
1.09632
1.15957
1.22989
1.30534
1.38423
1.46555
1.54903
1.63492
1.72371
1.81396
1.90023
1.97443
2.02779
2.05304
2.0459
2.00535
1.93297
1.83216
1.7079
1.56884
1.42211
1.27342
1.12818
0.991277
0.866213
0.755977
0.662839
0.588026
0.532759
0.498538
0.482942
0.478002
0.475363
0.468325
0.453347
0.430297
0.112134
0
0.531046
2.06582
4.70011
8.08632
11.4085
13.6086
13.8131
11.7621
7.98627
3.60199
-0.179177
-2.55159
-3.3589
-2.99173
-2.06643
-1.10339
-0.370794
0.091893
0.332052
0.436135
0.528067
0.61386
0.692957
0.764746
0.828936
0.885577
0.935106
0.978371
1.01665
1.05164
1.08536
1.12004
1.15792
1.20105
1.25107
1.30905
1.37541
1.44989
1.53172
1.61982
1.71314
1.81089
1.91285
2.01936
2.13124
2.24947
2.37487
2.50768
2.64744
2.79297
2.94271
3.09515
3.24929
3.40504
3.56325
3.7256
3.89407
4.07048
4.25583
4.44996
4.6513
4.85695
5.06296
5.26475
5.45761
5.63702
5.79978
5.94408
6.06957
6.17702
6.2672
6.3372
6.38068
6.39219
6.36249
6.28118
6.14054
5.93893
5.68227
5.38314
5.05756
4.72156
4.38628
4.05667
3.73599
3.42614
3.12837
2.84397
2.57477
2.32324
2.09223
1.88463
1.70276
1.54755
1.41846
1.31364
1.23016
1.16453
1.11323
1.07307
1.04157
1.01718
0.999315
0.988564
0.986228
0.994146
1.01422
1.04791
1.09571
1.15684
1.22914
1.30928
1.39322
1.47682
1.55656
1.62996
1.69598
1.75498
1.80861
1.8593
1.90973
1.96228
2.01875
2.0799
2.14372
2.20389
2.25185
2.27927
2.28049
2.25423
2.20412
2.13781
2.06498
1.99506
1.93436
1.88462
1.84579
1.81778
1.80036
1.79293
1.79454
1.80285
1.81353
1.82177
1.82304
1.81395
1.79283
1.75991
1.71718
1.66786
1.61594
1.5656
1.52033
1.48328
1.45748
1.44721
1.46216
1.5147
1.58801
1.65095
1.66971
1.6225
1.51182
1.36716
1.23498
1.16021
1.16833
1.2232
1.31134
1.42158
1.54211
1.66264
1.77762
1.88341
1.97741
2.05799
2.12418
2.17523
2.21038
2.22843
2.22759
2.20525
2.15815
2.08337
1.97887
1.84437
1.68229
1.49823
1.30064
1.10058
0.91072
0.742659
0.613818
0.542766
0.520843
0.527328
0.538423
0.535009
0.507492
0.456389
0.389195
0.315444
0.242229
0.171203
0.101213
0
-0.0112137
0.48023
1.9283
4.54982
8.04846
11.5617
13.9307
14.2032
12.1057
8.21229
3.69893
-0.180233
-2.60527
-3.42937
-3.0669
-2.15991
-1.24793
-0.600997
-0.244914
-0.0955876
-0.0397287
0.00877247
0.0535728
0.094175
0.129212
0.157606
0.178878
0.193529
0.203414
0.211941
0.223953
0.245223
0.281581
0.337807
0.421227
0.546885
0.704481
0.862302
0.986561
1.05442
1.06302
1.03049
0.988737
0.97104
1.00005
1.06814
1.15924
1.26503
1.38161
1.50583
1.63569
1.77043
1.91007
2.05501
2.20548
2.36133
2.52205
2.68706
2.85582
3.02784
3.20261
3.37948
3.55756
3.73582
3.91328
4.08937
4.26417
4.43861
4.61441
4.79495
4.98751
5.19837
5.41089
5.59213
5.70687
5.73124
5.66126
5.51168
5.30489
5.05615
4.76561
4.43942
4.09086
3.72914
3.36043
2.99076
2.62697
2.27641
1.946
1.64154
1.36705
1.12468
0.914398
0.734624
0.582798
0.456901
0.354638
0.273386
0.210809
0.164697
0.132812
0.112564
0.101402
0.0971091
0.0980471
0.103193
0.111937
0.123736
0.137789
0.152892
0.167608
0.18061
0.191143
0.199388
0.206606
0.214989
0.227238
0.245946
0.272837
0.308389
0.351973
0.402165
0.455481
0.50694
0.551758
0.586367
0.609089
0.62024
0.621679
0.615994
0.605669
0.592656
0.578287
0.563368
0.54883
0.535995
0.526601
0.522524
0.525289
0.535562
0.553406
0.576703
0.600052
0.616707
0.62086
0.609595
0.584159
0.550018
0.515551
0.489737
0.479565
0.486056
0.505453
0.534913
0.569919
0.605097
0.63549
0.657629
0.670043
0.673321
0.66975
0.662627
0.655403
0.650851
0.650421
0.654014
0.660579
0.668529
0.676457
0.683782
0.691125
0.700303
0.713942
0.734874
0.765502
0.806986
0.859395
0.922298
0.995168
1.07763
1.17042
1.27632
1.3971
1.52394
1.63839
1.71864
1.74702
1.71696
1.63632
1.52551
1.41124
1.31737
1.25011
1.19994
1.15824
1.11484
1.05907
0.982737
0.882728
0.76212
0.629523
0.496808
0.375974
0.272532
0.187349
0.121468
0.073606
0.0404428
0.0175138
0
-0.0151796
-0.0496496
-0.0840364
0.36369
1.75863
4.36559
7.9442
11.6531
14.2978
14.8519
12.9722
9.19797
4.70664
0.771473
-1.76681
-2.74231
-2.55059
-1.81686
-1.06529
-0.542871
-0.236281
-0.0030633
0.229627
0.395572
0.528107
0.635591
0.72296
0.792903
0.848928
0.89548
0.937046
0.977444
1.01932
1.06415
1.11283
1.16576
1.22299
1.2843
1.34912
1.41657
1.48545
1.55446
1.62242
1.68845
1.75225
1.81408
1.87476
1.93554
1.99784
2.06315
2.1328
2.20795
2.28954
2.37837
2.47521
2.58088
2.69635
2.82275
2.96136
3.11351
3.28041
3.463
3.66164
3.87588
4.1042
4.34382
4.59061
4.83924
5.08327
5.31506
5.52717
5.71303
5.86675
5.98305
6.05866
6.09208
6.08245
6.02928
5.9325
5.79268
5.61128
5.39099
5.13579
4.85235
4.54887
4.23234
3.90907
3.58551
3.26797
2.96227
2.67338
2.40515
2.16013
1.93965
1.74391
1.57231
1.42365
1.29631
1.18838
1.09779
1.02205
0.957782
0.901289
0.849141
0.798795
0.749178
0.701263
0.658501
0.625803
0.607984
0.608064
0.626092
0.658919
0.701003
0.745935
0.788152
0.824826
0.855545
0.880949
0.902641
0.922454
0.941793
0.961158
0.980102
0.997229
1.0104
1.01719
1.01539
1.00345
0.980959
0.948969
0.910106
0.868467
0.829224
0.797806
0.779339
0.783361
0.823986
0.901072
0.992385
1.06978
1.1094
1.10052
1.04931
0.976282
0.90839
0.869021
0.863701
0.880552
0.914353
0.954125
0.988095
1.00699
1.00659
0.988683
0.960341
0.931557
0.912198
0.908258
0.919277
0.941901
0.972752
1.00861
1.04575
1.0804
1.10974
1.13232
1.14827
1.15909
1.16734
1.1761
1.18832
1.20644
1.23185
1.26481
1.30541
1.35369
1.40946
1.4723
1.54147
1.61582
1.69389
1.77401
1.85465
1.93463
2.01327
2.09038
2.16608
2.24053
2.31346
2.38375
2.44869
2.50374
2.54354
2.56217
2.55413
2.51532
2.44387
2.34079
2.21021
2.05924
1.89753
1.73537
1.58066
1.43897
1.31474
1.21024
1.12464
1.05442
0.99417
0.937192
0.876599
0.806461
0.722683
0.62359
0.510143
0.352724
0
0.149965
1.36113
4.00926
7.95696
12.3788
15.9399
17.3272
15.8889
12.0059
6.94542
2.26141
-0.905336
-2.22669
-2.11217
-1.29574
-0.421896
0.227321
0.609354
0.720306
0.780421
0.831533
0.87686
0.918145
0.957633
0.997807
1.04112
1.08972
1.14531
1.209
1.28132
1.36221
1.45097
1.54621
1.64583
1.74701
1.84526
1.93511
2.01129
2.06979
2.10883
2.12946
2.13571
2.13405
2.13252
2.13964
2.16199
2.20363
2.26732
2.35484
2.46658
2.60129
2.75631
2.92791
3.11161
3.30264
3.49625
3.68791
3.87352
4.04867
4.20961
4.35529
4.48703
4.60893
4.72774
4.85222
4.99174
5.15464
5.36667
5.66596
6.02315
6.3611
6.61378
6.74743
6.7614
6.67729
6.5261
6.33733
6.12889
5.90137
5.64828
5.36877
5.06589
4.7429
4.40292
4.05035
3.6915
3.33404
2.98608
2.6552
2.3477
2.06815
1.81922
1.60184
1.4155
1.25872
1.12947
1.02562
0.945139
0.886198
0.847315
0.828518
0.831561
0.854628
0.885772
0.911102
0.918431
0.901276
0.861337
0.808077
0.75524
0.715679
0.696701
0.692991
0.698783
0.709344
0.720016
0.727459
0.730354
0.729419
0.726812
0.725184
0.726543
0.731728
0.740414
0.750876
0.760702
0.767537
0.769754
0.766877
0.759657
0.749833
0.739696
0.731451
0.726626
0.726134
0.730094
0.73783
0.747594
0.75702
0.763598
0.76511
0.759962
0.74734
0.727184
0.700063
0.667029
0.62965
0.589717
0.549082
0.509629
0.473069
0.44096
0.414302
0.392268
0.372834
0.353717
0.33339
0.311891
0.291046
0.273989
0.264107
0.263823
0.272786
0.28993
0.311853
0.333625
0.350116
0.357147
0.352392
0.335912
0.310249
0.280111
0.251713
0.231912
0.226856
0.240629
0.274981
0.3302
0.406006
0.500669
0.610926
0.732631
0.860536
0.987138
1.10441
1.20503
1.28309
1.33448
1.357
1.35013
1.31484
1.2534
1.16925
1.06751
0.953964
0.834645
0.715367
0.601014
0.49517
0.400478
0.317998
0.247625
0.188512
0.139494
0.0993481
0.0668138
0.0406813
0.0193372
0
-0.0194917
-0.0431079
-0.0726311
-0.108181
-0.148815
-0.457794
-0.556818
0.0211938
1.72632
4.69496
8.49341
12.1171
14.3373
14.2514
11.7374
7.53808
2.92146
-0.882414
-3.15427
-3.84103
-3.38525
-2.39637
-1.3653
-0.546674
0.00525465
0.240048
0.228715
0.206343
0.181201
0.163729
0.164735
0.192038
0.246653
0.319883
0.403581
0.49281
0.583415
0.672261
0.757377
0.837702
0.912608
0.981459
1.04381
1.09942
1.14865
1.19278
1.23408
1.27557
1.32043
1.37132
1.42965
1.49541
1.56796
1.64608
1.72858
1.81483
1.90497
1.99983
2.10063
2.2085
2.32422
2.44806
2.58
2.71993
2.86797
3.02445
3.18972
3.36388
3.54654
3.73676
3.93309
4.13439
4.33989
4.54924
4.76317
4.98291
5.20299
5.40728
5.57449
5.68554
5.7297
5.70564
5.61734
5.46815
5.25759
4.99007
4.68039
4.34119
3.98254
3.61435
3.24666
2.88852
2.54824
2.23246
1.94549
1.68904
1.46231
1.26243
1.08525
0.926073
0.78045
0.644795
0.516733
0.395226
0.280481
0.17408
0.079137
-0.000980568
-0.0636315
-0.106874
-0.12991
-0.133316
-0.118975
-0.0897426
-0.0489717
-5.55038e-005
0.0535389
0.108957
0.163953
0.216357
0.264163
0.305586
0.339165
0.363853
0.37906
0.384669
0.381049
0.369093
0.350221
0.326375
0.299906
0.273328
0.248986
0.228684
0.213248
0.202853
0.197041
0.194874
0.195215
0.197001
0.199447
0.202155
0.205102
0.208534
0.212789
0.218127
0.224615
0.23198
0.239624
0.24675
0.252505
0.256104
0.256893
0.25437
0.248205
0.238312
0.225008
0.209137
0.192193
0.176265
0.163747
0.156867
0.157339
0.166121
0.182138
0.202129
0.221824
0.237001
0.244553
0.243294
0.23435
0.221077
0.208545
0.202719
0.208967
0.230965
0.270399
0.327116
0.399423
0.48438
0.578044
0.675771
0.773065
0.866184
0.952489
1.03047
1.09902
1.157
1.20344
1.2375
1.25774
1.26246
1.2501
1.2196
1.17068
1.10385
1.02044
0.923037
0.815741
0.70279
0.588436
0.477187
0.37352
0.28135
0.203423
0.14094
0.0934379
0.0591672
0.0351535
0.0169668
0
-0.0173349
-0.0395737
-0.0672535
-0.10524
-0.273818
-0.0510588
0.953393
3.00323
6.00394
9.36943
12.1183
13.2337
12.1379
9.01679
4.78137
0.663774
-2.3229
-3.75567
-3.82659
-3.07707
-2.0628
-1.14643
-0.480009
-0.0913627
0.00764596
0.0431494
0.0819777
0.124735
0.172782
0.22647
0.285338
0.348649
0.41579
0.486528
0.560988
0.639351
0.721439
0.806356
0.892314
0.976999
1.05786
1.13256
1.19949
1.25806
1.30882
1.35341
1.39429
1.43437
1.47663
1.52381
1.57812
1.64112
1.7137
1.79615
1.88825
1.98949
2.09924
2.217
2.34262
2.47639
2.61912
2.77192
2.93593
3.11187
3.29967
3.49825
3.70552
3.91873
4.13496
4.35168
4.56716
4.78057
4.99186
5.20207
5.41385
5.62993
5.84315
6.03208
6.16668
6.21256
6.14058
5.94176
5.63861
5.28146
4.92554
4.59865
4.28511
3.97461
3.6647
3.35525
3.04794
2.74623
2.45483
2.1789
1.92317
1.69112
1.48458
1.30359
1.14657
1.0108
0.892877
0.789355
0.697192
0.614189
0.539542
0.473813
0.418587
0.376053
0.348532
0.33768
0.343794
0.365382
0.399598
0.44201
0.4865
0.527318
0.56015
0.5828
0.595298
0.599504
0.598397
0.595336
0.593444
0.59494
0.601675
0.614894
0.635056
0.662387
0.695401
0.730406
0.762689
0.787409
0.800586
0.799929
0.785299
0.758738
0.724123
0.686591
0.65135
0.622532
0.603026
0.594245
0.597251
0.610532
0.630113
0.651215
0.669393
0.681539
0.686475
0.684959
0.67915
0.671698
0.664741
0.659064
0.654133
0.648107
0.638373
0.622356
0.598385
0.566371
0.52811
0.486993
0.447925
0.416077
0.395844
0.389997
0.399228
0.422157
0.455798
0.496336
0.540056
0.58418
0.627536
0.670393
0.714187
0.76109
0.813375
0.872739
0.939754
1.01353
1.09202
1.17251
1.25219
1.32899
1.40218
1.47271
1.54307
1.61735
1.70416
1.81982
1.96756
2.11896
2.23285
2.27173
2.21665
2.07392
1.87155
1.6486
1.44356
1.27609
1.13873
1.02308
0.926803
0.849172
0.787154
0.73648
0.692133
0.648864
0.601648
0.546043
0.478455
0.396345
0.298668
0.184687
0.0561918
-0.128572
-0.345848
0
1.32389
3.83842
7.32588
11.0443
13.8871
14.8057
13.3092
9.7555
5.23017
1.05722
-1.77441
-2.94584
-2.7619
-1.83456
-0.747619
0.128854
0.641351
0.731873
0.711649
0.696384
0.691199
0.700463
0.725762
0.76466
0.813409
0.869017
0.928884
0.991119
1.05485
1.12024
1.18825
1.26021
1.33729
1.42002
1.50798
1.59972
1.69259
1.78291
1.8664
1.93928
1.99946
2.04692
2.08406
2.11549
2.14739
2.18636
2.23813
2.30641
2.39164
2.49114
2.60228
2.72201
2.84819
2.98038
3.11996
3.26949
3.43162
3.60779
3.79744
3.99711
4.2025
4.40909
4.61272
4.81023
4.99969
5.18017
5.35022
5.50765
5.64996
5.77359
5.87387
5.94531
5.98247
5.98038
5.93477
5.84225
5.7008
5.51016
5.27242
4.99226
4.67692
4.33721
3.98462
3.62842
3.27663
2.93646
2.61403
2.31418
2.04042
1.79492
1.57862
1.39133
1.23189
1.09841
0.988515
0.899577
0.828937
0.774005
0.732306
0.701538
0.679447
0.663501
0.65094
0.639222
0.626336
0.611085
0.593251
0.573552
0.553392
0.534443
0.518169
0.505352
0.496097
0.48989
0.485645
0.482024
0.477862
0.472553
0.466328
0.460361
0.456663
0.457766
0.466219
0.483954
0.51268
0.553847
0.605174
0.65835
0.703477
0.731779
0.738083
0.722247
0.689022
0.646439
0.603326
0.566863
0.539196
0.519154
0.504912
0.494406
0.485069
0.474212
0.45952
0.439507
0.413905
0.383929
0.35216
0.323513
0.304101
0.299722
0.314305
0.354635
0.41879
0.492395
0.558088
0.601596
0.616439
0.605225
0.577206
0.543589
0.513058
0.488371
0.468476
0.453118
0.442334
0.436847
0.437977
0.447061
0.464756
0.491547
0.523871
0.555683
0.58069
0.594486
0.596205
0.589082
0.57977
0.576734
0.588268
0.618102
0.666017
0.731064
0.811561
0.904289
1.00491
1.10787
1.20726
1.29754
1.37408
1.43337
1.47303
1.49168
1.48864
1.46383
1.41779
1.35166
1.26743
1.1679
1.05664
0.937652
0.814941
0.692175
0.572307
0.457664
0.350269
0.251712
0.162692
0.0831998
0.0123641
-0.0516358
-0.111462
-0.17028
-0.231671
-0.298822
-0.373592
-0.509087
-0.53329
0
1.50722
4.21054
7.85995
11.6219
14.2931
14.8077
12.7833
8.7742
4.04972
0.00614505
-2.44733
-3.18607
-2.73104
-1.82916
-1.04802
-0.598013
-0.407154
-0.298175
-0.185139
-0.0815185
0.014391
0.102443
0.182938
0.25709
0.326345
0.391969
0.454507
0.513306
0.566248
0.610073
0.642105
0.662095
0.673375
0.682725
0.698902
0.730307
0.782436
0.853324
0.93857
1.03409
1.13572
1.2393
1.34132
1.43943
1.53266
1.62135
1.70681
1.79097
1.87594
1.96381
2.05655
2.15609
2.26439
2.38349
2.51537
2.66169
2.82338
3.00025
3.19084
3.39237
3.60106
3.81258
4.02252
4.22685
4.42218
4.60578
4.77568
4.93061
5.06927
5.18929
5.28633
5.35548
5.39288
5.39367
5.35273
5.26572
5.13011
4.94585
4.71567
4.44495
4.14357
3.82402
3.49564
3.16604
2.8426
2.53207
2.24003
1.97064
1.7264
1.50832
1.3161
1.14853
1.00386
0.880262
0.775919
0.689052
0.618172
0.56211
0.519938
0.49077
0.474769
0.472191
0.480225
0.49299
0.503929
0.507386
0.500171
0.482457
0.457606
0.430988
0.408303
0.393476
0.387435
0.389798
0.400094
0.417443
0.440545
0.46808
0.498358
0.528532
0.555529
0.576946
0.591881
0.601469
0.608733
0.617643
0.631679
0.652838
0.679873
0.708324
0.731943
0.744547
0.74185
0.722768
0.689927
0.649295
0.608991
0.577103
0.559356
0.560644
0.583463
0.619424
0.656106
0.681379
0.687643
0.674418
0.648326
0.620619
0.603195
0.603598
0.622706
0.660322
0.704808
0.740974
0.755124
0.739788
0.696514
0.635646
0.57305
0.524865
0.501389
0.499497
0.512252
0.535423
0.564471
0.594925
0.623141
0.646677
0.66431
0.675822
0.681745
0.683322
0.682296
0.681188
0.683421
0.693267
0.715506
0.7548
0.814783
0.897136
1.00149
1.12492
1.2621
1.40611
1.54877
1.68204
1.79924
1.89581
1.96959
2.02052
2.04994
2.05964
2.05097
2.02455
1.97958
1.91455
1.82819
1.72053
1.59384
1.45311
1.30578
1.16079
1.02759
0.91804
0.840537
0.792212
0.763922
0.743363
0.718554
0.680458
0.624099
0.548277
0.454463
0.345909
0.227417
0.103047
-0.0278301
-0.18215
0
0.98154
3.17446
6.60129
10.6417
14.1118
15.7296
14.7474
11.3728
6.70002
2.18382
-1.0236
-2.49423
-2.51806
-1.7647
-0.888601
-0.250337
0.0801626
0.221757
0.366937
0.502229
0.624234
0.72675
0.805739
0.860702
0.895297
0.916705
0.933763
0.954526
0.9842
1.02278
1.06778
1.11721
1.16924
1.22248
1.27622
1.3305
1.38593
1.44351
1.50437
1.56977
1.64102
1.7193
1.80543
1.89961
2.0011
2.10815
2.21822
2.32788
2.43355
2.53269
2.62472
2.71154
2.79746
2.88854
2.99147
3.11216
3.25457
3.41899
3.6028
3.80236
4.01346
4.23161
4.45257
4.67277
4.88929
5.09965
5.30112
5.4904
5.66317
5.81365
5.93549
6.02402
6.07478
6.08375
6.04753
5.96361
5.83066
5.64884
5.42013
5.1492
4.84582
4.52033
4.18147
3.83668
3.49324
3.15857
2.83986
2.54358
2.27495
2.03801
1.83453
1.66349
1.52186
1.40531
1.30898
1.22827
1.15949
1.10011
1.04873
1.0047
0.967861
0.938253
0.915665
0.899441
0.888503
0.881498
0.876999
0.873752
0.870882
0.867973
0.864994
0.862108
0.859428
0.856804
0.853669
0.849255
0.843045
0.835282
0.827262
0.82122
0.819749
0.825093
0.839352
0.860706
0.883719
0.901646
0.908816
0.902718
0.884971
0.860851
0.83762
0.822301
0.818461
0.825564
0.841729
0.864672
0.890777
0.915663
0.934895
0.945045
0.944284
0.93275
0.912553
0.887346
0.861511
0.839125
0.822994
0.814378
0.812283
0.814408
0.81821
0.821925
0.825131
0.828677
0.834077
0.842672
0.854657
0.869136
0.884757
0.899615
0.91148
0.917976
0.9171
0.907544
0.88898
0.862329
0.829387
0.794083
0.762148
0.739666
0.731904
0.742265
0.771669
0.818567
0.879563
0.950432
1.02707
1.1063
1.18638
1.2665
1.34627
1.42522
1.5026
1.57716
1.64724
1.71097
1.76648
1.81207
1.84633
1.86813
1.87647
1.87038
1.84885
1.81092
1.75592
1.68373
1.59515
1.49214
1.37788
1.25655
1.13295
1.012
0.898205
0.795146
0.705177
0.629305
0.567265
0.517761
0.478954
0.448622
0.423941
0.402371
0.381957
0.361492
0.34019
0.0419016
0
0.725836
2.66155
5.85396
9.74718
13.2527
15.145
14.614
11.6781
7.20887
2.54239
-1.10461
-3.09229
-3.47674
-2.80018
-1.73495
-0.785808
-0.169901
0.141596
0.27922
0.375372
0.466086
0.553484
0.638248
0.721547
0.804682
0.888588
0.973353
1.05795
1.14023
1.21733
1.28627
1.34472
1.39156
1.42719
1.45359
1.47395
1.49225
1.51261
1.53865
1.57316
1.61781
1.67312
1.73847
1.81238
1.89285
1.97774
2.06518
2.15394
2.24368
2.335
2.42933
2.52864
2.63502
2.75028
2.87559
3.0113
3.15703
3.31184
3.47455
3.64403
3.81933
3.99964
4.18409
4.37148
4.56003
4.74726
4.92981
5.10336
5.26321
5.40472
5.5228
5.61126
5.66378
5.67621
5.64443
5.56481
5.43494
5.25443
5.02547
4.75285
4.4436
4.10787
3.75778
3.40207
3.04798
2.70264
2.37282
2.06454
1.78264
1.53045
1.30958
1.11991
0.959862
0.826815
0.717561
0.628752
0.557175
0.49991
0.454433
0.418331
0.388902
0.363372
0.339195
0.314302
0.287338
0.257805
0.226077
0.193312
0.161314
0.132335
0.109274
0.0958122
0.095066
0.109457
0.139987
0.185588
0.243115
0.307109
0.370141
0.424806
0.4652
0.487946
0.492501
0.480744
0.456146
0.422883
0.385561
0.347975
0.31347
0.285267
0.266062
0.257712
0.260801
0.274391
0.2963
0.322203
0.347109
0.366343
0.376432
0.375671
0.364273
0.344169
0.318571
0.291464
0.266648
0.247412
0.236145
0.233905
0.24142
0.256341
0.274787
0.292614
0.306542
0.314936
0.317943
0.316991
0.31389
0.309987
0.305758
0.300973
0.295215
0.288437
0.281431
0.276036
0.274985
0.281423
0.298234
0.327199
0.368525
0.420966
0.482479
0.550504
0.622359
0.695704
0.768864
0.840851
0.911163
0.979405
1.04487
1.10607
1.16035
1.20394
1.23258
1.2418
1.22767
1.18744
1.12023
1.02753
0.913469
0.784714
0.649887
0.518044
0.396445
0.290949
0.208202
0.149653
0.110328
0.0823399
0.0570688
0.0272145
-0.0119039
-0.0620498
-0.122625
-0.191646
-0.266269
-0.343863
-0.43677
-0.428896
0
1.24287
3.54674
6.747
10.1379
12.6429
13.26
11.5637
7.96307
3.54281
-0.430445
-3.05161
-4.06999
-3.8171
-2.88901
-1.81771
-0.91104
-0.273039
0.0881737
0.108581
0.11851
0.131245
0.150929
0.180964
0.223017
0.27621
0.33761
0.403868
0.471293
0.536365
0.596362
0.649714
0.69608
0.736162
0.771372
0.803454
0.83419
0.865244
0.898117
0.934216
0.974884
1.02137
1.07473
1.13567
1.20447
1.28096
1.36468
1.4552
1.55228
1.65607
1.76713
1.88633
2.01465
2.15298
2.30192
2.46163
2.63179
2.81157
2.99967
3.19437
3.39368
3.59556
3.79812
3.99987
4.1998
4.39737
4.5922
4.78385
4.97114
5.15028
5.31221
5.44435
5.53134
5.5587
5.51661
5.40282
5.22311
4.98913
4.71437
4.41195
4.09469
3.77059
3.44387
3.11725
2.79364
2.47638
2.16914
1.87575
1.59985
1.34464
1.11251
0.904906
0.722116
0.563347
0.426847
0.310188
0.210645
0.125623
0.0530575
-0.00826247
-0.0581346
-0.0954496
-0.119082
-0.128093
-0.122208
-0.0999444
-0.0649212
-0.024398
0.0140312
0.0447308
0.0657349
0.0791431
0.0900061
0.104141
0.125741
0.15473
0.188976
0.224206
0.255227
0.277398
0.287853
0.286121
0.274049
0.255126
0.233528
0.213204
0.197001
0.186569
0.183053
0.187672
0.201508
0.225435
0.259853
0.304966
0.360724
0.423495
0.486065
0.540302
0.578959
0.597299
0.593983
0.571018
0.532894
0.485348
0.434348
0.384674
0.339396
0.300746
0.270574
0.250038
0.239598
0.239009
0.247385
0.263368
0.285357
0.311733
0.340973
0.37155
0.401855
0.429543
0.450879
0.461598
0.457371
0.435101
0.394393
0.333769
0.264324
0.20465
0.174066
0.186577
0.246416
0.34696
0.473436
0.608252
0.736787
0.854992
0.964632
1.06717
1.16504
1.26107
1.35813
1.45798
1.5582
1.65017
1.72145
1.75864
1.75027
1.68915
1.57425
1.41172
1.21508
1.00406
0.801207
0.622106
0.481507
0.426466
0.464518
0.549972
0.622369
0.631898
0.559349
0.420866
0.255659
0.104354
-0.00948372
-0.0990079
-0.178715
-0.253673
-0.325555
-0.389032
0
1.24221
3.58297
6.86707
10.4097
13.1421
14.0344
12.5996
9.17821
4.81485
0.783709
-1.96403
-3.12663
-3.01419
-2.23865
-1.35764
-0.673205
-0.238306
0.00955482
0.104555
0.17263
0.233914
0.291451
0.346652
0.401202
0.457074
0.516184
0.579991
0.649143
0.723263
0.800959
0.880035
0.957904
1.03199
1.09967
1.15872
1.20868
1.25037
1.28593
1.31861
1.35244
1.39158
1.43959
1.4987
1.56907
1.64871
1.73557
1.8278
1.924
2.02366
2.12731
2.23643
2.35304
2.47923
2.61664
2.76613
2.92758
3.10002
3.28174
3.47049
3.66375
3.85888
4.0533
4.24464
4.43089
4.61057
4.78299
4.94831
5.10744
5.26156
5.41473
5.6014
5.9067
6.28532
6.62299
6.78922
6.70196
6.36854
5.87578
5.33708
4.83736
4.40038
3.99773
3.6126
3.24328
2.8932
2.56555
2.26325
1.98889
1.74457
1.53172
1.35132
1.20482
1.09184
1.00751
0.944885
0.896434
0.855334
0.816533
0.777362
0.737515
0.698444
0.662397
0.631192
0.605557
0.585538
0.57046
0.559202
0.550629
0.543978
0.539063
0.536274
0.5364
0.540331
0.548774
0.562128
0.580475
0.603638
0.63119
0.662463
0.696585
0.732205
0.767127
0.798307
0.822303
0.835804
0.83633
0.82293
0.796654
0.760661
0.719891
0.680335
0.647927
0.627023
0.619691
0.627214
0.65013
0.686095
0.728852
0.769993
0.801445
0.817028
0.813618
0.79168
0.755044
0.709969
0.663676
0.622615
0.590486
0.568065
0.55449
0.548896
0.55006
0.556894
0.568778
0.585582
0.607397
0.634446
0.666627
0.701419
0.733855
0.758583
0.771742
0.7725
0.763532
0.750156
0.738493
0.733406
0.736271
0.745134
0.758292
0.773734
0.789525
0.80488
0.82069
0.839624
0.865745
0.903691
0.957591
1.02998
1.12104
1.22698
1.34279
1.46334
173
383
597
812
1023
1228
1435
1647
1862
2077
2287
2499
2717
2936
3153
3362
3572
3450
3608
3194
3357
3523
3688
3471
3612
0
0
0
0
0
0
0
0
0
0
0
0
0
0
0
0
0
0
0
0
0
0
0
0
0
0
0
0
0
0
0
0
0
0
0
0
0
0
0
0
0
0
0
0
0
0
0
0
0
0
0
0
0
0
0
0
0
0
0
0
0
0
0
0
0
0
0
0
0
0
0
0
0
0
0
0
0
0
0
0
0
0
0
0
0
0
0
0
0
0
0
0
0
0
0
0
0
0
0
0
0
0
0
0
0
0
0
0
0
0
0
0
0
0
0
0
0
0
0
0
0
0
0
0
0
0
0
0
0
0
0
0
0
0
0
0
0
0
0
0
0
0
0
0
0
0
0
0
0
0
0
0
0
0
0
0
0
0
0
0
0
0
0
0
0
0
0
0
0
0
0
0
0
0
0
0
0
0
0
0
0
0
0
0
0
0
0
0
0
0
0
0
0
0
0
0
0
0
0
0
0
0
0
0
0
0
0
0
0
0
0
0
0
0
0
0
0
0
0
0
0
0
0
0
0
0
0
0
0
0
0
0
0
0
0
0
0
0
0
0
0
0
0
0
0
0
0
0
0
0
0
0
0
0
0
0
0
0
0
0
0
0
0
0
0
0
0
0
0
0
0
0
0
0
0
0
0
0
0
0
0
0
0
0
0
0
0
0
0
0
0
0
0
0
0
0
0
0
0
0
0
0
0
0
0
0
0
0
0
0
0
0
0
0
0
0
0
0
0
0
0
0
0
0
0
0
0
0
0
0
0
0
0
0
0
0
0
0
0
0
0
0
0
0
0
0
0
0
0
0
0
0
0
0
0
0
0
0
0
0
0
0
0
0
0
0
0
0
0
0
0
0
0
0
0
0
0
0
0
0
0
0
0
0
0
0
0
0
0
0
0
0
0
0
0
0
0
0
0
0
0
0
0
0
0
0
0
0
0
0
0
0
0
0
0
0
0
0
0
0
0
0
0
0
0
0
0
0
0
0
0
0
0
0
0
0
0
0
0
0
0
0
0
0
0
0
0
0
0
0
0
0
0
0
0
0
0
0
0
0
0
0
0
0
0
0
0
0
0
0
0
0
0
0
0
0
0
0
0
0
0
0
0
0
0
0
0
0
0
0
0
0
0
0
0
0
0
0
0
0
0
0
0
0
0
0
0
0
0
0
0
0
0
0
0
0
0
0
0
0
0
0
0
0
0
0
0
0
0
0
0
0
0
0
0
0
0
0
0
0
0
0
0
0
0
0
0
0
0
0
0
0
0
0
0
0
0
0
0
0
0
0
0
0
0
0
0
0
0
0
0
0
0
0
0
0
0
0
0
0
0
0
0
0
0
0
0
0
0
0
0
0
0
0
0
0
0
0
0
0
0
0
0
0
0
0
0
0
0
0
0
0
0
0
0
0
0
0
0
0
0
0
0
0
0
0
0
0
0
0
0
0
0
0
0
0
0
0
0
0
0
0
0
0
0
0
0
0
0
0
0
0
0
0
0
0
0
0
0
0
0
0
0
0
0
0
0
0
0
0
0
0
0
0
0
0
0
0
0
0
0
0
0
0
0
0
0
0
0
0
0
0
0
0
0
0
0
0
0
0
0
0
0
0
0
0
0
0
0
0
0
0
0
0
0
0
0
0
0
0
0
0
0
0
0
0
0
0
0
0
0
0
0
0
0
0
0
0
0
0
0
0
0
0
0
0
0
0
0
0
0
0
0
0
0
0
0
0
0
0
0
0
0
0
0
0
0
0
0
0
0
0
0
0
0
0
0
0
0
0
0
0
0
0
0
0
0
0
0
0
0
0
0
0
0
0
0
0
0
0
0
0
0
0
0
0
0
0
0
0
0
0
0
0
0
0
0
0
0
0
0
0
0
0
0
0
0
0
0
0
0
0
0
0
0
0
0
0
0
0
0
0
0
0
0
0
0
0
0
0
0
0
0
0
0
0
0
0
0
0
0
0
0
0
0
0
0
0
0
0
0
0
0
0
0
0
0
0
0
0
0
0
0
0
0
0
0
0
0
0
0
0
0
0
0
0
0
0
0
0
0
0
0
0
0
0
0
0
0
0
0
0
0
0
0
0
0
0
0
0
0
0
0
0
0
0
0
0
0
0
0
0
0
0
0
0
0
0
0
0
0
0
0
0
0
0
0
0
0
0
0
0
0
0
0
0
0
0
0
0
0
0
0
0
0
0
0
0
0
0
0
0
0
0
0
0
0
0
0
0
0
0
0
0
0
0
0
0
0
0
0
0
0
0
0
0
0
0
0
0
0
0
0
0
0
0
0
0
0
0
0
0
0
0
0
0
0
0
0
0
0
0
0
0
0
0
0
0
0
0
0
0
0
0
0
0
0
0
0
0
0
0
0
0
0
0
0
0
0
0
0
0
0
0
0
0
0
0
0
0
0
0
0
0
0
0
0
0
0
0
0
0
0
0
0
0
0
0
0
0
0
0
0
0
0
0
0
0
0
0
0
0
0
0
0
0
0
0
0
0
0
0
0
0
0
0
0
0
0
0
0
0
0
0
0
0
0
0
0
0
0
0
0
0
0
0
0
0
0
0
0
0
0
0
0
0
0
0
0
0
0
0
0
0
0
0
0
0
0
0
0
0
0
0
0
0
0
0
0
0
0
0
0
0
0
0
0
0
0
0
0
0
0
0
0
0
0
0
0
0
0
0
0
0
0
0
0
0
0
0
0
0
0
0
0
0
0
0
0
0
0
0
0
0
0
0
0
0
0
0
0
0
0
0
0
0
0
0
0
0
0
0
0
0
0
0
0
0
0
0
0
0
0
0
0
0
0
0
0
0
0
0
0
0
0
0
0
0
0
0
0
0
0
0
0
0
0
0
0
0
0
0
0
0
0
0
0
0
0
0
0
0
0
0
0
0
0
0
0
0
0
0
0
0
0
0
0
0
0
0
0
0
0
0
0
0
0
0
0
0
0
0
0
0
0
0
0
0
0
0
0
0
0
0
0
0
0
0
0
0
0
0
0
0
0
0
0
0
0
0
0
0
0
0
0
0
0
0
0
0
0
0
0
0
0
0
0
0
0
0
0
0
0
0
0
0
0
0
0
0
0
0
0
0
0
0
0
0
0
0
0
0
0
0
0
0
0
0
0
0
0
0
0
0
0
0
0
0
0
0
0
0
0
0
0
0
0
0
0
0
0
0
0
0
0
0
0
0
0
0
0
0
0
0
0
0
0
0
0
0
0
0
0
0
0
0
0
0
0
0
0
0
0
0
0
0
0
0
0
0
0
0
0
0
0
0
0
0
0
0
0
0
0
0
0
0
0
0
0
0
0
0
0
0
0
0
0
0
0
0
0
0
0
0
0
0
0
0
0
0
0
0
0
0
0
0
0
0
0
0
0
0
0
0
0
0
0
0
0
0
0
0
0
0
0
0
0
0
0
0
0
0
0
0
0
0
0
0
0
0
0
0
0
0
0
0
0
0
0
0
0
0
0
0
0
0
0
0
0
0
0
0
0
0
0
0
0
0
0
0
0
0
0
0
0
0
0
0
0
0
0
0
0
0
0
0
0
0
0
0
0
0
0
0
0
0
0
0
0
0
0
0
0
0
0
0
0
0
0
0
0
0
0
0
0
0
0
0
0
0
0
0
0
0
0
0
0
0
0
0
0
0
0
0
0
0
0
0
0
0
0
0
0
0
0
0
0
0
0
0
0
0
0
0
0
0
0
0
0
0
0
0
0
0
0
0
0
0
0
0
0
0
0
0
0
0
0
0
0
0
0
0
0
0
0
0
0
0
0
0
0
0
0
0
0
0
0
0
0
0
0
0
0
0
0
0
0
0
0
0
0
0
0
0
0
0
0
0
0
0
0
0
0
0
0
0
0
0
0
0
0
0
0
0
0
0
0
0
0
0
0
0
0
0
0
0
0
0
0
0
0
0
0
0
0
0
0
0
0
0
0
0
0
0
0
0
0
0
0
0
0
0
0
0
0
0
0
0
0
0
0
0
0
0
0
0
0
0
0
0
0
0
0
0
0
0
0
0
0
0
0
0
0
0
0
0
0
0
0
0
0
0
0
0
0
0
0
0
0
0
0
0
0
0
0
0
0
0
0
0
0
0
0
0
0
0
0
0
0
0
0
0
0
0
0
0
0
0
0
0
0
0
0
0
0
0
0
0
0
0
0
0
0
0
0
0
0
0
0
0
0
0
0
0
0
0
0
0
0
0
0
0
0
0
0
0
0
0
0
0
0
0
0
0
0
0
0
0
0
0
0
0
0
0
0
0
0
0
0
0
0
0
0
0
0
0
0
0
0
0
0
0
0
0
0
0
0
0
0
0
0
0
0
0
0
0
0
0
0
0
0
0
0
0
0
0
0
0
0
0
0
0
0
0
0
0
0
0
0
0
0
0
0
0
0
0
0
0
0
0
0
0
0
0
0
0
0
0
0
0
0
0
0
0
0
0
0
0
0
0
0
0
0
0
0
0
0
0
0
0
0
0
0
0
0
0
0
0
0
0
0
0
0
0
0
0
0
0
0
0
0
0
0
0
0
0
0
0
0
0
0
0
0
0
0
0
0
0
0
0
0
0
0
0
0
0
0
0
0
0
0
0
0
0
0
0
0
0
0
0
0
0
0
0
0
0
0
0
0
0
0
0
0
0
0
0
0
0
0
0
0
0
0
0
0
0
0
0
0
0
0
0
0
0
0
0
0
0
0
0
0
0
0
0
0
0
0
0
0
0
0
0
0
0
0
0
0
0
0
0
0
0
0
0
0
0
0
0
0
0
0
0
0
0
0
0
0
0
0
0
0
0
0
0
0
0
0
0
0
0
0
0
0
0
0
0
0
0
0
0
0
0
0
0
0
0
0
0
0
0
0
0
0
0
0
0
0
0
0
0
0
0
0
0
0
0
0
0
0
0
0
0
0
0
0
0
0
0
0
0
0
0
0
0
0
0
0
0
0
0
0
0
0
0
0
0
0
0
0
0
0
0
0
0
0
0
0
0
0
0
0
0
0
0
0
0
0
0
0
0
0
0
0
0
0
0
0
0
0
0
0
0
0
0
0
0
0
0
0
0
0
0
0
0
0
0
0
0
0
0
0
0
0
0
0
0
0
0
0
0
0
0
0
0
0
0
0
0
0
0
0
0
0
0
0
0
0
0
0
0
0
0
0
0
0
0
0
0
0
0
0
0
0
0
0
0
0
0
0
0
0
0
0
0
0
0
0
0
0
0
0
0
0
0
0
0
0
0
0
0
0
0
0
0
0
0
0
0
0
0
0
0
0
0
0
0
0
0
0
0
0
0
0
0
0
0
0
0
0
0
0
0
0
0
0
0
0
0
0
0
0
0
0
0
0
0
0
0
0
0
0
0
0
0
0
0
0
0
0
0
0
0
0
0
0
0
0
0
0
0
0
0
0
0
0
0
0
0
0
0
0
0
0
0
0
0
0
0
0
0
0
0
0
0
0
0
0
0
0
0
0
0
0
0
0
0
0
0
0
0
0
0
0
0
0
0
0
0
0
0
0
0
0
0
0
0
0
0
0
0
0
0
0
0
0
0
0
0
0
0
0
0
0
0
0
0
0
0
0
0
0
0
0
0
0
0
0
0
0
0
0
0
0
0
0
0
0
0
0
0
0
0
0
0
0
0
0
0
0
0
0
0
0
0
0
0
0
0
0
0
0
0
0
0
0
0
0
0
0
0
0
0
0
0
0
0
0
0
0
0
0
0
0
0
0
0
0
0
0
0
0
0
0
0
0
0
0
0
0
0
0
0
0
0
0
0
0
0
0
0
0
0
0
0
0
0
0
0
0
0
0
0
0
0
0
0
0
0
0
0
0
0
0
0
0
0
0
0
0
0
0
0
0
0
0
0
0
0
0
0
0
0
0
0
0
0
0
0
0
0
0
0
0
0
0
0
0
0
0
0
0
0
0
0
0
0
0
0
0
0
0
0
0
0
0
0
0
0
0
0
0
0
0
0
0
0
0
0
0
0
0
0
0
0
0
0
0
0
0
0
0
0
0
0
0
0
0
0
0
0
0
0
0
0
0
0
0
0
0
0
0
0
0
0
0
0
0
0
0
0
0
0
0
0
0
0
0
0
0
0
0
0
0
0
0
0
0
0
0
0
0
0
0
0
0
0
0
0
0
0
0
0
0
0
0
0
0
0
0
0
0
0
0
0
0
0
0
0
0
0
0
0
0
0
0
0
0
0
0
0
0
0
0
0
0
0
0
0
0
0
0
0
0
0
0
0
0
0
0
0
0
0
0
0
0
0
0
0
0
0
0
0
0
0
0
0
0
0
0
0
0
0
0
0
0
0
0
0
0
0
0
0
0
0
0
0
0
0
0
0
0
0
0
0
0
0
0
0
0
0
0
0
0
0
0
0
0
0
0
0
0
0
0
0
0
0
0
0
0
0
0
0
0
0
0
0
0
0
0
0
0
0
0
0
0
0
0
0
0
0
0
0
0
0
0
0
0
0
0
0
0
0
0
0
0
0
0
0
0
0
0
0
0
0
0
0
0
0
0
0
0
0
0
0
0
0
0
0
0
0
0
0
0
0
0
0
0
0
0
0
0
0
0
0
0
0
0
0
0
0
0
0
0
0
0
0
0
0
0
0
0
0
0
0
0
0
0
0
0
0
0
0
0
0
0
0
0
0
0
0
0
0
0
0
0
0
0
0
0
0
0
0
0
0
0
0
0
0
0
0
0
0
0
0
0
0
0
0
0
0
0
0
0
0
0
0
0
0
0
0
0
0
0
0
0
0
0
0
0
0
0
0
0
0
0
0
0
0
0
0
0
0
0
0
0
0
0
0
0
0
0
0
0
0
0
0
0
0
0
0
0
0
0
0
0
0
0
0
0
0
0
0
0
0
0
0
0
0
0
0
0
0
0
0
0
0
0
0
0
0
0
0
0
0
0
0
0
0
0
0
0
0
0
0
0
0
0
0
0
0
0
0
0
0
0
0
0
0
0
0
0
0
0
0
0
0
0
0
0
0
0
0
0
0
0
0
0
0
0
0
0
0
0
0
0
0
0
0
0
0
0
0
0
0
0
0
0
0
0
0
0
0
0
0
0
0
0
0
0
0
0
0
0
0
0
0
0
0
0
0
0
0
0
0
0
0
0
0
0
0
0
0
0
0
0
0
0
0
0
0
0
0
0
0
0
0
0
0
0
0
0
0
0
0
0
0
0
0
0
0
0
0
0
0
0
0
0
0
0
0
0
0
0
0
0
0
0
0
0
0
0
0
0
0
0
0
0
0
0
0
0
0
0
0
0
0
0
0
0
0
0
0
0
0
0
0
0
0
0
0
0
0
0
0
0
0
0
0
0
0
0
0
0
0
0
0
0
0
0
0
0
0
0
0
0
0
0
0
0
0
0
0
0
0
0
0
0
0
0
0
0
0
0
0
0
0
0
0
0
0
0
0
0
0
0
0
0
0
0
0
0
0
0
0
0
0
0
0
0
0
0
0
0
0
0
0
0
0
0
0
0
0
0
0
0
0
0
0
0
0
0
0
0
0
0
0
0
0
0
0
0
0
0
0
0
0
0
0
0
0
0
0
0
0
0
0
0
0
0
0
0
0
0
0
0
0
0
0
0
0
0
0
0
0
0
0
0
0
0
0
0
0
0
0
0
0
0
0
0
0
0
0
0
0
0
0
0
0
0
0
0
0
0
0
0
0
0
0
0
0
0
0
0
0
0
0
0
0
0
0
0
0
0
0
0
0
0
0
0
0
0
0
0
0
0
0
0
0
0
0
0
0
0
0
0
0
0
0
0
0
0
0
0
0
0
0
0
0
0
0
0
0
0
0
0
0
0
0
0
0
0
0
0
0
0
0
0
0
0
0
0
0
0
0
0
0
0
0
0
0
0
0
0
0
0
0
0
0
0
0
0
0
0
0
0
0
0
0
0
0
0
0
0
0
0
0
0
0
0
0
0
0
0
0
0
0
0
0
0
0
0
0
0
0
0
0
0
0
0
0
0
0
0
0
0
0
0
0
0
0
0
0
0
0
0
0
0
0
0
0
0
0
0
0
0
0
0
0
0
0
0
0
0
0
0
0
0
0
0
0
0
0
0
0
0
0
0
0
0
0
0
0
0
0
0
0
0
0
0
0
0
0
0
0
0
0
0
0
0
0
0
0
0
0
0
0
0
0
0
0
0
0
0
0
0
0
0
0
0
0
0
0
0
0
0
0
0
0
0
0
0
0
0
0
0
0
0
0
0
0
0
0
0
0
0
0
0
0
0
0
0
0
0
0
0
0
0
0
0
0
0
0
0
0
0
0
0
0
0
0
0
0
0
0
0
0
0
0
0
0
0
0
0
0
0
0
0
0
0
0
0
0
0
0
0
0
0
0
0
0
0
0
0
0
0
0
0
0
0
0
0
0
0
0
0
0
0
0
