-0.218351
-0.246308
-0.291676
-0.325951
-0.318927
-0.242632
-0.124657
-0.0204494
0.0163126
-0.0375131
-0.161145
-0.297536
-0.377616
-0.34991
-0.232746
-0.032105
0.204738
0.418905
0.559853
0.601771
0.550467
0.438424
0.310407
0.206076
0.145634
0.116128
0.104571
0.10576
0.116694
0.135149
0.159765
0.189777
0.224652
0.263859
0.306981
0.354005
0.405676
0.463669
0.530409
0.608519
0.700092
0.806021
0.925306
1.0556
1.19429
1.33886
1.48743
1.63914
1.79433
1.95471
2.12385
2.30608
2.49493
2.66417
2.77759
2.80108
2.71687
2.53297
2.28194
2.00829
1.75164
1.52978
1.33376
1.1554
0.992854
0.846329
0.716241
0.603132
0.507671
0.430691
0.373127
0.335846
0.320226
0.331283
0.375551
0.446093
0.521438
0.576003
0.58758
0.544448
0.44878
0.315023
0.164512
0.0190834
0
0.6596
2.04118
4.23148
7.03334
9.9002
12.0635
12.8387
11.9604
9.74273
6.93923
4.36887
2.53714
1.48008
0.90012
0.506626
0.330427
0.180424
0.0989352
0.151084
0.304802
0.480725
0.592732
0.583432
0.446076
0.225366
-0.00116696
-0.153181
-0.178683
-0.122823
-0.0302128
0.0795001
0.195954
0.310782
0.417483
0.511971
0.592658
0.659983
0.716037
0.764425
0.809424
0.855515
0.906957
0.967329
1.03906
1.12304
1.21845
1.3228
1.43272
1.54487
1.65641
1.76546
1.87122
1.9737
2.07323
2.1698
2.26239
2.34851
2.4245
2.48622
2.52971
2.55198
2.55149
2.52822
2.48335
2.41877
2.33657
2.23935
2.12967
2.00971
1.88157
1.74767
1.61072
1.47357
1.33898
1.20932
1.08651
0.971899
0.866393
0.770649
0.685313
0.610976
0.54797
0.496459
0.456288
0.426833
0.406949
0.395016
0.389097
0.387127
0.387087
0.387144
0.385685
0.381328
0.372952
0.359787
0.341561
0.318694
0.292473
0.265153
0.239893
0.220504
0.210997
0.21499
0.23508
0.272313
0.325872
0.393095
0.470084
0.551269
0.628117
0.69111
0.732501
0.747684
0.736366
0.703
0.656155
0.60682
0.566068
0.542751
0.538585
0.551254
0.578376
0.617151
0.664035
0.714573
0.764356
0.810118
0.85046
0.886285
0.92081
0.959079
1.00703
1.0703
1.15277
1.25541
1.3766
1.51261
1.65796
1.80595
1.94922
2.08038
2.19255
2.28001
2.33849
2.36505
2.35782
2.31606
2.24037
2.13298
1.99796
1.84133
1.67062
1.49436
1.32079
1.15651
1.00607
0.872149
0.755123
0.653418
0.56402
0.483051
0.406974
0.333465
0.262072
0.194598
0.134422
0.08531
0.0497562
0.0277065
0.0160107
0.0090168
0
-0.0188381
-0.0494267
-0.131347
-0.111397
0.662461
2.41731
5.04722
8.03766
10.562
11.7754
11.1989
8.98543
5.87965
2.86534
0.7028
-0.365703
-0.587134
-0.470055
-0.416908
-0.368179
-0.323638
-0.282848
-0.244997
-0.209427
-0.175468
-0.142417
-0.109592
-0.0764519
-0.0427563
-0.00869102
0.0248573
0.056588
0.0854298
0.111269
0.135405
0.160435
0.189518
0.225296
0.268951
0.319283
0.373871
0.430526
0.487387
0.543356
0.59837
0.653333
0.709801
0.769502
0.833871
0.903762
0.979296
1.05993
1.14458
1.23187
1.32042
1.40895
1.49626
1.58108
1.66201
1.7377
1.80679
1.86789
1.91942
1.95896
1.97993
1.97641
1.94196
1.87118
1.76226
1.61903
1.45136
1.27328
1.09931
0.940453
0.797387
0.669203
0.551335
0.437426
0.321584
0.200348
0.0738556
-0.0540493
-0.176718
-0.286475
-0.377422
-0.44505
-0.487122
-0.504359
-0.499253
-0.476073
-0.442364
-0.406903
-0.376841
-0.356433
-0.346505
-0.344754
-0.346881
-0.348177
-0.345087
-0.336512
-0.323741
-0.308594
-0.293098
-0.278477
-0.264304
-0.248092
-0.225428
-0.18965
-0.122543
0.0122341
0.208297
0.413215
0.558155
0.589793
0.496659
0.314912
0.111396
-0.0448074
-0.106724
-0.0998257
-0.056197
0.0110943
0.0962746
0.194677
0.301908
0.414216
0.528643
0.64294
0.755279
0.863731
0.965524
1.05771
1.13773
1.20417
1.25785
1.30262
1.34544
1.40207
1.55002
1.89271
2.34056
2.71847
2.85809
2.68483
2.25646
1.73234
1.29126
1.04043
0.893038
0.771215
0.657478
0.547583
0.439666
0.333855
0.23209
0.137659
0.0543736
-0.0136444
-0.0632233
-0.0926609
-0.0994862
-0.0835644
-0.0527531
-0.0202183
0
0.00232658
-0.0260296
-0.0853943
-0.170109
-0.299924
-0.0968018
0.774316
2.49422
4.98237
7.79682
10.2015
11.4214
10.99
9.00172
6.10277
3.2061
1.08101
0.0475224
-0.0665562
0.125404
0.120913
0.103614
0.0791958
0.0559837
0.0440624
0.0656437
0.16147
0.315795
0.470672
0.553114
0.508207
0.326123
0.0494514
-0.243272
-0.468959
-0.534077
-0.204184
0.344296
0.877197
1.20241
1.22639
0.969886
0.54784
0.130368
-0.100973
-0.0225925
0.254807
0.722594
1.23007
1.60044
1.7101
1.54669
1.21618
0.893822
0.744709
0.854994
1.19692
1.80639
2.46611
2.98924
3.2427
3.16955
2.81112
2.30781
1.8635
1.67523
1.73469
1.83702
1.92334
1.95745
1.92
1.81499
1.66694
1.50848
1.36422
1.23754
1.11428
0.983199
0.834375
0.663525
0.474382
0.278534
0.092947
-0.0638678
-0.147121
-0.07323
0.149508
0.419405
0.625319
0.685227
0.572173
0.323051
0.0267408
-0.206902
-0.291016
-0.260037
-0.183423
-0.0812889
0.0207806
0.099744
0.141034
0.142295
0.11377
0.0752964
0.0509481
0.0708765
0.206121
0.450921
0.722953
0.921297
0.97075
0.853713
0.617217
0.353994
0.167599
0.135044
0.212062
0.395498
0.66412
0.94364
1.15794
1.2521
1.20814
1.04963
0.834077
0.634993
0.519293
0.514143
0.809525
1.29935
1.79642
2.10244
2.09571
1.79624
1.36166
1.00931
0.906819
1.06088
1.27424
1.49595
1.7138
1.92068
2.11331
2.29245
2.46188
2.62734
2.80311
3.00975
3.22318
3.38433
3.42363
3.29455
3.00035
2.60027
2.19047
1.86584
1.65688
1.50415
1.38697
1.29188
1.20406
1.11063
1.00331
0.880131
0.745685
0.610158
0.4873
0.417598
0.542229
0.891327
1.32243
1.64788
1.71949
1.49542
1.05069
0.51852
0
0.258071
1.41504
3.57027
6.54388
9.77746
12.4169
13.6166
12.9351
10.5767
7.31064
4.11075
1.73394
0.475938
0.194264
0.506933
0.700647
0.864896
0.982195
1.04625
1.06356
1.05109
1.03072
1.0224
1.03692
1.07099
1.11821
1.17195
1.22451
1.26909
1.30131
1.32012
1.32773
1.32886
1.32954
1.33578
1.35176
1.37959
1.41989
1.47209
1.53455
1.60481
1.68005
1.75755
1.83511
1.91137
1.98594
2.05938
2.13295
2.20819
2.28645
2.36842
2.45374
2.54096
2.62737
2.70896
2.78132
2.84039
2.88315
2.908
2.91489
2.90495
2.87989
2.84132
2.79028
2.72768
2.65408
2.56964
2.47495
2.37141
2.2612
2.14706
2.03172
1.91748
1.80579
1.69722
1.59157
1.48827
1.38677
1.28697
1.18946
1.09554
1.00703
0.925965
0.854223
0.793215
0.743679
0.705746
0.679182
0.663667
0.659002
0.665145
0.682006
0.709589
0.747723
0.79414
0.841992
0.881897
0.905155
0.906713
0.88736
0.854077
0.818097
0.791169
0.781404
0.792162
0.816796
0.843523
0.860898
0.86296
0.851632
0.835325
0.824577
0.827033
0.842707
0.865818
0.892047
0.917304
0.938906
0.956313
0.971025
0.985766
1.00328
1.025
1.05103
1.07921
1.10554
1.12576
1.13679
1.13803
1.13191
1.12378
1.12093
1.13118
1.16079
1.21235
1.28583
1.37992
1.49241
1.62034
1.76056
1.91015
2.067
2.22989
2.3964
2.55843
2.70213
2.81047
2.86767
2.86385
2.79778
2.67677
2.51471
2.32934
2.13979
1.9589
1.79222
1.64144
1.50791
1.38816
1.2761
1.16482
1.04855
0.924425
0.793314
0.659591
0.529928
0.411289
0.307665
0.221484
0.153674
0.103154
0.066746
0.0402121
0.0192015
0
-0.0172161
-0.0366406
-0.0688171
0.234242
1.18932
2.965
5.45024
8.19707
10.5184
11.7207
11.3835
9.56056
6.79132
3.89286
1.62026
0.365252
0.052076
0.231707
0.206815
0.174969
0.135811
0.0905039
0.0416998
-0.00702515
-0.0519951
-0.0907648
-0.121981
-0.144723
-0.158729
-0.164157
-0.161389
-0.150935
-0.133199
-0.108432
-0.0774055
-0.0408709
0.000955391
0.048616
0.103309
0.16636
0.23843
0.319452
0.406971
0.496272
0.58241
0.661944
0.734065
0.800553
0.864584
0.929001
0.994979
1.06169
1.12756
1.19139
1.25345
1.31581
1.3817
1.45407
1.53431
1.62157
1.70937
1.78918
1.85382
1.90055
1.93261
1.95832
1.98803
2.03252
2.09869
2.16854
2.20933
2.18621
2.07712
1.88352
1.63246
1.36846
1.13799
0.967604
0.840523
0.753108
0.692021
0.63995
0.580635
0.503402
0.405979
0.294833
0.182933
0.085561
0.0145405
-0.0272892
-0.0364367
-0.0195442
0.0133242
0.0527454
0.0932808
0.134739
0.180905
0.238876
0.313629
0.392488
0.451777
0.467846
0.429774
0.346621
0.245098
0.158533
0.112447
0.106649
0.129139
0.163819
0.192943
0.203951
0.194005
0.170618
0.148271
0.142449
0.163501
0.207734
0.266794
0.333252
0.398597
0.455341
0.498623
0.526887
0.541535
0.545808
0.543418
0.537528
0.530376
0.523419
0.518291
0.517525
0.524933
0.545433
0.584316
0.646096
0.733057
0.844821
0.978123
1.12709
1.28416
1.44128
1.59137
1.72838
1.84756
1.94533
2.01849
2.06339
2.07631
2.05465
1.99664
1.9022
1.77386
1.61707
1.43988
1.25185
1.06247
0.879373
0.707593
0.54959
0.405866
0.276147
0.160595
0.0605581
-0.0214911
-0.0809658
-0.107324
-0.0970596
-0.0632616
-0.024955
0
0.0198412
0.0195547
0.0124866
0.0166731
0.0471813
0.106152
0.183659
0.279233
0.566863
1.16173
2.40586
4.49087
7.21665
9.94781
11.8409
12.2418
11.0183
8.61909
5.8229
3.35125
1.58795
0.549384
0.0549083
0.0939644
0.130737
0.160613
0.177321
0.176554
0.157531
0.12374
0.0825483
0.0439094
0.0181785
0.0139014
0.0361239
0.0856427
0.159336
0.251381
0.354928
0.46363
0.572694
0.679329
0.781593
0.877109
0.964044
1.04048
1.10499
1.15755
1.20021
1.23729
1.27479
1.31944
1.37729
1.4508
1.54073
1.64711
1.76844
1.90276
2.04552
2.18802
2.32127
2.43798
2.53402
2.60889
2.66495
2.70572
2.73406
2.75092
2.75614
2.74779
2.72422
2.685
2.63129
2.56548
2.49041
2.40904
2.32356
2.23501
2.14396
2.05098
1.95681
1.86249
1.76923
1.6782
1.59021
1.50551
1.42369
1.34389
1.26516
1.18713
1.11056
1.0377
0.972582
0.920095
0.88515
0.871992
0.884631
0.922664
0.980041
1.04686
1.1125
1.16805
1.2081
1.23164
1.24174
1.24443
1.24684
1.25535
1.27357
1.30173
1.33847
1.38113
1.42641
1.47114
1.51286
1.54993
1.58124
1.60572
1.6213
1.62598
1.61793
1.59646
1.563
1.5215
1.47804
1.43962
1.41272
1.40096
1.40621
1.42871
1.46724
1.51966
1.58283
1.65409
1.73082
1.8096
1.88662
1.95852
2.02302
2.07964
2.12993
2.17713
2.22542
2.27872
2.33958
2.40812
2.48234
2.55897
2.63326
2.69914
2.74842
2.77234
2.76323
2.7149
2.62394
2.49077
2.32031
2.12167
1.90697
1.68936
1.48011
1.28626
1.11303
0.962778
0.835337
0.728572
0.639054
0.562625
0.494754
0.430707
0.36547
0.293951
0.211286
0.112766
-0.0105659
-0.170122
-0.363874
-0.579651
-0.803682
-1.02406
-0.773097
0
1.34728
3.28039
5.6755
8.15927
10.1354
10.9839
10.3552
8.38208
5.6552
2.95673
0.910546
-0.242261
-0.635756
-0.55864
-0.50053
-0.448997
-0.407803
-0.379181
-0.363263
-0.357921
-0.359106
-0.361574
-0.359884
-0.349557
-0.327847
-0.293787
-0.248528
-0.195034
-0.137651
-0.0816208
-0.0320915
0.00689087
0.0331314
0.046788
0.0504921
0.0489838
0.0482941
0.0545799
0.0729118
0.105968
0.15519
0.218916
0.293977
0.376784
0.46423
0.554146
0.645164
0.736197
0.825355
0.909719
0.985826
1.05077
1.10321
1.14362
1.17344
1.19353
1.2029
1.19962
1.18081
1.14351
1.08681
1.01266
0.925619
0.831593
0.736018
0.641985
0.549827
0.457642
0.362127
0.259909
0.148877
0.0290756
-0.0970909
-0.225375
-0.350667
-0.468531
-0.575652
-0.669986
-0.751009
-0.819525
-0.87726
-0.926404
-0.969215
-1.00758
-1.04275
-1.07515
-1.10453
-1.13019
-1.15151
-1.16824
-1.18113
-1.19244
-1.20525
-1.22239
-1.2452
-1.27264
-1.30099
-1.32457
-1.33717
-1.33061
-1.29693
-1.24284
-1.18148
-1.12697
-1.08829
-1.06558
-1.05066
-1.03136
-0.997527
-0.946127
-0.884472
-0.818372
-0.753584
-0.694432
-0.642529
-0.596522
-0.552729
-0.506337
-0.452994
-0.390131
-0.316193
-0.230167
-0.13162
-0.0205086
0.102997
0.238532
0.385365
0.542076
0.706757
0.876015
1.04342
1.20064
1.33872
1.4492
1.52495
1.56077
1.55353
1.50239
1.40888
1.27793
1.11804
0.938741
0.750246
0.563293
0.387557
0.22997
0.0961136
-0.0104263
-0.088472
-0.139146
-0.165234
-0.170535
-0.160931
-0.145856
-0.135559
-0.139018
-0.16254
-0.208805
-0.276684
-0.361943
-0.458652
-0.560858
-0.664009
-0.765728
-0.865071
-0.708745
0
1.55349
3.99964
6.97168
9.75304
11.5274
11.719
10.2578
7.62682
4.65486
2.15204
0.581374
-0.0630646
-0.127124
-0.179276
-0.239796
-0.301923
-0.363376
-0.420711
-0.469744
-0.506335
-0.527008
-0.529558
-0.513482
-0.480132
-0.432655
-0.375491
-0.314123
-0.255988
-0.209417
-0.181158
-0.175137
-0.191283
-0.224986
-0.267571
-0.307938
-0.335043
-0.340508
-0.323223
-0.287271
-0.236058
-0.17347
-0.103366
-0.028331
0.0511147
0.136681
0.231814
0.340678
0.473617
0.647251
0.854259
1.05552
1.20487
1.26886
1.24267
1.15458
1.05626
1.00202
1.02592
1.11437
1.24338
1.37195
1.45874
1.47643
1.41946
1.30248
1.15063
0.986454
0.819582
0.646758
0.464252
0.270199
0.0638824
-0.151278
-0.367424
-0.573081
-0.746519
-0.811486
-0.669437
-0.398512
-0.135687
-0.00840378
-0.075869
-0.304712
-0.588206
-0.799789
-0.857039
-0.799224
-0.708395
-0.611991
-0.522661
-0.44974
-0.398413
-0.369864
-0.362128
-0.371195
-0.391912
-0.418095
-0.443986
-0.463563
-0.470837
-0.460478
-0.42868
-0.370435
-0.279695
-0.162186
-0.0438408
0.0459686
0.0833611
0.057785
-0.0237984
-0.13784
-0.250018
-0.297353
-0.137391
0.176698
0.493798
0.648468
0.547218
0.214538
-0.221734
-0.588375
-0.733627
-0.654883
-0.49563
-0.307211
-0.103881
0.103767
0.307606
0.503217
0.690359
0.872453
1.05517
1.24589
1.45613
1.68316
1.90189
2.07902
2.18647
2.21097
2.15593
2.03648
1.8722
1.68142
1.48064
1.2799
1.08437
0.897416
0.721367
0.557607
0.407075
0.270405
0.147515
0.0376526
-0.0604935
-0.148595
-0.228394
-0.301324
-0.368068
-0.428123
-0.479444
-0.518733
-0.542136
-0.545815
-0.526915
-0.484361
-0.419318
-0.335182
-0.237143
-0.120383
0
0.553416
1.95956
4.33402
7.28911
9.99968
11.5516
11.3848
9.565
6.72526
3.73893
1.3379
-0.121442
-0.674788
-0.61819
-0.667902
-0.725124
-0.787717
-0.852187
-0.910263
-0.951499
-0.966376
-0.949142
-0.899415
-0.822157
-0.726271
-0.622485
-0.520886
-0.428828
-0.351587
-0.291893
-0.249842
-0.223106
-0.207422
-0.197296
-0.186817
-0.170415
-0.143674
-0.104155
-0.0502426
0.0191376
0.104176
0.204137
0.317397
0.441531
0.573546
0.710245
0.848685
0.986592
1.12264
1.25645
1.3883
1.51853
1.647
1.77248
1.89232
2.00274
2.09938
2.17804
2.23536
2.26934
2.27938
2.26613
2.23103
2.17599
2.10345
2.01592
1.91583
1.80582
1.68874
1.56745
1.4446
1.32236
1.20224
1.08509
0.971221
0.860645
0.753305
0.649348
0.549334
0.454437
0.366571
0.288546
0.223674
0.175101
0.146105
0.144123
0.170605
0.212006
0.250807
0.271936
0.268799
0.245811
0.215965
0.194535
0.192035
0.207692
0.232854
0.261201
0.286558
0.304765
0.314557
0.317301
0.315908
0.313538
0.312575
0.314185
0.319141
0.32803
0.341499
0.360269
0.384913
0.415496
0.45116
0.490274
0.530482
0.568771
0.602471
0.630001
0.65128
0.667632
0.681175
0.693801
0.706309
0.717077
0.722549
0.719339
0.706873
0.68932
0.675796
0.678508
0.709441
0.776596
0.875454
0.998711
1.14028
1.29369
1.45238
1.61106
1.76655
1.91815
2.06733
2.21783
2.37867
2.56238
2.74898
2.89303
2.93972
2.84972
2.62032
2.29041
1.92531
1.59005
1.32601
1.10839
0.917304
0.749552
0.604069
0.47997
0.376559
0.293425
0.230213
0.186269
0.161036
0.154874
0.165284
0.181511
0.18936
0.174687
0.126827
0.0414112
-0.0785137
-0.223452
-0.380022
-0.534144
-0.596537
0
1.28413
3.40541
6.22215
9.22098
11.6293
12.7155
12.1279
10.0716
7.20959
4.34675
2.08559
0.645319
-0.0903809
-0.371268
-0.35219
-0.33551
-0.323303
-0.318127
-0.321815
-0.335131
-0.357629
-0.387798
-0.423438
-0.462073
-0.501157
-0.538054
-0.569651
-0.59204
-0.60058
-0.590467
-0.55779
-0.500736
-0.420514
-0.321932
-0.211929
-0.0987267
0.0097683
0.107971
0.192563
0.263004
0.321197
0.370704
0.41573
0.460152
0.506824
0.557267
0.611708
0.669592
0.730186
0.792937
0.857701
0.924723
0.994382
1.06684
1.14163
1.21722
1.29003
1.35313
1.39776
1.41497
1.3975
1.34207
1.25102
1.13267
1.00011
0.868463
0.751385
0.654503
0.57685
0.518906
0.475596
0.437437
0.39393
0.335875
0.257283
0.156473
0.0361906
-0.0971928
-0.235092
-0.368585
-0.491226
-0.599084
-0.6894
-0.760846
-0.813483
-0.848946
-0.870951
-0.884151
-0.892424
-0.897951
-0.900766
-0.898933
-0.889317
-0.868752
-0.83522
-0.789111
-0.733154
-0.67094
-0.606385
-0.543429
-0.485494
-0.435154
-0.394004
-0.362734
-0.341366
-0.3295
-0.326447
-0.33123
-0.34245
-0.358145
-0.375668
-0.391689
-0.402343
-0.403861
-0.393256
-0.369088
-0.331326
-0.281824
-0.226745
-0.173392
-0.128367
-0.0959229
-0.0770573
-0.0696211
-0.0693209
-0.0711788
-0.0709442
-0.0663458
-0.0563742
-0.0405258
-0.0185736
0.00992622
0.045891
0.0906754
0.145765
0.21234
0.290906
0.381141
0.481924
0.591978
0.71045
0.837267
0.973911
1.12685
1.31761
1.58313
1.89141
2.16776
2.32509
2.30501
2.11078
1.81201
1.51377
1.30205
1.1947
1.11347
1.02782
0.924017
0.796154
0.647902
0.491356
0.343318
0.220131
0.146028
0.127902
0.142762
0.157318
0.143475
0.090657
0.00914879
-0.0769115
-0.143152
-0.177966
-0.193626
-0.204118
-0.2202
-0.249241
-0.29252
-0.345027
-0.521819
0
1.58109
4.32444
7.86482
11.3866
13.8619
14.4652
12.9598
9.82831
6.05848
2.70125
0.454829
-0.519089
-0.510266
-0.215603
-0.131461
-0.0707382
-0.0317975
-0.0096439
0.0030037
0.0139933
0.0296888
0.0528386
0.0829667
0.117849
0.153875
0.187225
0.214696
0.234312
0.246148
0.252327
0.256877
0.265259
0.283558
0.317395
0.370714
0.444756
0.537196
0.64318
0.75581
0.867612
0.972084
1.06495
1.1448
1.21298
1.27292
1.32912
1.38618
1.44779
1.5165
1.59371
1.67956
1.77288
1.87126
1.97128
2.06836
2.15755
2.2344
2.29567
2.33971
2.36639
2.37662
2.37122
2.34997
2.3127
2.25833
2.18555
2.09359
1.98284
1.85504
1.71305
1.56033
1.4009
1.23851
1.07623
0.917331
0.765472
0.624435
0.497851
0.388885
0.299806
0.231681
0.184201
0.155684
0.143236
0.14308
0.150979
0.162746
0.17472
0.184194
0.189692
0.190858
0.188098
0.182464
0.175687
0.169964
0.167853
0.172111
0.185386
0.20973
0.246014
0.293785
0.351123
0.412316
0.469313
0.514168
0.540986
0.547375
0.534943
0.508744
0.475925
0.444088
0.419548
0.405748
0.404016
0.41486
0.437819
0.471377
0.513213
0.560421
0.609838
0.658377
0.703311
0.742457
0.773959
0.796571
0.809922
0.814302
0.810748
0.801148
0.788264
0.775587
0.767014
0.766395
0.776879
0.800429
0.838189
0.890675
0.957805
1.03906
1.1337
1.24087
1.35962
1.48873
1.62653
1.77068
1.91805
2.06353
2.19968
2.31819
2.41065
2.4693
2.48778
2.46165
2.38878
2.26978
2.10848
1.91229
1.69279
1.46365
1.23894
1.03056
0.846044
0.694846
0.581377
0.500711
0.443723
0.399776
0.359414
0.31629
0.267853
0.214776
0.159539
0.104742
0.0516468
0
-0.0521534
-0.105995
-0.163462
-0.225967
-0.293974
-0.383229
-0.349253
0.331818
2.02256
4.77718
8.14167
11.2047
12.9518
12.7516
10.681
7.48213
4.18298
1.62388
0.163007
-0.321476
-0.212704
-0.117226
-0.0432735
0.0181633
0.0656296
0.100404
0.126019
0.147299
0.16921
0.195755
0.22906
0.269585
0.316686
0.368951
0.424583
0.481823
0.539211
0.595685
0.650555
0.703392
0.753959
0.802347
0.849015
0.89483
0.941018
0.988977
1.03995
1.09467
1.15353
1.21587
1.28071
1.34742
1.41609
1.48763
1.56316
1.64326
1.72711
1.81209
1.8945
1.97012
2.03492
2.08581
2.12108
2.14047
2.1449
2.13607
2.11605
2.08674
2.04954
2.00528
1.95426
1.89628
1.8307
1.7566
1.67287
1.57843
1.4725
1.35484
1.22601
1.08752
0.941911
0.792623
0.643735
0.49959
0.36439
0.241851
0.134957
0.046077
-0.0228241
-0.0710052
-0.098917
-0.107985
-0.100456
-0.0786156
-0.0467537
-0.00922089
0.0302505
0.0690121
0.105526
0.138919
0.167576
0.189158
0.200696
0.199522
0.185253
0.161494
0.136192
0.120128
0.123874
0.154303
0.216612
0.304461
0.399426
0.481602
0.537193
0.563392
0.568448
0.566972
0.572779
0.592716
0.622491
0.655478
0.684378
0.704316
0.714731
0.719149
0.723277
0.732631
0.750062
0.775259
0.808207
0.849065
0.898164
0.956224
1.02436
1.10395
1.1961
1.30164
1.42113
1.55411
1.69893
1.85375
2.01178
2.16134
2.28985
2.38667
2.44532
2.46431
2.44623
2.39562
2.31694
2.21518
2.09662
1.9657
1.82637
1.6842
1.54589
1.41846
1.3109
1.23146
1.1757
1.13051
1.07947
1.00872
0.91187
0.79226
0.661494
0.535157
0.42736
0.341257
0.275303
0.226942
0.191038
0.161554
0.133223
0.102753
0.0693035
0.0341888
0
-0.00768547
0.495076
1.58839
3.3843
5.74134
8.20253
10.1042
10.8384
10.1386
8.22125
5.69473
3.28254
1.52119
0.597519
0.379279
0.454926
0.47694
0.481342
0.467386
0.438049
0.399226
0.35803
0.320761
0.292075
0.272792
0.26142
0.256405
0.258271
0.270526
0.29878
0.34837
0.42944
0.539806
0.659876
0.76439
0.832114
0.854184
0.837739
0.80362
0.779113
0.788357
0.839213
0.921308
1.02375
1.13809
1.25614
1.37235
1.4853
1.59764
1.71451
1.84474
1.99556
2.15272
2.28965
2.37947
2.40808
2.38135
2.32291
2.26426
2.23248
2.2364
2.26364
2.30409
2.35126
2.39656
2.43062
2.44473
2.43179
2.38699
2.30846
2.19764
2.05926
1.90089
1.73195
1.56244
1.40041
1.25141
1.11945
1.00651
0.912623
0.83648
0.775905
0.728373
0.691313
0.662548
0.639901
0.621269
0.605015
0.590211
0.576809
0.565643
0.558159
0.55593
0.560091
0.570725
0.58704
0.607411
0.629742
0.651946
0.672343
0.689838
0.703843
0.714059
0.7201
0.721556
0.718273
0.710711
0.700445
0.690468
0.685139
0.689396
0.707615
0.742392
0.794316
0.860476
0.934369
1.00717
1.06895
1.11099
1.12719
1.11504
1.07608
1.0159
0.943525
0.870212
0.807738
0.766249
0.750686
0.764515
0.808241
0.879882
0.975966
1.09251
1.22479
1.36831
1.51943
1.67471
1.82986
1.97977
2.11985
2.24712
2.36105
2.46375
2.5592
2.65088
2.74131
2.82407
2.88124
2.88951
2.83017
2.69832
2.50679
2.28306
2.06038
1.86713
1.70724
1.57244
1.46024
1.36776
1.291
1.22557
1.16709
1.11141
1.05463
0.993123
0.923612
0.842885
0.747395
0.633239
0.498596
0.350801
0.208291
0.091918
0.0192953
0
0.0304039
0.102051
0.38771
1.03258
2.17647
4.02335
6.55525
9.38465
11.7894
12.9698
12.4237
10.2308
7.06096
3.8814
1.52522
0.360633
0.229276
0.514183
0.574467
0.612355
0.62877
0.629074
0.622148
0.617942
0.624515
0.644017
0.674086
0.712234
0.755467
0.800716
0.84561
0.888865
0.930267
0.97037
1.01004
1.05001
1.09066
1.1319
1.1734
1.21476
1.2558
1.29665
1.33772
1.3796
1.42296
1.46853
1.5173
1.57062
1.63043
1.6992
1.77962
1.87422
1.98461
2.11199
2.25768
2.41991
2.58578
2.73326
2.84109
2.89548
2.89553
2.85481
2.79765
2.75055
2.7318
2.74298
2.77019
2.78839
2.77073
2.69814
2.56576
2.38401
2.17459
1.96319
1.76985
1.59946
1.44984
1.31964
1.20754
1.11124
1.02801
0.955063
0.889827
0.829927
0.773073
0.717413
0.661845
0.606316
0.551957
0.500893
0.455703
0.418659
0.391414
0.374239
0.364833
0.359495
0.354626
0.348217
0.340977
0.336734
0.341956
0.373001
0.479692
0.707764
0.995693
1.23903
1.337
1.23986
0.974689
0.637153
0.353825
0.229911
0.250919
0.326694
0.433152
0.540869
0.623161
0.66357
0.660427
0.626332
0.582274
0.548491
0.535979
0.539449
0.549647
0.554675
0.545711
0.521182
0.487629
0.457031
0.441848
0.449967
0.477818
0.522154
0.572857
0.619693
0.656764
0.685435
0.714458
0.756927
0.825007
0.924387
1.05354
1.19561
1.32689
1.42503
1.47692
1.48312
1.45744
1.42259
1.42897
1.6998
2.25249
2.8703
3.35177
3.54033
3.37676
2.92596
2.34777
1.81956
1.46107
1.23656
1.06139
0.907891
0.769468
0.645433
0.53634
0.442347
0.362948
0.297084
0.243315
0.200053
0.16573
0.138789
0.117694
0.100859
0.0865963
0.0731449
0.05882
0.042247
0.0226429
0
-0.0179321
0.079818
0.717872
2.15568
4.43631
7.25405
9.96317
11.774
12.0776
10.7343
8.15441
5.11627
2.42221
0.586276
-0.294037
-0.456358
-0.373594
-0.30317
-0.237849
-0.177958
-0.123001
-0.072044
-0.0242306
0.0206272
0.0619705
0.0986141
0.129115
0.152409
0.168327
0.177768
0.182493
0.184654
0.186327
0.189237
0.194712
0.204182
0.219366
0.242354
0.275444
0.320766
0.379853
0.452915
0.539566
0.638539
0.747905
0.865134
0.987544
1.11237
1.2367
1.35745
1.47178
1.5775
1.67329
1.75893
1.83513
1.90316
1.96407
2.01833
2.06559
2.10454
2.13318
2.14947
2.15197
2.14028
2.11518
2.07848
2.03248
1.97946
1.92098
1.85758
1.78881
1.71356
1.63063
1.53941
1.44038
1.3353
1.22702
1.119
1.01471
0.916813
0.826662
0.744381
0.669396
0.601093
0.539374
0.484881
0.438816
0.402465
0.376174
0.359908
0.352896
0.353528
0.359848
0.369972
0.382433
0.396331
0.4113
0.427332
0.444592
0.463286
0.483658
0.506063
0.531031
0.559243
0.591356
0.627707
0.668127
0.7117
0.756108
0.798232
0.834964
0.863924
0.883918
0.894955
0.897913
0.894059
0.88471
0.871505
0.855936
0.839783
0.825226
0.814614
0.810026
0.812829
0.823506
0.841625
0.866291
0.896641
0.932175
0.972762
1.01833
1.0691
1.12386
1.18035
1.23651
1.2917
1.34761
1.40817
1.47833
1.56236
1.66218
1.77524
1.8973
2.02496
2.15503
2.28513
2.41367
2.53835
2.6531
2.74689
2.80251
2.80121
2.73032
2.59015
2.39656
2.1775
1.96461
1.78317
1.63183
1.50381
1.39535
1.30015
1.21114
1.12241
1.03062
0.935768
0.841107
0.752226
0.675306
0.618018
0.590303
0.592242
0.606416
0.608247
0.573309
0.484753
0.338337
0.143712
-0.0779961
0
0.888981
2.76799
5.52395
8.69825
11.5828
13.436
13.7442
12.4228
9.86508
6.79988
4.00544
2.01207
0.941773
0.56128
0.561428
0.593938
0.63012
0.668736
0.707033
0.74173
0.770287
0.79216
0.809671
0.828023
0.854312
0.897392
0.973967
1.09243
1.22693
1.33825
1.39015
1.366
1.27837
1.16625
1.0797
1.05836
1.10822
1.19548
1.29976
1.41111
1.52162
1.62671
1.72508
1.81771
1.90658
1.99355
2.08003
2.16697
2.25545
2.34691
2.44308
2.54641
2.65984
2.78392
2.91128
3.02751
3.11518
3.15764
3.1421
3.06152
2.91547
2.71066
2.46108
2.18883
1.91741
1.66491
1.44198
1.25205
1.10511
1.01041
0.959467
0.930467
0.900489
0.852597
0.780786
0.690939
0.5973
0.515816
0.457105
0.422116
0.402116
0.383213
0.353013
0.306403
0.247902
0.189736
0.146708
0.130298
0.138793
0.164894
0.2038
0.25047
0.299938
0.34824
0.392868
0.432743
0.467828
0.498581
0.526019
0.55147
0.576754
0.604375
0.637495
0.679507
0.734418
0.808192
0.901553
1.00112
1.08744
1.14159
1.15221
1.12009
1.05858
0.989457
0.935701
0.913585
0.920483
0.954072
0.99737
1.02957
1.03377
1.00351
0.94561
0.878269
0.825151
0.807697
0.831943
0.897341
1.00818
1.14048
1.26066
1.33886
1.35899
1.32473
1.25907
1.19709
1.17429
1.21514
1.30883
1.43541
1.58322
1.7445
1.91174
2.0775
2.2344
2.37525
2.49365
2.58443
2.64299
2.66526
2.64801
2.58951
2.49037
2.35423
2.1881
2.00195
1.80774
1.61729
1.44
1.2812
1.14432
1.0299
0.936042
0.859245
0.79526
0.739808
0.68905
0.639776
0.589444
0.536103
0.478202
0.414487
0.343848
0.265248
0.178082
0.0832425
-0.0173786
-0.121431
-0.226321
0
0.773935
2.34413
4.81725
7.94893
11.0761
13.2892
13.8138
12.4102
9.53963
6.16633
3.29648
1.5228
0.839049
0.797147
0.700291
0.604579
0.512184
0.426342
0.350245
0.285341
0.231589
0.188409
0.155672
0.134437
0.127029
0.136352
0.164646
0.212208
0.275534
0.350005
0.429408
0.507134
0.577733
0.637462
0.684742
0.720154
0.746024
0.765819
0.783553
0.803067
0.827831
0.86085
0.90465
0.96129
1.03242
1.11931
1.22267
1.34229
1.47822
1.63005
1.79145
1.94772
2.08172
2.17836
2.22858
2.2318
2.19579
2.13414
2.06214
1.99255
1.93146
1.8785
1.83116
1.78658
1.74159
1.69298
1.63802
1.57472
1.50204
1.41992
1.32893
1.23011
1.1247
1.01412
0.899905
0.7838
0.667896
0.554641
0.446641
0.346409
0.256652
0.178698
0.110737
0.0496603
-0.00756826
-0.0624767
-0.114276
-0.160104
-0.196284
-0.220077
-0.229654
-0.228343
-0.222157
-0.217541
-0.218829
-0.226531
-0.23714
-0.24455
-0.242508
-0.227265
-0.200329
-0.164529
-0.125445
-0.0892319
-0.0607911
-0.0425346
-0.0341527
-0.0333756
-0.0373137
-0.0437363
-0.051616
-0.0609865
-0.0720886
-0.0844591
-0.0963364
-0.104639
-0.105566
-0.0955894
-0.0728445
-0.03799
0.00728722
0.0604631
0.118398
0.178012
0.236867
0.293458
0.347401
0.399692
0.452318
0.507844
0.568887
0.637533
0.714814
0.800428
0.892856
0.989845
1.08959
1.19151
1.29683
1.40984
1.54467
1.73808
2.01739
2.328
2.5868
2.7199
2.69031
2.50844
2.22347
1.89914
1.58614
1.30612
1.05479
0.825979
0.617604
0.430671
0.270435
0.143161
0.0441038
-0.0373083
-0.112694
-0.190578
-0.273179
-0.355625
-0.428035
-0.479613
-0.502977
-0.501245
-0.477948
-0.439829
-0.394653
-0.349099
-0.306775
-0.269114
-0.2645
0
0.948098
2.89595
5.81577
9.16939
12.0212
13.4256
12.8863
10.6088
7.38811
4.20875
1.80131
0.401991
-0.195279
-0.381663
-0.420466
-0.453484
-0.479353
-0.495563
-0.500269
-0.49232
-0.471266
-0.437342
-0.391503
-0.33548
-0.271342
-0.201566
-0.128664
-0.054877
0.0180254
0.0887638
0.156396
0.219965
0.278394
0.330705
0.376222
0.415081
0.448731
0.480188
0.513892
0.555131
0.609156
0.67989
0.768945
0.875943
0.998696
1.13327
1.27437
1.41602
1.55217
1.67714
1.78623
1.87647
1.9466
1.99696
2.02937
2.04681
2.05296
2.05174
2.04667
2.04031
2.03382
2.0267
2.01678
2.0003
1.97293
1.9307
1.87099
1.7932
1.69896
1.59164
1.47539
1.35415
1.23082
1.10691
0.982901
0.858963
0.735596
0.614141
0.496887
0.386787
0.286764
0.199093
0.125525
0.0668649
0.0230689
-0.00650444
-0.0226379
-0.0262339
-0.0184893
-0.000819969
0.0250616
0.0571122
0.0923878
0.127865
0.160958
0.189953
0.214159
0.23369
0.248989
0.260194
0.267032
0.268963
0.265662
0.257705
0.24703
0.23688
0.231175
0.233513
0.246144
0.268742
0.299072
0.334377
0.371188
0.40591
0.435251
0.456273
0.467158
0.467171
0.456863
0.438299
0.415199
0.392853
0.377782
0.376933
0.396721
0.442062
0.515627
0.617517
0.7454
0.895063
1.06117
1.23778
1.41943
1.60118
1.77713
1.93941
2.07822
2.18438
2.24861
2.26321
2.22381
2.1308
1.98975
1.81079
1.60723
1.39377
1.18313
0.982314
0.794733
0.622696
0.467047
0.327113
0.201236
0.087401
-0.016068
-0.11033
-0.195709
-0.271722
-0.33723
-0.390138
-0.428034
-0.449184
-0.452294
-0.436849
-0.403414
-0.353801
-0.291021
-0.219024
-0.131067
0
0.607948
2.09878
4.5792
7.6441
10.4225
11.9241
11.5246
9.30662
6.03602
2.77673
0.381419
-0.839847
-1.11086
-0.923413
-0.779441
-0.64466
-0.523525
-0.419144
-0.329825
-0.253348
-0.188719
-0.135776
-0.0952367
-0.0670203
-0.0507953
-0.0457229
-0.0501544
-0.0615096
-0.0764186
-0.0910881
-0.101741
-0.104953
-0.0985827
-0.0807086
-0.0494537
-0.00338415
0.0582373
0.135095
0.225519
0.326737
0.434699
0.544275
0.65078
0.750855
0.842918
0.927046
1.00438
1.07638
1.14419
1.20855
1.26993
1.32901
1.38703
1.44576
1.50707
1.57275
1.6423
1.71024
1.76682
1.80078
1.80248
1.76655
1.69306
1.58706
1.45686
1.31194
1.16167
1.013
0.870206
0.736235
0.613553
0.504064
0.40868
0.327721
0.259662
0.197778
0.133113
0.0574314
-0.0341448
-0.141336
-0.258538
-0.37648
-0.485106
-0.576536
-0.65029
-0.706617
-0.747115
-0.774058
-0.789217
-0.79314
-0.78506
-0.76335
-0.726305
-0.674003
-0.606505
-0.524866
-0.430055
-0.326146
-0.223887
-0.136592
-0.0761023
-0.0492599
-0.0553257
-0.0856103
-0.125802
-0.160258
-0.176586
-0.17188
-0.150489
-0.11669
-0.0736094
-0.0240327
0.0298833
0.0869192
0.146781
0.209856
0.276883
0.348644
0.425785
0.508776
0.597919
0.693379
0.795193
0.90321
1.01699
1.13568
1.25784
1.38144
1.50359
1.62031
1.72631
1.81569
1.88329
1.92494
1.93799
1.92176
1.87756
1.80834
1.7182
1.61176
1.49393
1.3697
1.24315
1.11766
0.996299
0.881763
0.776155
0.680703
0.595611
0.52002
0.452154
0.389853
0.331143
0.274838
0.22075
0.169771
0.123589
0.0840478
0.0524899
0.0293261
0.0139248
0.00480471
0
-0.00405226
-0.00669231
0.354222
1.36285
3.18797
5.71188
8.45882
10.707
11.7685
11.3038
9.48802
6.9244
4.35188
2.31902
1.01071
0.298546
-0.0326333
-0.00651941
0.0245802
0.057784
0.0907198
0.120524
0.144706
0.162084
0.173401
0.181347
0.189987
0.203812
0.226621
0.259969
0.30403
0.358161
0.420671
0.489034
0.559938
0.629129
0.692419
0.74664
0.79037
0.824414
0.851802
0.877274
0.906323
0.944058
0.993955
1.05657
1.13083
1.21465
1.30488
1.39768
1.48885
1.57464
1.65252
1.72165
1.78319
1.84018
1.89704
1.95885
2.0322
2.12527
2.24025
2.36172
2.46426
2.52149
2.51429
2.43653
2.29628
2.11234
1.90759
1.70202
1.50626
1.32168
1.1476
0.984359
0.833354
0.696204
0.574533
0.469759
0.382764
0.313163
0.259443
0.219076
0.188788
0.164892
0.143642
0.121549
0.0957272
0.064365
0.0271
-0.0150796
-0.0590275
-0.0995676
-0.131118
-0.149147
-0.15143
-0.138642
-0.114064
-0.0825091
-0.0488572
-0.0166588
0.0128036
0.0396354
0.065088
0.0909804
0.119063
0.150525
0.185872
0.224977
0.267237
0.3118
0.357779
0.404405
0.45108
0.497348
0.542817
0.587072
0.629616
0.669917
0.707661
0.743038
0.777036
0.811669
0.849999
0.895878
0.953454
1.02653
1.11796
1.22877
1.35845
1.50558
1.66802
1.84342
2.02978
2.22399
2.41876
2.60117
2.7556
2.86554
2.91607
2.89654
2.80281
2.63881
2.41727
2.15906
1.89068
1.63796
1.41564
1.22649
1.06932
0.945214
0.852855
0.78864
0.747209
0.72216
0.706627
0.693715
0.677124
0.651692
0.613723
0.561198
0.493391
0.410473
0.314904
0.211429
0.105028
0
-0.0908997
0.314733
1.33162
3.16481
5.78843
8.81562
11.532
13.1351
13.0835
11.3667
8.52991
5.42905
2.85559
1.23987
0.574601
0.554029
0.634705
0.676772
0.699777
0.70057
0.679876
0.642251
0.595351
0.548675
0.512014
0.492928
0.496412
0.526178
0.583478
0.667136
0.773751
0.897771
1.03227
1.17031
1.30407
1.42649
1.53247
1.61973
1.68906
1.74409
1.79039
1.83418
1.88104
1.93492
1.9972
2.0676
2.14533
2.22947
2.31929
2.41445
2.51484
2.62025
2.72985
2.84184
2.95312
3.05898
3.15428
3.23441
3.29619
3.33834
3.36131
3.36669
3.35634
3.33171
3.2942
3.24394
3.18081
3.10476
3.01593
2.91456
2.80071
2.67421
2.53571
2.38546
2.2247
2.05614
1.88416
1.71455
1.55377
1.40773
1.28117
1.17724
1.09707
1.03944
1.00072
0.975485
0.958074
0.943579
0.928447
0.910696
0.889743
0.866001
0.840461
0.814424
0.789452
0.767504
0.751088
0.743204
0.746999
0.765152
0.799174
0.848751
0.911522
0.98367
1.06018
1.13545
1.20345
1.25877
1.29772
1.31849
1.32133
1.30849
1.28393
1.25272
1.22035
1.19194
1.17152
1.16154
1.16383
1.18025
1.21237
1.26141
1.32804
1.41201
1.51201
1.62547
1.74909
1.87951
2.01368
2.14931
2.28492
2.41929
2.5501
2.67151
2.77316
2.84093
2.86088
2.82378
2.72815
2.58061
2.39401
2.18468
1.97021
1.76311
1.56998
1.395
1.24133
1.111
1.00421
0.919271
0.852535
0.798513
0.750585
0.702301
0.64835
0.585361
0.511934
0.428737
0.340088
0.252187
0.171147
0.101445
0.0448366
0
-0.030537
0.161602
0.756121
2.04413
4.14517
6.83473
9.52051
11.4197
11.8812
10.6977
8.22373
5.21783
2.48986
0.563931
-0.458153
-0.79616
94
269
436
608
786
963
1135
1302
1472
1648
1829
2011
2185
2362
2543
2721
2901
3076
3246
3412
3577
3742
3701
0
0
0
0
0
0
0
0
0
0
0
0
0
0
0
0
0
0
0
0
0
0
0
0
0
0
0
0
0
0
0
0
0
0
0
0
0
0
0
0
0
0
0
0
0
0
0
0
0
0
0
0
0
0
0
0
0
0
0
0
0
0
0
0
0
0
0
0
0
0
0
0
0
0
0
0
0
0
0
0
0
0
0
0
0
0
0
0
0
0
0
0
0
0
0
0
0
0
0
0
0
0
0
0
0
0
0
0
0
0
0
0
0
0
0
0
0
0
0
0
0
0
0
0
0
0
0
0
0
0
0
0
0
0
0
0
0
0
0
0
0
0
0
0
0
0
0
0
0
0
0
0
0
0
0
0
0
0
0
0
0
0
0
0
0
0
0
0
0
0
0
0
0
0
0
0
0
0
0
0
0
0
0
0
0
0
0
0
0
0
0
0
0
0
0
0
0
0
0
0
0
0
0
0
0
0
0
0
0
0
0
0
0
0
0
0
0
0
0
0
0
0
0
0
0
0
0
0
0
0
0
0
0
0
0
0
0
0
0
0
0
0
0
0
0
0
0
0
0
0
0
0
0
0
0
0
0
0
0
0
0
0
0
0
0
0
0
0
0
0
0
0
0
0
0
0
0
0
0
0
0
0
0
0
0
0
0
0
0
0
0
0
0
0
0
0
0
0
0
0
0
0
0
0
0
0
0
0
0
0
0
0
0
0
0
0
0
0
0
0
0
0
0
0
0
0
0
0
0
0
0
0
0
0
0
0
0
0
0
0
0
0
0
0
0
0
0
0
0
0
0
0
0
0
0
0
0
0
0
0
0
0
0
0
0
0
0
0
0
0
0
0
0
0
0
0
0
0
0
0
0
0
0
0
0
0
0
0
0
0
0
0
0
0
0
0
0
0
0
0
0
0
0
0
0
0
0
0
0
0
0
0
0
0
0
0
0
0
0
0
0
0
0
0
0
0
0
0
0
0
0
0
0
0
0
0
0
0
0
0
0
0
0
0
0
0
0
0
0
0
0
0
0
0
0
0
0
0
0
0
0
0
0
0
0
0
0
0
0
0
0
0
0
0
0
0
0
0
0
0
0
0
0
0
0
0
0
0
0
0
0
0
0
0
0
0
0
0
0
0
0
0
0
0
0
0
0
0
0
0
0
0
0
0
0
0
0
0
0
0
0
0
0
0
0
0
0
0
0
0
0
0
0
0
0
0
0
0
0
0
0
0
0
0
0
0
0
0
0
0
0
0
0
0
0
0
0
0
0
0
0
0
0
0
0
0
0
0
0
0
0
0
0
0
0
0
0
0
0
0
0
0
0
0
0
0
0
0
0
0
0
0
0
0
0
0
0
0
0
0
0
0
0
0
0
0
0
0
0
0
0
0
0
0
0
0
0
0
0
0
0
0
0
0
0
0
0
0
0
0
0
0
0
0
0
0
0
0
0
0
0
0
0
0
0
0
0
0
0
0
0
0
0
0
0
0
0
0
0
0
0
0
0
0
0
0
0
0
0
0
0
0
0
0
0
0
0
0
0
0
0
0
0
0
0
0
0
0
0
0
0
0
0
0
0
0
0
0
0
0
0
0
0
0
0
0
0
0
0
0
0
0
0
0
0
0
0
0
0
0
0
0
0
0
0
0
0
0
0
0
0
0
0
0
0
0
0
0
0
0
0
0
0
0
0
0
0
0
0
0
0
0
0
0
0
0
0
0
0
0
0
0
0
0
0
0
0
0
0
0
0
0
0
0
0
0
0
0
0
0
0
0
0
0
0
0
0
0
0
0
0
0
0
0
0
0
0
0
0
0
0
0
0
0
0
0
0
0
0
0
0
0
0
0
0
0
0
0
0
0
0
0
0
0
0
0
0
0
0
0
0
0
0
0
0
0
0
0
0
0
0
0
0
0
0
0
0
0
0
0
0
0
0
0
0
0
0
0
0
0
0
0
0
0
0
0
0
0
0
0
0
0
0
0
0
0
0
0
0
0
0
0
0
0
0
0
0
0
0
0
0
0
0
0
0
0
0
0
0
0
0
0
0
0
0
0
0
0
0
0
0
0
0
0
0
0
0
0
0
0
0
0
0
0
0
0
0
0
0
0
0
0
0
0
0
0
0
0
0
0
0
0
0
0
0
0
0
0
0
0
0
0
0
0
0
0
0
0
0
0
0
0
0
0
0
0
0
0
0
0
0
0
0
0
0
0
0
0
0
0
0
0
0
0
0
0
0
0
0
0
0
0
0
0
0
0
0
0
0
0
0
0
0
0
0
0
0
0
0
0
0
0
0
0
0
0
0
0
0
0
0
0
0
0
0
0
0
0
0
0
0
0
0
0
0
0
0
0
0
0
0
0
0
0
0
0
0
0
0
0
0
0
0
0
0
0
0
0
0
0
0
0
0
0
0
0
0
0
0
0
0
0
0
0
0
0
0
0
0
0
0
0
0
0
0
0
0
0
0
0
0
0
0
0
0
0
0
0
0
0
0
0
0
0
0
0
0
0
0
0
0
0
0
0
0
0
0
0
0
0
0
0
0
0
0
0
0
0
0
0
0
0
0
0
0
0
0
0
0
0
0
0
0
0
0
0
0
0
0
0
0
0
0
0
0
0
0
0
0
0
0
0
0
0
0
0
0
0
0
0
0
0
0
0
0
0
0
0
0
0
0
0
0
0
0
0
0
0
0
0
0
0
0
0
0
0
0
0
0
0
0
0
0
0
0
0
0
0
0
0
0
0
0
0
0
0
0
0
0
0
0
0
0
0
0
0
0
0
0
0
0
0
0
0
0
0
0
0
0
0
0
0
0
0
0
0
0
0
0
0
0
0
0
0
0
0
0
0
0
0
0
0
0
0
0
0
0
0
0
0
0
0
0
0
0
0
0
0
0
0
0
0
0
0
0
0
0
0
0
0
0
0
0
0
0
0
0
0
0
0
0
0
0
0
0
0
0
0
0
0
0
0
0
0
0
0
0
0
0
0
0
0
0
0
0
0
0
0
0
0
0
0
0
0
0
0
0
0
0
0
0
0
0
0
0
0
0
0
0
0
0
0
0
0
0
0
0
0
0
0
0
0
0
0
0
0
0
0
0
0
0
0
0
0
0
0
0
0
0
0
0
0
0
0
0
0
0
0
0
0
0
0
0
0
0
0
0
0
0
0
0
0
0
0
0
0
0
0
0
0
0
0
0
0
0
0
0
0
0
0
0
0
0
0
0
0
0
0
0
0
0
0
0
0
0
0
0
0
0
0
0
0
0
0
0
0
0
0
0
0
0
0
0
0
0
0
0
0
0
0
0
0
0
0
0
0
0
0
0
0
0
0
0
0
0
0
0
0
0
0
0
0
0
0
0
0
0
0
0
0
0
0
0
0
0
0
0
0
0
0
0
0
0
0
0
0
0
0
0
0
0
0
0
0
0
0
0
0
0
0
0
0
0
0
0
0
0
0
0
0
0
0
0
0
0
0
0
0
0
0
0
0
0
0
0
0
0
0
0
0
0
0
0
0
0
0
0
0
0
0
0
0
0
0
0
0
0
0
0
0
0
0
0
0
0
0
0
0
0
0
0
0
0
0
0
0
0
0
0
0
0
0
0
0
0
0
0
0
0
0
0
0
0
0
0
0
0
0
0
0
0
0
0
0
0
0
0
0
0
0
0
0
0
0
0
0
0
0
0
0
0
0
0
0
0
0
0
0
0
0
0
0
0
0
0
0
0
0
0
0
0
0
0
0
0
0
0
0
0
0
0
0
0
0
0
0
0
0
0
0
0
0
0
0
0
0
0
0
0
0
0
0
0
0
0
0
0
0
0
0
0
0
0
0
0
0
0
0
0
0
0
0
0
0
0
0
0
0
0
0
0
0
0
0
0
0
0
0
0
0
0
0
0
0
0
0
0
0
0
0
0
0
0
0
0
0
0
0
0
0
0
0
0
0
0
0
0
0
0
0
0
0
0
0
0
0
0
0
0
0
0
0
0
0
0
0
0
0
0
0
0
0
0
0
0
0
0
0
0
0
0
0
0
0
0
0
0
0
0
0
0
0
0
0
0
0
0
0
0
0
0
0
0
0
0
0
0
0
0
0
0
0
0
0
0
0
0
0
0
0
0
0
0
0
0
0
0
0
0
0
0
0
0
0
0
0
0
0
0
0
0
0
0
0
0
0
0
0
0
0
0
0
0
0
0
0
0
0
0
0
0
0
0
0
0
0
0
0
0
0
0
0
0
0
0
0
0
0
0
0
0
0
0
0
0
0
0
0
0
0
0
0
0
0
0
0
0
0
0
0
0
0
0
0
0
0
0
0
0
0
0
0
0
0
0
0
0
0
0
0
0
0
0
0
0
0
0
0
0
0
0
0
0
0
0
0
0
0
0
0
0
0
0
0
0
0
0
0
0
0
0
0
0
0
0
0
0
0
0
0
0
0
0
0
0
0
0
0
0
0
0
0
0
0
0
0
0
0
0
0
0
0
0
0
0
0
0
0
0
0
0
0
0
0
0
0
0
0
0
0
0
0
0
0
0
0
0
0
0
0
0
0
0
0
0
0
0
0
0
0
0
0
0
0
0
0
0
0
0
0
0
0
0
0
0
0
0
0
0
0
0
0
0
0
0
0
0
0
0
0
0
0
0
0
0
0
0
0
0
0
0
0
0
0
0
0
0
0
0
0
0
0
0
0
0
0
0
0
0
0
0
0
0
0
0
0
0
0
0
0
0
0
0
0
0
0
0
0
0
0
0
0
0
0
0
0
0
0
0
0
0
0
0
0
0
0
0
0
0
0
0
0
0
0
0
0
0
0
0
0
0
0
0
0
0
0
0
0
0
0
0
0
0
0
0
0
0
0
0
0
0
0
0
0
0
0
0
0
0
0
0
0
0
0
0
0
0
0
0
0
0
0
0
0
0
0
0
0
0
0
0
0
0
0
0
0
0
0
0
0
0
0
0
0
0
0
0
0
0
0
0
0
0
0
0
0
0
0
0
0
0
0
0
0
0
0
0
0
0
0
0
0
0
0
0
0
0
0
0
0
0
0
0
0
0
0
0
0
0
0
0
0
0
0
0
0
0
0
0
0
0
0
0
0
0
0
0
0
0
0
0
0
0
0
0
0
0
0
0
0
0
0
0
0
0
0
0
0
0
0
0
0
0
0
0
0
0
0
0
0
0
0
0
0
0
0
0
0
0
0
0
0
0
0
0
0
0
0
0
0
0
0
0
0
0
0
0
0
0
0
0
0
0
0
0
0
0
0
0
0
0
0
0
0
0
0
0
0
0
0
0
0
0
0
0
0
0
0
0
0
0
0
0
0
0
0
0
0
0
0
0
0
0
0
0
0
0
0
0
0
0
0
0
0
0
0
0
0
0
0
0
0
0
0
0
0
0
0
0
0
0
0
0
0
0
0
0
0
0
0
0
0
0
0
0
0
0
0
0
0
0
0
0
0
0
0
0
0
0
0
0
0
0
0
0
0
0
0
0
0
0
0
0
0
0
0
0
0
0
0
0
0
0
0
0
0
0
0
0
0
0
0
0
0
0
0
0
0
0
0
0
0
0
0
0
0
0
0
0
0
0
0
0
0
0
0
0
0
0
0
0
0
0
0
0
0
0
0
0
0
0
0
0
0
0
0
0
0
0
0
0
0
0
0
0
0
0
0
0
0
0
0
0
0
0
0
0
0
0
0
0
0
0
0
0
0
0
0
0
0
0
0
0
0
0
0
0
0
0
0
0
0
0
0
0
0
0
0
0
0
0
0
0
0
0
0
0
0
0
0
0
0
0
0
0
0
0
0
0
0
0
0
0
0
0
0
0
0
0
0
0
0
0
0
0
0
0
0
0
0
0
0
0
0
0
0
0
0
0
0
0
0
0
0
0
0
0
0
0
0
0
0
0
0
0
0
0
0
0
0
0
0
0
0
0
0
0
0
0
0
0
0
0
0
0
0
0
0
0
0
0
0
0
0
0
0
0
0
0
0
0
0
0
0
0
0
0
0
0
0
0
0
0
0
0
0
0
0
0
0
0
0
0
0
0
0
0
0
0
0
0
0
0
0
0
0
0
0
0
0
0
0
0
0
0
0
0
0
0
0
0
0
0
0
0
0
0
0
0
0
0
0
0
0
0
0
0
0
0
0
0
0
0
0
0
0
0
0
0
0
0
0
0
0
0
0
0
0
0
0
0
0
0
0
0
0
0
0
0
0
0
0
0
0
0
0
0
0
0
0
0
0
0
0
0
0
0
0
0
0
0
0
0
0
0
0
0
0
0
0
0
0
0
0
0
0
0
0
0
0
0
0
0
0
0
0
0
0
0
0
0
0
0
0
0
0
0
0
0
0
0
0
0
0
0
0
0
0
0
0
0
0
0
0
0
0
0
0
0
0
0
0
0
0
0
0
0
0
0
0
0
0
0
0
0
0
0
0
0
0
0
0
0
0
0
0
0
0
0
0
0
0
0
0
0
0
0
0
0
0
0
0
0
0
0
0
0
0
0
0
0
0
0
0
0
0
0
0
0
0
0
0
0
0
0
0
0
0
0
0
0
0
0
0
0
0
0
0
0
0
0
0
0
0
0
0
0
0
0
0
0
0
0
0
0
0
0
0
0
0
0
0
0
0
0
0
0
0
0
0
0
0
0
0
0
0
0
0
0
0
0
0
0
0
0
0
0
0
0
0
0
0
0
0
0
0
0
0
0
0
0
0
0
0
0
0
0
0
0
0
0
0
0
0
0
0
0
0
0
0
0
0
0
0
0
0
0
0
0
0
0
0
0
0
0
0
0
0
0
0
0
0
0
0
0
0
0
0
0
0
0
0
0
0
0
0
0
0
0
0
0
0
0
0
0
0
0
0
0
0
0
0
0
0
0
0
0
0
0
0
0
0
0
0
0
0
0
0
0
0
0
0
0
0
0
0
0
0
0
0
0
0
0
0
0
0
0
0
0
0
0
0
0
0
0
0
0
0
0
0
0
0
0
0
0
0
0
0
0
0
0
0
0
0
0
0
0
0
0
0
0
0
0
0
0
0
0
0
0
0
0
0
0
0
0
0
0
0
0
0
0
0
0
0
0
0
0
0
0
0
0
0
0
0
0
0
0
0
0
0
0
0
0
0
0
0
0
0
0
0
0
0
0
0
0
0
0
0
0
0
0
0
0
0
0
0
0
0
0
0
0
0
0
0
0
0
0
0
0
0
0
0
0
0
0
0
0
0
0
0
0
0
0
0
0
0
0
0
0
0
0
0
0
0
0
0
0
0
0
0
0
0
0
0
0
0
0
0
0
0
0
0
0
0
0
0
0
0
0
0
0
0
0
0
0
0
0
0
0
0
0
0
0
0
0
0
0
0
0
0
0
0
0
0
0
0
0
0
0
0
0
0
0
0
0
0
0
0
0
0
0
0
0
0
0
0
0
0
0
0
0
0
0
0
0
0
0
0
0
0
0
0
0
0
0
0
0
0
0
0
0
0
0
0
0
0
0
0
0
0
0
0
0
0
0
0
0
0
0
0
0
0
0
0
0
0
0
0
0
0
0
0
0
0
0
0
0
0
0
0
0
0
0
0
0
0
0
0
0
0
0
0
0
0
0
0
0
0
0
0
0
0
0
0
0
0
0
0
0
0
0
0
0
0
0
0
0
0
0
0
0
0
0
0
0
0
0
0
0
0
0
0
0
0
0
0
0
0
0
0
0
0
0
0
0
0
0
0
0
0
0
0
0
0
0
0
0
0
0
0
0
0
0
0
0
0
0
0
0
0
0
0
0
0
0
0
0
0
0
0
0
0
0
0
0
0
0
0
0
0
0
0
0
0
0
0
0
0
0
0
0
0
0
0
0
0
0
0
0
0
0
0
0
0
0
0
0
0
0
0
0
0
0
0
0
0
0
0
0
0
0
0
0
0
0
0
0
0
0
0
0
0
0
0
0
0
0
0
0
0
0
0
0
0
0
0
0
0
0
0
0
0
0
0
0
0
0
0
0
0
0
0
0
0
0
0
0
0
0
0
0
0
0
0
0
0
0
0
0
0
0
0
0
0
0
0
0
0
0
0
0
0
0
0
0
0
0
0
0
0
0
0
0
0
0
0
0
0
0
0
0
0
0
0
0
0
0
0
0
0
0
0
0
0
0
0
0
0
0
0
0
0
0
0
0
0
0
0
0
0
0
0
0
0
0
0
0
0
0
0
0
0
0
0
0
0
0
0
0
0
0
0
0
0
0
0
0
0
0
0
0
0
0
0
0
0
0
0
0
0
0
0
0
0
0
0
0
0
0
0
0
0
0
0
0
0
0
0
0
0
0
0
0
0
0
0
0
0
0
0
0
0
0
0
0
0
0
0
0
0
0
0
0
0
0
0
0
0
0
0
0
0
0
0
0
0
0
0
0
0
0
0
0
0
0
0
0
0
0
0
