0.42078
0.535407
0.647425
0.737536
0.786594
0.783834
0.73159
0.64392
0.540409
0.43905
0.350185
0.2736
0.20795
0.15313
0.10902
0.0751081
0.0500023
0.0306435
0.0127333
-0.00788975
-0.0341099
-0.0665361
-0.10304
-0.139072
-0.168716
-0.186213
-0.188029
-0.17404
-0.145151
-0.104914
-0.059334
-0.0170448
0.0125687
0.0214842
0.00428238
-0.0408962
-0.111855
-0.20249
-0.30369
-0.405163
0
1.17312
3.30182
6.30081
9.68874
12.6312
14.2114
13.8269
11.4994
7.90581
4.09759
1.05661
-0.674812
-1.11537
-0.690554
-0.0739426
0.457497
0.835849
1.0278
1.13992
1.20809
1.23275
1.21709
1.16879
1.10125
1.0331
0.985425
0.976919
1.01571
1.11035
1.24826
1.39671
1.52069
1.59559
1.61554
1.59418
1.55823
1.53686
1.55127
1.61234
1.71117
1.81556
1.88947
1.90881
1.87263
1.80499
1.74623
1.73725
1.80355
1.92436
2.07263
2.23539
2.40228
2.56172
2.70261
2.8162
2.89789
2.94687
2.96609
2.96204
2.94416
2.92375
2.91239
2.91995
2.95222
3.00836
3.08349
3.17279
3.27032
3.36961
3.46437
3.54965
3.62252
3.68217
3.72959
3.76682
3.7961
3.818
3.83138
3.83388
3.82184
3.79233
3.74503
3.68302
3.61199
3.5381
3.46541
3.39401
3.32087
3.24088
3.14837
3.03858
2.90879
2.75864
2.59001
2.40695
2.2157
2.02201
1.83162
1.6506
1.48493
1.34255
1.23527
1.16607
1.12421
1.09461
1.06362
1.02446
0.979815
0.940324
0.919657
0.931039
0.986363
1.07
1.15393
1.20843
1.21199
1.15657
1.04794
0.903175
0.747367
0.609064
0.505953
0.443446
0.428047
0.460555
0.534506
0.637333
0.752975
0.865232
0.962732
1.04017
1.09413
1.12431
1.13259
1.12207
1.09618
1.05876
1.01368
0.964549
0.915553
0.871426
0.837461
0.822281
0.835465
0.873403
0.919394
0.952079
0.953417
0.915811
0.845527
0.761185
0.68803
0.649999
0.65457
0.716999
0.833349
0.968406
1.08099
1.13856
1.12772
1.05758
0.955283
0.856075
0.790953
0.768385
0.774945
0.799729
0.833922
0.86812
0.894768
0.910109
0.915082
0.914877
0.917246
0.930041
0.962433
1.02143
1.09272
1.15281
1.17861
1.15762
1.0945
1.01062
0.936124
0.897792
0.907912
0.947659
1.00181
1.06031
1.11363
1.15458
1.17923
1.18689
1.17926
1.15944
1.13146
1.09851
1.06256
1.02488
0.986398
0.948142
0.91177
0.880795
0.860984
0.859032
0.881471
0.932516
1.01616
1.13204
1.26079
1.37876
1.46586
1.51201
1.51917
1.49829
1.4631
1.42398
1.38498
1.34578
1.30557
1.26472
1.22588
1.19397
1.17518
1.17557
1.19793
1.244
1.31463
1.40914
1.52513
1.65957
1.81145
1.97175
2.1234
2.2483
2.33157
2.36541
2.35084
2.2965
2.21509
2.11907
2.01763
1.91606
1.81664
1.72098
1.63127
1.55006
1.4816
1.43179
1.3995
1.3784
1.35927
1.33273
1.29198
1.2341
1.15985
1.07244
0.976223
0.87679
0.777994
0.683005
0.594982
0.516833
0.452001
0.409961
0.431938
0.648036
1.09814
1.67096
2.1742
2.38906
2.19379
1.63273
0.891766
0.216093
-0.231457
0
1.0459
2.97305
5.59153
8.41999
10.7987
12.1141
12.0254
10.5807
8.18343
5.44233
2.97225
1.21435
0.332058
0.209123
0.508762
0.731445
0.922408
1.07283
1.18184
1.26763
1.34022
1.40589
1.47006
1.53641
1.60644
1.67994
1.75565
1.83169
1.90601
1.97654
2.0413
2.0984
2.14596
2.18205
2.20516
2.21453
2.21069
2.19596
2.17465
2.15298
2.13843
2.13883
2.16124
2.20976
2.28537
2.38823
2.51615
2.66616
2.83617
3.01709
3.18918
3.33124
3.42583
3.46347
3.44522
3.38199
3.29042
3.18695
3.08296
2.98267
2.88635
2.7945
2.7099
2.63666
2.58032
2.55062
2.58403
2.76448
3.11423
3.50492
3.81737
3.96397
3.90145
3.64752
3.29187
2.98287
2.87789
3.02074
3.35311
3.76949
4.12879
4.32092
4.31364
4.15249
3.91968
3.68469
3.48014
3.30025
3.13009
2.96337
2.79738
2.63064
2.46261
2.29365
2.12501
1.95854
1.7964
1.64066
1.49215
1.3506
1.21507
1.08462
0.959067
0.839468
0.728106
0.628045
0.542233
0.471769
0.417724
0.379838
0.356903
0.346906
0.346451
0.350933
0.356505
0.361102
0.36524
0.372332
0.388362
0.420873
0.477487
0.565853
0.714152
0.950569
1.2395
1.51094
1.70121
1.77203
1.71936
1.57241
1.38366
1.21009
1.08904
1.00679
0.934677
0.858734
0.768414
0.647402
0.509726
0.388178
0.320496
0.333138
0.429657
0.589129
0.775208
0.951262
1.09431
1.21519
1.32289
1.42071
1.51175
1.5973
1.67161
1.7246
1.74856
1.74405
1.72152
1.69732
1.68599
1.69518
1.71304
1.71452
1.67316
1.57401
1.42138
1.23783
1.05577
0.906063
0.797125
0.71813
0.667908
0.644092
0.642091
0.655894
0.678889
0.704632
0.727451
0.743014
0.748599
0.742485
0.724176
0.694371
0.655117
0.609374
0.560851
0.514329
0.474654
0.446
0.431154
0.431036
0.44456
0.468859
0.499817
0.532878
0.563201
0.586924
0.601951
0.608415
0.608824
0.607812
0.611484
0.626444
0.658718
0.712171
0.787225
0.882915
0.998044
1.13007
1.27526
1.42919
1.58698
1.74356
1.89404
2.03465
2.16317
2.27918
2.38377
2.47895
2.56488
2.6409
2.70489
2.75189
2.77579
2.77137
2.73572
2.66861
2.57193
2.44891
2.30524
2.14878
1.9855
1.82056
1.6595
1.50807
1.37192
1.25576
1.16255
1.09337
1.04726
1.02149
1.01199
1.014
1.02274
1.03394
1.04426
1.0514
1.05397
1.0511
1.0421
1.02591
1.0007
0.96357
0.910874
0.838544
0.731414
0.564011
0.342762
0.0858585
-0.261781
0
1.15356
3.24572
6.05374
9.11825
11.8212
13.5134
13.7024
12.2523
9.49198
6.1402
3.04805
0.879045
-0.109869
-0.0885452
0.434703
0.795242
1.08985
1.29766
1.41891
1.50383
1.56168
1.59777
1.61745
1.62512
1.62458
1.61936
1.61312
1.6096
1.61236
1.62438
1.64688
1.67995
1.72351
1.77685
1.83906
1.90809
1.97874
2.04338
2.09452
2.12704
2.14008
2.13805
2.1299
2.1271
2.14066
2.17821
2.23865
2.31763
2.41136
2.51609
2.62776
2.73903
2.8407
2.9247
2.98563
3.02198
3.03652
3.03559
3.0276
3.02155
3.02531
3.0427
3.07847
3.13656
3.21944
3.33508
3.49234
3.67935
3.86427
4.01311
4.10048
4.1173
4.07317
3.99306
3.90965
3.85321
3.83861
3.85716
3.90007
3.95566
4.00931
4.04734
4.05978
4.04191
3.99422
3.92099
3.82806
3.72028
3.60061
3.46986
3.32803
3.17545
3.01319
2.8435
2.67054
2.49998
2.338
2.19175
2.06836
1.96741
1.88201
1.80245
1.71969
1.62862
1.52974
1.4288
1.33467
1.25635
1.19682
1.15492
1.1303
1.12086
1.12306
1.13237
1.14415
1.1547
1.16192
1.16552
1.16689
1.16855
1.17333
1.18344
1.20072
1.22425
1.24901
1.26864
1.27795
1.27531
1.26384
1.25078
1.24518
1.25459
1.28229
1.32378
1.3735
1.42498
1.47207
1.51036
1.53773
1.55389
1.55925
1.55372
1.53709
1.50706
1.46087
1.3963
1.3114
1.20226
1.07498
0.947745
0.841846
0.776504
0.764234
0.808073
0.901152
1.0284
1.16978
1.30448
1.41848
1.50397
1.55483
1.56906
1.54863
1.49891
1.42804
1.34642
1.26417
1.18934
1.12784
1.08322
1.05721
1.04723
1.04924
1.05954
1.07605
1.09864
1.12837
1.166
1.21098
1.2597
1.30639
1.34474
1.36985
1.37984
1.37667
1.36577
1.35491
1.3523
1.36387
1.39261
1.43869
1.50315
1.58387
1.67059
1.74864
1.80461
1.82972
1.82166
1.78415
1.72429
1.64884
1.56136
1.46321
1.35602
1.23864
1.1133
0.993982
0.899512
0.846742
0.843683
0.886253
0.96048
1.04923
1.14019
1.23125
1.32685
1.43827
1.59829
1.82433
2.07279
2.27654
2.37894
2.35886
2.23524
2.05306
1.86158
1.69673
1.5647
1.45431
1.35887
1.27634
1.20728
1.15367
1.11697
1.09821
1.09735
1.11277
1.14285
1.18186
1.22319
1.26089
1.2911
1.31279
1.32768
1.33938
1.35216
1.36969
1.39356
1.42407
1.46111
1.50403
1.55164
1.6022
1.65269
1.69664
1.7256
1.73076
1.70559
1.64844
1.56384
1.46154
1.35357
1.25046
1.15768
1.07458
0.999791
0.931007
0.866434
0.80552
0.748836
0.697315
0.651338
0.609727
0.571117
0.533957
0.497281
0.461335
0.427828
0.399691
0.380391
0.372848
0.378501
0.398775
0.433583
0.47734
0.516718
0.536981
0.525728
0.476501
0.391187
0.246596
0
0.459597
2.0381
4.79066
8.26318
11.5732
13.7195
13.9952
12.301
9.19498
5.64171
2.58852
0.596514
-0.289205
-0.393747
-0.088814
0.221443
0.508895
0.747382
0.913391
0.993999
0.994568
0.941214
0.874503
0.835394
0.849534
0.907799
0.988527
1.07527
1.15105
1.20264
1.22348
1.21471
1.18449
1.14605
1.11476
1.10364
1.11945
1.16137
1.22545
1.30717
1.3945
1.47521
1.54039
1.58686
1.61759
1.63996
1.66262
1.69223
1.73098
1.77623
1.82509
1.87533
1.92548
1.97532
2.02577
2.07849
2.13507
2.19619
2.26139
2.32906
2.39636
2.45999
2.51682
2.56453
2.602
2.6294
2.64803
2.65997
2.6677
2.67385
2.68091
2.69121
2.70696
2.73014
2.76237
2.80459
2.85752
2.92169
2.99373
3.06626
3.13042
3.17722
3.19889
3.18959
3.14569
3.06603
2.95218
2.81131
2.65259
2.48387
2.31316
2.1469
1.98919
1.83833
1.68815
1.5305
1.35872
1.17077
0.970703
0.768007
0.575113
0.403264
0.255248
0.134911
0.0429404
-0.0226081
-0.0653965
-0.0898757
-0.1006
-0.101608
-0.0967141
-0.0898983
-0.0847561
-0.0842764
-0.0904903
-0.104125
-0.1244
-0.149054
-0.174603
-0.196914
-0.212225
-0.217365
-0.210108
-0.188286
-0.151075
-0.103321
-0.0541823
-0.0136423
0.00997725
0.0120312
-0.00755873
-0.0447379
-0.0927805
-0.144167
-0.192506
-0.234358
-0.268183
-0.293236
-0.309342
-0.31687
-0.316653
-0.309919
-0.298247
-0.283635
-0.268539
-0.255798
-0.248441
-0.249312
-0.260619
-0.283441
-0.317283
-0.359795
-0.406796
-0.452671
-0.491132
-0.51624
-0.523526
-0.506776
-0.461776
-0.394545
-0.32084
-0.258034
-0.220489
-0.216049
-0.244623
-0.298935
-0.366904
-0.434653
-0.490066
-0.527328
-0.54494
-0.542643
-0.518881
-0.470552
-0.395045
-0.298802
-0.201692
-0.125209
-0.0864211
-0.0919738
-0.134845
-0.196012
-0.251232
-0.280442
-0.276522
-0.252249
-0.219449
-0.185445
-0.156513
-0.136603
-0.126922
-0.126361
-0.132458
-0.142473
-0.154035
-0.165827
-0.177238
-0.188052
-0.198206
-0.207575
-0.215846
-0.222467
-0.22671
-0.227764
-0.224903
-0.217693
-0.206052
-0.190643
-0.173318
-0.156738
-0.143496
-0.135328
-0.132531
-0.133833
-0.136805
-0.138667
-0.137172
-0.131336
-0.121554
-0.108503
-0.0929693
-0.0753482
-0.0553923
-0.0322676
-0.00486727
0.0277968
0.0661294
0.110091
0.159675
0.215095
0.277049
0.34688
0.426492
0.51802
0.623326
0.743787
0.881455
1.03808
1.21002
1.38105
1.52858
1.63134
1.67439
1.65234
1.56977
1.43839
1.27247
1.0849
0.887355
0.688875
0.495267
0.313134
0.151577
0.0192962
-0.0756635
-0.127355
-0.133263
-0.0951911
-0.0176176
0.0964482
0.229765
0.359004
0.46327
0.527806
0.545993
0.519315
0.455706
0.367084
0.266931
0.168201
0.0793423
0.00446072
-0.054631
-0.0967854
-0.1223
-0.13235
0
0.439988
1.27128
2.73529
4.94107
7.67308
10.3285
12.0738
12.1918
10.4552
7.30694
3.71705
0.769903
-0.810773
-0.940698
-0.122087
0.494007
0.92006
1.08324
1.0592
1.02113
0.991755
0.984183
1.00164
1.03772
1.08596
1.1392
1.19186
1.24125
1.28679
1.3296
1.37161
1.41467
1.45985
1.50727
1.55579
1.60299
1.64609
1.68292
1.71268
1.73646
1.75719
1.7792
1.80731
1.84574
1.89648
1.96004
2.03561
2.12086
2.21222
2.3044
2.39153
2.46828
2.53064
2.57648
2.60571
2.62025
2.62366
2.62074
2.61703
2.61794
2.6284
2.65219
2.69142
2.74628
2.81513
2.89506
2.98271
3.07516
3.1704
3.26752
3.36619
3.46602
3.56567
3.66142
3.74778
3.81899
3.87106
3.9035
3.9199
3.92716
3.93357
3.94635
3.96908
4.00343
4.04385
4.07868
4.09455
4.07982
4.02721
3.93477
3.80531
3.64476
3.46042
3.26106
3.0549
2.84737
2.64235
2.44329
2.25321
2.07453
1.90898
1.75764
1.6211
1.49963
1.39327
1.30186
1.22525
1.16339
1.11502
1.07745
1.04792
1.02431
1.00588
0.993478
0.989274
0.995975
1.01576
1.04887
1.09316
1.14583
1.20313
1.26068
1.31403
1.35915
1.39297
1.41341
1.41944
1.41095
1.38871
1.35431
1.31024
1.25988
1.20754
1.15792
1.11588
1.08735
1.08066
1.10106
1.14032
1.1833
1.213
1.21581
1.18549
1.1247
1.04394
0.958625
0.885373
0.834126
0.806828
0.81339
0.857909
0.920257
0.97371
0.994432
0.970809
0.90853
0.828721
0.759492
0.724586
0.731173
0.762858
0.811413
0.865726
0.913336
0.941274
0.940375
0.905869
0.838404
0.744986
0.639005
0.538438
0.461983
0.424069
0.424692
0.455386
0.511068
0.579788
0.64729
0.701028
0.732619
0.739145
0.723161
0.691592
0.653847
0.619564
0.596061
0.586064
0.588952
0.603655
0.625341
0.647064
0.662704
0.668904
0.666222
0.659054
0.654231
0.658668
0.67685
0.709631
0.752866
0.798752
0.839261
0.869303
0.88865
0.901769
0.915695
0.936911
0.968701
1.0087
1.05388
1.10075
1.14705
1.19289
1.24078
1.29453
1.35794
1.43451
1.52076
1.606
1.67627
1.71801
1.72123
1.68129
1.59923
1.48124
1.33744
1.18086
1.02463
0.878781
0.749105
0.638009
0.546712
0.476185
0.42589
0.393977
0.377632
0.373465
0.377741
0.386258
0.394699
0.399502
0.398227
0.389763
0.374269
0.352836
0.326928
0.297778
0.265946
0.231371
0.193464
0.15148
0.104957
0.0541519
0
-0.0938622
0.242836
1.35679
3.41847
6.25407
9.31606
11.8414
13.1407
12.8687
11.1433
8.46523
5.50199
2.85933
0.933494
-0.133227
-0.420664
-0.119354
0.142697
0.365349
0.534193
0.646356
0.725895
0.790352
0.845062
0.893667
0.938882
0.982201
1.02446
1.06639
1.10888
1.15281
1.19873
1.24649
1.29505
1.34291
1.38831
1.42931
1.46379
1.4888
1.50194
1.50173
1.48818
1.46374
1.43407
1.40794
1.39607
1.40901
1.46225
1.58715
1.75862
1.93227
2.0631
2.12459
2.1191
2.07481
2.03217
2.02704
2.07672
2.15997
2.26239
2.3769
2.49722
2.61686
2.72904
2.82856
2.91212
2.97864
3.02916
3.06644
3.09434
3.11701
3.13832
3.16156
3.18939
3.22442
3.26938
3.3271
3.40004
3.49608
3.62003
3.7588
3.88834
3.98297
4.02357
4.00283
3.92556
3.8049
3.65686
3.49587
3.33317
3.17405
3.02021
2.8719
2.72847
2.58767
2.44428
2.29159
2.12299
1.93393
1.72376
1.49681
1.26155
1.03397
0.833991
0.679395
0.581641
0.543227
0.557146
0.608577
0.678363
0.747412
0.80078
0.833091
0.842852
0.833325
0.81071
0.782156
0.754119
0.730524
0.713508
0.704275
0.703136
0.709542
0.719549
0.724949
0.716736
0.687911
0.636274
0.565933
0.486684
0.411281
0.351651
0.314776
0.299565
0.304906
0.327904
0.366253
0.44048
0.652619
1.03311
1.47425
1.77268
1.76537
1.44708
0.980165
0.584766
0.386901
0.350423
0.341214
0.338028
0.338417
0.341809
0.348059
0.356802
0.366844
0.3765
0.384243
0.389446
0.392824
0.396329
0.402536
0.413772
0.430857
0.453292
0.479878
0.508779
0.537711
0.56425
0.58605
0.600887
0.606811
0.602471
0.587158
0.561049
0.525314
0.482034
0.435265
0.390314
0.352784
0.327692
0.318637
0.327201
0.352705
0.39235
0.4417
0.495334
0.547816
0.594461
0.631849
0.657202
0.669118
0.667353
0.652697
0.626791
0.591915
0.550748
0.506118
0.460811
0.417451
0.378317
0.345679
0.321929
0.309467
0.310539
0.326906
0.359368
0.408166
0.474313
0.553275
0.632871
0.700169
0.74521
0.764037
0.759722
0.740924
0.718574
0.702136
0.696128
0.698648
0.707105
0.71902
0.731632
0.742211
0.749131
0.752423
0.754029
0.757662
0.768205
0.790656
0.828874
0.884469
0.955083
1.03654
1.12426
1.21319
1.29883
1.37786
1.44837
1.50982
1.56256
1.60719
1.64422
1.67351
1.69404
1.70388
1.70017
1.67988
1.64004
1.57835
1.49378
1.38715
1.26158
1.12257
0.977771
0.836396
0.708475
0.603098
0.527126
0.484108
0.481793
0.522875
0.592961
0.670197
0.733409
0.766762
0.762547
0.721609
0.651722
0.564709
0.473231
0.387204
0.310884
0.245101
0.189156
0.141746
0.10105
0.06507
0.0318697
0
-0.119403
0.310336
1.72617
4.28289
7.66921
11.1299
13.7121
14.6266
13.5644
10.8285
7.22295
3.73824
1.16853
-0.161814
-0.432946
-0.120733
0.174508
0.447131
0.677506
0.848159
0.975179
1.07049
1.13293
1.16439
1.16984
1.15632
1.13166
1.10319
1.07695
1.05654
1.04511
1.04558
1.06034
1.09079
1.13688
1.19668
1.26763
1.34394
1.4187
1.48598
1.54228
1.58732
1.62391
1.65679
1.69102
1.73025
1.77529
1.82482
1.87426
1.91799
1.95133
1.97224
1.98218
1.98601
1.99085
2.00431
2.03264
2.07782
2.13881
2.21352
2.29936
2.3933
2.4923
2.59375
2.69572
2.79698
2.89681
2.99462
3.08947
3.17918
3.25899
3.32216
3.36207
3.37408
3.35864
3.32347
3.2834
3.25714
3.26172
3.3066
3.38382
3.4847
3.59412
3.69501
3.77221
3.81503
3.81829
3.78184
3.70936
3.60691
3.48284
3.34461
3.1976
3.04518
2.88892
2.72909
2.56532
2.39718
2.22501
2.05037
1.87613
1.70628
1.54539
1.39788
1.26737
1.15615
1.06492
0.992706
0.937157
0.895284
0.863337
0.836449
0.810662
0.783967
0.757038
0.734019
0.722013
0.729101
0.761694
0.833691
0.940929
1.0607
1.16515
1.23144
1.2495
1.22425
1.17226
1.11507
1.07203
1.04952
1.04443
1.05604
1.08101
1.10942
1.12952
1.13089
1.10713
1.0575
0.987009
0.904811
0.82154
0.74656
0.684088
0.634134
0.597239
0.573887
0.564493
0.569642
0.590127
0.628897
0.690575
0.776116
0.871343
0.952989
0.997158
0.986856
0.917923
0.800952
0.658463
0.518693
0.408713
0.338637
0.302886
0.299692
0.328985
0.387417
0.473765
0.577368
0.681947
0.771838
0.835432
0.867522
0.869688
0.848672
0.813505
0.772516
0.731286
0.69162
0.653526
0.616109
0.577909
0.537336
0.493084
0.444522
0.392022
0.337173
0.282891
0.233336
0.19353
0.170174
0.177825
0.246221
0.385287
0.551633
0.686523
0.740408
0.696145
0.579657
0.450887
0.376796
0.398331
0.488544
0.615638
0.736385
0.812073
0.822038
0.767998
0.669237
0.553425
0.448464
0.371738
0.324172
0.303283
0.307243
0.333801
0.379917
0.441149
0.512029
0.586768
0.659947
0.726673
0.782668
0.825975
0.856574
0.876456
0.889597
0.901692
0.919536
0.95171
1.01478
1.1265
1.28178
1.44752
1.58516
1.66297
1.66254
1.58029
1.4271
1.22741
1.0162
0.831397
0.693983
0.59977
0.535317
0.491207
0.463041
0.446482
0.437004
0.430379
0.422999
0.412037
0.39554
0.372418
0.342407
0.306014
0.26443
0.219419
0.173172
0.128124
0.0869137
0.0521156
0.0255915
0.00832539
0.000208092
0
0.00817947
0.0194605
0.0312899
0.0380669
0.011116
0.542438
1.96089
4.27278
7.06873
9.64151
11.2543
11.4247
10.0845
7.56755
4.47635
1.51405
-0.681229
-1.70013
-1.50306
-0.448836
0.520797
1.18141
1.37672
1.17137
0.794884
0.471203
0.292357
0.245831
0.260268
0.302515
0.364618
0.45162
0.55514
0.6612
0.755703
0.829547
0.881715
0.91876
0.95093
0.986917
1.02985
1.07586
1.11931
1.1545
1.17819
1.19087
1.19628
1.19971
1.20595
1.21759
1.23485
1.25796
1.28723
1.32356
1.36835
1.42293
1.4877
1.56124
1.64046
1.72048
1.79539
1.86019
1.91238
1.95282
1.98584
2.01831
2.05814
2.1125
2.18577
2.27738
2.38605
2.51135
2.64768
2.77993
2.89137
2.96915
3.00876
3.01677
3.0101
3.01095
3.03905
3.10392
3.19449
3.29685
3.39815
3.48542
3.54818
3.57986
3.57788
3.54244
3.47505
3.37727
3.25388
3.10878
2.94434
2.76263
2.56662
2.36012
2.14744
1.93282
1.7201
1.51256
1.313
1.12399
0.948236
0.788802
0.64905
0.534345
0.458654
0.440248
0.464811
0.50416
0.526678
0.509403
0.447208
0.3543
0.257288
0.183434
0.149936
0.145292
0.157395
0.181286
0.212117
0.245339
0.27708
0.303781
0.32227
0.330656
0.328383
0.316906
0.300291
0.285263
0.281232
0.314343
0.425096
0.593794
0.768517
0.889787
0.918356
0.849539
0.708904
0.536724
0.37357
0.251699
0.170462
0.119482
0.0919416
0.0869955
0.0990288
0.120938
0.145822
0.1685
0.186305
0.198874
0.20716
0.212202
0.214359
0.213136
0.207602
0.19711
0.181732
0.16227
0.139863
0.11549
0.0897499
0.0628847
0.0349653
0.00630951
-0.0223465
-0.0498947
-0.0751089
-0.0969994
-0.11514
-0.129572
-0.140761
-0.149266
-0.155359
-0.158725
-0.15832
-0.152433
-0.138905
-0.115464
-0.0804655
-0.0325094
0.0311358
0.115136
0.216038
0.313547
0.381513
0.395652
0.342503
0.225423
0.0644279
-0.110233
-0.267785
-0.390138
-0.482959
-0.552099
-0.596442
-0.608249
-0.556696
-0.357063
0.0402694
0.520361
0.939322
1.15266
1.0726
0.71323
0.196032
-0.289269
-0.548966
-0.539832
-0.446387
-0.327457
-0.194101
-0.0470885
0.118659
0.329855
0.641026
1.01231
1.35551
1.57121
1.5997
1.45248
1.20661
0.967161
0.819235
0.787915
0.797576
0.815514
0.828918
0.826908
0.802114
0.751506
0.67638
0.581629
0.47451
0.363323
0.254886
0.15321
0.060319
-0.0223421
-0.0957691
-0.164202
-0.232016
-0.301501
-0.37105
-0.433833
-0.479243
-0.49485
-0.4413
-0.328866
-0.191648
-0.0728413
-0.0054142
0
-0.0435272
-0.117846
-0.204417
-0.293012
-0.381486
-0.470198
-0.60836
-0.178586
1.17279
3.49677
6.47544
9.48021
11.7413
12.5975
11.7595
9.46056
6.38688
3.39548
1.15706
-0.0773817
-0.472362
-0.391018
-0.252595
-0.110905
0.0353829
0.187123
0.339307
0.478429
0.587271
0.6508
0.662688
0.629409
0.569557
0.508105
0.467656
0.458944
0.472896
0.502982
0.540893
0.580179
0.619344
0.662627
0.717981
0.79298
0.893203
1.01397
1.13883
1.24727
1.32252
1.35761
1.35757
1.33723
1.31626
1.31327
1.33481
1.37882
1.44306
1.52454
1.61449
1.70268
1.77956
1.83813
1.87526
1.89212
1.89392
1.88908
1.88786
1.90022
1.95527
2.1138
2.36872
2.64414
2.84827
2.91487
2.83085
2.64023
2.42866
2.29714
2.32843
2.48187
2.69087
2.9479
3.22428
3.48376
3.69663
3.84475
3.92143
3.92857
3.87406
3.7714
3.64033
3.50526
3.3889
3.30148
3.23401
3.1707
3.09318
2.98458
2.83545
2.64663
2.42804
2.19438
1.96051
1.73586
1.52433
1.33452
1.17254
1.04357
0.951751
0.910088
0.911574
0.938481
0.969576
0.986078
0.976334
0.937387
0.873343
0.791941
0.701268
0.608441
0.517237
0.430424
0.350634
0.28049
0.222662
0.17985
0.154924
0.151406
0.171857
0.218306
0.29173
0.403713
0.56282
0.752575
0.940274
1.09258
1.18481
1.20594
1.1585
1.05529
0.915863
0.764315
0.625608
0.515647
0.441251
0.403383
0.402685
0.439949
0.513007
0.616928
0.744363
0.888363
1.03686
1.17428
1.28635
1.3623
1.39638
1.38796
1.34024
1.25815
1.1465
1.01135
0.859935
0.697805
0.529963
0.362251
0.201635
0.05569
-0.0661732
-0.147837
-0.164062
-0.10307
0.0013769
0.104232
0.163295
0.151293
0.062916
-0.0844499
-0.256225
-0.411283
-0.515327
-0.570345
-0.593987
-0.595028
-0.58066
-0.558409
-0.534223
-0.511106
-0.488727
-0.46415
-0.433462
-0.390657
-0.334417
-0.275493
-0.230619
-0.215807
-0.239498
-0.298803
-0.380386
-0.465234
-0.534921
-0.580503
-0.605438
-0.613698
-0.607452
-0.589273
-0.562696
-0.531462
-0.499102
-0.468651
-0.442489
-0.422448
-0.409498
-0.40389
-0.405201
-0.412389
-0.423928
-0.438025
-0.452931
-0.467265
-0.480262
-0.491827
-0.50233
-0.512264
-0.521812
-0.530476
-0.536897
-0.538969
-0.534223
-0.520283
-0.495027
-0.457579
-0.40916
-0.354364
-0.302148
-0.263295
-0.247543
-0.26119
-0.30513
-0.373883
-0.456086
-0.536557
-0.599577
-0.634072
-0.639428
-0.618514
-0.573424
-0.508724
-0.43042
-0.344833
-0.257602
-0.172488
-0.0916648
-0.0157551
0.055931
0.124969
0.193296
0.262687
0.334325
0.408522
0.484589
0.560905
0.634814
0.702463
0.758977
0.799354
0.819003
0.8144
0.783926
0.728569
0.652237
0.561471
0.464507
0.369844
0.284298
0.21209
0.154819
0.111036
0.0770436
0.0479332
0.0186967
-0.0148567
-0.0554908
-0.104243
-0.16037
-0.221199
-0.283365
-0.342513
-0.394158
-0.434462
-0.460919
-0.472801
-0.471219
-0.458777
-0.438931
-0.415214
-0.390595
-0.366876
-0.344809
-0.324398
-0.313457
0
0.908742
2.64098
5.17375
8.12622
10.8107
12.4568
12.5094
10.8605
7.90705
4.4093
1.22233
-0.986114
-1.92478
-1.71347
-0.749557
0.230326
0.966514
1.19364
1.07564
0.916425
0.75286
0.616438
0.525217
0.471546
0.438099
0.418733
0.412303
0.418349
0.436895
0.468945
0.515817
0.577112
0.645846
0.70824
0.750486
0.76408
0.750428
0.722512
0.702083
0.712527
0.76976
0.871905
1.00578
1.14791
1.27251
1.36014
1.40352
1.4084
1.38974
1.36541
1.35014
1.34802
1.35779
1.37887
1.41037
1.45134
1.50124
1.55981
1.62672
1.70092
1.78092
1.86249
1.94027
2.00921
2.06604
2.11029
2.14444
2.17331
2.20283
2.2388
2.28473
2.34242
2.41414
2.50441
2.62096
2.76127
2.89931
3.00049
3.03288
2.98114
2.8555
2.69036
2.53259
2.42571
2.45563
2.69973
3.04056
3.34426
3.50521
3.46739
3.23373
2.8638
2.45704
2.12185
1.91973
1.78667
1.67675
1.57531
1.47662
1.37664
1.27298
1.16529
1.05524
0.946294
0.842952
0.749635
0.670132
0.606369
0.558502
0.525345
0.505012
0.495502
0.495013
0.501937
0.514853
0.531938
0.550873
0.569317
0.585372
0.597979
0.607007
0.612983
0.616583
0.617963
0.616896
0.612898
0.605953
0.597199
0.589122
0.585024
0.587911
0.599578
0.618975
0.642438
0.664523
0.679399
0.682277
0.670514
0.644172
0.606051
0.56133
0.516593
0.478038
0.451094
0.439544
0.447852
0.4766
0.518532
0.56188
0.594407
0.606623
0.594229
0.559189
0.509239
0.456017
0.412256
0.387277
0.3839
0.400366
0.432831
0.477345
0.528344
0.579658
0.625361
0.660424
0.681079
0.685097
0.67179
0.641985
0.597953
0.543282
0.482623
0.42127
0.364605
0.317493
0.283771
0.265958
0.265235
0.281635
0.314315
0.361729
0.422918
0.497432
0.579509
0.655231
0.708028
0.722804
0.691041
0.614738
0.507356
0.391128
0.291598
0.230972
0.210815
0.225644
0.283883
0.401626
0.575041
0.764592
0.928229
1.03172
1.05711
1.00655
0.900268
0.770121
0.651088
0.571194
0.530734
0.518129
0.531554
0.558158
0.58286
0.5937
0.58649
0.566721
0.547639
0.545113
0.581861
0.666097
0.771431
0.857424
0.889002
0.852856
0.763681
0.65833
0.580783
0.563902
0.60042
0.668961
0.753532
0.83623
0.903658
0.952189
0.989974
1.03467
1.10747
1.23453
1.46114
1.74365
2.00665
2.18017
2.23056
2.16921
2.03769
1.88146
1.72893
1.58452
1.44272
1.30136
1.16027
1.02081
0.885989
0.760142
0.648566
0.55634
0.488696
0.454192
0.456459
0.486141
0.52858
0.568154
0.592193
0.593851
0.573174
0.536268
0.493003
0.453908
0.42601
0.411156
0.407748
0.411935
0.416564
0.413397
0.394992
0.356313
0.295733
0.215226
0.0596617
0
0.632055
2.29354
4.94876
8.07793
10.8221
12.3237
12.095
10.2279
7.34407
4.31728
1.90975
0.504635
0.0525365
0.220764
0.444818
0.641666
0.823102
0.987308
1.1372
1.27657
1.40848
1.53458
1.6545
1.76526
1.86111
1.93615
1.98743
2.01703
2.03222
2.04341
2.06103
2.09228
2.13747
2.19547
2.25826
2.31357
2.34977
2.3592
2.34046
2.29921
2.24703
2.19898
2.1702
2.1713
2.20303
2.2618
2.35254
2.50023
2.74323
3.04748
3.33825
3.52888
3.55586
3.41302
3.1597
2.89477
2.71289
2.67103
2.71241
2.79056
2.89048
3.0064
3.13455
3.26747
3.39619
3.51333
3.61472
3.70034
3.77397
3.84162
3.90915
3.98054
4.05525
4.1262
4.18355
4.21923
4.23089
4.22349
4.20778
4.19632
4.19857
4.21732
4.24676
4.27513
4.28931
4.2793
4.24036
4.17201
4.07501
3.94869
3.79371
3.61645
3.41964
3.20732
2.98646
2.76599
2.55492
2.36206
2.1925
2.04497
1.91451
1.79516
1.68272
1.57628
1.47806
1.39172
1.32127
1.26701
1.22392
1.18414
1.14012
1.08779
1.0284
0.968505
0.918174
0.888315
0.88347
0.903195
0.949828
1.03264
1.15448
1.29096
1.41269
1.49367
1.51944
1.49156
1.42602
1.34619
1.27329
1.21885
1.17733
1.14223
1.11033
1.07955
1.05005
1.02449
1.00743
1.00406
1.01859
1.05482
1.1159
1.19646
1.28023
1.34976
1.39196
1.40238
1.38694
1.36041
1.34201
1.34948
1.39316
1.46624
1.56207
1.67244
1.78256
1.87587
1.9388
1.96301
1.94674
1.89513
1.81933
1.73441
1.65643
1.5991
1.56737
1.55921
1.57172
1.60337
1.65206
1.71519
1.78965
1.87102
1.95353
2.03018
2.09284
2.13327
2.1449
2.12353
2.06859
1.98428
1.87992
1.76927
1.66853
1.59736
1.6013
1.69404
1.83397
1.96138
2.0258
2.0054
1.91056
1.77463
1.64027
1.54818
1.5107
1.51555
1.5511
1.6105
1.68807
1.7722
1.85052
1.91222
1.94991
1.96043
1.94462
1.90628
1.85077
1.7843
1.71282
1.64057
1.57087
1.50647
1.44958
1.40195
1.36507
1.34134
1.33369
1.34382
1.37275
1.41996
1.48466
1.56017
1.63723
1.70594
1.75781
1.78737
1.79276
1.77551
1.73982
1.69237
1.6411
1.59265
1.55358
1.52964
1.52515
1.54139
1.57879
1.63614
1.71094
1.79946
1.8972
2.00023
2.10417
2.20311
2.29043
2.3603
2.40832
2.43226
2.43232
2.41057
2.36991
2.31287
2.24077
2.15526
2.05805
1.94994
1.83276
1.71001
1.58675
1.46903
1.3627
1.27239
1.20188
1.15373
1.12864
1.12355
1.13067
1.14121
1.14788
1.14644
1.13625
1.11961
1.09996
1.07965
1.05795
1.03002
0.987598
0.921363
0.823797
0.69176
0.527875
0.340409
0.141792
0
0.399013
1.59783
3.77847
6.79403
10.0949
12.8556
14.273
13.8964
11.8263
8.68215
5.35187
2.6427
0.99533
0.387069
0.455675
0.596345
0.723242
0.835277
0.927513
0.998294
1.04916
1.08117
1.09692
1.10035
1.09647
1.09106
1.09025
1.09983
1.12819
1.19629
1.33759
1.53824
1.74375
1.88973
1.92829
1.84887
1.68335
1.49374
1.34852
1.29642
1.31357
1.36264
1.42611
1.49603
1.56586
1.63096
1.689
1.73981
1.78457
1.82489
1.86181
1.89533
1.92439
1.94734
1.96264
1.96958
1.96862
1.96128
1.9498
1.93654
1.92364
1.91288
1.90612
1.90567
1.91467
1.93762
1.99466
2.15096
2.43022
2.75255
2.99733
3.06501
2.93407
2.67862
2.43278
2.31778
2.37519
2.50026
2.64017
2.78137
2.91605
3.03615
3.13049
3.19072
3.21033
3.18407
3.11001
2.99185
2.84019
2.67161
2.50553
2.35968
2.24492
2.17368
2.13223
2.0948
2.03206
1.92083
1.75152
1.53143
1.28243
1.03409
0.814445
0.629449
0.484764
0.378955
0.305511
0.256268
0.224651
0.207456
0.204615
0.217641
0.250244
0.296827
0.345761
0.383105
0.397534
0.384498
0.347939
0.299142
0.253371
0.225516
0.222187
0.242512
0.284105
0.343819
0.416312
0.494985
0.570106
0.62824
0.657376
0.648122
0.596807
0.509
0.401047
0.297413
0.223683
0.19779
0.214375
0.258676
0.320137
0.385869
0.443438
0.483159
0.499454
0.491135
0.460799
0.413593
0.355719
0.293107
0.230206
0.169658
0.112675
0.0600808
0.0132293
-0.0255945
-0.0538695
-0.0690307
-0.0693116
-0.0545608
-0.026701
0.010359
0.0513775
0.0906297
0.122894
0.144719
0.154938
0.1547
0.14704
0.13609
0.126096
0.12046
0.12099
0.127137
0.13695
0.147624
0.155647
0.15757
0.150683
0.133552
0.106367
0.0710453
0.031077
-0.0089039
-0.0437542
-0.0686986
-0.0802599
-0.0761425
-0.055843
-0.0207154
0.0262899
0.0810216
0.138195
0.191617
0.234599
0.261808
0.269815
0.257801
0.228
0.18564
0.13819
0.0939625
0.0603495
0.042025
0.0385855
0.0483613
0.0683411
0.0946437
0.123467
0.151806
0.177745
0.200203
0.218646
0.232953
0.243196
0.249617
0.2527
0.253262
0.252452
0.251646
0.252248
0.25546
0.262052
0.272294
0.286014
0.30254
0.320743
0.338968
0.354937
0.366112
0.370055
0.364913
0.349915
0.325767
0.294831
0.261011
0.229332
0.204949
0.192505
0.19547
0.216149
0.258218
0.317672
0.383901
0.446232
0.498109
0.54008
0.580237
0.631768
0.70847
0.825561
1.00342
1.2224
1.4394
1.61176
1.71086
1.72621
1.66214
1.5323
1.35705
1.1635
0.982255
0.83267
0.721227
0.644337
0.593552
0.564224
0.550634
0.54632
0.54512
0.541942
0.533201
0.516936
0.492749
0.461941
0.426498
0.389157
0.353005
0.320983
0.295296
0.276868
0.26577
0.260277
0.256833
0.25119
0.239339
0.218409
0.18728
0.146781
0.0994125
0.0486909
0
0.384354
1.35573
3.04199
5.32405
7.80445
9.91239
11.0966
11.0105
9.6226
7.23716
4.42406
1.86239
0.123067
-0.540171
-0.277671
0.0297256
0.300222
0.507673
0.643046
0.730637
0.780946
0.805748
0.815391
0.819223
0.823589
0.835048
0.860613
0.906843
0.990968
1.12188
1.27348
1.40682
1.48716
1.50001
1.45714
1.39019
1.33589
1.32143
1.34547
1.39226
1.45363
1.52525
1.60321
1.68359
1.76236
1.8347
1.89493
1.93809
1.9602
1.95959
1.93832
1.90302
1.8646
1.83664
1.83266
1.8627
1.92699
2.03023
2.1673
2.31787
2.45942
2.57335
2.64943
2.68738
2.69576
2.68907
2.68392
2.69408
2.7251
2.77784
2.85066
2.94242
3.04654
3.15579
3.26448
3.36997
3.47306
3.57696
3.68594
3.80357
3.92458
4.03708
4.12648
4.18022
4.19059
4.15488
4.07365
3.94888
3.78496
3.59252
3.38077
3.15766
2.93148
2.71071
2.50217
2.31094
2.14111
1.99472
1.8716
1.76957
1.68481
1.6125
1.54734
1.48419
1.4189
1.34895
1.27387
1.1953
1.11671
1.04269
0.977923
0.926341
0.891379
0.87375
0.86959
0.873009
0.877683
0.878471
0.872566
0.859931
0.842971
0.825647
0.812321
0.806104
0.808384
0.819282
0.838214
0.863493
0.892183
0.921204
0.947974
0.970853
0.989254
1.00341
1.01388
1.02101
1.02455
1.02364
1.01701
1.00357
0.983008
0.956275
0.925698
0.894689
0.867094
0.846247
0.834851
0.834054
0.841925
0.854688
0.867696
0.876561
0.878113
0.870987
0.85572
0.834409
0.810102
0.785781
0.763548
0.744714
0.729366
0.71648
0.704915
0.694343
0.685839
0.681816
0.685248
0.698472
0.722062
0.753504
0.789379
0.825152
0.856086
0.878101
0.888326
0.885315
0.869023
0.840697
0.803224
0.759688
0.714525
0.673299
0.641442
0.623264
0.621055
0.634595
0.661248
0.696634
0.735648
0.773588
0.807365
0.835035
0.855898
0.870227
0.878828
0.882576
0.881943
0.877024
0.868143
0.856305
0.843935
0.835785
0.838759
0.860494
0.907224
0.981583
1.08124
1.199
1.32437
1.44618
1.55588
1.64869
1.72301
1.78006
1.82248
1.8522
1.86994
1.87478
1.86437
1.8361
1.7884
1.72167
1.63864
1.54409
1.4441
1.34499
1.25152
1.16729
1.09493
1.03573
0.989559
0.955013
0.9298
0.911087
0.895068
0.878141
0.857899
0.833754
0.807165
0.781291
0.760059
0.747816
0.748274
0.758526
0.768693
0.765301
0.735037
0.668404
0.562
0.418924
0.247569
0.0596547
-0.131319
0
0.77208
2.24793
4.39696
6.98183
9.58068
11.6647
12.7216
12.4066
10.6878
7.91934
4.77648
2.032
0.256923
-0.397619
-0.19358
0.107988
0.382703
0.608092
0.771699
0.88675
0.96642
1.02287
1.07158
1.12882
1.20926
1.35451
1.5703
1.8055
1.99288
2.08193
2.06251
1.96667
1.84867
1.75689
1.71612
1.70903
1.72062
1.75044
1.79876
1.86606
1.95199
2.05427
2.16859
2.28755
2.39974
2.4941
2.56305
2.60463
2.62298
2.62715
2.62854
2.63773
2.66183
2.70142
2.75262
2.81195
2.87683
2.94483
3.01405
3.08316
3.15129
3.21787
3.28254
3.34519
3.40612
3.46634
3.52757
3.59217
3.66277
3.74176
3.83059
3.9293
4.03641
4.14849
4.26049
4.36608
4.45856
4.5334
4.58873
4.62575
4.64846
4.66267
4.67447
4.68841
4.70644
4.72147
4.71877
4.68029
4.59085
4.44372
4.24391
4.00767
3.75871
3.52213
3.31045
3.12496
2.97007
2.84692
2.75105
2.6751
2.61068
2.55009
2.48766
2.42046
2.34833
2.2733
2.19853
2.12702
2.06057
1.9999
1.94446
1.89252
1.84206
1.79169
1.74157
1.69514
1.6597
1.64447
1.65757
1.70281
1.77763
1.87434
1.97813
2.0733
2.14758
2.1948
2.2149
2.21204
2.19192
2.16007
2.12307
2.08537
2.05196
2.0284
2.01981
49
326
587
879
1157
1411
1690
1959
2217
2512
2790
3075
3367
3621
2189
2332
2475
2620
2765
2911
3052
3195
3339
3485
3635
3706
0
0
0
0
0
0
0
0
0
0
0
0
0
0
0
0
0
0
0
0
0
0
0
0
0
0
0
0
0
0
0
0
0
0
0
0
0
0
0
0
0
0
0
0
0
0
0
0
0
0
0
0
0
0
0
0
0
0
0
0
0
0
0
0
0
0
0
0
0
0
0
0
0
0
0
0
0
0
0
0
0
0
0
0
0
0
0
0
0
0
0
0
0
0
0
0
0
0
0
0
0
0
0
0
0
0
0
0
0
0
0
0
0
0
0
0
0
0
0
0
0
0
0
0
0
0
0
0
0
0
0
0
0
0
0
0
0
0
0
0
0
0
0
0
0
0
0
0
0
0
0
0
0
0
0
0
0
0
0
0
0
0
0
0
0
0
0
0
0
0
0
0
0
0
0
0
0
0
0
0
0
0
0
0
0
0
0
0
0
0
0
0
0
0
0
0
0
0
0
0
0
0
0
0
0
0
0
0
0
0
0
0
0
0
0
0
0
0
0
0
0
0
0
0
0
0
0
0
0
0
0
0
0
0
0
0
0
0
0
0
0
0
0
0
0
0
0
0
0
0
0
0
0
0
0
0
0
0
0
0
0
0
0
0
0
0
0
0
0
0
0
0
0
0
0
0
0
0
0
0
0
0
0
0
0
0
0
0
0
0
0
0
0
0
0
0
0
0
0
0
0
0
0
0
0
0
0
0
0
0
0
0
0
0
0
0
0
0
0
0
0
0
0
0
0
0
0
0
0
0
0
0
0
0
0
0
0
0
0
0
0
0
0
0
0
0
0
0
0
0
0
0
0
0
0
0
0
0
0
0
0
0
0
0
0
0
0
0
0
0
0
0
0
0
0
0
0
0
0
0
0
0
0
0
0
0
0
0
0
0
0
0
0
0
0
0
0
0
0
0
0
0
0
0
0
0
0
0
0
0
0
0
0
0
0
0
0
0
0
0
0
0
0
0
0
0
0
0
0
0
0
0
0
0
0
0
0
0
0
0
0
0
0
0
0
0
0
0
0
0
0
0
0
0
0
0
0
0
0
0
0
0
0
0
0
0
0
0
0
0
0
0
0
0
0
0
0
0
0
0
0
0
0
0
0
0
0
0
0
0
0
0
0
0
0
0
0
0
0
0
0
0
0
0
0
0
0
0
0
0
0
0
0
0
0
0
0
0
0
0
0
0
0
0
0
0
0
0
0
0
0
0
0
0
0
0
0
0
0
0
0
0
0
0
0
0
0
0
0
0
0
0
0
0
0
0
0
0
0
0
0
0
0
0
0
0
0
0
0
0
0
0
0
0
0
0
0
0
0
0
0
0
0
0
0
0
0
0
0
0
0
0
0
0
0
0
0
0
0
0
0
0
0
0
0
0
0
0
0
0
0
0
0
0
0
0
0
0
0
0
0
0
0
0
0
0
0
0
0
0
0
0
0
0
0
0
0
0
0
0
0
0
0
0
0
0
0
0
0
0
0
0
0
0
0
0
0
0
0
0
0
0
0
0
0
0
0
0
0
0
0
0
0
0
0
0
0
0
0
0
0
0
0
0
0
0
0
0
0
0
0
0
0
0
0
0
0
0
0
0
0
0
0
0
0
0
0
0
0
0
0
0
0
0
0
0
0
0
0
0
0
0
0
0
0
0
0
0
0
0
0
0
0
0
0
0
0
0
0
0
0
0
0
0
0
0
0
0
0
0
0
0
0
0
0
0
0
0
0
0
0
0
0
0
0
0
0
0
0
0
0
0
0
0
0
0
0
0
0
0
0
0
0
0
0
0
0
0
0
0
0
0
0
0
0
0
0
0
0
0
0
0
0
0
0
0
0
0
0
0
0
0
0
0
0
0
0
0
0
0
0
0
0
0
0
0
0
0
0
0
0
0
0
0
0
0
0
0
0
0
0
0
0
0
0
0
0
0
0
0
0
0
0
0
0
0
0
0
0
0
0
0
0
0
0
0
0
0
0
0
0
0
0
0
0
0
0
0
0
0
0
0
0
0
0
0
0
0
0
0
0
0
0
0
0
0
0
0
0
0
0
0
0
0
0
0
0
0
0
0
0
0
0
0
0
0
0
0
0
0
0
0
0
0
0
0
0
0
0
0
0
0
0
0
0
0
0
0
0
0
0
0
0
0
0
0
0
0
0
0
0
0
0
0
0
0
0
0
0
0
0
0
0
0
0
0
0
0
0
0
0
0
0
0
0
0
0
0
0
0
0
0
0
0
0
0
0
0
0
0
0
0
0
0
0
0
0
0
0
0
0
0
0
0
0
0
0
0
0
0
0
0
0
0
0
0
0
0
0
0
0
0
0
0
0
0
0
0
0
0
0
0
0
0
0
0
0
0
0
0
0
0
0
0
0
0
0
0
0
0
0
0
0
0
0
0
0
0
0
0
0
0
0
0
0
0
0
0
0
0
0
0
0
0
0
0
0
0
0
0
0
0
0
0
0
0
0
0
0
0
0
0
0
0
0
0
0
0
0
0
0
0
0
0
0
0
0
0
0
0
0
0
0
0
0
0
0
0
0
0
0
0
0
0
0
0
0
0
0
0
0
0
0
0
0
0
0
0
0
0
0
0
0
0
0
0
0
0
0
0
0
0
0
0
0
0
0
0
0
0
0
0
0
0
0
0
0
0
0
0
0
0
0
0
0
0
0
0
0
0
0
0
0
0
0
0
0
0
0
0
0
0
0
0
0
0
0
0
0
0
0
0
0
0
0
0
0
0
0
0
0
0
0
0
0
0
0
0
0
0
0
0
0
0
0
0
0
0
0
0
0
0
0
0
0
0
0
0
0
0
0
0
0
0
0
0
0
0
0
0
0
0
0
0
0
0
0
0
0
0
0
0
0
0
0
0
0
0
0
0
0
0
0
0
0
0
0
0
0
0
0
0
0
0
0
0
0
0
0
0
0
0
0
0
0
0
0
0
0
0
0
0
0
0
0
0
0
0
0
0
0
0
0
0
0
0
0
0
0
0
0
0
0
0
0
0
0
0
0
0
0
0
0
0
0
0
0
0
0
0
0
0
0
0
0
0
0
0
0
0
0
0
0
0
0
0
0
0
0
0
0
0
0
0
0
0
0
0
0
0
0
0
0
0
0
0
0
0
0
0
0
0
0
0
0
0
0
0
0
0
0
0
0
0
0
0
0
0
0
0
0
0
0
0
0
0
0
0
0
0
0
0
0
0
0
0
0
0
0
0
0
0
0
0
0
0
0
0
0
0
0
0
0
0
0
0
0
0
0
0
0
0
0
0
0
0
0
0
0
0
0
0
0
0
0
0
0
0
0
0
0
0
0
0
0
0
0
0
0
0
0
0
0
0
0
0
0
0
0
0
0
0
0
0
0
0
0
0
0
0
0
0
0
0
0
0
0
0
0
0
0
0
0
0
0
0
0
0
0
0
0
0
0
0
0
0
0
0
0
0
0
0
0
0
0
0
0
0
0
0
0
0
0
0
0
0
0
0
0
0
0
0
0
0
0
0
0
0
0
0
0
0
0
0
0
0
0
0
0
0
0
0
0
0
0
0
0
0
0
0
0
0
0
0
0
0
0
0
0
0
0
0
0
0
0
0
0
0
0
0
0
0
0
0
0
0
0
0
0
0
0
0
0
0
0
0
0
0
0
0
0
0
0
0
0
0
0
0
0
0
0
0
0
0
0
0
0
0
0
0
0
0
0
0
0
0
0
0
0
0
0
0
0
0
0
0
0
0
0
0
0
0
0
0
0
0
0
0
0
0
0
0
0
0
0
0
0
0
0
0
0
0
0
0
0
0
0
0
0
0
0
0
0
0
0
0
0
0
0
0
0
0
0
0
0
0
0
0
0
0
0
0
0
0
0
0
0
0
0
0
0
0
0
0
0
0
0
0
0
0
0
0
0
0
0
0
0
0
0
0
0
0
0
0
0
0
0
0
0
0
0
0
0
0
0
0
0
0
0
0
0
0
0
0
0
0
0
0
0
0
0
0
0
0
0
0
0
0
0
0
0
0
0
0
0
0
0
0
0
0
0
0
0
0
0
0
0
0
0
0
0
0
0
0
0
0
0
0
0
0
0
0
0
0
0
0
0
0
0
0
0
0
0
0
0
0
0
0
0
0
0
0
0
0
0
0
0
0
0
0
0
0
0
0
0
0
0
0
0
0
0
0
0
0
0
0
0
0
0
0
0
0
0
0
0
0
0
0
0
0
0
0
0
0
0
0
0
0
0
0
0
0
0
0
0
0
0
0
0
0
0
0
0
0
0
0
0
0
0
0
0
0
0
0
0
0
0
0
0
0
0
0
0
0
0
0
0
0
0
0
0
0
0
0
0
0
0
0
0
0
0
0
0
0
0
0
0
0
0
0
0
0
0
0
0
0
0
0
0
0
0
0
0
0
0
0
0
0
0
0
0
0
0
0
0
0
0
0
0
0
0
0
0
0
0
0
0
0
0
0
0
0
0
0
0
0
0
0
0
0
0
0
0
0
0
0
0
0
0
0
0
0
0
0
0
0
0
0
0
0
0
0
0
0
0
0
0
0
0
0
0
0
0
0
0
0
0
0
0
0
0
0
0
0
0
0
0
0
0
0
0
0
0
0
0
0
0
0
0
0
0
0
0
0
0
0
0
0
0
0
0
0
0
0
0
0
0
0
0
0
0
0
0
0
0
0
0
0
0
0
0
0
0
0
0
0
0
0
0
0
0
0
0
0
0
0
0
0
0
0
0
0
0
0
0
0
0
0
0
0
0
0
0
0
0
0
0
0
0
0
0
0
0
0
0
0
0
0
0
0
0
0
0
0
0
0
0
0
0
0
0
0
0
0
0
0
0
0
0
0
0
0
0
0
0
0
0
0
0
0
0
0
0
0
0
0
0
0
0
0
0
0
0
0
0
0
0
0
0
0
0
0
0
0
0
0
0
0
0
0
0
0
0
0
0
0
0
0
0
0
0
0
0
0
0
0
0
0
0
0
0
0
0
0
0
0
0
0
0
0
0
0
0
0
0
0
0
0
0
0
0
0
0
0
0
0
0
0
0
0
0
0
0
0
0
0
0
0
0
0
0
0
0
0
0
0
0
0
0
0
0
0
0
0
0
0
0
0
0
0
0
0
0
0
0
0
0
0
0
0
0
0
0
0
0
0
0
0
0
0
0
0
0
0
0
0
0
0
0
0
0
0
0
0
0
0
0
0
0
0
0
0
0
0
0
0
0
0
0
0
0
0
0
0
0
0
0
0
0
0
0
0
0
0
0
0
0
0
0
0
0
0
0
0
0
0
0
0
0
0
0
0
0
0
0
0
0
0
0
0
0
0
0
0
0
0
0
0
0
0
0
0
0
0
0
0
0
0
0
0
0
0
0
0
0
0
0
0
0
0
0
0
0
0
0
0
0
0
0
0
0
0
0
0
0
0
0
0
0
0
0
0
0
0
0
0
0
0
0
0
0
0
0
0
0
0
0
0
0
0
0
0
0
0
0
0
0
0
0
0
0
0
0
0
0
0
0
0
0
0
0
0
0
0
0
0
0
0
0
0
0
0
0
0
0
0
0
0
0
0
0
0
0
0
0
0
0
0
0
0
0
0
0
0
0
0
0
0
0
0
0
0
0
0
0
0
0
0
0
0
0
0
0
0
0
0
0
0
0
0
0
0
0
0
0
0
0
0
0
0
0
0
0
0
0
0
0
0
0
0
0
0
0
0
0
0
0
0
0
0
0
0
0
0
0
0
0
0
0
0
0
0
0
0
0
0
0
0
0
0
0
0
0
0
0
0
0
0
0
0
0
0
0
0
0
0
0
0
0
0
0
0
0
0
0
0
0
0
0
0
0
0
0
0
0
0
0
0
0
0
0
0
0
0
0
0
0
0
0
0
0
0
0
0
0
0
0
0
0
0
0
0
0
0
0
0
0
0
0
0
0
0
0
0
0
0
0
0
0
0
0
0
0
0
0
0
0
0
0
0
0
0
0
0
0
0
0
0
0
0
0
0
0
0
0
0
0
0
0
0
0
0
0
0
0
0
0
0
0
0
0
0
0
0
0
0
0
0
0
0
0
0
0
0
0
0
0
0
0
0
0
0
0
0
0
0
0
0
0
0
0
0
0
0
0
0
0
0
0
0
0
0
0
0
0
0
0
0
0
0
0
0
0
0
0
0
0
0
0
0
0
0
0
0
0
0
0
0
0
0
0
0
0
0
0
0
0
0
0
0
0
0
0
0
0
0
0
0
0
0
0
0
0
0
0
0
0
0
0
0
0
0
0
0
0
0
0
0
0
0
0
0
0
0
0
0
0
0
0
0
0
0
0
0
0
0
0
0
0
0
0
0
0
0
0
0
0
0
0
0
0
0
0
0
0
0
0
0
0
0
0
0
0
0
0
0
0
0
0
0
0
0
0
0
0
0
0
0
0
0
0
0
0
0
0
0
0
0
0
0
0
0
0
0
0
0
0
0
0
0
0
0
0
0
0
0
0
0
0
0
0
0
0
0
0
0
0
0
0
0
0
0
0
0
0
0
0
0
0
0
0
0
0
0
0
0
0
0
0
0
0
0
0
0
0
0
0
0
0
0
0
0
0
0
0
0
0
0
0
0
0
0
0
0
0
0
0
0
0
0
0
0
0
0
0
0
0
0
0
0
0
0
0
0
0
0
0
0
0
0
0
0
0
0
0
0
0
0
0
0
0
0
0
0
0
0
0
0
0
0
0
0
0
0
0
0
0
0
0
0
0
0
0
0
0
0
0
0
0
0
0
0
0
0
0
0
0
0
0
0
0
0
0
0
0
0
0
0
0
0
0
0
0
0
0
0
0
0
0
0
0
0
0
0
0
0
0
0
0
0
0
0
0
0
0
0
0
0
0
0
0
0
0
0
0
0
0
0
0
0
0
0
0
0
0
0
0
0
0
0
0
0
0
0
0
0
0
0
0
0
0
0
0
0
0
0
0
0
0
0
0
0
0
0
0
0
0
0
0
0
0
0
0
0
0
0
0
0
0
0
0
0
0
0
0
0
0
0
0
0
0
0
0
0
0
0
0
0
0
0
0
0
0
0
0
0
0
0
0
0
0
0
0
0
0
0
0
0
0
0
0
0
0
0
0
0
0
0
0
0
0
0
0
0
0
0
0
0
0
0
0
0
0
0
0
0
0
0
0
0
0
0
0
0
0
0
0
0
0
0
0
0
0
0
0
0
0
0
0
0
0
0
0
0
0
0
0
0
0
0
0
0
0
0
0
0
0
0
0
0
0
0
0
0
0
0
0
0
0
0
0
0
0
0
0
0
0
0
0
0
0
0
0
0
0
0
0
0
0
0
0
0
0
0
0
0
0
0
0
0
0
0
0
0
0
0
0
0
0
0
0
0
0
0
0
0
0
0
0
0
0
0
0
0
0
0
0
0
0
0
0
0
0
0
0
0
0
0
0
0
0
0
0
0
0
0
0
0
0
0
0
0
0
0
0
0
0
0
0
0
0
0
0
0
0
0
0
0
0
0
0
0
0
0
0
0
0
0
0
0
0
0
0
0
0
0
0
0
0
0
0
0
0
0
0
0
0
0
0
0
0
0
0
0
0
0
0
0
0
0
0
0
0
0
0
0
0
0
0
0
0
0
0
0
0
0
0
0
0
0
0
0
0
0
0
0
0
0
0
0
0
0
0
0
0
0
0
0
0
0
0
0
0
0
0
0
0
0
0
0
0
0
0
0
0
0
0
0
0
0
0
0
0
0
0
0
0
0
0
0
0
0
0
0
0
0
0
0
0
0
0
0
0
0
0
0
0
0
0
0
0
0
0
0
0
0
0
0
0
0
0
0
0
0
0
0
0
0
0
0
0
0
0
0
0
0
0
0
0
0
0
0
0
0
0
0
0
0
0
0
0
0
0
0
0
0
0
0
0
0
0
0
0
0
0
0
0
0
0
0
0
0
0
0
0
0
0
0
0
0
0
0
0
0
0
0
0
0
0
0
0
0
0
0
0
0
0
0
0
0
0
0
0
0
0
0
0
0
0
0
0
0
0
0
0
0
0
0
0
0
0
0
0
0
0
0
0
0
0
0
0
0
0
0
0
0
0
0
0
0
0
0
0
0
0
0
0
0
0
0
0
0
0
0
0
0
0
0
0
0
0
0
0
0
0
0
0
0
0
0
0
0
0
0
0
0
0
0
0
0
0
0
0
0
0
0
0
0
0
0
0
0
0
0
0
0
0
0
0
0
0
0
0
0
0
0
0
0
0
0
0
0
0
0
0
0
0
0
0
0
0
0
0
0
0
0
0
0
0
0
0
0
0
0
0
0
0
0
0
0
0
0
0
0
0
0
0
0
0
0
0
0
0
0
0
0
0
0
0
0
0
0
0
0
0
0
0
0
0
0
0
0
0
0
0
0
0
0
0
0
0
0
0
0
0
0
0
