2.02573
2.04411
2.02697
1.97675
1.90103
1.81156
1.72277
1.64839
1.59946
1.6066
1.67873
1.78026
1.85851
1.86361
1.76615
1.56436
1.27902
0.940535
0.577515
0.208425
-0.159688
0
1.0382
3.22005
6.40748
9.94846
12.8496
14.189
13.5648
11.3155
8.3526
5.68676
3.93753
3.12377
2.83138
2.59364
2.44987
2.32208
2.21491
2.13583
2.08332
2.05142
2.03254
2.02033
2.01152
2.0061
2.00588
2.01244
2.025
2.04108
2.05605
2.06551
2.06741
2.06343
2.05884
2.06091
2.07638
2.10917
2.15734
2.21658
2.28319
2.35327
2.42352
2.49173
2.55648
2.61796
2.67766
2.73844
2.8045
2.88105
2.9733
3.08501
3.21697
3.36534
3.52481
3.68396
3.82988
3.952
4.04479
4.10898
4.15084
4.17988
4.20563
4.23478
4.26972
4.30628
4.33588
4.34838
4.33478
4.28882
4.20726
4.08933
3.93621
3.75354
3.54999
3.33363
3.11214
2.89343
2.68537
2.49508
2.32837
2.18889
2.07765
1.99295
1.93054
1.88348
1.84439
1.80727
1.76864
1.72798
1.68737
1.65057
1.62167
1.60396
1.599
1.60698
1.62706
1.65813
1.6994
1.75048
1.81434
1.89276
1.97587
2.04809
2.09326
2.10153
2.07402
2.02193
1.96033
1.90016
1.84327
1.78464
1.72046
1.64909
1.57317
1.50068
1.44362
1.41451
1.42263
1.47176
1.56862
1.69762
1.83337
1.95093
2.0321
2.06868
2.06228
2.02168
1.95895
1.88533
1.80839
1.73009
1.64924
1.56385
1.47269
1.37623
1.27793
1.18446
1.11335
1.14623
1.38551
1.74823
2.07767
2.23915
2.18713
1.97
1.68734
1.44113
1.30858
1.27285
1.27669
1.29633
1.32217
1.34457
1.35568
1.35082
1.32896
1.29233
1.24538
1.19364
1.14292
1.09778
1.06437
1.04812
1.0536
1.08356
1.13782
1.21486
1.30641
1.40195
1.49132
1.56717
1.62613
1.66837
1.6958
1.70989
1.71045
1.69536
1.66201
1.60927
1.53922
1.45802
1.37553
1.30442
1.2577
1.24622
1.27637
1.3485
1.46251
1.60668
1.75553
1.88296
1.96885
2.00332
1.98697
1.92764
1.83562
1.71988
1.5898
1.45236
1.31191
1.17208
1.03647
0.908402
0.790361
0.683522
0.586631
0.496611
0.409262
0.32026
0.225682
0.123554
0.0139484
-0.116519
0
0.713129
2.3062
4.81176
7.83082
10.5665
12.1284
11.9626
10.1441
7.33786
4.45274
2.21727
0.933203
0.500246
0.613952
0.758044
0.875802
0.979372
1.06676
1.13825
1.19563
1.24027
1.27384
1.29785
1.31358
1.32318
1.33056
1.34166
1.36349
1.40234
1.4617
1.53894
1.63129
1.73001
1.82496
1.90733
1.97209
2.01934
2.0542
2.08542
2.12297
2.1752
2.24524
2.33182
2.43331
2.54401
2.65617
2.76306
2.86093
2.94998
3.034
3.1189
3.21064
3.31346
3.42774
3.55153
3.68273
3.81945
3.96031
4.10513
4.25553
4.41501
4.58266
4.74329
4.87202
4.94204
4.93325
4.83778
4.66091
4.41919
4.13772
3.84771
3.57517
3.32933
3.11124
2.92418
2.77193
2.64931
2.5476
2.45681
2.36819
2.27626
2.17982
2.08168
1.9873
1.90272
1.83098
1.77415
1.73342
1.70628
1.68857
1.67576
1.66426
1.65219
1.63973
1.62874
1.62193
1.62193
1.62972
1.64492
1.66678
1.693
1.72024
1.7451
1.76473
1.77747
1.78313
1.78311
1.78026
1.77855
1.78237
1.79576
1.82617
1.88895
1.98711
2.09165
2.16037
2.15485
2.05926
1.89017
1.69072
1.51146
1.38911
1.31597
1.26903
1.24516
1.24211
1.25878
1.29854
1.37663
1.51111
1.69064
1.87517
2.0192
2.08832
2.06854
1.96714
1.80876
1.62955
1.46966
1.35622
1.2899
1.25949
1.25477
1.2698
1.30153
1.34695
1.40306
1.46675
1.53442
1.60259
1.668
1.72758
1.77761
1.81302
1.83055
1.82776
1.80402
1.76147
1.70548
1.64409
1.58636
1.54016
1.51
1.49423
1.49094
1.49684
1.50877
1.52487
1.54521
1.57162
1.60691
1.65381
1.71535
1.79461
1.89212
1.99662
2.08439
2.12868
2.10673
2.00804
1.84092
1.63319
1.42517
1.25719
1.1492
1.08467
1.0497
1.04131
1.05462
1.08357
1.12164
1.16086
1.19054
1.19921
1.17565
1.11011
0.996057
0.807941
0.556078
0.261987
-0.154515
0
1.05541
3.07632
5.73218
8.33943
10.0926
10.415
9.24157
7.05287
4.61858
2.60301
1.29193
0.595487
0.274276
0.361051
0.475715
0.581345
0.646731
0.639988
0.542858
0.36199
0.130424
-0.102069
-0.284615
-0.257726
0.132999
0.667643
1.12214
1.35119
1.32236
1.09999
0.788659
0.474844
0.213649
0.0514709
-0.020249
-0.0311539
0.00117931
0.0660738
0.155309
0.262725
0.381752
0.506034
0.63035
0.751213
0.866795
0.976151
1.07763
1.16816
1.24486
1.30312
1.33948
1.35506
1.35744
1.35944
1.37483
1.41298
1.4749
1.55251
1.63144
1.69567
1.73212
1.73324
1.69735
1.62727
1.5281
1.4052
1.2646
1.10944
0.940144
0.755943
0.55707
0.345961
0.12611
-0.0960461
-0.311571
-0.50204
-0.626151
-0.681875
-0.696585
-0.714901
-0.777266
-0.901408
-1.07671
-1.27214
-1.45052
-1.58111
-1.67233
-1.73453
-1.76895
-1.77443
-1.74951
-1.69513
-1.61889
-1.53694
-1.46796
-1.42754
-1.42462
-1.45912
-1.52155
-1.59555
-1.66278
-1.70909
-1.73154
-1.73669
-1.73321
-1.73121
-1.73817
-1.75593
-1.77998
-1.80138
-1.81052
-1.80116
-1.77574
-1.74027
-1.70093
-1.66454
-1.63661
-1.62001
-1.61447
-1.61691
-1.62253
-1.6261
-1.62359
-1.61283
-1.5926
-1.56248
-1.52272
-1.47415
-1.41794
-1.35547
-1.28816
-1.21811
-1.15032
-1.09332
-1.05651
-1.04707
-1.06618
-1.10675
-1.15429
-1.19143
-1.20447
-1.18879
-1.15606
-1.1153
-1.07678
-1.0488
-1.03542
-1.03569
-1.04452
-1.05439
-1.05752
-1.0496
-1.02828
-0.991829
-0.940408
-0.87589
-0.801016
-0.719815
-0.636138
-0.552857
-0.471388
-0.391698
-0.312817
-0.233687
-0.154036
-0.0752497
-0.000990295
0.0636811
0.113754
0.145965
0.160176
0.160007
0.15259
0.147506
0.158161
0.223567
0.388991
0.608697
0.797311
0.867712
0.774917
0.543645
0.260595
0.0298671
-0.0869942
-0.131233
-0.162621
-0.199091
-0.251736
-0.325099
-0.416817
-0.519378
-0.629839
0
1.29018
3.18857
5.47325
7.73771
9.45498
10.1518
9.62261
8.051
5.94184
3.89017
2.33251
1.42018
1.05421
1.02234
1.00135
0.979189
0.956671
0.935141
0.917343
0.907195
0.908808
0.925557
0.959072
1.00855
1.07265
1.14485
1.21764
1.28449
1.34147
1.38778
1.42512
1.45545
1.4796
1.49672
1.50398
1.49994
1.48804
1.47791
1.48318
1.51671
1.58564
1.68335
1.7981
1.92391
2.0548
2.186
2.3147
2.43986
2.56187
2.68195
2.80164
2.92218
3.0442
3.16743
3.29054
3.41064
3.52283
3.62136
3.70058
3.75582
3.78431
3.78557
3.7612
3.71424
3.64816
3.56591
3.47037
3.36318
3.2446
3.11411
2.97127
2.81631
2.6506
2.47675
2.2986
2.12086
1.94857
1.78652
1.63877
1.50814
1.39599
1.30238
1.22619
1.16407
1.11018
1.05789
1.001
0.935019
0.858164
0.771935
0.680866
0.591549
0.51108
0.445988
0.403798
0.384697
0.380406
0.379479
0.371415
0.350314
0.316785
0.277562
0.243142
0.22436
0.226651
0.253721
0.311352
0.38552
0.45176
0.486747
0.477924
0.430018
0.364724
0.312432
0.299197
0.335481
0.400718
0.478744
0.559471
0.634704
0.699777
0.753764
0.798449
0.836689
0.870917
0.902619
0.931889
0.958117
0.980591
0.998877
1.013
1.02339
1.03063
1.03521
1.03709
1.03577
1.03035
1.01969
1.00269
0.978546
0.946926
0.908105
0.863111
0.813926
0.763751
0.716887
0.678701
0.655055
0.659372
0.720355
0.835469
0.969249
1.07584
1.12043
1.09614
1.02653
0.951993
0.908351
0.909811
0.933801
0.964888
0.994363
1.01671
1.03114
1.04149
1.0546
1.07807
1.1171
1.17227
1.24207
1.32445
1.41663
1.51498
1.61395
1.70479
1.7788
1.82873
1.85042
1.84396
1.81382
1.76725
1.71162
1.65193
1.59002
1.52608
1.46004
1.39275
1.32667
1.26563
1.21384
1.17931
1.16752
1.16248
1.13631
1.05777
0.903401
0.666376
0.359908
0.0143929
0
0.783605
2.47097
4.96434
7.89079
10.5969
12.311
12.4638
10.9978
8.43519
5.62603
3.33411
1.92953
1.35576
1.31902
1.41643
1.48536
1.54066
1.58001
1.60378
1.61497
1.61832
1.61909
1.62142
1.62716
1.63496
1.63795
1.62672
1.59285
1.53252
1.44892
1.3523
1.25792
1.18228
1.13709
1.1288
1.15958
1.22618
1.32141
1.43636
1.56248
1.69409
1.82877
1.96629
2.10819
2.25732
2.41038
2.55318
2.66696
2.73725
2.76231
2.75648
2.74668
2.76341
2.83067
2.94789
3.13821
3.41463
3.73419
4.02682
4.24282
4.34753
4.319
4.15536
3.88445
3.56224
3.25209
2.99086
2.75369
2.51793
2.27715
2.02899
1.77231
1.50833
1.24069
0.975119
0.718636
0.478634
0.261858
0.0735271
-0.0832893
-0.207967
-0.302169
-0.369388
-0.414567
-0.443813
-0.463465
-0.4791
-0.495052
-0.514212
-0.538093
-0.567101
-0.600926
-0.638889
-0.680119
-0.723571
-0.767963
-0.811489
-0.851582
-0.88488
-0.907384
-0.913419
-0.891498
-0.819484
-0.685658
-0.525061
-0.386858
-0.316644
-0.338443
-0.444131
-0.595808
-0.741165
-0.835246
-0.864166
-0.857122
-0.834775
-0.805764
-0.778273
-0.760616
-0.758746
-0.775509
-0.809934
-0.856841
-0.907092
-0.948779
-0.969407
-0.958692
-0.89426
-0.768314
-0.611858
-0.46669
-0.36959
-0.339769
-0.374197
-0.451335
-0.540713
-0.614374
-0.659282
-0.681996
-0.691913
-0.694869
-0.696689
-0.702381
-0.715018
-0.735026
-0.759997
-0.785119
-0.804379
-0.812146
-0.804162
-0.773682
-0.722247
-0.65956
-0.59759
-0.546289
-0.51046
-0.489139
-0.477545
-0.470247
-0.463809
-0.457642
-0.452621
-0.450086
-0.451174
-0.456503
-0.466138
-0.479594
-0.495504
-0.51191
-0.525815
-0.533332
-0.53032
-0.513441
-0.480013
-0.427815
-0.365069
-0.303685
-0.255588
-0.228962
-0.225948
-0.242577
-0.270654
-0.300524
-0.323638
-0.336572
-0.338094
-0.326431
-0.300674
-0.260612
-0.206612
-0.139762
-0.0615705
0.026038
0.120705
0.219621
0.31681
0.404265
0.473896
0.5192
0.536702
0.526517
0.491772
0.437238
0.367846
0.288567
0.203521
0.114854
0.0238136
-0.0687482
-0.162454
-0.257431
-0.354258
-0.45388
-0.557724
-0.666325
-0.778514
-0.892389
-1.00616
-1.11846
-0.756619
0
1.33836
3.39547
6.04813
8.79144
10.8431
11.476
10.3991
7.94032
4.90277
2.17779
0.350158
-0.480557
-0.601992
-0.475076
-0.395841
-0.32447
-0.263136
-0.213084
-0.174218
-0.14545
-0.124602
-0.108667
-0.0942162
-0.0778666
-0.0567307
-0.0288625
0.00649099
0.0491269
0.0980867
0.151591
0.206922
0.260164
0.30651
0.341638
0.362667
0.369339
0.364966
0.356752
0.355113
0.371972
0.418272
0.500595
0.617112
0.762849
0.930828
1.1122
1.29651
1.47495
1.64215
1.7969
1.94168
2.08129
2.22076
2.36348
2.51024
2.65711
2.79556
2.91551
3.00818
3.06842
3.09588
3.09468
3.07211
3.03663
2.99582
2.9545
2.91371
2.87154
2.82366
2.76384
2.68508
2.58088
2.44665
2.2808
2.0854
1.86613
1.6317
1.3927
1.15994
0.943391
0.753504
0.598321
0.482225
0.406419
0.368832
0.36829
0.398518
0.446986
0.500573
0.547673
0.579962
0.593413
0.588392
0.568909
0.54124
0.51225
0.487236
0.468797
0.45801
0.452717
0.447474
0.436564
0.416586
0.388389
0.357473
0.332483
0.322222
0.339915
0.384563
0.440393
0.486146
0.504921
0.492068
0.457428
0.421162
0.405351
0.425532
0.497097
0.59666
0.685141
0.724873
0.695645
0.603107
0.476495
0.357167
0.283013
0.266751
0.287776
0.329717
0.386712
0.450242
0.51166
0.564235
0.604146
0.630679
0.645614
0.65201
0.652848
0.650037
0.644146
0.634867
0.621938
0.605985
0.588839
0.573121
0.561314
0.55475
0.552624
0.552998
0.553405
0.551316
0.544803
0.532951
0.515977
0.495074
0.472158
0.449361
0.42866
0.411728
0.399736
0.393457
0.393107
0.397184
0.403231
0.409083
0.413899
0.41888
0.427294
0.443727
0.472731
0.520457
0.59202
0.683008
0.772141
0.834116
0.847802
0.804049
0.710719
0.592313
0.482918
0.414239
0.403125
0.431509
0.489805
0.557624
0.614154
0.644668
0.645085
0.623474
0.598018
0.591779
0.625483
0.708212
0.841185
1.01361
1.19236
1.34186
1.43584
1.46518
1.43932
1.38183
1.32199
1.28521
1.28009
1.29923
1.33397
1.3778
1.42294
1.46159
1.48713
1.49488
1.48248
1.45005
1.40014
1.33765
1.26862
1.19882
1.13309
1.07446
1.02268
0.971788
0.911568
0.819703
0.60157
0.26574
-0.125799
-0.504119
-0.847304
0
1.7227
4.20828
7.17335
10.1318
12.4356
13.4619
12.8999
10.9552
8.29718
5.74061
3.85541
2.75508
2.18482
1.8054
1.68353
1.58412
1.50032
1.43627
1.39297
1.36833
1.35858
1.35973
1.36864
1.38382
1.4055
1.43517
1.47472
1.52554
1.58753
1.65889
1.73686
1.81813
1.89894
1.97531
2.04367
2.10146
2.14734
2.18147
2.20556
2.22293
2.23829
2.25729
2.28592
2.32953
2.39192
2.47506
2.57912
2.70267
2.84263
2.99465
3.15368
3.31468
3.47316
3.62563
3.77
3.90566
4.03327
4.15391
4.26823
4.3758
4.47327
4.55367
4.60705
4.6236
4.59694
4.52617
4.41614
4.27584
4.11596
3.94706
3.77729
3.61077
3.44961
3.29514
3.14776
3.00666
2.86934
2.73269
2.59404
2.4522
2.30832
2.16637
2.033
1.91601
1.82265
1.7581
1.72476
1.72226
1.74806
1.79825
1.86764
1.9518
2.04724
2.14434
2.23083
2.29549
2.3312
2.33721
2.31888
2.28475
2.2422
2.19404
2.13943
2.07651
2.00322
1.91993
1.83029
1.74079
1.6595
1.59437
1.54858
1.5251
1.52583
1.55105
1.60119
1.68165
1.79783
1.93752
2.07271
2.17323
2.21657
2.19717
2.12981
2.04465
1.97548
1.94604
1.95218
1.97586
2.00468
2.02355
2.01793
1.97674
1.89467
1.77369
1.62012
1.44981
1.29093
1.1709
1.1088
1.11015
1.16603
1.25687
1.35916
1.45194
1.52542
1.58004
1.61373
1.62458
1.61194
1.5764
1.52019
1.4476
1.365
1.28035
1.20245
1.13921
1.0962
1.07561
1.07616
1.09348
1.12151
1.15405
1.18606
1.21433
1.2375
1.2555
1.26878
1.27775
1.28267
1.28355
1.28075
1.27547
1.26997
1.26741
1.27134
1.28469
1.3091
1.34474
1.3903
1.44166
1.49372
1.54163
1.58207
1.61405
1.63908
1.66069
1.68343
1.71167
1.74798
1.79324
1.84734
1.9075
1.9677
2.02079
2.06056
2.08322
2.08822
2.0782
2.05806
2.03364
2.01038
1.99213
1.98054
1.97663
1.98107
1.99389
2.01445
2.04203
2.07469
2.10971
2.14463
2.17786
2.20918
2.2396
2.27079
2.30415
2.33981
2.37612
2.40426
2.19472
1.52234
0.609391
-0.184897
-0.544833
0
1.49168
3.84318
6.76277
9.74857
12.1284
13.238
12.7129
10.7221
7.94757
5.26648
3.3283
2.30278
1.94102
1.85678
1.80824
1.76576
1.72849
1.69812
1.67557
1.66101
1.65386
1.65297
1.65686
1.66387
1.67251
1.68162
1.69063
1.69993
1.71099
1.72642
1.74962
1.78415
1.83278
1.8966
1.97705
2.06975
2.16531
2.25306
2.32365
2.37127
2.39481
2.39783
2.38747
2.37305
2.36394
2.36687
2.38663
2.42643
2.48724
2.567
2.66147
2.76538
2.8728
2.97766
3.0747
3.16034
3.23301
3.29315
3.34273
3.38451
3.42074
3.45183
3.47524
3.48491
3.47222
3.42932
3.35232
3.24313
3.10888
2.95936
2.80356
2.64713
2.49136
2.33591
2.17993
2.02285
1.86497
1.70791
1.55449
1.40839
1.2735
1.15315
1.04959
0.963857
0.895582
0.841912
0.798403
0.76077
0.725884
0.692285
0.660048
0.630057
0.603379
0.579382
0.554802
0.524732
0.484356
0.430981
0.365521
0.292906
0.221309
0.160508
0.117639
0.0955799
0.1065
0.167892
0.270797
0.38128
0.461302
0.482696
0.438133
0.343742
0.231886
0.137753
0.0865572
0.0740377
0.0846108
0.110026
0.147349
0.191836
0.234502
0.266147
0.279819
0.272823
0.247987
0.213154
0.178622
0.153341
0.141486
0.138668
0.139134
0.136024
0.122049
0.0908175
0.0377956
-0.0391014
-0.139202
-0.259833
-0.399612
-0.544012
-0.669738
-0.753641
-0.779297
-0.742376
-0.652212
-0.528578
-0.3951
-0.272518
-0.169995
-0.0865212
-0.0253288
0.0124354
0.0270757
0.0204693
-0.00377455
-0.0404284
-0.0831922
-0.125571
-0.16179
-0.188588
-0.204596
-0.208531
-0.199472
-0.177005
-0.141313
-0.0930861
-0.0337607
0.0345522
0.109312
0.187041
0.264473
0.339491
0.41165
0.482198
0.553492
0.628678
0.7108
0.79542
0.871753
0.926343
0.94787
0.93075
0.875985
0.789608
0.680378
0.558254
0.43437
0.315655
0.207179
0.11335
0.0368042
-0.0220421
-0.0649921
-0.0955595
-0.118073
-0.13666
-0.154419
-0.172934
-0.192302
-0.211391
0
0.534968
1.58895
3.30214
5.51803
7.69688
9.09849
9.16646
7.8582
5.67943
3.3964
1.63087
0.609915
0.197416
0.12108
0.179545
0.235984
0.290025
0.340634
0.387158
0.429301
0.466751
0.498309
0.522317
0.537392
0.542482
0.537814
0.525721
0.510898
0.499841
0.499602
0.516238
0.551973
0.604915
0.673886
0.756141
0.847736
0.944371
1.04198
1.13708
1.22716
1.31083
1.38778
1.45857
1.52427
1.58624
1.64589
1.70473
1.76442
1.82699
1.89484
1.97063
2.05694
2.15586
2.26846
2.39418
2.53089
2.67504
2.82162
2.96211
3.08722
3.18876
3.26105
3.30175
3.31171
3.29407
3.25279
3.1914
3.11397
3.02362
2.92114
2.80667
2.68052
2.54333
2.39636
2.24164
2.08177
1.92007
1.76038
1.60684
1.46363
1.33516
1.2241
1.13193
1.05912
1.00535
0.969677
0.952575
0.956998
0.97675
0.998486
1.0073
0.991503
0.947072
0.879032
0.798936
0.719856
0.651859
0.596695
0.552642
0.521993
0.506827
0.50949
0.533149
0.588821
0.669978
0.758377
0.833093
0.879284
0.894541
0.889091
0.87969
0.880805
0.89809
0.923894
0.952617
0.97957
1.00222
1.02072
1.03696
1.05271
1.06765
1.07741
1.07496
1.05412
1.01335
0.958
0.899667
0.852964
0.831033
0.837943
0.868045
0.923165
1.00046
1.0842
1.15454
1.19455
1.19441
1.15373
1.08072
0.988256
0.888473
0.788753
0.690755
0.594191
0.500182
0.412328
0.337145
0.283221
0.259099
0.270819
0.32002
0.40316
0.512019
0.635249
0.760502
0.877313
0.980149
1.06642
1.13417
1.18344
1.21598
1.2348
1.24359
1.2462
1.24601
1.24559
1.24638
1.2488
1.25241
1.25613
1.2585
1.25792
1.25273
1.24116
1.22192
1.19446
1.15929
1.11826
1.07441
1.03147
0.993533
0.965259
0.942192
0.910851
0.853102
0.752563
0.600475
0.398183
0.155411
-0.113953
-0.395616
0
0.970124
2.64145
5.00603
7.75331
10.2468
11.7313
11.6937
10.152
7.66968
5.06744
3.01801
1.7806
1.21505
1.01071
1.14499
1.29762
1.46265
1.63584
1.80752
1.96553
2.09915
2.20672
2.28888
2.34739
2.38459
2.40195
2.40127
2.38354
2.35071
2.30744
2.26198
2.22509
2.20742
2.21625
2.2501
2.30777
2.38039
2.45746
2.53047
2.59543
2.65355
2.70996
2.77134
2.84345
2.92738
3.02158
3.1245
3.23376
3.34619
3.45819
3.56619
3.66736
3.76016
3.84468
3.9227
3.99734
4.07237
4.15137
4.23747
4.33247
4.43521
4.54004
4.63564
4.7077
4.7421
4.72689
4.65446
4.52324
4.33858
4.1124
3.8613
3.60384
3.35564
3.12325
2.90935
2.71717
2.54833
2.40315
2.27939
2.17307
2.08002
1.99683
1.92142
1.85302
1.79157
1.73859
1.69224
1.64489
1.58643
1.50831
1.4081
1.29222
1.17565
1.07889
1.06368
1.21593
1.48379
1.7582
1.94489
1.99488
1.90619
1.71056
1.45972
1.2184
1.05885
1.00006
1.00957
1.05638
1.12267
1.19929
1.27613
1.34411
1.39652
1.42971
1.44302
1.43816
1.41813
1.38643
1.34714
1.30347
1.25792
1.21301
1.17141
1.13587
1.10882
1.09226
1.08778
1.09722
1.11932
1.14821
1.17635
1.19614
1.20163
1.18968
1.16033
1.11655
1.06342
1.00717
0.95325
0.905288
0.865606
0.836783
0.818386
0.807085
0.799033
0.791543
0.784235
0.779095
0.779328
0.787517
0.803941
0.825565
0.847678
0.864825
0.872454
0.868136
0.851955
0.826061
0.79375
0.758638
0.723898
0.691946
0.665349
0.646985
0.639502
0.64523
0.665732
0.701446
0.751609
0.814526
0.888071
0.970158
1.05873
1.15336
1.2522
1.34853
1.43127
1.48697
1.50333
1.47285
1.39514
1.27709
1.13116
0.972408
0.815152
0.667446
0.532659
0.411932
0.306208
0.21662
0.143561
0.0864243
0.0443166
0.0160567
0
-0.00354207
0.000142527
0.262885
0.930129
2.2293
4.28208
6.8623
9.34208
10.9079
10.9682
9.50114
7.08969
4.60807
2.76755
1.81489
1.54336
1.53216
1.3053
1.08765
0.887388
0.714974
0.580023
0.489226
0.44452
0.442433
0.475056
0.532432
0.605502
0.688262
0.777922
0.875105
0.98583
1.11918
1.27142
1.42092
1.53895
1.60072
1.59451
1.52523
1.41275
1.28743
1.18428
1.12757
1.11943
1.15327
1.22097
1.31512
1.43022
1.55971
1.69688
1.83565
1.97139
2.10101
2.22299
2.33731
2.44513
2.54839
2.64934
2.75007
2.85217
2.95639
3.06252
3.16946
3.27463
3.37284
3.45695
3.51886
3.55028
3.54399
3.49515
3.40222
3.26755
3.09728
2.9008
2.69122
2.47918
2.27184
2.07473
1.89147
1.72207
1.56463
1.41687
1.27768
1.14813
1.03145
0.932111
0.854222
0.800753
0.770773
0.760055
0.761868
0.768355
0.771999
0.766935
0.749892
0.720564
0.681485
0.637458
0.594582
0.559017
0.535678
0.526286
0.531117
0.548271
0.572241
0.596397
0.614705
0.623175
0.620711
0.609161
0.59256
0.575825
0.563285
0.557064
0.557899
0.564429
0.574281
0.58513
0.595531
0.605185
0.614597
0.624417
0.634813
0.645388
0.65573
0.666236
0.678595
0.695502
0.719594
0.752042
0.791812
0.834533
0.873875
0.903347
0.9182
0.916738
0.90066
0.87442
0.843963
0.815254
0.792689
0.778736
0.774435
0.78011
0.795797
0.820821
0.85487
0.896571
0.940764
0.98068
1.01011
1.02545
1.02704
1.01917
1.0084
1.00089
0.99999
1.00422
1.01066
1.01542
1.01526
1.00899
0.998056
0.986084
0.977843
0.977909
0.988661
1.0102
1.04181
1.08247
1.13063
1.18439
1.24162
1.30011
1.35754
1.41137
1.4585
1.49482
1.51623
1.51934
1.5021
1.4649
1.40812
1.33982
1.27837
1.2448
1.25752
1.32713
1.47894
1.7012
1.93622
2.12328
2.22204
2.22696
2.16697
2.08977
2.03736
2.02434
2.02531
2.01611
1.9738
1.88722
1.76308
1.6244
1.50194
1.42275
1.38989
1.39929
1.44766
1.52724
1.62126
1.702
1.74137
1.7116
1.58859
1.3597
1.03121
0.629924
0.197781
0
0.640341
2.17124
4.49565
7.25206
9.86861
11.7161
12.3184
11.5322
9.60897
7.10198
4.66175
2.80725
1.76856
1.46126
1.57332
1.55819
1.54087
1.5226
1.50528
1.49153
1.484
1.48461
1.49349
1.50958
1.5305
1.55318
1.57457
1.59243
1.60552
1.61373
1.61801
1.6202
1.62285
1.62901
1.64229
1.6668
1.70674
1.76597
1.84742
1.95246
2.08037
2.22824
2.39286
2.56768
2.73894
2.89038
3.00883
3.08731
3.12723
3.13849
3.13746
3.14269
3.16993
3.22753
3.30927
3.40642
3.51271
3.62268
3.73142
3.83516
3.93173
4.02042
4.10163
4.17604
4.24345
4.30146
4.34501
4.36702
4.35878
4.3121
4.22153
4.08572
3.9077
3.69436
3.45553
3.20489
2.95411
2.71202
2.48692
2.28783
2.1269
2.00968
1.93015
1.87731
1.83826
1.80153
1.75954
1.70942
1.65222
1.59127
1.53035
1.47178
1.41669
1.36571
1.3193
1.27824
1.24393
1.21873
1.20607
1.2158
1.28088
1.46093
1.72755
1.99942
2.18638
2.23006
2.12637
1.91966
1.67695
1.46261
1.32842
1.26641
1.25089
1.26923
1.33733
1.44726
1.56701
1.66054
1.70015
1.67606
1.5983
1.49047
1.37945
1.2872
1.21963
1.173
1.14943
1.15129
1.17926
1.23175
1.30863
1.40097
1.49653
1.58269
1.64895
1.68845
1.69842
1.67944
1.63442
1.56778
1.48718
1.39903
1.30878
1.22184
1.14283
1.07484
1.01951
0.975954
0.941775
0.914442
0.892673
0.877373
0.871751
0.880497
0.908204
0.957881
1.03802
1.14131
1.24727
1.33316
1.38178
1.38671
1.35288
1.29267
1.22018
1.1468
1.07864
1.01753
0.966659
0.929029
0.907191
0.902407
0.916688
0.94625
0.982942
1.0175
1.04233
1.05382
1.05332
1.04634
1.04044
1.04256
1.05527
1.07866
1.11046
1.14438
1.1732
1.19097
1.19472
1.18528
1.16692
1.14596
1.12901
1.12056
1.12164
1.13407
1.15667
1.18744
1.22505
1.26984
1.32393
1.39055
1.47248
1.57174
1.68684
1.81022
1.93049
2.03342
2.10676
2.14206
2.13549
2.08814
2.00583
1.89856
1.77933
1.66203
1.5586
1.47309
1.40276
1.34445
1.29283
1.23996
1.17655
1.08555
0.914072
0.634559
0.28647
-0.0828826
-0.449297
0
1.25604
3.36706
6.13852
9.09587
11.5654
12.8899
12.6954
11.0652
8.51252
5.75774
3.4386
1.90567
1.18277
1.06657
1.20007
1.28088
1.33457
1.35342
1.33512
1.2836
1.20878
1.12475
1.0471
0.98871
0.95579
0.952727
0.979676
1.03312
1.10696
1.19382
1.28576
1.37656
1.46108
1.53503
1.5961
1.64377
1.67941
1.70602
1.72766
1.74852
1.77234
1.80129
1.83161
1.85639
1.86961
1.87059
1.86642
1.87107
1.90148
1.97225
2.08648
2.23261
2.40266
2.59141
2.79269
3.00015
3.20755
3.40935
3.6001
3.77224
3.91526
4.02297
4.08906
4.10763
4.07593
3.99679
3.87895
3.73444
3.57433
3.40501
3.22942
3.04871
2.86335
2.67487
2.48679
2.30454
2.13462
1.98471
1.86485
1.78351
1.7357
1.70593
1.67584
1.63009
1.56079
1.46926
1.36446
1.25911
1.16505
1.08707
1.02325
0.972176
0.932155
0.900901
0.876193
0.856385
0.840755
0.829658
0.824513
0.827514
0.841042
0.866978
0.905971
0.956906
1.01677
1.081
1.1442
1.20107
1.24763
1.28101
1.29985
1.30424
1.29542
1.27551
1.2473
1.21388
1.17832
1.14344
1.11146
1.08406
1.06175
1.04263
1.02403
1.00402
0.983019
0.964709
0.955868
0.964925
0.999616
1.07963
1.21475
1.37617
1.52354
1.62049
1.64742
1.60607
1.51542
1.40217
1.29133
1.19819
1.12293
1.06251
1.01504
0.979493
0.954408
0.93696
0.924254
0.914359
0.907107
0.904499
0.910501
0.930164
0.968241
1.03253
1.13056
1.25385
1.38199
1.49219
1.56593
1.59369
1.57638
1.52384
1.45107
1.37334
1.30093
1.23611
1.17593
1.11613
1.053
0.984344
0.910527
0.834767
0.762532
0.700369
0.653734
0.624809
0.616269
0.629845
0.66772
0.733575
0.833573
0.973571
1.14351
1.30954
1.43355
1.48246
1.43992
1.31566
1.14579
0.980871
0.866297
0.82132
0.821464
0.846707
0.889883
0.949118
1.02375
1.11532
1.22938
1.37862
1.57445
1.79025
1.979
2.09062
2.09038
1.9756
1.78012
1.56109
1.37449
1.2546
1.18108
1.12963
1.09008
1.05777
1.02741
0.993041
0.948916
0.890144
0.813268
0.713679
0.585879
0.427075
0.246068
0.0523279
-0.152232
0
0.927181
2.92277
5.8644
9.11665
11.7264
12.837
12.0991
9.83972
6.89134
4.18018
2.3137
1.39462
1.13055
1.12167
1.15396
1.18642
1.21788
1.24613
1.26818
1.28071
1.2809
1.26727
1.24019
1.20198
1.15661
1.10909
1.06453
1.02704
0.999911
0.985807
0.986474
1.00276
1.03464
1.08126
1.14088
1.21089
1.28812
1.36868
1.44757
1.52046
1.58475
1.64046
1.69053
1.74044
1.79702
1.86683
1.9544
2.05909
2.17964
2.313
2.44845
2.57426
2.68145
2.76641
2.83166
2.8845
2.93411
2.98824
3.0509
3.12039
3.1941
3.26972
3.34528
3.41942
3.49089
3.55687
3.61103
3.64327
3.64015
3.58846
3.47986
3.31465
3.10312
2.86382
2.61911
2.38784
2.17615
1.98855
1.82534
1.68124
1.54875
1.42097
1.29398
1.16817
1.04807
0.94103
0.855119
0.793516
0.758391
0.751032
0.774153
0.832277
0.924338
1.03172
1.12888
1.19209
1.20566
1.16709
1.0885
0.993218
0.908287
0.855836
0.838359
0.845609
0.869341
0.904466
0.946118
0.989436
1.02985
1.06348
1.08748
1.10005
1.10037
1.08849
1.06533
1.03249
0.992231
0.947368
0.901228
0.857358
0.819566
0.791428
0.775891
0.774736
0.788114
0.815263
0.853276
0.895725
0.934666
0.962644
0.973997
0.965537
0.936487
0.887814
0.821391
0.739489
0.645867
0.54507
0.441087
0.343681
0.26618
0.222268
0.221998
0.268048
0.363394
0.486546
0.609168
0.705076
0.758122
0.765783
0.737276
0.687637
0.631018
0.576504
0.526418
0.481322
0.443147
0.414559
0.398853
0.399071
0.416829
0.451445
0.499825
0.557225
0.618622
0.680211
0.740544
0.800426
0.862445
0.929999
1.00612
1.09344
1.19385
1.30404
1.41141
1.49953
1.55323
1.56277
1.5264
1.45063
1.34801
1.23335
1.12017
1.01689
0.925847
0.847901
0.784558
0.737749
0.709843
0.705415
0.73027
0.77766
0.825419
0.847438
0.821526
0.7366
0.595793
0.413949
0.21089
0
0.473654
1.44787
2.94601
4.94526
7.23745
9.3313
10.5562
10.3825
8.76317
6.23003
3.64219
1.7433
0.825103
0.699584
0.885543
0.913675
0.936253
0.954477
0.970456
0.987008
1.00708
1.03297
1.06532
1.10354
1.14538
1.18713
1.22483
1.25518
1.27623
1.28759
1.29014
1.28558
1.27588
1.26324
1.24978
1.23786
1.23034
1.23053
1.24186
1.26737
1.30909
1.3672
1.44102
1.52887
1.62852
1.73766
1.85405
1.97589
2.10161
2.22889
2.35256
2.46589
2.56285
2.64089
2.70307
2.75834
2.81934
2.89837
3.00282
3.13421
3.28284
3.4293
3.55272
3.63699
3.67421
3.66431
3.61181
3.5222
3.40011
3.25597
3.09741
2.92912
2.75689
2.58685
2.4244
2.27196
2.12982
1.99697
1.87088
1.7483
1.62625
1.5029
1.37826
1.25432
1.13479
1.02428
0.928006
0.853985
0.81036
0.786235
0.763057
0.721967
0.652037
0.555974
0.450337
0.359636
0.306711
0.303742
0.341905
0.409333
0.489679
0.568086
0.637149
0.696882
0.747961
0.792438
0.832378
0.868941
0.901751
0.929178
0.948842
0.958294
0.955645
0.939998
0.911652
0.872123
0.824038
0.771065
0.717353
0.66776
0.627049
0.599174
0.586585
0.589711
0.606783
0.634107
0.666769
0.699568
0.727932
0.749097
0.761859
0.765542
0.760219
0.746437
0.725162
0.697565
0.664957
0.629101
0.592741
0.559476
0.533148
0.517278
0.514502
0.526167
0.552198
0.591222
0.640853
0.697979
0.75876
0.819458
0.875578
0.922435
0.955497
0.97091
0.966189
0.940925
0.897351
0.840588
0.778414
0.720513
0.676902
0.656237
0.66551
0.720663
0.842604
1.04143
1.29333
1.54172
1.73883
1.85062
1.84869
1.71342
1.44981
1.10491
0.769663
0.551043
0.482649
0.494471
0.539967
0.604237
0.671119
0.725447
0.754614
0.749335
0.703821
0.615789
0.486527
0.321995
0.130176
-0.078586
-0.334353
0
1.16832
3.22982
5.91182
8.60095
10.5259
11.0811
10.1222
8.04764
5.59646
3.48288
2.088
1.37541
1.04325
0.812137
0.713384
0.635581
0.587511
0.57289
0.589949
0.63275
0.693464
0.764525
0.839341
0.913634
0.983536
1.04547
1.09621
1.13366
1.15781
1.17148
1.18018
1.19109
1.21124
1.24605
1.30147
1.37436
1.44989
1.51034
1.54166
1.53907
1.50988
1.47208
1.44923
1.4628
1.52256
1.61853
1.73723
1.8694
2.00824
2.14769
2.28305
2.41126
2.53084
2.64141
2.74337
2.83793
2.92669
3.01161
3.09492
3.17888
3.2659
3.35764
3.45174
3.54048
3.61251
3.65521
3.65731
3.61116
3.51423
3.36997
3.18771
2.98165
2.76814
2.5603
2.3651
2.18356
2.0153
1.8594
1.71431
1.57894
1.45344
1.3396
1.24004
1.15758
1.09425
1.05047
1.02468
1.01354
1.01252
1.01671
1.02152
1.02332
1.01964
1.00931
0.992447
0.970256
0.944728
0.918189
0.892718
0.869557
0.848875
0.829154
0.807602
0.781433
0.74928
0.712381
0.675023
0.644538
0.629368
0.636727
0.67346
0.745156
0.839075
0.935908
1.01612
1.06597
1.08117
1.06719
1.03646
1.00363
0.980636
0.970537
0.970953
0.977799
0.984909
0.985832
0.975521
0.951491
0.914253
0.867103
0.815504
0.766183
0.725489
0.699422
0.692511
0.706838
0.745952
0.805268
0.87267
0.934268
0.978229
0.997872
0.992873
0.968359
0.932529
0.893904
0.858589
0.828805
0.805097
0.787507
0.775277
0.766676
0.760185
0.75519
0.752443
0.754118
0.763398
0.783684
0.817644
0.865783
0.927073
0.999429
1.07935
1.15903
1.22824
1.27766
1.30097
1.29665
1.26871
1.22604
1.18023
1.14244
1.11993
1.11208
1.11536
1.12664
1.14149
1.15488
1.16198
1.15878
1.14254
1.11202
1.06745
1.01042
0.943407
0.869232
0.790449
0.708786
0.624921
0.53848
0.448146
0.351824
0.248761
0.139884
0.0277091
0
0.55463
2.01408
4.41885
7.35939
10.0421
11.6077
11.5382
9.91248
7.35235
4.70324
2.64986
1.48203
1.09782
1.17824
1.21517
1.24133
1.26046
1.27118
1.27318
1.26698
1.25368
1.23494
1.21296
1.19029
1.17005
1.15586
1.15149
1.16139
1.19141
1.24613
1.32314
1.4099
1.48842
1.54182
1.55906
1.53838
1.48859
1.42772
1.3789
1.36429
1.3964
1.47053
1.57452
1.6992
1.83894
1.98901
2.14535
2.30477
2.46472
2.62288
2.77626
2.92036
3.05049
3.16197
3.25128
3.31711
3.36109
3.38778
3.40407
3.41813
3.43825
3.47345
3.54664
3.70816
3.97733
4.28338
4.53347
4.64292
4.56867
4.32796
3.98911
3.63705
3.33187
3.07532
2.84225
2.62253
2.41448
2.22006
2.04216
1.88356
1.74647
1.63206
1.54028
1.47017
1.41981
1.38631
1.36663
1.35796
1.35786
1.36427
1.37552
1.38996
1.40542
1.41983
1.43149
1.43958
1.44428
1.44671
1.44844
1.45081
1.4543
1.4581
1.46049
1.45894
1.45084
1.43452
1.40991
1.37907
1.34595
1.31667
1.29772
1.29425
1.3087
1.34009
1.38433
1.43541
1.48709
1.53454
1.57563
1.60959
1.63688
1.65845
1.67512
1.68677
1.69252
1.69111
1.68131
1.66262
1.63571
1.60253
1.56614
1.53014
1.498
1.47216
1.45363
1.44236
1.43727
1.43648
1.43766
1.43847
1.43693
1.43174
1.42246
1.40956
1.39426
1.37823
1.36316
1.35023
1.33973
1.3307
1.32051
1.30546
1.28188
1.24725
1.20127
1.14635
1.08745
1.03155
0.986289
0.958702
0.953984
0.974652
1.0201
1.08655
1.17007
1.26086
1.34614
1.4144
1.45793
1.47421
1.46587
1.43903
1.40097
1.35814
1.31542
1.27579
1.24252
1.22062
1.21553
1.23286
1.27692
1.35681
1.47624
1.61823
1.7594
1.8767
1.95345
1.98251
1.96634
1.91458
1.84076
1.75881
1.6795
1.60761
1.54327
1.48341
1.42378
1.35997
1.28766
1.2022
1.09828
0.973788
0.832504
0.68155
0.52896
0.382793
0.243428
0.107313
-0.0282017
0
0.620637
2.18479
4.75646
7.93442
10.8919
12.6794
12.6661
10.8687
7.9564
4.91504
2.57505
1.28505
0.890749
0.967571
0.982683
0.992142
0.99909
1.00322
1.00448
1.00294
0.998797
0.992402
0.984412
0.975912
0.968412
0.963649
0.963195
0.968554
0.98049
0.996386
1.01119
1.01973
1.01903
1.01024
0.999042
0.994504
1.00637
1.04201
1.10046
1.1764
1.26628
1.36462
1.46577
1.56514
1.65983
1.74873
1.83213
1.91093
1.98623
2.0592
2.13113
2.20378
2.27967
2.3619
2.45363
2.55725
2.67365
2.80077
2.93587
3.07502
3.21123
3.33405
3.43325
3.49959
3.52594
3.50841
3.44698
3.3454
3.21023
3.04924
2.87007
2.68033
2.48537
2.2888
2.09361
1.90303
1.72058
1.54981
1.39382
1.25509
1.13485
1.03237
0.945576
0.871666
0.807704
0.751186
0.700311
0.653946
0.611348
0.571799
0.534403
0.498208
0.462388
0.426783
0.392364
0.361576
0.337965
0.32539
0.329001
0.355455
0.39921
0.448443
0.489614
0.512642
0.514747
0.501233
0.482924
0.471542
0.475063
0.491399
0.516556
0.545792
0.573656
0.595533
0.608799
0.613294
0.611008
0.60512
0.598716
0.593555
0.58934
0.583951
0.57381
0.555117
0.525262
0.484059
0.434388
0.381986
0.334367
0.299106
0.281821
0.284694
0.3096
0.350329
0.396628
0.438102
0.467131
0.480602
0.479946
0.469599
0.454644
0.43863
0.42249
0.405255
0.385218
0.36109
0.332879
0.302109
0.27135
0.243325
0.220422
0.203532
0.192558
0.187206
0.187713
0.194943
0.209708
0.233638
0.262669
0.289385
0.305323
0.304409
0.285783
0.254588
0.220319
0.193515
0.182087
0.185083
0.20051
0.225758
0.253828
0.277135
0.290546
0.293516
0.290971
0.292387
0.309076
0.361816
0.463939
0.590721
30
243
445
639
840
1059
1288
1513
1715
1906
2105
2322
2551
2777
2978
3169
3365
3575
3665
3021
3173
3325
3486
3637
3739
3623
3533
3665
0
0
0
0
0
0
0
0
0
0
0
0
0
0
0
0
0
0
0
0
0
0
0
0
0
0
0
0
0
0
0
0
0
0
0
0
0
0
0
0
0
0
0
0
0
0
0
0
0
0
0
0
0
0
0
0
0
0
0
0
0
0
0
0
0
0
0
0
0
0
0
0
0
0
0
0
0
0
0
0
0
0
0
0
0
0
0
0
0
0
0
0
0
0
0
0
0
0
0
0
0
0
0
0
0
0
0
0
0
0
0
0
0
0
0
0
0
0
0
0
0
0
0
0
0
0
0
0
0
0
0
0
0
0
0
0
0
0
0
0
0
0
0
0
0
0
0
0
0
0
0
0
0
0
0
0
0
0
0
0
0
0
0
0
0
0
0
0
0
0
0
0
0
0
0
0
0
0
0
0
0
0
0
0
0
0
0
0
0
0
0
0
0
0
0
0
0
0
0
0
0
0
0
0
0
0
0
0
0
0
0
0
0
0
0
0
0
0
0
0
0
0
0
0
0
0
0
0
0
0
0
0
0
0
0
0
0
0
0
0
0
0
0
0
0
0
0
0
0
0
0
0
0
0
0
0
0
0
0
0
0
0
0
0
0
0
0
0
0
0
0
0
0
0
0
0
0
0
0
0
0
0
0
0
0
0
0
0
0
0
0
0
0
0
0
0
0
0
0
0
0
0
0
0
0
0
0
0
0
0
0
0
0
0
0
0
0
0
0
0
0
0
0
0
0
0
0
0
0
0
0
0
0
0
0
0
0
0
0
0
0
0
0
0
0
0
0
0
0
0
0
0
0
0
0
0
0
0
0
0
0
0
0
0
0
0
0
0
0
0
0
0
0
0
0
0
0
0
0
0
0
0
0
0
0
0
0
0
0
0
0
0
0
0
0
0
0
0
0
0
0
0
0
0
0
0
0
0
0
0
0
0
0
0
0
0
0
0
0
0
0
0
0
0
0
0
0
0
0
0
0
0
0
0
0
0
0
0
0
0
0
0
0
0
0
0
0
0
0
0
0
0
0
0
0
0
0
0
0
0
0
0
0
0
0
0
0
0
0
0
0
0
0
0
0
0
0
0
0
0
0
0
0
0
0
0
0
0
0
0
0
0
0
0
0
0
0
0
0
0
0
0
0
0
0
0
0
0
0
0
0
0
0
0
0
0
0
0
0
0
0
0
0
0
0
0
0
0
0
0
0
0
0
0
0
0
0
0
0
0
0
0
0
0
0
0
0
0
0
0
0
0
0
0
0
0
0
0
0
0
0
0
0
0
0
0
0
0
0
0
0
0
0
0
0
0
0
0
0
0
0
0
0
0
0
0
0
0
0
0
0
0
0
0
0
0
0
0
0
0
0
0
0
0
0
0
0
0
0
0
0
0
0
0
0
0
0
0
0
0
0
0
0
0
0
0
0
0
0
0
0
0
0
0
0
0
0
0
0
0
0
0
0
0
0
0
0
0
0
0
0
0
0
0
0
0
0
0
0
0
0
0
0
0
0
0
0
0
0
0
0
0
0
0
0
0
0
0
0
0
0
0
0
0
0
0
0
0
0
0
0
0
0
0
0
0
0
0
0
0
0
0
0
0
0
0
0
0
0
0
0
0
0
0
0
0
0
0
0
0
0
0
0
0
0
0
0
0
0
0
0
0
0
0
0
0
0
0
0
0
0
0
0
0
0
0
0
0
0
0
0
0
0
0
0
0
0
0
0
0
0
0
0
0
0
0
0
0
0
0
0
0
0
0
0
0
0
0
0
0
0
0
0
0
0
0
0
0
0
0
0
0
0
0
0
0
0
0
0
0
0
0
0
0
0
0
0
0
0
0
0
0
0
0
0
0
0
0
0
0
0
0
0
0
0
0
0
0
0
0
0
0
0
0
0
0
0
0
0
0
0
0
0
0
0
0
0
0
0
0
0
0
0
0
0
0
0
0
0
0
0
0
0
0
0
0
0
0
0
0
0
0
0
0
0
0
0
0
0
0
0
0
0
0
0
0
0
0
0
0
0
0
0
0
0
0
0
0
0
0
0
0
0
0
0
0
0
0
0
0
0
0
0
0
0
0
0
0
0
0
0
0
0
0
0
0
0
0
0
0
0
0
0
0
0
0
0
0
0
0
0
0
0
0
0
0
0
0
0
0
0
0
0
0
0
0
0
0
0
0
0
0
0
0
0
0
0
0
0
0
0
0
0
0
0
0
0
0
0
0
0
0
0
0
0
0
0
0
0
0
0
0
0
0
0
0
0
0
0
0
0
0
0
0
0
0
0
0
0
0
0
0
0
0
0
0
0
0
0
0
0
0
0
0
0
0
0
0
0
0
0
0
0
0
0
0
0
0
0
0
0
0
0
0
0
0
0
0
0
0
0
0
0
0
0
0
0
0
0
0
0
0
0
0
0
0
0
0
0
0
0
0
0
0
0
0
0
0
0
0
0
0
0
0
0
0
0
0
0
0
0
0
0
0
0
0
0
0
0
0
0
0
0
0
0
0
0
0
0
0
0
0
0
0
0
0
0
0
0
0
0
0
0
0
0
0
0
0
0
0
0
0
0
0
0
0
0
0
0
0
0
0
0
0
0
0
0
0
0
0
0
0
0
0
0
0
0
0
0
0
0
0
0
0
0
0
0
0
0
0
0
0
0
0
0
0
0
0
0
0
0
0
0
0
0
0
0
0
0
0
0
0
0
0
0
0
0
0
0
0
0
0
0
0
0
0
0
0
0
0
0
0
0
0
0
0
0
0
0
0
0
0
0
0
0
0
0
0
0
0
0
0
0
0
0
0
0
0
0
0
0
0
0
0
0
0
0
0
0
0
0
0
0
0
0
0
0
0
0
0
0
0
0
0
0
0
0
0
0
0
0
0
0
0
0
0
0
0
0
0
0
0
0
0
0
0
0
0
0
0
0
0
0
0
0
0
0
0
0
0
0
0
0
0
0
0
0
0
0
0
0
0
0
0
0
0
0
0
0
0
0
0
0
0
0
0
0
0
0
0
0
0
0
0
0
0
0
0
0
0
0
0
0
0
0
0
0
0
0
0
0
0
0
0
0
0
0
0
0
0
0
0
0
0
0
0
0
0
0
0
0
0
0
0
0
0
0
0
0
0
0
0
0
0
0
0
0
0
0
0
0
0
0
0
0
0
0
0
0
0
0
0
0
0
0
0
0
0
0
0
0
0
0
0
0
0
0
0
0
0
0
0
0
0
0
0
0
0
0
0
0
0
0
0
0
0
0
0
0
0
0
0
0
0
0
0
0
0
0
0
0
0
0
0
0
0
0
0
0
0
0
0
0
0
0
0
0
0
0
0
0
0
0
0
0
0
0
0
0
0
0
0
0
0
0
0
0
0
0
0
0
0
0
0
0
0
0
0
0
0
0
0
0
0
0
0
0
0
0
0
0
0
0
0
0
0
0
0
0
0
0
0
0
0
0
0
0
0
0
0
0
0
0
0
0
0
0
0
0
0
0
0
0
0
0
0
0
0
0
0
0
0
0
0
0
0
0
0
0
0
0
0
0
0
0
0
0
0
0
0
0
0
0
0
0
0
0
0
0
0
0
0
0
0
0
0
0
0
0
0
0
0
0
0
0
0
0
0
0
0
0
0
0
0
0
0
0
0
0
0
0
0
0
0
0
0
0
0
0
0
0
0
0
0
0
0
0
0
0
0
0
0
0
0
0
0
0
0
0
0
0
0
0
0
0
0
0
0
0
0
0
0
0
0
0
0
0
0
0
0
0
0
0
0
0
0
0
0
0
0
0
0
0
0
0
0
0
0
0
0
0
0
0
0
0
0
0
0
0
0
0
0
0
0
0
0
0
0
0
0
0
0
0
0
0
0
0
0
0
0
0
0
0
0
0
0
0
0
0
0
0
0
0
0
0
0
0
0
0
0
0
0
0
0
0
0
0
0
0
0
0
0
0
0
0
0
0
0
0
0
0
0
0
0
0
0
0
0
0
0
0
0
0
0
0
0
0
0
0
0
0
0
0
0
0
0
0
0
0
0
0
0
0
0
0
0
0
0
0
0
0
0
0
0
0
0
0
0
0
0
0
0
0
0
0
0
0
0
0
0
0
0
0
0
0
0
0
0
0
0
0
0
0
0
0
0
0
0
0
0
0
0
0
0
0
0
0
0
0
0
0
0
0
0
0
0
0
0
0
0
0
0
0
0
0
0
0
0
0
0
0
0
0
0
0
0
0
0
0
0
0
0
0
0
0
0
0
0
0
0
0
0
0
0
0
0
0
0
0
0
0
0
0
0
0
0
0
0
0
0
0
0
0
0
0
0
0
0
0
0
0
0
0
0
0
0
0
0
0
0
0
0
0
0
0
0
0
0
0
0
0
0
0
0
0
0
0
0
0
0
0
0
0
0
0
0
0
0
0
0
0
0
0
0
0
0
0
0
0
0
0
0
0
0
0
0
0
0
0
0
0
0
0
0
0
0
0
0
0
0
0
0
0
0
0
0
0
0
0
0
0
0
0
0
0
0
0
0
0
0
0
0
0
0
0
0
0
0
0
0
0
0
0
0
0
0
0
0
0
0
0
0
0
0
0
0
0
0
0
0
0
0
0
0
0
0
0
0
0
0
0
0
0
0
0
0
0
0
0
0
0
0
0
0
0
0
0
0
0
0
0
0
0
0
0
0
0
0
0
0
0
0
0
0
0
0
0
0
0
0
0
0
0
0
0
0
0
0
0
0
0
0
0
0
0
0
0
0
0
0
0
0
0
0
0
0
0
0
0
0
0
0
0
0
0
0
0
0
0
0
0
0
0
0
0
0
0
0
0
0
0
0
0
0
0
0
0
0
0
0
0
0
0
0
0
0
0
0
0
0
0
0
0
0
0
0
0
0
0
0
0
0
0
0
0
0
0
0
0
0
0
0
0
0
0
0
0
0
0
0
0
0
0
0
0
0
0
0
0
0
0
0
0
0
0
0
0
0
0
0
0
0
0
0
0
0
0
0
0
0
0
0
0
0
0
0
0
0
0
0
0
0
0
0
0
0
0
0
0
0
0
0
0
0
0
0
0
0
0
0
0
0
0
0
0
0
0
0
0
0
0
0
0
0
0
0
0
0
0
0
0
0
0
0
0
0
0
0
0
0
0
0
0
0
0
0
0
0
0
0
0
0
0
0
0
0
0
0
0
0
0
0
0
0
0
0
0
0
0
0
0
0
0
0
0
0
0
0
0
0
0
0
0
0
0
0
0
0
0
0
0
0
0
0
0
0
0
0
0
0
0
0
0
0
0
0
0
0
0
0
0
0
0
0
0
0
0
0
0
0
0
0
0
0
0
0
0
0
0
0
0
0
0
0
0
0
0
0
0
0
0
0
0
0
0
0
0
0
0
0
0
0
0
0
0
0
0
0
0
0
0
0
0
0
0
0
0
0
0
0
0
0
0
0
0
0
0
0
0
0
0
0
0
0
0
0
0
0
0
0
0
0
0
0
0
0
0
0
0
0
0
0
0
0
0
0
0
0
0
0
0
0
0
0
0
0
0
0
0
0
0
0
0
0
0
0
0
0
0
0
0
0
0
0
0
0
0
0
0
0
0
0
0
0
0
0
0
0
0
0
0
0
0
0
0
0
0
0
0
0
0
0
0
0
0
0
0
0
0
0
0
0
0
0
0
0
0
0
0
0
0
0
0
0
0
0
0
0
0
0
0
0
0
0
0
0
0
0
0
0
0
0
0
0
0
0
0
0
0
0
0
0
0
0
0
0
0
0
0
0
0
0
0
0
0
0
0
0
0
0
0
0
0
0
0
0
0
0
0
0
0
0
0
0
0
0
0
0
0
0
0
0
0
0
0
0
0
0
0
0
0
0
0
0
0
0
0
0
0
0
0
0
0
0
0
0
0
0
0
0
0
0
0
0
0
0
0
0
0
0
0
0
0
0
0
0
0
0
0
0
0
0
0
0
0
0
0
0
0
0
0
0
0
0
0
0
0
0
0
0
0
0
0
0
0
0
0
0
0
0
0
0
0
0
0
0
0
0
0
0
0
0
0
0
0
0
0
0
0
0
0
0
0
0
0
0
0
0
0
0
0
0
0
0
0
0
0
0
0
0
0
0
0
0
0
0
0
0
0
0
0
0
0
0
0
0
0
0
0
0
0
0
0
0
0
0
0
0
0
0
0
0
0
0
0
0
0
0
0
0
0
0
0
0
0
0
0
0
0
0
0
0
0
0
0
0
0
0
0
0
0
0
0
0
0
0
0
0
0
0
0
0
0
0
0
0
0
0
0
0
0
0
0
0
0
0
0
0
0
0
0
0
0
0
0
0
0
0
0
0
0
0
0
0
0
0
0
0
0
0
0
0
0
0
0
0
0
0
0
0
0
0
0
0
0
0
0
0
0
0
0
0
0
0
0
0
0
0
0
0
0
0
0
0
0
0
0
0
0
0
0
0
0
0
0
0
0
0
0
0
0
0
0
0
0
0
0
0
0
0
0
0
0
0
0
0
0
0
0
0
0
0
0
0
0
0
0
0
0
0
0
0
0
0
0
0
0
0
0
0
0
0
0
0
0
0
0
0
0
0
0
0
0
0
0
0
0
0
0
0
0
0
0
0
0
0
0
0
0
0
0
0
0
0
0
0
0
0
0
0
0
0
0
0
0
0
0
0
0
0
0
0
0
0
0
0
0
0
0
0
0
0
0
0
0
0
0
0
0
0
0
0
0
0
0
0
0
0
0
0
0
0
0
0
0
0
0
0
0
0
0
0
0
0
0
0
0
0
0
0
0
0
0
0
0
0
0
0
0
0
0
0
0
0
0
0
0
0
0
0
0
0
0
0
0
0
0
0
0
0
0
0
0
0
0
0
0
0
0
0
0
0
0
0
0
0
0
0
0
0
0
0
0
0
0
0
0
0
0
0
0
0
0
0
0
0
0
0
0
0
0
0
0
0
0
0
0
0
0
0
0
0
0
0
0
0
0
0
0
0
0
0
0
0
0
0
0
0
0
0
0
0
0
0
0
0
0
0
0
0
0
0
0
0
0
0
0
0
0
0
0
0
0
0
0
0
0
0
0
0
0
0
0
0
0
0
0
0
0
0
0
0
0
0
0
0
0
0
0
0
0
0
0
0
0
0
0
0
0
0
0
0
0
0
0
0
0
0
0
0
0
0
0
0
0
0
0
0
0
0
0
0
0
0
0
0
0
0
0
0
0
0
0
0
0
0
0
0
0
0
0
0
0
0
0
0
0
0
0
0
0
0
0
0
0
0
0
0
0
0
0
0
0
0
0
0
0
0
0
0
0
0
0
0
0
0
0
0
0
0
0
0
0
0
0
0
0
0
0
0
0
0
0
0
0
0
0
0
0
0
0
0
0
0
0
0
0
0
0
0
0
0
0
0
0
0
0
0
0
0
0
0
0
0
0
0
0
0
0
0
0
0
0
0
0
0
0
0
0
0
0
0
0
0
0
0
0
0
0
0
0
0
0
0
0
0
0
0
0
0
0
0
0
0
0
0
0
0
0
0
0
0
0
0
0
0
0
0
0
0
0
0
0
0
0
0
0
0
0
0
0
0
0
0
0
0
0
0
0
0
0
0
0
0
0
0
0
0
0
0
0
0
0
0
0
0
0
0
0
0
0
0
0
0
0
0
0
0
0
0
0
0
0
0
0
0
0
0
0
0
0
0
0
0
0
0
0
0
0
0
0
0
0
0
0
0
0
0
0
0
0
0
0
0
0
0
0
0
0
0
0
0
0
0
0
0
0
0
0
0
0
0
0
0
0
0
0
0
0
0
0
0
0
0
0
0
0
0
0
0
0
0
0
0
0
0
0
0
0
0
0
0
0
0
0
0
0
0
0
0
0
0
0
0
0
0
0
0
0
0
0
0
0
0
0
0
0
0
0
0
0
0
0
0
0
0
0
0
0
0
0
0
0
0
0
0
0
0
0
0
0
0
0
0
0
0
0
0
0
0
0
0
0
0
0
0
0
0
0
0
0
0
0
0
0
0
0
0
0
0
0
0
0
0
0
0
0
0
0
0
0
0
0
0
0
0
0
0
0
0
0
0
0
0
0
0
0
0
0
0
0
0
0
0
0
0
0
0
0
0
0
0
0
0
0
0
0
0
0
0
0
0
0
0
0
0
0
0
0
0
0
0
0
0
0
0
0
0
0
0
0
0
0
0
0
0
0
0
0
0
0
0
0
0
0
0
0
0
0
0
0
0
0
0
0
0
0
0
0
0
0
0
0
0
0
0
0
0
0
0
0
0
0
0
0
0
0
0
0
0
0
0
0
0
0
0
0
0
0
0
0
0
0
0
0
0
0
0
0
0
0
0
0
0
0
0
0
0
0
0
0
0
0
0
0
0
0
0
0
0
0
0
0
0
0
0
0
0
0
0
0
0
0
0
0
