2.22578
2.31304
2.4032
2.49013
2.56937
2.63935
2.7019
2.76193
2.82636
2.90282
3.01208
3.22356
3.62082
4.09556
4.51776
4.77118
4.7815
4.54619
4.14764
3.73347
3.45783
3.38428
3.34352
3.28452
3.1905
3.05214
2.87335
2.66971
2.46286
2.27294
2.10876
1.97242
1.85838
1.75695
1.65881
1.55866
1.45677
1.3581
1.27004
1.19972
1.1474
1.11437
1.10195
1.11098
1.14763
1.21249
1.29139
1.36606
1.41877
1.43756
1.41972
1.37219
1.309
1.24723
1.20185
1.17772
1.17512
1.19506
1.23904
1.30264
1.37666
1.44954
1.5091
1.54545
1.55244
1.52857
1.47732
1.40674
1.32838
1.25538
1.20001
1.16954
1.16301
1.17618
1.20645
1.24997
1.29935
1.34658
1.38474
1.409
1.41722
1.40986
1.38941
1.35963
1.32482
1.28939
1.25706
1.23138
1.21557
1.21227
1.22321
1.24876
1.28769
1.33771
1.3947
1.45164
1.5006
1.53467
1.54927
1.54282
1.51669
1.47449
1.42096
1.36101
1.29933
1.23958
1.18498
1.13871
1.10374
1.08234
1.07568
1.0833
1.10309
1.13154
1.16452
1.19777
1.22791
1.25296
1.27244
1.28699
1.29767
1.30496
1.30835
1.30639
1.29715
1.27955
1.25458
1.22587
1.19928
1.18169
1.17948
1.19495
1.22744
1.27685
1.34208
1.42302
1.5139
1.60183
1.67364
1.71957
1.73676
1.73097
1.71556
1.70767
1.72322
1.78786
1.91732
2.07479
2.20669
2.26156
2.20597
2.03446
1.77196
1.46747
1.1807
0.961899
0.806977
0.758216
0.895932
1.14057
1.37447
1.47497
1.35425
0.992792
0.444638
-0.191352
-0.549604
0
1.61703
4.20375
7.30353
10.1715
11.9963
12.2215
10.8137
8.30621
5.55908
3.35847
2.08511
1.63824
1.62614
1.59117
1.5319
1.46832
1.40093
1.33037
1.25813
1.18664
1.11945
1.06086
1.01553
0.987832
0.981305
0.99852
1.04602
1.13989
1.30369
1.52064
1.73664
1.88745
1.91966
1.81727
1.61583
1.39163
1.22873
1.18032
1.20902
1.26724
1.33777
1.41482
1.4948
1.5767
1.66184
1.75291
1.85277
1.96316
2.08368
2.21174
2.34359
2.47467
2.60026
2.71582
2.81637
2.89721
2.95662
2.99431
3.01169
3.01228
3.00191
2.98847
2.98109
2.99153
3.04542
3.16149
3.30718
3.42973
3.47718
3.41886
3.25603
3.0179
2.7465
2.47989
2.2392
2.02124
1.82126
1.63945
1.47756
1.33643
1.21566
1.11333
1.02606
0.949227
0.877471
0.805347
0.728367
0.643909
0.551927
0.454459
0.358551
0.274747
0.213886
0.184205
0.188956
0.230651
0.300849
0.381087
0.451908
0.497826
0.510652
0.490471
0.444373
0.383698
0.320867
0.266624
0.22664
0.202118
0.193167
0.200316
0.22315
0.26173
0.314678
0.374802
0.432771
0.479704
0.509293
0.519182
0.511009
0.489172
0.458916
0.424644
0.389302
0.35421
0.320218
0.28831
0.259842
0.236473
0.219822
0.210918
0.209472
0.214551
0.224174
0.234913
0.242117
0.241217
0.228805
0.203603
0.167077
0.123443
0.0789618
0.0405987
0.0143514
0.0073329
0.0225442
0.0509285
0.0790948
0.0946052
0.090977
0.0702901
0.042257
0.0201289
0.015214
0.0314148
0.061953
0.0999945
0.139901
0.176436
0.205963
0.227059
0.240469
0.248527
0.254302
0.260742
0.269865
0.282739
0.299648
0.320152
0.343291
0.367796
0.392359
0.41585
0.437445
0.456622
0.473028
0.486247
0.4955
0.499308
0.495564
0.482045
0.456764
0.418588
0.367713
0.305778
0.235532
0.160118
0.0822306
0.00346808
-0.0758845
-0.156531
-0.239941
-0.327104
-0.416649
-0.505117
-0.587966
-0.617748
0
1.17174
2.91091
5.0403
7.12982
8.58717
8.91014
7.96674
6.10662
3.99997
2.29264
1.3007
0.932101
0.848429
0.720876
0.607883
0.507227
0.423519
0.35986
0.317547
0.295954
0.292815
0.305496
0.329899
0.359068
0.386082
0.405853
0.416141
0.417944
0.415039
0.412724
0.416121
0.428659
0.450149
0.479311
0.514519
0.554262
0.597901
0.645963
0.699847
0.761101
0.830572
0.907811
0.990691
1.07673
1.16347
1.24918
1.33342
1.41704
1.50167
1.58906
1.68023
1.77487
1.87147
1.96773
2.06093
2.14879
2.23022
2.3058
2.378
2.45099
2.53235
2.64402
2.83679
3.12098
3.42422
3.65463
3.73739
3.6405
3.38518
3.04028
2.70101
2.45011
2.27745
2.12761
1.97948
1.82573
1.66196
1.48743
1.30528
1.122
0.94604
0.78548
0.646815
0.53458
0.451673
0.398259
0.37048
0.362047
0.366696
0.379533
0.397785
0.420788
0.449277
0.484253
0.526144
0.573885
0.623087
0.66794
0.702999
0.725028
0.734194
0.734156
0.730993
0.731291
0.739821
0.758222
0.78594
0.813863
0.829923
0.823451
0.789284
0.729841
0.654168
0.574252
0.500375
0.437552
0.384017
0.338085
0.298884
0.268447
0.252299
0.258221
0.293644
0.362035
0.465877
0.60098
0.750011
0.892474
1.00961
1.08815
1.12209
1.11272
1.06732
0.997113
0.914859
0.831955
0.755865
0.689132
0.630113
0.576468
0.527149
0.482072
0.442667
0.411919
0.393857
0.392966
0.420197
0.489698
0.592272
0.700182
0.782297
0.81644
0.798851
0.746417
0.69052
0.66505
0.693727
0.767572
0.867618
0.983735
1.10781
1.23155
1.34604
1.43991
1.50402
1.53242
1.52151
1.47137
1.38739
1.28059
1.16598
1.059
0.971252
0.902384
0.846821
0.800735
0.757556
0.709552
0.649286
0.570806
0.467283
0.333738
0.174125
-0.0042141
-0.207345
0
0.796734
2.35108
4.63551
7.30481
9.70255
11.0682
10.8832
9.16256
6.49567
3.78447
1.81874
0.938164
0.960188
1.36386
1.28736
1.20908
1.13181
1.05955
0.996837
0.947229
0.911202
0.886004
0.869786
0.860099
0.854434
0.850658
0.84718
0.843341
0.839782
0.838815
0.844571
0.862897
0.916158
1.06058
1.30052
1.56505
1.75899
1.80961
1.7017
1.48459
1.25119
1.1015
1.10417
1.20283
1.33782
1.48873
1.64298
1.78963
1.92135
2.03557
2.13438
2.22312
2.30814
2.39451
2.4844
2.5763
2.66735
2.75427
2.83423
2.90571
2.96888
3.02539
3.07773
3.12822
3.17812
3.22591
3.26496
3.28466
3.27316
3.22092
3.12386
2.98494
2.81385
2.62481
2.43335
2.25125
2.08262
1.92921
1.79153
1.66752
1.55279
1.44169
1.32858
1.20911
1.08142
0.946864
0.810146
0.679141
0.563305
0.48232
0.479785
0.54786
0.644706
0.718158
0.730709
0.677222
0.585441
0.499375
0.455599
0.466021
0.499279
0.540315
0.577044
0.600144
0.604801
0.591071
0.563241
0.528693
0.496467
0.474425
0.469159
0.488859
0.557944
0.706646
0.905942
1.09852
1.22517
1.24743
1.16203
1.00069
0.815723
0.659063
0.56531
0.519305
0.500486
0.499864
0.513647
0.538908
0.572712
0.611796
0.652309
0.690178
0.721505
0.742913
0.751897
0.747146
0.728756
0.698296
0.658732
0.614204
0.569519
0.529544
0.498817
0.481099
0.479148
0.494446
0.527085
0.576432
0.642491
0.722586
0.807331
0.883139
0.936495
0.957196
0.941506
0.894083
0.82778
0.76104
0.713358
0.697943
0.738251
0.827089
0.929401
1.00372
1.02173
0.982568
0.914214
0.860874
0.873805
0.991391
1.16736
1.31775
1.36915
1.29631
1.13005
0.936114
0.780631
0.700074
0.660612
0.630759
0.595213
0.538583
0.447305
0.299508
0.0848094
-0.182936
-0.477249
-0.657121
0
1.55121
3.84183
6.44542
8.76428
10.2137
10.4319
9.4197
7.52712
5.29141
3.22631
1.67539
0.774252
0.484863
0.624871
0.702138
0.759494
0.792701
0.802708
0.795645
0.780966
0.768423
0.765074
0.771544
0.7861
0.806071
0.828236
0.850063
0.870571
0.890607
0.912507
0.939349
0.974081
1.01864
1.07332
1.13742
1.20972
1.28846
1.37135
1.45567
1.53762
1.613
1.678
1.72998
1.76833
1.79511
1.81502
1.83495
1.86272
1.90574
1.96835
2.05178
2.15487
2.27465
2.40683
2.54622
2.68734
2.82509
2.95518
3.07418
3.17971
3.27053
3.3461
3.40627
3.45098
3.47975
3.49085
3.48288
3.45394
3.40209
3.32575
3.22431
3.09844
2.95034
2.78378
2.60394
2.4175
2.23083
2.05018
1.88135
1.72958
1.59849
1.48891
1.39948
1.32713
1.26774
1.21695
1.1709
1.12671
1.08285
1.03921
0.996967
0.958512
0.927039
0.905749
0.897211
0.902674
0.921611
0.951662
0.989085
1.02933
1.06807
1.10198
1.12911
1.14875
1.16084
1.16516
1.16017
1.14391
1.1141
1.06924
1.01007
0.940427
0.867465
0.800828
0.751092
0.726821
0.740285
0.820299
0.990264
1.21386
1.42768
1.57457
1.61884
1.55463
1.40642
1.22089
1.05185
0.942119
0.890541
0.873157
0.874883
0.888774
0.910923
0.93835
0.968826
1.00084
1.03332
1.06526
1.09526
1.12113
1.13981
1.14788
1.14206
1.11997
1.08099
1.02687
0.961931
0.892136
0.826736
0.775023
0.744275
0.738157
0.756032
0.793429
0.843511
0.899013
0.953949
1.00507
1.05089
1.09049
1.12373
1.15094
1.17275
1.19061
1.20719
1.22654
1.25353
1.29282
1.34952
1.42932
1.53078
1.63867
1.73096
1.78663
1.79133
1.74132
1.64493
1.52101
1.39425
1.28851
1.21553
1.17128
1.14752
1.13902
1.14107
1.14808
1.15401
1.15223
1.13561
1.09726
1.03073
0.917897
0.717237
0.438391
0.106292
-0.300789
0
1.33529
3.72509
6.75722
9.66593
11.6079
12.0223
10.8819
8.68404
6.18643
4.05518
2.62679
1.88218
1.58601
1.46755
1.37914
1.2966
1.22049
1.1528
1.09424
1.04498
1.00529
0.97609
0.959256
0.958866
0.989158
1.06923
1.18389
1.29753
1.36758
1.36262
1.27688
1.1345
0.982621
0.87651
0.86247
0.926782
1.15334
1.54529
1.97607
2.31782
2.48979
2.47782
2.3242
2.10298
1.90026
1.8021
1.82633
1.9232
2.05628
2.20834
2.36489
2.51219
2.6402
2.74459
2.82732
2.89555
2.95934
3.02883
3.11103
3.20771
3.31894
3.44427
3.58131
3.72339
3.85695
3.96639
4.03719
4.05827
4.02413
3.93578
3.80002
3.62733
3.4294
3.21847
3.00454
2.79316
2.58796
2.39214
2.20856
2.03948
1.8864
1.75009
1.63056
1.52722
1.43906
1.36495
1.30395
1.25556
1.22005
1.19765
1.18844
1.19268
1.21086
1.23929
1.27154
1.30109
1.32326
1.33687
1.34463
1.35219
1.36602
1.39105
1.43123
1.4835
1.53536
1.57186
1.58118
1.55908
1.51019
1.44576
1.37895
1.32008
1.27304
1.23572
1.20738
1.18856
1.18046
1.18454
1.20162
1.23123
1.2706
1.31443
1.35628
1.39008
1.41153
1.41883
1.41272
1.39572
1.37096
1.34134
1.3085
1.27287
1.23415
1.19203
1.14688
1.10024
1.05501
1.01517
0.985223
0.969345
0.96989
0.988425
1.02847
1.09435
1.17733
1.25899
1.32073
1.34981
1.34365
1.30991
1.26203
1.21269
1.16905
1.13083
1.09695
1.06815
1.04694
1.03723
1.04721
1.08478
1.13918
1.19006
1.21602
1.20514
1.16144
1.10414
1.0599
1.05218
1.08648
1.14782
1.22479
1.31046
1.3966
1.47527
1.53974
1.58497
1.60773
1.60643
1.581
1.53283
1.46518
1.3828
1.2919
1.20026
1.12001
1.09623
1.2571
1.58532
1.94973
2.19781
2.22056
1.99681
1.60497
1.19927
0.954275
0.981802
1.11717
1.29143
1.43657
1.49807
1.45681
1.33109
1.1579
0.967779
0.771108
0.567099
0.357048
0.140865
-0.0824575
0
0.907656
2.86495
5.72706
8.91182
11.5468
12.813
12.3255
10.3278
7.56295
4.89509
2.9183
1.7825
1.29666
1.17468
1.16717
1.14859
1.12303
1.08936
1.04875
1.00752
0.974458
0.958412
0.965891
0.999106
1.05518
1.12673
1.20353
1.27494
1.33306
1.37285
1.39308
1.39614
1.38701
1.37194
1.35711
1.34736
1.34526
1.35221
1.3691
1.3959
1.43173
1.47556
1.52554
1.57975
1.6371
1.69803
1.76478
1.8412
1.93209
2.04214
2.17476
2.33008
2.50552
2.6976
2.90275
3.11275
3.31148
3.48204
3.61066
3.68977
3.71993
3.7097
3.67322
3.6261
3.5808
3.54247
3.50923
3.47756
3.44309
3.40127
3.3483
3.28163
3.1999
3.10256
2.98942
2.86101
2.71872
2.56338
2.39663
2.22152
2.0427
1.86633
1.70028
1.55342
1.43294
1.34356
1.2904
1.27787
1.29389
1.32225
1.3469
1.35602
1.34421
1.31244
1.26627
1.21354
1.16252
1.11885
1.08881
1.07768
1.08941
1.12573
1.1893
1.27678
1.37602
1.47256
1.55288
1.60721
1.6307
1.62333
1.58885
1.53386
1.46788
1.40027
1.33884
1.29053
1.26052
1.25057
1.25882
1.28269
1.31785
1.35893
1.40024
1.43639
1.46282
1.4763
1.47514
1.4594
1.43095
1.39326
1.35102
1.30949
1.27352
1.24648
1.23026
1.22595
1.2328
1.24751
1.2656
1.28277
1.29581
1.30334
1.30582
1.30505
1.30338
1.30268
1.30361
1.30553
1.30685
1.30535
1.29893
1.2863
1.26748
1.2441
1.21912
1.19637
1.17971
1.17217
1.1753
1.1889
1.21108
1.23874
1.2681
1.29547
1.31758
1.33226
1.33866
1.33728
1.32986
1.31904
1.30779
1.29885
1.29421
1.29497
1.30141
1.31354
1.33167
1.35674
1.3905
1.43507
1.49242
1.56373
1.64869
1.74709
1.85795
1.97705
2.09182
2.18376
2.23221
2.21824
2.13023
1.969
1.74988
1.50056
1.25491
1.0424
0.869587
0.802724
0.940629
1.21337
1.49958
1.68083
1.67632
1.46671
1.09657
0.650708
0.209792
-0.194082
0
0.888736
2.58612
5.01791
7.78719
10.2135
11.5739
11.4411
9.91315
7.56885
5.16922
3.299
2.162
1.62011
1.38514
1.23443
1.11015
1.01301
0.952778
0.934777
0.969088
1.05812
1.1736
1.28187
1.35528
1.38127
1.36499
1.32448
1.28097
1.2494
1.23095
1.2195
1.21171
1.2053
1.20058
1.20093
1.21195
1.23961
1.28809
1.35627
1.44052
1.53586
1.63361
1.72513
1.8039
1.86696
1.91527
1.95297
1.98588
2.01984
2.05929
2.10631
2.16179
2.22667
2.30175
2.3879
2.48596
2.59632
2.71855
2.85098
2.9909
3.13382
3.27343
3.40173
3.50961
3.58918
3.63406
3.63937
3.60206
3.52128
3.39881
3.2394
3.05055
2.84207
2.6255
2.4107
2.20432
2.01098
1.83389
1.67434
1.532
1.40506
1.29101
1.18739
1.09249
1.00564
0.926941
0.857013
0.797869
0.749418
0.709561
0.676012
0.647826
0.626572
0.616317
0.622177
0.647878
0.699864
0.769146
0.839769
0.894062
0.918542
0.90762
0.863714
0.794423
0.708857
0.615724
0.522
0.433704
0.358822
0.305943
0.283032
0.294825
0.340491
0.412777
0.499267
0.585388
0.658017
0.711497
0.745846
0.760709
0.757784
0.74014
0.711916
0.678143
0.643638
0.614028
0.59546
0.594136
0.618927
0.69523
0.861947
1.10061
1.34228
1.51373
1.56349
1.48005
1.2954
1.07033
0.866889
0.723373
0.627729
0.557773
0.505464
0.471381
0.456374
0.460959
0.484587
0.525126
0.578887
0.641239
0.707657
0.774786
0.841208
0.907162
0.973979
1.04319
1.11608
1.19136
1.26316
1.3232
1.36334
1.37847
1.36832
1.3377
1.2951
1.25018
1.21091
1.17988
1.15543
1.13454
1.1119
1.08068
1.0343
0.968083
0.880549
0.769649
0.642817
0.512353
0.390627
0.28676
0.204708
0.143281
0.0977495
0.0620796
0.0307577
0
0.329771
1.18836
2.67507
4.73627
7.07438
9.1299
10.2404
9.95503
8.32196
5.91741
3.55657
1.8675
1.01815
0.764146
0.735427
0.743074
0.752612
0.764176
0.778194
0.795131
0.815623
0.840519
0.870705
0.907033
0.950733
0.999523
1.04594
1.08133
1.09996
1.10297
1.09996
1.10697
1.14145
1.2458
1.40701
1.57869
1.70439
1.74555
1.69951
1.59934
1.49766
1.44326
1.46142
1.52061
1.59779
1.68279
1.76879
1.85082
1.92656
1.99648
2.06347
2.13191
2.20669
2.29173
2.38946
2.50073
2.6244
2.75748
2.89545
3.03289
3.164
3.28315
3.38582
3.46894
3.53079
3.5708
3.58906
3.58588
3.56132
3.51503
3.4463
3.35475
3.23979
3.10142
2.94056
2.75922
2.56066
2.34964
2.13184
1.91365
1.7021
1.50405
1.32534
1.17215
1.0466
0.948576
0.876414
0.82777
0.800323
0.792016
0.800776
0.825237
0.861859
0.904715
0.947002
0.982249
1.00559
1.01466
1.0099
0.994238
0.972312
0.949594
0.930712
0.918923
0.916337
0.924852
0.943062
0.964477
0.981256
0.986844
0.978484
0.95863
0.934557
0.916165
0.912667
0.928736
0.967166
1.01949
1.0722
1.11135
1.12701
1.11601
1.08232
1.03517
0.98623
0.946342
0.920177
0.908473
0.9112
0.929319
0.959984
0.997247
1.0348
1.06741
1.09192
1.10726
1.1137
1.11149
1.09991
1.07708
1.0409
0.990707
0.927558
0.858836
0.798279
0.760832
0.757795
0.793077
0.862235
0.954596
1.05731
1.15932
1.2553
1.34317
1.42029
1.48548
1.53739
1.57434
1.5947
1.59741
1.5824
1.55075
1.50453
1.4467
1.38128
1.3119
1.2418
1.17408
1.1115
1.05598
1.00853
0.969099
0.936203
0.905275
0.868364
0.816011
0.738955
0.626353
0.460775
0.248364
0.00402012
-0.297203
0
1.12017
3.13569
5.80099
8.5351
10.5747
11.2772
10.4286
8.36777
5.82743
3.57573
2.07633
1.36194
1.1598
1.13409
1.09317
1.05094
1.00776
0.964133
0.921412
0.882306
0.851518
0.834498
0.836812
0.862679
0.918099
1.00947
1.11972
1.22507
1.3031
1.34072
1.3385
1.30945
1.27327
1.24891
1.24824
1.26753
1.30154
1.34763
1.40384
1.4682
1.5389
1.61431
1.69299
1.77358
1.85488
1.93587
2.01578
2.09414
2.17075
2.24569
2.31926
2.39203
2.46484
2.53878
2.61514
2.69512
2.77973
2.86944
2.96417
3.06329
3.16578
3.27044
3.37594
3.48065
3.58141
3.67118
3.74059
3.77783
3.77137
3.7135
3.60297
3.44531
3.25056
3.02981
2.79262
2.54887
2.30445
2.06432
1.83499
1.62359
1.43713
1.29363
1.20757
1.16795
1.15416
1.14347
1.119
1.07435
1.01334
0.945871
0.883002
0.831232
0.790688
0.761436
0.74381
0.738585
0.744697
0.757292
0.770853
0.78075
0.784802
0.784158
0.78309
0.787648
0.803671
0.83443
0.878003
0.931104
0.990514
1.05172
1.10982
1.16053
1.20071
1.22844
1.24287
1.24375
1.23103
1.2049
1.16591
1.11556
1.0568
0.994133
0.934257
0.884413
0.850736
0.840784
0.85622
0.887941
0.922863
0.948651
0.957865
0.949817
0.929675
0.905646
0.88574
0.873752
0.869684
0.873121
0.883013
0.897588
0.914111
0.929439
0.940691
0.945723
0.943476
0.934124
0.91895
0.900021
0.879757
0.860503
0.844102
0.831932
0.825044
0.824086
0.829245
0.840199
0.856135
0.875665
0.896527
0.916019
0.932097
0.944213
0.953881
0.964679
0.981548
1.00951
1.05382
1.11869
1.19993
1.28583
1.36136
1.41193
1.42657
1.40001
1.33379
1.23626
1.12151
1.00695
0.909651
0.840868
0.800775
0.792149
0.805791
0.824072
0.827295
0.798211
0.725441
0.605137
0.440734
0.241199
0.0185094
-0.227454
0
0.921292
2.71467
5.30003
8.22573
10.7294
12.0089
11.5929
9.60635
6.74917
3.97784
2.06545
1.28646
1.38778
1.78951
1.63848
1.4843
1.33122
1.18573
1.05526
0.945971
0.857492
0.786341
0.731108
0.689971
0.661637
0.645949
0.643964
0.657498
0.688107
0.735608
0.798587
0.874688
0.960569
1.05037
1.137
1.21397
1.27662
1.32297
1.35402
1.37349
1.38702
1.40112
1.42177
1.45305
1.49726
1.55517
1.62602
1.70761
1.79684
1.89031
1.98483
2.07817
2.16982
2.26122
2.35563
2.45732
2.57055
2.69879
2.84992
3.01995
3.18847
3.33109
3.42845
3.47312
3.47105
3.43672
3.3851
3.32434
3.25508
3.17569
3.0817
2.97
2.84016
2.69474
2.53878
2.37861
2.22039
2.06844
1.92621
1.79601
1.67916
1.5761
1.48667
1.41061
1.34669
1.29221
1.24394
1.1986
1.15319
1.10544
1.05392
0.99811
0.938419
0.87636
0.814363
0.755753
0.704802
0.666354
0.647294
0.663022
0.733783
0.846317
0.964534
1.04791
1.06773
1.01896
0.922263
0.815698
0.740365
0.726789
0.818426
1.03228
1.28897
1.49401
1.56928
1.48154
1.26164
1.00063
0.814557
0.784942
0.866152
0.979628
1.08051
1.13243
1.12144
1.05995
0.978565
0.910474
0.87702
0.871989
0.88132
0.898248
0.918973
0.940487
0.960953
0.97972
0.99704
1.01362
1.03011
1.04674
1.06301
1.07765
1.08883
1.09458
1.09334
1.08447
1.06866
1.04811
1.02636
1.00773
0.996367
0.997628
1.01751
1.05311
1.09311
1.12377
1.13448
1.12219
1.09289
1.05926
1.03588
1.03404
1.0537
1.08898
1.1356
1.19031
1.2498
1.31103
1.37145
1.42901
1.48208
1.52923
1.56896
1.59981
1.62071
1.63095
1.63051
1.62014
1.60141
1.57649
1.54774
1.51732
1.48689
1.45745
1.42955
1.40346
1.37931
1.35708
1.33625
1.31542
1.2918
1.2611
1.20805
1.04613
0.675331
0.145997
-0.444307
-0.653046
0
1.71181
4.42308
7.71095
10.8305
12.9334
13.4054
12.1455
9.60919
6.58456
3.83692
1.84014
0.717414
0.349012
0.583742
0.834311
1.06322
1.25079
1.38508
1.47367
1.52855
1.55347
1.55306
1.53245
1.49761
1.45409
1.41026
1.37459
1.35403
1.35242
1.36961
1.40193
1.44373
1.48945
1.53525
1.5799
1.62367
1.6679
1.71467
1.76611
1.82469
1.89476
1.98983
2.15195
2.42727
2.75884
3.04576
3.18703
3.13024
2.89988
2.59302
2.34783
2.29617
2.44869
2.68037
2.93567
3.19579
3.44411
3.66569
3.84961
3.99025
4.08761
4.14668
4.17591
4.18516
4.1836
4.17787
4.17085
4.16169
4.14621
4.11779
4.06852
3.99058
3.87785
3.72718
3.53936
3.31954
3.07701
2.82446
2.57552
2.34216
2.13608
1.97194
1.86531
1.82004
1.82422
1.85829
1.89923
1.92441
1.91666
1.86636
1.7729
1.64552
1.50257
1.36816
1.26618
1.2125
1.20185
1.2304
1.28815
1.36221
1.44014
1.51305
1.57718
1.62832
1.66129
1.67159
1.65555
1.61051
1.53613
1.43557
1.31614
1.18875
1.06645
0.962367
0.886005
0.863187
0.946888
1.16692
1.44024
1.67555
1.79406
1.75312
1.56943
1.32229
1.12386
1.06456
1.14748
1.27563
1.4147
1.53478
1.61368
1.64064
1.61669
1.55305
1.46855
1.38624
1.3262
1.29919
1.31861
1.37463
1.44006
1.48306
1.48018
1.42615
1.33616
1.24002
1.17116
1.15522
1.2044
1.33878
1.51438
1.67244
1.75984
1.74684
1.63784
1.47063
1.30174
1.18218
1.13491
1.1288
1.13981
1.15987
1.18513
1.21374
1.24576
1.28245
1.32524
1.37442
1.42905
1.48748
1.54616
1.59971
1.64245
1.66952
1.67785
1.6668
1.63821
1.596
1.54531
1.4915
1.43918
1.39101
1.34804
1.31009
1.27576
1.24193
1.2036
1.15452
1.0832
0.948578
0.708382
0.384357
0.0149916
-0.36898
0
1.08154
2.84861
5.11662
7.53513
9.6012
10.761
10.6176
9.15518
6.81984
4.35637
2.46597
1.48765
1.29803
1.46322
1.37973
1.3018
1.23022
1.16758
1.11575
1.07495
1.04424
1.02193
1.00615
0.995327
0.988474
0.98517
0.985425
0.989469
0.997655
1.01067
1.02946
1.05515
1.08877
1.13083
1.18079
1.2375
1.29729
1.35514
1.40588
1.44534
1.47128
1.48391
1.48591
1.48195
1.47811
1.48069
1.49519
1.52661
1.57937
1.65663
1.76105
1.90493
2.11534
2.40253
2.70728
2.96014
3.09999
3.0944
2.95506
2.7387
2.52904
2.40553
2.41241
2.73238
3.32461
3.94963
4.39207
4.51662
4.31051
3.88094
3.40083
3.02481
2.80615
2.62023
2.4347
2.24828
2.06237
1.87974
1.70428
1.54031
1.39183
1.26191
1.15231
1.0633
0.993729
0.942092
0.906094
0.880383
0.857826
0.832093
0.799202
0.758751
0.714307
0.672634
0.641837
0.628922
0.63596
0.661831
0.70358
0.753203
0.801462
0.840193
0.864145
0.87183
0.865234
0.848581
0.826649
0.803256
0.780221
0.757739
0.735069
0.711504
0.687353
0.664513
0.646376
0.637746
0.648185
0.682194
0.729633
0.772748
0.793176
0.779589
0.732253
0.662836
0.590289
0.534906
0.507838
0.506948
0.537294
0.597582
0.66938
0.731217
0.76653
0.769931
0.748503
0.71714
0.69026
0.674424
0.664589
0.653457
0.633804
0.601887
0.558917
0.509939
0.461109
0.417121
0.379031
0.346954
0.322291
0.307762
0.307641
0.327136
0.371082
0.442398
0.539174
0.660649
0.80042
0.949069
1.09662
1.23228
1.34106
1.40743
1.42087
1.37131
1.25298
1.07074
0.844398
0.606756
0.394485
0.235832
0.127039
0.0556288
0.015704
0
0.0003335
0.013399
0.0375602
0.0723392
0.117223
0.170481
0.269325
0.504456
1.16971
2.54191
4.59994
6.93221
8.86952
9.77385
9.32331
7.64505
5.23864
2.75464
0.756163
-0.43948
-0.803869
-0.525982
-0.319868
-0.136887
0.0103146
0.115131
0.18461
0.223317
0.238636
0.239245
0.234272
0.230916
0.234656
0.249376
0.278665
0.324753
0.38241
0.439687
0.483513
0.504012
0.497962
0.469971
0.430898
0.394208
0.371891
0.369978
0.386834
0.419435
0.467493
0.530395
0.607208
0.696331
0.797132
0.904627
1.01022
1.10452
1.17965
1.2316
1.26162
1.27643
1.28697
1.30616
1.34483
1.40833
1.49765
1.62101
1.7671
1.91307
2.03604
2.12127
2.16707
2.18484
2.19386
2.21336
2.26502
2.33944
2.40512
2.42302
2.36366
2.2187
2.00253
1.74429
1.47546
1.21911
0.979
0.752969
0.54221
0.35064
0.182334
0.0404942
-0.0727013
-0.15437
-0.203011
-0.224567
-0.22674
-0.216897
-0.200235
-0.17901
-0.153134
-0.121157
-0.082886
-0.0433192
-0.0112488
0.00347643
-0.00637093
-0.0424373
-0.099694
-0.167491
-0.23228
-0.281854
-0.310783
-0.318826
-0.308317
-0.282391
-0.24485
-0.200415
-0.153975
-0.110139
-0.072522
-0.0433654
-0.0233994
-0.0119024
-0.00693321
-0.00570307
-0.00504675
-0.00194597
0.00580511
0.0193366
0.0391912
0.0642406
0.0901684
0.111104
0.121419
0.11741
0.0985481
0.0678227
0.0310427
-0.00468025
-0.0327333
-0.0499345
-0.0561879
-0.0521639
-0.0391951
-0.0194073
0.0046608
0.0304363
0.0557835
0.0792633
0.100173
0.118414
0.134255
0.147938
0.159761
0.17018
0.179959
0.190499
0.203954
0.222962
0.25063
0.291
0.34275
0.39911
0.450181
0.485637
0.497479
0.481896
0.439913
0.377042
0.302185
0.226027
0.156642
0.0993685
0.0568314
0.0279643
0.0104931
0.0018528
0
0.00814838
0.0227487
0.0447526
0.0745056
0.110727
0.150132
0.188571
0.157478
0.22516
0.998097
2.76817
5.36381
8.11678
10.1224
10.6706
9.59978
7.3555
4.72817
2.44846
0.895206
0.0637181
-0.255872
-0.0785254
0.11696
0.308026
0.473406
0.590753
0.646777
0.645003
0.60642
0.561878
0.539768
0.555172
0.595694
0.647802
0.703108
0.75268
0.789531
0.810077
0.814704
0.807571
0.795704
0.787503
0.790931
0.811836
0.852105
0.908814
0.978251
1.05784
1.14562
1.24033
1.34161
1.44971
1.56495
1.68718
1.816
1.94779
2.07509
2.19007
2.28731
2.36609
2.43111
2.49126
2.55677
2.63578
2.73066
2.83691
2.9498
3.06321
3.1705
3.26603
3.34593
3.40821
3.45219
3.47709
3.48072
3.46137
3.41668
3.34469
3.24499
3.11958
2.97297
2.8115
2.64228
2.47226
2.30637
2.1488
2.00317
1.87257
1.75947
1.66557
1.59251
1.54162
1.50972
1.4878
1.46584
1.43551
1.39272
1.33885
1.28043
1.22696
1.18801
1.16896
1.17
1.18982
1.22439
1.26805
1.31482
1.35959
1.39842
1.42898
1.45086
1.46576
1.47746
1.49161
1.51499
1.55436
1.62187
1.73496
1.88467
2.03961
2.16338
2.22801
2.22321
2.15774
2.05374
1.93768
1.83264
1.74893
1.68597
1.64224
1.61828
1.61504
1.6322
1.67061
1.72902
1.79954
1.86967
1.92725
1.96342
1.97473
1.96351
1.93645
1.90188
1.86708
1.83625
1.81007
1.78842
1.77145
1.75968
1.75424
1.75679
1.7692
1.79256
1.82724
1.87321
1.92943
1.99461
2.06525
2.13618
2.20203
2.25812
2.30129
2.33041
2.34642
2.35215
2.35179
2.35032
2.35212
2.36086
2.38027
2.41273
2.45498
2.5006
2.54158
2.57014
2.58047
2.5698
2.53882
2.49147
2.43418
2.37488
2.31977
2.27308
2.23599
2.20552
2.17551
2.13244
1.97082
1.54202
0.908602
0.195564
0
0.80035
2.76433
5.66855
8.90409
11.6392
13.0989
12.8678
11.0805
8.38055
5.64153
3.58713
2.51896
2.28879
2.48542
2.39291
2.29913
2.20702
2.12051
2.04454
1.98408
1.94286
1.92241
1.92162
1.93695
1.96346
1.99546
2.02719
2.0549
2.07764
2.09739
2.11845
2.14599
2.18896
2.25363
2.32928
2.39601
2.43256
2.42548
2.37539
2.29775
2.2181
2.16391
2.15506
2.18727
2.24932
2.33354
2.4348
2.54805
2.66802
2.78979
2.90921
3.02314
3.13006
3.23016
3.32522
3.41826
3.51294
3.61263
3.72011
3.83761
3.96157
4.08295
4.19021
4.27166
4.31749
4.32084
4.27831
4.19006
4.06005
3.89832
3.71473
3.52009
3.32423
3.13409
2.95118
2.77472
2.60388
2.43782
2.27655
2.12137
1.97484
1.84022
1.72019
1.61717
1.53243
1.46574
1.41537
1.37826
1.35082
1.32841
1.30549
1.27743
1.24152
1.19766
1.14869
1.09984
1.05755
1.02785
1.0147
1.01923
1.04038
1.07084
1.10152
1.12406
1.13286
1.12617
1.1057
1.0755
1.04042
1.00492
0.971995
0.94352
0.921242
0.906711
0.901283
0.905927
0.920986
0.946479
0.981482
1.02104
1.05461
1.0707
1.06017
1.01939
0.952025
0.868352
0.782172
0.706444
0.649577
0.608858
0.580513
0.562766
0.553849
0.552662
0.558943
0.57293
0.594724
0.624456
0.660109
0.696837
0.728233
0.7474
0.748194
0.726348
0.680341
0.611899
0.526094
0.430945
0.336437
0.252205
0.18643
0.143879
0.128568
0.145386
0.190813
0.247218
0.295361
0.320031
0.314461
0.282082
0.235035
0.19005
0.163356
0.166158
0.195584
0.245473
0.312584
0.397253
0.499208
0.607303
0.70432
0.77359
0.804537
0.797191
0.762728
0.71909
0.683523
0.665689
0.660632
0.660798
0.65946
0.649808
0.626497
0.586691
0.530502
0.460863
0.382957
0.303208
0.227643
0.160862
0.105162
0.0609174
0.0269847
0
-0.0226356
-0.0484593
-0.0816376
-0.124516
-0.177282
-0.238213
-0.403894
-0.160865
0.937347
3.05385
5.88244
8.66454
10.4893
10.7253
9.33144
6.86564
4.1972
2.10005
0.950255
0.659545
0.831509
0.716574
0.598343
0.480292
0.365236
0.256913
0.159355
0.0759085
0.00863276
-0.0399825
-0.0676373
-0.0734694
-0.0573269
-0.0199875
0.0365633
0.108981
0.192685
0.282308
0.372331
0.457773
0.53459
0.599351
0.647825
0.677744
0.688405
0.680645
0.657549
0.624062
0.589426
0.564337
0.55866
0.579196
0.628411
0.70465
0.803624
0.920411
1.05045
1.18908
1.33461
1.48538
1.63911
1.7927
1.94244
2.08408
2.21372
2.3287
2.42785
2.51146
2.58092
2.63786
2.68213
2.71429
2.73377
2.73874
2.72665
2.69458
2.63941
2.5579
2.44697
2.30458
2.13546
1.94307
1.73412
1.51847
1.30778
1.11564
0.959848
0.843604
0.760808
0.699592
0.647518
0.595998
0.542164
0.487901
0.437196
0.393513
0.356542
0.325412
0.299806
0.27924
0.263178
0.250969
0.241819
0.234523
0.227749
0.22037
0.211799
0.202177
0.192306
0.183382
0.176658
0.173141
0.173637
0.178765
0.189002
0.204601
0.225369
0.250922
0.278728
0.304501
0.323417
0.331424
0.32642
0.30881
0.281258
0.247865
0.213256
0.181678
0.156106
0.13925
0.133947
0.143157
0.172375
0.226935
0.303209
0.387289
0.46165
0.509768
0.520542
0.491078
0.427357
0.342943
0.256128
0.185091
0.140231
0.123617
0.132524
0.164989
0.213959
0.270357
0.32496
0.370103
0.400879
0.415681
0.416131
0.406473
0.392624
0.380593
0.375252
0.379298
0.393378
0.413373
0.433099
0.446605
0.450364
0.444481
0.432395
0.419244
0.409642
0.405727
0.406606
0.410152
0.413987
0.416902
0.419626
0.424589
0.434817
0.45252
0.477767
0.508164
0.541318
0.574822
0.606741
0.63604
0.662642
0.687125
0.710181
0.732058
0.752049
0.76804
0.776272
0.772597
0.753239
0.716106
0.661959
0.595078
0.52316
0.457944
0.443225
0.615397
0.99148
1.41619
1.73518
1.84644
1.71684
1.37807
0.918249
0.474944
0.215511
0.152156
0.157119
0.178791
0.201645
0.211303
0.19728
0.15492
0.0859164
-0.00276904
-0.18284
0
0.953926
2.90982
5.72019
8.7782
11.1962
12.18
11.403
9.16911
6.26596
3.59396
1.77495
0.946706
0.827958
0.956369
0.893735
0.832013
0.773785
0.722194
0.680483
0.651466
0.637032
0.637809
0.654117
0.682973
0.718716
0.754751
0.784689
0.803388
0.807716
0.796956
0.772847
0.739339
0.702231
0.667671
0.641642
0.629236
0.633936
0.657201
0.698511
0.755828
0.826318
0.907066
0.995088
1.08824
1.18508
1.28435
1.3849
1.4857
1.58607
1.68588
1.78565
1.88639
1.9893
2.09527
2.20437
2.31556
2.42676
2.53477
2.63537
2.72524
2.80279
2.86899
2.92781
2.98577
3.05406
3.16328
3.32318
3.49343
3.60596
3.59881
3.44857
3.18279
2.86713
2.57594
2.36084
2.1953
2.04975
1.91363
1.77927
1.63941
1.4885
1.32384
1.1463
0.960023
0.773256
0.596494
0.444697
0.358074
0.427518
0.702476
1.05267
1.35485
1.52035
1.50259
1.30607
0.992918
0.670784
0.4545
0.409235
0.450929
0.520928
0.600644
0.682332
0.758785
0.822774
0.868653
0.892366
0.891846
0.867468
0.822439
0.762892
0.697535
0.636754
0.591204
0.569998
0.578998
0.632712
0.731008
0.852053
0.968994
1.05829
1.10606
1.11022
1.07867
1.02509
0.964381
0.908398
0.861711
0.824983
0.797709
0.777033
0.758876
0.739328
0.716032
0.689109
0.661331
0.637513
0.623362
0.623675
0.639695
0.674719
0.736149
0.82628
0.924814
1.00586
1.04643
1.0359
0.981307
0.904412
0.830997
0.778244
0.746738
0.723362
0.701499
0.677777
0.654083
0.636813
0.633814
0.650593
0.685046
0.731167
0.783984
0.838011
0.888668
0.933258
0.971231
1.00378
1.03302
1.06102
1.08915
1.11779
1.14651
1.17424
1.19964
1.22152
1.23907
1.25185
1.25965
1.262
1.25825
1.2476
1.2292
1.20246
1.16731
1.12414
1.07361
1.01621
0.952031
0.881452
0.804107
0.719341
0.628508
0.53436
0.44024
0.34924
0.264137
0.185842
0.113572
0.0455408
0
0.427693
1.59962
3.60777
6.19956
8.76405
10.5206
10.8641
9.6848
7.44559
4.9399
2.87812
1.57484
0.92254
0.613922
0.558994
0.534835
0.530313
0.550682
0.598064
0.671198
0.766652
0.881293
1.00145
1.10857
1.18574
1.22155
1.21299
1.16609
1.0943
1.01507
0.946048
0.898628
0.874719
0.874047
0.896739
0.942477
1.009
1.09214
1.18715
1.2868
1.38274
1.46766
1.53643
1.58678
1.61952
1.63808
1.6478
1.65505
1.66621
1.6865
1.72066
1.7729
1.84649
1.94353
2.0647
2.20904
2.3746
2.56012
2.76325
2.97607
3.18095
3.35709
3.48569
3.55319
3.55407
3.49212
3.37945
3.23336
3.07202
2.91077
2.75763
2.61378
2.4786
2.35138
2.23124
2.11683
2.00636
1.89798
1.79002
1.68137
1.57162
1.46117
1.35105
1.24273
1.13771
1.0373
0.942362
0.853294
0.770182
0.69307
0.622295
0.558787
0.504211
0.460964
0.431648
0.41945
0.432126
0.478654
0.546345
0.613795
0.659691
0.672139
0.654851
0.626432
0.612312
0.646261
0.726849
0.821293
0.883198
0.878962
0.807223
0.700801
0.611527
0.614345
0.786209
1.05255
1.28345
1.36443
1.24907
0.976101
0.6492
0.390391
0.285915
0.28904
0.331775
0.392036
0.463363
0.539753
0.615696
0.685044
0.742436
0.78354
0.805509
0.807703
0.792238
0.763983
0.729832
0.697385
0.673432
0.661279
0.661328
0.673175
0.695245
0.725255
0.75968
0.792395
0.816869
0.828465
0.826209
0.813897
0.799775
0.794394
0.807115
0.844791
0.906651
0.979768
1.0473
1.09581
1.12088
1.1285
1.13164
1.14394
1.17349
1.21818
1.26967
1.31503
1.34088
1.33711
1.29921
1.22887
1.13314
1.02268
0.909719
0.804663
0.713415
0.637886
0.577593
0.532973
0.501443
0.472241
0.43231
0.369305
0.274722
0.146199
-0.0117177
-0.212686
0
0.941007
2.61049
4.80793
7.14158
9.07847
10.0871
9.8533
8.45167
6.33704
4.13783
2.37736
1.29002
0.818525
0.750568
0.78388
0.805931
0.818683
0.820121
0.810504
0.79239
0.770133
0.748922
0.733581
0.728103
0.734814
0.752124
0.776675
0.805
0.834952
0.866264
0.900011
0.937601
0.979042
1.0203
1.0548
1.07624
1.08197
1.07543
1.06643
1.06892
1.09706
1.16073
1.25731
1.37722
1.51144
1.65225
1.79061
1.91805
2.02891
2.1211
2.19606
2.25793
2.31217
2.36391
2.41654
2.47106
2.52495
2.57402
2.61503
2.64815
2.67815
2.71399
2.78202
2.95025
3.22114
3.51116
3.71811
3.76886
3.64814
3.40288
3.12218
2.8973
2.77233
2.68742
2.60121
2.50141
2.37848
2.22795
2.05108
1.8542
1.6471
1.44094
1.24448
1.06427
0.906047
0.774206
0.671569
0.599545
0.559906
0.559393
176
373
559
748
945
1155
1364
1551
1733
1926
2125
2320
2502
2680
2864
3066
3278
3479
3665
3021
3173
3325
3486
3637
3739
3623
3533
3665
0
0
0
0
0
0
0
0
0
0
0
0
0
0
0
0
0
0
0
0
0
0
0
0
0
0
0
0
0
0
0
0
0
0
0
0
0
0
0
0
0
0
0
0
0
0
0
0
0
0
0
0
0
0
0
0
0
0
0
0
0
0
0
0
0
0
0
0
0
0
0
0
0
0
0
0
0
0
0
0
0
0
0
0
0
0
0
0
0
0
0
0
0
0
0
0
0
0
0
0
0
0
0
0
0
0
0
0
0
0
0
0
0
0
0
0
0
0
0
0
0
0
0
0
0
0
0
0
0
0
0
0
0
0
0
0
0
0
0
0
0
0
0
0
0
0
0
0
0
0
0
0
0
0
0
0
0
0
0
0
0
0
0
0
0
0
0
0
0
0
0
0
0
0
0
0
0
0
0
0
0
0
0
0
0
0
0
0
0
0
0
0
0
0
0
0
0
0
0
0
0
0
0
0
0
0
0
0
0
0
0
0
0
0
0
0
0
0
0
0
0
0
0
0
0
0
0
0
0
0
0
0
0
0
0
0
0
0
0
0
0
0
0
0
0
0
0
0
0
0
0
0
0
0
0
0
0
0
0
0
0
0
0
0
0
0
0
0
0
0
0
0
0
0
0
0
0
0
0
0
0
0
0
0
0
0
0
0
0
0
0
0
0
0
0
0
0
0
0
0
0
0
0
0
0
0
0
0
0
0
0
0
0
0
0
0
0
0
0
0
0
0
0
0
0
0
0
0
0
0
0
0
0
0
0
0
0
0
0
0
0
0
0
0
0
0
0
0
0
0
0
0
0
0
0
0
0
0
0
0
0
0
0
0
0
0
0
0
0
0
0
0
0
0
0
0
0
0
0
0
0
0
0
0
0
0
0
0
0
0
0
0
0
0
0
0
0
0
0
0
0
0
0
0
0
0
0
0
0
0
0
0
0
0
0
0
0
0
0
0
0
0
0
0
0
0
0
0
0
0
0
0
0
0
0
0
0
0
0
0
0
0
0
0
0
0
0
0
0
0
0
0
0
0
0
0
0
0
0
0
0
0
0
0
0
0
0
0
0
0
0
0
0
0
0
0
0
0
0
0
0
0
0
0
0
0
0
0
0
0
0
0
0
0
0
0
0
0
0
0
0
0
0
0
0
0
0
0
0
0
0
0
0
0
0
0
0
0
0
0
0
0
0
0
0
0
0
0
0
0
0
0
0
0
0
0
0
0
0
0
0
0
0
0
0
0
0
0
0
0
0
0
0
0
0
0
0
0
0
0
0
0
0
0
0
0
0
0
0
0
0
0
0
0
0
0
0
0
0
0
0
0
0
0
0
0
0
0
0
0
0
0
0
0
0
0
0
0
0
0
0
0
0
0
0
0
0
0
0
0
0
0
0
0
0
0
0
0
0
0
0
0
0
0
0
0
0
0
0
0
0
0
0
0
0
0
0
0
0
0
0
0
0
0
0
0
0
0
0
0
0
0
0
0
0
0
0
0
0
0
0
0
0
0
0
0
0
0
0
0
0
0
0
0
0
0
0
0
0
0
0
0
0
0
0
0
0
0
0
0
0
0
0
0
0
0
0
0
0
0
0
0
0
0
0
0
0
0
0
0
0
0
0
0
0
0
0
0
0
0
0
0
0
0
0
0
0
0
0
0
0
0
0
0
0
0
0
0
0
0
0
0
0
0
0
0
0
0
0
0
0
0
0
0
0
0
0
0
0
0
0
0
0
0
0
0
0
0
0
0
0
0
0
0
0
0
0
0
0
0
0
0
0
0
0
0
0
0
0
0
0
0
0
0
0
0
0
0
0
0
0
0
0
0
0
0
0
0
0
0
0
0
0
0
0
0
0
0
0
0
0
0
0
0
0
0
0
0
0
0
0
0
0
0
0
0
0
0
0
0
0
0
0
0
0
0
0
0
0
0
0
0
0
0
0
0
0
0
0
0
0
0
0
0
0
0
0
0
0
0
0
0
0
0
0
0
0
0
0
0
0
0
0
0
0
0
0
0
0
0
0
0
0
0
0
0
0
0
0
0
0
0
0
0
0
0
0
0
0
0
0
0
0
0
0
0
0
0
0
0
0
0
0
0
0
0
0
0
0
0
0
0
0
0
0
0
0
0
0
0
0
0
0
0
0
0
0
0
0
0
0
0
0
0
0
0
0
0
0
0
0
0
0
0
0
0
0
0
0
0
0
0
0
0
0
0
0
0
0
0
0
0
0
0
0
0
0
0
0
0
0
0
0
0
0
0
0
0
0
0
0
0
0
0
0
0
0
0
0
0
0
0
0
0
0
0
0
0
0
0
0
0
0
0
0
0
0
0
0
0
0
0
0
0
0
0
0
0
0
0
0
0
0
0
0
0
0
0
0
0
0
0
0
0
0
0
0
0
0
0
0
0
0
0
0
0
0
0
0
0
0
0
0
0
0
0
0
0
0
0
0
0
0
0
0
0
0
0
0
0
0
0
0
0
0
0
0
0
0
0
0
0
0
0
0
0
0
0
0
0
0
0
0
0
0
0
0
0
0
0
0
0
0
0
0
0
0
0
0
0
0
0
0
0
0
0
0
0
0
0
0
0
0
0
0
0
0
0
0
0
0
0
0
0
0
0
0
0
0
0
0
0
0
0
0
0
0
0
0
0
0
0
0
0
0
0
0
0
0
0
0
0
0
0
0
0
0
0
0
0
0
0
0
0
0
0
0
0
0
0
0
0
0
0
0
0
0
0
0
0
0
0
0
0
0
0
0
0
0
0
0
0
0
0
0
0
0
0
0
0
0
0
0
0
0
0
0
0
0
0
0
0
0
0
0
0
0
0
0
0
0
0
0
0
0
0
0
0
0
0
0
0
0
0
0
0
0
0
0
0
0
0
0
0
0
0
0
0
0
0
0
0
0
0
0
0
0
0
0
0
0
0
0
0
0
0
0
0
0
0
0
0
0
0
0
0
0
0
0
0
0
0
0
0
0
0
0
0
0
0
0
0
0
0
0
0
0
0
0
0
0
0
0
0
0
0
0
0
0
0
0
0
0
0
0
0
0
0
0
0
0
0
0
0
0
0
0
0
0
0
0
0
0
0
0
0
0
0
0
0
0
0
0
0
0
0
0
0
0
0
0
0
0
0
0
0
0
0
0
0
0
0
0
0
0
0
0
0
0
0
0
0
0
0
0
0
0
0
0
0
0
0
0
0
0
0
0
0
0
0
0
0
0
0
0
0
0
0
0
0
0
0
0
0
0
0
0
0
0
0
0
0
0
0
0
0
0
0
0
0
0
0
0
0
0
0
0
0
0
0
0
0
0
0
0
0
0
0
0
0
0
0
0
0
0
0
0
0
0
0
0
0
0
0
0
0
0
0
0
0
0
0
0
0
0
0
0
0
0
0
0
0
0
0
0
0
0
0
0
0
0
0
0
0
0
0
0
0
0
0
0
0
0
0
0
0
0
0
0
0
0
0
0
0
0
0
0
0
0
0
0
0
0
0
0
0
0
0
0
0
0
0
0
0
0
0
0
0
0
0
0
0
0
0
0
0
0
0
0
0
0
0
0
0
0
0
0
0
0
0
0
0
0
0
0
0
0
0
0
0
0
0
0
0
0
0
0
0
0
0
0
0
0
0
0
0
0
0
0
0
0
0
0
0
0
0
0
0
0
0
0
0
0
0
0
0
0
0
0
0
0
0
0
0
0
0
0
0
0
0
0
0
0
0
0
0
0
0
0
0
0
0
0
0
0
0
0
0
0
0
0
0
0
0
0
0
0
0
0
0
0
0
0
0
0
0
0
0
0
0
0
0
0
0
0
0
0
0
0
0
0
0
0
0
0
0
0
0
0
0
0
0
0
0
0
0
0
0
0
0
0
0
0
0
0
0
0
0
0
0
0
0
0
0
0
0
0
0
0
0
0
0
0
0
0
0
0
0
0
0
0
0
0
0
0
0
0
0
0
0
0
0
0
0
0
0
0
0
0
0
0
0
0
0
0
0
0
0
0
0
0
0
0
0
0
0
0
0
0
0
0
0
0
0
0
0
0
0
0
0
0
0
0
0
0
0
0
0
0
0
0
0
0
0
0
0
0
0
0
0
0
0
0
0
0
0
0
0
0
0
0
0
0
0
0
0
0
0
0
0
0
0
0
0
0
0
0
0
0
0
0
0
0
0
0
0
0
0
0
0
0
0
0
0
0
0
0
0
0
0
0
0
0
0
0
0
0
0
0
0
0
0
0
0
0
0
0
0
0
0
0
0
0
0
0
0
0
0
0
0
0
0
0
0
0
0
0
0
0
0
0
0
0
0
0
0
0
0
0
0
0
0
0
0
0
0
0
0
0
0
0
0
0
0
0
0
0
0
0
0
0
0
0
0
0
0
0
0
0
0
0
0
0
0
0
0
0
0
0
0
0
0
0
0
0
0
0
0
0
0
0
0
0
0
0
0
0
0
0
0
0
0
0
0
0
0
0
0
0
0
0
0
0
0
0
0
0
0
0
0
0
0
0
0
0
0
0
0
0
0
0
0
0
0
0
0
0
0
0
0
0
0
0
0
0
0
0
0
0
0
0
0
0
0
0
0
0
0
0
0
0
0
0
0
0
0
0
0
0
0
0
0
0
0
0
0
0
0
0
0
0
0
0
0
0
0
0
0
0
0
0
0
0
0
0
0
0
0
0
0
0
0
0
0
0
0
0
0
0
0
0
0
0
0
0
0
0
0
0
0
0
0
0
0
0
0
0
0
0
0
0
0
0
0
0
0
0
0
0
0
0
0
0
0
0
0
0
0
0
0
0
0
0
0
0
0
0
0
0
0
0
0
0
0
0
0
0
0
0
0
0
0
0
0
0
0
0
0
0
0
0
0
0
0
0
0
0
0
0
0
0
0
0
0
0
0
0
0
0
0
0
0
0
0
0
0
0
0
0
0
0
0
0
0
0
0
0
0
0
0
0
0
0
0
0
0
0
0
0
0
0
0
0
0
0
0
0
0
0
0
0
0
0
0
0
0
0
0
0
0
0
0
0
0
0
0
0
0
0
0
0
0
0
0
0
0
0
0
0
0
0
0
0
0
0
0
0
0
0
0
0
0
0
0
0
0
0
0
0
0
0
0
0
0
0
0
0
0
0
0
0
0
0
0
0
0
0
0
0
0
0
0
0
0
0
0
0
0
0
0
0
0
0
0
0
0
0
0
0
0
0
0
0
0
0
0
0
0
0
0
0
0
0
0
0
0
0
0
0
0
0
0
0
0
0
0
0
0
0
0
0
0
0
0
0
0
0
0
0
0
0
0
0
0
0
0
0
0
0
0
0
0
0
0
0
0
0
0
0
0
0
0
0
0
0
0
0
0
0
0
0
0
0
0
0
0
0
0
0
0
0
0
0
0
0
0
0
0
0
0
0
0
0
0
0
0
0
0
0
0
0
0
0
0
0
0
0
0
0
0
0
0
0
0
0
0
0
0
0
0
0
0
0
0
0
0
0
0
0
0
0
0
0
0
0
0
0
0
0
0
0
0
0
0
0
0
0
0
0
0
0
0
0
0
0
0
0
0
0
0
0
0
0
0
0
0
0
0
0
0
0
0
0
0
0
0
0
0
0
0
0
0
0
0
0
0
0
0
0
0
0
0
0
0
0
0
0
0
0
0
0
0
0
0
0
0
0
0
0
0
0
0
0
0
0
0
0
0
0
0
0
0
0
0
0
0
0
0
0
0
0
0
0
0
0
0
0
0
0
0
0
0
0
0
0
0
0
0
0
0
0
0
0
0
0
0
0
0
0
0
0
0
0
0
0
0
0
0
0
0
0
0
0
0
0
0
0
0
0
0
0
0
0
0
0
0
0
0
0
0
0
0
0
0
0
0
0
0
0
0
0
0
0
0
0
0
0
0
0
0
0
0
0
0
0
0
0
0
0
0
0
0
0
0
0
0
0
0
0
0
0
0
0
0
0
0
0
0
0
0
0
0
0
0
0
0
0
0
0
0
0
0
0
0
0
0
0
0
0
0
0
0
0
0
0
0
0
0
0
0
0
0
0
0
0
0
0
0
0
0
0
0
0
0
0
0
0
0
0
0
0
0
0
0
0
0
0
0
0
0
0
0
0
0
0
0
0
0
0
0
0
0
0
0
0
0
0
0
0
0
0
0
0
0
0
0
0
0
0
0
0
0
0
0
0
0
0
0
0
0
0
0
0
0
0
0
0
0
0
0
0
0
0
0
0
0
0
0
0
0
0
0
0
0
0
0
0
0
0
0
0
0
0
0
0
0
0
0
0
0
0
0
0
0
0
0
0
0
0
0
0
0
0
0
0
0
0
0
0
0
0
0
0
0
0
0
0
0
0
0
0
0
0
0
0
0
0
0
0
0
0
0
0
0
0
0
0
0
0
0
0
0
0
0
0
0
0
0
0
0
0
0
0
0
0
0
0
0
0
0
0
0
0
0
0
0
0
0
0
0
0
0
0
0
0
0
0
0
0
0
0
0
0
0
0
0
0
0
0
0
0
0
0
0
0
0
0
0
0
0
0
0
0
0
0
0
0
0
0
0
0
0
0
0
0
0
0
0
0
0
0
0
0
0
0
0
0
0
0
0
0
0
0
0
0
0
0
0
0
0
0
0
0
0
0
0
0
0
0
0
0
0
0
0
0
0
0
0
0
0
0
0
0
0
0
0
0
0
0
0
0
0
0
0
0
0
0
0
0
0
0
0
0
0
0
0
0
0
0
0
0
0
0
0
0
0
0
0
0
0
0
0
0
0
0
0
0
0
0
0
0
0
0
0
0
0
0
0
0
0
0
0
0
0
0
0
0
0
0
0
0
0
0
0
0
0
0
0
0
0
0
0
0
0
0
0
0
0
0
0
0
0
0
0
0
0
0
0
0
0
0
0
0
0
0
0
0
0
0
0
0
0
0
0
0
0
0
0
0
0
0
0
0
0
0
0
0
0
0
0
0
0
0
0
0
0
0
0
0
0
0
0
0
0
0
0
0
0
0
0
0
0
0
0
0
0
0
0
0
0
0
0
0
0
0
0
0
0
0
0
0
0
0
0
0
0
0
0
0
0
0
0
0
0
0
0
0
0
0
0
0
0
0
0
0
0
0
0
0
0
0
0
0
0
0
0
0
0
0
0
0
0
0
0
0
0
0
0
0
0
0
0
0
0
0
0
0
0
0
0
0
0
0
0
0
0
0
0
0
0
0
0
0
0
0
0
0
0
0
0
0
0
0
0
0
0
0
0
0
0
0
0
0
0
0
0
0
0
0
0
0
0
0
0
0
0
0
0
0
0
0
0
0
0
0
0
0
0
0
0
0
0
0
0
0
0
0
0
0
0
0
0
0
0
0
0
0
0
0
0
0
0
0
0
0
0
0
0
0
0
0
0
0
0
0
0
0
0
0
0
0
0
0
0
0
0
0
0
0
0
0
0
0
0
0
0
0
0
0
0
0
0
0
0
0
0
0
0
0
0
0
0
0
0
0
0
0
0
0
0
0
0
0
0
0
0
0
0
0
0
0
0
0
0
0
0
0
0
0
0
0
0
0
0
0
0
0
0
0
0
0
0
0
0
0
0
0
0
0
0
0
0
0
0
0
0
0
0
0
0
0
0
0
0
0
0
0
0
0
0
0
0
0
0
0
0
0
0
0
0
0
0
0
0
0
0
0
0
0
0
0
0
0
0
0
0
0
0
0
0
0
0
0
0
0
0
0
0
0
0
0
0
0
0
0
0
0
0
0
0
0
0
0
0
0
0
0
0
0
0
0
0
0
0
0
0
0
0
0
0
0
0
0
0
0
0
0
0
0
0
0
0
0
0
0
0
0
0
0
0
0
0
0
0
0
0
0
0
0
0
0
0
0
0
0
0
0
0
0
0
0
0
0
0
0
0
0
0
0
0
0
0
0
0
0
0
0
0
0
0
0
0
0
0
0
0
0
0
0
0
0
0
0
0
0
0
0
0
0
0
0
0
0
0
0
0
0
0
0
0
0
0
0
0
0
0
0
0
0
0
0
0
0
0
0
0
0
0
0
0
0
0
0
0
0
0
0
0
0
0
0
0
0
0
0
0
0
0
0
0
0
0
0
0
0
0
0
0
0
0
0
0
0
0
0
0
0
0
0
0
0
0
0
0
0
0
0
0
0
0
0
0
0
0
0
0
0
0
0
0
0
0
0
0
0
0
0
0
0
0
0
0
0
0
0
0
0
0
0
0
0
0
0
0
0
0
0
0
0
0
0
0
0
0
0
0
0
0
0
0
0
0
0
0
0
0
0
0
0
0
0
0
0
0
0
0
0
0
0
0
0
0
0
0
0
0
0
0
0
0
0
0
0
0
0
0
0
0
0
0
0
0
0
0
0
0
0
0
0
0
0
0
0
0
0
0
0
0
0
0
0
0
0
0
0
