-0.900339
-0.887942
-0.861642
-0.804883
-0.673109
-0.461129
-0.229077
-0.0561003
-0.00694642
-0.0987317
-0.28823
-0.490226
-0.618637
-0.62982
-0.586455
-0.530786
-0.473932
-0.421777
-0.378465
-0.346109
-0.324956
-0.313888
-0.311093
-0.314674
-0.32287
-0.334462
-0.348669
-0.364855
-0.382382
-0.400506
-0.418332
-0.434779
-0.448517
-0.457893
-0.460908
-0.455339
-0.438504
-0.40232
-0.336514
-0.251353
-0.168316
-0.110747
-0.0935616
-0.115803
-0.160211
-0.200423
-0.212564
-0.185692
-0.136808
-0.078923
-0.0213311
0.0274385
0.0614391
0.0782701
0.0790528
0.0675885
0.0490538
0.0286555
0.0102085
-0.00445185
-0.01463
-0.0200283
-0.0209464
-0.0175027
-0.00908122
0.00600452
0.0304831
0.0676839
0.120776
0.191898
0.281016
0.385554
0.502437
0.627505
0.756112
0.883776
1.00651
1.12044
1.22217
1.3094
1.38017
1.43188
1.46025
1.46146
1.43212
1.36975
1.27382
1.14675
0.994451
0.826214
0.653679
0.489219
0.341439
0.214377
0.112141
0.0395241
0.0023324
0
0.0215212
0.0478835
0.0649714
0.0640617
0.0434299
0.00776863
-0.212547
-0.241168
0.335549
1.92899
4.74199
8.53242
12.5338
15.6311
16.7716
15.4363
11.9242
7.26593
2.78395
-0.471443
-2.1015
-2.36785
-1.88295
-1.21973
-0.672692
-0.264407
0.0937887
0.421347
0.56645
0.661908
0.739969
0.809161
0.872027
0.930483
0.986137
1.04039
1.0945
1.14983
1.20808
1.27126
1.34145
1.42036
1.50888
1.60668
1.71229
1.82406
1.94042
2.06038
2.18375
2.31125
2.44425
2.58432
2.73275
2.89007
3.05572
3.22802
3.40419
3.58056
3.7527
3.91526
4.06234
4.18832
4.28957
4.36395
4.41084
4.43086
4.42546
4.3962
4.34422
4.26983
4.1727
4.0538
3.91467
3.75641
3.58021
3.38823
3.18359
2.97008
2.75182
2.53304
2.31788
2.11033
1.91411
1.73253
1.56829
1.42324
1.29808
1.19225
1.10404
1.03084
0.969203
0.915639
0.867244
0.822171
0.779873
0.741047
0.707307
0.68064
0.663024
0.655735
0.658869
0.671287
0.690432
0.711716
0.729195
0.737719
0.734294
0.719155
0.696201
0.672485
0.656645
0.656602
0.677219
0.715954
0.767927
0.827882
0.889474
0.946547
0.994228
1.02958
1.05175
1.0617
1.06163
1.05456
1.04326
1.02981
1.01552
1.0008
0.985242
0.967904
0.947502
0.922753
0.892677
0.856845
0.81556
0.769829
0.721472
0.673172
0.628347
0.590675
0.563286
0.54839
0.5469
0.558233
0.580365
0.610136
0.643797
0.677685
0.708968
0.736322
0.759619
0.779575
0.797644
0.815593
0.835018
0.85703
0.881792
0.908086
0.933007
0.952485
0.962796
0.961875
0.950477
0.932728
0.91575
0.908313
0.918812
0.953198
1.01094
1.08746
1.17968
1.28343
1.39439
1.5087
1.62354
1.73623
1.8436
1.94057
2.01987
2.07222
2.08773
2.05904
1.98454
1.87027
1.72945
1.5794
1.4369
1.31066
1.19942
1.10062
1.01388
0.938588
0.873548
0.817481
0.768492
0.722328
0.674073
0.618738
0.552028
0.471099
0.283047
0
0.238301
1.41901
3.78219
7.2014
11.0908
14.4849
16.329
15.8955
13.14
8.78571
4.05165
0.147863
-2.19098
-2.89183
-2.3972
-1.33915
-0.245054
0.592798
1.10067
1.30334
1.36144
1.4138
1.46161
1.50518
1.54524
1.58287
1.61937
1.65606
1.69434
1.73555
1.78106
1.83232
1.89081
1.95783
2.03427
2.1204
2.21582
2.31924
2.42951
2.54583
2.66777
2.79534
2.92883
3.06849
3.21428
3.36554
3.52095
3.6785
3.83569
3.98968
4.13761
4.27692
4.40553
4.52196
4.62442
4.70979
4.77411
4.81561
4.83173
4.81951
4.77625
4.70018
4.59077
4.44864
4.27519
4.07274
3.84804
3.60672
3.35231
3.08887
2.82134
2.55538
2.29691
2.05166
1.82459
1.61947
1.43854
1.28247
1.15145
1.0447
0.957585
0.884795
0.821296
0.763152
0.708048
0.655338
0.605669
0.560313
0.520507
0.486484
0.458469
0.43635
0.419903
0.408956
0.4034
0.403056
0.4075
0.416014
0.427481
0.440699
0.454713
0.469116
0.484183
0.500792
0.520135
0.543331
0.570946
0.602739
0.637847
0.674859
0.711727
0.745934
0.775034
0.79701
0.810576
0.815322
0.811701
0.800849
0.784287
0.763602
0.740259
0.715332
0.689447
0.662913
0.635871
0.608464
0.581014
0.554198
0.529177
0.507638
0.491702
0.483869
0.488275
0.513084
0.565313
0.632858
0.695335
0.73177
0.729278
0.689364
0.628698
0.573444
0.549105
0.570141
0.62119
0.687046
0.760644
0.835338
0.906523
0.97249
1.03428
1.09467
1.15665
1.22202
1.29022
1.35914
1.42554
1.48528
1.53337
1.56474
1.57571
1.56363
1.52717
1.46659
1.38387
1.28274
1.16837
1.04675
0.92395
0.804615
0.691752
0.587441
0.492717
0.40802
0.333181
0.266896
0.207332
0.152582
0.100791
0.0504705
0
-0.047593
-0.0961178
-0.252061
-0.0622048
0.908434
2.98971
6.1769
9.99832
13.5637
15.8223
15.9536
13.7337
9.68957
4.92722
0.693408
-2.11415
-3.23205
-2.9879
-2.01015
-0.892467
0.00170259
0.554155
0.801585
0.834735
0.903285
0.979132
1.06004
1.14636
1.2371
1.33002
1.42289
1.51435
1.60443
1.69442
1.78626
1.88161
1.98105
2.08385
2.18811
2.29165
2.39297
2.49196
2.59001
2.68966
2.79375
2.90478
3.02397
3.15132
3.287
3.431
3.58304
3.74238
3.90746
4.07582
4.24304
4.40273
4.54809
4.67321
4.77395
4.84811
4.89486
4.91339
4.90268
4.86093
4.78604
4.67675
4.53374
4.36027
4.16199
3.94602
3.72017
3.49094
3.26214
3.03642
2.81557
2.60094
2.39384
2.19577
2.00841
1.83347
1.67235
1.52595
1.39446
1.27741
1.17373
1.08193
1.00037
0.927087
0.860181
0.79816
0.740691
0.688709
0.644473
0.611609
0.594235
0.595555
0.61666
0.655989
0.709622
0.772232
0.838344
0.903579
0.965797
1.0242
1.0786
1.12915
1.17619
1.21992
1.26015
1.29642
1.32793
1.35378
1.37317
1.38562
1.39107
1.38994
1.38298
1.37125
1.35608
1.33884
1.32082
1.30323
1.28716
1.27344
1.26256
1.25466
1.24956
1.24681
1.24586
1.24615
1.24721
1.24868
1.25035
1.25204
1.25366
1.25511
1.25628
1.25712
1.25757
1.25762
1.25725
1.25642
1.25502
1.25289
1.24985
1.24582
1.24091
1.23562
1.23086
1.22812
1.22949
1.23719
1.2531
1.2782
1.31231
1.35508
1.40192
1.44686
1.48445
1.51146
1.52807
1.53813
1.5483
1.57545
1.68643
1.94094
2.24834
2.51774
2.67203
2.66488
2.49828
2.22572
1.93244
1.69924
1.55955
1.45119
1.35157
1.25707
1.16825
1.08734
1.01725
0.962734
0.933411
0.936458
0.954957
0.96257
0.931682
0.843078
0.69281
0.492925
0.103044
0
0.665833
2.41604
5.31717
9.06257
12.9489
16.0165
17.3432
16.4076
13.3555
9.00715
4.55791
1.10088
-0.783302
-1.15808
-0.551649
0.388284
1.18783
1.65892
1.81517
1.82571
1.8394
1.85772
1.88359
1.91929
1.96627
2.02477
2.09409
2.17274
2.25863
2.34936
2.44263
2.53659
2.63014
2.7231
2.81627
2.91137
3.01076
3.11702
3.23241
3.35841
3.49527
3.64186
3.79582
3.95398
4.11293
4.26956
4.42146
4.56704
4.70547
4.83648
4.95995
5.07621
5.18585
5.28984
5.38959
5.48626
5.58118
5.67496
5.76227
5.83108
5.86624
5.85499
5.79115
5.67625
5.51762
5.32519
5.10887
4.88055
4.6467
4.41039
4.17357
3.93811
3.70617
3.48025
3.26317
3.05774
2.86645
2.69103
2.53215
2.38933
2.26114
2.14562
2.04081
1.94555
1.8602
1.78588
1.72409
1.67647
1.64405
1.62656
1.62224
1.62803
1.64017
1.65494
1.66931
1.68162
1.69109
1.69775
1.7022
1.70529
1.70787
1.71062
1.71389
1.71768
1.72159
1.72482
1.72598
1.72306
1.71383
1.69618
1.66865
1.63107
1.58504
1.53398
1.48279
1.43706
1.40189
1.38089
1.37955
1.39818
1.42912
1.46217
1.48745
1.49795
1.49099
1.46835
1.43538
1.39943
1.36788
1.34522
1.33312
1.33142
1.33965
1.35556
1.3746
1.39173
1.40241
1.40352
1.39378
1.37381
1.34566
1.31224
1.27675
1.24219
1.21082
1.18484
1.1662
1.15653
1.15704
1.16835
1.19031
1.22202
1.26197
1.30829
1.35913
1.41297
1.46893
1.52681
1.5869
1.64978
1.71607
1.78618
1.86019
1.9378
2.01771
2.09619
2.16676
2.22182
2.25369
2.25601
2.22502
2.16039
2.06551
1.9471
1.81441
1.67822
1.54685
1.42509
1.31528
1.21881
1.13624
1.06665
1.00778
0.956241
0.907707
0.85723
0.800095
0.732488
0.645835
0.538301
0.415769
0.0749511
0
0.605062
2.23316
5.01879
8.73639
12.734
16.0213
17.559
16.6799
13.4485
8.73053
3.87343
0.137068
-1.81474
-2.0846
-1.31662
-0.269881
0.538274
0.945446
1.03661
1.06995
1.11955
1.17813
1.24791
1.32961
1.42226
1.52379
1.6314
1.74192
1.85212
1.95866
2.05799
2.14652
2.22121
2.28077
2.32534
2.35718
2.38113
2.40465
2.43709
2.48818
2.56615
2.67589
2.81489
2.9766
3.15505
3.34485
3.54013
3.73485
3.92282
4.09807
4.25625
4.39472
4.51274
4.61134
4.69294
4.75999
4.8132
4.85211
4.87415
4.87381
4.8436
4.77602
4.6658
4.51161
4.31687
4.08944
3.84021
3.58173
3.32361
3.07118
2.82815
2.59655
2.37704
2.16939
1.97303
1.78755
1.6131
1.45047
1.30112
1.16689
1.04963
0.951015
0.873667
0.82153
0.793782
0.780904
0.771773
0.756684
0.73013
0.692259
0.648389
0.606795
0.575656
0.559096
0.5547
0.559991
0.572893
0.590373
0.608499
0.623501
0.632869
0.635903
0.633941
0.630188
0.629061
0.635141
0.651955
0.681548
0.724651
0.775794
0.825888
0.865598
0.88799
0.890336
0.874616
0.846669
0.81434
0.785193
0.76383
0.75071
0.744144
0.742279
0.742639
0.742858
0.741278
0.737226
0.730919
0.723016
0.714021
0.703768
0.691099
0.674151
0.650951
0.620315
0.582672
0.540516
0.498256
0.461473
0.435774
0.425245
0.431695
0.455443
0.496968
0.553266
0.614504
0.668515
0.705084
0.718221
0.707696
0.679307
0.643522
0.612625
0.597102
0.600024
0.622196
0.658534
0.696629
0.723148
0.728506
0.710475
0.675463
0.636892
0.611175
0.612679
0.644868
0.700714
0.773611
0.86003
0.956628
1.05998
1.16727
1.27632
1.38553
1.49383
1.60023
1.70302
1.79772
1.87602
1.92491
1.92862
1.87362
1.75453
1.5783
1.36452
1.14107
0.936491
0.761395
0.610283
0.480496
0.374158
0.300397
0.295752
0.425606
0.640109
0.858779
0.981631
0.927535
0.675752
0.278893
-0.261052
-0.492491
0
1.53559
4.23863
7.89159
11.8492
15.1292
16.7106
15.953
12.9281
8.45848
3.80357
0.138124
-1.89945
-2.35609
-1.77679
-0.837285
-0.032484
0.443866
0.632992
0.737185
0.850075
0.964459
1.07896
1.19151
1.2992
1.39886
1.488
1.56526
1.63092
1.68699
1.73706
1.78566
1.83758
1.89703
1.96681
2.04781
2.13976
2.24156
2.35134
2.46685
2.58592
2.70676
2.82833
2.95043
3.07359
3.1987
3.32653
3.4574
3.59087
3.7259
3.86105
3.99492
4.12645
4.25475
4.37832
4.49496
4.60164
4.6932
4.76278
4.8035
4.80984
4.77826
4.707
4.59577
4.4457
4.26278
4.05452
3.82844
3.59216
3.35224
3.11335
2.87905
2.65208
2.4343
2.22692
2.03082
1.84687
1.67626
1.5206
1.38179
1.26181
1.16228
1.0843
1.03012
1.00254
0.999189
1.01114
1.02853
1.0426
1.04769
1.04226
1.02886
1.01288
1.00044
0.996067
1.0004
1.01152
1.0271
1.04411
1.05974
1.07218
1.08104
1.08722
1.09244
1.09858
1.1069
1.11778
1.13105
1.1461
1.16187
1.17722
1.19105
1.20254
1.2111
1.21636
1.21805
1.21581
1.20916
1.19759
1.18052
1.15767
1.12917
1.09586
1.05931
1.02183
0.986433
0.956646
0.935915
0.927206
0.932567
0.952763
0.987646
1.03687
1.09712
1.1607
1.21777
1.25965
1.28061
1.27908
1.2577
1.22214
1.17915
1.13448
1.09159
1.05135
1.01372
0.979564
0.950593
0.929045
0.917353
0.917279
0.929129
0.951457
0.981415
1.01565
1.05142
1.08743
1.12409
1.16317
1.20723
1.25875
1.31917
1.38824
1.46507
1.54803
1.63486
1.72235
1.80627
1.88229
1.94639
1.99518
2.02597
2.03668
2.02561
1.99125
1.93239
1.85021
1.74522
1.61946
1.47692
1.32364
1.16736
1.01623
0.878084
0.763178
0.684798
0.650864
0.65179
0.665476
0.667313
0.636275
0.559501
0.434724
0.27042
0.0837697
-0.172964
0
0.958807
2.95661
5.98987
9.68824
13.3161
15.9238
16.6502
15.0839
11.5102
6.87453
2.42611
-0.797467
-2.36351
-2.50263
-1.83486
-0.975279
-0.264992
0.250291
0.663581
1.03463
1.19569
1.25982
1.3096
1.35671
1.40667
1.46426
1.5327
1.6127
1.70206
1.79829
1.89856
1.99978
2.09882
2.19297
2.28093
2.36302
2.44128
2.51928
2.60159
2.69305
2.79791
2.91913
3.05693
3.20971
3.37548
3.55141
3.7339
3.91888
4.10208
4.2793
4.44659
4.60044
4.73771
4.85538
4.95044
5.02053
5.06478
5.08214
5.07134
5.03102
4.96005
4.85778
4.72433
4.56077
4.36974
4.15682
3.92773
3.68709
3.43919
3.18853
2.93946
2.69604
2.46181
2.23967
2.03186
1.83978
1.664
1.50418
1.35911
1.22691
1.10527
0.991905
0.885
0.783723
0.688398
0.600132
0.520803
0.452595
0.397511
0.35735
0.3333
0.325042
0.331239
0.349595
0.377393
0.410964
0.446713
0.481744
0.514369
0.544281
0.572321
0.599878
0.628179
0.657696
0.687905
0.717794
0.746126
0.771757
0.793911
0.812294
0.827026
0.838459
0.846933
0.852617
0.855399
0.854894
0.850522
0.841645
0.827693
0.808302
0.783411
0.753393
0.719044
0.681485
0.642132
0.602573
0.564411
0.529103
0.497897
0.471805
0.451608
0.437974
0.43157
0.433131
0.443466
0.463348
0.493327
0.534991
0.591529
0.66196
0.734621
0.794991
0.830126
0.833224
0.806071
0.758023
0.702012
0.649742
0.607954
0.575439
0.550175
0.532046
0.521195
0.517903
0.52253
0.535397
0.556505
0.585912
0.623593
0.669463
0.723151
0.784237
0.851932
0.925034
1.00209
1.08147
1.16192
1.24293
1.32491
1.40905
1.49809
1.59554
1.69921
1.7985
1.87877
1.92631
1.93228
1.89439
1.81605
1.70476
1.57056
1.42593
1.28202
1.14585
1.02113
0.909569
0.812295
0.730393
0.663637
0.6104
0.568105
0.533308
0.50041
0.463654
0.418197
0.356905
0.280564
0.194537
-0.0969505
0
0.849138
2.6991
5.55778
9.09847
12.6545
15.3394
16.3107
15.1062
11.9001
7.51188
3.11261
-0.245479
-2.02653
-2.3306
-1.70355
-0.791176
-0.0443566
0.390039
0.597748
0.743978
0.852306
0.943857
1.02662
1.10173
1.17113
1.23787
1.30524
1.37576
1.45054
1.52884
1.6093
1.69065
1.77198
1.85313
1.93477
2.01832
2.10564
2.19865
2.299
2.40783
2.5257
2.65263
2.78815
2.93144
3.08141
3.2367
3.39572
3.55663
3.71744
3.87605
4.03041
4.17843
4.31802
4.44738
4.56508
4.66951
4.75796
4.82587
4.86843
4.88084
4.85745
4.79324
4.6857
4.53595
4.34894
4.13215
3.89384
3.64345
3.38808
3.13145
2.87662
2.62675
2.38523
2.15552
1.94095
1.74428
1.56739
1.41098
1.27448
1.15618
1.05347
0.963314
0.88271
0.809229
0.741402
0.678953
0.622893
0.575016
0.537474
0.512367
0.50243
0.509082
0.529725
0.557889
0.585836
0.606086
0.612812
0.602832
0.576158
0.536065
0.488683
0.442063
0.404291
0.381669
0.377506
0.392593
0.425283
0.471558
0.525991
0.582874
0.637466
0.686304
0.727229
0.759282
0.782421
0.797132
0.804023
0.803274
0.794981
0.77911
0.755789
0.725718
0.690453
0.652406
0.614515
0.579701
0.550315
0.527067
0.510345
0.500059
0.495782
0.496962
0.503016
0.513289
0.526983
0.543018
0.559775
0.575441
0.588317
0.597168
0.601487
0.601564
0.598353
0.593148
0.587192
0.581298
0.57564
0.569773
0.562729
0.553313
0.540487
0.523765
0.503522
0.481084
0.45886
0.440129
0.428421
0.426884
0.437678
0.461489
0.497289
0.542408
0.593053
0.644638
0.692849
0.734541
0.768402
0.795248
0.817878
0.840491
0.867823
0.904136
0.951689
1.01062
1.07984
1.15789
1.23965
1.31754
1.3842
1.43392
1.46333
1.47129
1.45805
1.42418
1.37
1.29741
1.20931
1.10781
0.996919
0.882513
0.771708
0.671635
0.591696
0.539433
0.512341
0.502069
0.496939
0.48473
0.454989
0.400513
0.318087
0.208707
0.0733027
-0.0773947
-0.512156
-0.660352
0
1.91287
5.17314
9.33888
13.4598
16.356
17.0632
15.2525
11.4127
6.6753
2.34536
-0.62574
-1.9516
-1.96466
-1.29245
-0.497964
0.136837
0.567258
0.755202
0.824465
0.881568
0.931086
0.975158
1.01641
1.0574
1.10012
1.14574
1.19293
1.23779
1.27618
1.30609
1.32946
1.35277
1.38591
1.43965
1.5227
1.63651
1.77439
1.92989
2.09809
2.274
2.45278
2.63042
2.80413
2.9724
3.1349
3.29203
3.44452
3.59288
3.73712
3.87649
4.00945
4.13373
4.24622
4.34281
4.41963
4.47422
4.50456
4.50907
4.48645
4.43558
4.35556
4.2458
4.10635
3.93983
3.75131
3.5453
3.32578
3.09696
2.86314
2.62838
2.39631
2.17002
1.95213
1.7449
1.55026
1.36989
1.20513
1.057
0.926153
0.812951
0.717451
0.639549
0.579705
0.538256
0.51338
0.500806
0.495102
0.490656
0.482702
0.468308
0.44702
0.420952
0.394233
0.371889
0.358382
0.356185
0.365797
0.384981
0.409694
0.435523
0.459086
0.478945
0.495744
0.511572
0.528888
0.549482
0.5734
0.599929
0.62804
0.656598
0.684732
0.712
0.738319
0.763712
0.787928
0.810392
0.83016
0.846203
0.857758
0.864554
0.86679
0.864863
0.859028
0.849177
0.835133
0.8165
0.793283
0.766214
0.736846
0.70735
0.680087
0.657075
0.639237
0.62684
0.61937
0.615606
0.613859
0.612227
0.608747
0.60184
0.590581
0.574846
0.555327
0.533354
0.51056
0.48849
0.46827
0.450364
0.434789
0.421252
0.409432
0.399251
0.391061
0.385718
0.384412
0.388405
0.398966
0.416982
0.443906
0.479592
0.519315
0.556792
0.586203
0.604148
0.610856
0.610072
0.607648
0.609452
0.619493
0.637425
0.661555
0.690903
0.724582
0.762273
0.804352
0.85165
0.90497
0.964561
1.02963
1.09845
1.16896
1.23895
1.30637
1.3695
1.42696
1.4771
1.51702
1.54308
1.55195
1.54009
1.50478
1.44513
1.36287
1.26227
1.14946
1.03139
0.914521
0.802733
0.69902
0.60526
0.522027
0.448777
0.383712
0.323824
0.265718
0.206251
0.142533
0.0740561
0.00235605
-0.166122
0
0.873319
2.78372
5.81231
9.61775
13.4124
16.149
16.8948
15.2452
11.5632
6.88298
2.49078
-0.605377
-2.02801
-2.03674
-1.24306
-0.254897
0.546724
1.03335
1.23465
1.20925
1.18439
1.16356
1.15113
1.15146
1.16849
1.2038
1.25771
1.32969
1.41822
1.52069
1.63382
1.75422
1.87875
2.00494
2.1311
2.25634
2.38041
2.50335
2.6253
2.74619
2.86569
2.98321
3.09799
3.20954
3.31796
3.42403
3.52924
3.63546
3.74434
3.85672
3.97214
4.08859
4.20279
4.31067
4.40804
4.49113
4.55691
4.60247
4.62458
4.62184
4.59299
4.53696
4.45302
4.34097
4.2013
4.03521
3.84461
3.63318
3.40582
3.16634
2.91932
2.66996
2.42377
2.1861
1.96165
1.75415
1.56618
1.39921
1.2538
1.12978
1.02644
0.942834
0.877881
0.829877
0.795778
0.772155
0.755819
0.744225
0.735663
0.729178
0.724234
0.72034
0.716469
0.710959
0.701971
0.688176
0.669429
0.647084
0.623757
0.602608
0.586402
0.576213
0.571449
0.571277
0.574312
0.57901
0.584087
0.588788
0.592962
0.596945
0.601326
0.606671
0.613276
0.62106
0.629559
0.637989
0.645346
0.650615
0.653048
0.652369
0.648933
0.643784
0.638565
0.635269
0.635851
0.641782
0.654027
0.672762
0.695689
0.717844
0.733589
0.738057
0.728468
0.704909
0.670393
0.630188
0.59065
0.557674
0.534177
0.520711
0.517645
0.52485
0.53949
0.556745
0.57167
0.580363
0.580866
0.573573
0.56101
0.547082
0.535997
0.530888
0.532721
0.541123
0.55534
0.573091
0.59122
0.606589
0.61675
0.620441
0.617851
0.610601
0.601476
0.59398
0.591658
0.597333
0.613054
0.640181
0.679323
0.730337
0.792561
0.864826
0.945494
1.03249
1.12336
1.21519
1.30417
1.38619
1.45712
1.51319
1.55116
1.56845
1.56304
1.53382
1.48072
1.40505
1.3099
1.20028
1.08289
0.965345
0.855128
0.757464
0.676745
0.614286
0.567784
0.532119
0.500082
0.463576
0.415088
0.348751
0.2611
0.149888
0.0151401
-0.137268
-0.405374
-0.482248
0
1.36044
3.77994
7.12971
10.872
14.1135
15.861
15.4107
12.7007
8.42068
3.77258
-0.023938
-2.22419
-2.78317
-2.21525
-1.22343
-0.34222
0.215285
0.49113
0.585106
0.65876
0.729817
0.798906
0.86654
0.933439
1.00051
1.06886
1.13972
1.21448
1.29451
1.38111
1.47527
1.57756
1.68799
1.80604
1.93067
2.06047
2.19379
2.32886
2.4639
2.59721
2.72717
2.85261
2.97321
3.08967
3.20367
3.31769
3.43443
3.55607
3.68366
3.81668
3.95289
4.08923
4.22225
4.34845
4.46428
4.56563
4.64818
4.70856
4.74404
4.75146
4.72745
4.66888
4.57339
4.43958
4.26714
4.05694
3.81318
3.54347
3.25544
2.95544
2.65043
2.34807
2.05599
1.7809
1.5278
1.2995
1.09653
0.917537
0.759974
0.62111
0.499395
0.394111
0.30486
0.231893
0.175824
0.137023
0.115176
0.10912
0.116937
0.136205
0.164281
0.198298
0.235688
0.274373
0.312622
0.348977
0.382257
0.411599
0.436495
0.456804
0.472735
0.484808
0.493872
0.500964
0.507172
0.513436
0.520329
0.527913
0.535273
0.540293
0.54022
0.532413
0.515158
0.488258
0.453213
0.412988
0.371507
0.333034
0.300621
0.276535
0.26335
0.265783
0.290451
0.334128
0.38303
0.420789
0.434337
0.419064
0.380696
0.332985
0.29247
0.27285
0.275535
0.294235
0.325627
0.368957
0.421293
0.474396
0.517277
0.539439
0.533401
0.497162
0.435505
0.359287
0.282699
0.219471
0.176789
0.152531
0.145156
0.154091
0.177738
0.213799
0.259032
0.31071
0.365412
0.418206
0.464084
0.498977
0.520689
0.529545
0.528482
0.522515
0.517768
0.520407
0.534772
0.562799
0.605654
0.664504
0.740139
0.832476
0.94031
1.06401
1.202
1.34353
1.47422
1.58068
1.65361
1.68969
1.69145
1.66534
1.61882
1.55766
1.48588
1.40497
1.31486
1.21513
1.10597
0.988749
0.866214
0.742617
0.623225
0.513592
0.418681
0.342387
0.288799
0.266143
0.280686
0.316423
0.354833
0.381256
0.390169
0.386753
0.00407128
0
0.903828
3.07573
6.47223
10.5261
14.2284
16.4364
16.3175
13.735
9.36979
4.47492
0.365636
-2.09562
-2.76152
-2.10987
-0.907602
0.165679
0.751704
0.847728
0.803886
0.888008
0.980933
1.08022
1.18014
1.27434
1.35753
1.42696
1.48331
1.53049
1.57449
1.6217
1.67737
1.74316
1.81905
1.90491
2.00036
2.10474
2.2173
2.33738
2.46445
2.59813
2.73813
2.88415
3.03571
3.19195
3.3515
3.51246
3.67251
3.82926
3.98063
4.1253
4.26301
4.39464
4.52192
4.64718
4.77427
4.90918
5.05412
5.19749
5.31867
5.39616
5.41302
5.35995
5.2366
5.05181
4.82225
4.56844
4.30954
4.05426
3.80397
3.55874
3.31958
3.08778
2.86477
2.65217
2.45163
2.26473
2.09287
1.93723
1.79873
1.67813
1.57576
1.49144
1.4254
1.37698
1.34354
1.32173
1.30791
1.2985
1.29035
1.28092
1.26842
1.25185
1.23122
1.20723
1.18161
1.15762
1.13911
1.12963
1.13168
1.14606
1.17182
1.20657
1.24726
1.2908
1.33468
1.37732
1.41743
1.45379
1.48544
1.51144
1.53103
1.54382
1.55003
1.55056
1.54701
1.5415
1.53626
1.5331
1.53312
1.53702
1.54354
1.54831
1.54577
1.53102
1.50166
1.459
1.40802
1.35595
1.31017
1.27577
1.25232
1.23917
1.23534
1.23931
1.2496
1.26498
1.28485
1.309
1.33736
1.36974
1.40586
1.44526
1.48698
1.52871
1.56688
1.59738
1.6163
1.6208
1.60991
1.58501
1.54983
1.50997
1.4719
1.44108
1.42103
1.41398
1.42001
1.43715
1.46184
1.48977
1.51675
1.53965
1.55653
1.56688
1.5715
1.57226
1.57178
1.57277
1.57776
1.5888
1.60714
1.63306
1.66591
1.70472
1.7484
1.79606
1.84735
1.90263
1.96306
2.03231
2.1243
2.28376
2.54085
2.83159
3.07245
3.18731
3.13922
2.94905
2.68683
2.43907
2.26925
2.16508
2.07751
1.99336
1.91008
1.8274
1.74616
1.66806
1.59519
1.52949
1.47244
1.4245
1.3826
1.34051
1.28986
1.21513
1.03327
0.744175
0.388285
-0.0533173
0
0.965245
3.14123
6.51521
10.6299
14.603
17.348
17.9582
16.099
12.2076
7.36437
2.86893
-0.273772
-1.69463
-1.67282
-0.856065
0.110432
0.842753
1.26028
1.45323
1.51076
1.56715
1.62409
1.68266
1.74383
1.80828
1.87631
1.94774
2.02204
2.09855
2.17677
2.25663
2.33868
2.4241
2.5145
2.61162
2.71681
2.83061
2.95246
3.08061
3.21237
3.34463
3.47448
3.59989
3.72018
3.83616
3.94992
4.06427
4.18191
4.30471
4.43303
4.56549
4.69914
4.8294
4.95103
5.05895
5.14886
5.21756
5.26222
5.28079
5.27252
5.23701
5.17419
5.08435
4.96831
4.8275
4.66389
4.47975
4.27835
4.06319
3.83653
3.60058
3.3578
3.11109
2.86381
2.61978
2.38302
2.15753
1.94689
1.75402
1.58088
1.42841
1.29659
1.1846
1.09136
1.01566
0.955766
0.910034
0.877066
0.855744
0.845188
0.844673
0.853498
0.870816
0.895437
0.926198
0.961107
0.996267
1.02727
1.05054
1.06453
1.07049
1.07251
1.07655
1.08994
1.12605
1.18331
1.24047
1.26837
1.24321
1.15859
1.03048
0.892654
0.784058
0.733379
0.725911
0.764715
0.828325
0.889478
0.924861
0.922917
0.886663
0.830539
0.772865
0.727602
0.697725
0.676487
0.659947
0.645851
0.633215
0.622601
0.615711
0.614538
0.620492
0.632972
0.650633
0.672121
0.6959
0.720418
0.744295
0.766355
0.785595
0.80117
0.81238
0.818636
0.819508
0.814785
0.804502
0.788899
0.768328
0.743144
0.713687
0.68036
0.643751
0.60484
0.565222
0.527271
0.494095
0.469615
0.461883
0.490139
0.573499
0.688257
0.795615
0.857009
0.849822
0.776478
0.663223
0.549444
0.472428
0.451742
0.467738
0.5036
0.552415
0.611065
0.67709
0.748381
0.823373
0.90112
0.981367
1.06449
1.15135
1.24319
1.34261
1.45262
1.57048
1.68437
1.77918
1.84116
1.86172
1.83895
1.77653
1.68152
1.56229
1.42781
1.28785
1.14915
1.01583
0.890487
0.774662
0.669424
0.575414
0.492305
0.418775
0.352588
0.290552
0.228732
0.162973
0.0879759
-0.00755153
-0.126562
-0.263796
-0.539048
-0.588519
0
1.61083
4.4307
8.2533
12.3886
15.7866
17.3771
16.5123
13.3
8.62808
3.82427
0.107266
-1.88619
-2.25274
-1.61157
-0.698095
-0.014635
0.297122
0.366394
0.46735
0.565144
0.660411
0.752382
0.841194
0.928101
1.01534
1.10565
1.20147
1.30412
1.41317
1.52609
1.63921
1.74818
1.84895
1.93872
2.01655
2.08359
2.14285
2.19863
2.25581
2.319
2.39201
2.47775
2.57815
2.69411
2.82558
2.97175
3.13114
3.30169
3.48071
3.66489
3.85044
4.03131
4.19973
4.34834
4.47078
4.56241
4.62052
4.64396
4.63241
4.58575
4.50385
4.38869
4.24366
4.0721
3.87786
3.66605
3.44284
3.21403
2.98384
2.75522
2.53013
2.30966
2.09451
1.88534
1.68321
1.48967
1.30661
1.13595
0.97948
0.838083
0.71116
0.597237
0.495279
0.406353
0.331253
0.271765
0.230788
0.210688
0.211747
0.231442
0.26482
0.305732
0.348284
0.388257
0.423824
0.453502
0.47607
0.49108
0.498549
0.499075
0.493965
0.485229
0.475364
0.466974
0.462327
0.462693
0.468457
0.479644
0.49572
0.515684
0.538259
0.562012
0.585309
0.606457
0.623808
0.635876
0.641444
0.639652
0.630065
0.612716
0.58815
0.557543
0.522489
0.484965
0.447503
0.412924
0.383932
0.362796
0.351086
0.349504
0.357842
0.375067
0.399511
0.4291
0.461579
0.494732
0.526581
0.555361
0.579286
0.59681
0.606744
0.608265
0.601028
0.58527
0.561853
0.532238
0.498394
0.46268
0.427699
0.396387
0.371727
0.356333
0.352231
0.360546
0.381268
0.4132
0.454109
0.50107
0.550889
0.600477
0.647379
0.689398
0.724278
0.750382
0.766877
0.7739
0.772923
0.766994
0.760682
0.759621
0.769667
0.795843
0.840217
0.903517
0.984155
1.07851
1.18168
1.2883
1.39366
1.49409
1.5866
1.66685
1.72821
1.76619
1.77538
1.75034
1.6877
1.58835
1.4586
1.30971
1.15579
1.01058
0.880025
0.766412
0.671464
0.593785
0.529908
0.475223
0.424926
0.3748
0.32171
0.263633
0.198903
0.128307
0.0536716
-0.0867238
0
0.669885
2.26778
4.94782
8.49176
12.2279
15.1538
16.2735
15.0334
11.6339
7.01302
2.46623
-0.905581
-2.61282
-2.84127
-2.18224
-1.24605
-0.407162
0.225803
0.687219
1.01399
1.11023
1.18002
1.24406
1.30461
1.36268
1.41933
1.47563
1.53263
1.59143
1.65323
1.71931
1.79083
1.86862
1.95296
2.04343
2.139
2.23844
2.34063
2.44486
2.55114
2.66028
2.77378
2.89351
3.02123
3.15809
3.30422
3.45844
3.61839
3.78076
3.94176
4.09768
4.24523
4.38164
4.5046
4.61222
4.70251
4.77314
4.82188
4.84636
4.84357
4.81017
4.74303
4.63978
4.49946
4.32304
4.11363
3.87762
3.62341
3.35884
3.09038
2.82358
2.56304
2.31221
2.07334
1.84767
1.63576
1.43794
1.25456
1.08624
0.933826
0.798228
0.680084
0.580629
0.500525
0.437657
0.389288
0.352702
0.32579
0.307337
0.296895
0.2943
0.299105
0.310347
0.326222
0.344696
0.364161
0.383998
0.404785
0.42808
0.455877
0.489994
0.531132
0.579106
0.633561
0.69405
0.760229
0.831813
0.906765
0.97853
1.0374
1.0728
1.07638
1.04502
0.982501
0.898922
0.808351
0.72538
0.658732
0.608424
0.573343
0.555317
0.550623
0.550782
0.546857
0.532005
0.503472
0.463319
0.417559
0.374017
0.339689
0.317013
0.303952
0.299085
0.299475
0.301346
0.301064
0.296044
0.285334
0.269877
0.252416
0.237044
0.228458
0.231056
0.247782
0.27899
0.325003
0.385094
0.456213
0.53059
0.596582
0.643711
0.665073
0.659291
0.631413
0.591917
0.553634
0.527625
0.519921
0.52664
0.542313
0.564766
0.593235
0.628058
0.670724
0.723497
0.788754
0.8678
0.960452
1.06535
1.17977
1.29985
1.41902
1.52944
1.624
1.69745
1.74702
1.7724
1.77508
1.75734
1.72125
1.66806
1.59973
1.51795
1.42368
1.31852
1.20525
1.08758
0.969669
0.855435
0.747614
0.647937
0.556716
0.472669
0.393335
0.315307
0.231209
0.113482
-0.0589948
-0.283969
-0.54033
-0.590299
0
1.5792
4.29599
7.9466
11.9098
15.2371
16.929
16.3257
13.4389
9.02719
4.32688
0.547323
-1.60378
-2.11641
-1.5225
-0.530925
0.317504
0.801577
0.963808
0.980225
1.0204
1.06883
1.12809
1.20049
1.28709
1.38752
1.50017
1.6224
1.75092
1.88221
2.01284
2.1397
2.25916
2.36702
2.46132
2.54133
2.60807
2.66471
2.71654
2.77035
2.83335
2.9118
3.00951
3.12494
3.25604
3.40115
3.55802
3.72407
3.89672
4.07363
4.25278
4.43237
4.6105
4.78368
4.94571
5.09012
5.20967
5.29787
5.35026
5.36477
5.34113
5.27992
5.18206
5.04925
4.88901
4.70775
4.50969
4.29807
4.07637
3.84789
3.61466
3.3785
3.14178
2.9076
2.67975
2.46235
2.25927
2.07355
1.90686
1.75936
1.62977
1.51584
1.41496
1.32484
1.2445
1.17447
1.11601
1.07083
1.04069
1.02656
1.02803
1.04313
1.06859
1.10041
1.13454
1.16758
1.19726
1.22229
1.24244
1.25839
1.27145
1.28316
1.29488
1.30735
1.32056
1.33363
1.34519
1.354
1.35952
1.36221
1.36347
1.36523
1.36933
1.37666
1.38711
1.3995
1.41136
1.4197
1.42179
1.41578
1.40117
1.37894
1.35135
1.32152
1.29295
1.26868
1.25071
1.2403
1.23835
1.24548
1.26113
1.28207
1.30316
1.31909
1.32559
1.32044
1.30403
1.27921
1.25048
1.22292
1.20065
1.18547
1.1775
1.1762
1.18057
1.18869
1.19784
1.20526
1.2089
1.2078
1.20232
1.19399
1.18506
1.17784
1.17404
1.17409
1.17724
1.18218
1.18701
1.18964
1.18821
1.18156
1.16957
1.15333
1.13505
1.11857
1.10864
1.10989
1.12592
1.15859
1.20768
1.27106
1.34529
1.42645
1.51057
1.59497
1.67802
1.75889
1.83738
1.91368
1.98789
2.05953
2.12671
2.18583
2.23166
2.25818
2.25996
2.23351
2.17801
2.0955
1.99054
1.86965
1.74151
1.6131
1.48916
1.37308
1.26717
1.17275
1.08984
1.01711
0.952123
0.891942
0.832597
0.757348
0.598309
0.339888
0.0145827
-0.250881
0
1.16131
3.46959
6.84518
10.8112
14.5351
17.0284
17.477
15.5909
11.7977
7.13854
2.86784
-0.0530935
-1.30163
-1.20126
-0.427629
0.383721
0.896438
1.09799
1.1546
1.20775
1.25504
1.29887
1.33937
1.37742
1.41485
1.4542
1.49833
1.55001
1.61127
1.6831
1.76579
1.85897
1.9615
2.07172
2.18759
2.30702
2.42812
2.54946
2.67034
2.79087
2.91199
3.03517
3.1621
3.29416
3.43195
3.57498
3.72155
3.86893
4.01382
4.15284
4.28316
4.40283
4.5111
4.60835
4.69578
4.77465
4.84526
4.90581
4.95193
4.97699
4.97192
4.92784
4.83892
4.7043
4.52819
4.31857
4.08491
3.83847
3.58787
3.33764
3.09151
2.85287
2.62465
2.40924
2.20828
2.02264
1.85243
1.69725
1.55646
1.42945
1.31587
1.21562
1.12868
1.05483
0.993557
0.944357
0.905533
0.873238
0.843737
0.814504
0.785099
0.757888
0.737542
0.729247
0.736561
0.759808
0.795693
0.838339
0.881317
0.919826
0.952825
0.981563
1.00943
1.0408
1.08014
1.13339
1.20596
1.29486
1.38162
1.4432
1.4577
1.41075
1.30194
1.14848
0.98285
0.843919
0.764741
0.819276
0.973477
1.1486
1.25938
1.25354
1.13488
0.95878
0.80233
0.723891
0.727319
0.753788
0.784141
0.809575
0.824695
0.828218
0.822391
0.811455
0.799783
0.790271
0.783447
0.778773
0.775491
0.772699
0.769695
0.766182
0.762324
0.758657
0.755894
0.754705
0.75555
0.75857
0.763517
0.769655
0.775856
0.780843
0.783416
0.782659
0.778051
0.769504
0.757324
0.742173
0.725073
0.707403
0.690966
0.678168
0.671734
0.674503
0.689098
0.717611
0.761369
0.82082
0.895512
0.984125
1.08382
1.19149
1.30433
1.4195
1.53431
1.64652
1.75445
1.85655
1.95042
2.03163
2.09435
2.13124
2.13312
2.0917
2.00279
1.86874
1.69889
1.50801
1.31329
1.12882
0.959501
0.808127
0.677558
0.56865
0.480907
0.412219
0.356929
0.306695
0.25256
0.185981
0.08335
-0.0631952
-0.242445
-0.579949
-0.637976
0
1.67172
4.4931
8.21074
12.1641
15.4005
16.953
16.2076
13.208
8.72224
3.98011
0.179636
-1.98601
-2.52435
-1.9777
-1.04413
-0.232875
0.26395
0.488259
0.539493
0.590295
0.643679
0.700888
0.763327
0.831777
0.906333
0.986504
1.07142
1.16009
1.25161
1.34534
1.44087
1.53802
1.6367
1.73685
1.83833
1.941
2.04471
2.14938
2.25506
2.36201
2.47081
2.58237
2.69795
2.81901
2.94685
3.0822
3.22469
3.37254
3.52278
3.66971
3.8066
3.92765
4.02952
4.11225
4.17906
4.23516
4.28414
4.32927
4.36717
4.38715
4.37636
4.32589
4.23431
4.10686
3.95126
3.77295
3.57629
3.36651
3.14549
2.91336
2.67153
2.42297
2.17214
1.92454
1.68613
1.4626
1.25871
1.07804
0.923048
0.793505
0.687578
0.602368
0.534518
0.480777
0.438398
0.405316
0.380127
0.361927
0.349992
0.343952
0.343527
0.348487
0.358574
0.373573
0.393189
0.416966
0.444244
0.473958
0.504467
0.533572
0.558752
0.577743
0.588986
0.592081
0.588052
0.57932
0.569297
0.56168
0.559583
0.564727
0.576723
0.594117
0.61428
0.634296
0.651818
0.665745
0.676544
0.686117
0.697285
0.713017
0.735879
0.768835
0.811868
0.85815
0.897255
0.918799
0.915724
0.886649
0.836475
0.774993
0.71401
0.66403
0.629008
0.607142
0.596073
0.594748
0.60193
0.616301
0.63652
0.661473
0.690107
0.721295
0.753781
0.786138
0.81687
0.844708
0.868834
0.889036
0.905729
0.919815
0.932434
0.944678
0.957349
0.970836
0.985166
1.00022
1.01591
1.03242
1.05039
1.07103
1.09614
1.12798
1.16897
1.22132
1.2865
1.36478
1.45585
1.55879
1.66716
1.77026
1.85743
1.92046
1.95519
1.96186
1.94415
1.90729
1.85607
1.79386
1.72278
1.64331
1.55505
1.45751
1.35094
1.2367
1.11734
0.996421
0.87793
0.765631
0.662471
0.570363
0.489423
0.417359
0.350637
0.285391
0.217223
0.142675
-0.136715
-0.275955
0.209521
1.71271
4.39498
8.0293
11.9584
15.2218
16.8387
16.1755
115
309
494
682
875
1076
1273
1473
1679
1891
2097
2301
2513
2726
2934
3135
3344
3549
3273
3456
3641
3725
0
0
0
0
0
0
0
0
0
0
0
0
0
0
0
0
0
0
0
0
0
0
0
0
0
0
0
0
0
0
0
0
0
0
0
0
0
0
0
0
0
0
0
0
0
0
0
0
0
0
0
0
0
0
0
0
0
0
0
0
0
0
0
0
0
0
0
0
0
0
0
0
0
0
0
0
0
0
0
0
0
0
0
0
0
0
0
0
0
0
0
0
0
0
0
0
0
0
0
0
0
0
0
0
0
0
0
0
0
0
0
0
0
0
0
0
0
0
0
0
0
0
0
0
0
0
0
0
0
0
0
0
0
0
0
0
0
0
0
0
0
0
0
0
0
0
0
0
0
0
0
0
0
0
0
0
0
0
0
0
0
0
0
0
0
0
0
0
0
0
0
0
0
0
0
0
0
0
0
0
0
0
0
0
0
0
0
0
0
0
0
0
0
0
0
0
0
0
0
0
0
0
0
0
0
0
0
0
0
0
0
0
0
0
0
0
0
0
0
0
0
0
0
0
0
0
0
0
0
0
0
0
0
0
0
0
0
0
0
0
0
0
0
0
0
0
0
0
0
0
0
0
0
0
0
0
0
0
0
0
0
0
0
0
0
0
0
0
0
0
0
0
0
0
0
0
0
0
0
0
0
0
0
0
0
0
0
0
0
0
0
0
0
0
0
0
0
0
0
0
0
0
0
0
0
0
0
0
0
0
0
0
0
0
0
0
0
0
0
0
0
0
0
0
0
0
0
0
0
0
0
0
0
0
0
0
0
0
0
0
0
0
0
0
0
0
0
0
0
0
0
0
0
0
0
0
0
0
0
0
0
0
0
0
0
0
0
0
0
0
0
0
0
0
0
0
0
0
0
0
0
0
0
0
0
0
0
0
0
0
0
0
0
0
0
0
0
0
0
0
0
0
0
0
0
0
0
0
0
0
0
0
0
0
0
0
0
0
0
0
0
0
0
0
0
0
0
0
0
0
0
0
0
0
0
0
0
0
0
0
0
0
0
0
0
0
0
0
0
0
0
0
0
0
0
0
0
0
0
0
0
0
0
0
0
0
0
0
0
0
0
0
0
0
0
0
0
0
0
0
0
0
0
0
0
0
0
0
0
0
0
0
0
0
0
0
0
0
0
0
0
0
0
0
0
0
0
0
0
0
0
0
0
0
0
0
0
0
0
0
0
0
0
0
0
0
0
0
0
0
0
0
0
0
0
0
0
0
0
0
0
0
0
0
0
0
0
0
0
0
0
0
0
0
0
0
0
0
0
0
0
0
0
0
0
0
0
0
0
0
0
0
0
0
0
0
0
0
0
0
0
0
0
0
0
0
0
0
0
0
0
0
0
0
0
0
0
0
0
0
0
0
0
0
0
0
0
0
0
0
0
0
0
0
0
0
0
0
0
0
0
0
0
0
0
0
0
0
0
0
0
0
0
0
0
0
0
0
0
0
0
0
0
0
0
0
0
0
0
0
0
0
0
0
0
0
0
0
0
0
0
0
0
0
0
0
0
0
0
0
0
0
0
0
0
0
0
0
0
0
0
0
0
0
0
0
0
0
0
0
0
0
0
0
0
0
0
0
0
0
0
0
0
0
0
0
0
0
0
0
0
0
0
0
0
0
0
0
0
0
0
0
0
0
0
0
0
0
0
0
0
0
0
0
0
0
0
0
0
0
0
0
0
0
0
0
0
0
0
0
0
0
0
0
0
0
0
0
0
0
0
0
0
0
0
0
0
0
0
0
0
0
0
0
0
0
0
0
0
0
0
0
0
0
0
0
0
0
0
0
0
0
0
0
0
0
0
0
0
0
0
0
0
0
0
0
0
0
0
0
0
0
0
0
0
0
0
0
0
0
0
0
0
0
0
0
0
0
0
0
0
0
0
0
0
0
0
0
0
0
0
0
0
0
0
0
0
0
0
0
0
0
0
0
0
0
0
0
0
0
0
0
0
0
0
0
0
0
0
0
0
0
0
0
0
0
0
0
0
0
0
0
0
0
0
0
0
0
0
0
0
0
0
0
0
0
0
0
0
0
0
0
0
0
0
0
0
0
0
0
0
0
0
0
0
0
0
0
0
0
0
0
0
0
0
0
0
0
0
0
0
0
0
0
0
0
0
0
0
0
0
0
0
0
0
0
0
0
0
0
0
0
0
0
0
0
0
0
0
0
0
0
0
0
0
0
0
0
0
0
0
0
0
0
0
0
0
0
0
0
0
0
0
0
0
0
0
0
0
0
0
0
0
0
0
0
0
0
0
0
0
0
0
0
0
0
0
0
0
0
0
0
0
0
0
0
0
0
0
0
0
0
0
0
0
0
0
0
0
0
0
0
0
0
0
0
0
0
0
0
0
0
0
0
0
0
0
0
0
0
0
0
0
0
0
0
0
0
0
0
0
0
0
0
0
0
0
0
0
0
0
0
0
0
0
0
0
0
0
0
0
0
0
0
0
0
0
0
0
0
0
0
0
0
0
0
0
0
0
0
0
0
0
0
0
0
0
0
0
0
0
0
0
0
0
0
0
0
0
0
0
0
0
0
0
0
0
0
0
0
0
0
0
0
0
0
0
0
0
0
0
0
0
0
0
0
0
0
0
0
0
0
0
0
0
0
0
0
0
0
0
0
0
0
0
0
0
0
0
0
0
0
0
0
0
0
0
0
0
0
0
0
0
0
0
0
0
0
0
0
0
0
0
0
0
0
0
0
0
0
0
0
0
0
0
0
0
0
0
0
0
0
0
0
0
0
0
0
0
0
0
0
0
0
0
0
0
0
0
0
0
0
0
0
0
0
0
0
0
0
0
0
0
0
0
0
0
0
0
0
0
0
0
0
0
0
0
0
0
0
0
0
0
0
0
0
0
0
0
0
0
0
0
0
0
0
0
0
0
0
0
0
0
0
0
0
0
0
0
0
0
0
0
0
0
0
0
0
0
0
0
0
0
0
0
0
0
0
0
0
0
0
0
0
0
0
0
0
0
0
0
0
0
0
0
0
0
0
0
0
0
0
0
0
0
0
0
0
0
0
0
0
0
0
0
0
0
0
0
0
0
0
0
0
0
0
0
0
0
0
0
0
0
0
0
0
0
0
0
0
0
0
0
0
0
0
0
0
0
0
0
0
0
0
0
0
0
0
0
0
0
0
0
0
0
0
0
0
0
0
0
0
0
0
0
0
0
0
0
0
0
0
0
0
0
0
0
0
0
0
0
0
0
0
0
0
0
0
0
0
0
0
0
0
0
0
0
0
0
0
0
0
0
0
0
0
0
0
0
0
0
0
0
0
0
0
0
0
0
0
0
0
0
0
0
0
0
0
0
0
0
0
0
0
0
0
0
0
0
0
0
0
0
0
0
0
0
0
0
0
0
0
0
0
0
0
0
0
0
0
0
0
0
0
0
0
0
0
0
0
0
0
0
0
0
0
0
0
0
0
0
0
0
0
0
0
0
0
0
0
0
0
0
0
0
0
0
0
0
0
0
0
0
0
0
0
0
0
0
0
0
0
0
0
0
0
0
0
0
0
0
0
0
0
0
0
0
0
0
0
0
0
0
0
0
0
0
0
0
0
0
0
0
0
0
0
0
0
0
0
0
0
0
0
0
0
0
0
0
0
0
0
0
0
0
0
0
0
0
0
0
0
0
0
0
0
0
0
0
0
0
0
0
0
0
0
0
0
0
0
0
0
0
0
0
0
0
0
0
0
0
0
0
0
0
0
0
0
0
0
0
0
0
0
0
0
0
0
0
0
0
0
0
0
0
0
0
0
0
0
0
0
0
0
0
0
0
0
0
0
0
0
0
0
0
0
0
0
0
0
0
0
0
0
0
0
0
0
0
0
0
0
0
0
0
0
0
0
0
0
0
0
0
0
0
0
0
0
0
0
0
0
0
0
0
0
0
0
0
0
0
0
0
0
0
0
0
0
0
0
0
0
0
0
0
0
0
0
0
0
0
0
0
0
0
0
0
0
0
0
0
0
0
0
0
0
0
0
0
0
0
0
0
0
0
0
0
0
0
0
0
0
0
0
0
0
0
0
0
0
0
0
0
0
0
0
0
0
0
0
0
0
0
0
0
0
0
0
0
0
0
0
0
0
0
0
0
0
0
0
0
0
0
0
0
0
0
0
0
0
0
0
0
0
0
0
0
0
0
0
0
0
0
0
0
0
0
0
0
0
0
0
0
0
0
0
0
0
0
0
0
0
0
0
0
0
0
0
0
0
0
0
0
0
0
0
0
0
0
0
0
0
0
0
0
0
0
0
0
0
0
0
0
0
0
0
0
0
0
0
0
0
0
0
0
0
0
0
0
0
0
0
0
0
0
0
0
0
0
0
0
0
0
0
0
0
0
0
0
0
0
0
0
0
0
0
0
0
0
0
0
0
0
0
0
0
0
0
0
0
0
0
0
0
0
0
0
0
0
0
0
0
0
0
0
0
0
0
0
0
0
0
0
0
0
0
0
0
0
0
0
0
0
0
0
0
0
0
0
0
0
0
0
0
0
0
0
0
0
0
0
0
0
0
0
0
0
0
0
0
0
0
0
0
0
0
0
0
0
0
0
0
0
0
0
0
0
0
0
0
0
0
0
0
0
0
0
0
0
0
0
0
0
0
0
0
0
0
0
0
0
0
0
0
0
0
0
0
0
0
0
0
0
0
0
0
0
0
0
0
0
0
0
0
0
0
0
0
0
0
0
0
0
0
0
0
0
0
0
0
0
0
0
0
0
0
0
0
0
0
0
0
0
0
0
0
0
0
0
0
0
0
0
0
0
0
0
0
0
0
0
0
0
0
0
0
0
0
0
0
0
0
0
0
0
0
0
0
0
0
0
0
0
0
0
0
0
0
0
0
0
0
0
0
0
0
0
0
0
0
0
0
0
0
0
0
0
0
0
0
0
0
0
0
0
0
0
0
0
0
0
0
0
0
0
0
0
0
0
0
0
0
0
0
0
0
0
0
0
0
0
0
0
0
0
0
0
0
0
0
0
0
0
0
0
0
0
0
0
0
0
0
0
0
0
0
0
0
0
0
0
0
0
0
0
0
0
0
0
0
0
0
0
0
0
0
0
0
0
0
0
0
0
0
0
0
0
0
0
0
0
0
0
0
0
0
0
0
0
0
0
0
0
0
0
0
0
0
0
0
0
0
0
0
0
0
0
0
0
0
0
0
0
0
0
0
0
0
0
0
0
0
0
0
0
0
0
0
0
0
0
0
0
0
0
0
0
0
0
0
0
0
0
0
0
0
0
0
0
0
0
0
0
0
0
0
0
0
0
0
0
0
0
0
0
0
0
0
0
0
0
0
0
0
0
0
0
0
0
0
0
0
0
0
0
0
0
0
0
0
0
0
0
0
0
0
0
0
0
0
0
0
0
0
0
0
0
0
0
0
0
0
0
0
0
0
0
0
0
0
0
0
0
0
0
0
0
0
0
0
0
0
0
0
0
0
0
0
0
0
0
0
0
0
0
0
0
0
0
0
0
0
0
0
0
0
0
0
0
0
0
0
0
0
0
0
0
0
0
0
0
0
0
0
0
0
0
0
0
0
0
0
0
0
0
0
0
0
0
0
0
0
0
0
0
0
0
0
0
0
0
0
0
0
0
0
0
0
0
0
0
0
0
0
0
0
0
0
0
0
0
0
0
0
0
0
0
0
0
0
0
0
0
0
0
0
0
0
0
0
0
0
0
0
0
0
0
0
0
0
0
0
0
0
0
0
0
0
0
0
0
0
0
0
0
0
0
0
0
0
0
0
0
0
0
0
0
0
0
0
0
0
0
0
0
0
0
0
0
0
0
0
0
0
0
0
0
0
0
0
0
0
0
0
0
0
0
0
0
0
0
0
0
0
0
0
0
0
0
0
0
0
0
0
0
0
0
0
0
0
0
0
0
0
0
0
0
0
0
0
0
0
0
0
0
0
0
0
0
0
0
0
0
0
0
0
0
0
0
0
0
0
0
0
0
0
0
0
0
0
0
0
0
0
0
0
0
0
0
0
0
0
0
0
0
0
0
0
0
0
0
0
0
0
0
0
0
0
0
0
0
0
0
0
0
0
0
0
0
0
0
0
0
0
0
0
0
0
0
0
0
0
0
0
0
0
0
0
0
0
0
0
0
0
0
0
0
0
0
0
0
0
0
0
0
0
0
0
0
0
0
0
0
0
0
0
0
0
0
0
0
0
0
0
0
0
0
0
0
0
0
0
0
0
0
0
0
0
0
0
0
0
0
0
0
0
0
0
0
0
0
0
0
0
0
0
0
0
0
0
0
0
0
0
0
0
0
0
0
0
0
0
0
0
0
0
0
0
0
0
0
0
0
0
0
0
0
0
0
0
0
0
0
0
0
0
0
0
0
0
0
0
0
0
0
0
0
0
0
0
0
0
0
0
0
0
0
0
0
0
0
0
0
0
0
0
0
0
0
0
0
0
0
0
0
0
0
0
0
0
0
0
0
0
0
0
0
0
0
0
0
0
0
0
0
0
0
0
0
0
0
0
0
0
0
0
0
0
0
0
0
0
0
0
0
0
0
0
0
0
0
0
0
0
0
0
0
0
0
0
0
0
0
0
0
0
0
0
0
0
0
0
0
0
0
0
0
0
0
0
0
0
0
0
0
0
0
0
0
0
0
0
0
0
0
0
0
0
0
0
0
0
0
0
0
0
0
0
0
0
0
0
0
0
0
0
0
0
0
0
0
0
0
0
0
0
0
0
0
0
0
0
0
0
0
0
0
0
0
0
0
0
0
0
0
0
0
0
0
0
0
0
0
0
0
0
0
0
0
0
0
0
0
0
0
0
0
0
0
0
0
0
0
0
0
0
0
0
0
0
0
0
0
0
0
0
0
0
0
0
0
0
0
0
0
0
0
0
0
0
0
0
0
0
0
0
0
0
0
0
0
0
0
0
0
0
0
0
0
0
0
0
0
0
0
0
0
0
0
0
0
0
0
0
0
0
0
0
0
0
0
0
0
0
0
0
0
0
0
0
0
0
0
0
0
0
0
0
0
0
0
0
0
0
0
0
0
0
0
0
0
0
0
0
0
0
0
0
0
0
0
0
0
0
0
0
0
0
0
0
0
0
0
0
0
0
0
0
0
0
0
0
0
0
0
0
0
0
0
0
0
0
0
0
0
0
0
0
0
0
0
0
0
0
0
0
0
0
0
0
0
0
0
0
0
0
0
0
0
0
0
0
0
0
0
0
0
0
0
0
0
0
0
0
0
0
0
0
0
0
0
0
0
0
0
0
0
0
0
0
0
0
0
0
0
0
0
0
0
0
0
0
0
0
0
0
0
0
0
0
0
0
0
0
0
0
0
0
0
0
0
0
0
0
0
0
0
0
0
0
0
0
0
0
0
0
0
0
0
0
0
0
0
0
0
0
0
0
0
0
0
0
0
0
0
0
0
0
0
0
0
0
0
0
0
0
0
0
0
0
0
0
0
0
0
0
0
0
0
0
0
0
0
0
0
0
0
0
0
0
0
0
0
0
0
0
0
0
0
0
0
0
0
0
0
0
0
0
0
0
0
0
0
0
0
0
0
0
0
0
0
0
0
0
0
0
0
0
0
0
0
0
0
0
0
0
0
0
0
0
0
0
0
0
0
0
0
0
0
0
0
0
0
0
0
0
0
0
0
0
0
0
0
0
0
0
0
0
0
0
0
0
0
0
0
0
0
0
0
0
0
0
0
0
0
0
0
0
0
0
0
0
0
0
0
0
0
0
0
0
0
0
0
0
0
0
0
0
0
0
0
0
0
0
0
0
0
0
0
0
0
0
0
0
0
0
0
0
0
0
0
0
0
0
0
0
0
0
0
0
0
0
0
0
0
0
0
0
0
0
0
0
0
0
0
0
0
0
0
0
0
0
0
0
0
0
0
0
0
0
0
0
0
0
0
0
0
0
0
0
0
0
0
0
0
0
0
0
0
0
0
0
0
0
0
0
0
0
0
0
0
0
0
0
0
0
0
0
0
0
0
0
0
0
0
0
0
0
0
0
0
0
0
0
0
0
0
0
0
0
0
0
0
0
0
0
0
0
0
0
0
0
0
0
0
0
0
0
0
0
0
0
0
0
0
0
0
0
0
0
0
0
0
0
0
0
0
0
0
0
0
0
0
0
0
0
0
0
0
0
0
0
0
0
0
0
0
0
0
0
0
0
0
0
0
0
0
0
0
0
0
0
0
0
0
0
0
0
0
0
0
0
0
0
0
0
0
0
0
0
0
0
0
0
0
0
0
0
0
0
0
0
0
0
0
0
0
0
0
0
0
0
0
0
0
0
0
0
0
0
0
0
0
0
0
0
0
0
0
0
0
0
0
0
0
0
0
0
0
0
0
0
0
0
0
0
0
0
0
0
0
0
0
0
0
0
0
0
0
0
0
0
0
0
0
0
0
0
0
0
0
