0.359705
0.255811
0.117267
-0.0401033
-0.19898
-0.344641
-0.465666
-0.554026
-0.603171
-0.610253
-0.576063
-0.504473
-0.401654
-0.275298
-0.132786
0.0186165
0.166872
0.295557
0.389202
0.43325
0.417078
0.339141
0.21113
0.0575371
-0.0905628
-0.204938
-0.277329
-0.319483
-0.340471
-0.342681
-0.32748
-0.296597
-0.250947
-0.190126
-0.115118
-0.0355175
0.0334278
0.0762861
0.0824585
0.0504906
-0.0108183
-0.0855547
-0.156784
-0.212525
-0.252577
-0.282328
-0.303909
-0.318749
-0.327823
-0.331649
-0.330671
-0.325187
-0.317148
-0.30925
-0.304184
-0.303749
-0.308288
-0.316726
-0.327188
-0.337815
-0.347409
-0.355672
-0.362485
-0.367704
-0.370917
-0.371436
-0.368531
-0.361809
-0.35173
-0.339348
-0.326395
-0.315067
-0.307594
-0.305802
-0.310734
-0.322387
-0.339586
-0.360007
-0.380339
-0.396287
-0.403367
-0.397639
-0.376468
-0.339118
-0.286956
-0.223134
-0.151803
-0.077058
-0.00196228
0.0721777
0.145415
0.218758
0.293793
0.372157
0.453988
0.534682
0.604636
0.652387
0.668066
0.646625
0.58977
0.505886
0.407854
0.309409
0.221095
0.145195
0.0791067
0.0201021
-0.0338411
-0.0845646
-0.133464
-0.181161
-0.227432
-0.271411
-0.311963
-0.347915
-0.378619
-0.405202
-0.42997
-0.455566
-0.483982
-0.515742
-0.549604
-0.582919
-0.612556
-0.636055
-0.653249
-0.654729
0
1.29669
3.33385
5.94717
8.68664
10.9256
12.0766
11.8287
10.2907
7.95997
5.51283
3.51386
2.20454
1.48436
1.07546
0.854064
0.694647
0.555825
0.442972
0.358605
0.302206
0.270633
0.259037
0.26203
0.274792
0.293472
0.316018
0.341794
0.370912
0.403763
0.44056
0.481206
0.525423
0.572859
0.623358
0.677236
0.735446
0.799575
0.871667
0.953928
1.04835
1.15637
1.27842
1.41396
1.56141
1.71817
1.88095
2.04636
2.21104
2.37285
2.53161
2.68931
2.8498
3.01785
3.1979
3.39285
3.60328
3.82657
4.05898
4.29653
4.53567
4.77356
5.00779
5.24434
5.50782
5.77799
5.99694
6.10424
6.06726
5.89197
5.61418
5.27896
4.9187
4.5439
4.16017
3.77353
3.38759
3.00553
2.63146
2.27011
1.92645
1.60524
1.31055
1.04535
0.811184
0.608095
0.434565
0.28783
0.164339
0.060308
-0.027734
-0.10251
-0.165778
-0.218361
-0.260417
-0.291772
-0.312051
-0.321512
-0.321978
-0.316566
-0.309085
-0.303638
-0.303755
-0.311452
-0.326655
-0.347008
-0.368197
-0.384797
-0.391492
-0.384368
-0.361909
-0.326676
-0.282076
-0.232692
-0.183666
-0.139879
-0.106115
-0.0853276
-0.0788313
-0.0862212
-0.105423
-0.132912
-0.164164
-0.194353
-0.219159
-0.235566
-0.242883
-0.241379
-0.232547
-0.2186
-0.201943
-0.184702
-0.168418
-0.154203
-0.142876
-0.13502
-0.131121
-0.131609
-0.136817
-0.146909
-0.161804
-0.181141
-0.204282
-0.230331
-0.258126
-0.286336
-0.313502
-0.33808
-0.358565
-0.373698
-0.382665
-0.385175
-0.381572
-0.373319
-0.36321
-0.354249
-0.348778
-0.347803
-0.350726
-0.355626
-0.360062
-0.362126
-0.361048
-0.358666
-0.359025
-0.366958
-0.386324
-0.418455
-0.461362
-0.509944
-0.55706
-0.595082
-0.61889
-0.626761
-0.617526
-0.588292
-0.535029
-0.458155
-0.373627
-0.30354
-0.268564
-0.280878
-0.338233
-0.422494
-0.504676
-0.555404
-0.556639
-0.521851
-0.466731
-0.402349
-0.339656
-0.286138
-0.24361
-0.207858
-0.170251
-0.120815
-0.0444481
0.0721186
0.20667
0.323357
0.390654
0.397554
0.359043
0.307637
0.27548
0.277111
0.29713
0.317363
0.317745
0.283658
0.210554
0.104143
-0.0228465
-0.155135
-0.279599
-0.390918
-0.487662
-0.568771
-0.632868
-0.677376
-0.700611
-0.708936
-0.711135
-0.715651
-0.728277
-0.750785
-0.781092
-0.8149
-0.847972
-0.877931
-0.905415
-0.931585
-0.957487
-0.983713
-1.01017
-0.838343
0
1.70824
4.23759
7.20934
9.97982
11.8301
12.2337
11.0892
8.7897
6.06127
3.6357
1.94289
1.00473
0.565864
0.332931
0.118279
-0.0896438
-0.283399
-0.455166
-0.599236
-0.711937
-0.792318
-0.842285
-0.866053
-0.869042
-0.856666
-0.833459
-0.803837
-0.769981
-0.733731
-0.696978
-0.661106
-0.626416
-0.591544
-0.55324
-0.506764
-0.446838
-0.368888
-0.271767
-0.156789
-0.0257888
0.118494
0.272499
0.432442
0.594849
0.756935
0.916795
1.07348
1.22694
1.37837
1.53026
1.6864
1.85169
2.03158
2.23119
2.45425
2.70207
2.97295
3.26294
3.56612
3.87247
4.16978
4.44288
4.67228
4.84561
4.9668
5.03041
5.02139
4.92447
4.73514
4.46414
4.13316
3.76661
3.3881
3.01427
2.65038
2.30023
1.96866
1.65926
1.37383
1.11211
0.871891
0.649458
0.440358
0.24029
0.0459182
-0.144547
-0.331105
-0.512049
-0.684315
-0.843897
-0.98578
-1.10542
-1.20006
-1.2687
-1.31196
-1.32886
-1.32562
-1.31013
-1.28965
-1.26924
-1.25106
-1.23482
-1.21903
-1.20268
-1.18668
-1.17404
-1.16848
-1.17239
-1.18501
-1.20169
-1.2146
-1.21459
-1.1935
-1.15064
-1.0885
-1.0092
-0.914289
-0.810462
-0.709629
-0.623568
-0.56147
-0.528211
-0.523824
-0.544329
-0.583524
-0.634996
-0.69347
-0.754574
-0.815357
-0.871995
-0.919174
-0.950819
-0.961542
-0.948719
-0.913999
-0.863349
-0.805479
-0.749285
-0.701457
-0.663314
-0.635393
-0.616927
-0.606904
-0.604553
-0.610162
-0.62451
-0.648326
-0.68169
-0.72358
-0.771665
-0.822337
-0.871256
-0.913857
-0.945758
-0.96333
-0.964213
-0.947662
-0.914656
-0.867726
-0.810538
-0.747426
-0.682574
-0.619558
-0.561144
-0.509917
-0.468401
-0.438427
-0.421479
-0.418718
-0.430695
-0.456956
-0.495688
-0.543544
-0.595728
-0.64638
-0.689587
-0.719768
-0.732509
-0.725312
-0.692071
-0.629924
-0.550892
-0.474247
-0.41794
-0.392717
-0.398513
-0.424698
-0.454335
-0.470883
-0.464554
-0.439819
-0.404921
-0.365721
-0.327223
-0.291573
-0.257028
-0.218217
-0.167586
-0.0975627
-0.0031971
0.114244
0.256453
0.422285
0.597545
0.759005
0.885375
0.961617
0.980989
0.944657
0.859371
0.734388
0.579231
0.403826
0.221151
0.041424
-0.124406
-0.265028
-0.370283
-0.433264
-0.451937
-0.429668
-0.374504
-0.297588
-0.211303
-0.128133
-0.0600389
-0.0157614
0
-0.0102075
-0.0449111
-0.0968995
-0.158097
-0.221739
-0.283497
0.220845
1.24103
2.89377
5.22221
8.02707
10.8039
12.856
13.5699
12.7148
10.5802
7.85371
5.29965
3.42591
2.32865
1.77436
1.43217
1.23459
1.04725
0.874139
0.720504
0.588264
0.476942
0.384665
0.309474
0.251621
0.211072
0.189241
0.188194
0.209575
0.253719
0.319274
0.403391
0.502301
0.611731
0.727181
0.845362
0.963626
1.07936
1.19023
1.29469
1.39229
1.48394
1.57203
1.66015
1.75254
1.85354
1.96709
2.09553
2.24042
2.40326
2.5851
2.78626
3.00627
3.24368
3.49596
3.75954
4.03005
4.3026
4.57217
4.83399
5.08368
5.31783
5.53427
5.73155
5.90728
6.05565
6.16726
6.23674
6.25505
6.21101
6.09506
5.90345
5.64067
5.31906
4.95574
4.56852
4.17524
3.78455
3.40266
3.0354
2.6883
2.36646
2.0741
1.81455
1.59023
1.39992
1.23919
1.10192
0.981508
0.8721
0.769476
0.671436
0.577611
0.488874
0.406323
0.330988
0.263872
0.205768
0.157827
0.122091
0.100452
0.0943132
0.104433
0.130144
0.170944
0.221095
0.273159
0.319848
0.355906
0.379318
0.391416
0.395948
0.397622
0.400766
0.407838
0.420085
0.438582
0.463944
0.496303
0.535156
0.580065
0.628494
0.676055
0.718064
0.750731
0.772097
0.782316
0.783144
0.776927
0.765564
0.750288
0.731451
0.708579
0.681127
0.648759
0.611496
0.569809
0.52475
0.478239
0.432832
0.392051
0.360524
0.350351
0.395242
0.517107
0.67919
0.819341
0.880054
0.837337
0.711283
0.554089
0.424472
0.362608
0.353063
0.365277
0.389284
0.415807
0.436669
0.446768
0.445453
0.436752
0.42818
0.42827
0.451048
0.499107
0.555739
0.59556
0.597045
0.553804
0.47848
0.397085
0.336521
0.311567
0.311043
0.322237
0.328875
0.318576
0.288496
0.246497
0.207266
0.185378
0.18894
0.210967
0.245751
0.288862
0.337328
0.390826
0.451439
0.522141
0.604718
0.697803
0.797732
0.896494
0.985275
1.05722
1.10942
1.14336
1.16356
1.17506
1.18063
1.17903
1.16515
1.13219
1.0752
0.994244
0.89572
0.791098
0.693635
0.614341
0.553828
0.513178
0.489052
0.475861
0.467683
0.459948
0.450349
0.438772
0.426397
0.414368
0.402571
0.389144
0.37059
0.342759
0.302221
0.247496
0.179649
0.102036
0
0.478173
1.66567
3.58393
6.05886
8.71324
11.0079
12.3649
12.3737
10.9952
8.63024
5.9751
3.71919
2.26091
1.60654
1.48434
1.46977
1.39521
1.3132
1.22444
1.13103
1.0383
0.953381
0.883463
0.834369
0.809576
0.809908
0.833864
0.878314
0.939208
1.01126
1.08946
1.17003
1.24985
1.32644
1.39842
1.46581
1.53006
1.59377
1.66013
1.73221
1.81238
1.90176
2.00051
2.10866
2.22662
2.35545
2.49697
2.65352
2.82742
3.02023
3.23209
3.4613
3.70433
3.95615
4.21095
4.46279
4.70625
4.93681
5.15082
5.34429
5.51513
5.66264
5.78724
5.89033
5.97407
6.04081
6.09109
6.121
6.12504
6.0947
6.01897
5.88747
5.69362
5.437
5.12386
4.76615
4.37934
3.98262
3.58837
3.20621
2.84456
2.51034
2.2087
1.94282
1.71408
1.5218
1.3634
1.23512
1.13247
1.0508
0.985668
0.933202
0.8899
0.852329
0.817393
0.782409
0.745306
0.704892
0.661079
0.614973
0.568814
0.526096
0.490676
0.466056
0.45478
0.458115
0.476116
0.508005
0.552699
0.609233
0.676317
0.752414
0.836641
0.928316
1.02299
1.1119
1.18521
1.23445
1.25476
1.24588
1.21176
1.15893
1.09483
1.02674
0.960159
0.898483
0.844797
0.801519
0.770152
0.751068
0.743455
0.745513
0.754876
0.769134
0.786247
0.804843
0.824168
0.843805
0.863375
0.882303
0.899752
0.914724
0.926275
0.933721
0.936761
0.935455
0.930097
0.92101
0.908453
0.892355
0.872306
0.847637
0.817612
0.781741
0.740061
0.693423
0.643538
0.59328
0.546349
0.506698
0.477991
0.463145
0.464084
0.48171
0.516012
0.566241
0.634381
0.722807
0.828265
0.936182
1.02634
1.07838
1.07723
1.01796
0.90833
0.768266
0.625681
0.509315
0.433574
0.393936
0.38379
0.401589
0.444092
0.507373
0.587566
0.679568
0.779864
0.886298
0.996337
1.10739
1.2167
1.32036
1.41156
1.48242
1.52504
1.53133
1.49554
1.41699
1.30137
1.15966
1.00511
0.850056
0.702404
0.564713
0.443012
0.344026
0.272997
0.233944
0.228148
0.26024
0.3217
0.39602
0.465269
0.5147
0.535664
0.525788
0.486854
0.42198
0.333721
0.22843
0.109137
-0.0218414
-0.160924
-0.30331
0
0.932116
2.59142
4.95057
7.75747
10.5193
12.6062
13.4639
12.8425
10.9213
8.25484
5.55832
3.43099
2.15136
1.63349
1.5512
1.36034
1.17493
0.997301
0.832835
0.687089
0.565079
0.470496
0.405232
0.369346
0.361374
0.378739
0.418036
0.473834
0.541347
0.61575
0.692008
0.765389
0.832112
0.890005
0.938594
0.979085
1.01391
1.04608
1.07856
1.11419
1.15537
1.20458
1.26497
1.34076
1.43699
1.55845
1.70809
1.88554
2.08736
2.307
2.53066
2.74547
2.94359
3.12451
3.29473
3.46489
3.64569
3.84424
4.059
4.28556
4.52046
4.76031
5.00181
5.24122
5.47739
5.71306
5.92915
6.08406
6.13177
6.04212
5.81248
5.46631
5.04055
4.57282
4.10234
3.6504
3.21931
2.81247
2.43672
2.09697
1.79592
1.53325
1.30632
1.11095
0.942439
0.796431
0.669555
0.559531
0.464866
0.385117
0.319497
0.265146
0.21784
0.173093
0.127233
0.0783616
0.0268194
-0.0250663
-0.0738451
-0.116091
-0.149893
-0.173983
-0.188344
-0.193259
-0.188394
-0.172137
-0.141521
-0.0928385
-0.0200272
0.0941804
0.259354
0.447583
0.619192
0.738796
0.786101
0.759415
0.672263
0.546415
0.405626
0.272731
0.161689
0.0752862
0.0160358
-0.0123993
-0.00970716
0.020864
0.0730041
0.138443
0.208345
0.274941
0.333689
0.380905
0.414369
0.433273
0.438062
0.430243
0.412195
0.38699
0.358228
0.32969
0.304879
0.286765
0.27762
0.279841
0.29337
0.313922
0.33616
0.355554
0.369928
0.379974
0.388485
0.398646
0.412189
0.428131
0.443558
0.454587
0.457723
0.451107
0.435166
0.412509
0.387252
0.364052
0.346415
0.336368
0.335258
0.343365
0.360577
0.385106
0.41283
0.439211
0.460281
0.473459
0.477919
0.474393
0.464548
0.450247
0.433115
0.414555
0.395728
0.378215
0.364408
0.357706
0.361739
0.379674
0.41324
0.463784
0.530349
0.604914
0.678245
0.742971
0.796142
0.840231
0.882167
0.930767
0.993536
1.07275
1.16426
1.26514
1.36828
1.46403
1.54299
1.59765
1.62323
1.61787
1.58217
1.51852
1.43045
1.32221
1.19981
1.06978
0.938253
0.810966
0.693503
0.591211
0.508651
0.449819
0.417561
0.41285
0.433359
0.470974
0.51143
0.53979
0.543815
0.516169
0.455833
0.368266
0.263972
0.155612
0.0544092
0
0.802794
2.34404
4.63235
7.45031
10.3328
12.6561
13.8394
13.5785
11.9866
9.55718
6.95892
4.77031
3.28704
2.48146
2.11098
1.89371
1.71125
1.53815
1.37947
1.23915
1.11964
1.02201
0.946045
0.889573
0.849246
0.821984
0.805701
0.799643
0.804195
0.820331
0.84887
0.889886
0.942501
1.00512
1.07602
1.15394
1.23839
1.32986
1.42938
1.53795
1.65602
1.78275
1.91695
2.05703
2.20116
2.34766
2.49527
2.64354
2.79299
2.94516
3.10258
3.26836
3.44574
3.63731
3.84444
4.06677
4.30207
4.54654
4.79545
5.04388
5.28749
5.52226
5.74205
5.93752
6.10425
6.23352
6.30742
6.30742
6.22503
6.06642
5.84796
5.58693
5.29524
4.98705
4.67197
4.35421
4.03648
3.72126
3.41046
3.10524
2.80613
2.51346
2.22809
1.95202
1.6893
1.44716
1.23242
1.05133
0.907938
0.806017
0.745687
0.717777
0.710796
0.713844
0.718999
0.722428
0.723982
0.725617
0.729384
0.735658
0.743067
0.748495
0.748447
0.740625
0.725165
0.705044
0.685435
0.672166
0.671298
0.688819
0.717623
0.744223
0.754569
0.740638
0.704681
0.658918
0.620578
0.604398
0.618437
0.655006
0.696259
0.722814
0.722962
0.69789
0.660538
0.629126
0.619016
0.634506
0.665442
0.705462
0.74955
0.789649
0.816925
0.824135
0.807003
0.765599
0.7051
0.635284
0.568467
0.516366
0.486987
0.477207
0.483376
0.50192
0.528066
0.556819
0.584026
0.606768
0.623225
0.632656
0.635209
0.631659
0.623164
0.611069
0.596825
0.581971
0.568138
0.557171
0.550893
0.550915
0.55832
0.573348
0.595195
0.62202
0.651193
0.679717
0.704744
0.724095
0.736357
0.740997
0.738209
0.72865
0.71313
0.692403
0.667084
0.6377
0.604872
0.569427
0.532999
0.49846
0.46945
0.449766
0.44261
0.449851
0.471524
0.505666
0.548556
0.595279
0.640568
0.679733
0.709234
0.727179
0.733482
0.729638
0.718174
0.701923
0.683349
0.664147
0.645088
0.626431
0.608331
0.591224
0.576124
0.566057
0.580786
0.756637
1.19567
1.73726
2.1782
2.36054
2.24557
1.91288
1.49568
1.10802
0.818495
0.633137
0.496464
0.381402
0.280409
0.191993
0.116583
0.0547794
0.00662799
-0.0282422
-0.0506591
-0.0629025
-0.0693625
-0.074919
-0.0840668
-0.100142
-0.124827
-0.158078
-0.198463
-0.243736
-0.291404
-0.339073
0
0.873956
2.45693
4.75787
7.51519
10.2165
12.2398
13.07
12.5007
10.7261
8.26384
5.73675
3.62586
2.12664
1.17309
0.582018
0.454466
0.376986
0.31357
0.265204
0.231205
0.209778
0.198669
0.195728
0.199024
0.207308
0.219594
0.234947
0.252389
0.270907
0.289771
0.308921
0.329327
0.353152
0.38363
0.424626
0.479951
0.552549
0.64358
0.752175
0.875712
1.01036
1.15167
1.2945
1.43477
1.5702
1.70058
1.82764
1.95441
2.08446
2.22115
2.36709
2.52374
2.69225
2.87353
3.06814
3.27623
3.49735
3.7302
3.97243
4.22065
4.47069
4.71654
4.9492
5.15783
5.33216
5.46352
5.54526
5.57121
5.53569
5.43405
5.26416
5.02814
4.73372
4.39431
4.02787
3.65361
3.28426
2.9261
2.5848
2.26463
1.96851
1.69816
1.45432
1.23675
1.04436
0.875346
0.727009
0.595946
0.47872
0.372387
0.274906
0.185311
0.103554
0.0300864
-0.0338433
-0.0878809
-0.132841
-0.170009
-0.200585
-0.225157
-0.243496
-0.254799
-0.258253
-0.253646
-0.242282
-0.22568
-0.205555
-0.183405
-0.16004
-0.135341
-0.108372
-0.0777661
-0.0422889
-0.0014935
0.0442734
0.0935329
0.14285
0.187425
0.222356
0.24362
0.248878
0.23791
0.212611
0.176597
0.134548
0.0914711
0.0517236
0.0183533
-0.00642052
-0.0209253
-0.0238827
-0.0144158
0.00794234
0.0451381
0.102793
0.183963
0.27257
0.345699
0.380443
0.363113
0.295867
0.19661
0.0917153
0.00538406
-0.0492559
-0.0828781
-0.104618
-0.11812
-0.126039
-0.130477
-0.132777
-0.133567
-0.132975
-0.130913
-0.127263
-0.121975
-0.115091
-0.106696
-0.0968449
-0.0855329
-0.0727048
-0.0583112
-0.0423768
-0.0250406
-0.00659418
0.0125348
0.0317977
0.0505064
0.0677776
0.0822962
0.0921118
0.0953697
0.0904651
0.0766759
0.0547979
0.027534
-0.00056324
-0.0236417
-0.035468
-0.0304732
-0.00555325
0.0412961
0.110056
0.198808
0.303871
0.419926
0.541669
0.66403
0.78214
0.891607
0.988755
1.07073
1.13542
1.1812
1.20655
1.21014
1.19167
1.15162
1.09182
1.01579
0.927575
0.835014
0.747476
0.673418
0.618589
0.584881
0.570198
0.569355
0.575611
0.582283
0.584387
0.5785
0.562756
0.536581
0.50088
0.456789
0.405403
0.347915
0.285327
0.218239
0.147531
0.0743813
0
-0.0708003
0.228841
1.21687
3.00185
5.43491
8.12156
10.5362
12.1683
12.6611
11.917
10.1445
7.80536
5.46013
3.56819
2.34475
1.74367
1.55967
1.48373
1.40997
1.33975
1.27541
1.21943
1.17419
1.14149
1.1222
1.11604
1.12174
1.13741
1.16091
1.19016
1.22355
1.2602
1.29982
1.34257
1.389
1.43989
1.49626
1.55926
1.63012
1.71004
1.80005
1.90083
2.01255
2.13472
2.26617
2.40521
2.54989
2.6984
2.84944
3.00243
3.1576
3.31576
3.47807
3.64573
3.81987
4.0015
4.19167
4.39157
4.60257
4.82598
5.06372
5.32376
5.61454
5.92331
6.21864
6.46929
6.65087
6.75851
6.79401
6.75522
6.63343
6.42117
6.12429
5.76838
5.39316
5.03622
4.70522
4.38981
4.08503
3.78937
3.50126
3.21981
2.94526
2.67906
2.4236
2.18166
1.95582
1.74789
1.55842
1.38708
1.23324
1.09853
0.985236
0.894932
0.829365
0.789178
0.772807
0.776062
0.792629
0.815311
0.837554
0.854764
0.864688
0.867197
0.863474
0.854986
0.842881
0.827406
0.808059
0.784159
0.755505
0.722756
0.687843
0.654926
0.62907
0.615066
0.616372
0.634527
0.669235
0.718981
0.781801
0.855767
0.941206
1.03896
1.13743
1.21718
1.25638
1.23987
1.1674
1.05562
0.932407
0.826488
0.757805
0.71707
0.694109
0.685952
0.689708
0.702247
0.720582
0.741552
0.762201
0.780229
0.794151
0.803389
0.808206
0.809475
0.808324
0.805814
0.802767
0.799751
0.797262
0.795885
0.796314
0.79916
0.804625
0.812317
0.820193
0.824784
0.822314
0.810077
0.787731
0.757964
0.726216
0.699429
0.684206
0.684055
0.69881
0.727971
0.766887
0.808261
0.844747
0.870659
0.883089
0.882162
0.870491
0.85209
0.831184
0.811265
0.794386
0.781453
0.773119
0.769774
0.771515
0.778057
0.788948
0.802898
0.817952
0.832271
0.844865
0.856248
0.868759
0.8864
0.920168
1.01864
1.29276
1.68861
2.07753
2.34031
2.40317
2.26158
1.97648
1.64361
1.3549
1.17667
1.07762
1.01096
0.959667
0.918817
0.886957
0.863532
0.848074
0.840026
0.838615
0.842439
0.849199
0.855852
0.858781
0.85404
0.837755
0.806524
0.757811
0.68837
0.590562
0.466328
0.321553
0.163534
0
0.418557
1.49723
3.30735
5.77361
8.6146
11.3526
13.4008
14.2274
13.5548
11.5115
8.63992
5.71862
3.45111
2.18117
1.79553
1.86781
1.75577
1.64484
1.53683
1.43361
1.33697
1.2484
1.16867
1.09816
1.03678
0.98409
0.939701
0.903888
0.878102
0.864308
0.864382
0.879913
0.911367
0.957492
1.01524
1.08028
1.1481
1.2151
1.27983
1.34276
1.40594
1.47258
1.54634
1.63034
1.72673
1.83697
1.96169
2.10065
2.253
2.4176
2.59326
2.77898
2.97403
3.17782
3.38954
3.60775
3.82997
4.05254
4.27033
4.47761
4.66889
4.83983
4.9878
5.11193
5.20882
5.27674
5.31607
5.32562
5.30255
5.24296
5.14287
4.99924
4.81095
4.57959
4.31225
4.01989
3.71149
3.3942
3.07402
2.75571
2.44199
2.13383
1.83142
1.53559
1.24898
0.976499
0.724903
0.50318
0.327569
0.218319
0.187266
0.215731
0.264837
0.297954
0.289956
0.23181
0.130505
0.004336
-0.125328
-0.242425
-0.34297
-0.431343
-0.509249
-0.572616
-0.61661
-0.634846
-0.621361
-0.573037
-0.491517
-0.383869
-0.260412
-0.136954
-0.0296465
0.0488218
0.0914461
0.0976836
0.0728112
0.0262395
-0.0306732
-0.0867768
-0.134004
-0.16892
-0.190517
-0.198798
-0.194511
-0.179139
-0.154996
-0.124897
-0.0919993
-0.059719
-0.0313922
-0.00980406
0.00302758
0.00598421
-0.0011533
-0.0178471
-0.0430532
-0.0755031
-0.113918
-0.157004
-0.203413
-0.251752
-0.300475
-0.347748
-0.39156
-0.42996
-0.46133
-0.484313
-0.498251
-0.503133
-0.499156
-0.486447
-0.464936
-0.434462
-0.395096
-0.347562
-0.293548
-0.235691
-0.177589
-0.123115
-0.0757576
-0.0380674
-0.0113528
0.00431752
0.00985732
0.00676765
-0.00302596
-0.0179423
-0.0366445
-0.0580105
-0.08077
-0.103325
-0.123505
-0.138492
-0.144985
-0.139649
-0.116607
-0.069047
0.00601668
0.102205
0.201275
0.281053
0.323278
0.318009
0.266671
0.183264
0.0921854
0.0216619
-0.00541778
0.0156725
0.0703381
0.145821
0.237286
0.343216
0.462922
0.601555
0.772088
0.97269
1.17537
1.34345
1.44647
1.47131
1.42305
1.31708
1.16964
0.993912
0.805978
0.620611
0.447601
0.294394
0.167014
0.0705221
0.00655699
-0.0270833
-0.0346787
-0.0251087
-0.00837145
0.00608816
0.0106265
0
-0.0267129
-0.0723757
-0.136483
-0.216906
-0.311517
-0.41739
-0.530943
-0.648055
-0.348864
0.612937
2.38896
4.93129
7.90587
10.7159
12.6648
13.2194
12.242
10.0587
7.31755
4.71651
2.75018
1.59446
1.14084
1.11261
0.896936
0.677444
0.451257
0.223697
0.013552
-0.155506
-0.264504
-0.306975
-0.291394
-0.237451
-0.168247
-0.102091
-0.0448545
0.00608025
0.0527604
0.097954
0.14399
0.192041
0.240479
0.28553
0.323283
0.351876
0.373101
0.392764
0.419658
0.46351
0.532596
0.628277
0.747381
0.886656
1.04287
1.2121
1.39017
1.57328
1.75837
1.9433
2.12673
2.3079
2.48632
2.66155
2.83311
3.00044
3.16303
3.32049
3.47264
3.61933
3.76036
3.89531
4.02301
4.14087
4.24359
4.32242
4.36763
4.36711
4.30818
4.1802
3.9773
3.70043
3.3578
2.96367
2.53685
2.09917
1.6642
1.24141
0.839574
0.466318
0.127742
-0.172021
-0.431122
-0.649636
-0.82951
-0.976049
-1.09658
-1.19851
-1.28808
-1.36937
-1.44388
-1.51077
-1.56771
-1.612
-1.6409
-1.65255
-1.64933
-1.6364
-1.62017
-1.60687
-1.60119
-1.60551
-1.61953
-1.64048
-1.66361
-1.68331
-1.69465
-1.69389
-1.67899
-1.64761
-1.6015
-1.54848
-1.49795
-1.45827
-1.43456
-1.42758
-1.43418
-1.4491
-1.46729
-1.48602
-1.50557
-1.52807
-1.55618
-1.59151
-1.63311
-1.6768
-1.71549
-1.74044
-1.7378
-1.67679
-1.55041
-1.39364
-1.25229
-1.16381
-1.145
-1.19035
-1.27849
-1.38124
-1.47108
-1.53261
-1.56778
-1.5826
-1.58253
-1.57179
-1.55439
-1.53412
-1.51386
-1.4952
-1.47851
-1.46334
-1.44901
-1.43504
-1.42133
-1.40807
-1.39542
-1.3833
-1.37118
-1.35819
-1.34325
-1.3253
-1.30348
-1.27715
-1.24563
-1.20822
-1.1642
-1.11299
-1.05447
-0.989284
-0.918935
-0.846012
-0.774101
-0.706997
-0.64773
-0.597798
-0.556679
-0.5218
-0.488988
-0.453369
-0.410474
-0.357322
-0.293396
-0.219981
-0.140279
-0.0588416
0.0203384
0.0951258
0.165937
0.235568
0.308209
0.387953
0.477291
0.575391
0.680247
0.786657
0.886933
0.9741
1.04391
1.09596
1.13348
1.16187
1.18623
1.20933
1.22884
1.23739
1.22606
1.1888
1.12551
1.04238
0.949837
0.858974
0.777057
0.704881
0.642096
0.588505
0.543141
0.504543
0.471077
0.441188
0.413469
0.386624
0.359434
0.330671
0.299068
0.263347
0.221915
0.173804
0.1195
0.0606679
0
0.250858
1.0721
2.59314
4.8085
7.50507
10.2365
12.3876
13.3529
12.7845
10.7827
7.89991
4.9247
2.55359
1.13218
0.601598
0.645282
0.732644
0.815645
0.890172
0.952799
1.00088
1.03163
1.04372
1.03648
1.01019
0.964163
0.898084
0.819351
0.739631
0.671812
0.62787
0.617108
0.645094
0.713181
0.818352
0.953365
1.10637
1.26534
1.41948
1.56074
1.68702
1.79969
1.89935
1.9877
2.06833
2.14582
2.22549
2.31324
2.41517
2.53701
2.6834
2.85705
3.05738
3.28081
3.52266
3.77681
4.03606
4.2929
4.54028
4.77204
4.98364
5.17221
5.33643
5.47598
5.5893
5.67267
5.7228
5.73668
5.70996
5.63804
5.51745
5.34711
5.12892
4.8676
4.56996
4.24676
3.90778
3.55899
3.20567
2.85285
2.5055
2.1687
1.84767
1.54762
1.27328
1.02846
0.815519
0.635395
0.48725
0.368071
0.27381
0.200054
0.142559
0.0975048
0.0617488
0.0329399
0.00683651
-0.0218452
-0.05791
-0.104213
-0.160225
-0.221415
-0.279923
-0.326459
-0.352834
-0.35332
-0.319144
-0.255798
-0.184226
-0.127096
-0.101174
-0.112063
-0.153052
-0.208511
-0.260574
-0.296256
-0.314567
-0.322974
-0.326108
-0.327188
-0.327961
-0.328021
-0.324964
-0.315328
-0.293237
-0.25278
-0.201218
-0.152619
-0.122299
-0.120083
-0.145866
-0.189733
-0.236567
-0.27282
-0.292948
-0.303435
-0.310004
-0.318048
-0.332313
-0.355472
-0.387327
-0.424827
-0.462871
-0.49566
-0.518404
-0.529405
-0.527839
-0.514815
-0.493936
-0.471197
-0.452989
-0.444199
-0.447012
-0.4604
-0.480443
-0.50146
-0.517626
-0.524559
-0.521049
-0.508915
-0.489643
-0.465121
-0.437081
-0.406796
-0.375165
-0.343039
-0.312008
-0.28465
-0.264188
-0.253634
-0.25471
-0.266995
-0.287675
-0.312004
-0.334339
-0.349448
-0.354402
-0.348342
-0.331199
-0.303006
-0.264142
-0.214933
-0.155524
-0.0855701
-0.00446854
0.0882364
0.192375
0.308085
0.435041
0.565714
0.688941
0.793501
0.870783
0.916384
0.93004
0.91418
0.872122
0.806975
0.72531
0.631737
0.529516
0.422796
0.316425
0.215489
0.123828
0.0440111
-0.0214586
-0.0708624
-0.102244
-0.114233
-0.109635
-0.0952818
-0.0791891
-0.069124
-0.0712265
-0.0890808
-0.123488
-0.172913
-0.23435
-0.303906
-0.377859
-0.453406
0
1.10883
2.94721
5.37866
8.04934
10.4553
12.0662
12.4829
11.5874
9.61624
7.09975
4.66823
2.81416
1.73225
1.31533
1.25408
1.08801
0.920024
0.752925
0.594416
0.456043
0.351087
0.290844
0.28098
0.319281
0.39921
0.505811
0.614724
0.704254
0.760558
0.780496
0.771649
0.749595
0.733253
0.739668
0.777606
0.843054
0.929105
1.0313
1.14647
1.27138
1.40295
1.53847
1.67578
1.81332
1.95025
2.0864
2.22234
2.35919
2.49855
2.6423
2.79248
2.95121
3.12059
3.30258
3.49875
3.70985
3.93534
4.17289
4.41926
4.66736
4.90605
5.12368
5.31
5.45752
5.56148
5.61931
5.63082
5.59621
5.51544
5.38816
5.21421
4.99432
4.73067
4.42741
4.09403
3.74137
3.37795
3.01173
2.65112
2.30447
1.97943
1.68227
1.41731
1.18651
0.989672
0.82447
0.686311
0.569752
0.469441
0.380917
0.301095
0.22834
0.162166
0.102755
0.0504656
0.0051527
-0.0337496
-0.0669785
-0.0949844
-0.117477
-0.133161
-0.139591
-0.13408
-0.114231
-0.0787073
-0.0277407
0.0367809
0.111693
0.193262
0.277954
0.362977
0.446497
0.526938
0.602492
0.670624
0.727975
0.770308
0.793698
0.796019
0.778145
0.744408
0.702116
0.660213
0.62733
0.608619
0.605102
0.619769
0.646803
0.675921
0.696693
0.701859
0.689217
0.661304
0.623113
0.579153
0.531473
0.480556
0.426322
0.369329
0.311966
0.258466
0.214024
0.183317
0.168119
0.170703
0.18723
0.210654
0.233228
0.248695
0.253757
0.248364
0.234912
0.216853
0.197402
0.178707
0.161812
0.147502
0.136481
0.129469
0.127074
0.129572
0.136895
0.147718
0.15996
0.171659
0.181837
0.191155
0.202028
0.218099
0.243157
0.279847
0.33019
0.392944
0.459744
0.519819
0.563046
0.582784
0.577589
0.551349
0.512004
0.469376
0.432855
0.407921
0.39628
0.398173
0.413553
0.442419
0.48487
0.541057
0.611105
0.695974
0.799916
0.926153
1.0647
1.19688
1.30293
1.36748
1.38269
1.34785
1.26643
1.1435
0.985624
0.806963
0.622168
0.443078
0.280494
0.143152
0.0344212
-0.0419394
-0.0850811
-0.0971094
-0.0814468
-0.0431744
0.010565
0.0706783
0.12576
0.164523
0.177515
0.157848
0.102096
0.0108681
-0.111421
-0.257677
-0.419702
-0.589398
0
1.34783
3.49018
6.22969
9.1352
11.6268
13.1387
13.3062
12.1035
9.86573
7.17541
4.65424
2.75427
1.63499
1.1714
1.04578
0.845114
0.648478
0.466244
0.309979
0.190609
0.115156
0.0842325
0.0917152
0.126823
0.177545
0.233869
0.2897
0.343156
0.39366
0.440675
0.483102
0.51946
0.548681
0.570282
0.585262
0.596712
0.609744
0.630619
0.665342
0.71824
0.789609
0.876187
0.975928
1.08727
1.20887
1.34023
1.48169
1.63432
1.79958
1.97887
2.17312
2.38242
2.6058
2.84124
3.08577
3.33576
3.58723
3.83619
4.07891
4.31142
4.52905
4.72691
4.89992
5.04236
5.14877
5.21508
5.23704
5.21038
5.13125
4.99695
4.80695
4.56388
4.27429
3.94992
3.60636
3.25674
2.90998
2.57236
2.24773
1.93712
1.63881
1.34908
1.06333
0.777413
0.487727
0.195621
-0.080639
-0.314556
-0.481956
-0.570683
-0.585237
-0.544828
-0.47639
-0.406046
-0.351983
-0.314498
-0.289982
-0.276786
-0.273068
-0.27636
-0.283925
-0.293078
-0.301392
-0.306857
-0.308021
-0.304102
-0.295002
-0.281128
-0.263609
-0.243812
-0.223009
-0.202155
-0.181856
-0.162535
-0.144876
-0.130276
-0.120669
-0.118349
-0.125126
-0.141344
-0.165155
-0.192387
-0.21714
-0.232906
-0.233994
-0.21716
-0.176201
-0.104065
0.00496616
0.143067
0.279743
0.379699
0.405928
0.330495
0.151749
-0.0925527
-0.329773
-0.481051
-0.503904
-0.464749
-0.400922
-0.33569
-0.285937
-0.256992
-0.242533
-0.22938
-0.204635
-0.161771
-0.105386
-0.0427781
0.0134367
0.0503963
0.0585446
0.0339786
-0.0203303
-0.0945588
-0.17355
-0.239927
-0.278332
-0.28404
-0.263435
-0.224437
-0.171132
-0.110762
-0.0508163
0.00222473
0.0437252
0.07114
0.0837208
0.0819189
0.0668137
0.0399954
0.00352902
-0.0401316
-0.0879577
-0.13524
-0.176822
-0.208064
-0.225809
-0.228925
-0.218172
-0.195445
-0.162734
-0.121357
-0.0723668
-0.0154431
0.0495422
0.122105
0.200903
0.28047
0.353581
0.413681
0.457103
0.484512
0.501028
0.515045
0.536217
0.582438
0.689132
0.880066
1.10125
1.28834
1.37554
1.3083
1.06714
0.68991
0.273455
-0.0562387
-0.204013
-0.262125
-0.288502
-0.297675
-0.303555
-0.315816
-0.337492
-0.364676
-0.388526
-0.398946
-0.388693
-0.357651
-0.308604
-0.253931
-0.208723
-0.186072
-0.193469
-0.231549
-0.295225
-0.376116
-0.464769
0
1.10155
2.95571
5.48397
8.33527
10.9351
12.6619
13.0801
12.1169
10.0909
7.57673
5.17404
3.29783
2.08134
1.4164
1.09008
0.94728
0.810338
0.682103
0.565522
0.462868
0.376031
0.306867
0.257045
0.22719
0.217654
0.228313
0.25821
0.305218
0.365911
0.435774
0.509829
0.583245
0.652344
0.715223
0.77191
0.824013
0.873965
0.924159
0.97664
1.03229
1.09153
1.15543
1.22668
1.30977
1.4101
1.53258
1.68009
1.85091
2.03965
2.24292
2.45808
2.68287
2.91568
3.15542
3.40106
3.6511
3.90312
4.15351
4.39746
4.62821
4.83727
5.01784
5.16428
5.27259
5.34034
5.36631
5.34974
5.28969
5.18481
5.0343
4.84123
4.6087
4.33937
4.03819
3.71221
3.3699
3.0203
2.67149
2.33016
2.00128
1.68821
1.39318
1.118
0.864654
0.635639
0.433895
0.26217
0.122734
0.0176215
-0.0527188
-0.0900075
-0.0987281
-0.0880371
-0.071829
-0.0629787
-0.0708597
-0.0997744
-0.148352
-0.210174
-0.275612
-0.334425
-0.378321
-0.405534
-0.418527
-0.41804
-0.405663
-0.383467
-0.353985
-0.319263
-0.281504
-0.243661
-0.20908
-0.180993
-0.161928
-0.153037
-0.15359
-0.160821
-0.170246
-0.176414
-0.174079
-0.159754
-0.131001
-0.085214
-0.0263478
0.034532
0.0853431
0.116855
0.125671
0.11514
0.0937383
0.0714588
0.0556641
0.047702
0.0437453
0.0377732
0.023851
-0.00104613
-0.0353966
-0.0733398
-0.106633
-0.127588
-0.133582
-0.120425
-0.0950465
-0.0684316
-0.0512787
-0.0498986
-0.064178
-0.0884934
-0.115011
-0.13759
-0.154342
-0.168105
-0.18138
-0.196139
-0.212717
-0.229548
-0.243717
-0.251953
-0.252382
-0.244983
-0.230013
-0.208035
-0.180173
-0.147963
-0.113578
-0.0793071
-0.0469096
-0.0172775
0.00963521
0.0345056
0.0579856
0.0794179
0.0953436
0.0993431
0.0839851
0.0446299
-0.0169358
-0.0909468
-0.161285
-0.209898
-0.222262
-0.192471
-0.122841
-0.0230053
0.0937555
0.214707
0.332058
0.443848
0.549681
0.650932
0.750444
0.853148
0.974582
1.15543
1.38599
1.60825
1.7398
1.71318
1.51153
1.17981
0.806242
0.487154
0.295061
0.17787
0.0956843
0.0439285
0.0214452
0.0257509
0.0531586
0.100177
0.162109
0.232492
0.301755
0.358613
0.392743
0.395951
0.363467
0.294929
0.194539
0.0700006
-0.0696238
-0.216443
-0.365271
-0.514319
0
1.16589
3.09616
5.66641
8.45043
10.8051
12.1056
12.0183
10.6521
8.49151
6.15468
4.13101
2.64811
1.70374
1.18615
1.05304
0.930709
0.804048
0.658937
0.466967
0.232016
-0.000301743
-0.173878
-0.248356
-0.213922
-0.0877419
0.101217
0.324203
0.551634
0.753905
0.921262
1.04637
1.12257
1.15229
1.14735
1.12638
1.11008
1.11591
1.14947
1.20557
1.27931
1.36752
1.46743
1.57656
1.69337
1.81766
1.95072
2.0951
2.25391
2.42996
2.6248
2.838
3.06679
3.30629
3.55043
3.79305
4.0291
4.25567
4.47249
4.68151
4.88588
5.09928
5.36712
5.70649
6.04401
6.30744
6.45118
6.45972
6.3402
6.11304
5.80605
5.45272
5.08811
4.72793
4.36903
4.01169
3.65779
3.31026
2.97363
2.65299
2.35317
2.07876
1.83265
1.61337
1.41687
1.2376
1.07004
0.910118
0.756102
0.608801
0.471015
0.346242
0.237101
0.146245
0.0751647
0.024518
-0.00662651
-0.0201885
-0.0188149
-0.00452256
0.0190053
0.0464646
0.0731283
0.0959116
0.11429
0.13067
0.149933
0.179206
0.235635
0.331551
0.446504
0.544756
0.592014
0.572416
0.497017
0.399809
0.323224
0.299437
0.324995
0.376717
0.437962
0.490479
0.520445
0.52291
0.502837
0.472336
0.445321
0.431991
0.43273
0.44224
0.457352
0.474636
0.491401
0.5062
0.518674
0.528855
0.535909
0.538013
0.53213
0.515081
0.48505
0.442806
0.392058
0.338803
0.289954
0.251262
0.224693
0.211125
0.211561
0.22605
0.254104
0.295954
0.353088
0.421273
0.483053
0.516486
0.501507
0.428473
0.304677
0.154653
0.0129441
-0.0878778
-0.133861
-0.130569
-0.0846769
-0.00758548
0.0896346
0.199449
0.316295
0.441428
0.57031
0.688536
0.776111
0.815465
0.799697
0.735931
0.642304
0.541185
0.452788
0.385979
0.339212
0.311291
0.302891
0.315542
0.350372
0.407775
0.48721
0.587721
0.71163
0.858598
1.01547
1.16001
1.27073
1.33274
1.34224
1.30802
1.24898
1.18816
1.145
1.12622
1.12332
1.12852
1.13103
1.11998
1.08759
1.03137
0.954874
0.866658
0.77787
0.699201
0.635724
0.586942
0.552801
0.531092
0.517685
0.507932
0.497635
0.483723
0.464496
0.439436
0.408709
0.372556
0.330852
0.283189
0.229113
0.16756
0.0980475
0.0224186
-0.0557508
-0.131522
0
0.772835
2.25451
4.45573
7.17145
9.96294
12.2359
13.4142
13.1569
11.5222
8.98167
6.24991
3.99554
2.57631
1.94492
1.76551
1.5524
1.34263
1.14115
0.95601
0.794678
0.670868
0.616712
0.670673
0.79636
0.933192
1.02339
1.03207
0.960001
0.843599
0.740348
0.704351
0.761991
0.868466
0.993959
1.12191
1.23721
1.32974
1.39675
1.44311
1.47958
1.51944
1.57474
1.65289
1.75253
1.86949
2.00102
2.14543
2.30152
2.46877
2.64728
2.83737
3.03925
3.25272
3.47713
3.71176
3.95568
4.20767
4.46597
4.72833
4.9902
5.24109
5.468
5.65798
5.80103
5.89185
5.9298
5.9174
5.85816
5.75479
5.60936
5.42645
5.20953
4.96156
4.68686
4.39159
4.08227
3.76466
3.44425
3.12623
2.81508
2.51416
2.22556
1.95011
1.68761
1.43716
1.19763
0.968261
0.749124
0.543197
0.357345
0.197826
0.0711414
-0.0178408
-0.0678373
-0.0821651
-0.0683599
-0.0364617
0.00344536
0.0435546
0.0803645
0.112976
0.142324
0.170097
0.197659
0.22532
0.252227
0.276711
0.296942
0.311675
0.320804
0.325581
0.328403
0.332256
0.339896
0.35303
0.372175
0.396252
0.421996
0.445271
0.462121
0.469644
0.466435
0.452472
0.428651
0.396265
0.356954
0.312949
0.266589
0.221074
0.180658
0.150011
0.133215
0.138237
0.16531
0.207104
0.252837
0.291714
0.316092
0.323199
0.315096
0.297353
0.277183
0.260873
0.251703
0.251637
0.261708
0.280597
0.303508
0.324524
0.338215
0.341027
0.331944
0.312211
0.284313
0.250747
0.213426
0.1735
0.131612
0.0885988
0.0462224
0.00765358
-0.0227672
-0.0401192
-0.0398987
-0.0116522
0.058969
0.16121
0.267283
0.347515
0.381947
0.368229
0.322277
0.27132
0.242444
0.251588
0.296351
0.360701
0.420454
0.452789
0.444998
0.399352
0.332318
0.268201
0.229433
137
373
609
837
1061
1291
1528
1753
1979
2207
2438
2660
2886
3116
3341
3572
2752
2917
3080
3238
3403
3568
3733
2926
3051
3175
3300
3427
3552
3676
0
0
0
0
0
0
0
0
0
0
0
0
0
0
0
0
0
0
0
0
0
0
0
0
0
0
0
0
0
0
0
0
0
0
0
0
0
0
0
0
0
0
0
0
0
0
0
0
0
0
0
0
0
0
0
0
0
0
0
0
0
0
0
0
0
0
0
0
0
0
0
0
0
0
0
0
0
0
0
0
0
0
0
0
0
0
0
0
0
0
0
0
0
0
0
0
0
0
0
0
0
0
0
0
0
0
0
0
0
0
0
0
0
0
0
0
0
0
0
0
0
0
0
0
0
0
0
0
0
0
0
0
0
0
0
0
0
0
0
0
0
0
0
0
0
0
0
0
0
0
0
0
0
0
0
0
0
0
0
0
0
0
0
0
0
0
0
0
0
0
0
0
0
0
0
0
0
0
0
0
0
0
0
0
0
0
0
0
0
0
0
0
0
0
0
0
0
0
0
0
0
0
0
0
0
0
0
0
0
0
0
0
0
0
0
0
0
0
0
0
0
0
0
0
0
0
0
0
0
0
0
0
0
0
0
0
0
0
0
0
0
0
0
0
0
0
0
0
0
0
0
0
0
0
0
0
0
0
0
0
0
0
0
0
0
0
0
0
0
0
0
0
0
0
0
0
0
0
0
0
0
0
0
0
0
0
0
0
0
0
0
0
0
0
0
0
0
0
0
0
0
0
0
0
0
0
0
0
0
0
0
0
0
0
0
0
0
0
0
0
0
0
0
0
0
0
0
0
0
0
0
0
0
0
0
0
0
0
0
0
0
0
0
0
0
0
0
0
0
0
0
0
0
0
0
0
0
0
0
0
0
0
0
0
0
0
0
0
0
0
0
0
0
0
0
0
0
0
0
0
0
0
0
0
0
0
0
0
0
0
0
0
0
0
0
0
0
0
0
0
0
0
0
0
0
0
0
0
0
0
0
0
0
0
0
0
0
0
0
0
0
0
0
0
0
0
0
0
0
0
0
0
0
0
0
0
0
0
0
0
0
0
0
0
0
0
0
0
0
0
0
0
0
0
0
0
0
0
0
0
0
0
0
0
0
0
0
0
0
0
0
0
0
0
0
0
0
0
0
0
0
0
0
0
0
0
0
0
0
0
0
0
0
0
0
0
0
0
0
0
0
0
0
0
0
0
0
0
0
0
0
0
0
0
0
0
0
0
0
0
0
0
0
0
0
0
0
0
0
0
0
0
0
0
0
0
0
0
0
0
0
0
0
0
0
0
0
0
0
0
0
0
0
0
0
0
0
0
0
0
0
0
0
0
0
0
0
0
0
0
0
0
0
0
0
0
0
0
0
0
0
0
0
0
0
0
0
0
0
0
0
0
0
0
0
0
0
0
0
0
0
0
0
0
0
0
0
0
0
0
0
0
0
0
0
0
0
0
0
0
0
0
0
0
0
0
0
0
0
0
0
0
0
0
0
0
0
0
0
0
0
0
0
0
0
0
0
0
0
0
0
0
0
0
0
0
0
0
0
0
0
0
0
0
0
0
0
0
0
0
0
0
0
0
0
0
0
0
0
0
0
0
0
0
0
0
0
0
0
0
0
0
0
0
0
0
0
0
0
0
0
0
0
0
0
0
0
0
0
0
0
0
0
0
0
0
0
0
0
0
0
0
0
0
0
0
0
0
0
0
0
0
0
0
0
0
0
0
0
0
0
0
0
0
0
0
0
0
0
0
0
0
0
0
0
0
0
0
0
0
0
0
0
0
0
0
0
0
0
0
0
0
0
0
0
0
0
0
0
0
0
0
0
0
0
0
0
0
0
0
0
0
0
0
0
0
0
0
0
0
0
0
0
0
0
0
0
0
0
0
0
0
0
0
0
0
0
0
0
0
0
0
0
0
0
0
0
0
0
0
0
0
0
0
0
0
0
0
0
0
0
0
0
0
0
0
0
0
0
0
0
0
0
0
0
0
0
0
0
0
0
0
0
0
0
0
0
0
0
0
0
0
0
0
0
0
0
0
0
0
0
0
0
0
0
0
0
0
0
0
0
0
0
0
0
0
0
0
0
0
0
0
0
0
0
0
0
0
0
0
0
0
0
0
0
0
0
0
0
0
0
0
0
0
0
0
0
0
0
0
0
0
0
0
0
0
0
0
0
0
0
0
0
0
0
0
0
0
0
0
0
0
0
0
0
0
0
0
0
0
0
0
0
0
0
0
0
0
0
0
0
0
0
0
0
0
0
0
0
0
0
0
0
0
0
0
0
0
0
0
0
0
0
0
0
0
0
0
0
0
0
0
0
0
0
0
0
0
0
0
0
0
0
0
0
0
0
0
0
0
0
0
0
0
0
0
0
0
0
0
0
0
0
0
0
0
0
0
0
0
0
0
0
0
0
0
0
0
0
0
0
0
0
0
0
0
0
0
0
0
0
0
0
0
0
0
0
0
0
0
0
0
0
0
0
0
0
0
0
0
0
0
0
0
0
0
0
0
0
0
0
0
0
0
0
0
0
0
0
0
0
0
0
0
0
0
0
0
0
0
0
0
0
0
0
0
0
0
0
0
0
0
0
0
0
0
0
0
0
0
0
0
0
0
0
0
0
0
0
0
0
0
0
0
0
0
0
0
0
0
0
0
0
0
0
0
0
0
0
0
0
0
0
0
0
0
0
0
0
0
0
0
0
0
0
0
0
0
0
0
0
0
0
0
0
0
0
0
0
0
0
0
0
0
0
0
0
0
0
0
0
0
0
0
0
0
0
0
0
0
0
0
0
0
0
0
0
0
0
0
0
0
0
0
0
0
0
0
0
0
0
0
0
0
0
0
0
0
0
0
0
0
0
0
0
0
0
0
0
0
0
0
0
0
0
0
0
0
0
0
0
0
0
0
0
0
0
0
0
0
0
0
0
0
0
0
0
0
0
0
0
0
0
0
0
0
0
0
0
0
0
0
0
0
0
0
0
0
0
0
0
0
0
0
0
0
0
0
0
0
0
0
0
0
0
0
0
0
0
0
0
0
0
0
0
0
0
0
0
0
0
0
0
0
0
0
0
0
0
0
0
0
0
0
0
0
0
0
0
0
0
0
0
0
0
0
0
0
0
0
0
0
0
0
0
0
0
0
0
0
0
0
0
0
0
0
0
0
0
0
0
0
0
0
0
0
0
0
0
0
0
0
0
0
0
0
0
0
0
0
0
0
0
0
0
0
0
0
0
0
0
0
0
0
0
0
0
0
0
0
0
0
0
0
0
0
0
0
0
0
0
0
0
0
0
0
0
0
0
0
0
0
0
0
0
0
0
0
0
0
0
0
0
0
0
0
0
0
0
0
0
0
0
0
0
0
0
0
0
0
0
0
0
0
0
0
0
0
0
0
0
0
0
0
0
0
0
0
0
0
0
0
0
0
0
0
0
0
0
0
0
0
0
0
0
0
0
0
0
0
0
0
0
0
0
0
0
0
0
0
0
0
0
0
0
0
0
0
0
0
0
0
0
0
0
0
0
0
0
0
0
0
0
0
0
0
0
0
0
0
0
0
0
0
0
0
0
0
0
0
0
0
0
0
0
0
0
0
0
0
0
0
0
0
0
0
0
0
0
0
0
0
0
0
0
0
0
0
0
0
0
0
0
0
0
0
0
0
0
0
0
0
0
0
0
0
0
0
0
0
0
0
0
0
0
0
0
0
0
0
0
0
0
0
0
0
0
0
0
0
0
0
0
0
0
0
0
0
0
0
0
0
0
0
0
0
0
0
0
0
0
0
0
0
0
0
0
0
0
0
0
0
0
0
0
0
0
0
0
0
0
0
0
0
0
0
0
0
0
0
0
0
0
0
0
0
0
0
0
0
0
0
0
0
0
0
0
0
0
0
0
0
0
0
0
0
0
0
0
0
0
0
0
0
0
0
0
0
0
0
0
0
0
0
0
0
0
0
0
0
0
0
0
0
0
0
0
0
0
0
0
0
0
0
0
0
0
0
0
0
0
0
0
0
0
0
0
0
0
0
0
0
0
0
0
0
0
0
0
0
0
0
0
0
0
0
0
0
0
0
0
0
0
0
0
0
0
0
0
0
0
0
0
0
0
0
0
0
0
0
0
0
0
0
0
0
0
0
0
0
0
0
0
0
0
0
0
0
0
0
0
0
0
0
0
0
0
0
0
0
0
0
0
0
0
0
0
0
0
0
0
0
0
0
0
0
0
0
0
0
0
0
0
0
0
0
0
0
0
0
0
0
0
0
0
0
0
0
0
0
0
0
0
0
0
0
0
0
0
0
0
0
0
0
0
0
0
0
0
0
0
0
0
0
0
0
0
0
0
0
0
0
0
0
0
0
0
0
0
0
0
0
0
0
0
0
0
0
0
0
0
0
0
0
0
0
0
0
0
0
0
0
0
0
0
0
0
0
0
0
0
0
0
0
0
0
0
0
0
0
0
0
0
0
0
0
0
0
0
0
0
0
0
0
0
0
0
0
0
0
0
0
0
0
0
0
0
0
0
0
0
0
0
0
0
0
0
0
0
0
0
0
0
0
0
0
0
0
0
0
0
0
0
0
0
0
0
0
0
0
0
0
0
0
0
0
0
0
0
0
0
0
0
0
0
0
0
0
0
0
0
0
0
0
0
0
0
0
0
0
0
0
0
0
0
0
0
0
0
0
0
0
0
0
0
0
0
0
0
0
0
0
0
0
0
0
0
0
0
0
0
0
0
0
0
0
0
0
0
0
0
0
0
0
0
0
0
0
0
0
0
0
0
0
0
0
0
0
0
0
0
0
0
0
0
0
0
0
0
0
0
0
0
0
0
0
0
0
0
0
0
0
0
0
0
0
0
0
0
0
0
0
0
0
0
0
0
0
0
0
0
0
0
0
0
0
0
0
0
0
0
0
0
0
0
0
0
0
0
0
0
0
0
0
0
0
0
0
0
0
0
0
0
0
0
0
0
0
0
0
0
0
0
0
0
0
0
0
0
0
0
0
0
0
0
0
0
0
0
0
0
0
0
0
0
0
0
0
0
0
0
0
0
0
0
0
0
0
0
0
0
0
0
0
0
0
0
0
0
0
0
0
0
0
0
0
0
0
0
0
0
0
0
0
0
0
0
0
0
0
0
0
0
0
0
0
0
0
0
0
0
0
0
0
0
0
0
0
0
0
0
0
0
0
0
0
0
0
0
0
0
0
0
0
0
0
0
0
0
0
0
0
0
0
0
0
0
0
0
0
0
0
0
0
0
0
0
0
0
0
0
0
0
0
0
0
0
0
0
0
0
0
0
0
0
0
0
0
0
0
0
0
0
0
0
0
0
0
0
0
0
0
0
0
0
0
0
0
0
0
0
0
0
0
0
0
0
0
0
0
0
0
0
0
0
0
0
0
0
0
0
0
0
0
0
0
0
0
0
0
0
0
0
0
0
0
0
0
0
0
0
0
0
0
0
0
0
0
0
0
0
0
0
0
0
0
0
0
0
0
0
0
0
0
0
0
0
0
0
0
0
0
0
0
0
0
0
0
0
0
0
0
0
0
0
0
0
0
0
0
0
0
0
0
0
0
0
0
0
0
0
0
0
0
0
0
0
0
0
0
0
0
0
0
0
0
0
0
0
0
0
0
0
0
0
0
0
0
0
0
0
0
0
0
0
0
0
0
0
0
0
0
0
0
0
0
0
0
0
0
0
0
0
0
0
0
0
0
0
0
0
0
0
0
0
0
0
0
0
0
0
0
0
0
0
0
0
0
0
0
0
0
0
0
0
0
0
0
0
0
0
0
0
0
0
0
0
0
0
0
0
0
0
0
0
0
0
0
0
0
0
0
0
0
0
0
0
0
0
0
0
0
0
0
0
0
0
0
0
0
0
0
0
0
0
0
0
0
0
0
0
0
0
0
0
0
0
0
0
0
0
0
0
0
0
0
0
0
0
0
0
0
0
0
0
0
0
0
0
0
0
0
0
0
0
0
0
0
0
0
0
0
0
0
0
0
0
0
0
0
0
0
0
0
0
0
0
0
0
0
0
0
0
0
0
0
0
0
0
0
0
0
0
0
0
0
0
0
0
0
0
0
0
0
0
0
0
0
0
0
0
0
0
0
0
0
0
0
0
0
0
0
0
0
0
0
0
0
0
0
0
0
0
0
0
0
0
0
0
0
0
0
0
0
0
0
0
0
0
0
0
0
0
0
0
0
0
0
0
0
0
0
0
0
0
0
0
0
0
0
0
0
0
0
0
0
0
0
0
0
0
0
0
0
0
0
0
0
0
0
0
0
0
0
0
0
0
0
0
0
0
0
0
0
0
0
0
0
0
0
0
0
0
0
0
0
0
0
0
0
0
0
0
0
0
0
0
0
0
0
0
0
0
0
0
0
0
0
0
0
0
0
0
0
0
0
0
0
0
0
0
0
0
0
0
0
0
0
0
0
0
0
0
0
0
0
0
0
0
0
0
0
0
0
0
0
0
0
0
0
0
0
0
0
0
0
0
0
0
0
0
0
0
0
0
0
0
0
0
0
0
0
0
0
0
0
0
0
0
0
0
0
0
0
0
0
0
0
0
0
0
0
0
0
0
0
0
0
0
0
0
0
0
0
0
0
0
0
0
0
0
0
0
0
0
0
0
0
0
0
0
0
0
0
0
0
0
0
0
0
0
0
0
0
0
0
0
0
0
0
0
0
0
0
0
0
0
0
0
0
0
0
0
0
0
0
0
0
0
0
0
0
0
0
0
0
0
0
0
0
0
0
0
0
0
0
0
0
0
0
0
0
0
0
0
0
0
0
0
0
0
0
0
0
0
0
0
0
0
0
0
0
0
0
0
0
0
0
0
0
0
0
0
0
0
0
0
0
0
0
0
0
0
0
0
0
0
0
0
0
0
0
0
0
0
0
0
0
0
0
0
0
0
0
0
0
0
0
0
0
0
0
0
0
0
0
0
0
0
0
0
0
0
0
0
0
0
0
0
0
0
0
0
0
0
0
0
0
0
0
0
0
0
0
0
0
0
0
0
0
0
0
0
0
0
0
0
0
0
0
0
0
0
0
0
0
0
0
0
0
0
0
0
0
0
0
0
0
0
0
0
0
0
0
0
0
0
0
0
0
0
0
0
0
0
0
0
0
0
0
0
0
0
0
0
0
0
0
0
0
0
0
0
0
0
0
0
0
0
0
0
0
0
0
0
0
0
0
0
0
0
0
0
0
0
0
0
0
0
0
0
0
0
0
0
0
0
0
0
0
0
0
0
0
0
0
0
0
0
0
0
0
0
0
0
0
0
0
0
0
0
0
0
0
0
0
0
0
0
0
0
0
0
0
0
0
0
0
0
0
0
0
0
0
0
0
0
0
0
0
0
0
0
0
0
0
0
0
0
0
0
0
0
0
0
0
0
0
0
0
0
0
0
0
0
0
0
0
0
0
0
0
0
0
0
0
0
0
0
0
0
0
0
0
0
0
0
0
0
0
0
0
0
0
0
0
0
0
0
0
0
0
0
0
0
0
0
0
0
0
0
0
0
0
0
0
0
0
0
0
0
0
0
0
0
0
0
0
0
0
0
0
0
0
0
0
0
0
0
0
0
0
0
0
0
0
0
0
0
0
0
0
0
0
0
0
0
0
0
0
0
0
0
0
0
0
0
0
0
0
0
0
0
0
0
0
0
0
0
0
0
0
0
0
0
0
0
0
0
0
0
0
0
0
0
0
0
0
0
0
0
0
0
0
0
0
0
0
0
0
0
0
0
0
0
0
0
0
0
0
0
0
0
0
0
0
0
0
0
0
0
0
0
0
0
0
0
0
0
0
0
0
0
0
0
0
0
0
0
0
0
0
0
0
0
0
0
0
0
0
0
0
0
0
0
0
0
0
0
0
0
0
0
0
0
0
0
0
0
0
0
0
0
0
0
0
0
0
0
0
0
0
0
0
0
0
0
0
0
0
0
0
0
0
0
0
0
0
0
0
0
0
0
0
0
0
0
0
0
0
0
0
0
0
0
0
0
0
0
0
0
0
0
0
0
0
0
0
0
0
0
0
0
0
0
0
0
0
0
0
0
0
0
0
0
0
0
0
0
0
0
0
0
0
0
0
0
0
0
0
0
0
0
0
0
0
0
0
0
0
0
0
0
0
0
0
0
0
0
0
0
0
0
0
0
0
0
0
0
0
0
0
0
0
0
0
0
0
0
0
0
0
0
0
0
0
0
0
0
0
0
0
0
0
0
0
0
0
0
0
0
0
0
0
0
0
0
0
0
0
0
0
0
0
0
0
0
0
0
0
0
0
0
0
0
0
0
0
0
0
0
0
0
0
0
0
0
0
0
0
0
0
0
0
0
0
0
0
0
0
0
0
0
0
0
0
0
0
0
0
0
0
0
0
0
0
0
0
0
0
0
0
0
0
0
0
0
0
0
0
0
0
0
0
0
0
0
0
0
0
0
0
0
