-2.98429
-2.8869
-2.79831
-2.72095
-2.65704
-2.60857
-2.57735
-2.56488
-2.57224
-2.6001
-2.64871
-2.71787
-2.80686
-2.91364
-3.03532
-3.16868
-3.31
-3.45496
-3.59885
-3.73689
-3.86461
-3.97827
-4.07517
-4.15359
-4.21263
-4.25266
-4.27636
-4.2884
-4.2935
-4.29547
-4.29642
-4.29652
-4.29429
-4.28731
-4.27316
-4.25037
-4.21925
-4.18113
-4.13762
-4.09044
-4.04129
-3.99165
-3.94257
-3.89465
-3.84803
-3.80249
-3.7575
-3.71234
-3.66623
-3.61837
-3.56811
-3.51494
-3.4586
-3.39911
-3.33686
-3.27266
-3.20781
-3.14413
-3.08391
-3.02959
-2.98342
-2.94712
-2.9216
-2.90684
-2.90186
-2.90492
-2.91371
-2.9256
-2.93784
-2.94783
-2.95319
-2.95197
-2.94286
-2.92533
-2.8997
-2.86706
-2.82904
-2.78753
-2.74431
-2.70081
-2.65797
-2.6163
-2.57604
-2.53729
-2.50016
-2.4647
-2.43091
-2.39856
-2.36704
-2.33533
-2.30196
-2.26516
-2.22302
-2.1737
-2.11563
-2.04766
-1.96919
-1.88017
-1.78114
-1.67328
-1.55835
-1.43873
-1.3174
-1.19832
-1.08704
-0.989436
-0.91039
-0.85316
-0.818579
-0.804674
-0.806808
-0.818416
-0.832143
-0.841129
-0.840848
-0.829811
-0.808054
-0.776352
-0.736243
-0.689838
-0.639415
-0.587022
-0.53422
-0.483038
-0.417197
0
1.01336
2.80299
5.253
7.89937
10.0205
10.8992
10.1471
7.91097
4.8306
1.76319
-0.57206
-1.83816
-2.11045
-1.69056
-1.09396
-0.534326
-0.133115
0.00348511
0.0423889
0.057341
0.0572884
0.0452896
0.0253868
0.00230637
-0.0190063
-0.0341034
-0.0396217
-0.0336174
-0.0157944
0.0125946
0.0495193
0.092437
0.138989
0.187579
0.237706
0.289926
0.345468
0.405616
0.471046
0.541227
0.61463
0.687901
0.755956
0.813951
0.858784
0.890303
0.911821
0.929722
0.952213
0.987564
1.04229
1.11822
1.21293
1.3232
1.44565
1.57636
1.71139
1.84684
1.9784
2.10074
2.2067
2.28803
2.33627
2.34204
2.297
2.1964
2.04115
1.83887
1.6034
1.35283
1.10608
0.874162
0.660203
0.466053
0.293839
0.143568
0.0119263
-0.105762
-0.214259
-0.317194
-0.415655
-0.507983
-0.590121
-0.656948
-0.704387
-0.731008
-0.73852
-0.730997
-0.713248
-0.689078
-0.660704
-0.628329
-0.590898
-0.547284
-0.497068
-0.441315
-0.381974
-0.321545
-0.262823
-0.208468
-0.16066
-0.121011
-0.0905396
-0.069632
-0.0583061
-0.0563614
-0.0634872
-0.0793167
-0.103444
-0.135415
-0.174711
-0.220692
-0.272536
-0.329296
-0.389854
-0.452896
-0.516947
-0.580416
-0.64164
-0.698917
-0.750679
-0.795564
-0.83254
-0.861023
-0.880975
-0.892976
-0.898244
-0.898485
-0.895866
-0.893163
-0.893266
-0.898599
-0.910696
-0.929859
-0.955042
-0.984012
-1.01375
-1.041
-1.06286
-1.07747
-1.08389
-1.0817
-1.07085
-1.05174
-1.02521
-0.992543
-0.955291
-0.915768
-0.876854
-0.841615
-0.81296
-0.793378
-0.784788
-0.787502
-0.800411
-0.820958
-0.845307
-0.868729
-0.886215
-0.893239
-0.886485
-0.864718
-0.829205
-0.781534
-0.72413
-0.659778
-0.591308
-0.5211
-0.45125
-0.383895
-0.321629
-0.267418
-0.223788
-0.192569
-0.174162
-0.166978
-0.167256
-0.169424
-0.166933
-0.15337
-0.120435
-0.0527573
0.0634659
0.211379
0.35078
0.441092
0.452454
0.374344
0.219582
0.0210915
-0.178378
-0.339854
-0.452
-0.531184
-0.590766
-0.636954
-0.672835
-0.701377
-0.72542
-0.747414
-0.769295
-0.799641
-0.639583
0
1.33377
3.42708
6.03893
8.60673
10.3883
10.7481
9.45974
6.84824
3.67055
0.791098
-1.16687
-2.00878
-1.92851
-1.27276
-0.613167
-0.0510918
0.269714
0.336135
0.351529
0.33496
0.297294
0.251529
0.210405
0.183811
0.17375
0.177731
0.192744
0.215958
0.244294
0.274979
0.306081
0.336725
0.366991
0.397516
0.428957
0.461491
0.494488
0.52621
0.554366
0.577003
0.593457
0.605066
0.615381
0.629758
0.654408
0.695125
0.755281
0.834906
0.931969
1.0428
1.16208
1.28347
1.40044
1.50716
1.59918
1.67386
1.73054
1.77024
1.79511
1.80782
1.81085
1.80565
1.79213
1.76865
1.73256
1.68034
1.60869
1.51546
1.40046
1.26578
1.11562
0.955633
0.792102
0.630415
0.474428
0.326837
0.189022
0.0612659
-0.0567074
-0.165004
-0.262984
-0.349179
-0.421986
-0.47906
-0.518208
-0.538361
-0.540251
-0.526513
-0.501181
-0.468768
-0.433298
-0.397625
-0.363038
-0.32998
-0.298581
-0.268903
-0.241086
-0.215315
-0.191728
-0.170276
-0.150617
-0.132145
-0.114167
-0.0961552
-0.0779469
-0.0598637
-0.0425251
-0.0264629
-0.011721
0.00238457
0.0172024
0.0344196
0.0555958
0.0817371
0.112734
0.147944
0.186456
0.227098
0.268568
0.309521
0.348615
0.384519
0.415983
0.441946
0.46166
0.474821
0.481649
0.482915
0.479894
0.474265
0.467979
0.463098
0.461611
0.465246
0.475268
0.492307
0.516249
0.546225
0.580697
0.617687
0.655004
0.690496
0.722239
0.748693
0.768802
0.781994
0.788132
0.787442
0.780402
0.767608
0.749636
0.726935
0.69978
0.668298
0.632602
0.592967
0.550009
0.504767
0.45865
0.413244
0.370054
0.330364
0.29475
0.263074
0.234809
0.209404
0.186585
0.166474
0.14949
0.136119
0.126704
0.121169
0.119496
0.121681
0.127826
0.138062
0.152438
0.170779
0.191007
0.208272
0.216251
0.208512
0.180102
0.128722
0.0550997
-0.0374548
-0.143997
-0.25892
-0.376275
-0.491709
-0.60115
-0.70109
-0.78867
-0.861812
-0.919689
-0.962684
-0.992357
-1.01131
-0.980039
-0.667341
0
1.18228
2.967
5.21613
7.49182
9.13272
9.50278
8.29974
5.74634
2.53715
-0.444129
-2.48511
-3.29405
-3.02937
-2.13982
-1.11876
-0.315713
0.130973
0.19999
0.195104
0.186613
0.178502
0.173746
0.175018
0.184368
0.202916
0.231044
0.268483
0.3145
0.368201
0.428739
0.49545
0.567864
0.645612
0.72827
0.81523
0.905633
0.998421
1.09244
1.18656
1.27984
1.37165
1.46169
1.55009
1.63733
1.72422
1.81173
1.90083
1.99235
2.08683
2.1846
2.2859
2.39104
2.5007
2.61596
2.73824
2.86901
3.0099
3.16353
3.33114
3.50866
3.68377
3.83765
3.95339
4.01804
4.02326
3.96567
3.8477
3.67823
3.47205
3.24746
3.02273
2.80844
2.60622
2.41501
2.23438
2.06404
1.90329
1.7515
1.6086
1.4754
1.35418
1.24798
1.15976
1.09182
1.04501
1.02183
1.0205
1.03294
1.05008
1.06416
1.07057
1.06853
1.06034
1.04971
1.03987
1.03226
1.02666
1.02229
1.01888
1.01762
1.02137
1.03406
1.05933
1.0992
1.15172
1.21285
1.27849
1.34386
1.40415
1.45507
1.49312
1.51506
1.51808
1.50055
1.46147
1.40073
1.31956
1.22086
1.10934
0.99125
0.873813
0.764988
0.672219
0.600918
0.553953
0.53131
0.530201
0.545624
0.571336
0.60106
0.629675
0.654365
0.674613
0.691527
0.707503
0.725477
0.748086
0.776749
0.812165
0.853667
0.89822
0.93959
0.969654
0.979983
0.96325
0.914483
0.831887
0.716987
0.574064
0.409091
0.228567
0.0375498
-0.160365
-0.354752
-0.527079
-0.650887
-0.697872
-0.650419
-0.513289
-0.317146
-0.110796
0.0553315
0.154022
0.207076
0.233205
0.23563
0.218788
0.187654
0.147502
0.103677
0.0605655
0.0222349
-0.00760374
-0.0258929
-0.0305577
-0.0207633
0.00298748
0.0389547
0.0844332
0.136101
0.190346
0.243803
0.293252
0.33561
0.368089
0.388376
0.394652
0.385758
0.36142
0.322459
0.270889
0.20907
0.141002
0.0715277
0.00502138
-0.0553439
-0.108041
-0.153238
-0.163486
0
0.573264
1.95999
4.40048
7.72899
11.2711
14.0162
15.0195
13.8393
10.7669
6.71891
2.84303
0.0487168
-1.30412
-1.42923
-0.882877
-0.339216
0.0448545
0.229754
0.296014
0.348919
0.398897
0.447269
0.494349
0.540088
0.584127
0.625828
0.664466
0.699383
0.730167
0.756804
0.779772
0.800019
0.818852
0.837746
0.858131
0.881106
0.907325
0.936866
0.969303
1.00297
1.03439
1.05958
1.07538
1.08072
1.07756
1.07077
1.06721
1.0741
1.0975
1.13892
1.19703
1.27093
1.36012
1.46398
1.58186
1.71318
1.8573
2.01369
2.18335
2.37072
2.58525
2.83006
3.07848
3.28699
3.40598
3.40031
3.26675
3.03446
2.74783
2.44442
2.1453
1.85917
1.58803
1.3319
1.09201
0.870746
0.670419
0.491959
0.334484
0.195742
0.0725825
-0.0384703
-0.14068
-0.236716
-0.328463
-0.417001
-0.502686
-0.585222
-0.663661
-0.736241
-0.80043
-0.85379
-0.894155
-0.920274
-0.932425
-0.931441
-0.92143
-0.908983
-0.900973
-0.90303
-0.918401
-0.947528
-0.988412
-1.03753
-1.09089
-1.14483
-1.19681
-1.24508
-1.28791
-1.32361
-1.35059
-1.36747
-1.3733
-1.36788
-1.35192
-1.32706
-1.29566
-1.26044
-1.22399
-1.18831
-1.15462
-1.1233
-1.09408
-1.06622
-1.03881
-1.01111
-0.982705
-0.953701
-0.924711
-0.896869
-0.87162
-0.850221
-0.833353
-0.82079
-0.811301
-0.802873
-0.793211
-0.780407
-0.76356
-0.743244
-0.721173
-0.69987
-0.682053
-0.669892
-0.664391
-0.66504
-0.669832
-0.67565
-0.678947
-0.67633
-0.663652
-0.638937
-0.609211
-0.586752
-0.583937
-0.608063
-0.657557
-0.721259
-0.781234
-0.81808
-0.816627
-0.779342
-0.715771
-0.63151
-0.530074
-0.415673
-0.292842
-0.165666
-0.0384417
0.0830133
0.191394
0.280202
0.343637
0.377641
0.380952
0.35575
0.307651
0.245003
0.177591
0.114925
0.0632771
0.0250492
0
-0.0136356
-0.0194153
-0.0210812
-0.0224133
0.0450035
0.639056
2.22758
5.02125
8.7122
12.435
15.0401
15.5775
13.7477
10.0651
5.63399
1.6557
-1.05686
-2.30658
-2.40816
-1.8774
-1.17283
-0.517069
0.0022747
0.277217
0.270892
0.226493
0.167247
0.097636
0.0233189
-0.0501751
-0.118448
-0.179813
-0.233667
-0.278346
-0.311974
-0.332455
-0.337674
-0.325875
-0.296075
-0.248384
-0.184146
-0.105833
-0.0169773
0.0787033
0.178108
0.278955
0.380127
0.481877
0.585798
0.694556
0.811419
0.939653
1.08191
1.23968
1.41296
1.60016
1.79836
2.00378
2.21247
2.42108
2.62738
2.83064
3.03156
3.23194
3.43425
3.64267
3.86228
4.08545
4.28732
4.43827
4.51488
4.50743
4.42034
4.26632
4.05918
3.81103
3.53895
3.26096
2.98748
2.72468
2.47672
2.24683
2.03843
1.85396
1.69478
1.56148
1.45478
1.37436
1.31675
1.2767
1.24832
1.22584
1.20444
1.18081
1.15342
1.12247
1.0894
1.05639
1.02559
0.998709
0.976871
0.960637
0.950347
0.946369
0.949281
0.960024
0.979913
1.01046
1.05322
1.11081
1.18696
1.28284
1.39001
1.49244
1.57316
1.61888
1.6235
1.58979
1.52878
1.45711
1.39297
1.35003
1.33071
1.33068
1.34714
1.37472
1.4061
1.43388
1.45204
1.45698
1.44788
1.42636
1.39565
1.35947
1.32121
1.28286
1.24516
1.20813
1.17152
1.13519
1.09947
1.06535
1.03441
1.00853
0.989471
0.978391
0.975898
0.981894
0.995377
1.015
1.0398
1.06974
1.1059
1.15041
1.20694
1.28348
1.38975
1.52208
1.65896
1.77347
1.84233
1.85294
1.80573
1.71152
1.58596
1.4439
1.29716
1.15214
1.01104
0.874696
0.743554
0.617615
0.496162
0.377895
0.260831
0.14255
0
-0.0663471
0.431794
1.9505
4.70829
8.45241
12.4046
15.4699
16.6626
15.5493
12.4679
8.38408
4.45813
1.56447
0.0191511
-0.37936
-0.0903959
0.28968
0.641939
0.943031
1.17856
1.34481
1.44796
1.5013
1.52149
1.52484
1.52447
1.52742
1.53494
1.54601
1.55892
1.57171
1.58232
1.58881
1.5897
1.58422
1.57255
1.55585
1.53619
1.51647
1.50018
1.49113
1.49318
1.50988
1.54407
1.59798
1.67501
1.7789
1.90503
2.04105
2.17393
2.29386
2.39742
2.48847
2.57635
2.67185
2.78256
2.90757
3.04208
3.17475
3.29096
3.37587
3.41708
3.40643
3.34052
3.22024
3.04955
2.8366
2.59227
2.32608
2.04377
1.74907
1.44593
1.13851
0.831128
0.528084
0.233452
-0.0490349
-0.316008
-0.564366
-0.791155
-0.993515
-1.16879
-1.31483
-1.43042
-1.51547
-1.57135
-1.6019
-1.61242
-1.60907
-1.59806
-1.58484
-1.5735
-1.56655
-1.56488
-1.56812
-1.57506
-1.5843
-1.59462
-1.60524
-1.61587
-1.62667
-1.6379
-1.64954
-1.66093
-1.67047
-1.67565
-1.67325
-1.65995
-1.63288
-1.59009
-1.53096
-1.45711
-1.37423
-1.29113
-1.21655
-1.15712
-1.11578
-1.09127
-1.07871
-1.0713
-1.06236
-1.04765
-1.02637
-0.998808
-0.966591
-0.93191
-0.896772
-0.862465
-0.829397
-0.797175
-0.764877
-0.731396
-0.695491
-0.65587
-0.611212
-0.560138
-0.501201
-0.432899
-0.353737
-0.262343
-0.157347
-0.0367355
0.10262
0.262883
0.438734
0.613242
0.764133
0.868423
0.90695
0.868636
0.753659
0.57444
0.353548
0.118442
-0.107352
-0.31557
-0.502911
-0.658626
-0.775632
-0.854916
-0.899245
-0.912802
-0.90136
-0.872382
-0.834552
-0.790291
-0.661943
0
1.6357
4.39782
7.95551
11.4732
13.8759
14.3032
12.5249
9.0761
5.01751
1.44895
-0.944884
-2.07444
-2.30287
-2.23683
-2.17564
-2.11942
-2.06869
-2.02299
-1.98113
-1.94153
-1.90269
-1.86354
-1.82346
-1.78223
-1.73991
-1.69667
-1.65266
-1.60798
-1.56266
-1.51673
-1.47017
-1.42284
-1.3744
-1.32422
-1.2713
-1.21427
-1.15144
-1.08083
-1.00036
-0.90793
-0.801537
-0.679456
-0.54045
-0.383885
-0.209825
-0.0190109
0.187253
0.407291
0.639244
0.881192
1.13115
1.38695
1.64596
1.90489
2.1597
2.40513
2.63421
2.84084
3.02065
3.17154
3.29409
3.39118
3.46696
3.52522
3.5646
3.57892
3.55783
3.48656
3.35101
3.14373
2.86866
2.54274
2.19332
1.8522
1.5421
1.27278
1.05996
0.904007
0.7938
0.713377
0.646817
0.582372
0.514827
0.445781
0.382066
0.333017
0.305078
0.301451
0.333762
0.407771
0.509343
0.613623
0.696246
0.739371
0.734988
0.685181
0.600043
0.4944
0.384212
0.282341
0.19418
0.120125
0.0589355
0.00931244
-0.0297775
-0.0595337
-0.0814484
-0.0971237
-0.108127
-0.115866
-0.121523
-0.126012
-0.129977
-0.133815
-0.137721
-0.141742
-0.145848
-0.149974
-0.154074
-0.158128
-0.162146
-0.166158
-0.170175
-0.174184
-0.178134
-0.181924
-0.185413
-0.188412
-0.190698
-0.191983
-0.191901
-0.189986
-0.185666
-0.178304
-0.167274
-0.152084
-0.132553
-0.108939
-0.0820175
-0.0530853
-0.0239532
0.0033432
0.0268112
0.0447617
0.0559891
0.0598053
0.0559998
0.0446945
0.02621
0.00102234
-0.0304367
-0.0678116
-0.110728
-0.158841
-0.211842
-0.26888
-0.328764
-0.390356
-0.417255
0
1.22616
3.42889
6.31504
9.15421
11.0612
11.403
10.0899
7.59287
4.70228
2.18319
0.508209
-0.227255
-0.222144
0.125453
0.331987
0.514508
0.667827
0.793147
0.902721
1.00123
1.09335
1.18267
1.27107
1.35865
1.4442
1.52566
1.60046
1.66574
1.71864
1.75711
1.78047
1.78928
1.78559
1.77313
1.75717
1.74397
1.73985
1.75005
1.77716
1.82026
1.87692
1.94451
2.01982
2.09974
2.182
2.26548
2.35021
2.43717
2.52772
2.62315
2.72415
2.83049
2.94086
3.05294
3.16352
3.26822
3.36151
3.4385
3.49496
3.52769
3.53466
3.51485
3.46775
3.39292
3.28963
3.15751
2.99881
2.81604
2.61195
2.39116
2.16049
1.92856
1.70481
1.49917
1.32658
1.2094
1.15083
1.1225
1.0861
1.00556
0.858266
0.641713
0.373746
0.0867233
-0.182437
-0.412407
-0.607307
-0.763339
-0.878098
-0.951827
-0.986403
-0.984415
-0.948712
-0.884139
-0.796167
-0.689522
-0.56814
-0.441484
-0.322073
-0.221741
-0.149385
-0.109358
-0.100974
-0.119222
-0.156364
-0.203874
-0.254068
-0.301804
-0.344574
-0.381409
-0.412044
-0.436527
-0.455037
-0.467651
-0.474203
-0.474214
-0.466917
-0.451315
-0.426268
-0.390627
-0.343353
-0.283667
-0.211183
-0.126012
-0.0288208
0.0791748
0.196298
0.320609
0.450119
0.583083
0.718242
0.855042
0.993903
1.13707
1.28861
1.44391
1.58014
1.66372
1.66253
1.55812
1.35262
1.06977
0.751674
0.451155
0.206483
0.0129334
-0.141219
-0.255098
-0.331438
-0.375409
-0.393312
-0.391537
-0.377357
-0.356383
-0.332434
-0.308652
-0.32592
0
1.10378
3.32487
6.49883
9.97462
12.8218
14.1972
13.6907
11.4835
8.25538
4.89665
2.16111
0.420377
-0.384343
-0.597299
-0.652238
-0.717354
-0.773483
-0.810262
-0.819673
-0.798358
-0.747364
-0.672141
-0.580943
-0.482961
-0.386156
-0.294618
-0.211243
-0.138725
-0.0791122
-0.0333031
-0.000956726
0.0196037
0.0312653
0.0377136
0.0427711
0.0496727
0.0604561
0.0756973
0.0950577
0.117266
0.141401
0.167913
0.199216
0.239592
0.294437
0.369019
0.467158
0.590226
0.73552
0.898837
1.0751
1.25867
1.44424
1.62745
1.80531
1.97621
2.13973
2.29621
2.44494
2.58236
2.70074
2.79006
2.83503
2.82077
2.73948
2.59425
2.39826
2.17054
1.93105
1.6968
1.47467
1.26428
1.06367
0.870382
0.681267
0.492795
0.302165
0.10835
-0.0873016
-0.280462
-0.464367
-0.631712
-0.776646
-0.896458
-0.992463
-1.06985
-1.1365
-1.20159
-1.27363
-1.35891
-1.46062
-1.57866
-1.71011
-1.85008
-1.99276
-2.13252
-2.265
-2.38734
-2.49804
-2.59631
-2.68155
-2.75315
-2.81042
-2.85245
-2.87785
-2.88455
-2.86985
-2.83046
-2.763
-2.66461
-2.53394
-2.37201
-2.18279
-1.97322
-1.7526
-1.53115
-1.31853
-1.12237
-0.947134
-0.793786
-0.660036
-0.54121
-0.431366
-0.324377
-0.214772
-0.0982146
0.028355
0.166787
0.317887
0.481664
0.660154
0.858078
1.07721
1.29867
1.48572
1.60311
1.62334
1.53243
1.33564
1.05987
0.750022
0.460409
0.243281
0.0992661
0
-0.109234
-0.192308
-0.262689
-0.334854
-0.419843
-0.521827
-0.637432
-1.08535
-1.12178
-0.270168
1.69362
4.58593
7.78952
10.4127
11.5989
10.8725
8.36644
4.80297
1.20883
-1.50933
-2.91155
-3.11737
-2.62544
-2.23028
-1.93045
-1.77036
-1.7317
-1.71251
-1.69685
-1.67869
-1.65321
-1.61718
-1.569
-1.50869
-1.43777
-1.35895
-1.27598
-1.19394
-1.12
-1.06408
-1.03508
-1.03844
-1.07627
-1.14654
-1.24287
-1.35549
-1.47367
-1.58871
-1.69651
-1.79856
-1.89879
-2.00102
-2.10579
-2.20874
-2.30113
-2.37248
-2.41379
-2.42307
-2.40747
-2.36921
-2.31024
-2.23302
-2.14018
-2.03326
-1.91362
-1.78258
-1.64078
-1.48749
-1.31916
-1.12981
-0.91833
-0.712303
-0.573254
-0.574052
-0.753516
-1.0815
-1.46352
-1.78817
-1.9921
-2.13348
-2.26891
-2.41068
-2.56675
-2.76229
-3.05874
-3.46202
-3.88094
-4.22095
-4.4088
-4.421
-4.29615
-4.11197
-3.93721
-3.79545
-3.67006
-3.55303
-3.44305
-3.34105
-3.24945
-3.17201
-3.11437
-3.08291
-3.07977
-3.10613
-3.16127
-3.24119
-3.3374
-3.43663
-3.52214
-3.57625
-3.58506
-3.55018
-3.47677
-3.36584
-3.22176
-3.05174
-2.86519
-2.6715
-2.47889
-2.29394
-2.12102
-1.96224
-1.8178
-1.68661
-1.56705
-1.4576
-1.35748
-1.26735
-1.18964
-1.12654
-1.07826
-1.04291
-1.01547
-0.987585
-0.948651
-0.888116
-0.798493
-0.678056
-0.534854
-0.377933
-0.221877
-0.0821304
0.0286087
0.102899
0.13961
0.143457
0.123338
0.0901428
0.0546005
0.0250885
0.0062088
0
0.00527344
0.0233505
0.0529694
0.0922363
0.138914
0.190723
0.245538
0.303357
0.401579
0.884355
2.00891
3.77554
5.86795
7.80819
9.17899
9.72068
9.29407
7.86256
5.58844
2.93071
0.55177
-0.982738
-1.4897
-1.19097
-0.627357
-0.134265
0.188719
0.286069
0.292932
0.280264
0.257521
0.228778
0.197984
0.168599
0.143031
0.122513
0.107249
0.0965088
0.0884262
0.0805954
0.0705582
0.0562759
0.0364868
0.0108124
-0.020282
-0.0557037
-0.0939117
-0.133119
-0.17149
-0.207037
-0.237344
-0.259676
-0.271426
-0.270316
-0.254819
-0.224588
-0.180713
-0.125702
-0.0631729
0.00272522
0.0680283
0.129849
0.186513
0.237878
0.285335
0.331494
0.379617
0.433926
0.500453
0.580406
0.663564
0.733815
0.774049
0.77101
0.717989
0.615036
0.46768
0.285574
0.0831451
-0.125203
-0.330522
-0.527222
-0.711946
-0.881323
-1.02824
-1.14475
-1.2273
-1.27227
-1.27732
-1.24323
-1.1753
-1.0834
-0.980591
-0.880643
-0.794308
-0.728941
-0.689322
-0.676946
-0.690158
-0.724397
-0.772589
-0.825789
-0.874243
-0.908768
-0.92357
-0.917517
-0.891147
-0.845447
-0.782893
-0.706848
-0.620967
-0.529099
-0.434499
-0.340047
-0.248988
-0.164764
-0.0903809
-0.028125
0.0209991
0.0576492
0.0841705
0.104239
0.122189
0.142218
0.167322
0.198862
0.237228
0.281912
0.330641
0.377625
0.413391
0.426721
0.406201
0.342212
0.22886
0.065332
-0.143723
-0.388901
-0.657698
-0.935521
-1.21207
-1.48129
-1.73902
-1.98313
-2.21186
-2.41852
-2.5904
-2.85098
-3.27783
-3.76386
-4.13528
-4.23426
-3.99969
-3.48768
-2.82489
-2.13941
-1.55567
-1.16453
-0.843423
-0.54617
-0.266205
0
0.256955
0.411707
1.02536
2.34528
4.29657
6.44574
8.25464
9.40697
9.88223
9.73706
8.90557
7.30334
5.12263
2.93508
1.40562
0.857449
1.10367
1.43978
1.72532
1.92572
2.03149
2.08728
2.12415
2.14856
2.16632
2.18214
2.19954
2.22117
2.24905
2.28469
2.32895
2.38181
2.44209
2.50757
2.57479
2.63994
2.69961
2.75149
2.79477
2.83006
2.85896
2.88345
2.90543
2.92626
2.94674
2.96739
2.98873
3.01157
3.03711
3.06697
3.10302
3.14699
3.20013
3.2628
3.33419
3.4124
3.4946
3.57647
3.65329
3.72083
3.77596
3.81691
3.84301
3.85421
3.85046
3.83126
3.7959
3.74317
3.6722
3.58286
3.47596
3.35304
3.21597
3.06652
2.90694
2.73869
2.56315
2.38248
2.1998
2.02138
1.85533
1.70989
1.5919
1.50544
1.45133
1.42749
1.42974
1.45294
1.49111
1.53873
1.59203
1.64825
1.70515
1.76096
1.8143
1.86409
1.90942
1.94966
1.98445
2.01376
2.03802
2.05806
2.07517
2.09093
2.10709
2.12537
2.14721
2.17361
2.20499
2.24121
2.28166
2.32562
2.37243
2.4218
2.47406
2.53017
2.59156
2.65987
2.73644
2.82193
2.91609
3.01754
3.12402
3.23277
3.34084
3.44542
3.54408
3.63525
3.71827
3.79348
3.86211
3.92612
3.98794
4.05021
4.11547
4.18589
4.26306
4.34801
4.44101
4.54153
4.64812
4.75848
4.86958
4.97782
5.07926
5.1698
5.24543
5.30278
5.33959
5.35442
5.34685
5.3176
5.26872
5.2029
5.12284
5.03652
4.95619
4.89397
4.85952
4.85839
4.8912
4.95419
5.04061
5.14252
5.26375
5.64047
6.4533
7.57519
8.64504
9.31479
9.52568
9.51137
9.49784
9.41054
8.92219
7.82089
6.3195
4.97509
4.29052
4.51356
4.82279
5.1576
5.41643
5.56151
5.62931
5.68164
5.72979
5.77663
5.82381
5.87261
5.92392
5.97834
6.03616
6.09737
6.16162
6.2282
6.296
6.36359
6.4292
6.49096
6.54716
6.59645
6.63816
6.67236
6.69995
6.72243
6.74169
6.75969
6.77824
6.79908
6.82367
6.85352
6.89044
6.93668
6.99474
7.06685
7.15428
7.25663
7.37125
7.49387
7.61809
7.73576
7.83838
7.91849
7.97033
7.98992
7.97499
7.92467
7.8394
7.72082
7.57173
7.3959
7.19828
6.98429
6.75882
6.52543
6.28626
6.04279
5.79623
5.54804
5.30038
5.05635
4.82007
4.59631
4.3899
4.20511
4.04495
3.91062
3.8015
3.71543
3.64922
3.59921
3.56189
3.53429
3.51418
3.50017
3.49152
3.48779
3.48864
3.4935
3.49953
3.50085
3.49072
3.46368
3.41797
3.35678
3.28798
3.22197
3.16867
3.13356
3.11628
3.1161
3.13051
3.15657
3.19172
3.23439
3.28487
3.34629
3.42701
3.54364
3.70315
3.87456
4.01376
4.07882
4.04608
3.92106
3.74037
3.56333
3.45423
3.44937
3.5119
3.60646
3.71805
3.83874
3.96155
4.08171
4.19711
4.30811
4.41653
4.52432
4.6323
4.7394
4.84225
4.93641
5.01824
5.08651
5.1433
5.19378
5.24486
5.30339
5.37448
5.45932
5.55661
5.66484
5.78288
5.91003
6.04633
6.19233
6.35005
6.52472
6.71449
6.90013
7.05663
7.16178
7.20386
7.18507
7.11979
7.02904
6.93416
6.8515
6.78493
6.73222
6.69136
6.66119
6.6414
6.6315
6.63189
6.64456
6.67284
6.72124
6.79455
6.90615
7.09307
7.35637
7.64493
7.90282
8.09259
8.20343
8.24177
8.21405
8.11528
7.93113
7.6301
7.13192
6.56628
6.10567
5.87538
5.89966
6.11409
6.41998
6.72628
6.95373
7.08987
7.17784
7.22988
7.25006
7.24714
7.23338
7.22246
7.22702
7.25272
7.29978
7.36613
7.44807
7.5405
7.63737
7.73218
7.819
7.89325
7.95213
7.99471
8.02181
8.03555
8.0389
8.03525
8.02791
8.01978
8.01317
8.00959
8.00973
8.01354
8.02037
8.02917
8.03876
8.04798
8.05595
8.06209
8.06617
8.0682
8.06838
8.06698
8.06421
8.06015
8.05464
8.04717
8.03681
8.02212
8.00106
7.97102
7.929
7.87186
7.79678
7.70187
7.58674
7.45289
7.30394
7.14533
6.98371
6.82591
6.67804
6.54465
6.42782
6.32647
6.23701
6.15453
6.07397
5.99122
5.9039
5.81153
5.71532
5.61763
5.52127
5.42879
5.34238
5.26367
5.19366
5.13262
5.08065
5.03719
4.99896
4.96097
4.91794
4.86555
4.80158
4.72638
4.64267
4.55451
4.46609
4.38028
4.29819
4.22028
4.14638
4.07579
4.00762
3.94093
3.87495
3.80916
3.74347
3.67825
3.61447
3.55353
3.49709
3.44681
3.40414
3.36967
3.3425
3.3206
3.30122
3.28147
3.25889
3.23204
3.20079
3.16639
3.13125
3.09839
3.07076
3.05078
3.03974
3.03811
3.04413
3.05428
3.0642
3.06952
3.06658
3.053
3.02781
2.99151
2.94579
2.89345
2.83743
2.7802
2.72344
2.66788
2.61287
2.5563
2.4952
2.42672
2.3493
2.26353
2.17272
2.08266
2.00088
1.93629
1.91054
1.96439
2.11168
2.29894
2.46271
2.55232
2.54344
2.4399
2.26459
2.04457
1.79916
1.54109
1.28273
1.03134
0.796643
0.588042
0.413069
0.275256
0.172978
0.0997147
0.0456802
0
-0.0432724
0.0414902
0.719002
2.20185
4.25523
6.29317
7.76324
8.43053
8.305
7.40149
5.70283
3.39066
1.00778
-0.753279
-1.49762
-1.36409
-1.005
-0.693355
-0.459718
-0.305418
-0.194742
-0.0943115
0.0034668
0.101613
0.201375
0.301654
0.399046
0.488525
0.564415
0.622238
0.659395
0.675797
0.674088
0.659422
0.638725
0.61949
0.608414
0.610069
0.625137
0.652141
0.690009
0.73743
0.793526
0.85818
0.931928
1.0154
1.10859
1.21022
1.31782
1.42692
1.53198
1.62804
1.71207
1.78365
1.84507
1.9004
1.95431
2.01062
2.07113
2.13539
2.20135
2.26553
2.3235
2.36993
2.39963
2.40836
2.39286
2.35103
2.28224
2.18746
2.06913
1.93091
1.7772
1.61323
1.4438
1.27221
1.10099
0.932025
0.766684
0.605916
0.450545
0.301604
0.160643
0.0299103
-0.0875504
-0.188741
-0.270552
-0.326967
-0.35509
-0.361093
-0.353967
-0.342921
-0.334892
-0.333214
-0.337923
-0.347377
-0.360133
-0.375911
-0.395123
-0.418962
-0.448206
-0.482713
-0.521289
-0.561893
-0.602084
-0.63963
-0.672832
-0.700072
-0.719878
-0.73091
-0.732001
-0.72224
-0.701088
-0.668242
-0.623714
-0.570596
-0.518893
-0.480962
-0.467813
-0.485594
-0.533195
-0.602119
-0.678838
-0.748668
-0.79949
-0.830045
-0.843298
-0.838515
-0.815475
-0.770963
-0.698213
-0.592787
-0.465446
-0.339856
-0.241664
-0.190756
-0.194891
-0.247014
-0.326801
-0.406281
-0.458505
-0.471388
-0.453651
-0.418134
-0.37222
-0.321684
-0.270882
-0.221713
-0.173438
-0.123402
-0.0684036
-0.00618744
0.0632126
0.137961
0.212747
0.28036
0.333679
0.367291
0.378589
0.36812
0.339273
0.297392
0.248659
0.198952
0.152475
0.111295
0.0759781
0.0462463
0.0213242
0
-0.0186951
-0.0365707
-0.128085
-0.0362061
0.606628
2.06433
4.25813
6.71215
8.73457
9.69469
9.23438
7.37525
4.54565
1.49789
-0.941141
-2.2242
-2.32504
-1.66633
-0.840179
-0.186494
0.203418
0.375844
0.472893
0.556262
0.631248
0.697276
0.754298
0.803009
0.844711
0.881116
0.914151
0.945781
0.977867
1.01205
1.0496
1.09129
1.13763
1.18808
1.23944
1.28678
1.32559
1.35374
1.37285
1.3884
1.40828
1.44021
1.48922
1.55433
1.63046
1.71328
1.79938
1.88593
1.97113
2.05434
2.13605
2.21747
2.30006
2.38507
2.47313
2.56409
2.65697
2.74994
2.84056
2.92606
3.00365
3.07002
3.12056
3.14993
3.15398
3.12874
3.07127
2.98082
2.85977
2.71404
2.55238
2.38503
2.22169
2.06822
1.92763
1.80194
1.69159
1.59589
1.51365
1.44361
1.38468
1.33595
1.29692
1.26695
1.24475
1.22908
1.21909
1.21458
1.21601
1.22416
1.23994
1.26453
1.29506
1.32527
1.34785
1.35671
1.34902
1.32598
1.29205
1.25312
1.21445
1.17884
1.14669
1.11779
1.09199
1.06936
1.05044
1.03629
1.02846
1.02849
1.03748
1.05572
1.08229
1.11561
1.15228
1.18816
1.21921
1.24223
1.2553
1.25788
1.25062
1.23486
1.21225
1.18474
1.15401
1.12146
1.0885
1.05658
1.02712
1.00134
0.980125
0.96391
0.95266
0.94601
0.943456
0.944502
0.948726
0.955753
0.965154
0.976399
0.988747
1.0014
1.01369
1.02534
1.03658
1.04812
1.06094
1.07583
1.09296
1.11148
1.12873
1.13994
1.13913
1.12013
1.07791
1.00977
0.916158
0.800769
0.670113
0.532497
0.396776
0.271585
0.165359
0.083464
0.0287491
0.00157928
0
0.0336914
0.0833389
0.178172
0.402213
0.893723
1.9022
3.56642
5.74557
7.96725
9.5551
9.90349
8.76406
6.38747
3.43624
0.710667
-1.17272
-1.98923
-1.91031
-1.3359
-0.780499
-0.319083
0.00317078
0.203117
0.366417
0.486739
0.554509
0.562894
0.512325
0.413777
0.288734
0.165146
0.070311
0.013858
-0.0122253
-0.0159019
0.000117493
0.0315208
0.0733536
0.121001
0.170896
0.220984
0.270473
0.319307
0.367554
0.414708
0.459139
0.498225
0.528915
0.548768
0.556947
0.554827
0.545975
0.535506
0.529076
0.531532
0.54515
0.571159
0.610113
0.661449
0.723656
0.794395
0.871139
0.950154
1.02568
1.09074
1.13802
1.16065
1.15304
1.11159
1.03496
0.923982
0.781329
0.611167
0.421196
0.219328
0.0120583
-0.194758
-0.395239
-0.583981
-0.756603
-0.909962
-1.04303
-1.15725
-1.2556
-1.34172
-1.41898
-1.48965
-1.55446
-1.61255
-1.66179
-1.69953
-1.7227
-1.72914
-1.71776
-1.68895
-1.64467
-1.58693
-1.52034
-1.45169
-1.38755
-1.33315
-1.29156
-1.26343
-1.24734
-1.24061
-1.24024
-1.2434
-1.24776
-1.25161
-1.25314
-1.25013
-1.24029
-1.22153
-1.19255
-1.15326
-1.10508
-1.05062
-0.993163
-0.935796
-0.880645
-0.828452
-0.779
-0.731305
-0.68411
-0.63643
-0.58793
-0.539292
-0.492156
-0.448556
-0.410225
-0.377886
-0.35078
-0.326533
-0.30146
-0.271235
-0.231787
-0.180656
-0.117101
-0.040583
0.0460724
0.136331
0.22207
0.29585
0.352574
0.390603
0.412106
0.422585
0.429647
0.441338
0.464169
0.501018
0.551049
0.611414
0.679101
0.749992
0.818997
0.879744
0.925042
0.948692
0.945602
0.912696
0.849874
0.760719
0.652515
0.535344
0.420331
0.316865
0.231169
0.165823
0.119373
0.0871468
0.0627068
0.0395256
0
-0.0600487
0.410321
1.74243
3.99737
6.83846
9.57127
11.3704
11.6037
10.109
7.28279
3.92813
0.934111
-1.05616
-1.83431
-1.60891
-0.823935
-0.0230453
0.55437
0.760051
0.761628
0.758369
0.75928
0.768573
0.787663
0.814823
0.847104
0.881033
0.913865
0.944544
0.974033
1.00493
1.04058
1.08386
1.1361
1.19641
1.26265
1.33251
1.40358
1.47353
1.54031
1.60217
1.6578
1.70641
1.74768
1.78194
1.8103
1.83477
1.85816
1.88371
1.91465
1.95347
2.00126
2.05774
2.12162
2.19031
2.2598
2.32548
2.38297
2.42868
2.46006
2.4756
2.4745
2.45628
2.42042
2.36652
2.2947
2.20515
2.09803
1.97386
1.83377
1.67949
1.51305
1.33664
1.15244
0.962654
0.76974
0.576622
0.386862
0.204617
0.0343342
-0.119774
-0.254176
-0.3663
-0.455527
-0.523603
-0.573632
-0.609299
-0.634057
-0.650535
-0.660315
-0.664132
-0.662386
-0.655469
-0.644562
-0.632488
-0.622831
-0.618998
-0.623176
-0.63555
-0.654105
-0.675079
-0.693943
-0.706556
-0.71092
-0.706438
-0.693294
-0.672533
-0.645552
-0.613652
-0.5778
-0.538641
-0.49671
-0.452702
-0.407756
-0.363485
-0.321831
-0.284777
-0.254015
-0.230671
-0.21515
-0.207139
-0.205727
-0.209513
-0.21708
-0.227049
-0.238151
-0.249201
-0.25902
-0.266259
-0.26929
-0.266229
-0.255125
-0.234106
-0.201438
-0.155575
-0.0960098
-0.0269596
0.0407318
0.0954449
0.128436
0.13716
0.126917
0.109834
0.101285
0.115047
0.15898
0.226796
0.310656
0.406963
0.512656
0.625421
0.743848
0.86598
0.987281
1.09961
1.19216
1.25345
1.27421
1.25
1.18267
1.0805
0.956863
0.827529
0.706355
0.599827
0.507665
0.42733
0.356816
0.293536
0.234598
0.177351
0.119738
0.0608452
0
0.0153717
0.344328
1.19279
2.70758
4.85145
7.31136
9.51616
10.796
10.6457
8.97441
6.19905
3.10493
0.523435
-1.00876
-1.42512
-1.05202
-0.423119
0.116194
0.459077
0.582158
0.634828
0.674947
0.710254
0.742717
0.773816
0.804905
0.837171
0.871617
0.909015
0.949851
0.994259
1.04197
1.09227
1.14409
1.19597
1.24621
1.29331
1.33624
1.37477
1.40951
1.44185
1.47352
1.50612
1.54067
1.57737
1.61518
1.65253
1.68816
1.72195
1.75534
1.79117
1.83292
1.88365
1.94504
2.01586
2.09358
2.17545
2.25836
2.33907
2.41438
2.48096
2.53507
2.57266
2.58967
2.58193
2.54571
2.47839
2.37918
2.24952
2.09308
1.91531
1.72276
1.5221
1.31863
1.11626
0.917846
0.725445
0.540778
0.365643
0.202154
0.0527184
-0.0802164
-0.194554
-0.288943
-0.363064
-0.417602
-0.454068
-0.475116
-0.484254
-0.485213
-0.481616
-0.476735
-0.473331
-0.473557
-0.478874
-0.489969
-0.506581
-0.527635
-0.551305
-0.575151
-0.596477
-0.612727
-0.621834
-0.622424
-0.613859
-0.596138
-0.569772
-0.535761
-0.495172
-0.449459
-0.401131
-0.353669
-0.310666
-0.275103
-0.248656
-0.231275
-0.22122
-0.215583
-0.211119
-0.20511
-0.196196
-0.184388
-0.170413
-0.155412
-0.140739
-0.127671
-0.117204
-0.109929
-0.105947
-0.104788
-0.105478
-0.106488
-0.105817
-0.101356
-0.0912687
-0.0743464
-0.0502208
-0.0193366
0.0173218
0.0586773
0.103983
0.153104
0.206776
0.266237
0.332758
0.407495
0.491796
0.583709
0.675895
0.758832
0.823081
0.861502
0.870691
0.851314
0.807456
0.745459
0.672699
0.596912
0.523384
0.455281
0.394271
0.341001
0.294861
0.253118
0.212168
0.168492
0.119635
0.0648905
0
-0.110445
0.201669
1.17739
2.91125
5.23546
7.67614
9.54856
10.2038
9.32559
7.11115
4.20689
1.41901
-0.633057
-1.72028
-1.97589
-1.67073
-1.197
-0.669015
-0.187753
0.154055
0.327101
0.432004
0.507678
0.552311
0.568424
0.562945
0.546116
0.529346
0.522572
0.531652
0.555687
0.590471
0.632369
0.678687
0.727126
0.776099
0.824864
0.873413
0.922232
0.972036
1.02356
1.07752
1.13454
1.19529
1.26037
1.33033
1.40552
1.48591
1.57095
1.65962
1.75047
1.84189
1.93243
2.02103
2.10727
2.19138
2.27416
2.35677
2.44037
2.52587
2.61348
2.70088
2.78051
2.84089
2.86902
2.85403
2.7907
2.6814
2.53554
2.36641
2.18699
2.00672
1.82934
1.65585
1.48744
1.32545
1.17129
1.02655
0.893281
0.771781
0.660832
0.558649
0.463809
0.376102
0.296883
0.228646
0.174266
0.139141
0.122132
0.117397
0.117444
0.116318
0.112252
0.108482
0.111875
0.129995
0.167905
0.222512
0.288046
0.360073
0.432759
0.499692
0.554325
0.590869
0.605518
0.596406
0.563898
0.510815
0.442479
0.366424
0.291664
0.227536
0.181665
0.163611
0.191539
0.27007
0.371555
0.461584
0.51132
0.507602
0.456985
0.381924
0.310464
0.264113
0.246796
0.245924
0.254924
0.270536
0.291682
0.319689
0.357219
0.406429
0.467196
0.536664
0.608332
0.674536
0.728961
0.768807
0.795737
0.815263
0.83479
0.861042
0.897708
0.943738
0.995492
1.04691
1.09087
1.12014
1.12899
1.11373
1.07311
1.00851
0.924047
0.826308
0.723734
0.62553
0.540295
0.47168
0.420108
0.388771
0.382259
0.394088
0.408717
0.410284
0.388026
0.340286
0.275062
-0.0995477
0
0.965775
2.94811
5.73149
8.72204
11.1058
12.1411
11.4675
9.27173
6.2088
3.11662
0.678004
-0.786543
-1.31724
-1.15686
-0.6037
-0.0244112
0.46051
0.691014
0.712083
0.705878
0.700778
0.725109
0.84887
1.06822
1.30809
1.47655
1.50903
1.39394
1.1728
0.920879
0.72041
0.635687
0.633926
0.671352
0.730331
0.804612
0.890134
0.982627
1.07798
1.17269
1.26411
1.35066
1.43186
1.50829
1.58138
1.65321
1.72616
1.80262
1.88473
1.97406
2.07143
2.17672
2.28884
2.40585
2.52494
2.64247
2.75396
2.8539
2.93597
2.99508
3.027
3.02852
2.99789
2.93519
2.84251
2.72375
2.58421
2.42985
2.26746
2.10231
1.93792
1.77689
1.62121
1.47223
1.33078
1.19726
1.07179
0.954378
0.845142
0.744407
0.652795
0.571261
0.500703
0.441974
0.396353
0.363536
0.342045
0.329951
0.325351
0.326751
0.333198
0.344082
0.358754
0.376146
0.39456
0.411837
0.425808
0.434904
0.43873
0.43844
0.436807
0.437973
0.446802
0.471024
0.529971
0.657092
0.85571
1.07291
1.24691
1.32775
1.29139
1.14625
0.931969
0.709471
0.541612
0.454393
0.41654
0.40204
0.400226
0.407116
0.419782
0.435774
0.453116
0.470112
0.485157
0.496576
0.502484
0.500932
0.490497
0.470619
0.442099
0.406084
0.367996
0.336846
0.322441
0.333108
0.373623
0.444114
0.54026
0.654654
0.778718
0.904266
1.02593
1.13867
1.23634
1.31272
1.36265
1.38138
1.36581
1.31597
1.23618
1.13514
1.02474
0.917838
0.8247
0.748954
0.692358
0.654793
0.633917
134
338
539
740
928
1101
1267
1427
1585
1739
1892
2048
2571
2743
2915
3086
3260
3429
3596
3370
3549
3718
3369
3526
3675
3160
3345
3508
3716
3130
3255
3381
3509
3559
3634
0
0
0
0
0
0
0
0
0
0
0
0
0
0
0
0
0
0
0
0
0
0
0
0
0
0
0
0
0
0
0
0
0
0
0
0
0
0
0
0
0
0
0
0
0
0
0
0
0
0
0
0
0
0
0
0
0
0
0
0
0
0
0
0
0
0
0
0
0
0
0
0
0
0
0
0
0
0
0
0
0
0
0
0
0
0
0
0
0
0
0
0
0
0
0
0
0
0
0
0
0
0
0
0
0
0
0
0
0
0
0
0
0
0
0
0
0
0
0
0
0
0
0
0
0
0
0
0
0
0
0
0
0
0
0
0
0
0
0
0
0
0
0
0
0
0
0
0
0
0
0
0
0
0
0
0
0
0
0
0
0
0
0
0
0
0
0
0
0
0
0
0
0
0
0
0
0
0
0
0
0
0
0
0
0
0
0
0
0
0
0
0
0
0
0
0
0
0
0
0
0
0
0
0
0
0
0
0
0
0
0
0
0
0
0
0
0
0
0
0
0
0
0
0
0
0
0
0
0
0
0
0
0
0
0
0
0
0
0
0
0
0
0
0
0
0
0
0
0
0
0
0
0
0
0
0
0
0
0
0
0
0
0
0
0
0
0
0
0
0
0
0
0
0
0
0
0
0
0
0
0
0
0
0
0
0
0
0
0
0
0
0
0
0
0
0
0
0
0
0
0
0
0
0
0
0
0
0
0
0
0
0
0
0
0
0
0
0
0
0
0
0
0
0
0
0
0
0
0
0
0
0
0
0
0
0
0
0
0
0
0
0
0
0
0
0
0
0
0
0
0
0
0
0
0
0
0
0
0
0
0
0
0
0
0
0
0
0
0
0
0
0
0
0
0
0
0
0
0
0
0
0
0
0
0
0
0
0
0
0
0
0
0
0
0
0
0
0
0
0
0
0
0
0
0
0
0
0
0
0
0
0
0
0
0
0
0
0
0
0
0
0
0
0
0
0
0
0
0
0
0
0
0
0
0
0
0
0
0
0
0
0
0
0
0
0
0
0
0
0
0
0
0
0
0
0
0
0
0
0
0
0
0
0
0
0
0
0
0
0
0
0
0
0
0
0
0
0
0
0
0
0
0
0
0
0
0
0
0
0
0
0
0
0
0
0
0
0
0
0
0
0
0
0
0
0
0
0
0
0
0
0
0
0
0
0
0
0
0
0
0
0
0
0
0
0
0
0
0
0
0
0
0
0
0
0
0
0
0
0
0
0
0
0
0
0
0
0
0
0
0
0
0
0
0
0
0
0
0
0
0
0
0
0
0
0
0
0
0
0
0
0
0
0
0
0
0
0
0
0
0
0
0
0
0
0
0
0
0
0
0
0
0
0
0
0
0
0
0
0
0
0
0
0
0
0
0
0
0
0
0
0
0
0
0
0
0
0
0
0
0
0
0
0
0
0
0
0
0
0
0
0
0
0
0
0
0
0
0
0
0
0
0
0
0
0
0
0
0
0
0
0
0
0
0
0
0
0
0
0
0
0
0
0
0
0
0
0
0
0
0
0
0
0
0
0
0
0
0
0
0
0
0
0
0
0
0
0
0
0
0
0
0
0
0
0
0
0
0
0
0
0
0
0
0
0
0
0
0
0
0
0
0
0
0
0
0
0
0
0
0
0
0
0
0
0
0
0
0
0
0
0
0
0
0
0
0
0
0
0
0
0
0
0
0
0
0
0
0
0
0
0
0
0
0
0
0
0
0
0
0
0
0
0
0
0
0
0
0
0
0
0
0
0
0
0
0
0
0
0
0
0
0
0
0
0
0
0
0
0
0
0
0
0
0
0
0
0
0
0
0
0
0
0
0
0
0
0
0
0
0
0
0
0
0
0
0
0
0
0
0
0
0
0
0
0
0
0
0
0
0
0
0
0
0
0
0
0
0
0
0
0
0
0
0
0
0
0
0
0
0
0
0
0
0
0
0
0
0
0
0
0
0
0
0
0
0
0
0
0
0
0
0
0
0
0
0
0
0
0
0
0
0
0
0
0
0
0
0
0
0
0
0
0
0
0
0
0
0
0
0
0
0
0
0
0
0
0
0
0
0
0
0
0
0
0
0
0
0
0
0
0
0
0
0
0
0
0
0
0
0
0
0
0
0
0
0
0
0
0
0
0
0
0
0
0
0
0
0
0
0
0
0
0
0
0
0
0
0
0
0
0
0
0
0
0
0
0
0
0
0
0
0
0
0
0
0
0
0
0
0
0
0
0
0
0
0
0
0
0
0
0
0
0
0
0
0
0
0
0
0
0
0
0
0
0
0
0
0
0
0
0
0
0
0
0
0
0
0
0
0
0
0
0
0
0
0
0
0
0
0
0
0
0
0
0
0
0
0
0
0
0
0
0
0
0
0
0
0
0
0
0
0
0
0
0
0
0
0
0
0
0
0
0
0
0
0
0
0
0
0
0
0
0
0
0
0
0
0
0
0
0
0
0
0
0
0
0
0
0
0
0
0
0
0
0
0
0
0
0
0
0
0
0
0
0
0
0
0
0
0
0
0
0
0
0
0
0
0
0
0
0
0
0
0
0
0
0
0
0
0
0
0
0
0
0
0
0
0
0
0
0
0
0
0
0
0
0
0
0
0
0
0
0
0
0
0
0
0
0
0
0
0
0
0
0
0
0
0
0
0
0
0
0
0
0
0
0
0
0
0
0
0
0
0
0
0
0
0
0
0
0
0
0
0
0
0
0
0
0
0
0
0
0
0
0
0
0
0
0
0
0
0
0
0
0
0
0
0
0
0
0
0
0
0
0
0
0
0
0
0
0
0
0
0
0
0
0
0
0
0
0
0
0
0
0
0
0
0
0
0
0
0
0
0
0
0
0
0
0
0
0
0
0
0
0
0
0
0
0
0
0
0
0
0
0
0
0
0
0
0
0
0
0
0
0
0
0
0
0
0
0
0
0
0
0
0
0
0
0
0
0
0
0
0
0
0
0
0
0
0
0
0
0
0
0
0
0
0
0
0
0
0
0
0
0
0
0
0
0
0
0
0
0
0
0
0
0
0
0
0
0
0
0
0
0
0
0
0
0
0
0
0
0
0
0
0
0
0
0
0
0
0
0
0
0
0
0
0
0
0
0
0
0
0
0
0
0
0
0
0
0
0
0
0
0
0
0
0
0
0
0
0
0
0
0
0
0
0
0
0
0
0
0
0
0
0
0
0
0
0
0
0
0
0
0
0
0
0
0
0
0
0
0
0
0
0
0
0
0
0
0
0
0
0
0
0
0
0
0
0
0
0
0
0
0
0
0
0
0
0
0
0
0
0
0
0
0
0
0
0
0
0
0
0
0
0
0
0
0
0
0
0
0
0
0
0
0
0
0
0
0
0
0
0
0
0
0
0
0
0
0
0
0
0
0
0
0
0
0
0
0
0
0
0
0
0
0
0
0
0
0
0
0
0
0
0
0
0
0
0
0
0
0
0
0
0
0
0
0
0
0
0
0
0
0
0
0
0
0
0
0
0
0
0
0
0
0
0
0
0
0
0
0
0
0
0
0
0
0
0
0
0
0
0
0
0
0
0
0
0
0
0
0
0
0
0
0
0
0
0
0
0
0
0
0
0
0
0
0
0
0
0
0
0
0
0
0
0
0
0
0
0
0
0
0
0
0
0
0
0
0
0
0
0
0
0
0
0
0
0
0
0
0
0
0
0
0
0
0
0
0
0
0
0
0
0
0
0
0
0
0
0
0
0
0
0
0
0
0
0
0
0
0
0
0
0
0
0
0
0
0
0
0
0
0
0
0
0
0
0
0
0
0
0
0
0
0
0
0
0
0
0
0
0
0
0
0
0
0
0
0
0
0
0
0
0
0
0
0
0
0
0
0
0
0
0
0
0
0
0
0
0
0
0
0
0
0
0
0
0
0
0
0
0
0
0
0
0
0
0
0
0
0
0
0
0
0
0
0
0
0
0
0
0
0
0
0
0
0
0
0
0
0
0
0
0
0
0
0
0
0
0
0
0
0
0
0
0
0
0
0
0
0
0
0
0
0
0
0
0
0
0
0
0
0
0
0
0
0
0
0
0
0
0
0
0
0
0
0
0
0
0
0
0
0
0
0
0
0
0
0
0
0
0
0
0
0
0
0
0
0
0
0
0
0
0
0
0
0
0
0
0
0
0
0
0
0
0
0
0
0
0
0
0
0
0
0
0
0
0
0
0
0
0
0
0
0
0
0
0
0
0
0
0
0
0
0
0
0
0
0
0
0
0
0
0
0
0
0
0
0
0
0
0
0
0
0
0
0
0
0
0
0
0
0
0
0
0
0
0
0
0
0
0
0
0
0
0
0
0
0
0
0
0
0
0
0
0
0
0
0
0
0
0
0
0
0
0
0
0
0
0
0
0
0
0
0
0
0
0
0
0
0
0
0
0
0
0
0
0
0
0
0
0
0
0
0
0
0
0
0
0
0
0
0
0
0
0
0
0
0
0
0
0
0
0
0
0
0
0
0
0
0
0
0
0
0
0
0
0
0
0
0
0
0
0
0
0
0
0
0
0
0
0
0
0
0
0
0
0
0
0
0
0
0
0
0
0
0
0
0
0
0
0
0
0
0
0
0
0
0
0
0
0
0
0
0
0
0
0
0
0
0
0
0
0
0
0
0
0
0
0
0
0
0
0
0
0
0
0
0
0
0
0
0
0
0
0
0
0
0
0
0
0
0
0
0
0
0
0
0
0
0
0
0
0
0
0
0
0
0
0
0
0
0
0
0
0
0
0
0
0
0
0
0
0
0
0
0
0
0
0
0
0
0
0
0
0
0
0
0
0
0
0
0
0
0
0
0
0
0
0
0
0
0
0
0
0
0
0
0
0
0
0
0
0
0
0
0
0
0
0
0
0
0
0
0
0
0
0
0
0
0
0
0
0
0
0
0
0
0
0
0
0
0
0
0
0
0
0
0
0
0
0
0
0
0
0
0
0
0
0
0
0
0
0
0
0
0
0
0
0
0
0
0
0
0
0
0
0
0
0
0
0
0
0
0
0
0
0
0
0
0
0
0
0
0
0
0
0
0
0
0
0
0
0
0
0
0
0
0
0
0
0
0
0
0
0
0
0
0
0
0
0
0
0
0
0
0
0
0
0
0
0
0
0
0
0
0
0
0
0
0
0
0
0
0
0
0
0
0
0
0
0
0
0
0
0
0
0
0
0
0
0
0
0
0
0
0
0
0
0
0
0
0
0
0
0
0
0
0
0
0
0
0
0
0
0
0
0
0
0
0
0
0
0
0
0
0
0
0
0
0
0
0
0
0
0
0
0
0
0
0
0
0
0
0
0
0
0
0
0
0
0
0
0
0
0
0
0
0
0
0
0
0
0
0
0
0
0
0
0
0
0
0
0
0
0
0
0
0
0
0
0
0
0
0
0
0
0
0
0
0
0
0
0
0
0
0
0
0
0
0
0
0
0
0
0
0
0
0
0
0
0
0
0
0
0
0
0
0
0
0
0
0
0
0
0
0
0
0
0
0
0
0
0
0
0
0
0
0
0
0
0
0
0
0
0
0
0
0
0
0
0
0
0
0
0
0
0
0
0
0
0
0
0
0
0
0
0
0
0
0
0
0
0
0
0
0
0
0
0
0
0
0
0
0
0
0
0
0
0
0
0
0
0
0
0
0
0
0
0
0
0
0
0
0
0
0
0
0
0
0
0
0
0
0
0
0
0
0
0
0
0
0
0
0
0
0
0
0
0
0
0
0
0
0
0
0
0
0
0
0
0
0
0
0
0
0
0
0
0
0
0
0
0
0
0
0
0
0
0
0
0
0
0
0
0
0
0
0
0
0
0
0
0
0
0
0
0
0
0
0
0
0
0
0
0
0
0
0
0
0
0
0
0
0
0
0
0
0
0
0
0
0
0
0
0
0
0
0
0
0
0
0
0
0
0
0
0
0
0
0
0
0
0
0
0
0
0
0
0
0
0
0
0
0
0
0
0
0
0
0
0
0
0
0
0
0
0
0
0
0
0
0
0
0
0
0
0
0
0
0
0
0
0
0
0
0
0
0
0
0
0
0
0
0
0
0
0
0
0
0
0
0
0
0
0
0
0
0
0
0
0
0
0
0
0
0
0
0
0
0
0
0
0
0
0
0
0
0
0
0
0
0
0
0
0
0
0
0
0
0
0
0
0
0
0
0
0
0
0
0
0
0
0
0
0
0
0
0
0
0
0
0
0
0
0
0
0
0
0
0
0
0
0
0
0
0
0
0
0
0
0
0
0
0
0
0
0
0
0
0
0
0
0
0
0
0
0
0
0
0
0
0
0
0
0
0
0
0
0
0
0
0
0
0
0
0
0
0
0
0
0
0
0
0
0
0
0
0
0
0
0
0
0
0
0
0
0
0
0
0
0
0
0
0
0
0
0
0
0
0
0
0
0
0
0
0
0
0
0
0
0
0
0
0
0
0
0
0
0
0
0
0
0
0
0
0
0
0
0
0
0
0
0
0
0
0
0
0
0
0
0
0
0
0
0
0
0
0
0
0
0
0
0
0
0
0
0
0
0
0
0
0
0
0
0
0
0
0
0
0
0
0
0
0
0
0
0
0
0
0
0
0
0
0
0
0
0
0
0
0
0
0
0
0
0
0
0
0
0
0
0
0
0
0
0
0
0
0
0
0
0
0
0
0
0
0
0
0
0
0
0
0
0
0
0
0
0
0
0
0
0
0
0
0
0
0
0
0
0
0
0
0
0
0
0
0
0
0
0
0
0
0
0
0
0
0
0
0
0
0
0
0
0
0
0
0
0
0
0
0
0
0
0
0
0
0
0
0
0
0
0
0
0
0
0
0
0
0
0
0
0
0
0
0
0
0
0
0
0
0
0
0
0
0
0
0
0
0
0
0
0
0
0
0
0
0
0
0
0
0
0
0
0
0
0
0
0
0
0
0
0
0
0
0
0
0
0
0
0
0
0
0
0
0
0
0
0
0
0
0
0
0
0
0
0
0
0
0
0
0
0
0
0
0
0
0
0
0
0
0
0
0
0
0
0
0
0
0
0
0
0
0
0
0
0
0
0
0
0
0
0
0
0
0
0
0
0
0
0
0
0
0
0
0
0
0
0
0
0
0
0
0
0
0
0
0
0
0
0
0
0
0
0
0
0
0
0
0
0
0
0
0
0
0
0
0
0
0
0
0
0
0
0
0
0
0
0
0
0
0
0
0
0
0
0
0
0
0
0
0
0
0
0
0
0
0
0
0
0
0
0
0
0
0
0
0
0
0
0
0
0
0
0
0
0
0
0
0
0
0
0
0
0
0
0
0
0
0
0
0
0
0
0
0
0
0
0
0
0
0
0
0
0
0
0
0
0
0
0
0
0
0
0
0
0
0
0
0
0
0
0
0
0
0
0
0
0
0
0
0
0
0
0
0
0
0
0
0
0
0
0
0
0
0
0
0
0
0
0
0
0
0
0
0
0
0
0
0
0
0
0
0
0
0
0
0
0
0
0
0
0
0
0
0
0
0
0
0
0
0
0
0
0
0
0
0
0
0
0
0
0
0
0
0
0
0
0
0
0
0
0
0
0
0
0
0
0
0
0
0
0
0
0
0
0
0
0
0
0
0
0
0
0
0
0
0
0
0
0
0
0
0
0
0
0
0
0
0
0
0
0
0
0
0
0
0
0
0
0
0
0
0
0
0
0
0
0
0
0
0
0
0
0
0
0
0
0
0
0
0
0
0
0
0
0
0
0
0
0
0
0
0
0
0
0
0
0
0
0
0
0
0
0
0
0
0
0
0
0
0
0
0
0
0
0
0
0
0
0
0
0
0
0
0
0
0
0
0
0
0
0
0
0
0
0
0
0
0
0
0
0
0
0
0
0
0
0
0
0
0
0
0
0
0
0
0
0
0
0
0
0
0
0
0
0
0
0
0
0
0
0
0
0
0
0
0
0
0
0
0
0
0
0
0
0
0
0
0
0
0
0
0
0
0
0
0
0
0
0
0
0
0
0
0
0
0
0
0
0
0
0
0
0
0
0
0
0
0
0
0
0
0
0
0
0
0
0
0
0
0
0
0
0
0
0
0
0
0
0
0
0
0
0
0
0
0
0
0
0
0
0
0
0
0
0
0
0
0
0
0
0
0
0
0
0
0
0
0
0
0
0
0
0
0
0
0
0
0
0
0
0
0
0
0
0
0
0
0
0
0
0
0
0
0
0
0
0
0
0
0
0
0
0
0
0
0
0
0
0
0
0
0
0
0
0
0
0
0
0
0
0
0
0
0
0
0
0
0
0
0
0
0
0
0
0
0
0
0
0
0
0
0
0
0
0
0
0
0
0
0
0
0
0
0
0
0
0
0
0
0
0
0
0
0
0
0
0
0
0
0
0
0
0
0
0
0
0
0
0
0
0
0
0
0
