0.637076
0.846315
1.21817
1.70276
2.16023
2.41455
2.33444
1.90052
1.22258
0.503188
-0.0227215
-0.210286
-0.270355
-0.29197
-0.286802
-0.261985
-0.22431
-0.179647
-0.132996
-0.0879673
-0.0478224
-0.0157837
0.00473785
0.0100149
-0.00347939
-0.0387568
-0.0977541
-0.180765
-0.285983
-0.409353
-0.546078
-0.687037
-0.819982
-0.932729
-1.01504
-1.05992
-1.06431
-1.02903
-0.95824
-0.858694
-0.738916
-0.608956
-0.478281
-0.354739
-0.245222
-0.155142
-0.0880201
-0.0453592
-0.0268433
-0.0308178
-0.0549004
-0.0965252
-0.152605
-0.220224
-0.296973
-0.380625
-0.467555
-0.549688
-0.615381
-0.651912
-0.648307
-0.598327
-0.502392
-0.367557
-0.205544
-0.0298117
0.146921
0.313138
0.454384
0.558792
0.614916
0.61473
0.558369
0.457615
0.335535
0.221797
0.145525
0.120993
0.140445
0.197415
0.291679
0.422174
0.598067
0.84146
1.16071
1.49657
1.77527
1.92425
1.90087
1.7185
1.44754
1.18079
0.980651
0.847134
0.733066
0.624091
0.518685
0.419136
0.330151
0.256651
0.201907
0.165278
0.142609
0.127651
0.114127
0.0975519
0.0761776
0.0508909
0.0243868
0
-0.0218014
0.145938
0.962543
2.61963
5.16351
8.29405
11.3891
13.6835
14.5464
13.7416
11.5325
8.57125
5.62869
3.30213
1.84577
1.17305
0.997572
0.916124
0.843103
0.781652
0.736845
0.716109
0.724887
0.751029
0.773495
0.769889
0.72433
0.6336
0.508765
0.371509
0.246905
0.155942
0.0991383
0.072818
0.0774315
0.111545
0.172497
0.255442
0.354878
0.46571
0.582839
0.699466
0.808802
0.905481
0.986545
1.05189
1.10397
1.14685
1.18493
1.22182
1.25965
1.29918
1.34072
1.38469
1.43226
1.48551
1.54738
1.62109
1.70945
1.81394
1.93423
2.0682
2.21221
2.36082
2.50626
2.63918
2.75067
2.83289
2.87972
2.88703
2.85291
2.77784
2.66487
2.51987
2.35162
2.17198
1.99313
1.82584
1.68561
1.59448
1.54818
1.53084
1.52257
1.50856
1.48497
1.45819
1.43814
1.43006
1.42792
1.4166
1.38011
1.31122
1.2167
1.11521
1.0292
0.975496
0.951688
0.947561
0.960442
0.987669
1.02768
1.08022
1.15079
1.24706
1.35591
1.45336
1.51367
1.52248
1.48574
1.42789
1.37977
1.3633
1.3815
1.41413
1.45102
1.48455
1.51026
1.52702
1.5358
1.53794
1.53427
1.52473
1.50914
1.48819
1.46384
1.4391
1.41721
1.40078
1.39069
1.38745
1.39164
1.40404
1.42574
1.45774
1.50038
1.55363
1.61448
1.6769
1.73341
1.77677
1.80165
1.8061
1.79228
1.76647
1.73825
1.71902
1.72437
1.79421
1.95623
2.16319
2.33934
2.41399
2.35412
2.18008
1.95682
1.76451
1.66172
1.63731
1.64194
1.65409
1.6545
1.62663
1.55973
1.45027
1.30168
1.12282
0.925663
0.722849
0.527532
0.352721
0.205784
0.0891018
0
-0.0388058
0.714018
2.3978
5.0852
8.41657
11.6373
13.8751
14.5239
13.5118
11.2992
8.62433
6.16112
4.28231
3.02388
2.20703
1.61173
1.1106
0.643857
0.249419
-0.0284618
-0.14826
-0.0874462
0.140677
0.479047
0.835836
1.11204
1.25381
1.31219
1.30782
1.25538
1.17324
1.07867
0.984246
0.895004
0.811752
0.734614
0.664212
0.60239
0.5529
0.520396
0.509808
0.525123
0.567881
0.63624
0.725075
0.827169
0.935124
1.04329
1.14926
1.25303
1.35607
1.4601
1.56573
1.67159
1.77362
1.86574
1.94128
1.99467
2.02275
2.02572
2.00733
1.97447
1.93639
1.90393
1.90612
2.05399
2.42618
2.89717
3.27998
3.39696
3.1668
2.65922
2.07265
1.63153
1.44358
1.33802
1.23715
1.13091
1.01638
0.896388
0.778223
0.671043
0.58297
0.51587
0.470963
0.446647
0.439339
0.44448
0.456751
0.472131
0.486638
0.496679
0.499386
0.492886
0.47661
0.451485
0.419886
0.385329
0.351978
0.323934
0.304229
0.295014
0.297858
0.313702
0.34215
0.380125
0.421112
0.456831
0.479684
0.484607
0.470305
0.439413
0.397469
0.351074
0.305956
0.265494
0.230136
0.199327
0.172453
0.149067
0.129121
0.112811
0.100166
0.090604
0.0828983
0.0753654
0.0665215
0.0558865
0.0446243
0.0357216
0.0335587
0.0429394
0.0678436
0.110276
0.168616
0.239611
0.318337
0.398693
0.474207
0.538268
0.584707
0.609349
0.609814
0.585814
0.539423
0.475187
0.399886
0.321814
0.24958
0.190576
0.151149
0.137454
0.145367
0.162261
0.173352
0.16631
0.13452
0.077734
0
-0.0885757
-0.191558
-0.309023
-0.449261
-0.649247
-0.937938
-1.28889
-1.66175
-2.0312
-1.56981
-0.173236
2.20616
5.30452
8.52855
11.1218
12.447
12.2428
10.7085
8.37419
5.84739
3.5846
1.79892
0.510247
-0.346172
-0.538401
-0.66179
-0.767445
-0.853055
-0.918206
-0.963937
-0.992462
-1.00707
-1.01142
-1.00923
-1.00406
-0.999242
-0.99787
-1.0025
-1.01471
-1.03471
-1.06135
-1.09113
-1.11714
-1.13139
-1.12678
-1.09905
-1.048
-0.977482
-0.894205
-0.805661
-0.71805
-0.634282
-0.554855
-0.479099
-0.405583
-0.332948
-0.260555
-0.188818
-0.119114
-0.0530796
0.00832748
0.0656704
0.121464
0.179976
0.246403
0.325607
0.420753
0.531712
0.655274
0.786935
0.919351
1.04424
1.15387
1.24207
1.30474
1.33983
1.34687
1.32651
1.28009
1.21034
1.12049
1.01351
0.893128
0.763796
0.630479
0.498335
0.372102
0.256024
0.153434
0.0665775
-0.00315208
-0.0558628
-0.0943092
-0.122506
-0.144407
-0.162801
-0.178556
-0.190485
-0.195942
-0.191966
-0.176315
-0.147787
-0.109829
-0.0685776
-0.0313034
-0.00450249
0.00778465
0.00501633
-0.00961037
-0.0296707
-0.0466156
-0.0522171
-0.0403278
-0.00694046
0.0492142
0.127417
0.224828
0.332483
0.438102
0.529422
0.596219
0.631591
0.632327
0.598552
0.533086
0.44099
0.329043
0.203187
0.0824741
-0.00987358
-0.0522003
-0.0308884
0.0544472
0.189677
0.34972
0.505693
0.632988
0.728535
0.794382
0.832724
0.849823
0.85454
0.856669
0.865362
0.887365
0.926337
0.983811
1.06085
1.15918
1.2828
1.43977
1.63285
1.83513
2.00523
2.09941
2.08783
1.96907
1.77331
1.55038
1.34902
1.19994
1.09049
1.00348
0.932397
0.875205
0.830164
0.794665
0.764886
0.736384
0.704398
0.664362
0.612481
0.546234
0.464651
0.366586
0.253916
0.13032
0
-0.142392
0.403605
1.87788
4.36038
7.52634
10.6841
13.0263
13.9677
13.3765
11.5721
9.1236
6.59672
4.38689
2.68468
1.52509
0.852544
0.761255
0.689365
0.623047
0.56301
0.509698
0.463474
0.424622
0.393381
0.369778
0.352623
0.339383
0.327005
0.312691
0.294714
0.273004
0.249295
0.226794
0.209502
0.201137
0.204076
0.219642
0.248315
0.289534
0.341589
0.401948
0.467351
0.533601
0.596503
0.652983
0.701784
0.743774
0.781712
0.819448
0.860764
0.908225
0.962313
1.02126
1.08257
1.14342
1.20169
1.25666
1.30923
1.36153
1.41615
1.47511
1.53904
1.60684
1.67465
1.73713
1.78894
1.82613
1.84697
1.85193
1.84286
1.82157
1.78841
1.74064
1.67354
1.581
1.45739
1.29964
1.10868
0.889844
0.652265
0.407635
0.169542
-0.0422928
-0.211493
-0.324867
-0.374364
-0.359384
-0.288355
-0.178315
-0.0519062
0.0674503
0.161212
0.22677
0.261328
0.265267
0.242367
0.198858
0.142733
0.0824856
0.0253017
-0.0227573
-0.0571793
-0.075666
-0.0781166
-0.0659397
-0.0418793
-0.00941696
0.0276543
0.0659107
0.102402
0.134423
0.159233
0.173883
0.176197
0.165088
0.14111
0.107116
0.0685955
0.0334652
0.0155033
0.0602661
0.233626
0.489778
0.726538
0.835453
0.757494
0.512638
0.188823
-0.100814
-0.268462
-0.319395
-0.322079
-0.30379
-0.272418
-0.233412
-0.190206
-0.143855
-0.0932503
-0.035836
0.03134
0.110516
0.20296
0.308208
0.422409
0.536815
0.638061
0.71268
0.749701
0.742866
0.692147
0.604192
0.491358
0.369364
0.25405
0.156913
0.0807488
0.0238182
-0.0155987
-0.0390503
-0.0490078
-0.0484203
-0.0404339
-0.0281933
-0.0148903
-0.00413208
0
-0.00786552
-0.0340519
-0.117123
-0.419789
-0.927753
-1.56393
-2.23803
-2.1922
-0.95562
1.58835
5.08424
8.75262
11.6699
13.1287
12.8951
11.2355
8.73081
6.01266
3.56848
1.68141
0.460965
-0.11916
-0.205804
-0.336498
-0.473557
-0.616306
-0.76217
-0.904607
-1.03476
-1.14361
-1.22418
-1.27304
-1.29072
-1.28077
-1.24809
-1.197
-1.13095
-1.05073
-0.948489
-0.807706
-0.632254
-0.458255
-0.335886
-0.306844
-0.382781
-0.537642
-0.718202
-0.86636
-0.940339
-0.951152
-0.92541
-0.874916
-0.804154
-0.717145
-0.618335
-0.512077
-0.402819
-0.294469
-0.189693
-0.0894848
0.00697937
0.102096
0.199224
0.301867
0.412879
0.533738
0.664438
0.803992
0.950711
1.10242
1.25596
1.40574
1.54234
1.65454
1.73002
1.75767
1.73063
1.64867
1.51884
1.3538
1.1682
0.974335
0.779181
0.584057
0.388326
0.191053
-0.0072567
-0.197897
-0.362617
-0.479002
-0.528789
-0.50547
-0.417625
-0.286618
-0.140043
-0.00413551
0.106595
0.192875
0.251943
0.282778
0.286549
0.266237
0.226202
0.171651
0.107968
0.040052
-0.0281464
-0.0939823
-0.155696
-0.211335
-0.25776
-0.290124
-0.303841
-0.294524
-0.259513
-0.19936
-0.117383
-0.0226616
0.0731194
0.15825
0.223421
0.263191
0.276121
0.263846
0.229798
0.178318
0.116415
0.0485245
-0.0179539
-0.0737873
-0.109756
-0.11868
-0.0973301
-0.0473663
0.0250969
0.111134
0.201171
0.287241
0.364947
0.431304
0.482802
0.516682
0.532019
0.529244
0.510824
0.481162
0.448526
0.424354
0.420279
0.445328
0.503447
0.595993
0.715795
0.844101
0.959486
1.04383
1.08616
1.08425
1.04391
0.97636
0.894608
0.809808
0.728316
0.651029
0.57622
0.501797
0.425945
0.347414
0.265696
0.180757
0.0924713
0
-0.0978558
-0.204714
-0.326686
-0.477268
-0.669393
-0.899868
-1.15789
-1.42757
-1.1103
0.106552
2.35169
5.48562
8.99807
12.0914
13.9411
14.0346
12.4122
9.6564
6.6165
4.02729
2.24249
1.21314
0.670186
0.40951
0.190002
-0.0125664
-0.18906
-0.33211
-0.436211
-0.497249
-0.500484
-0.431723
-0.306592
-0.165456
-0.0497696
0.00889931
-0.00375977
-0.0833939
-0.211452
-0.363105
-0.514896
-0.651037
-0.766782
-0.860649
-0.922862
-0.94586
-0.922848
-0.849662
-0.726846
-0.561009
-0.364447
-0.154403
0.0503262
0.232587
0.379389
0.483201
0.54154
0.557526
0.538709
0.496477
0.445268
0.401037
0.378731
0.389151
0.43625
0.517709
0.622334
0.735952
0.846589
0.948695
1.04476
1.14381
1.26397
1.43497
1.66866
1.93161
2.16602
2.32721
2.387
2.32668
2.13651
1.82529
1.43089
1.0202
0.673796
0.42761
0.255203
0.128802
0.0438488
-0.00257301
-0.0154984
-0.00139961
0.0324814
0.0785885
0.129571
0.178706
0.219637
0.24654
0.254554
0.240057
0.201133
0.138078
0.0537827
-0.0494095
-0.162338
-0.270572
-0.359248
-0.415734
-0.431753
-0.404422
-0.336091
-0.233318
-0.105539
0.0355045
0.178572
0.311006
0.420753
0.497374
0.532983
0.522961
0.466286
0.365514
0.226621
0.0588696
-0.126378
-0.312896
-0.476694
-0.593819
-0.645297
-0.622228
-0.52916
-0.384085
-0.21445
-0.0500973
0.0850204
0.18782
0.265599
0.321696
0.360047
0.385579
0.403056
0.416252
0.427264
0.436431
0.442612
0.443588
0.4367
0.419489
0.390355
0.349112
0.29731
0.238261
0.176693
0.118078
0.0676224
0.0291447
0.00602913
-0.000188828
0.00760841
0.0227158
0.0369133
0.0420475
0.0313259
0
-0.0452984
-0.115059
-0.209544
-0.336606
-0.534472
-0.842825
-1.22789
-1.64022
-2.04875
-1.58035
-0.00769157
2.69472
6.06817
9.28051
11.4741
12.1476
11.336
9.49929
7.2358
5.02816
3.15027
1.71037
0.722961
0.150398
0.0397335
-0.0481171
-0.124421
-0.18655
-0.233145
-0.264031
-0.279945
-0.282155
-0.272104
-0.251098
-0.220173
-0.180146
-0.131829
-0.0761097
-0.014217
0.0511669
0.116181
0.176341
0.227021
0.263995
0.283973
0.285127
0.267656
0.234369
0.190005
0.144767
0.114727
0.117152
0.16644
0.269996
0.457079
0.702588
0.951541
1.14944
1.26335
1.29359
1.27127
1.24353
1.25381
1.32665
1.44289
1.58258
1.73694
1.90064
2.06915
2.23835
2.40449
2.56346
2.70894
2.83033
2.91662
2.95546
2.9362
2.85371
2.71159
2.52332
2.31031
2.09733
1.90657
1.74429
1.60715
1.49477
1.40628
1.33889
1.28839
1.25011
1.21957
1.19305
1.16802
1.14334
1.11918
1.09677
1.0779
1.06445
1.05787
1.05892
1.0672
1.08115
1.09854
1.11692
1.1341
1.14853
1.1595
1.16715
1.17229
1.17621
1.18045
1.18658
1.1961
1.21028
1.22994
1.25529
1.28595
1.32021
1.35396
1.38213
1.40009
1.40512
1.3974
1.38014
1.35882
1.33973
1.32852
1.32786
1.33846
1.36154
1.39803
1.44881
1.51484
1.59721
1.69766
1.82075
1.96853
2.12919
2.28325
2.4102
2.49341
2.52317
2.49669
2.41621
2.28712
2.11784
1.92551
1.72672
1.53547
1.36542
1.22855
1.13371
1.08717
1.09332
1.17881
1.38043
1.67895
1.99288
2.24272
2.36841
2.34468
2.18628
1.93625
1.6414
1.32961
1.0071
0.676753
0.339667
0
-0.0819449
0.760136
2.83611
6.03791
9.74429
13.0083
14.9262
15.0068
13.3621
10.6335
7.69679
5.29647
3.78224
3.06175
2.76361
2.39709
1.99381
1.60496
1.2535
0.959078
0.736343
0.592722
0.52775
0.53405
0.599413
0.709084
0.847451
0.998057
1.14726
1.2855
1.40462
1.49865
1.56438
1.60125
1.61081
1.59585
1.5597
1.50625
1.44061
1.36806
1.30505
1.2717
1.28604
1.35675
1.47836
1.63197
1.79163
1.93364
2.04663
2.13599
2.20636
2.26559
2.32187
2.38138
2.44679
2.51935
2.59958
2.68751
2.78301
2.88581
2.99524
3.1102
3.22822
3.34307
3.44611
3.52829
3.58217
3.60336
3.59082
3.54591
3.47083
3.36749
3.23986
3.09356
2.93305
2.76384
2.5938
2.43255
2.2902
2.17707
2.10883
2.10011
2.14464
2.21444
2.27832
2.31193
2.3048
2.26228
2.20187
2.14532
2.10944
2.09688
2.09941
2.10544
2.1023
2.08133
2.04084
1.98606
1.92617
1.8705
1.82559
1.79181
1.76995
1.76192
1.77003
1.79664
1.84651
1.92314
2.02152
2.1287
2.22713
2.29935
2.33187
2.31773
2.25765
2.16027
2.04118
1.92064
1.8197
1.75444
1.72778
1.7328
1.7632
1.81463
1.88159
1.9585
2.04037
2.12376
2.20647
2.2872
2.3649
2.43812
2.50485
2.56245
2.60787
2.63826
2.65155
2.64697
2.62545
2.58967
2.54392
2.49385
2.44513
2.40271
2.37245
2.35993
2.35665
2.34433
2.30251
2.21728
2.08809
1.9289
1.76228
1.60883
1.47679
1.35332
1.22554
1.07785
0.881193
0.627745
0.326184
0
0.0286258
1.05472
3.14196
6.12151
9.54266
12.753
15.0475
15.8759
15.045
12.817
9.8256
6.8254
4.40184
2.79611
1.91636
1.49522
1.38174
1.28641
1.20228
1.13224
1.07725
1.03572
1.00353
0.974404
0.941111
0.897241
0.8386
0.764271
0.675952
0.58028
0.48834
0.412198
0.362334
0.345524
0.363688
0.413936
0.489643
0.582122
0.681947
0.781555
0.875908
0.961475
1.03498
1.09432
1.13873
1.16847
1.18486
1.19035
1.18833
1.18289
1.17829
1.1786
1.18711
1.20617
1.23787
1.28444
1.34812
1.43093
1.53429
1.65836
1.80172
1.96419
2.13813
2.30625
2.44992
2.55376
2.60898
2.61453
2.57531
2.49902
2.39297
2.26483
2.12229
1.96944
1.80951
1.64665
1.4858
1.33216
1.19025
1.06362
0.954575
0.863833
0.79072
0.733679
0.690184
0.65659
0.629155
0.604601
0.580487
0.555414
0.528948
0.501334
0.473078
0.444585
0.416019
0.387441
0.359164
0.332151
0.308312
0.290302
0.280994
0.282642
0.296033
0.320362
0.352181
0.386442
0.417489
0.440122
0.450435
0.446219
0.426968
0.393619
0.348312
0.294419
0.235297
0.174546
0.116025
0.0634871
0.0202324
-0.0112379
-0.0294804
-0.0342392
-0.0264177
-0.00789719
0.0186897
0.0506868
0.0856201
0.121792
0.158663
0.196976
0.238533
0.285621
0.34022
0.404626
0.478415
0.55612
0.629445
0.689247
0.727701
0.739994
0.725113
0.685563
0.626261
0.553006
0.471613
0.386127
0.299263
0.213254
0.130424
0.053968
-0.0121395
-0.0616652
-0.0815578
-0.0660709
-0.0300423
0.00117111
0
-0.0507107
-0.162027
-0.329414
-0.540508
-0.780387
-1.03277
-1.28803
-1.53953
-1.76751
-1.0136
0.884261
3.90869
7.58404
11.0839
13.5245
14.3142
13.382
11.1657
8.38237
5.71312
3.57202
2.05307
1.03082
0.322738
0.0920616
-0.10879
-0.296817
-0.470441
-0.629669
-0.775414
-0.908648
-1.02964
-1.13463
-1.19781
-1.08672
-0.668838
-0.0935196
0.390277
0.54824
0.283389
-0.305462
-0.968496
-1.42454
-1.49356
-1.40682
-1.29599
-1.18125
-1.06999
-0.966041
-0.869607
-0.778216
-0.688208
-0.596328
-0.501038
-0.402762
-0.303058
-0.204061
-0.107857
-0.0159042
0.07125
0.153903
0.232843
0.308803
0.381989
0.451901
0.517829
0.579431
0.637796
0.696223
0.760227
0.836573
0.931452
1.06117
1.22698
1.40279
1.55279
1.64526
1.66397
1.61116
1.50197
1.355
1.18541
1.00644
0.826043
0.648705
0.478358
0.318799
0.17327
0.0444174
-0.0673462
-0.162697
-0.242515
-0.306859
-0.353492
-0.379086
-0.379378
-0.345553
-0.255633
-0.113541
0.0450785
0.176699
0.247252
0.245741
0.187325
0.104669
0.0323469
-0.00778408
-0.0218643
-0.023621
-0.019611
-0.0157469
-0.0159048
-0.021265
-0.0306849
-0.0418192
-0.0524607
-0.0615885
-0.069433
-0.0767828
-0.0841232
-0.0906919
-0.0939516
-0.0897718
-0.0733519
-0.0406208
0.0101208
0.0786718
0.160844
0.248055
0.33001
0.396638
0.439804
0.454458
0.439171
0.396198
0.331269
0.25353
0.173917
0.106128
0.0643536
0.061297
0.106155
0.20291
0.359537
0.585772
0.858434
1.1326
1.36662
1.53146
1.61306
1.61008
1.53067
1.39063
1.21254
1.02292
0.845304
0.691101
0.558336
0.440197
0.332348
0.234033
0.146103
0.0706314
0.01036
-0.0304552
-0.0477768
-0.0413902
-0.0198423
0
0.0019516
-0.0325489
-0.112735
-0.239046
-0.403392
-0.636497
-0.355195
1.04601
3.72073
7.27516
10.8262
13.3349
14.0524
12.8457
10.2386
7.15297
4.49175
2.77865
2.02442
1.85842
1.73939
1.53102
1.32857
1.13797
0.965408
0.815198
0.688625
0.584394
0.49963
0.43094
0.375434
0.331444
0.298781
0.278473
0.272114
0.280603
0.30493
0.346086
0.401779
0.461183
0.510408
0.537416
0.536184
0.509363
0.46815
0.429145
0.409259
0.420679
0.460816
0.521881
0.599761
0.690212
0.788992
0.89289
1.00017
1.11041
1.22415
1.34222
1.46509
1.59234
1.7224
1.85265
1.9798
2.10049
2.21184
2.31175
2.39907
2.47421
2.5386
2.59429
2.64337
2.68733
2.7262
2.75704
2.77288
2.76424
2.72012
2.63124
2.4937
2.31178
2.09818
1.87347
1.66501
1.49716
1.38503
1.331
1.32544
1.3509
1.38797
1.42027
1.44029
1.44296
1.42585
1.38809
1.33189
1.25892
1.17006
1.06885
0.962585
0.86328
0.785481
0.742234
0.742437
0.788513
0.875244
0.990329
1.11694
1.2378
1.33946
1.41892
1.48018
1.52541
1.55786
1.58044
1.59483
1.60093
1.59752
1.58319
1.55742
1.52131
1.47787
1.43155
1.38748
1.3503
1.32295
1.30696
1.30297
1.31083
1.33005
1.36021
1.40118
1.45294
1.51528
1.58736
1.66732
1.75233
1.83901
1.92363
2.00246
2.07211
2.12963
2.17238
2.19782
2.20281
2.18353
2.13676
2.0599
1.95192
1.81442
1.65242
1.47452
1.29235
1.11936
0.97601
0.907311
0.978502
1.1867
1.44579
1.66838
1.79378
1.7948
1.67054
1.43674
1.12078
0.757692
0.379607
0
0.495306
1.9842
4.45181
7.5031
10.4638
12.6183
13.4716
12.915
11.2299
8.942
6.60546
4.62177
3.16592
2.22426
1.69907
1.57042
1.45228
1.3402
1.23692
1.14526
1.06771
1.00647
0.963233
0.938934
0.933624
0.946431
0.975602
1.01859
1.07236
1.13341
1.19705
1.25726
1.30791
1.3439
1.3621
1.36223
1.34702
1.32188
1.29381
1.27018
1.25759
1.25978
1.27815
1.314
1.36864
1.44246
1.53467
1.64306
1.76384
1.89196
2.02108
2.14462
2.25689
2.35402
2.43453
2.49944
2.55194
2.5968
2.63958
2.68574
2.73995
2.80618
2.88853
2.9901
3.11003
3.24168
3.37224
3.48349
3.55701
3.5764
3.52962
3.41178
3.22787
2.99396
2.73521
2.4802
2.25179
2.05415
1.88086
1.72838
1.59445
1.47631
1.37173
1.2798
1.20336
1.16322
1.26205
1.62478
2.13658
2.58092
2.74665
2.54802
2.07587
1.54102
1.15278
1.01804
1.00805
1.03143
1.06917
1.11774
1.1756
1.2417
1.3152
1.39501
1.47943
1.56598
1.65128
1.73125
1.8017
1.859
1.90052
1.92494
1.93235
1.92412
1.9027
1.87128
1.83359
1.79367
1.75566
1.72393
1.70227
1.69352
1.69921
1.71927
1.75229
1.79603
1.84823
1.90731
1.97231
2.04318
2.12085
2.20517
2.29079
2.3684
2.42723
2.45823
2.45691
2.42469
2.36849
2.29886
2.22747
2.16345
2.11072
2.07015
2.04246
2.0241
2.00763
1.98507
1.95035
1.9012
1.83954
1.77013
1.6979
1.62494
1.54845
1.46067
1.35045
1.20499
0.986285
0.696605
0.356532
0
-0.0156921
1.04344
3.1634
6.15649
9.49874
12.4485
14.2922
14.6188
13.4857
11.3696
8.92126
6.67212
4.86603
3.49287
2.45134
1.70805
1.49193
1.31156
1.15512
1.03125
0.94571
0.901643
0.899523
0.947087
1.04707
1.18759
1.34205
1.47928
1.57304
1.60647
1.57485
1.48664
1.36265
1.23245
1.12771
1.07201
1.06626
1.09587
1.1473
1.21277
1.28305
1.34945
1.40511
1.44592
1.47095
1.48248
1.48559
1.48751
1.49662
1.5211
1.56762
1.64024
1.73961
1.86328
2.0072
2.16309
2.31964
2.46646
2.59601
2.70483
2.79342
2.8651
2.92417
2.97342
3.01403
3.04432
3.06037
3.05725
3.03061
2.97789
2.89915
2.79722
2.67748
2.54742
2.41511
2.28787
2.17114
2.06822
1.9809
1.90934
1.85169
1.80441
1.76261
1.72041
1.67216
1.61382
1.54388
1.46382
1.37779
1.29162
1.21176
1.14634
1.09572
1.05501
1.0174
0.978767
0.941273
0.914016
0.910301
0.9427
1.01737
1.13119
1.28052
1.44621
1.60239
1.72533
1.79747
1.80926
1.75934
1.65414
1.50736
1.33901
1.17322
1.03226
0.929893
0.87017
0.856398
0.885571
0.949157
1.03485
1.12881
1.21816
1.29372
1.34825
1.37791
1.38224
1.36405
1.32904
1.28509
1.24119
1.20614
1.18723
1.18858
1.2103
1.25167
1.30994
1.38092
1.45983
1.54087
1.61663
1.67962
1.7231
1.74192
1.73327
1.69722
1.63647
1.55559
1.45973
1.35352
1.2406
1.1233
1.00321
0.881974
0.761965
0.647085
0.541829
0.450283
0.374759
0.314717
0.266489
0.224006
0.18038
0.12983
0.0695517
0
-0.0774943
0.201063
1.24404
3.21213
6.02098
9.25734
12.2278
14.1694
14.5425
13.2553
10.6969
7.56673
4.5999
2.32415
0.933709
0.301651
0.140054
0.0543522
-0.0181666
-0.0671155
-0.0713375
-0.00492477
0.11751
0.254605
0.358801
0.393296
0.344016
0.221851
0.0561018
-0.116284
-0.261017
-0.365823
-0.435188
-0.474546
-0.486951
-0.473405
-0.433277
-0.361528
-0.24316
-0.0515206
0.215383
0.499281
0.725054
0.823072
0.756225
0.540479
0.247352
-0.0192799
-0.16974
-0.196751
-0.172626
-0.128005
-0.0714145
-0.00293465
0.0856087
0.206079
0.367099
0.568145
0.793238
1.02446
1.24916
1.45584
1.63523
1.77929
1.88358
1.94649
1.96774
1.9478
1.88795
1.7907
1.66058
1.50475
1.33313
1.15798
0.991627
0.845517
0.734387
0.678831
0.682623
0.724719
0.776361
0.810345
0.808609
0.765605
0.687126
0.586124
0.477789
0.375004
0.283689
0.205671
0.141465
0.0907462
0.0527217
0.025909
0.00787163
-0.003689
-0.0102679
-0.0121727
-0.00854502
0.00216017
0.0213685
0.0501577
0.0881557
0.131696
0.175831
0.21581
0.248421
0.27258
0.288928
0.298725
0.302646
0.300439
0.29069
0.272002
0.244142
0.208912
0.17033
0.134018
0.106008
0.0908802
0.0902627
0.104153
0.131277
0.168802
0.212876
0.259251
0.303793
0.343022
0.374558
0.39735
0.411758
0.419463
0.423248
0.426682
0.433782
0.44862
0.474739
0.515124
0.57225
0.647402
0.742054
0.858583
0.99191
1.12521
1.23896
1.31582
1.34509
1.32496
1.26172
1.16647
1.05095
0.924802
0.794934
0.664918
0.537298
0.414927
0.301322
0.200394
0.116028
0.0523944
0.0135119
-0.000888538
0
0.00286436
-0.00918655
-0.0492447
-0.124702
-0.235489
-0.374057
-0.527025
-0.610795
0.0191134
1.70485
4.51944
8.04341
11.4223
13.6973
14.2388
13.0158
10.5425
7.57217
4.76032
2.49745
0.93779
0.0966526
-0.0731297
-0.0016717
0.0640956
0.118214
0.159623
0.192205
0.222848
0.259341
0.306647
0.354814
0.383501
0.371424
0.307612
0.1989
0.0697992
-0.0456261
-0.116586
-0.134235
-0.107264
-0.0479175
0.0266645
0.101454
0.16914
0.231967
0.29908
0.380722
0.482048
0.598123
0.71903
0.831577
0.924033
0.990112
1.03062
1.05236
1.06515
1.07856
1.09887
1.12829
1.16853
1.22198
1.29138
1.37996
1.49104
1.6273
1.79459
2.00563
2.25962
2.52875
2.779
2.98065
3.11447
3.17246
3.15469
3.0659
2.91477
2.71603
2.49443
2.27448
2.07809
1.91764
1.78951
1.68472
1.59976
1.53064
1.47321
1.42386
1.37996
1.33981
1.30239
1.26709
1.23352
1.20152
1.17125
1.14319
1.118
1.09632
1.07852
1.06217
1.04275
1.0158
0.979537
0.936906
0.895678
0.866297
0.858191
0.87627
0.914222
0.967413
1.02993
1.09605
1.16164
1.2246
1.28424
1.33916
1.38631
1.42011
1.43326
1.41982
1.37855
1.31494
1.24069
1.17083
1.11941
1.09259
1.08738
1.1014
1.13013
1.16688
1.20494
1.23924
1.26734
1.28957
1.30846
1.32763
1.35056
1.37964
1.41555
1.45764
1.50505
1.55684
1.61229
1.67087
1.73189
1.79292
1.84899
1.89311
1.91753
1.9156
1.88366
1.82233
1.7369
1.63657
1.53272
1.43607
1.35334
1.28883
1.24416
1.21172
1.18043
1.13955
1.08202
1.00601
0.914128
0.81079
0.699314
0.580907
0.454373
0.315711
0.16378
0
-0.212213
0.27319
1.73001
4.14365
7.15359
10.1207
12.3064
13.1243
12.3739
10.3377
7.67057
5.1136
3.18214
2.00447
1.38786
1.05824
1.02806
1.00999
1.00172
0.998866
0.988379
0.95325
0.877889
0.753474
0.581304
0.369948
0.140041
-0.0815412
-0.26698
-0.395435
-0.454253
-0.438491
-0.351079
-0.203955
-0.0186551
0.175948
0.349715
0.479349
0.565269
0.619581
0.646509
0.651638
0.639743
0.613703
0.574523
0.521879
0.456525
0.380366
0.303128
0.242167
0.216687
0.241809
0.323479
0.456428
0.62606
0.81346
1.00138
1.1809
1.35073
1.50952
1.65713
1.79353
1.91647
2.01874
2.08877
2.1131
2.08203
1.99469
1.86163
1.7033
1.54428
1.40508
1.29181
1.19526
1.10716
1.01826
0.920054
0.807521
0.680806
0.545466
0.411148
0.289131
0.187455
0.109804
0.0608049
0.039876
0.0386734
0.0464518
0.0529472
0.0507776
0.0366587
0.0112204
-0.0222858
-0.0597193
-0.0974785
-0.13347
-0.166626
-0.196152
-0.221273
-0.241088
-0.254728
-0.261603
-0.261882
-0.257302
-0.250823
-0.246137
-0.246896
-0.255701
-0.273272
-0.297898
-0.325411
-0.349728
-0.363964
-0.361927
-0.339661
-0.296251
-0.233233
-0.15878
-0.084026
-0.020524
0.0220314
0.0374226
0.023612
-0.0173656
-0.0799923
-0.155999
-0.234918
-0.305908
-0.357443
-0.378786
-0.361174
-0.299271
-0.192389
-0.028084
0.19174
0.429537
0.642711
0.795506
0.866485
0.849982
0.752141
0.584827
0.36156
0.0977392
-0.181892
-0.457952
-0.71624
-0.944769
-1.13206
-1.26969
-1.32705
-1.24899
-0.998526
-0.650097
-0.316799
-0.0820213
0
-0.0906828
-0.342052
-0.699294
-1.08102
-1.41725
-1.70051
-1.06903
0.445739
2.84838
5.82752
8.76337
10.9058
11.6701
10.8969
8.91786
6.38674
3.97614
2.1187
0.916431
0.224715
-0.163327
-0.29683
-0.419958
-0.53615
-0.644013
-0.742551
-0.830717
-0.907306
-0.971212
-1.02119
-1.05613
-1.07539
-1.07916
-1.06863
-1.04598
-1.0136
-0.974353
-0.930851
-0.884481
-0.835108
-0.781248
-0.720798
-0.649865
-0.565898
-0.477527
-0.399293
-0.346256
-0.327168
-0.339605
-0.369659
-0.396458
-0.399444
-0.365216
-0.300888
-0.216217
-0.117364
-0.0092804
0.10343
0.217037
0.329003
0.43798
0.543609
0.646213
0.746542
0.845535
0.944122
1.043
1.14238
1.24149
1.33726
1.42407
1.49455
1.54105
1.55749
1.54075
1.49115
1.41192
1.30804
1.18486
1.04888
0.905045
0.756597
0.606058
0.455887
0.308863
0.168329
0.0382942
-0.0763823
-0.17056
-0.238415
-0.264678
-0.211628
-0.0418095
0.19669
0.4292
0.582932
0.61301
0.516938
0.332583
0.122223
-0.0498899
-0.138406
-0.163764
-0.15477
-0.125886
-0.0843884
-0.03543
0.0165798
0.06847
0.118546
0.166538
0.213304
0.260364
0.309356
0.361485
0.417131
0.47562
0.534588
0.589115
0.632775
0.658915
0.662154
0.639778
0.592598
0.525027
0.444372
0.359602
0.27981
0.211536
0.160472
0.131204
0.126871
0.149162
0.198367
0.27612
0.397408
0.608371
0.991559
1.52841
2.10029
2.58325
2.84578
2.78734
2.38712
1.73976
1.04752
0.557095
0.399435
0.32078
0.25007
0.18089
0.113996
0.0530168
0.00364618
-0.027728
-0.0323371
0
0.0836618
0.208959
0.341364
0.439707
0.466623
0.397598
0.228296
-0.0224424
-0.315949
-0.381431
0.53885
2.62015
5.63984
8.93557
11.6265
12.9761
12.709
11.1021
8.80296
6.49715
4.63153
3.32918
2.48286
1.91042
1.59569
1.35264
1.13147
0.933914
0.762782
0.61844
0.498993
0.400753
0.318994
0.24884
0.186238
0.128836
0.0765618
0.0321743
0.000667095
-0.0118362
2.89917e-005
0.0391812
0.105048
0.193384
0.296919
0.406587
0.513186
0.608938
0.688438
0.749382
0.792618
0.821453
0.840401
0.853822
0.864997
0.876023
0.888415
0.904159
0.926433
0.959732
1.00929
1.08001
1.17457
1.29136
1.42806
1.58205
1.74991
1.92771
2.11149
2.29723
2.47988
2.65135
2.80036
2.91466
2.98129
2.99035
2.93912
2.83455
2.69249
2.53323
2.3753
2.22874
2.09309
1.96531
1.84406
1.72911
1.62187
1.52574
1.44567
1.38887
1.36758
1.39828
1.492
1.63549
1.78786
1.90544
1.95132
1.90191
1.75206
1.51853
1.23981
0.969517
0.762927
0.63655
0.580136
0.59283
0.663645
0.774865
0.906665
1.04134
1.1675
1.28098
1.37744
1.45297
1.50485
1.53109
1.53082
1.50496
1.45681
1.39233
1.31918
1.24826
1.19154
1.15892
1.1561
1.18328
1.2351
1.30193
1.37218
1.43487
1.48307
1.5156
1.53119
1.53073
1.51702
1.49463
1.46916
1.44779
1.43876
1.45071
1.49568
1.62958
1.93756
2.34158
2.71292
2.9263
2.91801
2.71693
2.42635
2.16299
1.99125
1.8899
1.80892
1.73487
1.6655
1.6007
1.54151
1.48966
1.44466
1.40347
1.36083
1.31032
1.24573
1.16225
1.05713
0.929754
0.779708
0.606904
0.417036
0.216837
0
0.497792
2.12324
4.97927
8.63853
12.2209
14.7285
15.4691
14.3397
11.8325
8.78465
6.01211
4.01078
2.84572
2.24713
1.84052
1.59916
1.38603
1.19858
1.05055
0.943917
0.870229
0.816443
0.769001
0.717385
0.656098
0.584848
0.507466
0.430428
0.360277
0.303592
0.266701
0.25467
0.270273
0.313014
0.381797
0.469019
0.560078
0.639962
0.697111
0.726453
0.730663
0.71923
0.705579
0.703086
0.720683
0.75846
0.814021
0.879936
0.946709
1.00623
1.05459
1.09356
1.12997
1.17349
1.23336
1.31531
1.41704
1.53287
1.65721
1.78365
1.90591
2.01866
2.11627
2.19035
2.23545
2.24705
2.22148
2.15763
2.05865
1.9324
1.79027
1.64454
1.50567
1.37792
1.26234
1.16024
1.07221
0.998424
0.938825
0.893225
0.861354
0.840306
0.822703
0.798936
0.759547
0.697749
0.611541
0.504701
0.386274
0.268715
0.165189
0.0850916
0.0351071
0.0173012
0.0291945
0.0647249
0.115752
0.173667
0.230757
0.281734
0.323432
0.353156
0.369214
0.37064
0.357096
0.328892
0.287101
0.233706
0.171731
0.105172
0.0392298
-0.0192032
-0.0633664
-0.0878018
-0.0895778
-0.0691256
-0.0303132
0.020402
0.0755616
0.12853
0.175118
0.213637
0.24451
0.269182
0.288743
0.303599
0.31334
0.317618
0.317307
0.315326
0.316743
0.328057
0.356348
0.417654
0.545156
0.772306
1.05296
1.30946
1.45456
1.41584
1.16989
0.764375
0.309488
-0.0605942
-0.24027
-0.294641
-0.297761
-0.272791
-0.226674
-0.165911
-0.0991817
-0.039809
-0.0022522
0
-0.0449478
-0.141512
-0.289039
-0.480556
-0.708561
-0.960187
-1.22076
-1.48135
-1.73915
-1.28014
0.177053
2.81466
6.30766
9.84856
12.4693
13.4732
12.7186
10.6087
7.84563
5.12488
2.92358
1.43161
0.587757
0.173477
-0.023629
-0.189927
-0.338268
-0.462542
-0.558012
-0.621647
-0.654561
-0.661897
-0.651637
-0.633851
-0.61852
-0.612838
-0.619979
-0.638738
-0.664142
-0.688976
-0.705889
-0.70951
-0.698304
-0.675468
-0.644901
-0.610871
-0.576988
-0.545071
-0.514606
-0.482936
-0.446067
-0.399792
-0.341105
-0.269012
-0.184106
-0.0881495
0.0160875
0.12509
0.234994
0.341868
0.441872
0.531879
0.609994
0.675759
0.73032
0.776349
0.817642
0.858434
0.902537
0.952511
1.00893
1.07043
1.13399
1.1951
1.24855
1.28902
1.31144
1.31176
1.28739
1.2374
1.16269
1.06612
0.952313
0.827228
0.697461
0.569392
0.44814
0.336979
0.237942
0.151626
0.0774693
0.0141119
-0.0402672
-0.0876461
-0.130009
-0.169279
-0.207051
-0.244418
-0.281834
-0.319091
-0.355424
-0.389735
-0.420759
-0.447336
-0.468407
-0.48286
-0.489378
-0.486414
-0.472412
-0.446294
-0.408051
-0.358858
-0.301604
-0.241723
-0.185546
-0.138853
-0.105659
-0.0875223
-0.0835566
-0.0910809
-0.10662
-0.126861
-0.149111
-0.171629
-0.193154
-0.212306
-0.227216
-0.235144
-0.232966
-0.217785
-0.187638
-0.142225
-0.0832209
-0.0137051
0.0612919
0.136864
0.209698
0.2792
0.347918
0.421221
0.51206
0.65541
0.883891
1.14529
1.34719
1.39185
1.21681
0.828523
0.314248
-0.179618
-0.503303
-0.631684
-0.643475
-0.565054
-0.437043
-0.301119
-0.188758
-0.105256
-0.0442705
-0.0085825
0
-0.0188475
-0.0670059
-0.144328
-0.257368
-0.405007
-0.574646
-0.753028
-0.930466
-1.10287
-0.523341
0.690409
2.65394
5.28913
8.16153
10.5611
11.8026
11.5638
10.0329
7.77319
5.42262
3.43364
1.98371
1.04429
0.501056
0.313546
0.151952
0.00655689
-0.116384
-0.212464
-0.279012
-0.310076
-0.305221
-0.277307
-0.241624
-0.211745
-0.195963
-0.19573
-0.20671
-0.221841
-0.234898
-0.243122
-0.247514
-0.249434
-0.250094
-0.249538
-0.246395
-0.238421
-0.223468
-0.200396
-0.16943
-0.13099
-0.0852207
-0.031263
0.0329294
0.110023
0.202138
0.309529
0.429658
0.556597
0.683947
0.805323
0.91522
1.00999
1.08833
1.15128
1.20174
1.24373
1.28177
1.32016
1.36268
1.41252
1.47229
1.54413
1.63055
1.73571
1.86308
2.00302
2.13079
2.21634
2.23242
2.16284
2.00734
1.78153
1.51269
1.23373
0.973979
0.743764
0.54376
0.375798
0.24577
0.157737
0.105277
0.0792017
0.0706297
0.073374
0.0851782
0.107298
0.14427
0.204627
0.282315
0.358814
0.410231
0.416923
0.371635
0.282266
0.168577
0.0551086
-0.0363041
-0.100006
-0.139679
-0.158465
-0.158124
-0.140212
-0.106873
-0.0606256
-0.00430679
0.0592491
0.126792
0.194056
0.256576
0.309992
0.350333
0.374207
0.378904
0.362529
0.324294
0.265046
0.183304
0.0836557
-0.0170855
-0.09886
-0.143506
-0.13965
-0.0849947
0.0150274
0.151312
0.315571
0.500585
0.722017
1.00125
1.30625
1.56816
1.70663
1.66775
1.44999
1.10474
0.715719
0.372268
0.138234
-0.0159197
-0.123885
-0.191537
-0.222125
-0.221554
-0.197448
-0.158075
-0.111477
-0.0650652
-0.0252262
0
0.00303593
-0.0240189
-0.088652
-0.216612
-0.431968
-0.724176
-1.07183
-1.44792
-0.879147
0.721033
3.28104
6.37964
9.32915
11.3939
12.0684
11.2804
9.40609
7.08129
4.91057
3.24323
2.12732
1.42433
1.0029
0.744705
0.495505
0.252711
0.0183199
-0.2061
-0.419958
-0.623256
-0.815406
-0.993805
-1.15321
-1.2855
-1.36727
-1.36416
-1.24422
-0.926594
-0.38241
0.217726
0.681792
0.883133
0.806939
0.539533
0.211615
-0.0689196
-0.251917
-0.37064
-0.455657
-0.512346
-0.536963
-0.526956
-0.482068
-0.404971
-0.301122
-0.177863
-0.0431038
0.0957464
0.233244
0.365918
0.49101
0.606502
0.711244
0.804902
0.88808
0.962401
1.03044
1.09547
1.16107
1.23059
1.30667
1.39091
1.48419
1.58646
1.69359
1.79229
1.86369
1.88781
1.84888
1.7406
1.56906
1.35205
1.11496
0.884736
0.678607
0.49895
0.346568
0.22458
0.13333
0.0714455
0.0365555
0.025749
0.0357466
0.0658926
0.115553
0.175603
0.232951
0.274923
0.29299
0.285596
0.2583
0.220775
0.181989
0.145952
0.110177
0.0705589
0.0229252
-0.0348366
-0.101131
-0.170055
-0.232046
-0.275584
-0.289734
-0.249391
-0.111864
0.13761
0.441365
0.721074
0.917972
1.00017
0.95743
0.794369
0.530876
0.211067
-0.089045
-0.285089
-0.350434
-0.317294
-0.22016
-0.0718424
0.109172
0.302492
0.489433
0.660031
0.803373
0.913456
0.98779
1.02656
1.03227
1.00939
0.963865
0.902175
0.830173
0.751912
0.669373
0.582534
0.490042
0.390644
0.284283
0.172958
0.0610838
-0.0421141
-0.0915529
0.101133
0.5638
1.10635
1.50443
1.59831
1.35558
0.872711
0.324468
-0.101206
-0.262029
-0.304131
-0.336574
-0.38267
-0.46705
-0.652792
-0.946134
-1.32756
-1.75795
-1.43978
0.191958
3.18622
7.03095
10.7863
13.4546
14.3955
13.5675
121
293
460
630
802
976
1140
1301
1463
1628
1794
1955
2118
2284
2453
2618
2780
2940
3102
3265
3426
3585
3626
3696
0
0
0
0
0
0
0
0
0
0
0
0
0
0
0
0
0
0
0
0
0
0
0
0
0
0
0
0
0
0
0
0
0
0
0
0
0
0
0
0
0
0
0
0
0
0
0
0
0
0
0
0
0
0
0
0
0
0
0
0
0
0
0
0
0
0
0
0
0
0
0
0
0
0
0
0
0
0
0
0
0
0
0
0
0
0
0
0
0
0
0
0
0
0
0
0
0
0
0
0
0
0
0
0
0
0
0
0
0
0
0
0
0
0
0
0
0
0
0
0
0
0
0
0
0
0
0
0
0
0
0
0
0
0
0
0
0
0
0
0
0
0
0
0
0
0
0
0
0
0
0
0
0
0
0
0
0
0
0
0
0
0
0
0
0
0
0
0
0
0
0
0
0
0
0
0
0
0
0
0
0
0
0
0
0
0
0
0
0
0
0
0
0
0
0
0
0
0
0
0
0
0
0
0
0
0
0
0
0
0
0
0
0
0
0
0
0
0
0
0
0
0
0
0
0
0
0
0
0
0
0
0
0
0
0
0
0
0
0
0
0
0
0
0
0
0
0
0
0
0
0
0
0
0
0
0
0
0
0
0
0
0
0
0
0
0
0
0
0
0
0
0
0
0
0
0
0
0
0
0
0
0
0
0
0
0
0
0
0
0
0
0
0
0
0
0
0
0
0
0
0
0
0
0
0
0
0
0
0
0
0
0
0
0
0
0
0
0
0
0
0
0
0
0
0
0
0
0
0
0
0
0
0
0
0
0
0
0
0
0
0
0
0
0
0
0
0
0
0
0
0
0
0
0
0
0
0
0
0
0
0
0
0
0
0
0
0
0
0
0
0
0
0
0
0
0
0
0
0
0
0
0
0
0
0
0
0
0
0
0
0
0
0
0
0
0
0
0
0
0
0
0
0
0
0
0
0
0
0
0
0
0
0
0
0
0
0
0
0
0
0
0
0
0
0
0
0
0
0
0
0
0
0
0
0
0
0
0
0
0
0
0
0
0
0
0
0
0
0
0
0
0
0
0
0
0
0
0
0
0
0
0
0
0
0
0
0
0
0
0
0
0
0
0
0
0
0
0
0
0
0
0
0
0
0
0
0
0
0
0
0
0
0
0
0
0
0
0
0
0
0
0
0
0
0
0
0
0
0
0
0
0
0
0
0
0
0
0
0
0
0
0
0
0
0
0
0
0
0
0
0
0
0
0
0
0
0
0
0
0
0
0
0
0
0
0
0
0
0
0
0
0
0
0
0
0
0
0
0
0
0
0
0
0
0
0
0
0
0
0
0
0
0
0
0
0
0
0
0
0
0
0
0
0
0
0
0
0
0
0
0
0
0
0
0
0
0
0
0
0
0
0
0
0
0
0
0
0
0
0
0
0
0
0
0
0
0
0
0
0
0
0
0
0
0
0
0
0
0
0
0
0
0
0
0
0
0
0
0
0
0
0
0
0
0
0
0
0
0
0
0
0
0
0
0
0
0
0
0
0
0
0
0
0
0
0
0
0
0
0
0
0
0
0
0
0
0
0
0
0
0
0
0
0
0
0
0
0
0
0
0
0
0
0
0
0
0
0
0
0
0
0
0
0
0
0
0
0
0
0
0
0
0
0
0
0
0
0
0
0
0
0
0
0
0
0
0
0
0
0
0
0
0
0
0
0
0
0
0
0
0
0
0
0
0
0
0
0
0
0
0
0
0
0
0
0
0
0
0
0
0
0
0
0
0
0
0
0
0
0
0
0
0
0
0
0
0
0
0
0
0
0
0
0
0
0
0
0
0
0
0
0
0
0
0
0
0
0
0
0
0
0
0
0
0
0
0
0
0
0
0
0
0
0
0
0
0
0
0
0
0
0
0
0
0
0
0
0
0
0
0
0
0
0
0
0
0
0
0
0
0
0
0
0
0
0
0
0
0
0
0
0
0
0
0
0
0
0
0
0
0
0
0
0
0
0
0
0
0
0
0
0
0
0
0
0
0
0
0
0
0
0
0
0
0
0
0
0
0
0
0
0
0
0
0
0
0
0
0
0
0
0
0
0
0
0
0
0
0
0
0
0
0
0
0
0
0
0
0
0
0
0
0
0
0
0
0
0
0
0
0
0
0
0
0
0
0
0
0
0
0
0
0
0
0
0
0
0
0
0
0
0
0
0
0
0
0
0
0
0
0
0
0
0
0
0
0
0
0
0
0
0
0
0
0
0
0
0
0
0
0
0
0
0
0
0
0
0
0
0
0
0
0
0
0
0
0
0
0
0
0
0
0
0
0
0
0
0
0
0
0
0
0
0
0
0
0
0
0
0
0
0
0
0
0
0
0
0
0
0
0
0
0
0
0
0
0
0
0
0
0
0
0
0
0
0
0
0
0
0
0
0
0
0
0
0
0
0
0
0
0
0
0
0
0
0
0
0
0
0
0
0
0
0
0
0
0
0
0
0
0
0
0
0
0
0
0
0
0
0
0
0
0
0
0
0
0
0
0
0
0
0
0
0
0
0
0
0
0
0
0
0
0
0
0
0
0
0
0
0
0
0
0
0
0
0
0
0
0
0
0
0
0
0
0
0
0
0
0
0
0
0
0
0
0
0
0
0
0
0
0
0
0
0
0
0
0
0
0
0
0
0
0
0
0
0
0
0
0
0
0
0
0
0
0
0
0
0
0
0
0
0
0
0
0
0
0
0
0
0
0
0
0
0
0
0
0
0
0
0
0
0
0
0
0
0
0
0
0
0
0
0
0
0
0
0
0
0
0
0
0
0
0
0
0
0
0
0
0
0
0
0
0
0
0
0
0
0
0
0
0
0
0
0
0
0
0
0
0
0
0
0
0
0
0
0
0
0
0
0
0
0
0
0
0
0
0
0
0
0
0
0
0
0
0
0
0
0
0
0
0
0
0
0
0
0
0
0
0
0
0
0
0
0
0
0
0
0
0
0
0
0
0
0
0
0
0
0
0
0
0
0
0
0
0
0
0
0
0
0
0
0
0
0
0
0
0
0
0
0
0
0
0
0
0
0
0
0
0
0
0
0
0
0
0
0
0
0
0
0
0
0
0
0
0
0
0
0
0
0
0
0
0
0
0
0
0
0
0
0
0
0
0
0
0
0
0
0
0
0
0
0
0
0
0
0
0
0
0
0
0
0
0
0
0
0
0
0
0
0
0
0
0
0
0
0
0
0
0
0
0
0
0
0
0
0
0
0
0
0
0
0
0
0
0
0
0
0
0
0
0
0
0
0
0
0
0
0
0
0
0
0
0
0
0
0
0
0
0
0
0
0
0
0
0
0
0
0
0
0
0
0
0
0
0
0
0
0
0
0
0
0
0
0
0
0
0
0
0
0
0
0
0
0
0
0
0
0
0
0
0
0
0
0
0
0
0
0
0
0
0
0
0
0
0
0
0
0
0
0
0
0
0
0
0
0
0
0
0
0
0
0
0
0
0
0
0
0
0
0
0
0
0
0
0
0
0
0
0
0
0
0
0
0
0
0
0
0
0
0
0
0
0
0
0
0
0
0
0
0
0
0
0
0
0
0
0
0
0
0
0
0
0
0
0
0
0
0
0
0
0
0
0
0
0
0
0
0
0
0
0
0
0
0
0
0
0
0
0
0
0
0
0
0
0
0
0
0
0
0
0
0
0
0
0
0
0
0
0
0
0
0
0
0
0
0
0
0
0
0
0
0
0
0
0
0
0
0
0
0
0
0
0
0
0
0
0
0
0
0
0
0
0
0
0
0
0
0
0
0
0
0
0
0
0
0
0
0
0
0
0
0
0
0
0
0
0
0
0
0
0
0
0
0
0
0
0
0
0
0
0
0
0
0
0
0
0
0
0
0
0
0
0
0
0
0
0
0
0
0
0
0
0
0
0
0
0
0
0
0
0
0
0
0
0
0
0
0
0
0
0
0
0
0
0
0
0
0
0
0
0
0
0
0
0
0
0
0
0
0
0
0
0
0
0
0
0
0
0
0
0
0
0
0
0
0
0
0
0
0
0
0
0
0
0
0
0
0
0
0
0
0
0
0
0
0
0
0
0
0
0
0
0
0
0
0
0
0
0
0
0
0
0
0
0
0
0
0
0
0
0
0
0
0
0
0
0
0
0
0
0
0
0
0
0
0
0
0
0
0
0
0
0
0
0
0
0
0
0
0
0
0
0
0
0
0
0
0
0
0
0
0
0
0
0
0
0
0
0
0
0
0
0
0
0
0
0
0
0
0
0
0
0
0
0
0
0
0
0
0
0
0
0
0
0
0
0
0
0
0
0
0
0
0
0
0
0
0
0
0
0
0
0
0
0
0
0
0
0
0
0
0
0
0
0
0
0
0
0
0
0
0
0
0
0
0
0
0
0
0
0
0
0
0
0
0
0
0
0
0
0
0
0
0
0
0
0
0
0
0
0
0
0
0
0
0
0
0
0
0
0
0
0
0
0
0
0
0
0
0
0
0
0
0
0
0
0
0
0
0
0
0
0
0
0
0
0
0
0
0
0
0
0
0
0
0
0
0
0
0
0
0
0
0
0
0
0
0
0
0
0
0
0
0
0
0
0
0
0
0
0
0
0
0
0
0
0
0
0
0
0
0
0
0
0
0
0
0
0
0
0
0
0
0
0
0
0
0
0
0
0
0
0
0
0
0
0
0
0
0
0
0
0
0
0
0
0
0
0
0
0
0
0
0
0
0
0
0
0
0
0
0
0
0
0
0
0
0
0
0
0
0
0
0
0
0
0
0
0
0
0
0
0
0
0
0
0
0
0
0
0
0
0
0
0
0
0
0
0
0
0
0
0
0
0
0
0
0
0
0
0
0
0
0
0
0
0
0
0
0
0
0
0
0
0
0
0
0
0
0
0
0
0
0
0
0
0
0
0
0
0
0
0
0
0
0
0
0
0
0
0
0
0
0
0
0
0
0
0
0
0
0
0
0
0
0
0
0
0
0
0
0
0
0
0
0
0
0
0
0
0
0
0
0
0
0
0
0
0
0
0
0
0
0
0
0
0
0
0
0
0
0
0
0
0
0
0
0
0
0
0
0
0
0
0
0
0
0
0
0
0
0
0
0
0
0
0
0
0
0
0
0
0
0
0
0
0
0
0
0
0
0
0
0
0
0
0
0
0
0
0
0
0
0
0
0
0
0
0
0
0
0
0
0
0
0
0
0
0
0
0
0
0
0
0
0
0
0
0
0
0
0
0
0
0
0
0
0
0
0
0
0
0
0
0
0
0
0
0
0
0
0
0
0
0
0
0
0
0
0
0
0
0
0
0
0
0
0
0
0
0
0
0
0
0
0
0
0
0
0
0
0
0
0
0
0
0
0
0
0
0
0
0
0
0
0
0
0
0
0
0
0
0
0
0
0
0
0
0
0
0
0
0
0
0
0
0
0
0
0
0
0
0
0
0
0
0
0
0
0
0
0
0
0
0
0
0
0
0
0
0
0
0
0
0
0
0
0
0
0
0
0
0
0
0
0
0
0
0
0
0
0
0
0
0
0
0
0
0
0
0
0
0
0
0
0
0
0
0
0
0
0
0
0
0
0
0
0
0
0
0
0
0
0
0
0
0
0
0
0
0
0
0
0
0
0
0
0
0
0
0
0
0
0
0
0
0
0
0
0
0
0
0
0
0
0
0
0
0
0
0
0
0
0
0
0
0
0
0
0
0
0
0
0
0
0
0
0
0
0
0
0
0
0
0
0
0
0
0
0
0
0
0
0
0
0
0
0
0
0
0
0
0
0
0
0
0
0
0
0
0
0
0
0
0
0
0
0
0
0
0
0
0
0
0
0
0
0
0
0
0
0
0
0
0
0
0
0
0
0
0
0
0
0
0
0
0
0
0
0
0
0
0
0
0
0
0
0
0
0
0
0
0
0
0
0
0
0
0
0
0
0
0
0
0
0
0
0
0
0
0
0
0
0
0
0
0
0
0
0
0
0
0
0
0
0
0
0
0
0
0
0
0
0
0
0
0
0
0
0
0
0
0
0
0
0
0
0
0
0
0
0
0
0
0
0
0
0
0
0
0
0
0
0
0
0
0
0
0
0
0
0
0
0
0
0
0
0
0
0
0
0
0
0
0
0
0
0
0
0
0
0
0
0
0
0
0
0
0
0
0
0
0
0
0
0
0
0
0
0
0
0
0
0
0
0
0
0
0
0
0
0
0
0
0
0
0
0
0
0
0
0
0
0
0
0
0
0
0
0
0
0
0
0
0
0
0
0
0
0
0
0
0
0
0
0
0
0
0
0
0
0
0
0
0
0
0
0
0
0
0
0
0
0
0
0
0
0
0
0
0
0
0
0
0
0
0
0
0
0
0
0
0
0
0
0
0
0
0
0
0
0
0
0
0
0
0
0
0
0
0
0
0
0
0
0
0
0
0
0
0
0
0
0
0
0
0
0
0
0
0
0
0
0
0
0
0
0
0
0
0
0
0
0
0
0
0
0
0
0
0
0
0
0
0
0
0
0
0
0
0
0
0
0
0
0
0
0
0
0
0
0
0
0
0
0
0
0
0
0
0
0
0
0
0
0
0
0
0
0
0
0
0
0
0
0
0
0
0
0
0
0
0
0
0
0
0
0
0
0
0
0
0
0
0
0
0
0
0
0
0
0
0
0
0
0
0
0
0
0
0
0
0
0
0
0
0
0
0
0
0
0
0
0
0
0
0
0
0
0
0
0
0
0
0
0
0
0
0
0
0
0
0
0
0
0
0
0
0
0
0
0
0
0
0
0
0
0
0
0
0
0
0
0
0
0
0
0
0
0
0
0
0
0
0
0
0
0
0
0
0
0
0
0
0
0
0
0
0
0
0
0
0
0
0
0
0
0
0
0
0
0
0
0
0
0
0
0
0
0
0
0
0
0
0
0
0
0
0
0
0
0
0
0
0
0
0
0
0
0
0
0
0
0
0
0
0
0
0
0
0
0
0
0
0
0
0
0
0
0
0
0
0
0
0
0
0
0
0
0
0
0
0
0
0
0
0
0
0
0
0
0
0
0
0
0
0
0
0
0
0
0
0
0
0
0
0
0
0
0
0
0
0
0
0
0
0
0
0
0
0
0
0
0
0
0
0
0
0
0
0
0
0
0
0
0
0
0
0
0
0
0
0
0
0
0
0
0
0
0
0
0
0
0
0
0
0
0
0
0
0
0
0
0
0
0
0
0
0
0
0
0
0
0
0
0
0
0
0
0
0
0
0
0
0
0
0
0
0
0
0
0
0
0
0
0
0
0
0
0
0
0
0
0
0
0
0
0
0
0
0
0
0
0
0
0
0
0
0
0
0
0
0
0
0
0
0
0
0
0
0
0
0
0
0
0
0
0
0
0
0
0
0
0
0
0
0
0
0
0
0
0
0
0
0
0
0
0
0
0
0
0
0
0
0
0
0
0
0
0
0
0
0
0
0
0
0
0
0
0
0
0
0
0
0
0
0
0
0
0
0
0
0
0
0
0
0
0
0
0
0
0
0
0
0
0
0
0
0
0
0
0
0
0
0
0
0
0
0
0
0
0
0
0
0
0
0
0
0
0
0
0
0
0
0
0
0
0
0
0
0
0
0
0
0
0
0
0
0
0
0
0
0
0
0
0
0
0
0
0
0
0
0
0
0
0
0
0
0
0
0
0
0
0
0
0
0
0
0
0
0
0
0
0
0
0
0
0
0
0
0
0
0
0
0
0
0
0
0
0
0
0
0
0
0
0
0
0
0
0
0
0
0
0
0
0
0
0
0
0
0
0
0
0
0
0
0
0
0
0
0
0
0
0
0
0
0
0
0
0
0
0
0
0
0
0
0
0
0
0
0
0
0
0
0
0
0
0
0
0
0
0
0
0
0
0
0
0
0
0
0
0
0
0
0
0
0
0
0
0
0
0
0
0
0
0
0
0
0
0
0
0
0
0
0
0
0
0
0
0
0
0
0
0
0
0
0
0
0
0
0
0
0
0
0
0
0
0
0
0
0
0
0
0
0
0
0
0
0
0
0
0
0
0
0
0
0
0
0
0
0
0
0
0
0
0
0
0
0
0
0
0
0
0
0
0
0
0
0
0
0
0
0
0
0
0
0
0
0
0
0
0
0
0
0
0
0
0
0
0
0
0
0
0
0
0
0
0
0
0
0
0
0
0
0
0
0
0
0
0
0
0
0
0
0
0
0
0
0
0
0
0
0
0
0
0
0
0
0
0
0
0
0
0
0
0
0
0
0
0
0
0
0
0
0
0
0
0
0
0
0
0
0
0
0
0
0
0
0
0
0
0
0
0
0
0
0
0
0
0
0
0
0
0
0
0
0
0
0
0
0
0
0
0
0
0
0
0
0
0
0
0
0
0
0
0
0
0
0
0
0
0
0
0
0
0
0
0
0
0
0
0
0
0
0
0
0
0
0
0
0
0
0
0
0
0
0
0
0
