2.02279
2.01204
2.01365
2.02662
2.05008
2.08187
2.11635
2.14598
2.16345
2.16353
2.14469
2.10968
2.06485
2.01849
1.97871
1.95033
1.93383
1.92846
1.93371
1.94831
1.97045
1.99809
2.02922
2.06203
2.09493
2.12667
2.15627
2.18298
2.20614
2.22493
2.23855
2.2463
2.2477
2.2427
2.23187
2.21642
2.19803
2.17861
2.15999
2.14362
2.13056
2.12167
2.11772
2.11942
2.12743
2.14219
2.16368
2.19126
2.22375
2.25971
2.29778
2.3372
2.37818
2.422
2.47097
2.52952
2.60738
2.71722
2.84778
2.968
3.0409
3.03833
2.95299
2.80201
2.62016
2.44588
2.30725
2.20047
2.11294
2.03931
1.97894
1.93195
1.89888
1.88109
1.88292
1.91002
1.95698
2.00933
2.05067
2.06797
2.05562
2.01622
1.95792
1.89015
1.82029
1.7628
1.46213
0.830765
0.0379318
-0.475517
0
2.02113
5.81952
11.0696
16.8837
22.0034
25.1612
25.4994
22.9017
18.0811
12.3436
7.10098
3.35344
1.40286
0.91996
1.26343
1.4877
1.68466
1.83455
1.93023
1.9831
2.00785
2.02312
2.04591
2.08596
2.14247
2.2126
2.28553
2.34897
2.3935
2.41578
2.41944
2.41359
2.40966
2.41799
2.44258
2.48196
2.53455
2.59899
2.67347
2.75594
2.84447
2.93736
3.03326
3.1312
3.23069
3.33178
3.4351
3.54179
3.65321
3.77171
3.90101
4.03871
4.1703
4.2763
4.33941
4.35155
4.31758
4.25385
4.18249
4.12365
4.0866
4.06585
4.05642
4.05211
4.04629
4.03378
4.01192
3.98049
3.94048
3.89244
3.83495
3.76591
3.68201
3.57896
3.45352
3.30436
3.13246
2.94104
2.73509
2.52141
2.30558
2.09239
1.88594
1.68935
1.50481
1.33364
1.17666
1.03476
0.909117
0.801549
0.714128
0.647925
0.603605
0.5809
0.578247
0.592769
0.620637
0.657738
0.700393
0.745822
0.792211
0.838561
0.883944
0.92704
0.966024
0.998692
1.02295
1.03746
1.04213
1.03844
1.02931
1.01876
1.01107
1.00977
1.01729
1.03468
1.0612
1.09505
1.13293
1.1713
1.20719
1.23896
1.26648
1.2909
1.314
1.33733
1.3615
1.38508
1.40448
1.41517
1.4134
1.39775
1.36999
1.33483
1.29859
1.26722
1.24413
1.22982
1.21933
1.2045
1.1771
1.13212
1.07
0.996934
0.923095
0.859474
0.814645
0.788057
0.779405
0.786542
0.80604
0.834233
0.867357
0.902833
0.938805
0.973259
1.00351
1.02633
1.03832
1.03644
1.0188
0.985387
0.938403
0.882078
0.821876
0.763304
0.710333
0.664986
0.627995
0.597054
0.569181
0.542584
0.518214
0.500303
0.495562
0.511197
0.566086
0.671825
0.802958
0.921382
0.992702
1.00037
0.950846
0.868354
0.783026
0.718835
0.681361
0.661541
0.653387
0.654455
0.662954
0.677224
0.69585
0.717277
0.739397
0.759563
0.774635
0.781136
0.775524
0.754549
0.715671
0.657552
0.577888
0.469316
0.341463
0.220926
0.137495
0.11422
0.158869
0.261239
0.398047
0.543159
0.67802
0.801273
0.918724
1.03345
1.14806
1.26468
1.3828
1.49617
1.59293
1.65952
1.68373
1.65746
1.57901
1.45443
1.29739
1.12738
0.966089
0.829223
0.71966
0.634717
0.573305
0.53534
0.519408
0.522144
0.53702
0.554926
0.566952
0.565491
0.545072
0.502786
0.438251
0.351957
0.218407
-0.0412106
-0.413124
-0.863255
-1.33392
-1.24023
0
2.81474
7.16578
12.404
17.3807
20.8071
21.7183
19.8493
15.7499
10.5786
5.65765
1.99329
-0.021298
-0.60316
-0.328248
0.00351868
0.282103
0.47247
0.566309
0.615052
0.647807
0.672215
0.693831
0.717651
0.747657
0.786635
0.836025
0.895824
0.964903
1.0414
1.12215
1.20415
1.28534
1.36485
1.44299
1.52057
1.59822
1.67538
1.74943
1.81661
1.87384
1.92051
1.95917
1.99475
2.03283
2.07785
2.13148
2.19339
2.26428
2.34537
2.43858
2.54593
2.6684
2.80884
2.96227
3.11309
3.24329
3.33847
3.39239
3.40785
3.39374
3.36001
3.31325
3.25726
3.19327
3.11988
3.03588
2.94106
2.83627
2.7231
2.60332
2.4781
2.34721
2.20976
2.0645
1.91082
1.74971
1.58435
1.42004
1.26342
1.12134
1.00171
0.909108
0.841162
0.791098
0.74946
0.706317
0.653353
0.585385
0.501141
0.403278
0.297773
0.192608
0.0953529
0.0128422
-0.0498718
-0.0901432
-0.107856
-0.105083
-0.0854668
-0.0535585
-0.0146103
0.0270212
0.0662579
0.0988367
0.122221
0.136408
0.144425
0.152087
0.166847
0.19592
0.244448
0.320775
0.419726
0.52459
0.615901
0.677567
0.70113
0.687064
0.643427
0.582983
0.519833
0.465306
0.424215
0.396898
0.381419
0.375024
0.374901
0.377922
0.38127
0.382863
0.381517
0.376828
0.368894
0.358012
0.344562
0.328862
0.31123
0.292146
0.272303
0.252545
0.23371
0.216429
0.200947
0.187033
0.173953
0.160519
0.145189
0.126231
0.101955
0.0710661
0.0329739
-0.0127632
-0.064819
-0.117726
-0.163194
-0.192754
-0.200064
-0.182696
-0.14275
-0.0860796
-0.0205235
0.0460949
0.107946
0.162716
0.208477
0.24414
0.269483
0.285165
0.292758
0.294712
0.294134
0.294365
0.298455
0.308645
0.325515
0.348799
0.377617
0.410424
0.445339
0.480046
0.512411
0.540931
0.565039
0.585241
0.60301
0.620458
0.639839
0.663011
0.690765
0.72288
0.758551
0.796372
0.834373
0.870562
0.903522
0.932842
0.959321
0.984858
1.01201
1.04332
1.08182
1.12869
1.17928
1.22492
1.25628
1.26689
1.25599
1.22969
1.20004
1.18227
1.19109
1.23223
1.30293
1.39855
1.51537
1.65009
1.79767
1.95159
2.10305
2.23971
2.34935
2.42193
2.44891
2.42545
2.35343
2.24312
2.11186
1.97948
1.86222
1.76432
1.68082
1.60821
1.54544
1.4919
1.44765
1.41323
1.39052
1.3811
1.38087
1.38188
1.37346
1.34416
1.22516
0.890562
0.424372
-0.062138
-0.485145
0
1.74168
5.0036
9.63379
14.972
19.9472
23.3548
24.2466
22.3002
18.0008
12.5157
7.2709
3.40661
1.38204
0.922383
1.31139
1.42068
1.5188
1.59864
1.65953
1.71118
1.75934
1.81021
1.87024
1.94873
2.04896
2.15341
2.23753
2.27916
2.268
2.21128
2.13254
2.0633
2.03184
2.05123
2.10569
2.18217
2.27528
2.38179
2.49829
2.62122
2.74697
2.87206
2.99347
3.10905
3.21784
3.32017
3.41747
3.5118
3.60528
3.69948
3.79506
3.89165
3.98799
4.08215
4.17143
4.25158
4.31756
4.36592
4.39422
4.40198
4.39142
4.36767
4.33793
4.3098
4.28922
4.27788
4.27325
4.27245
4.27044
4.26088
4.23704
4.19276
4.12322
4.02563
3.8998
3.74831
3.57641
3.39151
3.20219
3.01612
2.83956
2.67739
2.53244
2.40563
2.29648
2.20351
2.12475
2.05801
2.00186
1.95362
1.90997
1.86805
1.8262
1.78456
1.74512
1.71119
1.68618
1.67241
1.66939
1.67547
1.68752
1.70195
1.71562
1.72663
1.73436
1.73912
1.74132
1.74066
1.73524
1.72216
1.69814
1.66101
1.61111
1.55219
1.49131
1.43765
1.40513
1.42356
1.50524
1.61787
1.71432
1.75383
1.7193
1.6234
1.50182
1.39701
1.33954
1.32423
1.3287
1.34125
1.35599
1.36829
1.37561
1.37763
1.37588
1.37286
1.37108
1.37201
1.37573
1.38136
1.38672
1.38851
1.3831
1.36717
1.3383
1.29552
1.23952
1.17273
1.09912
1.02373
0.952179
0.889895
0.84128
0.809054
0.793833
0.794088
0.806459
0.826378
0.848799
0.868944
0.883217
0.888691
0.883597
0.867381
0.840727
0.805474
0.764359
0.720611
0.677456
0.63766
0.603116
0.575068
0.554193
0.540845
0.535237
0.537452
0.547281
0.563969
0.586314
0.611988
0.638025
0.661509
0.680203
0.693035
0.700262
0.703299
0.704301
0.705665
0.709545
0.71747
0.730567
0.749412
0.773951
0.803424
0.836618
0.871067
0.903663
0.931309
0.951585
0.963296
0.966716
0.96342
0.95576
0.946148
0.936403
0.927308
0.918807
0.910349
0.901385
0.891956
0.883184
0.877554
0.879084
0.892432
0.922127
0.971512
1.04183
1.13167
1.23696
1.35145
1.46757
1.57735
1.67294
1.74768
1.79657
1.81614
1.80448
1.7611
1.68706
1.58499
1.45914
1.31527
1.16037
1.00187
0.846529
0.700003
0.567274
0.45237
0.358263
0.286907
0.240605
0.223668
0.236456
0.272149
0.321236
0.373722
0.265493
-0.272291
-1.08238
-1.89358
-2.34893
-1.85749
0
3.45122
8.32509
13.9568
19.2511
22.9479
24.0368
22.1622
17.8185
12.2095
6.80057
2.76378
0.587058
0.0224546
0.36803
0.449497
0.523621
0.58517
0.632342
0.667207
0.693508
0.71577
0.738136
0.763251
0.793045
0.828769
0.871037
0.919796
0.974434
1.03389
1.09624
1.15985
1.22413
1.29005
1.36011
1.43765
1.5257
1.63111
1.75388
1.87858
1.98516
2.0577
2.09196
2.09818
2.09738
2.11293
2.16125
2.24211
2.34145
2.45041
2.56404
2.67827
2.79042
2.89925
3.00462
3.10694
3.20691
3.30519
3.40232
3.49872
3.59455
3.68933
3.78115
3.8663
3.93938
3.9942
4.0249
4.02682
3.99691
3.93356
3.83641
3.70636
3.54884
3.37079
3.17935
2.98203
2.78666
2.6005
2.42969
2.27906
2.15163
2.04796
1.96541
1.89883
1.84217
1.78979
1.73753
1.68329
1.62719
1.57106
1.51771
1.46981
1.42926
1.39691
1.37214
1.3533
1.33826
1.32499
1.31207
1.29889
1.28568
1.27339
1.26334
1.25698
1.25573
1.26093
1.27366
1.29461
1.32409
1.3623
1.40799
1.45605
1.49893
1.5291
1.54124
1.53396
1.51042
1.47746
1.44348
1.41593
1.3982
1.38921
1.38692
1.38942
1.39438
1.39959
1.40327
1.40426
1.40196
1.39625
1.38731
1.37557
1.36164
1.3463
1.3306
1.31589
1.30371
1.2957
1.29327
1.29744
1.3088
1.32735
1.35121
1.37618
1.39761
1.41156
1.41596
1.41116
1.39969
1.38541
1.37226
1.36306
1.35836
1.3575
1.35954
1.36329
1.3675
1.37111
1.37334
1.37368
1.37192
1.36829
1.36358
1.35919
1.35751
1.36137
1.37363
1.39636
1.43025
1.4743
1.52604
1.5821
1.63908
1.69421
1.74568
1.79205
1.83149
1.86181
1.88039
1.88411
1.87018
1.8372
1.78605
1.72031
1.64598
1.57046
1.50112
1.44311
1.39977
1.37282
1.36215
1.3663
1.383
1.40961
1.44338
1.48248
1.52394
1.56517
1.60462
1.64233
1.68002
1.72048
1.7664
1.81903
1.87739
1.93796
1.99724
2.05206
2.10047
2.1424
2.17974
2.21585
2.25476
2.3001
2.35486
2.4231
2.50907
2.60946
2.70731
2.78165
2.81347
2.79224
2.72047
2.61419
2.49809
2.397
2.32616
2.27823
2.2427
2.21339
2.1836
2.14785
2.10312
2.04929
1.98869
1.92495
1.86168
1.80103
1.74416
1.69575
1.57818
1.18185
0.537382
-0.153515
-0.530668
0
1.89566
5.36809
10.1637
15.5073
20.2381
23.141
23.3864
20.8846
16.3618
11.0837
6.34676
3.00083
1.2412
0.730464
0.919885
1.2092
1.46438
1.66056
1.7894
1.87973
1.9555
2.02455
2.0925
2.16308
2.2378
2.31606
2.39646
2.47754
2.55826
2.63841
2.71854
2.79978
2.88354
2.96846
3.04643
3.10546
3.13469
3.13008
3.09827
3.05646
3.02837
3.03762
3.0997
3.20518
3.34127
3.50039
3.67693
3.86598
4.05603
4.2298
4.37237
4.47463
4.53587
4.56436
4.57484
4.58381
4.60402
4.64082
4.68795
4.73908
4.7896
4.83518
4.87245
4.89914
4.91404
4.91664
4.90679
4.88447
4.84967
4.80235
4.74239
4.66955
4.58338
4.48337
4.36873
4.2385
4.092
3.92926
3.75163
3.5621
3.36538
3.16756
2.97546
2.79571
2.63393
2.49405
2.37772
2.28445
2.21201
2.15741
2.11771
2.09064
2.07485
2.06972
2.07644
2.09849
2.1344
2.17181
2.19469
2.18913
2.14924
2.08024
1.9966
1.91655
1.85551
1.81735
1.79525
1.7854
1.78569
1.79347
1.80592
1.82044
1.83479
1.84724
1.8566
1.86229
1.8643
1.86301
1.85911
1.85332
1.84624
1.83817
1.82914
1.81886
1.80683
1.79251
1.77541
1.75524
1.73191
1.70555
1.67649
1.64517
1.61203
1.5775
1.5419
1.50545
1.4683
1.43054
1.39232
1.35387
1.31561
1.27815
1.2422
1.20847
1.1776
1.15005
1.12609
1.10593
1.08998
1.07889
1.07351
1.0746
1.08237
1.09663
1.11568
1.13586
1.15286
1.16275
1.16296
1.15293
1.13409
1.10943
1.08261
1.05708
1.03521
1.0181
1.00626
0.999883
0.998932
1.00321
1.01241
1.02603
1.04336
1.06337
1.08482
1.10638
1.1269
1.14561
1.1622
1.17682
1.18992
1.20205
1.21365
1.22495
1.23594
1.24641
1.25608
1.26476
1.27239
1.2793
1.28645
1.29558
1.30933
1.33112
1.36486
1.41423
1.48193
1.56885
1.67345
1.79299
1.92149
2.05044
2.16917
2.26597
2.33215
2.36171
2.35153
2.30167
2.21577
2.10122
1.96889
1.83191
1.70375
1.59356
1.50396
1.43648
1.39366
1.3753
1.37498
1.38121
1.38202
1.36715
1.32948
1.26583
1.17665
1.05092
0.81911
0.448919
-0.0301227
-0.554967
-0.727475
0
2.11244
5.80162
10.7608
16.1392
20.7432
23.4188
23.4499
20.8067
16.1616
10.6857
5.68191
2.15495
0.480098
0.334527
0.953763
1.26107
1.4422
1.48574
1.4863
1.49354
1.51575
1.55476
1.60621
1.66255
1.71694
1.76674
1.81347
1.85907
1.90623
1.9579
2.01652
2.08387
2.16089
2.24745
2.34227
2.44315
2.54731
2.65135
2.75228
2.84815
2.93839
3.02388
3.10652
3.18869
3.27262
3.35991
3.45124
3.54676
3.6463
3.74957
3.85609
3.96513
4.07551
4.18542
4.29246
4.39376
4.4862
4.56707
4.63451
4.68762
4.72646
4.7517
4.7642
4.76456
4.75241
4.72681
4.68652
4.63037
4.55783
4.46958
4.36752
4.25449
4.13351
4.00694
3.87614
3.74084
3.59973
3.45111
3.29378
3.12778
2.95493
2.77893
2.60507
2.43942
2.28824
2.15672
2.04891
1.96922
1.91869
1.8918
1.88086
1.87765
1.87499
1.86787
1.854
1.83367
1.80924
1.78433
1.76261
1.74691
1.73931
1.74095
1.75193
1.77124
1.79697
1.82654
1.85702
1.88519
1.90726
1.9204
1.92297
1.91513
1.89918
1.87951
1.86188
1.85204
1.85423
1.86989
1.8965
1.93059
1.96759
2.00309
2.03407
2.05877
2.07667
2.08818
2.09416
2.0957
2.09342
2.08757
2.07822
2.06529
2.04876
2.02873
2.00542
1.97899
1.94945
1.91634
1.87881
1.8359
1.78691
1.73203
1.6728
1.61239
1.55521
1.50619
1.46966
1.45276
1.45719
1.47694
1.50333
1.52844
1.54787
1.56155
1.57234
1.58339
1.59559
1.60672
1.61258
1.60869
1.59209
1.56244
1.52216
1.47576
1.42889
1.38684
1.35426
1.33555
1.33413
1.35188
1.38853
1.44138
1.50539
1.57395
1.63989
1.6968
1.7399
1.76661
1.77666
1.77171
1.7546
1.72866
1.697
1.66223
1.62642
1.5911
1.55781
1.52825
1.50432
1.48804
1.48133
1.48598
1.50355
1.53547
1.58303
1.64734
1.72825
1.82541
1.93813
2.0653
2.20429
2.35158
2.50207
2.64592
2.76915
2.85754
2.89649
2.87557
2.79503
2.66909
2.52211
2.37815
2.24963
2.13011
2.0114
1.88961
1.76353
1.63573
1.51263
1.40411
1.33671
1.3526
1.44327
1.55824
1.63557
1.62462
1.49963
1.26231
0.905814
0.482201
0.0395794
-0.399356
0
1.56922
4.60273
8.9813
14.1042
19.018
22.658
24.1208
22.9449
19.3498
14.2793
9.10147
5.04059
2.66356
1.76222
1.67325
1.67673
1.68533
1.70327
1.73291
1.77431
1.82512
1.8812
1.93773
1.99052
2.03714
2.07719
2.11178
2.14299
2.17305
2.20378
2.23638
2.27196
2.31169
2.35695
2.40917
2.46968
2.53936
2.61828
2.70582
2.80107
2.90281
3.00961
3.11988
3.23176
3.34304
3.45083
3.55177
3.6425
3.72021
3.78318
3.83125
3.86606
3.89092
3.91038
3.92952
3.95323
3.98529
4.02772
4.08061
4.14263
4.2114
4.28349
4.35455
4.42011
4.47596
4.51838
4.5441
4.5501
4.5331
4.49031
4.41939
4.31903
4.18952
4.03334
3.8552
3.66166
3.46031
3.25873
3.063
2.87785
2.70647
2.55073
2.41147
2.28891
2.18289
2.09298
2.01881
1.9594
1.91229
1.87446
1.84274
1.81427
1.78686
1.75919
1.73076
1.70168
1.67248
1.64382
1.61642
1.59106
1.56852
1.54947
1.53439
1.52346
1.51637
1.51237
1.51033
1.50902
1.50732
1.5045
1.50042
1.4956
1.49123
1.48893
1.49055
1.49778
1.51182
1.53322
1.56174
1.59602
1.63281
1.66641
1.69034
1.69906
1.68964
1.66294
1.62391
1.58072
1.54267
1.51767
1.51623
1.53464
1.55928
1.57316
1.56291
1.52395
1.46157
1.38786
1.31624
1.25657
1.20877
1.16963
1.13752
1.11149
1.09075
1.07488
1.06372
1.05714
1.0548
1.05587
1.05909
1.06283
1.06545
1.06571
1.06313
1.05826
1.05264
1.04857
1.0485
1.05535
1.07227
1.09647
1.12012
1.13379
1.12995
1.10591
1.06458
1.01308
0.960124
0.913681
0.877003
0.851405
0.839046
0.841198
0.857978
0.88805
0.928545
0.975353
1.02382
1.06962
1.1099
1.14334
1.16985
1.19042
1.20666
1.22042
1.23342
1.24728
1.26375
1.28486
1.31304
1.35106
1.40171
1.46735
1.54937
1.64796
1.7638
1.89583
2.03798
2.17619
2.2937
2.37567
2.41174
2.39786
2.337
2.23833
2.11502
1.98122
1.84935
1.72613
1.61337
1.51173
1.42221
1.34588
1.2832
1.23409
1.19777
1.17269
1.1565
1.14642
1.13951
1.13306
1.11599
0.914007
0.452602
-0.277228
-1.12587
-1.72577
-1.52929
0
3.16267
7.81267
13.2832
18.4913
22.2204
23.5092
22.0026
18.1091
12.8749
7.61013
3.43105
0.922881
0.0493959
0.312137
0.801402
1.20034
1.45117
1.54782
1.57838
1.58657
1.58229
1.57274
1.56239
1.55336
1.54704
1.54483
1.54844
1.55995
1.58159
1.61467
1.65972
1.71723
1.78689
1.86737
1.95671
2.0521
2.14948
2.24508
2.3363
2.42217
2.50353
2.58259
2.66223
2.74525
2.83361
2.92796
3.02838
3.13455
3.2457
3.36059
3.47761
3.59482
3.71005
3.82133
3.92732
4.02765
4.12298
4.21448
4.30326
4.38969
4.47038
4.53659
4.576
4.57681
4.53219
4.44323
4.3191
4.17432
4.02394
3.87817
3.7385
3.60236
3.46714
3.33007
3.18894
3.04274
2.89201
2.73872
2.58582
2.43654
2.2939
2.16033
2.0375
1.9264
1.82758
1.7414
1.66827
1.60858
1.5627
1.53145
1.51589
1.514
1.51888
1.52258
1.51832
1.50253
1.47608
1.44403
1.41413
1.39447
1.39041
1.40132
1.42525
1.46116
1.50654
1.55592
1.6018
1.63716
1.65663
1.65744
1.63977
1.60654
1.56268
1.51418
1.46728
1.42691
1.39648
1.37959
1.37956
1.40231
1.46174
1.58005
1.76545
1.97741
2.1626
2.2754
2.2879
2.1973
2.0293
1.83263
1.66216
1.55732
1.50713
1.48653
1.4836
1.49546
1.52157
1.56189
1.61856
1.68984
1.76631
1.83623
1.88838
1.91522
1.91508
1.89245
1.85658
1.81875
1.78896
1.77103
1.76511
1.77039
1.77894
1.78068
1.76682
1.73293
1.68057
1.61665
1.55102
1.49327
1.44899
1.41739
1.39819
1.39176
1.39784
1.41586
1.44479
1.48302
1.52866
1.57826
1.62775
1.67352
1.71344
1.74752
1.7782
1.80998
1.84841
1.89887
1.96461
2.04589
2.1408
2.24715
2.35867
2.46604
2.56012
2.63364
2.68239
2.70546
2.70474
2.68375
2.64658
2.59738
2.54043
2.47897
2.41565
2.35313
2.29415
2.24172
2.19887
2.16706
2.14689
2.13848
2.14194
2.15758
2.18579
2.229
2.28546
2.3511
2.42073
2.4013
1.91469
1.05611
0.115412
-0.449244
0
1.91873
5.4603
10.3177
15.6989
20.4691
23.4529
23.8254
21.4446
16.9544
11.5757
6.65022
3.14961
1.38228
1.02001
1.39485
1.54358
1.67547
1.77854
1.84845
1.9
1.93941
1.97066
1.99778
2.02422
2.05252
2.08434
2.12042
2.16088
2.20548
2.25414
2.30714
2.36532
2.42999
2.50263
2.58447
2.67594
2.77635
2.88366
2.99483
3.10574
3.21119
3.30629
3.38797
3.45559
3.51135
3.56013
3.60875
3.6649
3.73572
3.82671
3.93926
4.07182
4.22275
4.39314
4.58844
4.81185
5.04444
5.25198
5.3971
5.45217
5.41173
5.2963
5.14492
5.00035
4.89331
4.81983
4.76163
4.70812
4.65305
4.59092
4.51695
4.42752
4.32036
4.19453
4.05024
3.88858
3.71179
3.5223
3.32296
3.11733
2.90969
2.70487
2.50794
2.32374
2.1564
2.00886
1.8827
1.77825
1.69497
1.63178
1.58686
1.55816
1.54333
1.54028
1.54602
1.55683
1.56892
1.57888
1.58411
1.58318
1.57596
1.56358
1.54813
1.53233
1.51889
1.51013
1.50777
1.5128
1.52526
1.5442
1.56793
1.59417
1.6199
1.64215
1.65872
1.66858
1.672
1.67037
1.66566
1.65986
1.65444
1.6502
1.64752
1.64679
1.64882
1.65486
1.66628
1.68395
1.70775
1.73589
1.76616
1.79659
1.82532
1.85102
1.87298
1.89112
1.9058
1.91766
1.92733
1.93529
1.9418
1.94684
1.95009
1.95099
1.94877
1.94256
1.9315
1.91497
1.89269
1.865
1.83294
1.7983
1.76359
1.73182
1.70615
1.68958
1.68532
1.69734
1.72819
1.77369
1.82289
1.86327
1.88415
1.87985
1.85157
1.80736
1.76032
1.72545
1.71511
1.73302
1.77668
1.84189
1.92483
2.02213
2.13021
2.24198
2.34649
2.43357
2.49596
2.53098
2.54134
2.53442
2.52019
2.50844
2.5063
2.5146
2.53117
2.55391
2.58045
2.60781
2.63204
2.64814
2.65135
2.63754
2.60401
2.55029
2.47862
2.39379
2.30254
2.21241
2.12998
2.05906
2.00265
1.9626
1.93965
1.93387
1.94381
1.96432
1.98726
2.00438
2.00864
1.99527
1.92912
1.6275
1.12174
0.526673
-0.0414492
-0.395167
0
1.62416
4.81875
9.48938
15.0056
20.3094
24.1982
25.6836
24.3308
20.4645
15.1178
9.67554
5.34263
2.70839
1.65063
1.59098
1.7019
1.80018
1.87551
1.9217
1.93752
1.92667
1.8968
1.85792
1.82039
1.79223
1.77807
1.77902
1.79344
1.81921
1.85473
1.8986
1.94998
2.00883
2.07569
2.15125
2.23591
2.32929
2.43013
2.53638
2.64553
2.75488
2.8623
2.96658
3.06764
3.1664
3.26436
3.36307
3.46366
3.56653
3.6712
3.77665
3.88148
3.98424
4.08366
4.17876
4.26897
4.35409
4.43434
4.51038
4.58328
4.65435
4.72499
4.79635
4.86893
4.94066
5.00384
5.04649
5.05537
5.02006
4.93653
4.80834
4.64499
4.45811
4.25759
4.05093
3.84188
3.63208
3.42298
3.21655
3.01539
2.82259
2.64138
2.47472
2.32496
2.19355
2.08114
1.98744
1.91168
1.85291
1.81035
1.78341
1.77169
1.77533
1.79554
1.83258
1.88184
1.9329
1.97436
1.99664
1.99467
1.96935
1.92735
1.8792
1.83654
1.80931
1.80069
1.80896
1.83175
1.8672
1.91299
1.96651
2.02428
2.08136
2.13295
2.17531
2.2064
2.22621
2.23657
2.24057
2.24165
2.24275
2.24556
2.25052
2.25735
2.26513
2.27225
2.27672
2.27655
2.27003
2.25605
2.23437
2.2057
2.1717
2.13483
2.09808
2.06444
2.03659
2.0169
2.00711
2.00819
2.0201
2.04179
2.07107
2.10351
2.13217
2.15032
2.15326
2.13967
2.11225
2.07701
2.04151
2.01237
1.99328
1.98269
1.97817
1.97683
1.97605
1.97418
1.97064
1.96543
1.95853
1.94951
1.93774
1.92301
1.90632
1.89042
1.87977
1.87983
1.89598
1.9414
2.03645
2.1742
2.31605
2.41782
2.44622
2.39231
2.27676
2.14329
2.04155
2.00595
2.02409
2.06611
2.11724
2.17063
2.22091
2.2648
2.30123
2.33093
2.35577
2.37791
2.39937
2.42172
2.44631
2.47451
2.50787
2.54811
2.59684
2.65514
2.72318
2.7997
2.88246
2.96833
3.05264
3.12764
3.1838
3.21226
3.20536
3.15829
3.07086
2.9485
2.80194
2.64541
2.49391
2.3577
2.23968
2.14174
2.06626
2.01415
1.98585
1.98421
2.01568
2.07997
2.16052
2.23823
2.29563
2.32116
2.20773
1.67959
0.947795
0.133105
-0.565082
-0.778285
0
2.24235
6.16016
11.4075
17.0294
21.7305
24.3523
24.2914
21.655
17.1547
11.8642
6.93031
3.26451
1.27413
0.767007
1.13154
1.35618
1.54506
1.67358
1.73453
1.76408
1.77427
1.77419
1.7729
1.7778
1.79361
1.82316
1.86745
1.9256
1.99513
2.07267
2.15472
2.23819
2.32096
2.40205
2.48144
2.55958
2.63683
2.71271
2.7854
2.85219
2.91059
2.95973
3.0015
3.04056
3.08336
3.13637
3.20422
3.28699
3.38129
3.4834
3.58932
3.69487
3.79637
3.89113
3.97775
4.05626
4.12792
4.19494
4.25988
4.32545
4.3947
4.46764
4.53595
4.58608
4.6038
4.57939
4.51107
4.40515
4.27303
4.1266
3.97399
3.81795
3.65769
3.4914
3.31699
3.13272
2.93809
2.73434
2.5245
2.313
2.10498
1.90552
1.71953
1.54956
1.39577
1.25687
1.13337
1.02652
0.93773
0.870276
0.827666
0.811637
0.820862
0.850898
0.895251
0.946946
0.999712
1.04993
1.09506
1.133
1.16177
1.17917
1.1828
1.17068
1.14117
1.09335
1.02764
0.946228
0.853272
0.754554
0.657997
0.572482
0.505868
0.463515
0.447226
0.454889
0.480909
0.517348
0.55551
0.587348
0.607105
0.612151
0.603081
0.583081
0.556698
0.528336
0.500894
0.474918
0.448822
0.419675
0.384532
0.341847
0.292449
0.239703
0.188761
0.145112
0.112892
0.0940945
0.0877522
0.088471
0.0891645
0.0832323
0.0664528
0.0379837
0.000229263
-0.0422468
-0.0842909
-0.121937
-0.153586
-0.179143
-0.199034
-0.214087
-0.225271
-0.233383
-0.238886
-0.241917
-0.242395
-0.240176
-0.235229
-0.227657
-0.217667
-0.205627
-0.192064
-0.177652
-0.163169
-0.149407
-0.137042
-0.126464
-0.117663
-0.110198
-0.103302
-0.0961014
-0.0878983
-0.0784018
-0.0680925
-0.0583046
-0.050806
-0.0472002
-0.0482674
-0.053446
-0.0606262
-0.0663414
-0.0663183
-0.056255
-0.0330584
0.00475082
0.0571077
0.122656
0.199122
0.283528
0.372339
0.461758
0.547867
0.627084
0.696515
0.754255
0.799603
0.833136
0.856594
0.872559
0.883992
0.893676
0.903696
0.915103
0.927623
0.939139
0.946054
0.944144
0.929532
0.899589
0.853564
0.792773
0.720313
0.640438
0.55782
0.476486
0.399189
0.327711
0.263243
0.206387
0.157292
0.115784
0.0814533
0.0536837
0.0316534
0.0142202
0
-0.00586224
-0.0135328
-0.211373
-0.704564
-1.45325
-2.25175
-2.62343
-1.88003
0.579436
4.81054
10.0832
15.1517
18.8478
20.511
19.9934
17.465
13.3712
8.54174
4.11122
1.06749
-0.271526
-0.35772
0.0140257
0.0310242
0.0473244
0.0625294
0.0769411
0.0915829
0.107946
0.127647
0.151846
0.181374
0.216757
0.258178
0.305698
0.359458
0.419806
0.487312
0.562628
0.646267
0.73834
0.838286
0.944854
1.05614
1.16981
1.2833
1.3943
1.50131
1.60388
1.70269
1.79924
1.89539
1.99287
2.09286
2.19579
2.30164
2.41039
2.5224
2.63881
2.76345
2.9121
3.13056
3.41371
3.69616
3.88691
3.91661
3.78008
3.54805
3.33828
3.25925
3.35303
3.5064
3.67353
3.80466
3.86315
3.83714
3.74005
3.60014
3.44473
3.28777
3.12855
2.96507
2.79706
2.62473
2.44899
2.27163
2.09512
1.92212
1.7551
1.59603
1.44637
1.30706
1.17863
1.06135
0.955265
0.860258
0.776092
0.702434
0.638851
0.584758
0.539569
0.502719
0.472835
0.448068
0.426926
0.408855
0.39466
0.386541
0.387633
0.401165
0.429492
0.473227
0.531175
0.600441
0.677046
0.756655
0.835535
0.910988
0.981027
1.04429
1.09977
1.14654
1.18382
1.21101
1.22777
1.23427
1.23149
1.22144
1.20709
1.19211
1.18031
1.17489
1.17873
1.19379
1.21798
1.24549
1.26954
1.28442
1.28704
1.27744
1.25805
1.2321
1.20202
1.16873
1.13203
1.09112
1.04519
0.99425
0.939488
0.883224
0.828611
0.779144
0.738159
0.708435
0.692361
0.691647
0.706326
0.735269
0.776211
0.82689
0.882028
0.935831
0.982905
1.01907
1.04178
1.0501
1.04426
1.02533
0.995767
0.958606
0.916399
0.872209
0.829324
0.790804
0.758992
0.734824
0.718539
0.709601
0.707126
0.710366
0.719141
0.734105
0.756798
0.789278
0.836928
0.916729
1.05881
1.24306
1.42068
1.53215
1.53385
1.42063
1.23053
1.02845
0.876717
0.807494
0.778152
0.764718
0.760952
0.762622
0.76868
0.781244
0.804388
0.842149
0.89648
0.966517
1.04728
1.13023
1.2064
1.26887
1.31455
1.34448
1.36283
1.3749
1.38504
1.39523
1.40506
1.41274
1.41679
1.41771
1.41899
1.4267
1.44791
1.48831
1.5501
1.62905
1.71988
1.81545
1.90866
1.99475
2.07086
2.13629
2.19185
2.23881
2.27774
2.30796
2.32752
2.33349
2.32283
2.29343
2.24488
2.17882
2.09866
2.00873
1.9132
1.81513
1.71591
1.61556
1.51355
1.40984
1.30585
1.20501
1.11259
1.03615
0.991772
1.00439
1.08499
1.20454
1.32447
1.41061
1.44137
1.26785
0.732673
-0.0400137
-0.880729
-1.12053
0
2.96299
7.62695
13.215
18.5937
22.6363
24.469
23.6285
20.2349
15.1066
9.59708
5.07717
2.33107
1.29429
1.2998
1.53145
1.53296
1.5323
1.53344
1.54006
1.5553
1.5815
1.62012
1.67172
1.73601
1.81194
1.8989
1.99609
2.09955
2.19873
2.27976
2.32965
2.34102
2.31644
2.26977
2.22323
2.20051
2.21884
2.27556
2.35654
2.45457
2.56532
2.68514
2.81148
2.94353
3.08142
3.2256
3.37605
3.53161
3.69035
3.84819
3.99702
4.1279
4.23296
4.30754
4.35162
4.37
4.37107
4.36468
4.35971
4.36186
4.37215
4.39011
4.4153
4.4463
4.48108
4.51538
4.54196
4.55228
4.53797
4.49264
4.41366
4.30288
4.16616
4.01179
3.84834
3.68305
3.51949
3.35941
3.20349
3.05174
2.90394
2.76005
2.62051
2.48631
2.35892
2.23997
2.13097
2.03308
1.94651
1.87057
1.80397
1.74521
1.69301
1.64664
1.60606
1.57182
1.54484
1.52585
1.51549
1.51402
1.52119
1.5362
1.55774
1.58409
1.61299
1.64151
1.66637
1.68447
1.69328
1.69126
1.67816
1.65512
1.62456
1.58994
1.55552
1.52567
1.50513
1.49805
1.50764
1.53556
1.58462
1.65511
1.73892
1.82469
1.9006
1.9566
1.9859
1.9854
1.95525
1.89816
1.81863
1.72391
1.62097
1.51637
1.41653
1.32785
1.25636
1.20661
1.18108
1.17965
1.19939
1.23497
1.2796
1.32616
1.36838
1.40269
1.42725
1.44086
1.44347
1.43608
1.42058
1.39966
1.37659
1.35494
1.33806
1.32865
1.32816
1.33704
1.35413
1.37625
1.39796
1.41309
1.41645
1.40513
1.37941
1.34298
1.30228
1.26501
1.23836
1.22644
1.22903
1.24503
1.27149
1.30459
1.34082
1.37782
1.41479
1.45214
1.49084
1.53164
1.57445
1.61704
1.6559
1.68741
1.70922
1.72117
1.72529
1.72503
1.72378
1.7236
1.72433
1.72419
1.7204
1.7102
1.69189
1.66551
1.63291
1.59742
1.56324
1.53452
1.51427
1.50545
1.51021
1.5298
1.56444
1.61325
1.67423
1.74437
1.81987
1.89649
1.96917
2.03301
2.08411
2.12007
2.14049
2.14732
2.14477
2.139
2.13727
2.14689
2.17313
2.2186
2.28387
2.37039
2.48054
2.6199
2.79731
3.0102
3.2303
3.41595
3.51548
3.48955
3.3343
3.08788
2.81757
2.5979
2.48453
2.44124
2.42969
2.43939
2.46297
2.48884
2.5051
2.50143
2.47072
2.41006
2.32071
2.20745
2.07733
1.93149
1.77433
1.53772
1.10606
0.485699
-0.152912
-0.469693
0
1.6788
4.80885
9.28242
14.5549
19.6777
23.5025
25.0289
23.7884
20.0834
14.9294
9.6812
5.50711
2.97734
1.97335
1.92411
1.99909
2.06614
2.12462
2.17232
2.20865
2.23466
2.2524
2.26458
2.27414
2.28369
2.29534
2.31063
2.33039
2.35498
2.38443
2.41853
2.4569
2.49922
2.54526
2.59513
2.64937
2.70898
2.77526
2.84953
2.9327
3.02484
3.12495
3.23112
3.34045
3.44969
3.55589
3.65672
3.75071
3.83572
3.91067
3.97643
4.03484
4.08897
4.14318
4.20248
4.27123
4.35147
4.44176
4.53689
4.63003
4.71425
4.7846
4.83943
4.88048
4.9118
4.93788
4.96147
4.98252
4.99728
4.9998
4.98424
4.94683
4.88677
4.80592
4.70768
4.59583
4.47514
4.34899
4.21938
4.08771
3.95532
3.82364
3.6943
3.56914
3.45012
3.33923
3.23826
3.14886
3.07222
3.00827
2.95628
2.9151
2.88349
2.86017
2.84391
2.83368
2.82782
2.82349
2.81739
2.80627
2.78763
2.7602
2.72419
2.68118
2.63376
2.58519
2.53878
2.49789
2.4666
2.44834
2.44594
2.461
2.49346
2.5413
2.60075
2.6668
2.73397
2.79723
2.85253
2.89652
2.9276
2.94557
2.95143
2.94716
2.93525
2.91826
2.8983
2.87674
2.85413
2.8303
2.80469
2.77662
2.74545
2.71074
2.67229
2.63038
2.58585
2.54006
2.495
2.45313
2.41701
2.38877
2.36954
2.35939
2.35709
2.36019
2.36541
2.36912
2.36774
2.35848
2.33989
2.3122
2.27753
2.23939
2.20394
2.17797
2.16723
2.17492
2.20067
2.24118
2.28935
2.33715
2.37773
2.40716
2.42506
2.43416
2.43894
2.444
2.45257
2.46557
2.48249
2.50223
2.52297
2.54229
2.55669
2.5617
2.55294
2.52648
2.47972
2.41237
2.32706
2.22925
2.12652
2.02729
1.93861
1.86456
1.8088
1.7732
1.7578
1.76099
1.77975
1.81087
1.84956
1.88986
1.92621
1.95451
1.97289
1.98205
1.98496
1.98614
1.99048
2.00206
2.02299
2.05297
2.09051
2.13426
2.18305
2.23617
2.29353
2.35544
2.42216
2.49337
2.56775
2.64293
2.7152
2.78023
2.83387
2.87283
2.89511
2.90002
2.888
2.86007
2.81746
2.76148
2.69373
2.61582
2.5294
2.43651
2.33979
2.24231
2.14723
2.05746
1.97527
1.90215
1.83868
1.78452
1.73857
1.69907
1.66388
1.63111
1.58623
1.34221
0.854913
0.243134
-0.282292
0
1.597
4.78541
9.3747
14.6551
19.5367
22.8562
23.7511
21.9698
17.9857
12.8475
7.81048
3.8998
1.5979
0.786336
0.933973
1.07205
1.19788
1.30212
1.38044
1.43767
1.47834
1.50915
1.53747
1.56958
1.6094
1.65932
1.71978
1.79008
1.86728
1.94573
2.01961
2.08451
2.13861
2.1832
2.22233
2.26175
2.30727
2.36323
2.43034
2.5072
2.59218
2.68193
2.7732
2.86363
2.95223
3.03926
3.12568
3.21247
3.30017
3.38872
3.47778
3.56725
3.65765
3.75018
3.84626
3.94687
4.05183
4.15941
4.26633
4.36827
4.46054
4.53871
4.59759
4.63168
4.63882
4.61819
4.57059
4.49865
4.40674
4.30016
4.18387
4.06122
3.9335
3.80038
3.66051
3.51316
3.35914
3.20112
3.04312
2.88953
2.74334
2.60571
2.47693
2.35611
2.24176
2.13245
2.02739
1.92666
1.83122
1.74257
1.66239
1.59214
1.53267
1.48416
1.44614
1.41765
1.39753
1.38472
1.37836
1.37784
1.38292
1.39363
1.41017
1.43283
1.46184
1.49731
1.53908
1.58673
1.63943
1.69547
1.75202
1.80497
1.84908
1.87929
1.89137
1.88281
1.85359
1.80651
1.74698
1.68219
1.61984
1.56664
1.52588
1.4977
1.48235
1.47874
1.48484
1.49818
1.51597
1.53582
1.55557
1.57336
1.58756
1.5967
1.59939
1.59417
1.58
1.55639
1.52368
1.48329
1.43775
1.39042
1.34489
1.30432
1.27112
1.24583
1.22718
1.21266
1.19924
1.18416
1.16546
1.14235
1.11519
1.08534
1.05491
1.02606
1.00078
0.980767
0.967356
0.960779
0.959146
0.959388
0.958476
0.954571
0.947826
0.94052
0.936417
0.93958
0.953078
0.977121
1.00981
1.04903
1.09218
1.13651
1.17949
1.21903
1.25388
1.28357
1.30833
1.32892
1.34642
1.36195
1.37641
1.39019
1.40304
1.41414
1.42231
1.42637
1.42555
1.41977
1.40976
1.39696
1.38322
1.37038
1.35993
1.35289
1.34947
1.3493
1.35167
1.35579
1.36082
1.36582
1.36951
1.37037
1.36691
1.35827
1.34488
1.32871
1.31306
1.3018
1.29834
1.30473
1.32082
1.34646
1.38133
1.42558
1.4796
1.54575
1.63355
1.76887
1.98281
2.24325
2.4864
2.65174
2.70257
2.63464
2.4719
2.25481
2.02948
1.84013
1.69865
1.59011
1.50186
1.42749
1.3643
1.31143
1.26876
1.2371
1.21812
1.21442
1.23179
1.28168
1.36604
1.47725
1.60331
1.73488
1.38346
0.571724
-0.472032
-1.32515
-1.3505
0
3.03988
7.65092
13.2043
18.6697
22.8785
24.8478
24.0683
20.6979
15.5912
10.0749
5.47711
2.60324
1.46409
1.44194
1.74159
1.67444
1.61213
1.56083
1.52558
1.50946
1.51287
1.53328
1.56582
1.60446
1.64356
1.67947
1.71126
1.73907
1.76416
1.78848
1.81421
1.84332
1.87751
1.91821
1.9666
2.0237
2.09036
2.16726
2.25483
2.35309
2.46158
2.57925
2.70448
2.83527
2.96939
3.10466
3.23912
3.37122
100
350
599
851
1097
1329
1562
1791
2007
2226
2458
2693
2952
3210
3456
3707
3578
3294
3476
3663
3695
3688
3639
3624
3744
0
0
0
0
0
0
0
0
0
0
0
0
0
0
0
0
0
0
0
0
0
0
0
0
0
0
0
0
0
0
0
0
0
0
0
0
0
0
0
0
0
0
0
0
0
0
0
0
0
0
0
0
0
0
0
0
0
0
0
0
0
0
0
0
0
0
0
0
0
0
0
0
0
0
0
0
0
0
0
0
0
0
0
0
0
0
0
0
0
0
0
0
0
0
0
0
0
0
0
0
0
0
0
0
0
0
0
0
0
0
0
0
0
0
0
0
0
0
0
0
0
0
0
0
0
0
0
0
0
0
0
0
0
0
0
0
0
0
0
0
0
0
0
0
0
0
0
0
0
0
0
0
0
0
0
0
0
0
0
0
0
0
0
0
0
0
0
0
0
0
0
0
0
0
0
0
0
0
0
0
0
0
0
0
0
0
0
0
0
0
0
0
0
0
0
0
0
0
0
0
0
0
0
0
0
0
0
0
0
0
0
0
0
0
0
0
0
0
0
0
0
0
0
0
0
0
0
0
0
0
0
0
0
0
0
0
0
0
0
0
0
0
0
0
0
0
0
0
0
0
0
0
0
0
0
0
0
0
0
0
0
0
0
0
0
0
0
0
0
0
0
0
0
0
0
0
0
0
0
0
0
0
0
0
0
0
0
0
0
0
0
0
0
0
0
0
0
0
0
0
0
0
0
0
0
0
0
0
0
0
0
0
0
0
0
0
0
0
0
0
0
0
0
0
0
0
0
0
0
0
0
0
0
0
0
0
0
0
0
0
0
0
0
0
0
0
0
0
0
0
0
0
0
0
0
0
0
0
0
0
0
0
0
0
0
0
0
0
0
0
0
0
0
0
0
0
0
0
0
0
0
0
0
0
0
0
0
0
0
0
0
0
0
0
0
0
0
0
0
0
0
0
0
0
0
0
0
0
0
0
0
0
0
0
0
0
0
0
0
0
0
0
0
0
0
0
0
0
0
0
0
0
0
0
0
0
0
0
0
0
0
0
0
0
0
0
0
0
0
0
0
0
0
0
0
0
0
0
0
0
0
0
0
0
0
0
0
0
0
0
0
0
0
0
0
0
0
0
0
0
0
0
0
0
0
0
0
0
0
0
0
0
0
0
0
0
0
0
0
0
0
0
0
0
0
0
0
0
0
0
0
0
0
0
0
0
0
0
0
0
0
0
0
0
0
0
0
0
0
0
0
0
0
0
0
0
0
0
0
0
0
0
0
0
0
0
0
0
0
0
0
0
0
0
0
0
0
0
0
0
0
0
0
0
0
0
0
0
0
0
0
0
0
0
0
0
0
0
0
0
0
0
0
0
0
0
0
0
0
0
0
0
0
0
0
0
0
0
0
0
0
0
0
0
0
0
0
0
0
0
0
0
0
0
0
0
0
0
0
0
0
0
0
0
0
0
0
0
0
0
0
0
0
0
0
0
0
0
0
0
0
0
0
0
0
0
0
0
0
0
0
0
0
0
0
0
0
0
0
0
0
0
0
0
0
0
0
0
0
0
0
0
0
0
0
0
0
0
0
0
0
0
0
0
0
0
0
0
0
0
0
0
0
0
0
0
0
0
0
0
0
0
0
0
0
0
0
0
0
0
0
0
0
0
0
0
0
0
0
0
0
0
0
0
0
0
0
0
0
0
0
0
0
0
0
0
0
0
0
0
0
0
0
0
0
0
0
0
0
0
0
0
0
0
0
0
0
0
0
0
0
0
0
0
0
0
0
0
0
0
0
0
0
0
0
0
0
0
0
0
0
0
0
0
0
0
0
0
0
0
0
0
0
0
0
0
0
0
0
0
0
0
0
0
0
0
0
0
0
0
0
0
0
0
0
0
0
0
0
0
0
0
0
0
0
0
0
0
0
0
0
0
0
0
0
0
0
0
0
0
0
0
0
0
0
0
0
0
0
0
0
0
0
0
0
0
0
0
0
0
0
0
0
0
0
0
0
0
0
0
0
0
0
0
0
0
0
0
0
0
0
0
0
0
0
0
0
0
0
0
0
0
0
0
0
0
0
0
0
0
0
0
0
0
0
0
0
0
0
0
0
0
0
0
0
0
0
0
0
0
0
0
0
0
0
0
0
0
0
0
0
0
0
0
0
0
0
0
0
0
0
0
0
0
0
0
0
0
0
0
0
0
0
0
0
0
0
0
0
0
0
0
0
0
0
0
0
0
0
0
0
0
0
0
0
0
0
0
0
0
0
0
0
0
0
0
0
0
0
0
0
0
0
0
0
0
0
0
0
0
0
0
0
0
0
0
0
0
0
0
0
0
0
0
0
0
0
0
0
0
0
0
0
0
0
0
0
0
0
0
0
0
0
0
0
0
0
0
0
0
0
0
0
0
0
0
0
0
0
0
0
0
0
0
0
0
0
0
0
0
0
0
0
0
0
0
0
0
0
0
0
0
0
0
0
0
0
0
0
0
0
0
0
0
0
0
0
0
0
0
0
0
0
0
0
0
0
0
0
0
0
0
0
0
0
0
0
0
0
0
0
0
0
0
0
0
0
0
0
0
0
0
0
0
0
0
0
0
0
0
0
0
0
0
0
0
0
0
0
0
0
0
0
0
0
0
0
0
0
0
0
0
0
0
0
0
0
0
0
0
0
0
0
0
0
0
0
0
0
0
0
0
0
0
0
0
0
0
0
0
0
0
0
0
0
0
0
0
0
0
0
0
0
0
0
0
0
0
0
0
0
0
0
0
0
0
0
0
0
0
0
0
0
0
0
0
0
0
0
0
0
0
0
0
0
0
0
0
0
0
0
0
0
0
0
0
0
0
0
0
0
0
0
0
0
0
0
0
0
0
0
0
0
0
0
0
0
0
0
0
0
0
0
0
0
0
0
0
0
0
0
0
0
0
0
0
0
0
0
0
0
0
0
0
0
0
0
0
0
0
0
0
0
0
0
0
0
0
0
0
0
0
0
0
0
0
0
0
0
0
0
0
0
0
0
0
0
0
0
0
0
0
0
0
0
0
0
0
0
0
0
0
0
0
0
0
0
0
0
0
0
0
0
0
0
0
0
0
0
0
0
0
0
0
0
0
0
0
0
0
0
0
0
0
0
0
0
0
0
0
0
0
0
0
0
0
0
0
0
0
0
0
0
0
0
0
0
0
0
0
0
0
0
0
0
0
0
0
0
0
0
0
0
0
0
0
0
0
0
0
0
0
0
0
0
0
0
0
0
0
0
0
0
0
0
0
0
0
0
0
0
0
0
0
0
0
0
0
0
0
0
0
0
0
0
0
0
0
0
0
0
0
0
0
0
0
0
0
0
0
0
0
0
0
0
0
0
0
0
0
0
0
0
0
0
0
0
0
0
0
0
0
0
0
0
0
0
0
0
0
0
0
0
0
0
0
0
0
0
0
0
0
0
0
0
0
0
0
0
0
0
0
0
0
0
0
0
0
0
0
0
0
0
0
0
0
0
0
0
0
0
0
0
0
0
0
0
0
0
0
0
0
0
0
0
0
0
0
0
0
0
0
0
0
0
0
0
0
0
0
0
0
0
0
0
0
0
0
0
0
0
0
0
0
0
0
0
0
0
0
0
0
0
0
0
0
0
0
0
0
0
0
0
0
0
0
0
0
0
0
0
0
0
0
0
0
0
0
0
0
0
0
0
0
0
0
0
0
0
0
0
0
0
0
0
0
0
0
0
0
0
0
0
0
0
0
0
0
0
0
0
0
0
0
0
0
0
0
0
0
0
0
0
0
0
0
0
0
0
0
0
0
0
0
0
0
0
0
0
0
0
0
0
0
0
0
0
0
0
0
0
0
0
0
0
0
0
0
0
0
0
0
0
0
0
0
0
0
0
0
0
0
0
0
0
0
0
0
0
0
0
0
0
0
0
0
0
0
0
0
0
0
0
0
0
0
0
0
0
0
0
0
0
0
0
0
0
0
0
0
0
0
0
0
0
0
0
0
0
0
0
0
0
0
0
0
0
0
0
0
0
0
0
0
0
0
0
0
0
0
0
0
0
0
0
0
0
0
0
0
0
0
0
0
0
0
0
0
0
0
0
0
0
0
0
0
0
0
0
0
0
0
0
0
0
0
0
0
0
0
0
0
0
0
0
0
0
0
0
0
0
0
0
0
0
0
0
0
0
0
0
0
0
0
0
0
0
0
0
0
0
0
0
0
0
0
0
0
0
0
0
0
0
0
0
0
0
0
0
0
0
0
0
0
0
0
0
0
0
0
0
0
0
0
0
0
0
0
0
0
0
0
0
0
0
0
0
0
0
0
0
0
0
0
0
0
0
0
0
0
0
0
0
0
0
0
0
0
0
0
0
0
0
0
0
0
0
0
0
0
0
0
0
0
0
0
0
0
0
0
0
0
0
0
0
0
0
0
0
0
0
0
0
0
0
0
0
0
0
0
0
0
0
0
0
0
0
0
0
0
0
0
0
0
0
0
0
0
0
0
0
0
0
0
0
0
0
0
0
0
0
0
0
0
0
0
0
0
0
0
0
0
0
0
0
0
0
0
0
0
0
0
0
0
0
0
0
0
0
0
0
0
0
0
0
0
0
0
0
0
0
0
0
0
0
0
0
0
0
0
0
0
0
0
0
0
0
0
0
0
0
0
0
0
0
0
0
0
0
0
0
0
0
0
0
0
0
0
0
0
0
0
0
0
0
0
0
0
0
0
0
0
0
0
0
0
0
0
0
0
0
0
0
0
0
0
0
0
0
0
0
0
0
0
0
0
0
0
0
0
0
0
0
0
0
0
0
0
0
0
0
0
0
0
0
0
0
0
0
0
0
0
0
0
0
0
0
0
0
0
0
0
0
0
0
0
0
0
0
0
0
0
0
0
0
0
0
0
0
0
0
0
0
0
0
0
0
0
0
0
0
0
0
0
0
0
0
0
0
0
0
0
0
0
0
0
0
0
0
0
0
0
0
0
0
0
0
0
0
0
0
0
0
0
0
0
0
0
0
0
0
0
0
0
0
0
0
0
0
0
0
0
0
0
0
0
0
0
0
0
0
0
0
0
0
0
0
0
0
0
0
0
0
0
0
0
0
0
0
0
0
0
0
0
0
0
0
0
0
0
0
0
0
0
0
0
0
0
0
0
0
0
0
0
0
0
0
0
0
0
0
0
0
0
0
0
0
0
0
0
0
0
0
0
0
0
0
0
0
0
0
0
0
0
0
0
0
0
0
0
0
0
0
0
0
0
0
0
0
0
0
0
0
0
0
0
0
0
0
0
0
0
0
0
0
0
0
0
0
0
0
0
0
0
0
0
0
0
0
0
0
0
0
0
0
0
0
0
0
0
0
0
0
0
0
0
0
0
0
0
0
0
0
0
0
0
0
0
0
0
0
0
0
0
0
0
0
0
0
0
0
0
0
0
0
0
0
0
0
0
0
0
0
0
0
0
0
0
0
0
0
0
0
0
0
0
0
0
0
0
0
0
0
0
0
0
0
0
0
0
0
0
0
0
0
0
0
0
0
0
0
0
0
0
0
0
0
0
0
0
0
0
0
0
0
0
0
0
0
0
0
0
0
0
0
0
0
0
0
0
0
0
0
0
0
0
0
0
0
0
0
0
0
0
0
0
0
0
0
0
0
0
0
0
0
0
0
0
0
0
0
0
0
0
0
0
0
0
0
0
0
0
0
0
0
0
0
0
0
0
0
0
0
0
0
0
0
0
0
0
0
0
0
0
0
0
0
0
0
0
0
0
0
0
0
0
0
0
0
0
0
0
0
0
0
0
0
0
0
0
0
0
0
0
0
0
0
0
0
0
0
0
0
0
0
0
0
0
0
0
0
0
0
0
0
0
0
0
0
0
0
0
0
0
0
0
0
0
0
0
0
0
0
0
0
0
0
0
0
0
0
0
0
0
0
0
0
0
0
0
0
0
0
0
0
0
0
0
0
0
0
0
0
0
0
0
0
0
0
0
0
0
0
0
0
0
0
0
0
0
0
0
0
0
0
0
0
0
0
0
0
0
0
0
0
0
0
0
0
0
0
0
0
0
0
0
0
0
0
0
0
0
0
0
0
0
0
0
0
0
0
0
0
0
0
0
0
0
0
0
0
0
0
0
0
0
0
0
0
0
0
0
0
0
0
0
0
0
0
0
0
0
0
0
0
0
0
0
0
0
0
0
0
0
0
0
0
0
0
0
0
0
0
0
0
0
0
0
0
0
0
0
0
0
0
0
0
0
0
0
0
0
0
0
0
0
0
0
0
0
0
0
0
0
0
0
0
0
0
0
0
0
0
0
0
0
0
0
0
0
0
0
0
0
0
0
0
0
0
0
0
0
0
0
0
0
0
0
0
0
0
0
0
0
0
0
0
0
0
0
0
0
0
0
0
0
0
0
0
0
0
0
0
0
0
0
0
0
0
0
0
0
0
0
0
0
0
0
0
0
0
0
0
0
0
0
0
0
0
0
0
0
0
0
0
0
0
0
0
0
0
0
0
0
0
0
0
0
0
0
0
0
0
0
0
0
0
0
0
0
0
0
0
0
0
0
0
0
0
0
0
0
0
0
0
0
0
0
0
0
0
0
0
0
0
0
0
0
0
0
0
0
0
0
0
0
0
0
0
0
0
0
0
0
0
0
0
0
0
0
0
0
0
0
0
0
0
0
0
0
0
0
0
0
0
0
0
0
0
0
0
0
0
0
0
0
0
0
0
0
0
0
0
0
0
0
0
0
0
0
0
0
0
0
0
0
0
0
0
0
0
0
0
0
0
0
0
0
0
0
0
0
0
0
0
0
0
0
0
0
0
0
0
0
0
0
0
0
0
0
0
0
0
0
0
0
0
0
0
0
0
0
0
0
0
0
0
0
0
0
0
0
0
0
0
0
0
0
0
0
0
0
0
0
0
0
0
0
0
0
0
0
0
0
0
0
0
0
0
0
0
0
0
0
0
0
0
0
0
0
0
0
0
0
0
0
0
0
0
0
0
0
0
0
0
0
0
0
0
0
0
0
0
0
0
0
0
0
0
0
0
0
0
0
0
0
0
0
0
0
0
0
0
0
0
0
0
0
0
0
0
0
0
0
0
0
0
0
0
0
0
0
0
0
0
0
0
0
0
0
0
0
0
0
0
0
0
0
0
0
0
0
0
0
0
0
0
0
0
0
0
0
0
0
0
0
0
0
0
0
0
0
0
0
0
0
0
0
0
0
0
0
0
0
0
0
0
0
0
0
0
0
0
0
0
0
0
0
0
0
0
0
0
0
0
0
0
0
0
0
0
0
0
0
0
0
0
0
0
0
0
0
0
0
0
0
0
0
0
0
0
0
0
0
0
0
0
0
0
0
0
0
0
0
0
0
0
0
0
0
0
0
0
0
0
0
0
0
0
0
0
0
0
0
0
0
0
0
0
0
0
0
0
0
0
0
0
0
0
0
0
0
0
0
0
0
0
0
0
0
0
0
0
0
0
0
0
0
0
0
0
0
0
0
0
0
0
0
0
0
0
0
0
0
0
0
0
0
0
0
0
0
0
0
0
0
0
0
0
0
0
0
0
0
0
0
0
0
0
0
0
0
0
0
0
0
0
0
0
0
0
0
0
0
0
0
0
0
0
0
0
0
0
0
0
0
0
0
0
0
0
0
0
0
0
0
0
0
0
0
0
0
0
0
0
0
0
0
0
0
0
0
0
0
0
0
0
0
0
0
0
0
0
0
0
0
0
0
0
0
0
0
0
0
0
0
0
0
0
0
0
0
0
0
0
0
0
0
0
0
0
0
0
0
0
0
0
0
0
0
0
0
0
0
0
0
0
0
0
0
0
0
0
0
0
0
0
0
0
0
0
0
0
0
0
0
0
0
0
0
0
0
0
0
0
0
0
0
0
0
0
0
0
0
0
0
0
0
0
0
0
0
0
0
0
0
0
0
0
0
0
0
0
0
0
0
0
0
0
0
0
0
0
0
0
0
0
0
0
0
0
0
0
0
0
0
0
0
0
0
0
0
0
0
0
0
0
0
0
0
0
0
0
0
0
0
0
0
0
0
0
0
0
0
0
0
0
0
0
0
0
0
0
0
0
0
0
0
0
0
0
0
0
0
0
0
0
0
0
0
0
0
0
0
0
0
0
0
0
0
0
0
0
0
0
0
0
0
0
0
0
0
0
0
0
0
0
0
0
0
0
0
0
0
0
0
0
0
0
0
0
0
0
0
0
0
0
0
0
0
0
0
0
0
0
0
0
0
0
0
0
0
0
0
0
0
0
0
0
0
0
0
0
0
0
0
0
0
0
0
0
0
0
0
0
0
0
0
0
0
0
0
0
0
0
0
0
0
0
0
0
0
0
0
0
0
0
0
0
0
0
0
0
0
0
0
0
0
0
0
0
0
0
0
0
0
0
0
0
0
0
0
0
0
0
0
0
0
0
0
0
0
0
0
0
0
0
0
