3.43649
3.6033
3.69476
3.68244
3.5684
3.38153
3.16394
2.95554
2.78001
2.6345
2.51101
2.40488
2.3137
2.23461
2.16315
2.09328
2.01316
1.85007
1.47885
0.908094
0.226789
0
1.01694
3.76664
8.15612
13.3691
18.0443
20.7754
20.711
17.9329
13.4016
8.50981
4.49887
2.03404
1.09899
1.18406
1.45223
1.42813
1.39293
1.35269
1.31401
1.28344
1.26668
1.26714
1.28657
1.32517
1.38139
1.45194
1.53276
1.62026
1.71101
1.80285
1.89541
1.99031
2.09088
2.20148
2.32648
2.46941
2.63158
2.81251
3.01109
3.22548
3.45357
3.69341
3.94336
4.20199
4.46765
4.73794
5.00938
5.27483
5.52245
5.73941
5.91364
6.03625
6.10307
6.11484
6.07617
5.99384
5.87498
5.72712
5.55713
5.36908
5.16496
4.94589
4.71326
4.46922
4.2168
3.9607
3.70725
3.46393
3.23819
3.03704
2.8679
2.73326
2.62975
2.55123
2.49069
2.442
2.40091
2.36519
2.33399
2.30701
2.28356
2.26288
2.24423
2.2269
2.21025
2.19364
2.17621
2.15671
2.13362
2.10555
2.07182
2.03306
1.99152
1.95092
1.91574
1.89019
1.87713
1.87888
1.89412
1.91624
1.93671
1.94808
1.94645
1.93294
1.91361
1.89778
1.89542
1.91439
1.95576
2.01596
2.09069
2.17574
2.2664
2.35808
2.44669
2.52824
2.59693
2.6451
2.66623
2.65369
2.60254
2.51171
2.38539
2.23291
2.06702
1.90129
1.74607
1.60509
1.48106
1.37346
1.2785
1.18965
1.09845
0.992061
0.837559
0.631124
0.388559
-0.155741
0
1.47402
4.52177
8.80796
13.4041
17.0679
18.7097
17.8417
14.789
10.5482
6.35601
3.18317
1.40426
0.788631
0.772654
0.688729
0.615281
0.549066
0.494698
0.455589
0.433236
0.427393
0.435795
0.454358
0.478675
0.505518
0.533756
0.564664
0.601527
0.648689
0.710383
0.789711
0.887509
1.00259
1.13341
1.27879
1.43794
1.61069
1.79737
1.99852
2.21449
2.44498
2.68887
2.94407
3.20762
3.4757
3.74372
4.00574
4.25277
4.47556
4.66555
4.81559
4.92085
4.97929
4.99145
4.95961
4.88702
4.77722
4.63719
4.47297
4.28787
4.08516
3.86821
3.64072
3.40685
3.17057
2.93633
2.70903
2.49384
2.29577
2.11914
1.96682
1.84005
1.73838
1.65992
1.60178
1.56104
1.53395
1.51676
1.50633
1.50026
1.49701
1.49588
1.49679
1.50017
1.50673
1.51725
1.53252
1.55312
1.57915
1.61023
1.64489
1.6802
1.71246
1.73784
1.75321
1.75694
1.74945
1.73327
1.71277
1.69329
1.67981
1.67597
1.68466
1.70658
1.73726
1.76956
1.7964
1.81328
1.82024
1.8224
1.82913
1.85194
1.90195
1.99389
2.16526
2.44551
2.79524
3.1295
3.38203
3.51281
3.50338
3.35101
3.0694
2.69601
2.29863
1.96904
1.75518
1.63093
1.55816
1.53166
1.54525
1.56955
1.56823
1.50583
1.35568
1.08101
0.698683
0.253874
-0.35918
0
1.94688
5.66938
10.6466
15.6789
19.2857
20.3265
18.5226
14.5829
9.84757
5.65376
2.78752
1.30787
0.773325
0.653436
0.662496
0.671075
0.679001
0.68615
0.692715
0.69935
0.707257
0.718176
0.734229
0.757648
0.790433
0.833968
0.889018
0.955981
1.03456
1.12435
1.22509
1.33691
1.46028
1.59578
1.74388
1.9048
2.07844
2.26466
2.46389
2.67717
2.90612
3.15251
3.41756
3.70108
4.00064
4.31223
4.62814
4.92989
5.19568
5.40656
5.55116
5.62816
5.64524
5.61505
5.54965
5.45599
5.3372
5.19652
5.03221
4.84288
4.62987
4.3976
4.15323
3.90555
3.66312
3.43317
3.22154
3.03232
2.86836
2.72951
2.6118
2.50947
2.41617
2.32617
2.23551
2.14268
2.04883
1.95825
1.87868
1.81844
1.78442
1.77998
1.80371
1.84938
1.90731
1.96656
2.01729
2.05439
2.07741
2.08577
2.07972
2.06053
2.03055
1.99268
1.95047
1.90805
1.86988
1.84028
1.82276
1.81999
1.83378
1.86304
1.90187
1.94179
1.97487
1.99621
2.00563
2.00816
2.01297
2.03111
2.07251
2.14172
2.23607
2.35422
2.4885
2.62471
2.74734
2.84237
2.89924
2.91197
2.87948
2.80544
2.6977
2.56746
2.42815
2.29231
2.16964
2.06481
1.97779
1.90744
1.84966
1.79862
1.74787
1.69146
1.62176
1.5073
1.19784
0.650088
-0.0717426
-0.833216
-1.0477
0
2.85204
7.47761
13.065
18.183
21.3105
21.4892
18.755
14.1071
9.03064
4.83794
2.17961
0.953672
0.591777
0.497914
0.462675
0.438676
0.432969
0.449208
0.487004
0.54231
0.608693
0.679043
0.747322
0.810422
0.867574
0.919334
0.967327
1.01426
1.06375
1.12004
1.18769
1.27123
1.37476
1.50164
1.65424
1.83377
2.04022
2.2729
2.5304
2.81067
3.11099
3.42775
3.7564
4.09123
4.42555
4.75152
5.06017
5.34263
5.59093
5.79795
5.95759
6.06611
6.12243
6.12691
6.08133
5.98921
5.85604
5.68918
5.49729
5.28919
5.07274
4.85343
4.63394
4.41524
4.19764
3.98162
3.7687
3.56184
3.36537
3.18434
3.02373
2.88744
2.77704
2.6916
2.62777
2.58052
2.54389
2.5114
2.47759
2.43923
2.39608
2.35103
2.30973
2.2795
2.26786
2.28998
2.36161
2.47328
2.59673
2.69931
2.7553
2.75382
2.70096
2.61613
2.52472
2.44989
2.40115
2.37536
2.36666
2.3701
2.38212
2.39939
2.4193
2.44029
2.46181
2.48412
2.50805
2.53477
2.56576
2.60287
2.64819
2.70384
2.7717
2.85282
2.94703
3.05328
3.16853
3.2867
3.39913
3.49654
3.57023
3.6132
3.62082
3.59117
3.52509
3.4259
3.29893
3.15085
2.98887
2.8193
2.64661
2.47306
2.29913
2.1238
1.94436
1.75334
1.52189
1.17603
0.729909
0.23108
-0.216614
0
1.46052
4.62261
9.42943
15.0821
20.154
23.0978
22.9288
19.7099
14.5402
9.03584
4.60015
1.89753
0.782028
0.629405
0.755828
0.760433
0.76417
0.769264
0.777856
0.791851
0.81277
0.841595
0.878679
0.923749
0.976034
1.03463
1.09854
1.16713
1.24035
1.31883
1.40372
1.49658
1.59918
1.71341
1.84124
1.98482
2.14681
2.33007
2.53729
2.77035
3.02965
3.31351
3.61776
3.93604
4.26014
4.58071
4.88769
5.17086
5.42177
5.63434
5.80493
5.93224
6.01681
6.06043
6.06528
6.03341
5.96633
5.86552
5.73241
5.56877
5.37726
5.16191
4.92839
4.68374
4.43568
4.19194
3.95935
3.74327
3.54699
3.37175
3.21701
3.08108
2.96182
2.85714
2.76542
2.68554
2.61675
2.55845
2.50992
2.47017
2.43791
2.41168
2.38993
2.37127
2.35477
2.34013
2.32765
2.31798
2.31166
2.30897
2.30851
2.30641
2.29783
2.27877
2.24793
2.20795
2.16521
2.12825
2.10529
2.10181
2.12247
2.16226
2.207
2.24093
2.25245
2.23851
2.206
2.16963
2.14675
2.15082
2.18464
2.23869
2.30396
2.37174
2.43581
2.49482
2.55295
2.61944
2.71998
2.88342
3.08122
3.25255
3.33419
3.29081
3.13004
2.89698
2.65305
2.45063
2.30546
2.19402
2.10041
2.01797
1.94321
1.87317
1.80515
1.73681
1.66569
1.58807
1.48859
1.28564
0.941904
0.490003
-0.171536
0
1.78883
5.48898
10.5403
15.6234
19.1925
20.1727
18.4207
14.7091
10.2845
6.29164
3.37961
1.63617
0.782753
0.443158
0.386378
0.349249
0.320847
0.303977
0.300346
0.310383
0.333241
0.367006
0.40909
0.456738
0.507538
0.559873
0.613287
0.668508
0.727424
0.792947
0.868735
0.958756
1.06673
1.19554
1.34675
1.52025
1.71403
1.92462
2.1474
2.37687
2.60714
2.832
3.046
3.24596
3.43177
3.6069
3.77818
3.9546
4.15466
4.41627
4.72037
5.00885
5.21407
5.29185
5.23931
5.08892
4.88542
4.6624
4.43293
4.1998
3.96502
3.73076
3.49994
3.27626
3.06348
2.86449
2.68109
2.51334
2.3595
2.21648
2.08053
1.94819
1.81713
1.68688
1.55942
1.44014
1.3383
1.26345
1.2241
1.22531
1.26685
1.34451
1.44714
1.55693
1.65578
1.72918
1.76883
1.77326
1.74685
1.69788
1.6366
1.57387
1.51726
1.472
1.44181
1.43091
1.44013
1.4611
1.4823
1.49244
1.48388
1.45494
1.41011
1.35843
1.31073
1.27656
1.25936
1.25932
1.27657
1.31121
1.3628
1.43066
1.51421
1.61299
1.72674
1.85511
1.99548
2.13658
2.25626
2.32709
2.32218
2.22427
2.03502
1.7797
1.50282
1.25448
1.07238
0.94513
0.84995
0.778295
0.718868
0.659716
0.589981
0.501108
0.387577
0.247298
0.0784557
-0.112735
-0.318401
-0.619863
0
2.14574
5.94196
10.7674
15.3623
18.3022
18.6221
16.2557
12.0489
7.35434
3.43701
1.0042
0.0628685
0.106772
0.307639
0.244308
0.169974
0.0913094
0.015834
-0.0488228
-0.0958542
-0.121801
-0.124224
-0.102326
-0.0572174
0.00830994
0.0894226
0.180657
0.277018
0.372728
0.46284
0.544552
0.618245
0.688052
0.76171
0.849535
0.962638
1.11072
1.29836
1.5243
1.78375
2.06912
2.37033
2.67607
2.9754
3.25935
3.52197
3.76083
3.97677
4.17262
4.351
4.51306
4.65734
4.7758
4.84933
4.85458
4.77444
4.60661
4.36572
4.07767
3.7692
3.45905
3.1539
2.85474
2.56423
2.28692
2.02905
1.80261
1.63707
1.57919
1.62591
1.72322
1.80349
1.81246
1.72858
1.5673
1.3707
1.18812
1.05721
0.977077
0.929313
0.903451
0.89629
0.905492
0.928551
0.963455
1.00569
1.04939
1.0884
1.1172
1.13179
1.13032
1.11326
1.08315
1.04427
1.00232
0.962939
0.931564
0.913541
0.913541
0.934646
0.978066
1.04324
1.1274
1.22725
1.3367
1.44893
1.55849
1.66247
1.76092
1.85653
1.95346
2.05593
2.16678
2.28604
2.41163
2.54031
2.66677
2.78288
2.87898
2.9463
2.97736
2.96708
2.91397
2.82091
2.69547
2.54916
2.396
2.24984
2.11987
2.01041
1.92611
1.86834
1.83157
1.8028
1.76561
1.70255
1.57841
1.26695
0.785769
0.204477
-0.390369
0
2.00959
5.803
10.8204
15.8414
19.4112
20.4406
18.6763
14.788
10.0306
5.68424
2.57677
0.91064
0.403167
0.571326
0.660907
0.739717
0.799865
0.838247
0.856949
0.862191
0.862393
0.866161
0.879696
0.906002
0.948015
1.0073
1.08409
1.1773
1.28471
1.40314
1.52919
1.66031
1.7951
1.93377
2.07826
2.23208
2.3998
2.58625
2.79563
3.03067
3.29182
3.57691
3.88107
4.19715
4.51648
4.82973
5.12761
5.40169
5.6447
5.85027
6.01303
6.1295
6.19865
6.21956
6.19159
6.11494
5.99143
5.82515
5.62258
5.39223
5.14426
4.88932
4.63594
4.3906
4.15873
3.94432
3.74983
3.57634
3.42337
3.28914
3.17117
3.0668
2.97364
2.88975
2.81368
2.74458
2.68155
2.62379
2.57086
2.52298
2.48126
2.44769
2.42468
2.41435
2.41821
2.4368
2.467
2.50173
2.53266
2.55222
2.55538
2.54069
2.51025
2.46891
2.42281
2.37805
2.33909
2.30821
2.28654
2.27486
2.27339
2.28178
2.29916
2.32417
2.35504
2.38966
2.4257
2.46078
2.49245
2.51892
2.5395
2.55508
2.56846
2.58445
2.60943
2.65468
2.74945
2.94554
3.25751
3.60422
3.89556
4.06655
4.0835
3.94239
3.66927
3.32069
2.97451
2.70512
2.51995
2.38454
2.27544
2.18324
2.10462
2.03676
1.97628
1.91923
1.85999
1.76679
1.45435
0.897037
0.188744
-0.37098
0
1.95923
5.78796
11.0573
16.5837
20.7944
22.3841
20.9156
17.0141
12.0338
7.404
4.04521
2.15258
1.37765
1.19832
1.13508
1.0435
0.946534
0.846454
0.751462
0.674286
0.628713
0.625487
0.668729
0.754432
0.871719
1.00628
1.14441
1.27652
1.39968
1.51236
1.61363
1.70479
1.78931
1.87313
1.9645
2.07302
2.20794
2.37625
2.58111
2.81807
3.08021
3.36202
3.65823
3.96377
4.27393
4.58419
4.88835
5.17868
5.44683
5.68432
5.88003
6.02276
6.10907
6.13833
6.1122
6.03434
5.91048
5.74811
5.55572
5.34145
5.1125
4.87504
4.63245
4.38647
4.13866
3.89102
3.64635
3.40815
3.18056
2.96795
2.77458
2.60418
2.45995
2.34405
2.25699
2.19791
2.16445
2.15384
2.16145
2.18066
2.20393
2.22364
2.23266
2.22494
2.19595
2.14305
2.06577
1.96592
1.84776
1.71741
1.58216
1.4498
1.3277
1.22166
1.13628
1.07484
1.03915
1.03256
1.06226
1.12766
1.20676
1.27284
1.30176
1.28026
1.2118
1.11692
1.02747
0.976679
0.98552
1.04219
1.13162
1.24613
1.37769
1.51542
1.64914
1.77085
1.87538
1.96016
2.02299
2.06045
2.07184
2.05602
2.01246
1.94272
1.85147
1.74625
1.63591
1.52842
1.42835
1.33614
1.25114
1.17132
1.09417
1.01738
0.939284
0.858797
0.775201
0.686485
0.591633
0.489873
0.0533394
0
1.15913
4.06023
8.53245
13.5859
17.739
19.648
18.707
15.3003
10.595
6.00982
2.63734
0.891022
0.502461
0.811001
0.72617
0.617598
0.499227
0.374878
0.253913
0.149689
0.0756298
0.0423336
0.0552759
0.113613
0.210226
0.33299
0.467084
0.597945
0.714917
0.815368
0.900762
0.974628
1.04378
1.11738
1.20557
1.31797
1.46212
1.64234
1.85825
2.10493
2.37554
2.66211
2.95586
3.24831
3.53203
3.80111
4.05123
4.27868
4.47914
4.64903
4.78677
4.89059
4.95859
4.98876
4.97923
4.9285
4.83571
4.70108
4.52702
4.31917
4.08364
3.82721
3.55812
3.2856
3.01858
2.76527
2.53268
2.32669
2.15393
2.01764
1.91408
1.83745
1.78189
1.74321
1.71973
1.7119
1.72243
1.75619
1.80744
1.86035
1.89503
1.89413
1.849
1.76292
1.65035
1.53271
1.43231
1.36173
1.3207
1.30475
1.31138
1.33625
1.37352
1.41672
1.45941
1.49536
1.51947
1.52808
1.51931
1.49328
1.4522
1.40027
1.34315
1.2874
1.23958
1.20485
1.18793
1.19229
1.22
1.27162
1.34616
1.44103
1.55209
1.67459
1.80182
1.92423
2.0308
2.11146
2.15795
2.16485
2.1303
2.05646
1.94943
1.81865
1.67575
1.5329
1.39926
1.27988
1.17647
1.08871
1.01391
0.946384
0.877791
0.798423
0.696073
0.535476
0.279897
-0.058334
-0.444534
-0.704596
0
2.16001
5.85272
10.5259
15.038
18.0344
18.5243
16.3556
12.3024
7.69537
3.80746
1.34429
0.297081
0.166355
0.271479
0.232877
0.190859
0.149409
0.11359
0.0895659
0.0833328
0.0999773
0.142566
0.211176
0.302624
0.412696
0.530046
0.6419
0.73732
0.809906
0.859494
0.892454
0.920521
0.958519
1.02153
1.11842
1.25219
1.423
1.62892
1.86586
2.12788
2.40805
2.69961
2.99677
3.29518
3.59186
3.88401
4.16649
4.43135
4.66902
4.86817
5.01887
5.11491
5.15407
5.13663
5.06376
4.93755
4.76763
4.56544
4.34201
4.11003
3.88083
3.6615
3.45135
3.24909
3.05327
2.86327
2.6803
2.50741
2.34867
2.20795
2.08539
1.98153
1.89537
1.82465
1.76653
1.71812
1.67697
1.64132
1.61019
1.58329
1.56102
1.54449
1.535
1.53378
1.54163
1.5586
1.58366
1.61469
1.64873
1.6824
1.71244
1.73636
1.75242
1.75951
1.75731
1.74627
1.72755
1.70286
1.67487
1.6475
1.62529
1.6128
1.61409
1.63228
1.66932
1.72591
1.80164
1.89503
2.00291
2.12148
2.24709
2.37596
2.50405
2.6271
2.73997
2.83561
2.9067
2.94685
2.95021
2.91257
2.83258
2.71278
2.55992
2.38457
2.19994
2.0198
1.85428
1.7112
1.59813
1.52437
1.50431
1.54387
1.60301
1.63045
1.57822
1.41833
1.15555
0.829196
-0.0485291
0
1.76239
5.49013
10.6046
15.8015
19.5432
20.7022
19.0346
15.2429
10.6124
6.42642
3.47084
1.86245
1.2264
1.04808
1.00446
0.971597
0.943638
0.922298
0.909018
0.905025
0.911384
0.928993
0.958489
1.00003
1.0532
1.11686
1.1892
1.26805
1.35143
1.43806
1.52809
1.62345
1.72794
1.84682
1.98604
2.15129
2.34692
2.575
2.8345
3.12205
3.43194
3.75644
4.08655
4.4129
4.72639
5.0198
5.28842
5.53034
5.74615
5.93261
6.08444
6.20226
6.28436
6.32599
6.32214
6.27024
6.17106
6.02768
5.84379
5.62316
5.37765
5.11752
4.85013
4.583
4.32427
4.08194
3.86377
3.67392
3.51016
3.36666
3.23629
3.11316
2.99455
2.88165
2.77885
2.69188
2.62536
2.58518
2.57058
2.57179
2.57587
2.57081
2.54931
2.51097
2.46212
2.41357
2.37687
2.36003
2.36285
2.38124
2.40947
2.44
2.46527
2.47937
2.47919
2.46473
2.4389
2.40681
2.37474
2.34865
2.33325
2.33193
2.3465
2.37694
2.4216
2.47785
2.54247
2.61237
2.68521
2.75975
2.83584
2.91407
2.99532
3.07998
3.16642
3.24962
3.32177
3.37406
3.39858
3.39014
3.34725
3.27225
3.17049
3.04903
2.9152
2.77593
2.6363
2.49945
2.36751
2.24249
2.12576
2.01795
1.91879
1.82756
1.74581
1.66945
1.35579
0.709925
-0.139126
-0.674722
0
2.54883
7.01402
12.6194
17.9715
21.5771
22.4239
20.3516
16.0692
10.8466
6.02775
2.5705
0.792866
0.404589
0.768368
0.786887
0.797781
0.797414
0.786809
0.771234
0.758133
0.754542
0.763474
0.785106
0.820156
0.868771
0.930994
1.00692
1.09658
1.19959
1.31475
1.44027
1.57477
1.71734
1.8679
2.02748
2.19825
2.3833
2.58617
2.81017
3.05774
3.32985
3.62554
3.94177
4.27354
4.61424
4.95621
5.28966
5.59985
5.86908
6.08585
6.24162
6.33166
6.35573
6.31817
6.22709
6.09292
5.92672
5.73981
5.54275
5.3416
5.1395
4.93797
4.73736
4.53716
4.33636
4.13407
3.93
3.72491
3.52081
3.32093
3.12939
2.95081
2.78993
2.65164
2.53944
2.45499
2.39795
2.3669
2.35875
2.36622
2.38112
2.39565
2.40367
2.4015
2.38812
2.3648
2.33432
2.30021
2.26585
2.23379
2.20587
2.18322
2.1662
2.15457
2.14731
2.1424
2.13788
2.13261
2.12691
2.12271
2.12305
2.13109
2.14894
2.17765
2.21506
2.2575
2.30125
2.34405
2.38603
2.42951
2.47787
2.53396
2.5983
2.66842
2.74066
2.80985
2.86994
2.91476
2.93869
2.93745
2.90837
2.85085
2.76652
2.65934
2.53531
2.4018
2.26644
2.13583
2.01457
1.90411
1.80177
1.70148
1.59489
1.47153
1.30221
1.02431
0.652996
0.228168
-0.231588
0
1.55029
4.78259
9.41718
14.448
18.4523
20.1813
19.1255
15.7392
11.2042
6.86965
3.68665
1.92781
1.28258
1.19346
1.02147
0.842443
0.670535
0.520056
0.407106
0.346155
0.345922
0.40617
0.516591
0.658292
0.80766
0.941595
1.04543
1.11145
1.14169
1.14728
1.14592
1.15809
1.20292
1.28915
1.41587
1.57969
1.77719
2.00383
2.25345
2.51896
2.79296
3.06836
3.33873
3.59845
3.84276
4.06775
4.27003
4.44677
4.5963
4.71769
4.81056
4.87489
4.91063
4.91716
4.8936
4.83908
4.75297
4.63543
4.48798
4.31388
4.11803
3.90647
3.6855
3.46093
3.23697
3.0163
2.80025
2.58939
2.38418
2.18562
1.99565
1.81719
1.65397
1.51014
1.38977
1.29583
1.22966
1.19087
1.17712
1.18538
1.21091
1.24617
1.28284
1.31377
1.33407
1.3419
1.33848
1.32739
1.31325
1.30014
1.29004
1.28247
1.2741
1.25947
1.23287
1.19044
1.13179
1.0609
0.985551
0.916069
0.862738
0.833357
0.831535
0.85627
0.902916
0.965191
1.0375
1.11635
1.20089
1.29274
1.39633
1.51875
1.65988
1.805
1.93255
2.02087
2.05438
2.02671
1.94048
1.80539
1.63624
1.45209
1.27175
1.10772
0.966536
0.848965
0.753285
0.6756
0.605261
0.528272
0.429502
0.295039
0.0787756
-0.22485
-0.598948
-1.01211
-1.04913
0
2.48995
6.30712
10.7629
14.7565
17.1658
17.2937
15.154
11.4566
7.29728
3.70332
1.26166
0.00626392
-0.417412
-0.430479
-0.415101
-0.398389
-0.380512
-0.361691
-0.342215
-0.322449
-0.302824
-0.283688
-0.265041
-0.246205
-0.22553
-0.200275
-0.166755
-0.120803
-0.058444
0.0233776
0.125888
0.248471
0.389399
0.54608
0.715511
0.894844
1.08197
1.27575
1.47609
1.68381
1.90048
2.12808
2.36867
2.6241
2.89566
3.18613
3.50476
3.8678
4.27145
4.6667
4.99452
5.205
5.27398
5.20796
5.03453
4.78751
4.49784
4.19199
3.88976
3.59809
3.3193
3.05467
2.80563
2.5751
2.36693
2.1858
2.0361
1.91645
1.82312
1.75094
1.69439
1.64864
1.60994
1.57547
1.54287
1.5097
1.47361
1.43224
1.38373
1.32722
1.26324
1.19378
1.12216
1.05258
0.989412
0.936983
0.899066
0.878439
0.876534
0.893218
0.926946
0.975534
1.03501
1.09837
1.1572
1.20449
1.23613
1.25212
1.25667
1.2572
1.26242
1.27996
1.31414
1.36401
1.42679
1.50019
1.58253
1.67265
1.77032
1.87653
1.99332
2.12332
2.26783
2.42097
2.56293
2.6666
2.70493
2.65936
2.52802
2.33042
2.10459
1.89594
1.74173
1.64295
1.57741
1.53384
1.50376
1.47713
1.44337
1.39207
1.31378
1.18979
0.958584
0.632061
0.248624
-0.34352
0
1.95247
5.69542
10.642
15.5305
18.9005
19.725
17.8559
14.0421
9.53511
5.52696
2.73132
1.2745
0.855685
1.00423
1.03407
1.0624
1.08924
1.11509
1.1411
1.1686
1.19864
1.2316
1.26723
1.30488
1.34393
1.38419
1.42615
1.47112
1.52116
1.57888
1.64737
1.72997
1.82986
1.94975
2.09149
2.25581
2.44223
2.64919
2.8744
3.1152
3.36892
3.63303
3.90501
4.18198
4.46029
4.73521
5.00018
5.24771
5.47041
5.66165
5.8162
5.93035
6.00106
6.02199
5.9917
5.90947
5.77627
5.59601
5.37641
5.12892
4.86745
4.60622
4.35641
4.12377
3.91231
3.72308
3.55476
3.40453
3.26886
3.14424
3.02762
2.91678
2.81053
2.70884
2.61307
2.52576
2.44981
2.38801
2.34235
2.31336
2.29987
2.29922
2.3077
2.32125
2.3361
2.34933
2.35888
2.36346
2.36232
2.35522
2.3423
2.32413
2.30182
2.27723
2.25304
2.23312
2.22181
2.22311
2.23975
2.27241
2.31962
2.37757
2.44129
2.506
2.56821
2.6262
2.67978
2.72947
2.77503
2.81562
2.84944
2.87469
2.89071
2.89871
2.90138
2.90166
2.90097
2.89798
2.88818
2.86484
2.82083
2.75095
2.65397
2.53356
2.39782
2.25726
2.12183
1.99828
1.88783
1.78336
1.67188
1.53782
1.36073
1.09082
0.733694
0.312934
-0.144799
0
1.28389
4.15642
8.59119
13.8434
18.5647
21.304
21.1653
18.2518
13.6199
8.76031
4.90761
2.57334
1.52859
1.16146
0.962925
0.869889
0.790496
0.730362
0.6933
0.680677
0.691381
0.722417
0.76785
0.81715
0.859134
0.886043
0.89583
0.893532
0.891012
0.904622
0.951086
1.04274
1.1798
1.35066
1.54464
1.75446
1.97338
2.19698
2.42413
2.65709
2.90051
3.15974
3.43881
3.73865
4.05582
4.38365
4.71095
5.0229
5.30364
5.53891
5.7207
5.84641
5.91829
5.942
5.92471
5.87318
5.79215
5.68353
5.54695
5.38286
5.19198
4.9738
4.72968
4.46384
4.18338
3.89779
3.61787
3.35438
3.11727
2.91922
2.78048
2.70775
2.68001
2.66913
2.64921
2.60493
2.53556
2.45319
2.37647
2.32279
2.29696
2.29173
2.30298
2.32655
2.35396
2.37502
2.38119
2.36769
2.33493
2.28868
2.23878
2.19651
2.17132
2.16674
2.18261
2.2135
2.25093
2.286
2.31197
2.32613
2.33036
2.33046
2.33457
2.35032
2.38228
2.43229
2.49996
2.58232
2.67507
2.77392
2.8758
2.9792
3.08382
3.18924
3.29073
3.37768
3.43609
3.45381
3.42553
3.35472
3.25168
3.12942
2.99977
2.8712
2.74721
2.62973
2.52031
2.41987
2.32828
2.24379
2.16273
2.07977
1.9874
1.86363
1.61946
1.21781
0.695708
0.11291
0
1.08642
3.91063
8.46662
13.9512
18.8972
21.7326
21.5074
18.3708
13.492
8.46274
4.55071
2.24286
1.28348
1.07142
1.06898
1.05165
1.035
1.02103
1.01235
1.01201
1.02317
1.04883
1.09129
1.15185
1.23044
1.32561
1.43469
1.55417
1.68002
1.80879
1.93791
2.06617
2.1941
2.32392
2.45925
2.60441
2.76371
2.94069
3.13764
3.35475
3.59113
3.84482
4.11258
4.38986
4.67082
4.94826
5.21342
5.45781
5.67416
5.85741
6.00499
6.11656
6.19074
6.22715
6.22669
6.18962
6.11616
6.00744
5.86611
5.6964
5.50358
5.29315
5.07164
4.84429
4.61513
4.38846
4.16894
3.96133
3.77013
3.59913
3.45024
3.32314
3.21579
3.12512
3.04787
2.98141
2.92416
2.87566
2.83621
2.80619
2.78582
2.77479
2.77213
2.77632
2.78548
2.79756
2.81047
2.82189
2.82938
2.83034
2.82223
2.80282
2.77061
2.72539
2.66864
2.60367
2.53539
2.47266
2.42532
2.4018
2.40687
2.4402
2.49609
2.5648
2.63487
2.69594
2.74285
2.77308
2.78796
2.79226
2.79322
2.7992
2.81787
2.86342
2.96189
3.1274
3.32195
3.49012
3.57869
3.55573
3.42151
3.2078
2.96668
2.7538
2.60659
2.51244
2.45009
2.40925
2.38306
2.36357
2.34278
2.31358
2.25431
2.02077
1.47263
0.701397
-0.160684
-0.639067
0
2.36568
6.52638
11.7486
16.6466
19.7295
20.0635
17.6782
13.5001
8.88146
5.00836
2.50102
1.35177
1.14011
1.28846
1.25045
1.20894
1.16645
1.12635
1.09276
1.07019
1.06292
1.07426
1.10614
1.15859
1.2295
1.31579
1.41237
1.51036
1.60149
1.68029
1.74594
1.803
1.86082
1.93156
2.02757
2.15817
2.3234
2.52025
2.74542
2.99389
3.25876
3.53206
3.80586
4.07321
4.32911
4.57099
4.79876
5.0135
5.21661
5.41048
5.59532
5.75919
5.87835
5.92747
5.89119
5.77096
5.58399
5.35533
5.10788
4.85662
4.60739
4.36156
4.12013
3.88455
3.65633
3.43684
3.22701
3.02743
2.83859
2.66129
2.49705
2.3487
2.21943
2.11241
2.02985
1.97356
1.94468
1.93837
1.94596
1.95851
1.96894
1.97362
1.97285
1.97005
1.97031
1.97859
1.9971
2.02534
2.06211
2.10489
2.14729
2.18007
2.19381
2.18107
2.13839
2.06761
1.97593
1.8747
1.77726
1.69575
1.63726
1.60742
1.60809
1.63732
1.68981
1.75781
1.83242
1.90508
1.9692
2.02104
2.05927
2.08479
2.09988
2.10702
2.1078
2.10235
2.08937
2.06663
2.03187
1.98354
1.92138
1.84649
1.76108
1.66799
1.57053
1.47107
1.37119
1.27132
1.17051
1.06624
0.952534
0.81095
0.604368
0.331256
0.0156024
-0.322104
0
1.49496
4.46236
8.69645
13.3466
17.1137
18.7699
17.7481
14.446
10.0385
5.9021
2.99679
1.55422
1.18785
1.27074
1.09198
0.927101
0.781357
0.666857
0.593786
0.567163
0.584677
0.636842
0.709623
0.78861
0.863136
0.930553
0.992973
1.05341
1.11622
1.18621
1.26752
1.3634
1.4762
1.6073
1.75726
1.92615
2.11376
2.31978
2.54375
2.78475
3.04105
3.30967
3.58613
3.86449
4.13777
4.39866
4.64036
4.85728
5.04546
5.20169
5.32284
5.40671
5.45255
5.45933
5.42591
5.35167
5.23727
5.0853
4.90062
4.69015
4.46256
4.22707
3.99148
3.76214
3.54384
3.33964
3.151
2.97816
2.82078
2.67846
2.55117
2.43941
2.34388
2.26536
2.20525
2.16368
2.13402
2.1055
2.06722
2.01184
1.93837
1.85317
1.7682
1.69718
1.65157
1.64361
1.66472
1.69639
1.71837
1.71718
1.69128
1.65087
1.61308
1.59508
1.60531
1.63804
1.69339
1.76592
1.83868
1.89298
1.91398
1.89564
1.84364
1.77489
1.7131
1.68182
1.69772
1.75426
1.83943
1.94776
2.07435
2.21363
2.36014
2.50849
2.65182
2.78173
2.89005
2.96889
3.01165
3.01393
2.97436
2.89487
2.78072
2.64027
2.48488
2.32704
2.17699
2.04261
1.93128
1.85054
1.80336
1.78158
1.76622
1.73402
1.66195
1.53137
1.26501
0.877424
0.413862
-0.207257
0
1.6768
5.0889
9.86645
14.9821
19.0647
20.9303
20.0784
16.8977
12.4684
8.06935
4.65567
2.56801
1.58235
1.20357
1.05323
0.970004
0.899025
0.844074
0.807659
0.790844
0.79334
0.81374
0.84981
0.898575
0.956742
1.02149
1.08942
1.15787
1.22574
1.2941
1.36647
1.44846
1.54684
1.66824
1.81777
1.9959
2.2008
2.42982
2.679
2.94349
3.21844
3.49956
3.78352
4.06784
4.35045
4.62915
4.9007
5.15916
5.39722
5.60734
5.78237
5.91675
6.00712
6.05227
6.05246
6.00866
5.92197
5.79672
5.63729
5.44653
5.22881
4.99018
4.73802
4.48067
4.22597
3.98078
3.75065
3.5394
3.34925
3.18024
3.03109
2.89979
2.78431
2.6831
2.59531
2.52064
2.45896
2.40971
2.3717
2.34318
2.32159
2.30371
2.28686
2.26952
2.25164
2.23446
2.21988
2.20962
2.20494
2.20484
2.20689
2.20811
2.20616
2.20021
2.19117
2.18121
2.17297
2.16839
2.16793
2.17121
2.17719
2.18428
2.19057
2.19446
2.1952
2.19333
2.19085
2.19115
2.19845
2.21698
2.2502
2.30023
2.36781
2.45244
2.55287
2.66732
2.79682
2.94096
3.09042
3.22931
3.33873
3.40076
3.40219
3.33661
3.20468
3.01397
2.77895
2.52324
2.2695
2.03567
1.83389
1.67526
1.59035
1.60662
1.68214
1.74917
1.73569
1.58615
1.2785
0.832506
0.305924
-0.344978
0
1.94844
5.68035
10.6801
15.7773
19.5392
20.8512
19.3882
15.7264
11.0504
6.62923
3.33707
1.43372
0.651364
0.478801
0.416629
0.36556
0.323671
0.294622
0.281008
0.284093
0.303767
0.338735
0.386892
0.445751
0.51248
0.584712
0.660935
0.740503
0.823685
0.911796
1.00721
1.11312
1.23313
1.37054
1.52772
1.70555
1.90327
2.11854
2.34825
2.58921
2.83868
3.09481
3.35664
3.62385
3.89642
4.17421
4.45682
4.74371
5.03409
5.32543
5.60998
5.87158
6.08792
6.23278
6.28316
6.22639
6.06456
5.81506
5.50779
5.17924
4.86281
4.57181
4.30474
4.05793
3.8305
3.62305
3.43567
3.26794
3.11899
2.98826
2.87419
2.77221
2.67735
2.58543
2.49432
2.40467
2.3199
2.24527
2.18644
2.14703
2.12776
2.12801
2.14479
2.17378
2.20886
2.24377
2.27308
2.29274
2.30052
2.29607
2.28079
2.25744
2.22967
2.20132
2.1756
2.15478
2.14019
2.13153
2.12692
2.1238
2.11989
2.11405
2.10683
2.10055
2.09884
2.10572
2.1244
2.15616
2.20066
2.25625
2.32022
2.3893
2.46024
2.53044
2.59856
2.66464
2.72989
2.79615
2.86535
2.93872
3.01073
3.06701
3.08921
3.06184
2.979
2.84761
2.68556
2.51594
2.3603
2.22818
2.11734
2.02796
1.96053
1.91684
1.89755
1.88716
1.85959
1.78454
1.6343
1.33525
0.90109
0.386811
0
0.880427
3.5009
7.72704
12.6796
16.9674
19.2467
18.8313
15.9989
11.8132
7.57991
4.27164
2.23703
1.28133
0.968042
0.934884
0.913052
0.893549
0.87732
0.86533
0.85853
0.857746
0.863524
0.875987
0.894657
0.918233
0.944515
0.970811
0.995001
1.01662
1.03765
1.06289
1.09945
1.15568
1.23955
1.35699
1.50963
1.69431
1.90647
2.14208
2.397
2.66738
2.94995
3.24189
3.54054
3.84314
4.14593
4.44307
4.7252
4.97771
5.18416
5.33391
5.4183
5.43219
5.37643
5.25969
5.09789
4.91047
4.7147
4.52051
4.32873
4.13697
3.94297
3.74474
3.54109
3.33218
3.11974
2.90698
2.6983
2.49874
2.31328
2.14619
2.00119
1.88113
1.78534
1.71018
1.65112
1.60404
1.56644
1.5379
1.51985
1.51451
1.52356
1.54606
1.58086
1.62269
1.66351
1.69499
1.71047
1.70635
1.6825
1.64188
1.58938
1.53072
1.47158
1.41637
1.36826
1.33008
1.30379
1.29142
1.29503
1.31083
1.33248
1.35387
1.37143
1.38566
1.40088
1.42338
1.45882
1.51005
1.57361
1.64562
1.72288
1.80185
1.87886
1.94932
2.00858
2.05239
2.07705
2.08022
2.06172
2.02379
1.97063
1.90741
1.83912
1.76986
1.70188
1.63624
1.57332
1.51277
1.45347
1.39348
1.33003
1.25974
1.17858
1.08076
0.954678
0.772876
0.510472
0.185595
-0.17213
-0.434785
0
1.66136
4.82913
9.21701
13.8809
17.4919
18.8864
17.6111
14.1434
9.65011
5.42816
2.36122
0.681539
0.0993774
0.125122
0.178369
0.229301
0.27739
0.32287
0.367277
0.413034
0.46284
0.518986
0.582804
0.654399
0.732713
0.815863
0.901613
0.98797
1.0736
1.15807
1.24204
1.32722
1.4163
1.51277
1.62077
1.7448
1.88957
2.05971
2.25939
2.49183
2.75859
3.05882
3.38851
3.74561
4.12089
4.48434
4.80435
5.05599
5.22755
5.32248
5.356
5.34801
5.31546
5.26764
5.2087
5.13689
5.04787
4.93743
4.8026
4.64226
4.45751
4.25275
4.03384
3.80683
3.57834
3.35512
3.14327
2.94758
2.77099
2.61442
2.47681
2.35575
2.24827
2.15166
2.06411
1.98504
1.91495
1.85509
1.80693
1.77179
1.75047
1.74326
1.75005
1.77045
1.80389
1.85002
1.9082
1.97668
2.05095
2.12218
2.17961
2.21352
2.21803
2.19316
2.14536
2.08595
2.02792
1.98208
1.95281
1.93685
1.93017
1.9285
1.92753
1.92427
1.91788
1.91015
1.90516
1.90853
1.92592
1.9618
2.01857
2.09596
2.19121
2.30036
2.41818
2.53906
2.6577
2.76948
2.87052
2.95787
3.02945
3.08355
3.11858
3.133
3.12545
3.09516
3.04234
2.96865
2.87749
2.77404
2.66494
2.55753
2.45873
2.37359
2.30636
2.25891
2.22654
2.19805
2.15837
2.08708
1.86694
1.43355
0.826722
0.126917
0
1.32788
4.55754
9.43539
14.9104
19.4638
21.7389
21.1309
18.0175
13.5206
8.96783
5.35872
3.09156
2.01371
1.68394
1.62464
1.55035
1.48058
1.42181
1.37992
1.35951
1.36299
1.39012
1.4381
1.5023
1.57746
1.65887
1.74299
1.82818
1.91425
2.00199
2.09296
2.18931
2.29371
2.40918
2.53886
2.68579
2.85255
3.04101
3.25202
3.48542
3.73999
4.01349
4.30285
4.60442
4.91422
5.22826
5.54264
5.85351
6.1556
6.43954
6.6919
6.90141
7.05632
7.14737
7.17083
7.12981
7.03297
6.89084
6.71202
6.50233
6.26935
6.01904
5.75578
5.484
5.2092
4.93814
4.67814
4.43618
4.21782
4.02646
3.86291
3.72628
3.61353
3.51826
3.43378
3.3545
3.27706
3.20093
3.12828
3.06316
3.0102
2.97291
2.95212
2.94792
2.95811
2.97751
2.99952
3.01785
3.02763
3.02621
3.01334
2.9908
2.96163
2.92914
2.89603
2.8636
2.83178
2.79945
2.76482
2.7261
2.68226
2.63333
2.58125
2.53014
2.48561
2.45355
2.43898
2.44497
2.47202
2.51802
2.57878
2.64908
2.72388
2.79939
2.87375
2.94684
3.01942
3.09253
3.16669
3.24134
3.31463
3.38349
3.44402
3.49187
3.5227
3.53243
3.51744
3.47468
3.40189
3.29799
3.16356
3.00148
2.81716
2.61858
2.41592
2.22061
2.04678
1.92395
1.90496
1.96927
2.0449
2.04053
1.87831
1.52295
0.995546
0.367664
0
1.06769
4.07844
8.87309
14.4755
19.3416
21.9586
21.5144
18.2708
13.4218
8.51516
4.76819
2.64668
1.87965
1.81036
1.68498
1.53561
1.39357
1.26902
1.1701
1.10162
1.06458
1.05671
1.07371
1.11073
1.1635
1.22821
1.30335
1.38921
1.48682
1.59731
1.72133
1.85873
2.00957
2.17193
2.33669
2.48928
2.61693
2.71451
2.78931
2.86221
2.96373
3.12504
3.36681
3.68717
4.05281
4.43544
4.81076
5.15543
5.45073
5.68486
5.85337
5.95803
6.00465
6.00067
5.95469
5.87414
5.76368
5.62645
5.46527
5.28317
5.08377
4.87147
4.6513
4.42854
4.20826
3.99497
3.79235
3.60323
3.42959
3.27262
3.13273
3.00949
2.90163
2.80722
2.72327
2.64611
2.57245
2.50016
2.4289
2.36033
2.29778
2.24547
2.20729
2.18651
2.18488
2.19987
2.22461
2.25023
2.26755
2.26879
2.24888
2.20636
2.14372
2.06721
1.98622
1.9118
1.85469
1.82322
1.83538
1.90999
2.03556
2.17556
2.28961
2.34628
2.3315
2.25065
2.12526
1.98661
1.86794
1.79026
1.75443
1.75372
1.78136
1.83204
1.9021
1.9883
2.08801
2.20019
2.32638
2.47054
2.63397
2.80405
2.95531
3.05867
3.09066
3.04126
2.91744
2.74167
2.54589
2.36258
2.21139
2.09079
1.99183
1.90733
1.83229
1.76153
1.6894
1.60993
1.51403
1.37486
1.12376
0.768295
0.345739
-0.142803
0
1.34751
4.25272
8.53227
13.3348
17.3445
19.2952
18.5499
15.4161
10.9958
6.65481
3.41798
1.6217
0.967968
0.869063
0.829768
0.810705
0.797465
0.791917
0.794642
0.805795
0.825746
0.855568
0.897058
0.952138
1.02213
1.11075
1.2109
1.31004
1.39521
1.45832
1.4998
1.52914
1.56182
1.61463
1.7012
1.8201
1.96738
2.14218
2.34363
2.56967
2.81717
3.08179
3.35796
3.63904
3.91766
4.18609
4.43711
4.66443
4.86215
5.0242
5.14667
5.23002
5.27571
5.28569
30
169
309
451
593
737
878
1020
1163
1305
1446
1586
1727
1867
2005
2142
2280
2419
2558
2695
2836
2979
3122
3264
3409
3556
3701
0
0
0
0
0
0
0
0
0
0
0
0
0
0
0
0
0
0
0
0
0
0
0
0
0
0
0
0
0
0
0
0
0
0
0
0
0
0
0
0
0
0
0
0
0
0
0
0
0
0
0
0
0
0
0
0
0
0
0
0
0
0
0
0
0
0
0
0
0
0
0
0
0
0
0
0
0
0
0
0
0
0
0
0
0
0
0
0
0
0
0
0
0
0
0
0
0
0
0
0
0
0
0
0
0
0
0
0
0
0
0
0
0
0
0
0
0
0
0
0
0
0
0
0
0
0
0
0
0
0
0
0
0
0
0
0
0
0
0
0
0
0
0
0
0
0
0
0
0
0
0
0
0
0
0
0
0
0
0
0
0
0
0
0
0
0
0
0
0
0
0
0
0
0
0
0
0
0
0
0
0
0
0
0
0
0
0
0
0
0
0
0
0
0
0
0
0
0
0
0
0
0
0
0
0
0
0
0
0
0
0
0
0
0
0
0
0
0
0
0
0
0
0
0
0
0
0
0
0
0
0
0
0
0
0
0
0
0
0
0
0
0
0
0
0
0
0
0
0
0
0
0
0
0
0
0
0
0
0
0
0
0
0
0
0
0
0
0
0
0
0
0
0
0
0
0
0
0
0
0
0
0
0
0
0
0
0
0
0
0
0
0
0
0
0
0
0
0
0
0
0
0
0
0
0
0
0
0
0
0
0
0
0
0
0
0
0
0
0
0
0
0
0
0
0
0
0
0
0
0
0
0
0
0
0
0
0
0
0
0
0
0
0
0
0
0
0
0
0
0
0
0
0
0
0
0
0
0
0
0
0
0
0
0
0
0
0
0
0
0
0
0
0
0
0
0
0
0
0
0
0
0
0
0
0
0
0
0
0
0
0
0
0
0
0
0
0
0
0
0
0
0
0
0
0
0
0
0
0
0
0
0
0
0
0
0
0
0
0
0
0
0
0
0
0
0
0
0
0
0
0
0
0
0
0
0
0
0
0
0
0
0
0
0
0
0
0
0
0
0
0
0
0
0
0
0
0
0
0
0
0
0
0
0
0
0
0
0
0
0
0
0
0
0
0
0
0
0
0
0
0
0
0
0
0
0
0
0
0
0
0
0
0
0
0
0
0
0
0
0
0
0
0
0
0
0
0
0
0
0
0
0
0
0
0
0
0
0
0
0
0
0
0
0
0
0
0
0
0
0
0
0
0
0
0
0
0
0
0
0
0
0
0
0
0
0
0
0
0
0
0
0
0
0
0
0
0
0
0
0
0
0
0
0
0
0
0
0
0
0
0
0
0
0
0
0
0
0
0
0
0
0
0
0
0
0
0
0
0
0
0
0
0
0
0
0
0
0
0
0
0
0
0
0
0
0
0
0
0
0
0
0
0
0
0
0
0
0
0
0
0
0
0
0
0
0
0
0
0
0
0
0
0
0
0
0
0
0
0
0
0
0
0
0
0
0
0
0
0
0
0
0
0
0
0
0
0
0
0
0
0
0
0
0
0
0
0
0
0
0
0
0
0
0
0
0
0
0
0
0
0
0
0
0
0
0
0
0
0
0
0
0
0
0
0
0
0
0
0
0
0
0
0
0
0
0
0
0
0
0
0
0
0
0
0
0
0
0
0
0
0
0
0
0
0
0
0
0
0
0
0
0
0
0
0
0
0
0
0
0
0
0
0
0
0
0
0
0
0
0
0
0
0
0
0
0
0
0
0
0
0
0
0
0
0
0
0
0
0
0
0
0
0
0
0
0
0
0
0
0
0
0
0
0
0
0
0
0
0
0
0
0
0
0
0
0
0
0
0
0
0
0
0
0
0
0
0
0
0
0
0
0
0
0
0
0
0
0
0
0
0
0
0
0
0
0
0
0
0
0
0
0
0
0
0
0
0
0
0
0
0
0
0
0
0
0
0
0
0
0
0
0
0
0
0
0
0
0
0
0
0
0
0
0
0
0
0
0
0
0
0
0
0
0
0
0
0
0
0
0
0
0
0
0
0
0
0
0
0
0
0
0
0
0
0
0
0
0
0
0
0
0
0
0
0
0
0
0
0
0
0
0
0
0
0
0
0
0
0
0
0
0
0
0
0
0
0
0
0
0
0
0
0
0
0
0
0
0
0
0
0
0
0
0
0
0
0
0
0
0
0
0
0
0
0
0
0
0
0
0
0
0
0
0
0
0
0
0
0
0
0
0
0
0
0
0
0
0
0
0
0
0
0
0
0
0
0
0
0
0
0
0
0
0
0
0
0
0
0
0
0
0
0
0
0
0
0
0
0
0
0
0
0
0
0
0
0
0
0
0
0
0
0
0
0
0
0
0
0
0
0
0
0
0
0
0
0
0
0
0
0
0
0
0
0
0
0
0
0
0
0
0
0
0
0
0
0
0
0
0
0
0
0
0
0
0
0
0
0
0
0
0
0
0
0
0
0
0
0
0
0
0
0
0
0
0
0
0
0
0
0
0
0
0
0
0
0
0
0
0
0
0
0
0
0
0
0
0
0
0
0
0
0
0
0
0
0
0
0
0
0
0
0
0
0
0
0
0
0
0
0
0
0
0
0
0
0
0
0
0
0
0
0
0
0
0
0
0
0
0
0
0
0
0
0
0
0
0
0
0
0
0
0
0
0
0
0
0
0
0
0
0
0
0
0
0
0
0
0
0
0
0
0
0
0
0
0
0
0
0
0
0
0
0
0
0
0
0
0
0
0
0
0
0
0
0
0
0
0
0
0
0
0
0
0
0
0
0
0
0
0
0
0
0
0
0
0
0
0
0
0
0
0
0
0
0
0
0
0
0
0
0
0
0
0
0
0
0
0
0
0
0
0
0
0
0
0
0
0
0
0
0
0
0
0
0
0
0
0
0
0
0
0
0
0
0
0
0
0
0
0
0
0
0
0
0
0
0
0
0
0
0
0
0
0
0
0
0
0
0
0
0
0
0
0
0
0
0
0
0
0
0
0
0
0
0
0
0
0
0
0
0
0
0
0
0
0
0
0
0
0
0
0
0
0
0
0
0
0
0
0
0
0
0
0
0
0
0
0
0
0
0
0
0
0
0
0
0
0
0
0
0
0
0
0
0
0
0
0
0
0
0
0
0
0
0
0
0
0
0
0
0
0
0
0
0
0
0
0
0
0
0
0
0
0
0
0
0
0
0
0
0
0
0
0
0
0
0
0
0
0
0
0
0
0
0
0
0
0
0
0
0
0
0
0
0
0
0
0
0
0
0
0
0
0
0
0
0
0
0
0
0
0
0
0
0
0
0
0
0
0
0
0
0
0
0
0
0
0
0
0
0
0
0
0
0
0
0
0
0
0
0
0
0
0
0
0
0
0
0
0
0
0
0
0
0
0
0
0
0
0
0
0
0
0
0
0
0
0
0
0
0
0
0
0
0
0
0
0
0
0
0
0
0
0
0
0
0
0
0
0
0
0
0
0
0
0
0
0
0
0
0
0
0
0
0
0
0
0
0
0
0
0
0
0
0
0
0
0
0
0
0
0
0
0
0
0
0
0
0
0
0
0
0
0
0
0
0
0
0
0
0
0
0
0
0
0
0
0
0
0
0
0
0
0
0
0
0
0
0
0
0
0
0
0
0
0
0
0
0
0
0
0
0
0
0
0
0
0
0
0
0
0
0
0
0
0
0
0
0
0
0
0
0
0
0
0
0
0
0
0
0
0
0
0
0
0
0
0
0
0
0
0
0
0
0
0
0
0
0
0
0
0
0
0
0
0
0
0
0
0
0
0
0
0
0
0
0
0
0
0
0
0
0
0
0
0
0
0
0
0
0
0
0
0
0
0
0
0
0
0
0
0
0
0
0
0
0
0
0
0
0
0
0
0
0
0
0
0
0
0
0
0
0
0
0
0
0
0
0
0
0
0
0
0
0
0
0
0
0
0
0
0
0
0
0
0
0
0
0
0
0
0
0
0
0
0
0
0
0
0
0
0
0
0
0
0
0
0
0
0
0
0
0
0
0
0
0
0
0
0
0
0
0
0
0
0
0
0
0
0
0
0
0
0
0
0
0
0
0
0
0
0
0
0
0
0
0
0
0
0
0
0
0
0
0
0
0
0
0
0
0
0
0
0
0
0
0
0
0
0
0
0
0
0
0
0
0
0
0
0
0
0
0
0
0
0
0
0
0
0
0
0
0
0
0
0
0
0
0
0
0
0
0
0
0
0
0
0
0
0
0
0
0
0
0
0
0
0
0
0
0
0
0
0
0
0
0
0
0
0
0
0
0
0
0
0
0
0
0
0
0
0
0
0
0
0
0
0
0
0
0
0
0
0
0
0
0
0
0
0
0
0
0
0
0
0
0
0
0
0
0
0
0
0
0
0
0
0
0
0
0
0
0
0
0
0
0
0
0
0
0
0
0
0
0
0
0
0
0
0
0
0
0
0
0
0
0
0
0
0
0
0
0
0
0
0
0
0
0
0
0
0
0
0
0
0
0
0
0
0
0
0
0
0
0
0
0
0
0
0
0
0
0
0
0
0
0
0
0
0
0
0
0
0
0
0
0
0
0
0
0
0
0
0
0
0
0
0
0
0
0
0
0
0
0
0
0
0
0
0
0
0
0
0
0
0
0
0
0
0
0
0
0
0
0
0
0
0
0
0
0
0
0
0
0
0
0
0
0
0
0
0
0
0
0
0
0
0
0
0
0
0
0
0
0
0
0
0
0
0
0
0
0
0
0
0
0
0
0
0
0
0
0
0
0
0
0
0
0
0
0
0
0
0
0
0
0
0
0
0
0
0
0
0
0
0
0
0
0
0
0
0
0
0
0
0
0
0
0
0
0
0
0
0
0
0
0
0
0
0
0
0
0
0
0
0
0
0
0
0
0
0
0
0
0
0
0
0
0
0
0
0
0
0
0
0
0
0
0
0
0
0
0
0
0
0
0
0
0
0
0
0
0
0
0
0
0
0
0
0
0
0
0
0
0
0
0
0
0
0
0
0
0
0
0
0
0
0
0
0
0
0
0
0
0
0
0
0
0
0
0
0
0
0
0
0
0
0
0
0
0
0
0
0
0
0
0
0
0
0
0
0
0
0
0
0
0
0
0
0
0
0
0
0
0
0
0
0
0
0
0
0
0
0
0
0
0
0
0
0
0
0
0
0
0
0
0
0
0
0
0
0
0
0
0
0
0
0
0
0
0
0
0
0
0
0
0
0
0
0
0
0
0
0
0
0
0
0
0
0
0
0
0
0
0
0
0
0
0
0
0
0
0
0
0
0
0
0
0
0
0
0
0
0
0
0
0
0
0
0
0
0
0
0
0
0
0
0
0
0
0
0
0
0
0
0
0
0
0
0
0
0
0
0
0
0
0
0
0
0
0
0
0
0
0
0
0
0
0
0
0
0
0
0
0
0
0
0
0
0
0
0
0
0
0
0
0
0
0
0
0
0
0
0
0
0
0
0
0
0
0
0
0
0
0
0
0
0
0
0
0
0
0
0
0
0
0
0
0
0
0
0
0
0
0
0
0
0
0
0
0
0
0
0
0
0
0
0
0
0
0
0
0
0
0
0
0
0
0
0
0
0
0
0
0
0
0
0
0
0
0
0
0
0
0
0
0
0
0
0
0
0
0
0
0
0
0
0
0
0
0
0
0
0
0
0
0
0
0
0
0
0
0
0
0
0
0
0
0
0
0
0
0
0
0
0
0
0
0
0
0
0
0
0
0
0
0
0
0
0
0
0
0
0
0
0
0
0
0
0
0
0
0
0
0
0
0
0
0
0
0
0
0
0
0
0
0
0
0
0
0
0
0
0
0
0
0
0
0
0
0
0
0
0
0
0
0
0
0
0
0
0
0
0
0
0
0
0
0
0
0
0
0
0
0
0
0
0
0
0
0
0
0
0
0
0
0
0
0
0
0
0
0
0
0
0
0
0
0
0
0
0
0
0
0
0
0
0
0
0
0
0
0
0
0
0
0
0
0
0
0
0
0
0
0
0
0
0
0
0
0
0
0
0
0
0
0
0
0
0
0
0
0
0
0
0
0
0
0
0
0
0
0
0
0
0
0
0
0
0
0
0
0
0
0
0
0
0
0
0
0
0
0
0
0
0
0
0
0
0
0
0
0
0
0
0
0
0
0
0
0
0
0
0
0
0
0
0
0
0
0
0
0
0
0
0
0
0
0
0
0
0
0
0
0
0
0
0
0
0
0
0
0
0
0
0
0
0
0
0
0
0
0
0
0
0
0
0
0
0
0
0
0
0
0
0
0
0
0
0
0
0
0
0
0
0
0
0
0
0
0
0
0
0
0
0
0
0
0
0
0
0
0
0
0
0
0
0
0
0
0
0
0
0
0
0
0
0
0
0
0
0
0
0
0
0
0
0
0
0
0
0
0
0
0
0
0
0
0
0
0
0
0
0
0
0
0
0
0
0
0
0
0
0
0
0
0
0
0
0
0
0
0
0
0
0
0
0
0
0
0
0
0
0
0
0
0
0
0
0
0
0
0
0
0
0
0
0
0
0
0
0
0
0
0
0
0
0
0
0
0
0
0
0
0
0
0
0
0
0
0
0
0
0
0
0
0
0
0
0
0
0
0
0
0
0
0
0
0
0
0
0
0
0
0
0
0
0
0
0
0
0
0
0
0
0
0
0
0
0
0
0
0
0
0
0
0
0
0
0
0
0
0
0
0
0
0
0
0
0
0
0
0
0
0
0
0
0
0
0
0
0
0
0
0
0
0
0
0
0
0
0
0
0
0
0
0
0
0
0
0
0
0
0
0
0
0
0
0
0
0
0
0
0
0
0
0
0
0
0
0
0
0
0
0
0
0
0
0
0
0
0
0
0
0
0
0
0
0
0
0
0
0
0
0
0
0
0
0
0
0
0
0
0
0
0
0
0
0
0
0
0
0
0
0
0
0
0
0
0
0
0
0
0
0
0
0
0
0
0
0
0
0
0
0
0
0
0
0
0
0
0
0
0
0
0
0
0
0
0
0
0
0
0
0
0
0
0
0
0
0
0
0
0
0
0
0
0
0
0
0
0
0
0
0
0
0
0
0
0
0
0
0
0
0
0
0
0
0
0
0
0
0
0
0
0
0
0
0
0
0
0
0
0
0
0
0
0
0
0
0
0
0
0
0
0
0
0
0
0
0
0
0
0
0
0
0
0
0
0
0
0
0
0
0
0
0
0
0
0
0
0
0
0
0
0
0
0
0
0
0
0
0
0
0
0
0
0
0
0
0
0
0
0
0
0
0
0
0
0
0
0
0
0
0
0
0
0
0
0
0
0
0
0
0
0
0
0
0
0
0
0
0
0
0
0
0
0
0
0
0
0
0
0
0
0
0
0
0
0
0
0
0
0
0
0
0
0
0
0
0
0
0
0
0
0
0
0
0
0
0
0
0
0
0
0
0
0
0
0
0
0
0
0
0
0
0
0
0
0
0
0
0
0
0
0
0
0
0
0
0
0
0
0
0
0
0
0
0
0
0
0
0
0
0
0
0
0
0
0
0
0
0
0
0
0
0
0
0
0
0
0
0
0
0
0
0
0
0
0
0
0
0
0
0
0
0
0
0
0
0
0
0
0
0
0
0
0
0
0
0
0
0
0
0
0
0
0
0
0
0
0
0
0
0
0
0
0
0
0
0
0
0
0
0
0
0
0
0
0
0
0
0
0
0
0
0
0
0
0
0
0
0
0
0
0
0
0
0
0
0
0
0
0
0
0
0
0
0
0
0
0
0
0
0
0
0
0
0
0
0
0
0
0
0
0
0
0
0
0
0
0
0
0
0
0
0
0
0
0
0
0
0
0
0
0
0
0
0
0
0
0
0
0
0
0
0
0
0
0
0
0
0
0
0
0
0
0
0
0
0
0
0
0
0
0
0
0
0
0
0
0
0
0
0
0
0
0
0
0
0
0
0
0
0
0
0
0
0
0
0
0
0
0
0
0
0
0
0
0
0
0
0
0
0
0
0
0
0
0
0
0
0
0
0
0
0
0
0
0
0
0
0
0
0
0
0
0
0
0
0
0
0
0
0
0
0
0
0
0
0
0
0
0
0
0
0
0
0
0
0
0
0
0
0
0
0
0
0
0
0
0
0
0
0
0
0
0
0
0
0
0
0
0
0
0
0
0
0
0
0
0
0
0
0
0
0
0
0
0
0
0
0
0
0
0
0
0
0
0
0
0
0
0
0
0
0
0
0
0
0
0
0
0
0
0
0
0
0
0
0
0
0
0
0
0
0
0
0
0
0
0
0
0
0
0
0
0
0
0
0
0
0
0
0
0
0
0
0
0
0
0
0
0
0
0
0
0
0
0
0
0
0
0
0
0
0
0
0
0
0
0
0
0
0
0
0
0
0
0
0
0
0
0
0
0
0
0
0
0
0
0
0
0
0
0
0
0
0
0
0
0
0
0
0
