4.63099
4.35792
4.08781
3.82612
3.57773
3.34667
3.13594
2.94696
2.77966
2.63268
2.50374
2.39015
2.28925
2.19882
2.11719
2.04328
1.97649
1.91655
1.86334
1.81665
1.77608
1.741
1.71029
1.68235
1.65539
1.62776
1.59824
1.56631
1.53235
1.49752
1.46386
1.43386
1.41011
1.3949
1.39002
1.39648
1.41447
1.44328
1.4813
1.52596
1.57426
1.62286
1.66812
1.70679
1.73643
1.75577
1.76488
1.76506
1.75864
1.74843
1.73729
1.72753
1.72049
1.71658
1.71554
1.71662
1.71881
1.72105
1.72243
1.72224
1.72002
1.71548
1.70853
1.69922
1.68774
1.67443
1.65977
1.64436
1.62887
1.61408
1.60102
1.59112
1.58637
1.58952
1.60435
1.63467
1.68407
1.75513
1.84858
1.96284
2.09946
2.25098
2.39963
2.52782
2.6228
2.67978
2.70228
2.69988
2.68421
2.66503
2.64752
2.6318
2.61657
2.60019
2.58122
2.559
2.53383
2.50695
2.4801
2.45485
2.43222
2.41242
2.39391
2.37355
2.34753
2.31231
2.26573
2.20759
2.13986
2.06631
1.99171
1.92063
1.85595
1.79977
1.75353
1.71707
1.68876
1.66636
1.64765
1.63092
1.61535
1.60098
1.58846
1.5787
1.5724
1.57007
1.57202
1.57865
1.59095
1.61081
1.64119
1.68578
1.74845
1.83229
1.93822
2.0647
2.20797
2.36257
2.52208
2.67709
2.81787
2.93624
3.0264
3.08521
3.1118
3.10669
3.07101
3.00585
2.91348
2.79786
2.6625
2.51103
2.34817
2.17971
2.01188
1.85058
1.70057
1.56463
1.44333
1.3353
1.23777
1.14727
1.06037
0.974139
0.886455
0.796009
0.702198
0.604884
0.504286
0.400897
0.29543
0.187922
-0.00889778
0
0.589492
2.09115
4.53548
7.43234
9.84466
10.767
9.618
6.55874
2.45339
-1.50871
-4.32383
-5.55543
-5.40478
-4.46703
-3.3506
-2.40143
-1.66859
-1.06159
-0.522767
-0.147271
0.11628
0.210989
0.126634
-0.109675
-0.427528
-0.710002
-0.812652
-0.734834
-0.600266
-0.451202
-0.297492
-0.143092
0.00910778
0.157074
0.299552
0.435881
0.565796
0.689305
0.806681
0.91856
1.02609
1.13105
1.23584
1.3434
1.45691
1.5795
1.71394
1.86236
2.02615
2.20592
2.4016
2.61252
2.83755
3.07517
3.32351
3.58263
3.85354
4.12897
4.38815
4.60749
4.7676
4.85825
4.87876
4.83462
4.73356
4.58413
4.39568
4.17981
3.94423
3.69274
3.42865
3.15478
2.87236
2.5824
2.28702
1.98942
1.69361
1.40403
1.12508
0.860696
0.614028
0.387244
0.18145
-0.00327358
-0.167733
-0.313392
-0.44207
-0.55561
-0.655567
-0.743002
-0.818429
-0.881955
-0.933389
-0.972364
-0.999006
-1.01465
-1.02204
-1.02432
-1.0244
-1.02432
-1.02497
-1.02608
-1.02662
-1.02537
-1.02137
-1.01454
-1.00543
-0.994818
-0.983633
-0.972768
-0.962938
-0.954603
-0.947969
-0.943024
-0.939628
-0.937569
-0.936601
-0.936472
-0.936934
-0.93776
-0.938777
-0.939901
-0.941193
-0.942916
-0.945548
-0.94977
-0.956384
-0.966171
-0.979714
-0.997186
-1.01818
-1.04172
-1.06597
-1.08835
-1.10606
-1.11675
-1.11895
-1.11243
-1.09823
-1.07833
-1.05521
-1.03136
-1.00879
-0.988845
-0.972531
-0.960575
-0.953601
-0.952234
-0.957155
-0.968894
-0.987565
-1.0126
-1.04248
-1.07471
-1.106
-1.13266
-1.15142
-1.15947
-1.15402
-1.13659
-1.11251
-1.08816
-1.069
-1.05804
-1.05525
-1.05813
-1.06303
-1.06678
-1.06806
-1.06714
-1.06501
-1.06283
-1.06117
-1.05942
-1.05566
-1.04687
-1.02954
-1.00066
-0.959162
-0.904786
-0.837796
-0.759389
-0.67168
-0.5774
-0.479362
-0.380343
-0.282391
-0.186518
-0.0926188
0.000316238
0.0937449
0.188965
0.286525
0.385823
0.484863
0.579857
0.666068
0.738576
0.792968
0.825766
0.83452
0.817653
0.774216
0.703751
0.606451
0.484297
0.336805
0.154587
-0.0509674
-0.250097
-0.411768
-0.512286
-0.540314
-0.496586
-0.390034
-0.233459
-0.040954
0.181787
0.417715
0.632883
0.794701
0.873283
0.847637
0.718988
0.521249
0.148972
0
0.419995
1.72641
4.02969
7.02955
9.93561
11.6884
11.4524
9.10007
5.3371
1.35579
-1.75485
-3.45615
-3.83078
-3.33902
-2.49587
-1.65942
-0.98218
-0.467379
-0.0625902
0.236318
0.350506
0.452439
0.553882
0.657868
0.76708
0.883412
1.00751
1.13857
1.27437
1.4117
1.54686
1.67619
1.79664
1.90611
2.0037
2.0899
2.1664
2.23597
2.30219
2.36916
2.44115
2.52224
2.61598
2.72503
2.85107
2.99471
3.1555
3.33202
3.52206
3.72291
3.93166
4.14555
4.36222
4.57997
4.79781
5.01546
5.23304
5.45083
5.66869
5.88304
6.08272
6.25201
6.37534
6.44231
6.44993
6.40166
6.30467
6.16679
5.99448
5.79523
5.57591
5.34237
5.09963
4.85141
4.60028
4.34865
4.099
3.85381
3.61549
3.38642
3.16891
2.96525
2.7776
2.60778
2.45709
2.32596
2.21379
2.11892
2.03893
1.97097
1.91215
1.86003
1.81277
1.76935
1.72945
1.69338
1.66188
1.63606
1.61719
1.6064
1.60457
1.61217
1.62911
1.65459
1.68713
1.72466
1.7648
1.80516
1.84361
1.87847
1.90841
1.93271
1.95104
1.96349
1.9705
1.97283
1.97149
1.96774
1.96295
1.95853
1.95578
1.95582
1.95948
1.96726
1.97925
1.99521
2.01426
2.0348
2.05456
2.07071
2.08048
2.08155
2.07251
2.05318
2.02472
1.98946
1.95051
1.91117
1.8744
1.84202
1.81474
1.79273
1.77587
1.76374
1.75589
1.75188
1.75143
1.75437
1.76069
1.77062
1.78468
1.80386
1.82952
1.86345
1.90766
1.96402
2.03386
2.11757
2.21432
2.32196
2.4372
2.55596
2.6728
2.78189
2.87761
2.95477
3.00993
3.04153
3.04956
3.03536
3.00151
2.95153
2.88972
2.82075
2.74931
2.67954
2.61425
2.55511
2.50316
2.45879
2.42184
2.39172
2.36775
2.34943
2.33664
2.32963
2.32905
2.3358
2.3509
2.37528
2.40963
2.45427
2.50894
2.57242
2.64284
2.71805
2.79427
2.86641
2.92955
2.97968
3.01426
3.03221
3.03341
3.01795
2.98547
2.93626
2.86976
2.78506
2.68225
2.56296
2.43055
2.28998
2.14717
2.00766
1.87605
1.7562
1.6506
1.55886
1.47874
1.40684
1.33921
1.27202
1.20182
1.12584
1.04199
0.949222
0.847903
0.738729
0.623341
0.502288
0.133007
0
0.505347
2.01294
4.5637
7.71606
10.5948
12.1861
11.7703
9.29245
5.45618
1.44446
-1.61533
-3.14315
-3.26331
-2.5637
-1.66877
-0.931322
-0.403083
0.00535421
0.279911
0.43156
0.565589
0.686983
0.796184
0.894927
0.985823
1.07173
1.15511
1.23759
1.31978
1.40146
1.48196
1.56056
1.63686
1.711
1.78377
1.85657
1.93125
2.00992
2.09463
2.18714
2.28866
2.39973
2.52037
2.6503
2.7893
2.93759
3.09597
3.26567
3.44789
3.64316
3.85069
4.06805
4.29116
4.51479
4.73336
4.94183
5.1364
5.31487
5.47612
5.61888
5.74091
5.84007
5.91565
5.96533
5.98452
5.96776
5.91005
5.80788
5.65971
5.4663
5.231
4.96307
4.67422
4.37566
4.07673
3.78481
3.50675
3.24825
3.01312
2.80349
2.61907
2.45665
2.31173
2.18495
2.07806
1.99354
1.94067
1.93068
1.97047
2.05776
2.18016
2.31863
2.45361
2.57319
2.67899
2.77162
2.85172
2.92083
2.98064
3.03248
3.07717
3.11485
3.14525
3.16787
3.18184
3.18589
3.17958
3.1631
3.13738
3.10435
3.06712
3.02984
2.9971
2.97326
2.96142
2.96196
2.97638
3.00242
3.03176
3.05511
3.06478
3.05663
3.03091
2.99162
2.94475
2.89613
2.84963
2.80611
2.76519
2.72649
2.68978
2.65533
2.62409
2.59758
2.57748
2.5651
2.56084
2.56452
2.57465
2.58748
2.5987
2.60434
2.6016
2.58929
2.56783
2.53875
2.50404
2.46563
2.42503
2.38304
2.34003
2.29633
2.25238
2.20896
2.16731
2.12899
2.09568
2.06898
2.05013
2.03989
2.03841
2.04525
2.05942
2.0795
2.10354
2.12956
2.15571
2.18008
2.20099
2.21742
2.22921
2.23713
2.24289
2.24886
2.25762
2.27134
2.29128
2.31732
2.34833
2.38189
2.41522
2.4459
2.47241
2.4943
2.512
2.52644
2.53867
2.54968
2.56043
2.57213
2.58639
2.60522
2.63074
2.66461
2.70751
2.75857
2.8154
2.87504
2.93428
2.98992
3.03906
3.07917
3.10777
3.12156
3.11705
3.09129
3.04154
2.96598
2.86464
2.74001
2.59718
2.44327
2.28627
2.13334
1.98933
1.85672
1.73531
1.62261
1.51464
1.40699
1.29568
1.17785
1.05198
0.917883
0.776577
0.629421
0.477845
0.32331
0.166781
0
0.000364685
0.371726
1.38481
3.28046
6.04642
9.19204
11.7526
12.6581
11.3048
7.94983
3.63665
-0.313794
-2.91533
-3.87213
-3.53765
-2.58941
-1.64951
-1.03749
-0.734611
-0.523794
-0.18266
0.307161
0.728788
1.08612
1.38908
1.6569
1.89688
2.11014
2.29922
2.46745
2.61842
2.75551
2.88158
2.99884
3.10895
3.21302
3.31181
3.40586
3.49557
3.58138
3.66389
3.74405
3.82337
3.90394
3.9885
4.08022
4.18245
4.29827
4.43017
4.57968
4.74719
4.9322
5.13352
5.34946
5.57801
5.81684
6.06391
6.31746
6.56881
6.80097
6.99529
7.13654
7.21726
7.23882
7.20845
7.13354
7.01642
6.85283
6.64888
6.41344
6.15139
5.86588
5.5613
5.24408
4.92146
4.60005
4.28558
3.98226
3.6927
3.41804
3.15845
2.9137
2.6836
2.46837
2.26865
2.08538
1.91956
1.77198
1.64292
1.5321
1.4386
1.36097
1.29732
1.24551
1.20328
1.16839
1.13879
1.11274
1.08889
1.06641
1.04497
1.02484
1.00681
0.992123
0.982183
0.978402
0.982029
0.993997
1.01483
1.0446
1.08288
1.12873
1.18051
1.23661
1.29508
1.35405
1.41221
1.46917
1.52551
1.5826
1.64207
1.70529
1.77293
1.84403
1.9162
1.98529
2.04518
2.0902
2.11585
2.11962
2.10165
2.06494
2.01491
1.95826
1.90142
1.84895
1.80208
1.76061
1.72459
1.69412
1.66936
1.65056
1.63817
1.63242
1.63271
1.63751
1.64463
1.65158
1.6561
1.65665
1.65284
1.64555
1.6368
1.62932
1.62591
1.62875
1.63894
1.65644
1.67968
1.70602
1.73225
1.75523
1.77235
1.78202
1.78377
1.77841
1.76792
1.75527
1.74411
1.73873
1.74337
1.76167
1.79611
1.84766
1.9157
1.99814
2.09183
2.19307
2.29779
2.40258
2.50457
2.60098
2.68904
2.76647
2.83121
2.8814
2.91535
2.93148
2.92822
2.90404
2.85751
2.78804
2.69624
2.58323
2.4517
2.306
2.15191
1.99607
1.84502
1.70444
1.57858
1.46989
1.37885
1.30364
1.2409
1.1863
1.1351
1.08262
1.0246
0.957424
0.878283
0.785383
0.678171
0.555466
0.419055
0.214027
0
0.23801
1.34232
3.53282
6.63486
9.99806
12.641
13.607
12.3924
9.23972
5.10429
1.2577
-1.28187
-2.16402
-1.72327
-0.632142
0.515297
1.45131
2.07634
2.36018
2.62234
2.86093
3.06992
3.24513
3.38543
3.49206
3.56841
3.61956
3.65179
3.67192
3.68669
3.70214
3.72312
3.75285
3.79297
3.84379
3.90461
3.97398
4.05012
4.13112
4.21517
4.30071
4.38644
4.47138
4.555
4.63738
4.71943
4.80304
4.89109
4.98724
5.09552
5.2197
5.3626
5.52551
5.7078
5.90687
6.12018
6.34452
6.56762
6.76729
6.92445
7.02543
7.06326
7.03809
6.95601
6.82629
6.65767
6.45445
6.21641
5.94425
5.64151
5.31349
4.96497
4.60023
4.22429
3.84356
3.46549
3.09771
2.747
2.41854
2.11534
1.83818
1.58587
1.35593
1.14531
0.951167
0.771382
0.604787
0.451128
0.310785
0.184443
0.0725079
-0.0251549
-0.108924
-0.180227
-0.241611
-0.296076
-0.346705
-0.396262
-0.446868
-0.499763
-0.555235
-0.612708
-0.670986
-0.7286
-0.784184
-0.836795
-0.886049
-0.93209
-0.975467
-1.01662
-1.0554
-1.09072
-1.1204
-1.14132
-1.14978
-1.14205
-1.11589
-1.07019
-1.00433
-0.918759
-0.815087
-0.695779
-0.563755
-0.421945
-0.272912
-0.11866
0.039328
0.199842
0.361575
0.522775
0.681066
0.833495
0.97681
1.10788
1.22407
1.32334
1.40352
1.46193
1.49713
1.50988
1.50105
1.47173
1.42364
1.35943
1.28284
1.19844
1.11111
1.02524
0.943546
0.867124
0.795959
0.729244
0.665117
0.601113
0.535104
0.466035
0.394458
0.322817
0.255894
0.199478
0.158907
0.137567
0.13576
0.153531
0.183434
0.214216
0.235204
0.239359
0.225257
0.197487
0.165439
0.140981
0.135754
0.155297
0.200039
0.268993
0.360797
0.473853
0.605968
0.754363
0.915904
1.08729
1.26518
1.44647
1.62776
1.80387
1.96663
2.10551
2.21195
2.27812
2.29694
2.26379
2.17802
2.04371
1.86938
1.66684
1.44941
1.23013
1.01638
0.811222
0.616263
0.433644
0.266377
0.118049
-0.00293427
-0.077652
-0.0855751
-0.0452026
-0.000254822
0
-0.0839203
-0.274391
-0.567199
-0.935285
-1.43437
-1.6914
-1.31894
-0.0562035
2.1841
5.17027
8.26123
10.5079
11.0123
9.39203
6.04518
2.00798
-1.5313
-3.75751
-4.4928
-4.10938
-3.21803
-2.34826
-1.76621
-1.47288
-1.33144
-1.20402
-1.07955
-0.957578
-0.838791
-0.723346
-0.610608
-0.499165
-0.38697
-0.271667
-0.151044
-0.02351
0.111507
0.253374
0.400272
0.549567
0.698241
0.843377
0.982631
1.1146
1.23903
1.35687
1.47011
1.5815
1.69413
1.81093
1.93427
2.06561
2.20538
2.35312
2.50771
2.66767
2.83146
2.99762
3.16474
3.33135
3.49575
3.6559
3.80942
3.95364
4.08543
4.20063
4.29438
4.36282
4.40278
4.4108
4.38316
4.31603
4.20593
4.0503
3.84814
3.60061
3.31324
2.99489
2.65529
2.30333
1.94732
1.59545
1.25513
0.932463
0.631987
0.356695
0.10827
-0.112563
-0.305702
-0.471503
-0.610561
-0.722607
-0.806704
-0.864794
-0.906521
-0.943888
-0.989108
-1.05234
-1.15323
-1.30336
-1.47605
-1.63507
-1.74946
-1.80247
-1.79051
-1.71504
-1.57442
-1.36205
-1.08004
-0.747675
-0.383083
-0.00390015
0.372799
0.735938
1.07806
1.39045
1.66523
1.89792
2.08792
2.23693
2.34855
2.42763
2.47963
2.51012
2.5244
2.52721
2.52244
2.51299
2.50074
2.48683
2.47196
2.45663
2.44151
2.42747
2.41543
2.40626
2.40037
2.39652
2.39241
2.38528
2.37275
2.35356
2.32779
2.29654
2.26134
2.22343
2.18366
2.14219
2.09885
2.05361
2.00689
1.95958
1.91297
1.86843
1.82711
1.78961
1.75593
1.72544
1.69706
1.66945
1.64125
1.61123
1.57849
1.54245
1.50293
1.46013
1.41463
1.36727
1.31905
1.27093
1.2237
1.17779
1.13324
1.08979
1.04706
1.00494
0.963918
0.925346
0.891636
0.865941
0.851695
0.856099
0.893792
0.965855
1.05349
1.13255
1.18408
1.2033
1.20235
1.20523
1.23731
1.31448
1.42531
1.55305
1.68885
1.82655
1.96021
2.08367
2.19008
2.27271
2.32663
2.34711
2.32998
2.27247
2.17435
2.03877
1.87257
1.68571
1.49002
1.29683
1.11342
0.94511
0.795474
0.665456
0.553488
0.456448
0.370504
0.291891
0.217464
0.144926
0.0727669
0
-0.0479103
-0.0978531
-0.15096
-0.300758
-0.433002
-0.110516
1.12132
3.47465
6.63572
9.73733
11.6801
11.6459
9.50841
5.90416
1.93862
-1.30234
-3.17863
-3.65918
-3.17657
-2.2979
-1.42705
-0.706301
-0.113637
0.383131
0.751733
0.896237
0.986523
1.06725
1.14462
1.22065
1.29709
1.37546
1.45691
1.54208
1.63115
1.72384
1.81954
1.91744
2.0166
2.11605
2.21487
2.31226
2.4077
2.50108
2.59284
2.68402
2.77625
2.87168
2.97274
3.08193
3.20146
3.33305
3.47795
3.63669
3.80904
3.99392
4.18953
4.39338
4.60254
4.8137
5.02322
5.22569
5.41339
5.5801
5.71992
5.82762
5.89879
5.92962
5.91602
5.85285
5.73371
5.55304
5.3177
5.03664
4.7177
4.36946
4.00229
3.62766
3.25678
2.89934
2.56232
2.24962
1.96221
1.69902
1.45796
1.23694
1.03461
0.850606
0.685433
0.5401
0.415639
0.31268
0.231142
0.170168
0.128164
0.102639
0.0904541
0.0882542
0.0928062
0.101269
0.111355
0.121354
0.130032
0.136477
0.139986
0.139954
0.135909
0.127615
0.11518
0.0991402
0.0804554
0.060417
0.0404499
0.0218891
0.00576744
-0.00733089
-0.0173481
-0.024712
-0.0301453
-0.0344503
-0.0383343
-0.0423531
-0.046991
-0.0528502
-0.0608488
-0.0722977
-0.0887772
-0.111777
-0.142169
-0.179646
-0.222305
-0.266544
-0.30727
-0.338567
-0.351117
-0.325346
-0.235619
-0.08848
0.0780621
0.223273
0.317668
0.350069
0.327195
0.267882
0.195322
0.130414
0.083285
0.0512857
0.0300316
0.0166687
0.00918484
0.00598397
0.00547767
0.00620389
0.00691576
0.00660486
0.00450109
0.00011887
-0.00672177
-0.0158315
-0.0265918
-0.0379962
-0.0488124
-0.0578525
-0.064286
-0.0679288
-0.0693821
-0.0699775
-0.0715195
-0.075866
-0.0844859
-0.0986397
-0.118235
-0.139938
-0.15811
-0.16631
-0.158602
-0.130618
-0.0801349
-0.00715351
0.0863454
0.196762
0.318712
0.446379
0.573768
0.693695
0.799337
0.884969
0.946592
0.982271
0.992041
0.977398
0.940495
0.883337
0.808274
0.717325
0.6127
0.497132
0.37334
0.244194
0.113456
-0.0143322
-0.134203
-0.240997
-0.329585
-0.395574
-0.436213
-0.45014
-0.437491
-0.39753
-0.327084
-0.225476
-0.101058
0.0250795
0.131426
0.201035
0.225111
0.204943
0.0830811
-0.179093
0
1.05024
3.16741
6.10928
9.1579
11.3103
11.6657
9.85763
6.29819
2.05152
-1.6407
-3.91454
-4.58674
-4.05702
-2.94983
-1.77839
-0.808841
-0.107221
0.363911
0.683165
0.890862
1.07008
1.24189
1.4072
1.56405
1.70953
1.84053
1.95477
2.05036
2.12623
2.18293
2.22322
2.25233
2.27761
2.30762
2.35072
2.4129
2.49649
2.59989
2.71963
2.85239
2.99501
3.1444
3.29809
3.45452
3.61315
3.77429
3.93868
4.10707
4.27978
4.45652
4.63642
4.81828
5.00094
5.1837
5.36652
5.55015
5.73684
5.93211
6.14318
6.36034
6.55557
6.69843
6.76633
6.75115
6.65936
6.50407
6.29414
6.02936
5.71659
5.37526
5.01957
4.65774
4.29514
3.9363
3.58588
3.24841
2.92805
2.62835
2.35204
2.10096
1.87603
1.6772
1.50359
1.35349
1.22463
1.11428
1.01961
0.937904
0.86693
0.805033
0.751169
0.704733
0.665398
0.633006
0.606806
0.58479
0.564673
0.544524
0.523425
0.501862
0.481677
0.465528
0.456085
0.454995
0.462349
0.477441
0.4986
0.523652
0.550378
0.57686
0.601529
0.622712
0.639008
0.649227
0.65257
0.649044
0.6398
0.627166
0.61422
0.604003
0.598661
0.599012
0.604176
0.612318
0.621664
0.631499
0.642733
0.65777
0.679744
0.7114
0.754961
0.811995
0.877913
0.942367
0.994022
1.02361
1.02633
1.00308
0.960198
0.907751
0.856578
0.8148
0.783693
0.75909
0.736243
0.709542
0.674441
0.629178
0.575571
0.518512
0.464279
0.418999
0.386586
0.364785
0.34746
0.327521
0.29999
0.26383
0.221889
0.179356
0.141619
0.110804
0.0866959
0.0690174
0.0575993
0.0517651
0.0507885
0.0543316
0.0626614
0.0766689
0.0976955
0.127204
0.166396
0.215879
0.275127
0.34289
0.417651
0.497532
0.580493
0.664554
0.747965
0.829305
0.907475
0.981519
1.05012
1.11062
1.15834
1.18835
1.19426
1.16965
1.10994
1.01407
0.885531
0.732192
0.565423
0.398613
0.243658
0.111837
0.0124668
-0.047921
-0.0662869
-0.0434887
0.0157337
0.112602
0.235823
0.36718
0.485667
0.572414
0.617046
0.612997
0.555556
0.443888
0.285272
0.0856197
-0.166974
0
0.954433
2.98991
6.00772
9.3687
12.008
12.8682
11.4331
8.03071
3.7061
-0.258813
-2.89709
-3.89269
-3.57003
-2.60078
-1.62185
-0.968812
-0.644417
-0.479156
-0.343517
-0.219795
-0.100903
0.012381
0.118595
0.216402
0.304572
0.381905
0.446845
0.498549
0.537043
0.563322
0.579612
0.589468
0.597617
0.609503
0.630593
0.665545
0.716755
0.784651
0.868035
0.964021
1.06855
1.17724
1.28623
1.39307
1.49715
1.59984
1.70406
1.8136
1.93237
2.06358
2.20913
2.36937
2.54318
2.72804
2.92026
3.11561
3.30809
3.4877
3.64214
3.76262
3.84254
3.87759
3.86555
3.80573
3.69819
3.54305
3.3402
3.08968
2.79626
2.46771
2.11423
1.74594
1.37086
0.995816
0.627756
0.273407
-0.0612485
-0.371461
-0.654087
-0.907816
-1.13304
-1.33118
-1.50564
-1.66087
-1.80129
-1.93057
-2.05121
-2.16434
-2.26993
-2.36722
-2.45529
-2.53376
-2.60256
-2.6622
-2.71361
-2.75781
-2.79573
-2.82772
-2.85358
-2.87252
-2.88327
-2.8843
-2.87413
-2.85164
-2.81631
-2.7683
-2.70847
-2.63819
-2.55892
-2.47204
-2.37886
-2.28055
-2.17837
-2.07382
-1.96875
-1.86537
-1.76597
-1.67271
-1.58692
-1.50884
-1.43748
-1.37082
-1.30632
-1.24152
-1.17469
-1.10529
-1.03574
-0.972135
-0.922191
-0.893044
-0.889309
-0.911945
-0.958135
-1.02204
-1.09611
-1.17261
-1.24509
-1.31021
-1.36719
-1.41621
-1.45779
-1.4926
-1.52142
-1.54485
-1.56326
-1.57678
-1.5854
-1.58922
-1.58861
-1.58435
-1.57757
-1.56972
-1.56237
-1.55709
-1.55535
-1.55833
-1.56659
-1.58009
-1.59806
-1.61896
-1.64058
-1.66018
-1.67485
-1.68191
-1.67934
-1.66631
-1.6431
-1.61071
-1.5707
-1.52499
-1.4755
-1.42382
-1.37093
-1.31704
-1.26152
-1.20283
-1.13873
-1.06639
-0.982804
-0.885081
-0.77086
-0.638648
-0.488095
-0.320141
-0.137029
0.0578629
0.260343
0.465945
0.670114
0.868325
1.05562
1.22568
1.37173
1.4915
1.5822
1.62894
1.61087
1.51283
1.3363
1.10383
0.854722
0.634048
0.469962
0.347502
0.250585
0.1776
0.12581
0.0910381
0.0682873
0.0523586
0.0383057
0.0220226
0
-0.0352634
-0.0816273
-0.14079
-0.21365
-0.300123
-0.398988
-0.567777
-0.874323
-0.768954
0.200846
2.30624
5.36605
8.63464
10.9864
11.3954
9.47956
5.76431
1.45416
-2.16871
-4.32908
-4.97219
-4.55301
-3.64669
-2.6751
-1.85045
-1.2478
-0.873548
-0.739726
-0.690778
-0.646505
-0.604178
-0.563168
-0.523164
-0.484216
-0.446703
-0.411246
-0.378581
-0.349504
-0.324697
-0.304587
-0.289303
-0.278603
-0.271809
-0.267638
-0.264167
-0.258838
-0.248543
-0.229821
-0.199124
-0.153129
-0.0890007
-0.00457497
0.101084
0.228381
0.377468
0.548022
0.739201
0.949576
1.17702
1.41865
1.67087
1.92949
2.19003
2.44779
2.6969
2.92963
3.13548
3.30352
3.43005
3.5115
3.54387
3.52272
3.44316
3.30007
3.0889
2.80789
2.46129
2.0708
1.65718
1.23505
0.814373
0.401813
0.00279884
-0.378709
-0.740088
-1.07973
-1.39666
-1.69023
-1.95995
-2.20545
-2.42651
-2.62318
-2.79581
-2.94464
-3.07009
-3.17333
-3.25575
-3.31882
-3.36404
-3.39285
-3.40655
-3.40628
-3.39299
-3.36774
-3.33175
-3.2861
-3.23276
-3.17465
-3.11618
-3.06355
-3.02277
-2.99872
-2.99437
-3.01016
-3.04393
-3.09139
-3.14715
-3.20613
-3.26464
-3.32123
-3.37578
-3.42835
-3.47812
-3.52313
-3.56031
-3.58571
-3.59559
-3.58752
-3.56133
-3.51933
-3.46597
-3.407
-3.34841
-3.29482
-3.24977
-3.21601
-3.19524
-3.18808
-3.19413
-3.21193
-3.2391
-3.27247
-3.30849
-3.34364
-3.37502
-3.40073
-3.41982
-3.43221
-3.43843
-3.43927
-3.43539
-3.42735
-3.41506
-3.39811
-3.37589
-3.34759
-3.31234
-3.26912
-3.21674
-3.15378
-3.07857
-2.98941
-2.88478
-2.76382
-2.6267
-2.47499
-2.31174
-2.14131
-1.96883
-1.79955
-1.63803
-1.48745
-1.34937
-1.22384
-1.1099
-1.00623
-0.911951
-0.827011
-0.751825
-0.68736
-0.63465
-0.594302
-0.566144
-0.549088
-0.541158
-0.539606
-0.540976
-0.541235
-0.535545
-0.518479
-0.484186
-0.426804
-0.341084
-0.223142
-0.0712029
0.1138
0.32794
0.56352
0.811312
1.06207
1.30532
1.53146
1.73288
1.90435
2.03956
2.13273
2.18424
2.19496
2.16579
2.09785
1.99301
1.85463
1.68798
1.50025
1.30029
1.09804
0.900797
0.714961
0.545935
0.398732
0.27779
0.18246
0.108829
0.0506081
0
-0.0481857
-0.104551
-0.17496
-0.262754
-0.368204
-0.488129
-0.626191
-1.02617
-1.05487
-0.310411
1.50925
4.37727
7.7574
10.6659
12.0409
11.2528
8.44302
4.47175
0.514793
-2.43843
-3.92064
-4.03831
-3.28363
-2.23782
-1.31742
-0.666225
-0.222163
0.0329041
0.216009
0.387684
0.547434
0.694183
0.827737
0.948766
1.05868
1.15943
1.2533
1.34265
1.42965
1.51617
1.60365
1.69311
1.78526
1.88065
1.97988
2.08376
2.19338
2.3101
2.43536
2.57044
2.71617
2.87268
3.03932
3.21481
3.39748
3.5858
3.77876
3.9762
4.1788
4.3878
4.6044
4.82903
5.0607
5.29654
5.53166
5.75718
5.96308
6.14004
6.28098
6.38175
6.4407
6.45736
6.43088
6.3591
6.24129
6.07762
5.86641
5.60888
5.3101
4.97902
4.62749
4.26933
3.91517
3.57331
3.2492
2.94527
2.66135
2.39558
2.14558
1.90942
1.68626
1.47645
1.28127
1.10235
0.941029
0.797913
0.672681
0.564155
0.470566
0.389893
0.320171
0.259693
0.207067
0.16114
0.120841
0.084977
0.0520927
0.0202194
-0.0130898
-0.0504089
-0.0940224
-0.145441
-0.204991
-0.271596
-0.342846
-0.415351
-0.48535
-0.549538
-0.605138
-0.650457
-0.684883
-0.708705
-0.722786
-0.728209
-0.726007
-0.71706
-0.702154
-0.681976
-0.657412
-0.630107
-0.602701
-0.578209
-0.559213
-0.54713
-0.541692
-0.540836
-0.541052
-0.538038
-0.527451
-0.505857
-0.471837
-0.424869
-0.363913
-0.28848
-0.198856
-0.0962845
0.0186581
0.143914
0.271818
0.390837
0.489922
0.560894
0.600114
0.608982
0.593189
0.561052
0.521422
0.481775
0.446129
0.415561
0.389872
0.368368
0.350354
0.335336
0.323058
0.31357
0.3072
0.304433
0.305772
0.311634
0.322232
0.33747
0.356898
0.379752
0.404953
0.43101
0.456386
0.479766
0.500284
0.517649
0.532109
0.544279
0.554894
0.564586
0.573783
0.58273
0.591637
0.600833
0.610852
0.622381
0.636104
0.652475
0.67148
0.692709
0.715333
0.738308
0.760653
0.781675
0.80107
0.818887
0.83536
0.850706
0.864975
0.878038
0.88969
0.899894
0.90904
0.918147
0.928939
0.943754
0.96529
0.996158
1.03819
1.09232
1.15851
1.23539
1.32039
1.41002
1.50031
1.5874
1.66797
1.7394
1.79972
1.84707
1.87902
1.89242
1.88406
1.8505
1.78878
1.69746
1.57751
1.43278
1.2699
1.09739
0.924435
0.758915
0.606837
0.472171
0.35676
0.260713
0.182959
0.121717
0.0747204
0.0409248
0.0180641
0
-2.63214e-005
-0.00811157
-0.0280769
-0.0604347
-0.102421
-0.355567
-0.433643
-0.010883
1.26621
3.59372
6.72331
9.85326
11.8801
11.9321
9.85157
6.29942
2.41738
-0.723214
-2.55064
-3.09609
-2.79256
-2.14776
-1.49621
-0.936034
-0.429924
0.0537056
0.468512
0.718129
0.909931
1.08313
1.24592
1.39889
1.54173
1.67441
1.79718
1.9105
2.01508
2.11191
2.20227
2.28784
2.37074
2.45354
2.53914
2.6307
2.73134
2.84389
2.97058
3.11277
3.27078
3.44389
3.63044
3.82813
4.03436
4.24658
4.46268
4.68115
4.90124
5.1228
5.34608
5.57136
5.79862
6.0272
6.25562
6.48119
6.69955
6.90436
7.08773
7.24238
7.36351
7.44733
7.49097
7.49245
7.4507
7.36564
7.23809
7.06987
6.86577
6.63516
6.38704
6.12767
5.86159
5.59331
5.32729
5.06768
4.81808
4.58142
4.35982
4.15455
3.96605
3.794
3.63742
3.4949
3.36485
3.24575
3.13636
3.03585
2.94383
2.86018
2.78497
2.71823
2.6599
2.6098
2.56769
2.53336
2.50666
2.48757
2.47602
2.4718
2.47449
2.48335
2.49732
2.51497
2.53458
2.55412
2.5714
2.58419
2.59041
2.58841
2.57726
2.55699
2.52871
2.4945
2.45714
2.41974
2.3852
2.35587
2.33323
2.31781
2.30935
2.30702
2.3097
2.31609
2.3247
2.33375
2.34083
2.34268
2.33585
2.31721
2.28471
2.23804
2.17881
2.11028
2.03658
1.96181
1.88908
1.82026
1.75651
1.69834
1.64587
1.59894
1.55737
1.52041
1.48676
1.45465
1.42209
1.38717
1.34838
1.30482
1.25628
1.20321
1.14681
1.08848
1.02987
0.972849
0.919378
0.871317
0.830174
0.796855
0.771474
0.753228
0.740432
0.730885
0.722312
0.712842
0.701395
0.687889
0.673196
0.658863
0.646655
0.637984
0.633762
0.634014
0.637185
0.640847
0.642359
0.639584
0.631461
0.618279
0.601584
0.583758
0.567449
0.554684
0.546818
0.544712
0.548643
0.558496
0.574035
0.595195
0.622313
0.655955
0.6967
0.74502
0.801027
0.86433
0.934253
1.00976
1.09
1.17472
1.26428
1.35957
1.46144
1.57011
1.68462
1.80258
1.92051
2.0345
2.1406
2.2354
2.31627
2.38151
2.43013
2.46163
2.47588
2.47273
2.45212
2.41417
2.35928
2.28823
2.20228
2.10326
1.99341
1.87506
1.75071
1.62288
1.49402
1.36641
1.24205
1.12257
1.0091
0.90204
0.800983
0.704545
0.610302
0.515222
0.416176
0.310531
0.196672
0.0740753
-0.0843544
-0.22028
0
0.859367
2.60593
5.23668
8.27411
10.7878
11.7507
10.5641
7.41612
3.23025
-0.76264
-3.56424
-4.76748
-4.58995
-3.63033
-2.51406
-1.62224
-1.02174
-0.591137
-0.213263
0.106541
0.269703
0.397559
0.511669
0.617719
0.717359
0.811466
0.901189
0.987866
1.07295
1.15796
1.2444
1.3337
1.42712
1.52562
1.62983
1.73995
1.85581
1.97691
2.10261
2.23222
2.36519
2.50124
2.64041
2.78307
2.92993
3.08194
3.2402
3.40584
3.57985
3.76292
3.9552
4.15621
4.36463
4.57826
4.79405
5.00812
5.21441
5.40353
5.56703
5.69832
5.79265
5.84746
5.86221
5.83744
5.77366
5.67027
5.5254
5.34261
5.12686
4.88198
4.61191
4.3217
4.01732
3.70531
3.39244
3.08496
2.78814
2.50601
2.24137
1.99597
1.77073
1.56587
1.38152
1.21677
1.06988
0.938761
0.821393
0.716174
0.622211
0.539333
0.467863
0.408215
0.360401
0.324063
0.297963
0.280338
0.269212
0.262736
0.259433
0.258292
0.258718
0.260396
0.263113
0.266684
0.270962
0.275853
0.2814
0.287881
0.295839
0.306038
0.319306
0.336292
0.357198
0.381902
0.409225
0.437023
0.462813
0.484312
0.499888
0.508782
0.511044
0.50726
0.498208
0.484848
0.467978
0.448085
0.425792
0.402011
0.378076
0.355782
0.337383
0.325761
0.323474
0.332577
0.354135
0.390579
0.441249
0.499675
0.556704
0.603145
0.631931
0.639629
0.626894
0.597883
0.558936
0.517027
0.478192
0.446045
0.422198
0.40738
0.402155
0.407236
0.423225
0.450426
0.488639
0.536923
0.59345
0.655563
0.719947
0.783076
0.841752
0.893546
0.937052
0.971895
0.998525
1.01789
1.0311
1.03919
1.04295
1.04298
1.03981
1.034
1.02633
1.01788
1.01004
1.00452
1.00323
1.0081
1.02088
1.04305
1.07564
1.11914
1.17355
1.23854
1.31354
1.39795
1.49099
1.59181
1.69917
1.8112
1.9252
2.03757
2.14384
2.23919
2.3192
2.3802
2.41952
2.4355
2.42731
2.39472
2.33795
2.2577
2.15555
2.03469
1.89938
1.75467
1.60654
1.46151
1.32583
1.20506
1.10362
1.02353
0.963963
0.921712
0.891227
0.865128
0.83617
0.798125
0.746346
0.678003
0.592032
0.48891
0.370345
0.239192
0.0995926
-0.0690491
-0.207901
0
0.864371
2.64542
5.32214
8.40646
10.962
11.9456
10.7428
7.55996
3.38124
-0.506208
-3.11534
-4.1295
-3.87689
-3.01116
-2.13201
-1.54499
-1.23308
-1.00046
-0.664172
-0.317973
-0.0394051
0.195529
0.398305
0.577618
0.735234
0.873321
0.994847
1.10297
1.20048
1.28954
1.3718
1.44852
1.52086
1.59021
1.65836
1.72752
1.80025
1.87929
1.96722
2.06645
2.17896
2.30608
2.44823
2.60486
2.77445
2.95479
3.14332
3.33762
3.53577
3.73648
3.93907
4.14315
4.34836
4.55392
4.75851
4.96011
5.15608
5.34246
5.51368
5.66585
5.79567
5.90067
5.97905
6.02584
6.03452
6.00122
5.92077
5.78805
5.60024
5.35917
5.07257
4.75349
4.4179
4.08153
3.75297
3.43754
3.13909
2.85982
2.60089
2.36309
2.14731
1.95457
1.78574
1.64201
1.52374
1.42915
1.35538
1.29893
1.25624
1.22427
1.20076
1.18429
1.17394
1.16908
1.16908
1.17199
1.17484
1.17464
1.16919
1.15795
1.14238
1.12569
1.11205
1.10543
1.10825
1.12058
1.14106
1.16782
1.19894
1.23242
1.26639
1.29904
1.32824
1.35154
1.36699
1.37302
1.36901
1.35575
1.33556
1.3119
1.2886
1.26893
1.25445
1.24478
1.23917
1.23663
1.2358
1.23512
1.23332
1.22956
1.2236
1.21572
1.20657
1.19686
1.18711
1.17746
1.1676
1.15689
1.14464
1.13036
1.11398
1.09589
1.07691
1.05804
1.04016
1.02381
1.00913
0.99577
0.982877
0.969458
0.954885
0.939335
0.92401
0.911035
0.903013
0.902353
0.910593
0.927616
0.951947
0.981664
1.0144
1.04783
1.08015
1.11017
1.1373
1.16141
1.18269
1.20148
1.21817
1.23321
1.24713
1.2605
1.27396
1.28816
1.30376
1.32134
1.34145
1.36448
1.39062
1.4198
1.45186
1.4859
1.52099
1.55661
1.59295
1.63099
1.67216
1.71777
1.76845
1.82378
1.88215
1.9421
2.00245
2.06268
2.12311
2.18495
2.25033
2.3209
2.39385
2.45602
2.48682
2.46341
2.36725
2.19186
1.94919
1.67091
1.40145
1.18406
1.02298
0.896261
0.803018
0.739684
0.700115
0.677016
0.663048
0.651606
0.637191
0.615266
0.582661
0.537386
0.478598
0.406584
0.322648
0.0409603
-0.226331
0
1.17548
3.53878
6.8079
10.1239
12.3389
12.5303
10.4629
6.73141
2.5003
-1.02333
-3.09966
-3.67876
-3.2438
-2.42014
-1.62579
-0.974863
-0.415366
0.080129
0.316417
0.474244
0.615986
0.74624
0.864102
0.968364
1.05887
1.13581
1.19994
1.2527
1.29623
1.33319
1.36646
1.3988
1.43274
1.47026
1.51304
1.56281
1.62124
1.68983
1.76977
1.86174
1.96572
2.0811
2.20679
2.34157
2.48433
2.63428
2.791
2.95432
3.12409
3.2999
3.48087
3.66554
3.85187
4.03737
4.21921
4.39428
4.55853
4.70744
4.83682
4.94281
5.02192
5.07128
5.08812
5.06969
5.01329
4.91666
4.77848
4.5991
4.38115
4.13022
3.85472
3.56371
3.26541
2.96619
2.67102
2.38367
2.10681
1.84218
1.59094
1.35397
1.13211
0.926277
0.737628
0.568756
0.424077
0.306497
0.216877
0.155002
0.119117
0.105708
0.109707
0.125166
0.146242
0.168202
0.188324
0.205843
0.221159
0.235616
0.25106
0.269234
0.291541
0.319649
0.35503
0.394988
0.432132
0.457463
0.463282
0.446064
0.407971
0.356268
0.300914
0.251429
0.212936
0.184937
0.165767
0.154296
0.149584
0.150594
0.156421
0.166401
0.180127
0.197355
0.217903
0.241487
0.267524
0.294725
0.320538
0.341526
0.354087
0.355309
0.343849
0.320542
0.288509
0.252654
0.218658
0.191701
0.174434
0.167162
0.16949
0.180126
0.197109
0.218261
0.24149
0.265013
0.287209
0.306543
0.321634
0.33133
0.33493
0.332404
0.324536
0.312894
0.29964
0.287222
0.277949
0.273562
0.275228
0.283636
0.298835
0.320194
0.346517
0.376057
0.406639
0.43598
0.462138
0.483866
0.5009
0.514115
0.525516
0.538039
0.555157
0.580343
0.616443
0.665155
0.726745
0.799998
0.882816
0.973031
1.0687
1.16855
1.27224
1.38024
1.49341
1.61239
1.73696
1.86561
1.99553
2.12132
2.23659
2.33561
2.41463
2.47261
2.51108
2.53317
2.5421
2.53977
2.52493
2.49472
2.445
2.37232
2.27584
2.15849
2.02679
1.88939
1.75498
1.62931
1.51336
1.40799
1.31246
1.22483
1.14249
1.06254
0.982079
0.898337
0.808924
0.711831
0.60569
0.490016
0.36525
0.233166
0.0901077
-0.10071
0
0.756902
2.49827
5.23993
8.49358
11.3257
12.7009
11.9558
9.15403
5.11188
1.0543
-1.93208
-3.34799
-3.3849
-2.65629
-1.77549
-1.06747
-0.558754
-0.150062
0.218769
0.478695
0.703828
0.912318
1.1062
1.28392
1.44524
1.59127
1.72425
1.84715
1.96317
2.07528
2.1859
2.29678
2.40926
2.52448
2.64387
2.76935
2.90328
3.048
3.20523
3.37533
3.55694
3.74667
3.94033
4.13351
4.32241
4.50467
4.67987
4.84948
5.01648
5.18458
5.35729
5.53706
5.72471
5.91909
6.11731
6.31511
6.50756
6.68967
6.857
7.00544
7.13034
7.22589
7.28644
7.30854
7.28769
7.21914
7.09924
6.92704
6.70521
6.44006
6.14046
5.81704
5.48136
5.14087
4.80032
4.46388
4.13536
3.81841
3.51661
3.23332
2.97149
2.73329
2.51988
2.33109
2.16531
2.01982
1.89129
1.7744
1.66365
1.55433
1.44345
1.32981
1.21651
1.11141
1.02383
0.961206
0.92647
0.9171
0.926147
0.944564
0.963785
0.978303
0.986671
0.987769
0.981607
0.969143
0.952124
0.932889
0.914245
0.89915
0.890242
0.889449
0.899182
0.918642
0.942507
0.963963
0.976732
0.976888
0.963788
0.939787
0.908948
0.875301
0.841395
0.807636
0.773209
0.736705
0.696558
0.651502
0.60093
0.54511
0.485256
0.423503
0.36251
0.305207
0.254519
0.21303
0.183263
0.168146
0.168619
0.17979
0.193097
0.199277
0.190635
0.162941
0.116409
0.0554695
-0.0125505
-0.0794513
-0.138894
-0.18851
-0.228799
-0.260964
-0.286557
-0.307874
-0.327326
-0.346968
-0.368145
-0.39133
-0.416161
-0.441664
-0.46659
-0.489789
-0.510477
-0.528222
-0.543182
-0.555701
-0.56594
-0.573575
-0.577665
-0.576735
-0.569019
-0.552729
-0.526698
-0.490077
-0.441869
-0.381365
-0.30833
-0.223093
-0.126848
-0.0218061
0.0888309
0.201156
0.31075
0.413225
0.504585
0.581041
182
409
641
873
1089
1305
1525
1741
1957
2179
2404
2649
2892
3120
3346
3569
2479
2627
2777
2927
3076
3221
3366
3512
3660
3631
0
0
0
0
0
0
0
0
0
0
0
0
0
0
0
0
0
0
0
0
0
0
0
0
0
0
0
0
0
0
0
0
0
0
0
0
0
0
0
0
0
0
0
0
0
0
0
0
0
0
0
0
0
0
0
0
0
0
0
0
0
0
0
0
0
0
0
0
0
0
0
0
0
0
0
0
0
0
0
0
0
0
0
0
0
0
0
0
0
0
0
0
0
0
0
0
0
0
0
0
0
0
0
0
0
0
0
0
0
0
0
0
0
0
0
0
0
0
0
0
0
0
0
0
0
0
0
0
0
0
0
0
0
0
0
0
0
0
0
0
0
0
0
0
0
0
0
0
0
0
0
0
0
0
0
0
0
0
0
0
0
0
0
0
0
0
0
0
0
0
0
0
0
0
0
0
0
0
0
0
0
0
0
0
0
0
0
0
0
0
0
0
0
0
0
0
0
0
0
0
0
0
0
0
0
0
0
0
0
0
0
0
0
0
0
0
0
0
0
0
0
0
0
0
0
0
0
0
0
0
0
0
0
0
0
0
0
0
0
0
0
0
0
0
0
0
0
0
0
0
0
0
0
0
0
0
0
0
0
0
0
0
0
0
0
0
0
0
0
0
0
0
0
0
0
0
0
0
0
0
0
0
0
0
0
0
0
0
0
0
0
0
0
0
0
0
0
0
0
0
0
0
0
0
0
0
0
0
0
0
0
0
0
0
0
0
0
0
0
0
0
0
0
0
0
0
0
0
0
0
0
0
0
0
0
0
0
0
0
0
0
0
0
0
0
0
0
0
0
0
0
0
0
0
0
0
0
0
0
0
0
0
0
0
0
0
0
0
0
0
0
0
0
0
0
0
0
0
0
0
0
0
0
0
0
0
0
0
0
0
0
0
0
0
0
0
0
0
0
0
0
0
0
0
0
0
0
0
0
0
0
0
0
0
0
0
0
0
0
0
0
0
0
0
0
0
0
0
0
0
0
0
0
0
0
0
0
0
0
0
0
0
0
0
0
0
0
0
0
0
0
0
0
0
0
0
0
0
0
0
0
0
0
0
0
0
0
0
0
0
0
0
0
0
0
0
0
0
0
0
0
0
0
0
0
0
0
0
0
0
0
0
0
0
0
0
0
0
0
0
0
0
0
0
0
0
0
0
0
0
0
0
0
0
0
0
0
0
0
0
0
0
0
0
0
0
0
0
0
0
0
0
0
0
0
0
0
0
0
0
0
0
0
0
0
0
0
0
0
0
0
0
0
0
0
0
0
0
0
0
0
0
0
0
0
0
0
0
0
0
0
0
0
0
0
0
0
0
0
0
0
0
0
0
0
0
0
0
0
0
0
0
0
0
0
0
0
0
0
0
0
0
0
0
0
0
0
0
0
0
0
0
0
0
0
0
0
0
0
0
0
0
0
0
0
0
0
0
0
0
0
0
0
0
0
0
0
0
0
0
0
0
0
0
0
0
0
0
0
0
0
0
0
0
0
0
0
0
0
0
0
0
0
0
0
0
0
0
0
0
0
0
0
0
0
0
0
0
0
0
0
0
0
0
0
0
0
0
0
0
0
0
0
0
0
0
0
0
0
0
0
0
0
0
0
0
0
0
0
0
0
0
0
0
0
0
0
0
0
0
0
0
0
0
0
0
0
0
0
0
0
0
0
0
0
0
0
0
0
0
0
0
0
0
0
0
0
0
0
0
0
0
0
0
0
0
0
0
0
0
0
0
0
0
0
0
0
0
0
0
0
0
0
0
0
0
0
0
0
0
0
0
0
0
0
0
0
0
0
0
0
0
0
0
0
0
0
0
0
0
0
0
0
0
0
0
0
0
0
0
0
0
0
0
0
0
0
0
0
0
0
0
0
0
0
0
0
0
0
0
0
0
0
0
0
0
0
0
0
0
0
0
0
0
0
0
0
0
0
0
0
0
0
0
0
0
0
0
0
0
0
0
0
0
0
0
0
0
0
0
0
0
0
0
0
0
0
0
0
0
0
0
0
0
0
0
0
0
0
0
0
0
0
0
0
0
0
0
0
0
0
0
0
0
0
0
0
0
0
0
0
0
0
0
0
0
0
0
0
0
0
0
0
0
0
0
0
0
0
0
0
0
0
0
0
0
0
0
0
0
0
0
0
0
0
0
0
0
0
0
0
0
0
0
0
0
0
0
0
0
0
0
0
0
0
0
0
0
0
0
0
0
0
0
0
0
0
0
0
0
0
0
0
0
0
0
0
0
0
0
0
0
0
0
0
0
0
0
0
0
0
0
0
0
0
0
0
0
0
0
0
0
0
0
0
0
0
0
0
0
0
0
0
0
0
0
0
0
0
0
0
0
0
0
0
0
0
0
0
0
0
0
0
0
0
0
0
0
0
0
0
0
0
0
0
0
0
0
0
0
0
0
0
0
0
0
0
0
0
0
0
0
0
0
0
0
0
0
0
0
0
0
0
0
0
0
0
0
0
0
0
0
0
0
0
0
0
0
0
0
0
0
0
0
0
0
0
0
0
0
0
0
0
0
0
0
0
0
0
0
0
0
0
0
0
0
0
0
0
0
0
0
0
0
0
0
0
0
0
0
0
0
0
0
0
0
0
0
0
0
0
0
0
0
0
0
0
0
0
0
0
0
0
0
0
0
0
0
0
0
0
0
0
0
0
0
0
0
0
0
0
0
0
0
0
0
0
0
0
0
0
0
0
0
0
0
0
0
0
0
0
0
0
0
0
0
0
0
0
0
0
0
0
0
0
0
0
0
0
0
0
0
0
0
0
0
0
0
0
0
0
0
0
0
0
0
0
0
0
0
0
0
0
0
0
0
0
0
0
0
0
0
0
0
0
0
0
0
0
0
0
0
0
0
0
0
0
0
0
0
0
0
0
0
0
0
0
0
0
0
0
0
0
0
0
0
0
0
0
0
0
0
0
0
0
0
0
0
0
0
0
0
0
0
0
0
0
0
0
0
0
0
0
0
0
0
0
0
0
0
0
0
0
0
0
0
0
0
0
0
0
0
0
0
0
0
0
0
0
0
0
0
0
0
0
0
0
0
0
0
0
0
0
0
0
0
0
0
0
0
0
0
0
0
0
0
0
0
0
0
0
0
0
0
0
0
0
0
0
0
0
0
0
0
0
0
0
0
0
0
0
0
0
0
0
0
0
0
0
0
0
0
0
0
0
0
0
0
0
0
0
0
0
0
0
0
0
0
0
0
0
0
0
0
0
0
0
0
0
0
0
0
0
0
0
0
0
0
0
0
0
0
0
0
0
0
0
0
0
0
0
0
0
0
0
0
0
0
0
0
0
0
0
0
0
0
0
0
0
0
0
0
0
0
0
0
0
0
0
0
0
0
0
0
0
0
0
0
0
0
0
0
0
0
0
0
0
0
0
0
0
0
0
0
0
0
0
0
0
0
0
0
0
0
0
0
0
0
0
0
0
0
0
0
0
0
0
0
0
0
0
0
0
0
0
0
0
0
0
0
0
0
0
0
0
0
0
0
0
0
0
0
0
0
0
0
0
0
0
0
0
0
0
0
0
0
0
0
0
0
0
0
0
0
0
0
0
0
0
0
0
0
0
0
0
0
0
0
0
0
0
0
0
0
0
0
0
0
0
0
0
0
0
0
0
0
0
0
0
0
0
0
0
0
0
0
0
0
0
0
0
0
0
0
0
0
0
0
0
0
0
0
0
0
0
0
0
0
0
0
0
0
0
0
0
0
0
0
0
0
0
0
0
0
0
0
0
0
0
0
0
0
0
0
0
0
0
0
0
0
0
0
0
0
0
0
0
0
0
0
0
0
0
0
0
0
0
0
0
0
0
0
0
0
0
0
0
0
0
0
0
0
0
0
0
0
0
0
0
0
0
0
0
0
0
0
0
0
0
0
0
0
0
0
0
0
0
0
0
0
0
0
0
0
0
0
0
0
0
0
0
0
0
0
0
0
0
0
0
0
0
0
0
0
0
0
0
0
0
0
0
0
0
0
0
0
0
0
0
0
0
0
0
0
0
0
0
0
0
0
0
0
0
0
0
0
0
0
0
0
0
0
0
0
0
0
0
0
0
0
0
0
0
0
0
0
0
0
0
0
0
0
0
0
0
0
0
0
0
0
0
0
0
0
0
0
0
0
0
0
0
0
0
0
0
0
0
0
0
0
0
0
0
0
0
0
0
0
0
0
0
0
0
0
0
0
0
0
0
0
0
0
0
0
0
0
0
0
0
0
0
0
0
0
0
0
0
0
0
0
0
0
0
0
0
0
0
0
0
0
0
0
0
0
0
0
0
0
0
0
0
0
0
0
0
0
0
0
0
0
0
0
0
0
0
0
0
0
0
0
0
0
0
0
0
0
0
0
0
0
0
0
0
0
0
0
0
0
0
0
0
0
0
0
0
0
0
0
0
0
0
0
0
0
0
0
0
0
0
0
0
0
0
0
0
0
0
0
0
0
0
0
0
0
0
0
0
0
0
0
0
0
0
0
0
0
0
0
0
0
0
0
0
0
0
0
0
0
0
0
0
0
0
0
0
0
0
0
0
0
0
0
0
0
0
0
0
0
0
0
0
0
0
0
0
0
0
0
0
0
0
0
0
0
0
0
0
0
0
0
0
0
0
0
0
0
0
0
0
0
0
0
0
0
0
0
0
0
0
0
0
0
0
0
0
0
0
0
0
0
0
0
0
0
0
0
0
0
0
0
0
0
0
0
0
0
0
0
0
0
0
0
0
0
0
0
0
0
0
0
0
0
0
0
0
0
0
0
0
0
0
0
0
0
0
0
0
0
0
0
0
0
0
0
0
0
0
0
0
0
0
0
0
0
0
0
0
0
0
0
0
0
0
0
0
0
0
0
0
0
0
0
0
0
0
0
0
0
0
0
0
0
0
0
0
0
0
0
0
0
0
0
0
0
0
0
0
0
0
0
0
0
0
0
0
0
0
0
0
0
0
0
0
0
0
0
0
0
0
0
0
0
0
0
0
0
0
0
0
0
0
0
0
0
0
0
0
0
0
0
0
0
0
0
0
0
0
0
0
0
0
0
0
0
0
0
0
0
0
0
0
0
0
0
0
0
0
0
0
0
0
0
0
0
0
0
0
0
0
0
0
0
0
0
0
0
0
0
0
0
0
0
0
0
0
0
0
0
0
0
0
0
0
0
0
0
0
0
0
0
0
0
0
0
0
0
0
0
0
0
0
0
0
0
0
0
0
0
0
0
0
0
0
0
0
0
0
0
0
0
0
0
0
0
0
0
0
0
0
0
0
0
0
0
0
0
0
0
0
0
0
0
0
0
0
0
0
0
0
0
0
0
0
0
0
0
0
0
0
0
0
0
0
0
0
0
0
0
0
0
0
0
0
0
0
0
0
0
0
0
0
0
0
0
0
0
0
0
0
0
0
0
0
0
0
0
0
0
0
0
0
0
0
0
0
0
0
0
0
0
0
0
0
0
0
0
0
0
0
0
0
0
0
0
0
0
0
0
0
0
0
0
0
0
0
0
0
0
0
0
0
0
0
0
0
0
0
0
0
0
0
0
0
0
0
0
0
0
0
0
0
0
0
0
0
0
0
0
0
0
0
0
0
0
0
0
0
0
0
0
0
0
0
0
0
0
0
0
0
0
0
0
0
0
0
0
0
0
0
0
0
0
0
0
0
0
0
0
0
0
0
0
0
0
0
0
0
0
0
0
0
0
0
0
0
0
0
0
0
0
0
0
0
0
0
0
0
0
0
0
0
0
0
0
0
0
0
0
0
0
0
0
0
0
0
0
0
0
0
0
0
0
0
0
0
0
0
0
0
0
0
0
0
0
0
0
0
0
0
0
0
0
0
0
0
0
0
0
0
0
0
0
0
0
0
0
0
0
0
0
0
0
0
0
0
0
0
0
0
0
0
0
0
0
0
0
0
0
0
0
0
0
0
0
0
0
0
0
0
0
0
0
0
0
0
0
0
0
0
0
0
0
0
0
0
0
0
0
0
0
0
0
0
0
0
0
0
0
0
0
0
0
0
0
0
0
0
0
0
0
0
0
0
0
0
0
0
0
0
0
0
0
0
0
0
0
0
0
0
0
0
0
0
0
0
0
0
0
0
0
0
0
0
0
0
0
0
0
0
0
0
0
0
0
0
0
0
0
0
0
0
0
0
0
0
0
0
0
0
0
0
0
0
0
0
0
0
0
0
0
0
0
0
0
0
0
0
0
0
0
0
0
0
0
0
0
0
0
0
0
0
0
0
0
0
0
0
0
0
0
0
0
0
0
0
0
0
0
0
0
0
0
0
0
0
0
0
0
0
0
0
0
0
0
0
0
0
0
0
0
0
0
0
0
0
0
0
0
0
0
0
0
0
0
0
0
0
0
0
0
0
0
0
0
0
0
0
0
0
0
0
0
0
0
0
0
0
0
0
0
0
0
0
0
0
0
0
0
0
0
0
0
0
0
0
0
0
0
0
0
0
0
0
0
0
0
0
0
0
0
0
0
0
0
0
0
0
0
0
0
0
0
0
0
0
0
0
0
0
0
0
0
0
0
0
0
0
0
0
0
0
0
0
0
0
0
0
0
0
0
0
0
0
0
0
0
0
0
0
0
0
0
0
0
0
0
0
0
0
0
0
0
0
0
0
0
0
0
0
0
0
0
0
0
0
0
0
0
0
0
0
0
0
0
0
0
0
0
0
0
0
0
0
0
0
0
0
0
0
0
0
0
0
0
0
0
0
0
0
0
0
0
0
0
0
0
0
0
0
0
0
0
0
0
0
0
0
0
0
0
0
0
0
0
0
0
0
0
0
0
0
0
0
0
0
0
0
0
0
0
0
0
0
0
0
0
0
0
0
0
0
0
0
0
0
0
0
0
0
0
0
0
0
0
0
0
0
0
0
0
0
0
0
0
0
0
0
0
0
0
0
0
0
0
0
0
0
0
0
0
0
0
0
0
0
0
0
0
0
0
0
0
0
0
0
0
0
0
0
0
0
0
0
0
0
0
0
0
0
0
0
0
0
0
0
0
0
0
0
0
0
0
0
0
0
0
0
0
0
0
0
0
0
0
0
0
0
0
0
0
0
0
0
0
0
0
0
0
0
0
0
0
0
0
0
0
0
0
0
0
0
0
0
0
0
0
0
0
0
0
0
0
0
0
0
0
0
0
0
0
0
0
0
0
0
0
0
0
0
0
0
0
0
0
0
0
0
0
0
0
0
0
0
0
0
0
0
0
0
0
0
0
0
0
0
0
0
0
0
0
0
0
0
0
0
0
0
0
0
0
0
0
0
0
0
0
0
0
0
0
0
0
0
0
0
0
0
0
0
0
0
0
0
0
0
0
0
0
0
0
0
0
0
0
0
0
0
0
0
0
0
0
0
0
0
0
0
0
0
0
0
0
0
0
0
0
0
0
0
0
0
0
0
0
0
0
0
0
0
0
0
0
0
0
0
0
0
0
0
0
0
0
0
0
0
0
0
0
0
0
0
0
0
0
0
0
0
0
0
0
0
0
0
0
0
0
0
0
0
0
0
0
0
0
0
0
0
0
0
0
0
0
0
0
0
0
0
0
0
0
0
0
0
0
0
0
0
0
0
0
0
0
0
0
0
0
0
0
0
0
0
0
0
0
0
0
0
0
0
0
0
0
0
0
0
0
0
0
0
0
0
0
0
0
0
0
0
0
0
0
0
0
0
0
0
0
0
0
0
0
0
0
0
0
0
0
0
0
0
0
0
0
0
0
0
0
0
0
0
0
0
0
0
0
0
0
0
0
0
0
0
0
0
0
0
0
0
0
0
0
0
0
0
0
0
0
0
0
0
0
0
0
0
0
0
0
0
0
0
0
0
0
0
0
0
0
0
0
0
0
0
0
0
0
0
0
0
0
0
0
0
0
0
0
0
0
0
0
0
0
0
0
0
0
0
0
0
0
0
0
0
0
0
0
0
0
0
0
0
0
0
0
0
0
0
0
0
0
0
0
0
0
0
0
0
0
0
0
0
0
0
0
0
0
0
0
0
0
0
0
0
0
0
0
0
0
0
0
0
0
0
0
0
0
0
0
0
0
0
0
0
0
0
0
0
0
0
0
0
0
0
0
0
0
0
0
0
0
0
0
0
0
0
0
0
0
0
0
0
0
0
0
0
0
0
0
0
0
0
0
0
0
0
0
0
0
0
0
0
0
0
0
0
0
0
0
0
0
0
0
0
0
0
0
0
0
0
0
0
0
0
0
0
0
0
0
0
0
0
0
0
0
0
0
0
0
0
0
0
0
0
0
0
0
0
0
0
0
0
0
0
0
0
0
0
0
0
0
0
0
0
0
0
0
0
0
0
0
0
0
0
0
0
0
0
0
0
0
0
0
0
0
0
0
0
0
0
0
0
0
0
0
0
0
0
0
0
0
0
0
0
0
0
0
0
0
0
