-2.39397
-2.27848
-2.20766
-2.18271
-2.19772
-2.24158
-2.30015
-2.35822
-2.40304
-2.42782
-2.43028
-2.41112
-2.37335
-2.32122
-2.25978
-2.1947
-2.13139
-2.0741
-2.02539
-1.98601
-1.95507
-1.93054
-1.90986
-1.89076
-1.87165
-1.85191
-1.83233
-1.81459
-1.80022
-1.78945
-1.78041
-1.76885
-1.7478
-1.68073
-1.42677
-1.0006
-0.551252
-0.236013
-0.169851
-0.375716
-0.764015
-1.16622
-1.4149
-1.43304
-1.38381
-1.32755
-1.27374
-1.22682
-1.18833
-1.1567
-1.1276
-1.09472
-1.05111
-0.99136
-0.911614
-0.80951
-0.678725
-0.477538
0
0.536821
1.11406
1.77454
2.48022
3.06351
3.29106
2.99996
2.20781
1.12411
0.0631416
-0.690178
-0.98761
-0.916653
-0.862742
-0.814436
-0.772524
-0.736653
-0.705249
-0.677044
-0.65166
-0.629344
-0.610884
-0.597295
-0.589283
-0.587569
-0.591647
-0.600034
-0.610312
-0.619392
-0.624027
-0.621519
-0.610455
-0.590002
-0.562902
-0.533279
-0.50505
-0.480354
-0.458663
-0.436957
-0.410859
-0.376175
-0.330341
-0.274468
-0.21002
-0.138146
-0.0601074
0.0228737
0.109682
0.199253
0.290439
0.381917
0.472176
0.559591
0.642525
0.71937
0.788145
0.845899
0.889605
0.917474
0.92826
0.921953
0.900464
0.867966
0.830619
0.795599
0.769662
0.756791
0.763485
0.790755
0.822337
0.835691
0.808834
0.727537
0.590353
0.409261
0.205289
0.000707245
-0.188918
-0.364462
-0.530633
-0.686273
-0.827922
-0.950353
-1.04335
-1.09423
-1.09375
-1.04155
-0.94838
-0.834058
-0.722257
-0.63425
-0.575873
-0.551836
-0.56031
-0.593696
-0.640259
-0.686516
-0.720084
-0.724033
-0.69109
-0.640683
-0.602554
-0.601997
-0.646667
-0.722147
-0.798859
-0.84661
-0.848843
-0.820445
-0.780235
-0.73724
-0.699023
-0.671773
-0.659499
-0.663696
-0.683402
-0.715511
-0.755253
-0.796753
-0.834013
-0.861478
-0.874783
-0.871505
-0.849741
-0.809274
-0.757973
-0.707621
-0.669634
-0.652
-0.657211
-0.681762
-0.717294
-0.752905
-0.777887
-0.786326
-0.772904
-0.729815
-0.662619
-0.594017
-0.550291
-0.553222
-0.612575
-0.721609
-0.857927
-0.990443
-1.09048
-1.14639
-1.1711
-1.17454
-1.15998
-1.12933
-1.08195
-1.01465
-0.922783
-0.802161
-0.650858
-0.473884
-0.264842
0
0.322536
0.691644
1.17719
1.74177
2.23069
2.44529
2.25755
1.6863
0.886717
0.0690041
-0.588948
-0.923351
-0.981566
-1.00617
-1.01917
-1.02226
-1.01783
-1.00881
-0.998329
-0.989652
-0.986229
-0.990408
-1.00313
-1.02346
-1.04837
-1.07295
-1.09131
-1.09797
-1.08777
-1.05584
-1.00966
-0.961353
-0.92274
-0.90059
-0.894227
-0.896599
-0.89805
-0.890774
-0.872672
-0.847417
-0.817756
-0.785541
-0.751553
-0.71492
-0.673046
-0.622059
-0.557577
-0.476044
-0.375581
-0.255645
-0.116624
0.0425911
0.218612
0.397806
0.56209
0.695028
0.784995
0.826942
0.82257
0.779325
0.708817
0.625007
0.542133
0.470668
0.415145
0.375024
0.350112
0.334062
0.317628
0.29109
0.246658
0.180215
0.0918732
-0.0146851
-0.133651
-0.258624
-0.383628
-0.504932
-0.61954
-0.724422
-0.816566
-0.893374
-0.953069
-0.995006
-1.01754
-1.02046
-1.00994
-0.99335
-0.977342
-0.966233
-0.961113
-0.960027
-0.959032
-0.95362
-0.940044
-0.917699
-0.886745
-0.847358
-0.800282
-0.746373
-0.689558
-0.635515
-0.589554
-0.55502
-0.532219
-0.518505
-0.509643
-0.501861
-0.49353
-0.48603
-0.482523
-0.485482
-0.494505
-0.505679
-0.512813
-0.50984
-0.493013
-0.464449
-0.427678
-0.384377
-0.33628
-0.28491
-0.231577
-0.177563
-0.124617
-0.0749672
-0.0309792
0.00534058
0.032795
0.0511253
0.0607101
0.061956
0.0545959
0.0379776
0.0111542
-0.0263603
-0.0738243
-0.128854
-0.18756
-0.245139
-0.296684
-0.338268
-0.366856
-0.380748
-0.379655
-0.364641
-0.337914
-0.302495
-0.261721
-0.218718
-0.176819
0
0.535703
1.37905
2.33553
3.16035
3.64929
3.68665
3.26409
2.48627
1.55176
0.690974
0.0770424
-0.233547
-0.2854
-0.310797
-0.330482
-0.34539
-0.354639
-0.357219
-0.352087
-0.338515
-0.316308
-0.28535
-0.246024
-0.201963
-0.158406
-0.120072
-0.0895561
-0.0663841
-0.0472633
-0.0275154
-0.00316467
0.0275894
0.0628952
0.0984963
0.13002
0.155401
0.176267
0.197614
0.225931
0.266741
0.322292
0.389013
0.463279
0.542456
0.624292
0.707227
0.790618
0.874661
0.96004
1.04745
1.13717
1.22875
1.32104
1.41215
1.50033
1.58478
1.66632
1.74759
1.83611
1.96022
2.15014
2.36783
2.53697
2.58209
2.46523
2.20445
1.86945
1.55658
1.3501
1.23911
1.16677
1.11287
1.07117
1.03528
0.999316
0.958384
0.908881
0.848588
0.776713
0.694249
0.603128
0.505881
0.405734
0.306312
0.211454
0.124815
0.0497185
-0.010865
-0.0540443
-0.0766739
-0.0763809
-0.0511971
0
0.0732513
0.209045
0.37811
0.534666
0.633637
0.649676
0.588586
0.48337
0.376128
0.296313
0.248657
0.210279
0.171518
0.126589
0.0753208
0.0228832
-0.0228104
-0.0547768
-0.0715977
-0.0772244
-0.0757217
-0.072615
-0.0733521
-0.0818916
-0.0997921
-0.125998
-0.157315
-0.189378
-0.217816
-0.239807
-0.254335
-0.260575
-0.259726
-0.253987
-0.245425
-0.235266
-0.223715
-0.210381
-0.194943
-0.18172
-0.181337
-0.207737
-0.271937
-0.375444
-0.507035
-0.644896
-0.763313
-0.84083
-0.877547
-0.871795
-0.827769
-0.752945
-0.655255
-0.542582
-0.420643
-0.292036
-0.155922
0
0.290802
0.775134
1.42807
2.13599
2.69757
2.91008
2.68096
2.08981
1.34913
0.679358
0.185435
-0.166832
-0.40171
-0.581947
-0.731844
-0.843487
-0.91298
-0.940877
-0.931882
-0.893918
-0.836808
-0.770881
-0.705421
-0.647498
-0.601365
-0.568116
-0.54591
-0.530752
-0.517634
-0.501671
-0.479111
-0.448563
-0.409396
-0.360958
-0.30317
-0.236557
-0.162369
-0.0825706
0
0.0810387
0.157434
0.22582
0.283598
0.330017
0.366288
0.395654
0.423197
0.455374
0.499289
0.574575
0.74222
0.998877
1.27286
1.47216
1.53201
1.45137
1.29601
1.16547
1.14154
1.24565
1.38915
1.53641
1.65808
1.73275
1.75138
1.71719
1.64129
1.53631
1.41126
1.27253
1.12549
0.974246
0.822529
0.676471
0.543415
0.430371
0.342314
0.281001
0.244678
0.22875
0.227028
0.233102
0.241084
0.247195
0.248833
0.244498
0.233609
0.216263
0.192974
0.164433
0.13131
0.0942143
0.0539078
0.0114941
-0.0311909
-0.0708935
-0.10301
-0.122244
-0.123783
-0.0968643
-0.0329052
0.052021
0.133947
0.190776
0.21184
0.202471
0.18137
0.172093
0.204618
0.279737
0.36674
0.422029
0.412055
0.330553
0.202345
0.0731625
-0.00900154
-0.0130966
0.0322937
0.10123
0.185012
0.27343
0.356515
0.425964
0.476094
0.504201
0.510349
0.496768
0.467039
0.425444
0.376233
0.322819
0.267827
0.213205
0.160331
0.11027
0.0639957
0.0223911
-0.013895
-0.0446594
-0.0702881
-0.0916916
-0.110773
-0.130072
-0.152018
-0.17829
-0.209342
-0.244262
-0.281616
-0.313125
0
0.595043
1.40047
2.29283
3.1109
3.67299
3.82438
3.49696
2.74119
1.71156
0.620336
-0.318601
-0.947715
-1.15644
-1.11964
-1.07233
-1.02017
-0.965163
-0.909922
-0.857555
-0.811815
-0.776246
-0.753502
-0.744492
-0.747746
-0.759315
-0.773338
-0.783167
-0.782715
-0.768478
-0.740286
-0.699253
-0.646895
-0.585242
-0.51669
-0.443648
-0.368377
-0.293234
-0.221228
-0.156563
-0.104301
-0.0687557
-0.052594
-0.0549786
-0.0700718
-0.0867474
-0.0901337
-0.0649719
0
0.087677
0.204768
0.345414
0.490652
0.621071
0.722144
0.787668
0.820103
0.827857
0.820847
0.805076
0.782355
0.749232
0.701555
0.639485
0.5702
0.506927
0.469277
0.498462
0.600986
0.729297
0.823564
0.837661
0.751587
0.571404
0.323673
0.0491499
-0.205072
-0.408541
-0.566409
-0.693769
-0.800256
-0.889081
-0.962072
-1.02098
-1.06713
-1.10131
-1.12389
-1.13508
-1.13536
-1.12573
-1.10799
-1.08443
-1.05765
-1.0302
-1.00425
-0.981111
-0.960651
-0.941173
-0.91956
-0.89172
-0.853311
-0.800615
-0.731364
-0.645309
-0.543737
-0.428815
-0.304694
-0.181863
-0.0786086
-0.0121831
0.00194073
-0.0447688
-0.145719
-0.274494
-0.39003
-0.45216
-0.44011
-0.378391
-0.29871
-0.214508
-0.134993
-0.0657935
-0.00821534
0.0402248
0.084274
0.129006
0.178098
0.23208
0.290424
0.350041
0.402817
0.437989
0.445994
0.420916
0.362933
0.279644
0.185167
0.0966633
0.0293525
-0.00773296
-0.0205292
-0.0170032
0
-0.0122014
-0.011402
0.00450525
0.0386497
0.0941366
0.172864
0.274499
0.395238
0.543099
0.855377
1.34525
2.01812
2.84981
3.70525
4.36027
4.57782
4.22083
3.34327
2.18917
1.07783
0.246069
-0.239644
-0.36239
-0.24922
-0.12478
0.00149117
0.125181
0.242302
0.35057
0.449227
0.539491
0.624175
0.70675
0.790133
0.875562
0.961985
1.04615
1.12315
1.18819
1.23812
1.27273
1.29524
1.31199
1.33129
1.36171
1.41044
1.48134
1.57434
1.68702
1.81515
1.95331
2.0959
2.23816
2.37683
2.51043
2.63909
2.764
2.88675
3.00862
3.13007
3.25052
3.36852
3.48209
3.58919
3.68809
3.77766
3.85731
3.92688
3.98629
4.03536
4.07354
4.09993
4.11291
4.11065
4.09177
4.05524
4.00065
3.92832
3.83932
3.73526
3.61806
3.48962
3.35168
3.20564
3.05261
2.89369
2.72982
2.56314
2.39906
2.24515
2.10954
1.99906
1.91748
1.86456
1.83611
1.8251
1.8233
1.823
1.81992
1.81212
1.79906
1.78181
1.7628
1.74522
1.73231
1.72657
1.72914
1.73936
1.75531
1.77345
1.78936
1.79937
1.80149
1.79593
1.78465
1.77052
1.75614
1.74275
1.72989
1.71564
1.69752
1.6737
1.64381
1.60926
1.57275
1.53727
1.50501
1.47646
1.45052
1.42533
1.39879
1.36935
1.33672
1.3022
1.26871
1.2404
1.22197
1.22279
1.26338
1.36151
1.4922
1.60923
1.6683
1.64157
1.52357
1.32936
1.08874
0.838789
0.615399
0.460458
0.598555
0.967227
1.39221
1.65909
1.614
1.25033
0.715329
0.233594
0
0.0950897
0.229523
0.357286
0.469406
0.559843
0.628563
0.674352
0.548845
0.812087
1.55826
2.59315
3.58719
4.27319
4.54353
4.39091
3.82467
2.89359
1.77589
0.782893
0.205898
0.14133
0.260109
0.324022
0.355844
0.353282
0.324495
0.286441
0.260024
0.263481
0.304102
0.383641
0.490269
0.604399
0.705608
0.777954
0.812738
0.808577
0.769893
0.705234
0.626135
0.546466
0.477402
0.428012
0.404478
0.407318
0.435629
0.489261
0.558246
0.631444
0.699944
0.759691
0.812421
0.864447
0.923828
0.997002
1.08575
1.18508
1.28973
1.39481
1.49562
1.58863
1.672
1.74566
1.81089
1.86965
1.92372
1.97397
2.01955
2.05724
2.08202
2.0882
2.07055
2.02587
1.9542
1.85913
1.74728
1.6269
1.50605
1.39053
1.2827
1.18406
1.09486
1.0145
0.941786
0.875305
0.813567
0.755141
0.69881
0.643741
0.589711
0.537314
0.488048
0.44424
0.408746
0.384508
0.374217
0.379996
0.402702
0.441176
0.491742
0.547791
0.600475
0.641229
0.663609
0.664749
0.646222
0.613966
0.577057
0.545485
0.527501
0.529292
0.549971
0.582268
0.616423
0.644176
0.661821
0.671043
0.677257
0.686389
0.701614
0.720726
0.740121
0.755417
0.762817
0.760562
0.74969
0.733856
0.718242
0.707976
0.70614
0.713199
0.727405
0.744817
0.760088
0.767461
0.761734
0.739027
0.697299
0.636588
0.559444
0.470105
0.373181
0.27412
0.178717
0.0933426
0.0261978
-0.0143143
-0.0239624
0
0.0925018
0.21736
0.369559
0.541815
0.726334
0.91675
1.11073
1.3233
1.73665
2.31573
2.89599
3.27832
3.32482
3.0048
2.38561
1.60042
0.840144
0.453345
0.32038
0.276349
0.313197
0.393062
0.468115
0.500864
0.480145
0.42361
0.365334
0.336209
0.34895
0.381036
0.423119
0.46803
0.510248
0.54635
0.574396
0.593001
0.601427
0.601051
0.593013
0.57979
0.568048
0.566257
0.582573
0.622504
0.687227
0.773199
0.873118
0.977762
1.07813
1.16874
1.24541
1.30539
1.34737
1.37121
1.37779
1.36945
1.3502
1.3235
1.29851
1.28743
1.30314
1.36752
1.54106
1.80808
2.10163
2.34824
2.49905
2.54449
2.50791
2.42523
2.32317
2.20769
2.07641
1.93127
1.7745
1.60837
1.43621
1.2627
1.09333
0.933716
0.788717
0.661855
0.554969
0.468191
0.400125
0.348942
0.311832
0.284184
0.261317
0.239056
0.214233
0.185036
0.151031
0.112904
0.0719734
0.0297623
-0.0124657
-0.0536613
-0.0927414
-0.128313
-0.158419
-0.180424
-0.191125
-0.186794
-0.161279
-0.102096
0.00727158
0.16296
0.333503
0.481415
0.574419
0.594497
0.54219
0.435867
0.307086
0.19316
0.12163
0.0916267
0.0927231
0.120686
0.173096
0.243461
0.323728
0.405492
0.480994
0.543813
0.589166
0.61395
0.616622
0.597348
0.557377
0.499233
0.426632
0.3443
0.257881
0.172519
0.0926132
0.0219917
-0.0364677
-0.0810295
-0.111124
-0.127206
-0.13045
-0.12234
-0.104245
-0.0773273
-0.042424
0
0.0727432
0.18316
0.559047
1.21042
1.98953
2.74157
3.34121
3.71318
3.81025
3.59236
3.04387
2.21918
1.26659
0.396667
-0.112698
-0.115634
-0.0743969
-0.0151554
0.05928
0.141063
0.218982
0.282497
0.324452
0.342992
0.342041
0.330074
0.317401
0.312748
0.31981
0.335609
0.356573
0.377895
0.395502
0.407766
0.416454
0.426581
0.445259
0.479874
0.547094
0.66558
0.819194
0.973623
1.09276
1.153
1.15278
1.11373
1.073
1.06982
1.13131
1.24178
1.37863
1.52993
1.68868
1.84794
2.00115
2.14272
2.26808
2.37397
2.45903
2.52309
2.56703
2.59265
2.60255
2.6
2.58873
2.57245
2.55428
2.53611
2.518
2.49817
2.47276
2.43618
2.38199
2.30398
2.19763
2.06136
1.89751
1.71265
1.51712
1.32388
1.14672
1.00075
0.914344
0.900132
0.942457
1.0157
1.09339
1.15546
1.19121
1.19828
1.17994
1.14258
1.09566
1.04727
1.00309
0.967688
0.943957
0.931892
0.929636
0.936754
0.953106
0.978663
1.01353
1.05748
1.10959
1.16788
1.22873
1.28788
1.34125
1.3857
1.4194
1.44177
1.4532
1.45465
1.44796
1.4348
1.41667
1.3953
1.37249
1.34983
1.32837
1.30817
1.28827
1.26655
1.24003
1.20529
1.15899
1.09842
1.02189
0.929078
0.821187
0.701067
0.572794
0.441589
0.315659
0.203505
0.112291
0.0465729
0.00760412
-0.00653429
0
0.00423746
0.0195813
0.0420911
0.0719599
0.132167
0.445073
1.0001
1.69625
2.38409
2.88877
3.06454
2.85242
2.30733
1.57098
0.800622
0.103473
-0.454346
-0.690334
-0.811496
-0.909245
-0.991487
-1.0636
-1.13205
-1.20282
-1.27984
-1.36393
-1.45257
-1.54055
-1.6215
-1.68995
-1.74383
-1.78191
-1.80567
-1.81858
-1.82567
-1.83355
-1.84851
-1.87464
-1.91301
-1.96135
-2.01453
-2.06584
-2.10878
-2.1388
-2.15477
-2.15793
-2.15113
-2.13718
-2.11758
-2.09216
-2.0598
-2.01978
-1.97294
-1.92242
-1.87153
-1.82303
-1.77854
-1.73805
-1.69994
-1.66167
-1.62076
-1.57578
-1.52614
-1.47522
-1.43113
-1.40316
-1.39876
-1.42119
-1.46869
-1.53558
-1.6148
-1.7009
-1.79179
-1.88777
-1.9903
-2.10118
-2.22097
-2.34831
-2.47983
-2.61067
-2.73525
-2.84893
-2.94721
-3.02654
-3.08432
-3.11885
-3.12919
-3.11515
-3.07741
-3.01767
-2.93882
-2.84507
-2.74166
-2.63419
-2.52799
-2.42765
-2.33654
-2.25663
-2.18764
-2.12745
-2.07248
-2.01839
-1.96098
-1.89701
-1.82195
-1.73646
-1.65229
-1.58452
-1.5455
-1.5398
-1.56255
-1.6021
-1.64511
-1.68162
-1.70886
-1.7292
-1.74338
-1.75134
-1.75209
-1.7437
-1.72371
-1.68993
-1.64177
-1.58003
-1.50608
-1.42211
-1.33084
-1.23511
-1.13738
-1.03954
-0.942743
-0.847607
-0.754517
-0.664015
-0.577222
-0.49654
-0.425391
-0.366884
-0.323409
-0.295713
-0.282368
-0.279808
-0.282928
-0.285989
-0.2835
-0.271356
-0.247538
-0.210077
-0.157185
-0.0875011
0
0.10186
0.222879
0.363235
0.523379
0.703815
0.904876
1.12648
1.3822
1.75166
2.38032
3.03267
3.62137
4.13871
4.5608
4.80883
4.7674
4.35752
3.61138
2.69081
1.82604
1.21994
1.04982
1.07622
1.12541
1.19589
1.28513
1.39088
1.51184
1.64492
1.78736
1.93674
2.09058
2.24589
2.39898
2.54602
2.68379
2.81036
2.92551
3.03085
3.1296
3.22604
3.32489
3.43063
3.54696
3.67639
3.82011
3.97792
4.14849
4.32964
4.51879
4.71337
4.91119
5.11061
5.31063
5.51077
5.71098
5.9116
6.11337
6.31754
6.5259
6.74066
6.96399
7.19743
7.44136
7.69793
7.95965
8.20209
8.39758
8.52547
8.5805
8.57575
8.53902
8.50421
8.50081
8.54194
8.61402
8.70491
8.80785
8.91537
9.02058
9.1186
9.20719
9.28665
9.35902
9.42686
9.49218
9.55573
9.61713
9.67531
9.72962
9.78064
9.83078
9.88415
9.94602
10.0218
10.1161
10.2307
10.3659
10.5203
10.691
10.8735
11.0622
11.2509
11.4333
11.6031
11.7551
11.8849
11.9901
12.0698
12.1247
12.1571
12.1699
12.1669
12.1515
12.1271
12.0965
12.0616
12.0242
11.9852
11.9453
11.9051
11.8646
11.8241
11.7836
11.7431
11.7028
11.6626
11.6225
11.5826
11.5428
11.5031
11.4635
11.4241
11.3849
11.3458
11.3068
11.268
11.2293
11.1908
11.1524
11.1142
11.0761
11.0382
11.0004
10.9628
10.9253
10.888
10.8509
10.8139
10.777
10.7403
10.7038
10.6674
10.6312
10.5951
10.5592
10.5235
10.4879
10.4525
10.4172
10.3821
10.3472
10.3124
10.2778
10.2434
10.2091
10.175
10.1411
10.1073
10.0737
10.0403
10.0071
9.97398
9.94108
9.90834
9.87578
9.8434
9.81119
9.77915
9.7473
9.71562
9.68412
9.65279
9.62165
9.59069
9.55991
9.5293
9.49889
9.46865
9.4386
9.40873
9.37905
9.34956
9.32025
9.29113
9.26219
9.23345
9.20489
9.17653
9.14835
9.12037
9.09258
9.06498
9.03758
9.01037
8.98335
8.95654
8.92991
8.90349
8.87726
8.85123
8.8254
8.79978
8.77435
8.74912
8.7241
8.69928
8.67466
8.65024
8.62603
8.60203
8.57823
8.55464
8.53126
8.50809
8.48513
8.46237
8.43983
8.4175
8.39538
8.37347
8.35178
8.3303
8.30904
8.28799
8.26715
8.24654
8.22614
8.20596
8.186
8.16626
8.14674
8.12744
8.10837
8.08951
8.07088
8.05248
8.03429
8.01634
7.99861
7.98111
7.96383
7.94678
7.92997
7.91338
7.89702
7.8809
7.865
7.84934
7.83391
7.81872
7.80376
7.78903
7.77455
7.76029
7.74628
7.7325
7.71897
7.70567
7.69262
7.6798
7.66723
7.6549
7.64281
7.63096
7.61936
7.60801
7.5969
7.58604
7.57543
7.56506
7.55494
7.54508
7.53546
7.52609
7.51698
7.50812
7.49951
7.49115
7.48305
7.47521
7.46762
7.46029
7.45321
7.44639
7.43984
7.43354
7.4275
7.42172
7.4162
7.41095
7.40596
7.40123
7.39677
7.39257
7.38864
7.38497
7.38158
7.37845
7.37558
7.37299
7.37067
7.36862
7.36684
7.36533
7.3641
7.36314
7.36245
7.36204
7.36191
7.36205
7.36246
7.36316
7.36413
7.36539
7.36692
7.36873
7.37083
7.37321
7.37587
7.37881
7.38204
7.38555
7.38935
7.39344
7.39781
7.40247
7.40742
7.41266
7.41819
7.42401
7.43011
7.43652
7.44321
7.4502
7.45748
7.46506
7.47293
7.4811
7.48956
7.49833
7.50739
7.51675
7.52641
7.53637
7.54663
7.5572
7.56807
7.57923
7.59071
7.60249
7.61457
7.62696
7.63966
7.65267
7.66598
7.6796
7.69353
7.70778
7.72233
7.7372
7.75237
7.76786
7.78367
7.79979
7.81622
7.83298
7.85004
7.86741
7.88509
7.90308
7.92137
7.93994
7.95878
7.97784
7.99709
8.01644
8.03578
8.05491
8.07351
8.09106
8.10673
8.11928
8.12689
8.12711
8.11679
8.09227
8.04958
7.98488
7.89508
7.77833
7.63448
7.46534
7.27454
7.06713
6.84901
6.62617
6.40413
6.18749
5.9797
5.78297
5.59832
5.42567
5.26399
5.11147
4.96597
4.82547
4.6885
4.55455
4.4241
4.29849
4.17944
4.06837
3.96594
3.8715
3.78299
3.6971
3.60959
3.51595
3.41199
3.29436
3.16099
3.01118
2.84567
2.66642
2.47633
2.27887
2.07766
1.87603
1.67651
1.48051
1.28822
1.09879
0.910942
0.723831
0.538185
0.359741
0.20013
0.0743301
-0.00427856
-0.0285843
0
0.181247
0.393175
0.622803
0.875185
1.24615
1.79409
2.39887
2.82233
2.85641
2.45441
1.7615
1.03779
0.551485
0.375881
0.252477
0.145005
0.0504135
-0.0339005
-0.109788
-0.178217
-0.239337
-0.292681
-0.337452
-0.372833
-0.398283
-0.413808
-0.420015
-0.417908
-0.409859
-0.398734
-0.387056
-0.376254
-0.366151
-0.354936
-0.339776
-0.317885
-0.287516
-0.249415
-0.207223
-0.166817
-0.135035
-0.11804
-0.119796
-0.141042
-0.178975
-0.227647
-0.278773
-0.324183
-0.356311
-0.368532
-0.355911
-0.314012
-0.23367
-0.104114
0.0617149
0.237198
0.393473
0.506698
0.563985
0.565652
0.523
0.452848
0.371351
0.289512
0.210365
0.134754
0.0628891
-0.0056675
-0.0716698
-0.135928
-0.199164
-0.261959
-0.32477
-0.387977
-0.451891
-0.516733
-0.582562
-0.649191
-0.716144
-0.782658
-0.847758
-0.910372
-0.969449
-1.02405
-1.07339
-1.1168
-1.15367
-1.18339
-1.20529
-1.21862
-1.22259
-1.21646
-1.1997
-1.17218
-1.13436
-1.08749
-1.03366
-0.975683
-0.916822
-0.860345
-0.809043
-0.764793
-0.728313
-0.699162
-0.675994
-0.65699
-0.640336
-0.624555
-0.608627
-0.591835
-0.573409
-0.552119
-0.525983
-0.492245
-0.447692
-0.388849
-0.310486
-0.205901
-0.0763275
0.0627152
0.190196
0.284505
0.328868
0.315715
0.248879
0.143125
0.0209984
-0.0929356
-0.184665
-0.250801
-0.280739
-0.272224
-0.233853
-0.178561
-0.120211
-0.07048
-0.0368343
-0.0219173
-0.0241341
-0.0389297
-0.0597527
-0.0809212
-0.0976288
-0.0964539
0
0.443734
1.08094
1.80446
2.53295
3.16487
3.55408
3.54471
3.06352
2.19586
1.17197
0.264438
-0.27824
-0.235252
-0.163508
-0.0850731
-0.00794907
0.0587288
0.107449
0.134895
0.143215
0.139365
0.132735
0.131926
0.140314
0.15746
0.181288
0.208066
0.233868
0.256022
0.274072
0.290021
0.307817
0.332307
0.367341
0.414642
0.475037
0.547981
0.631525
0.719988
0.804736
0.877872
0.934411
0.973505
0.99826
1.02013
1.05281
1.10782
1.19121
1.30238
1.43543
1.58176
1.73254
1.88044
2.01862
2.14093
2.24153
2.31546
2.3595
2.37283
2.35704
2.31554
2.25267
2.17453
2.08761
1.99593
1.90279
1.8114
1.72462
1.64465
1.57275
1.50905
1.45259
1.40142
1.35293
1.30424
1.25268
1.19614
1.13355
1.06511
0.992357
0.917978
0.845383
0.778059
0.718892
0.669692
0.63076
0.600481
0.57599
0.5539
0.531125
0.505608
0.476773
0.445638
0.414554
0.386678
0.365192
0.353049
0.352548
0.364819
0.389709
0.425832
0.470786
0.521639
0.574068
0.622302
0.661028
0.686458
0.697208
0.694656
0.682547
0.665881
0.649442
0.636469
0.627385
0.621494
0.616975
0.611548
0.603003
0.5895
0.569647
0.542543
0.50833
0.467462
0.420996
0.370578
0.318074
0.265047
0.212257
0.159036
0.103673
0.0444733
-0.0189606
-0.0847763
-0.148463
-0.203435
-0.242752
-0.260968
-0.25554
-0.227394
-0.180571
-0.121283
-0.0556503
0
0.184871
0.721014
1.62685
2.69963
3.58499
3.95212
3.66459
2.83699
1.75317
0.711804
-0.0986633
-0.626694
-0.732257
-0.713821
-0.683093
-0.643741
-0.601614
-0.562491
-0.53067
-0.507959
-0.493478
-0.484451
-0.477562
-0.47043
-0.462694
-0.455486
-0.450723
-0.450529
-0.456497
-0.469173
-0.487798
-0.510452
-0.534468
-0.556998
-0.575703
-0.589172
-0.596658
-0.597772
-0.592535
-0.580847
-0.56216
-0.535349
-0.498897
-0.451363
-0.392024
-0.319899
-0.235156
-0.14444
-0.0557266
0.0241577
0.0917206
0.147655
0.19595
0.241611
0.288045
0.335271
0.37991
0.416415
0.439128
0.444157
0.43038
0.399324
0.354178
0.298538
0.236223
0.169714
0.100299
0.028714
-0.0444611
-0.118633
-0.193091
-0.267027
-0.33958
-0.409882
-0.477124
-0.540565
-0.599551
-0.653497
-0.701897
-0.744304
-0.780284
-0.809364
-0.830959
-0.844301
-0.848505
-0.842766
-0.826581
-0.799326
-0.760112
-0.71073
-0.6588
-0.614125
-0.585922
-0.58026
-0.598256
-0.635751
-0.684529
-0.734596
-0.776691
-0.806494
-0.824022
-0.830344
-0.826845
-0.815302
-0.798157
-0.778464
-0.759132
-0.742575
-0.730545
-0.724075
-0.723589
-0.729173
-0.740332
-0.756125
-0.775076
-0.795116
-0.813658
-0.827921
-0.835432
-0.834554
-0.825021
-0.807761
-0.784808
-0.758882
-0.732899
-0.709465
-0.691112
-0.679967
-0.677536
-0.684828
-0.702245
-0.729472
-0.765401
-0.808145
-0.855211
-0.903738
-0.950778
-0.993626
-1.02951
-1.05552
-1.06816
-1.06377
-1.03905
-0.991147
-0.918051
-0.819145
-0.69552
-0.550012
-0.386966
-0.206602
0
0.240533
0.630086
1.17641
1.7845
2.28641
2.495
2.28333
1.65494
0.761778
-0.159949
-0.892418
-1.21175
-1.19617
-1.14845
-1.08166
-1.00167
-0.921169
-0.854004
-0.811618
-0.799942
-0.817714
-0.85663
-0.903352
-0.942934
-0.96322
-0.960382
-0.928511
-0.880295
-0.834227
-0.806247
-0.802202
-0.814839
-0.827013
-0.819649
-0.780586
-0.714787
-0.63578
-0.553398
-0.478638
-0.420114
-0.381885
-0.362436
-0.355089
-0.349644
-0.334944
-0.301697
-0.245648
-0.169575
-0.0793472
0.0198837
0.122758
0.224709
0.322952
0.416882
0.507581
0.597394
0.690727
0.785944
0.869386
0.920783
0.92283
0.87005
0.772516
0.652798
0.537535
0.447354
0.382616
0.332471
0.289806
0.248596
0.202679
0.146712
0.0766922
-0.00981598
-0.113672
-0.234184
-0.36826
-0.511072
-0.657362
-0.79976
-0.929211
-1.03637
-1.09816
-1.06377
-0.937968
-0.777502
-0.648882
-0.600113
-0.643106
-0.752473
-0.87861
-0.968684
-0.988278
-0.958348
-0.906851
-0.846437
-0.785469
-0.730515
-0.685242
-0.650125
-0.623065
-0.600522
-0.578827
-0.555281
-0.528792
-0.499219
-0.466998
-0.433041
-0.398627
-0.365492
-0.335948
-0.312592
-0.297937
-0.293979
-0.301567
-0.319865
-0.346056
-0.375464
-0.402118
-0.419696
-0.423213
-0.410327
-0.379114
-0.325764
-0.2543
-0.179987
-0.119769
-0.0874649
-0.0900238
-0.126228
-0.188206
-0.264758
-0.344742
-0.419426
-0.485185
-0.53779
-0.573552
-0.589687
-0.584955
-0.560275
-0.518845
-0.465549
-0.405835
-0.344397
-0.284053
-0.225641
-0.16909
-0.113641
-0.0582764
0
0.116501
0.426859
1.05293
1.98211
2.97537
3.63205
3.59754
2.78701
1.46761
0.128271
-0.780565
-1.0651
-0.805405
-0.585944
-0.397415
-0.260153
-0.18586
-0.175058
-0.217824
-0.296945
-0.392029
-0.483311
-0.557324
-0.609738
-0.641289
-0.65403
-0.650034
-0.63136
-0.600816
-0.56274
-0.521429
-0.480435
-0.44203
-0.407062
-0.375208
-0.3455
-0.31693
-0.288911
-0.261368
-0.23445
-0.207953
-0.180688
-0.150128
-0.112547
-0.063681
0.00019989
0.0811386
0.178015
0.288264
0.407156
0.526518
0.638542
0.737732
0.82209
0.893155
0.954933
1.01215
1.0685
1.12531
1.1815
1.23388
1.27675
1.30207
1.30307
1.27435
1.21311
1.12029
1.00113
0.864807
0.722742
0.586101
0.462547
0.352347
0.254968
0.168028
0.0879974
0.011499
-0.0635818
-0.137454
-0.208345
-0.273064
-0.32789
-0.3696
-0.39626
-0.407646
-0.405263
-0.391983
-0.371484
-0.347725
-0.324159
-0.303426
-0.287389
-0.276906
-0.271851
-0.271208
-0.273306
-0.276122
-0.277695
-0.276515
-0.271822
-0.263792
-0.253554
-0.242931
-0.234138
-0.229465
-0.231186
-0.241263
-0.260371
-0.287752
-0.320804
-0.354913
-0.383614
-0.399535
-0.393948
-0.342613
-0.234595
-0.0999725
0.0184738
0.0839981
0.0816834
0.0238251
-0.0569168
-0.122945
-0.148213
-0.136719
-0.107275
-0.0691284
-0.0277664
0.0126175
0.04953
0.0817291
0.107599
0.12623
0.136011
0.135139
0.122621
0.0990631
0.0666931
0.0286606
-0.0119308
-0.0526932
-0.092424
-0.130394
-0.166145
-0.199455
-0.230383
-0.259279
-0.286725
-0.313251
-0.339102
-0.36405
-0.386687
-0.377992
0
0.692686
1.61218
2.61746
3.52266
4.1146
4.20874
3.73286
2.78501
1.61297
0.51543
-0.280743
-0.698007
-0.73927
-0.704816
-0.661996
-0.611951
-0.554878
-0.491629
-0.423642
-0.35452
-0.290288
-0.237582
-0.202109
-0.187062
-0.192116
-0.213301
-0.243962
-0.276439
-0.303833
-0.322015
-0.330157
-0.328453
-0.316251
-0.292973
-0.257957
-0.210582
-0.150542
-0.0781692
0.00509033
0.0968826
0.194525
0.295024
0.395087
0.491031
0.578702
0.654332
0.716006
0.763705
0.799857
0.829536
0.859999
0.899435
0.955148
1.03854
1.1574
1.29476
1.42504
1.52354
1.57477
1.57621
1.53701
1.47357
1.40434
1.34477
1.29961
1.26653
1.24293
1.21868
1.1798
1.11287
1.00995
0.872478
0.712012
0.547488
0.399483
0.283873
0.196927
0.138083
0.102219
0.0815598
0.0679001
0.0544647
0.0369736
0.0138382
-0.0143036
-0.0453857
-0.0766708
-0.105708
-0.130298
-0.148387
-0.158022
-0.157483
-0.145659
-0.122314
-0.0862625
-0.0385483
0.0137283
0.0616318
0.0965378
0.112349
0.106996
0.0826721
0.0447632
0
-0.0470474
-0.0908646
-0.129874
-0.163191
-0.189897
-0.208788
-0.218315
-0.216226
-0.196852
-0.146729
-0.056546
0.0486725
0.129684
0.147273
0.080397
-0.0607986
-0.234694
-0.382317
-0.450177
-0.426454
-0.297484
-0.0937058
0.125208
0.305916
0.41796
0.455286
0.426503
0.34402
0.220831
0.075148
-0.0663315
-0.182347
-0.260245
-0.301422
-0.318999
-0.323752
-0.320926
-0.315417
-0.311081
-0.310393
-0.314488
-0.323373
-0.336028
-0.350703
-0.365398
-0.377672
-0.384869
-0.382982
-0.34333
0
0.643678
1.39677
2.12328
2.7195
3.12231
3.28451
3.15585
2.70839
1.99509
1.17713
0.470622
0.0477188
-0.0230865
-0.0268265
-0.0212372
-0.0105301
0.00522156
0.0257156
0.0503677
0.0775482
0.103651
0.123705
0.132367
0.125102
0.0994873
0.0562897
0
-0.083902
-0.158992
-0.210016
-0.22475
-0.197708
-0.115982
-0.00205383
0.112076
0.197272
0.238309
0.238033
0.21277
0.18205
0.158707
0.143541
0.130574
0.115938
0.0970383
0.0736084
0.0475983
0.0222488
0.000991821
-0.014386
-0.0231491
-0.0245331
-0.0165939
0
0.0074707
0.00206146
-0.0270508
-0.0835785
-0.160339
-0.239789
-0.287125
-0.220549
-0.0601273
0.110406
0.197499
0.14718
-0.037117
-0.307744
-0.597943
-0.841762
-1.0014
-1.11096
-1.19889
-1.27539
-1.35214
-1.44021
-1.54685
-1.67307
-1.81303
-1.95574
-2.08851
-2.20085
-2.29219
-2.36315
-2.41551
-2.45232
-2.47663
-2.49094
-2.49595
-2.49134
-2.47636
-2.45065
-2.41506
-2.37046
-2.31808
-2.26073
-2.20442
-2.15722
-2.12684
-2.11892
-2.13521
-2.17247
-2.22269
-2.27471
-2.31706
-2.34094
-2.34512
-2.33353
-2.31054
-2.27962
-2.24371
-2.20519
-2.16561
-2.12569
-2.08556
-2.04514
-2.00448
-1.9639
-1.92396
-1.8853
-1.84828
-1.81284
-1.7784
-1.74411
-1.70912
-1.67293
-1.63566
-1.59798
-1.56094
-1.52558
-1.49248
-1.46149
-1.43168
-1.40147
-1.36893
-1.3322
-1.28972
-1.24044
-1.18362
-1.11864
-1.04486
-0.961472
-0.867614
-0.762539
-0.645919
-0.518111
-0.378622
-0.220278
0
0.277623
0.701707
1.27043
1.87657
2.3206
2.39042
1.97059
1.12017
0.0670921
-0.885058
-1.48564
-1.57599
-1.45203
-1.34538
-1.25885
-1.19987
-1.17072
-1.16844
-1.18582
-1.21337
-1.24147
-1.26224
-1.27226
-1.27057
-1.25672
-1.23093
-1.19409
-1.14744
-1.0926
-1.03141
-0.965992
-0.89855
-0.831219
-0.765844
-0.703817
-0.646017
-0.592871
-0.544479
-0.500737
-0.461485
-0.426482
-0.394392
-0.362807
-0.328057
-0.285424
-0.229889
-0.157319
-0.0657661
0.0435558
0.166035
0.294257
0.41976
0.534539
0.632537
0.710513
0.768105
0.807236
0.831198
0.84378
0.849255
0.850802
0.851158
0.852599
0.857354
0.866772
0.875076
0.868394
0.829699
0.746427
0.617726
0.457413
0.290778
0.146599
0.0479948
-0.00800514
-0.0355755
-0.0401487
-0.0266281
0
-0.0151098
-0.031546
-0.0543987
-0.0856049
-0.123788
-0.165071
-0.204656
-0.23636
-0.26308
-0.295712
-0.345803
-0.415832
-0.493201
-0.552247
-0.564186
-0.510418
-0.398044
-0.250944
-0.0967641
0.0346066
0.119279
0.145296
0.114627
0.0411896
-0.0538473
-0.147699
-0.221267
-0.268999
-0.292396
-0.293701
-0.275437
-0.241044
-0.194862
-0.141594
-0.0856667
-0.0307559
0.0205396
0.0667237
0.107153
0.140842
0.165766
0.180201
0.182738
0.172487
0.150481
0.120513
0.0886569
0.0614432
0.0434467
0.0354994
0.0336315
0.0334875
0.0309217
0.0237858
0.0128874
0.00180054
-0.00426674
0
-0.0164139
-0.0194454
-0.00900669
0.0147585
0.0511578
0.0991932
0.157732
0.225569
0.30417
0.411654
0.666563
1.1218
1.70671
2.27699
2.64337
2.65965
2.29979
1.67077
0.956134
0.327436
-0.117461
-0.377036
-0.565428
-0.7285
-0.873513
-0.995759
-1.09221
-1.16228
-1.20824
-1.2348
-1.24809
-1.25405
-1.25706
-1.25916
-1.26049
-1.26044
-1.25842
-1.25437
-1.24889
-1.24293
-1.23733
-1.23242
-1.22775
-1.22217
-1.21403
-1.20165
-1.18382
-1.16005
-1.13054
-1.09633
-1.05907
-1.02149
-0.986368
-0.955424
-0.928534
-0.90343
-0.876107
-0.841892
-0.796824
-0.738833
-0.66899
-0.590398
-0.506055
-0.418822
-0.331203
-0.245518
-0.164574
-0.092553
-0.0356117
-0.00173798
0
-0.0314735
-0.100697
-0.198562
-0.309354
-0.416144
-0.507653
-0.584842
-0.656531
-0.737051
-0.839544
-0.969058
-1.11858
-1.2701
-1.40044
-1.48951
-1.53466
-1.52671
-1.48133
-1.42233
-1.3732
-1.34994
-1.35723
-1.38856
-1.42964
-1.46368
-1.47698
-1.46738
-1.44034
-1.39976
-1.3523
-1.30517
-1.26427
-1.23286
-1.2111
-1.19662
-1.18578
-1.17505
-1.16213
-1.14636
-1.12756
-1.10539
-1.07875
-1.04536
-1.00187
-0.939249
-0.830389
-0.630256
-0.363905
-0.101987
0.0806335
0.131307
0.0404358
-0.153069
-0.376799
-0.552972
-0.6243
-0.617368
-0.572365
-0.505718
-0.423111
-0.327403
-0.22159
-0.111473
-0.00532379
0.0888016
0.164378
0.217572
0.247861
0.257949
0.25303
0.239654
0.224499
0.212817
0.207318
0.209092
0.218409
0.234304
0.252659
0.266984
0.270529
0.258058
0.227372
0.180098
0.121407
0.0587425
0
-0.0090683
0.458491
1.22267
2.11096
2.96591
3.65918
4.11486
4.28784
4.13848
3.64756
2.86493
1.93774
1.07014
0.439394
0.223217
0.270276
0.326725
0.383976
0.439396
0.492323
0.544101
0.597426
0.655436
0.722377
0.796172
0.869185
0.931541
0.975414
0.998539
1.00522
1.00446
1.00633
1.01828
1.04013
1.06911
1.10299
1.13954
1.17666
1.21282
1.24735
1.28051
1.31331
1.34721
1.38377
1.4243
1.46958
1.51992
1.57501
1.63422
1.6969
1.76253
1.83081
1.90154
1.9744
2.04878
2.12361
2.19747
2.2688
2.33606
2.39798
2.45357
2.50203
2.54243
2.5733
2.59155
2.5924
2.57144
2.5244
2.44832
2.34277
2.21048
2.05732
1.89148
1.72211
1.55751
1.40308
1.26313
1.14035
1.03595
0.950069
0.882051
0.830813
0.794978
0.772923
0.763094
0.763739
0.771846
0.783253
0.793367
0.797575
0.79179
0.773021
0.739927
0.693253
0.636087
0.573459
0.513975
0.468818
0.448789
0.461742
0.522017
0.631899
0.765178
0.889147
0.976795
1.01548
1.00799
0.966602
0.90485
0.832508
0.757014
0.682523
0.612542
0.551128
0.502332
0.469337
0.45235
0.450951
0.463833
0.486753
0.511332
0.52861
0.531491
0.516545
0.485118
0.443344
0.400864
0.368429
0.354979
0.366435
0.407022
0.464655
0.521685
0.561198
0.572677
0.554847
0.514831
0.464409
0.415187
0.373722
0.339297
0.309381
0.281405
0.252597
0.220413
0.182435
0.137843
0.0891293
0.0408928
0
0.0365471
0.493384
1.20397
1.96633
2.65596
3.2001
3.5276
3.54385
3.18313
2.4926
1.65281
0.895148
0.379894
0.170389
0.10457
0.053846
0.00966034
-0.0282608
-0.0602394
-0.0867649
-0.10845
-0.125999
-0.140174
-0.151772
-0.161565
-0.170193
-0.178019
-0.184994
-0.190548
-0.193564
-0.192446
-0.185315
-0.170337
-0.145937
-0.110492
-0.0623766
-0.00258751
0.0628395
0.125393
0.176492
0.209795
0.223218
0.219995
0.208409
0.200112
0.207377
0.238056
0.293501
0.370491
0.464462
0.570679
0.683572
0.79788
0.909705
1.01682
1.11862
1.21562
1.30841
1.39684
1.47887
1.54978
1.60268
1.63089
1.6304
1.60147
1.5485
1.47859
1.3995
1.318
1.23796
1.1609
1.08762
1.01844
0.953237
0.891584
0.833003
0.777183
0.724174
0.674479
0.62899
0.58878
0.55493
0.528003
0.507733
0.493068
0.482315
0.473404
0.464203
0.452805
0.437745
0.418171
0.394099
0.366406
0.336831
0.308128
0.284693
0.271854
0.274728
0.297277
0.34123
0.406904
0.491483
0.58583
0.678353
0.757889
0.815842
0.847465
0.852061
0.832265
0.792788
0.739106
0.676841
0.610727
0.544234
0.479824
0.419454
0.364901
0.317753
0.279338
0.250422
0.231393
0.222501
0.224142
0.237096
0.26263
0.304985
0.377698
0.510163
0.70486
0.914217
1.0736
1.12618
1.0477
0.858151
0.613152
0.379677
0.210851
0.102825
0.0267336
-0.0288422
-0.0652714
-0.0828187
-0.0837819
-0.0741175
-0.0597681
-0.0452181
-0.03216
-0.0187759
0
0.0312069
0.0819161
0.156573
0.253319
0.369594
0.502954
0.654019
0.835246
1.04986
1.45985
2.11571
2.89133
3.52088
3.73716
3.4197
2.6563
1.68967
0.798257
0.18574
-0.0117257
-0.0616895
-0.102022
-0.138108
-0.170628
-0.199564
-0.224147
-0.243011
-0.254465
-0.256866
-0.24914
-0.231068
-0.202637
-0.165319
-0.12312
-0.0806054
-0.0419252
-0.00993242
0.0143443
0.0317095
0.0443409
0.0550784
0.0667562
0.0814886
0.100723
0.125957
0.15863
0.200087
0.251372
0.312943
0.386014
0.469985
0.558134
0.641307
0.711375
0.764301
0.802129
0.833026
0.869292
0.92611
1.04332
1.27239
1.60087
1.92944
2.19696
2.38749
2.4838
2.45147
2.26257
1.93389
1.54383
1.21567
1.06696
1.04916
1.08005
1.1321
1.20292
1.2861
1.36651
1.42476
1.44205
1.40467
1.30901
1.16468
0.993359
0.822572
0.676876
0.563581
0.473382
0.402986
0.353907
0.324314
0.312874
0.318861
0.341795
67
226
378
471
529
578
680
728
832
989
1136
1281
1424
1580
2024
2167
2310
2461
2611
2765
2877
2919
2949
2978
3068
3152
3215
3280
3364
3513
3669
0
0
0
0
0
0
0
0
0
0
0
0
0
0
0
0
0
0
0
0
0
0
0
0
0
0
0
0
0
0
0
0
0
0
0
0
0
0
0
0
0
0
0
0
0
0
0
0
0
0
0
0
0
0
0
0
0
0
0
0
0
0
0
0
0
0
0
0
0
0
0
0
0
0
0
0
0
0
0
0
0
0
0
0
0
0
0
0
0
0
0
0
0
0
0
0
0
0
0
0
0
0
0
0
0
0
0
0
0
0
0
0
0
0
0
0
0
0
0
0
0
0
0
0
0
0
0
0
0
0
0
0
0
0
0
0
0
0
0
0
0
0
0
0
0
0
0
0
0
0
0
0
0
0
0
0
0
0
0
0
0
0
0
0
0
0
0
0
0
0
0
0
0
0
0
0
0
0
0
0
0
0
0
0
0
0
0
0
0
0
0
0
0
0
0
0
0
0
0
0
0
0
0
0
0
0
0
0
0
0
0
0
0
0
0
0
0
0
0
0
0
0
0
0
0
0
0
0
0
0
0
0
0
0
0
0
0
0
0
0
0
0
0
0
0
0
0
0
0
0
0
0
0
0
0
0
0
0
0
0
0
0
0
0
0
0
0
0
0
0
0
0
0
0
0
0
0
0
0
0
0
0
0
0
0
0
0
0
0
0
0
0
0
0
0
0
0
0
0
0
0
0
0
0
0
0
0
0
0
0
0
0
0
0
0
0
0
0
0
0
0
0
0
0
0
0
0
0
0
0
0
0
0
0
0
0
0
0
0
0
0
0
0
0
0
0
0
0
0
0
0
0
0
0
0
0
0
0
0
0
0
0
0
0
0
0
0
0
0
0
0
0
0
0
0
0
0
0
0
0
0
0
0
0
0
0
0
0
0
0
0
0
0
0
0
0
0
0
0
0
0
0
0
0
0
0
0
0
0
0
0
0
0
0
0
0
0
0
0
0
0
0
0
0
0
0
0
0
0
0
0
0
0
0
0
0
0
0
0
0
0
0
0
0
0
0
0
0
0
0
0
0
0
0
0
0
0
0
0
0
0
0
0
0
0
0
0
0
0
0
0
0
0
0
0
0
0
0
0
0
0
0
0
0
0
0
0
0
0
0
0
0
0
0
0
0
0
0
0
0
0
0
0
0
0
0
0
0
0
0
0
0
0
0
0
0
0
0
0
0
0
0
0
0
0
0
0
0
0
0
0
0
0
0
0
0
0
0
0
0
0
0
0
0
0
0
0
0
0
0
0
0
0
0
0
0
0
0
0
0
0
0
0
0
0
0
0
0
0
0
0
0
0
0
0
0
0
0
0
0
0
0
0
0
0
0
0
0
0
0
0
0
0
0
0
0
0
0
0
0
0
0
0
0
0
0
0
0
0
0
0
0
0
0
0
0
0
0
0
0
0
0
0
0
0
0
0
0
0
0
0
0
0
0
0
0
0
0
0
0
0
0
0
0
0
0
0
0
0
0
0
0
0
0
0
0
0
0
0
0
0
0
0
0
0
0
0
0
0
0
0
0
0
0
0
0
0
0
0
0
0
0
0
0
0
0
0
0
0
0
0
0
0
0
0
0
0
0
0
0
0
0
0
0
0
0
0
0
0
0
0
0
0
0
0
0
0
0
0
0
0
0
0
0
0
0
0
0
0
0
0
0
0
0
0
0
0
0
0
0
0
0
0
0
0
0
0
0
0
0
0
0
0
0
0
0
0
0
0
0
0
0
0
0
0
0
0
0
0
0
0
0
0
0
0
0
0
0
0
0
0
0
0
0
0
0
0
0
0
0
0
0
0
0
0
0
0
0
0
0
0
0
0
0
0
0
0
0
0
0
0
0
0
0
0
0
0
0
0
0
0
0
0
0
0
0
0
0
0
0
0
0
0
0
0
0
0
0
0
0
0
0
0
0
0
0
0
0
0
0
0
0
0
0
0
0
0
0
0
0
0
0
0
0
0
0
0
0
0
0
0
0
0
0
0
0
0
0
0
0
0
0
0
0
0
0
0
0
0
0
0
0
0
0
0
0
0
0
0
0
0
0
0
0
0
0
0
0
0
0
0
0
0
0
0
0
0
0
0
0
0
0
0
0
0
0
0
0
0
0
0
0
0
0
0
0
0
0
0
0
0
0
0
0
0
0
0
0
0
0
0
0
0
0
0
0
0
0
0
0
0
0
0
0
0
0
0
0
0
0
0
0
0
0
0
0
0
0
0
0
0
0
0
0
0
0
0
0
0
0
0
0
0
0
0
0
0
0
0
0
0
0
0
0
0
0
0
0
0
0
0
0
0
0
0
0
0
0
0
0
0
0
0
0
0
0
0
0
0
0
0
0
0
0
0
0
0
0
0
0
0
0
0
0
0
0
0
0
0
0
0
0
0
0
0
0
0
0
0
0
0
0
0
0
0
0
0
0
0
0
0
0
0
0
0
0
0
0
0
0
0
0
0
0
0
0
0
0
0
0
0
0
0
0
0
0
0
0
0
0
0
0
0
0
0
0
0
0
0
0
0
0
0
0
0
0
0
0
0
0
0
0
0
0
0
0
0
0
0
0
0
0
0
0
0
0
0
0
0
0
0
0
0
0
0
0
0
0
0
0
0
0
0
0
0
0
0
0
0
0
0
0
0
0
0
0
0
0
0
0
0
0
0
0
0
0
0
0
0
0
0
0
0
0
0
0
0
0
0
0
0
0
0
0
0
0
0
0
0
0
0
0
0
0
0
0
0
0
0
0
0
0
0
0
0
0
0
0
0
0
0
0
0
0
0
0
0
0
0
0
0
0
0
0
0
0
0
0
0
0
0
0
0
0
0
0
0
0
0
0
0
0
0
0
0
0
0
0
0
0
0
0
0
0
0
0
0
0
0
0
0
0
0
0
0
0
0
0
0
0
0
0
0
0
0
0
0
0
0
0
0
0
0
0
0
0
0
0
0
0
0
0
0
0
0
0
0
0
0
0
0
0
0
0
0
0
0
0
0
0
0
0
0
0
0
0
0
0
0
0
0
0
0
0
0
0
0
0
0
0
0
0
0
0
0
0
0
0
0
0
0
0
0
0
0
0
0
0
0
0
0
0
0
0
0
0
0
0
0
0
0
0
0
0
0
0
0
0
0
0
0
0
0
0
0
0
0
0
0
0
0
0
0
0
0
0
0
0
0
0
0
0
0
0
0
0
0
0
0
0
0
0
0
0
0
0
0
0
0
0
0
0
0
0
0
0
0
0
0
0
0
0
0
0
0
0
0
0
0
0
0
0
0
0
0
0
0
0
0
0
0
0
0
0
0
0
0
0
0
0
0
0
0
0
0
0
0
0
0
0
0
0
0
0
0
0
0
0
0
0
0
0
0
0
0
0
0
0
0
0
0
0
0
0
0
0
0
0
0
0
0
0
0
0
0
0
0
0
0
0
0
0
0
0
0
0
0
0
0
0
0
0
0
0
0
0
0
0
0
0
0
0
0
0
0
0
0
0
0
0
0
0
0
0
0
0
0
0
0
0
0
0
0
0
0
0
0
0
0
0
0
0
0
0
0
0
0
0
0
0
0
0
0
0
0
0
0
0
0
0
0
0
0
0
0
0
0
0
0
0
0
0
0
0
0
0
0
0
0
0
0
0
0
0
0
0
0
0
0
0
0
0
0
0
0
0
0
0
0
0
0
0
0
0
0
0
0
0
0
0
0
0
0
0
0
0
0
0
0
0
0
0
0
0
0
0
0
0
0
0
0
0
0
0
0
0
0
0
0
0
0
0
0
0
0
0
0
0
0
0
0
0
0
0
0
0
0
0
0
0
0
0
0
0
0
0
0
0
0
0
0
0
0
0
0
0
0
0
0
0
0
0
0
0
0
0
0
0
0
0
0
0
0
0
0
0
0
0
0
0
0
0
0
0
0
0
0
0
0
0
0
0
0
0
0
0
0
0
0
0
0
0
0
0
0
0
0
0
0
0
0
0
0
0
0
0
0
0
0
0
0
0
0
0
0
0
0
0
0
0
0
0
0
0
0
0
0
0
0
0
0
0
0
0
0
0
0
0
0
0
0
0
0
0
0
0
0
0
0
0
0
0
0
0
0
0
0
0
0
0
0
0
0
0
0
0
0
0
0
0
0
0
0
0
0
0
0
0
0
0
0
0
0
0
0
0
0
0
0
0
0
0
0
0
0
0
0
0
0
0
0
0
0
0
0
0
0
0
0
0
0
0
0
0
0
0
0
0
0
0
0
0
0
0
0
0
0
0
0
0
0
0
0
0
0
0
0
0
0
0
0
0
0
0
0
0
0
0
0
0
0
0
0
0
0
0
0
0
0
0
0
0
0
0
0
0
0
0
0
0
0
0
0
0
0
0
0
0
0
0
0
0
0
0
0
0
0
0
0
0
0
0
0
0
0
0
0
0
0
0
0
0
0
0
0
0
0
0
0
0
0
0
0
0
0
0
0
0
0
0
0
0
0
0
0
0
0
0
0
0
0
0
0
0
0
0
0
0
0
0
0
0
0
0
0
0
0
0
0
0
0
0
0
0
0
0
0
0
0
0
0
0
0
0
0
0
0
0
0
0
0
0
0
0
0
0
0
0
0
0
0
0
0
0
0
0
0
0
0
0
0
0
0
0
0
0
0
0
0
0
0
0
0
0
0
0
0
0
0
0
0
0
0
0
0
0
0
0
0
0
0
0
0
0
0
0
0
0
0
0
0
0
0
0
0
0
0
0
0
0
0
0
0
0
0
0
0
0
0
0
0
0
0
0
0
0
0
0
0
0
0
0
0
0
0
0
0
0
0
0
0
0
0
0
0
0
0
0
0
0
0
0
0
0
0
0
0
0
0
0
0
0
0
0
0
0
0
0
0
0
0
0
0
0
0
0
0
0
0
0
0
0
0
0
0
0
0
0
0
0
0
0
0
0
0
0
0
0
0
0
0
0
0
0
0
0
0
0
0
0
0
0
0
0
0
0
0
0
0
0
0
0
0
0
0
0
0
0
0
0
0
0
0
0
0
0
0
0
0
0
0
0
0
0
0
0
0
0
0
0
0
0
0
0
0
0
0
0
0
0
0
0
0
0
0
0
0
0
0
0
0
0
0
0
0
0
0
0
0
0
0
0
0
0
0
0
0
0
0
0
0
0
0
0
0
0
0
0
0
0
0
0
0
0
0
0
0
0
0
0
0
0
0
0
0
0
0
0
0
0
0
0
0
0
0
0
0
0
0
0
0
0
0
0
0
0
0
0
0
0
0
0
0
0
0
0
0
0
0
0
0
0
0
0
0
0
0
0
0
0
0
0
0
0
0
0
0
0
0
0
0
0
0
0
0
0
0
0
0
0
0
0
0
0
0
0
0
0
0
0
0
0
0
0
0
0
0
0
0
0
0
0
0
0
0
0
0
0
0
0
0
0
0
0
0
0
0
0
0
0
0
0
0
0
0
0
0
0
0
0
0
0
0
0
0
0
0
0
0
0
0
0
0
0
0
0
0
0
0
0
0
0
0
0
0
0
0
0
0
0
0
0
0
0
0
0
0
0
0
0
0
0
0
0
0
0
0
0
0
0
0
0
0
0
0
0
0
0
0
0
0
0
0
0
0
0
0
0
0
0
0
0
0
0
0
0
0
0
0
0
0
0
0
0
0
0
0
0
0
0
0
0
0
0
0
0
0
0
0
0
0
0
0
0
0
0
0
0
0
0
0
0
0
0
0
0
0
0
0
0
0
0
0
0
0
0
0
0
0
0
0
0
0
0
0
0
0
0
0
0
0
0
0
0
0
0
0
0
0
0
0
0
0
0
0
0
0
0
0
0
0
0
0
0
0
0
0
0
0
0
0
0
0
0
0
0
0
0
0
0
0
0
0
0
0
0
0
0
0
0
0
0
0
0
0
0
0
0
0
0
0
0
0
0
0
0
0
0
0
0
0
0
0
0
0
0
0
0
0
0
0
0
0
0
0
0
0
0
0
0
0
0
0
0
0
0
0
0
0
0
0
0
0
0
0
0
0
0
0
0
0
0
0
0
0
0
0
0
0
0
0
0
0
0
0
0
0
0
0
0
0
0
0
0
0
0
0
0
0
0
0
0
0
0
0
0
0
0
0
0
0
0
0
0
0
0
0
0
0
0
0
0
0
0
0
0
0
0
0
0
0
0
0
0
0
0
0
0
0
0
0
0
0
0
0
0
0
0
0
0
0
0
0
0
0
0
0
0
0
0
0
0
0
0
0
0
0
0
0
0
0
0
0
0
0
0
0
0
0
0
0
0
0
0
0
0
0
0
0
0
0
0
0
0
0
0
0
0
0
0
0
0
0
0
0
0
0
0
0
0
0
0
0
0
0
0
0
0
0
0
0
0
0
0
0
0
0
0
0
0
0
0
0
0
0
0
0
0
0
0
0
0
0
0
0
0
0
0
0
0
0
0
0
0
0
0
0
0
0
0
0
0
0
0
0
0
0
0
0
0
0
0
0
0
0
0
0
0
0
0
0
0
0
0
0
0
0
0
0
0
0
0
0
0
0
0
0
0
0
0
0
0
0
0
0
0
0
0
0
0
0
0
0
0
0
0
0
0
0
0
0
0
0
0
0
0
0
0
0
0
0
0
0
0
0
0
0
0
0
0
0
0
0
0
0
0
0
0
0
0
0
0
0
0
0
0
0
0
0
0
0
0
0
0
0
0
0
0
0
0
0
0
0
0
0
0
0
0
0
0
0
0
0
0
0
0
0
0
0
0
0
0
0
0
0
0
0
0
0
0
0
0
0
0
0
0
0
0
0
0
0
0
0
0
0
0
0
0
0
0
0
0
0
0
0
0
0
0
0
0
0
0
0
0
0
0
0
0
0
0
0
0
0
0
0
0
0
0
0
0
0
0
0
0
0
0
0
0
0
0
0
0
0
0
0
0
0
0
0
0
0
0
0
0
0
0
0
0
0
0
0
0
0
0
0
0
0
0
0
0
0
0
0
0
0
0
0
0
0
0
0
0
0
0
0
0
0
0
0
0
0
0
0
0
0
0
0
0
0
0
0
0
0
0
0
0
0
0
0
0
0
0
0
0
0
0
0
0
0
0
0
0
0
0
0
0
0
0
0
0
0
0
0
0
0
0
0
0
0
0
0
0
0
0
0
0
0
0
0
0
0
0
0
0
0
0
0
0
0
0
0
0
0
0
0
0
0
0
0
0
0
0
0
0
0
0
0
0
0
0
0
0
0
0
0
0
0
0
0
0
0
0
0
0
0
0
0
0
0
0
0
0
0
0
0
0
0
0
0
0
0
0
0
0
0
0
0
0
0
0
0
0
0
0
0
0
0
0
0
0
0
0
0
0
0
0
0
0
0
0
0
0
0
0
0
0
0
0
0
0
0
0
0
0
0
0
0
0
0
0
0
0
0
0
0
0
0
0
0
0
0
0
0
0
0
0
0
0
0
0
0
0
0
0
0
0
0
0
0
0
0
0
0
0
0
0
0
0
0
0
0
0
0
0
0
0
0
0
0
0
0
0
0
0
0
0
0
0
0
0
0
0
0
0
0
0
0
0
0
0
0
0
0
0
0
0
0
0
0
0
0
0
0
0
0
0
0
0
0
0
0
0
0
0
0
0
0
0
0
0
0
0
0
0
0
0
0
0
0
0
0
0
0
0
0
0
0
0
0
0
0
0
0
0
0
0
0
0
0
0
0
0
0
0
0
0
0
0
0
0
0
0
0
0
0
0
0
0
0
0
0
0
0
0
0
0
0
0
0
0
0
0
0
0
0
0
0
0
0
0
0
0
0
0
0
0
0
0
0
0
0
0
0
0
0
0
0
0
0
0
0
0
0
0
0
0
0
0
0
0
0
0
0
0
0
0
0
0
0
0
0
0
0
0
0
0
0
0
0
0
0
0
0
0
0
0
0
0
0
0
0
0
0
0
0
0
0
0
0
0
0
0
0
0
0
0
0
0
0
0
0
0
0
0
0
0
0
0
0
0
0
0
0
0
0
0
0
0
0
0
0
0
0
0
0
0
0
0
0
0
0
0
0
0
0
0
0
0
0
0
0
0
0
0
0
0
0
0
0
0
0
0
0
0
0
0
0
0
0
0
0
0
0
0
0
0
0
0
0
0
0
0
0
0
0
0
0
0
0
0
0
0
0
0
0
0
0
0
0
0
0
0
0
0
0
0
0
0
0
0
0
0
0
0
0
0
0
0
0
0
0
0
0
0
0
0
0
0
0
0
0
0
0
0
0
0
0
0
0
0
0
0
0
0
0
0
0
0
0
0
0
0
0
0
0
0
0
0
0
0
0
0
0
0
0
0
0
0
0
0
0
0
0
0
0
0
0
0
0
0
0
0
0
0
0
0
0
0
0
0
0
0
0
0
0
0
0
0
0
0
0
0
0
0
0
0
0
0
0
0
0
0
