4.64142
4.55929
4.4919
4.43651
4.39029
4.35087
4.31653
4.28628
4.2598
4.23726
4.21927
4.20653
4.19985
4.20012
4.20827
4.22503
4.25129
4.28881
4.33544
4.38344
4.42365
4.44863
4.45576
4.44854
4.43539
4.42632
4.42878
4.44358
4.46706
4.49012
4.50178
4.49255
4.45721
4.39582
4.31304
4.2161
4.11227
4.00714
3.90345
3.80235
3.70485
3.61302
3.52932
3.45646
3.39696
3.35239
3.32296
3.30748
3.30379
3.30939
3.32209
3.33993
3.36189
3.38719
3.41477
3.44307
3.46966
3.49095
3.50321
3.50317
3.48889
3.46048
3.42043
3.37354
3.3263
3.28576
3.25825
3.24636
3.25173
3.27767
3.32351
3.37848
3.42749
3.45628
3.45507
3.42123
3.3598
3.28177
3.20083
3.1295
3.07341
3.03165
3.00237
2.98436
2.97603
2.97509
2.97898
2.98428
2.9868
2.98266
2.96926
2.94611
2.91543
2.88217
2.85364
2.83792
2.84224
2.87131
2.92622
3.00494
3.10462
3.21445
3.31855
3.402
3.4536
3.4675
3.4437
3.38763
3.3088
3.21898
3.13012
3.05118
2.98577
2.93425
2.89603
2.87084
2.85658
2.8502
2.84821
2.84711
2.84385
2.83613
2.82276
2.80391
2.78123
2.75781
2.73792
2.72641
2.72834
2.75347
2.8112
2.8938
2.98051
3.0477
3.07657
3.05824
2.99428
2.89317
2.76487
2.61655
2.45432
2.28317
2.10668
1.92795
1.75054
1.57864
1.41655
1.26803
1.13595
1.02132
0.922372
0.835593
0.756497
0.680563
0.604004
0.524092
0.43963
0.350732
0.258547
0.165952
0.0784112
0.00263052
-0.0539162
-0.0849632
0
0.968418
2.84108
5.62426
8.99541
12.3366
14.9158
16.1448
15.7945
14.0645
11.4781
8.66409
6.13362
4.15502
2.76113
1.84543
1.33544
1.163
0.999752
0.847759
0.708097
0.580697
0.464401
0.357283
0.257374
0.163432
0.075546
-0.00364456
-0.0685967
-0.111307
-0.123405
-0.0988305
-0.0361636
0.0600667
0.179498
0.307617
0.428149
0.526675
0.593679
0.626386
0.628814
0.610026
0.581232
0.552816
0.531642
0.51938
0.51573
0.520684
0.53364
0.55353
0.578888
0.606249
0.630307
0.645332
0.646444
0.631028
0.599783
0.556944
0.509506
0.465594
0.432156
0.411794
0.405914
0.41345
0.429629
0.448485
0.464581
0.474407
0.477034
0.473894
0.467846
0.461951
0.458204
0.457021
0.457978
0.46005
0.462057
0.463241
0.463754
0.464929
0.469257
0.480104
0.500969
0.534708
0.582722
0.644853
0.720002
0.802015
0.882492
0.953234
1.00808
1.0441
1.06192
1.06504
1.05861
1.04807
1.03782
1.03
1.02512
1.02255
1.02007
1.01397
1.00035
0.976277
0.940833
0.895783
0.845437
0.795759
0.752935
0.721874
0.704217
0.700036
0.707433
0.723335
0.744396
0.76756
0.790807
0.812842
0.832897
0.850548
0.865513
0.877588
0.886632
0.892596
0.895573
0.895856
0.894007
0.890938
0.887862
0.88629
0.88777
0.893551
0.904248
0.919764
0.938998
0.960299
0.981968
1.00278
1.02232
1.04111
1.06028
1.08118
1.10466
1.13065
1.15818
1.18465
1.20547
1.21509
1.20794
1.17981
1.12895
1.05684
0.968194
0.870154
0.770906
0.677959
0.5955
0.525416
0.468309
0.422877
0.386497
0.355424
0.325016
0.290914
0.249737
0.199628
0.140523
0.0738684
0.00256557
-0.0696465
-0.139266
-0.203728
-0.261703
-0.312254
-0.356561
-0.39649
-0.433929
-0.469425
0
1.26076
3.43181
6.31561
9.37739
11.9004
13.251
13.1253
11.657
9.33179
6.76378
4.45796
2.67516
1.43989
0.644327
0.252419
0.0960152
-0.0487236
-0.179344
-0.293933
-0.391264
-0.470903
-0.533278
-0.579686
-0.612269
-0.633952
-0.648246
-0.658927
-0.669718
-0.683958
-0.704335
-0.732925
-0.771545
-0.82212
-0.883112
-0.941402
-0.977676
-0.972499
-0.913241
-0.800172
-0.648402
-0.483911
-0.33499
-0.223031
-0.143694
-0.0861126
-0.0484592
-0.0280685
-0.0224491
-0.0293652
-0.0474941
-0.0765049
-0.116367
-0.166727
-0.226427
-0.2932
-0.363718
-0.433938
-0.499673
-0.557223
-0.603692
-0.637429
-0.65862
-0.668809
-0.670464
-0.666418
-0.659314
-0.651091
-0.642619
-0.633467
-0.621905
-0.60518
-0.579682
-0.538158
-0.465097
-0.349873
-0.213342
-0.0887928
-0.00832825
0.0119568
-0.0197754
-0.0740273
-0.113093
-0.108194
-0.0579842
0.0133118
0.0922878
0.168673
0.233244
0.279104
0.302225
0.301464
0.278316
0.236782
0.183689
0.125028
0.0667625
0.0140793
-0.0295349
-0.0634941
-0.0878109
-0.103619
-0.112642
-0.1167
-0.117448
-0.116332
-0.114702
-0.114019
-0.115749
-0.121085
-0.130555
-0.143726
-0.159159
-0.174739
-0.188276
-0.198206
-0.204476
-0.207976
-0.210534
-0.214711
-0.223202
-0.238229
-0.261008
-0.291375
-0.327644
-0.366726
-0.404457
-0.435892
-0.45643
-0.462575
-0.452618
-0.42702
-0.386688
-0.336268
-0.281826
-0.228856
-0.180978
-0.13932
-0.102775
-0.0690651
-0.0361824
-0.00365829
0.026255
0.049012
0.0591599
0.0519951
0.0247932
-0.0228111
-0.0892227
-0.171706
-0.266395
-0.369251
-0.477106
-0.587372
-0.697693
-0.805847
-0.909872
-1.00818
-1.1001
-1.18595
-1.2667
-1.34358
-1.41771
-1.48985
-1.56053
-1.63041
-1.70062
-1.77305
-1.85107
-1.94445
-2.06947
-2.21843
-2.37109
-2.50938
-2.63232
-1.7198
0
2.43418
5.35954
8.35819
10.8926
12.4238
12.5899
11.3664
9.10081
6.3786
3.7867
1.70825
0.254569
-0.667947
-1.18239
-1.33887
-1.4853
-1.61754
-1.7323
-1.82779
-1.90551
-1.96939
-2.02406
-2.07363
-2.12076
-2.16601
-2.20792
-2.24337
-2.26839
-2.27963
-2.27506
-2.25357
-2.21506
-2.16081
-2.09358
-2.01688
-1.93586
-1.85818
-1.79219
-1.74495
-1.72111
-1.72219
-1.74632
-1.78878
-1.84309
-1.90247
-1.9613
-2.01633
-2.06685
-2.11313
-2.15622
-2.1973
-2.23726
-2.27656
-2.3154
-2.35391
-2.39231
-2.43052
-2.46752
-2.5009
-2.52699
-2.54167
-2.54175
-2.52622
-2.49793
-2.46049
-2.41791
-2.37361
-2.32942
-2.28534
-2.23997
-2.19154
-2.13891
-2.08231
-2.02333
-1.9637
-1.90518
-1.84915
-1.79653
-1.74791
-1.70449
-1.66756
-1.63828
-1.61743
-1.60475
-1.59851
-1.59574
-1.59308
-1.58792
-1.57942
-1.56895
-1.55891
-1.55191
-1.54994
-1.55358
-1.56163
-1.57124
-1.57841
-1.57882
-1.56914
-1.54711
-1.51163
-1.46303
-1.40321
-1.3353
-1.26323
-1.19133
-1.12369
-1.06344
-1.01237
-0.970822
-0.93783
-0.911555
-0.889762
-0.870276
-0.851271
-0.831447
-0.809944
-0.786221
-0.75994
-0.730866
-0.698782
-0.663429
-0.624452
-0.58135
-0.533463
-0.480008
-0.420193
-0.353392
-0.279363
-0.198432
-0.111588
-0.0204344
0.0730249
0.166725
0.25893
0.348584
0.435523
0.520499
0.604993
0.690867
0.780231
0.875726
0.979095
1.08449
1.17595
1.23405
1.24229
1.19329
1.09232
0.95653
0.809671
0.674238
0.563697
0.474165
0.397915
0.33076
0.270817
0.216686
0.167495
0.122591
0.081029
0.0411684
0
-0.0655085
-0.141138
-0.230648
-0.33605
-0.457382
-0.592299
-0.737117
-0.887816
-1.04233
-0.0396564
1.91439
4.68974
7.89041
10.9475
13.2663
14.385
14.1067
12.5631
10.1777
7.52063
5.10892
3.24276
1.95844
1.10601
0.580843
0.30564
0.0467188
-0.190327
-0.401422
-0.584399
-0.739169
-0.867436
-0.971816
-1.05572
-1.12321
-1.17793
-1.22271
-1.25942
-1.28905
-1.31193
-1.32805
-1.3373
-1.33965
-1.33528
-1.32424
-1.30655
-1.28233
-1.25144
-1.21395
-1.17246
-1.13387
-1.10742
-1.10227
-1.12488
-1.17711
-1.25564
-1.35303
-1.46
-1.56802
-1.67181
-1.77019
-1.86387
-1.95392
-2.04123
-2.12644
-2.20984
-2.29137
-2.37082
-2.4481
-2.52339
-2.59732
-2.67057
-2.74343
-2.81522
-2.88356
-2.94446
-2.99287
-3.02377
-3.03336
-3.02009
-2.98503
-2.93167
-2.86521
-2.79175
-2.71707
-2.64523
-2.57917
-2.52055
-2.46964
-2.42556
-2.38658
-2.35061
-2.31575
-2.2808
-2.24548
-2.21061
-2.17789
-2.14915
-2.12562
-2.10719
-2.09213
-2.07723
-2.05851
-2.03218
-1.99577
-1.94888
-1.89226
-1.83133
-1.77467
-1.73067
-1.70506
-1.69922
-1.70985
-1.72995
-1.75078
-1.76429
-1.76545
-1.75422
-1.73298
-1.70449
-1.67177
-1.63806
-1.60659
-1.5802
-1.56072
-1.54887
-1.54425
-1.5454
-1.55002
-1.55527
-1.55818
-1.55599
-1.54662
-1.5289
-1.5021
-1.46593
-1.4207
-1.36733
-1.30735
-1.24268
-1.17536
-1.10737
-1.0398
-0.972266
-0.902652
-0.827286
-0.74159
-0.637984
-0.496845
-0.308564
-0.105003
0.0693764
0.175655
0.194682
0.13192
0.0131393
-0.125765
-0.251074
-0.343845
-0.41017
-0.459619
-0.496903
-0.522309
-0.534718
-0.53169
-0.510266
-0.46827
-0.39836
-0.299909
-0.189884
-0.0899811
-0.0195793
0.0103645
0
-0.0392403
-0.0932838
-0.145786
-0.184863
-0.207813
-0.214799
0.0635956
1.28147
3.40857
6.32835
9.63898
12.7609
15.0941
16.1735
15.8009
14.1201
11.5883
8.81975
6.36156
4.52319
3.35152
2.72649
2.52291
2.41033
2.30216
2.19994
2.10569
2.0216
1.94998
1.89289
1.85181
1.82756
1.82046
1.8305
1.85746
1.89984
1.95646
2.02568
2.10543
2.19104
2.27421
2.34564
2.39719
2.42346
2.42265
2.39628
2.34815
2.28268
2.20353
2.11361
2.01509
1.90892
1.79538
1.67485
1.54835
1.41748
1.28414
1.15005
1.01627
0.882759
0.748013
0.609438
0.464135
0.309984
0.146666
-0.0237015
-0.196513
-0.365267
-0.522621
-0.661846
-0.777553
-0.86657
-0.92823
-0.96423
-0.978124
-0.974633
-0.958897
-0.935807
-0.909528
-0.882985
-0.857809
-0.834237
-0.811176
-0.786411
-0.757012
-0.719938
-0.672776
-0.614459
-0.545033
-0.46641
-0.384548
-0.306274
-0.237453
-0.18146
-0.138519
-0.106099
-0.0801567
-0.0566673
-0.0329048
-0.00807571
0.0175552
0.0429367
0.0668945
0.0886772
0.108233
0.126144
0.14326
0.160179
0.176783
0.191913
0.203877
0.211449
0.214827
0.216035
0.218425
0.225456
0.239226
0.259213
0.282774
0.305553
0.322634
0.329726
0.324009
0.304532
0.272253
0.229926
0.182205
0.134356
0.0931915
0.0652824
0.0557243
0.0671913
0.0996803
0.151061
0.218152
0.297705
0.386018
0.479497
0.575919
0.67191
0.762994
0.844556
0.912857
0.965913
1.00382
1.0283
1.04173
1.04601
1.04241
1.031
1.01095
0.981749
0.943863
0.899124
0.850542
0.801653
0.755615
0.714483
0.678471
0.645905
0.613882
0.579211
0.539353
0.493115
0.440915
0.384635
0.327174
0.271713
0.221368
0.178226
0.142986
0.114801
0.0915161
0.0703133
0.0486404
0.0251007
0
-0.0162659
0.0916267
1.04301
2.98175
5.74977
8.8845
11.7782
13.8646
14.7607
14.3486
12.7945
10.5005
7.98372
5.71352
3.97776
2.83946
2.18763
1.86646
1.61405
1.37023
1.14038
0.929805
0.742945
0.583311
0.453252
0.353866
0.28593
0.248374
0.238913
0.254352
0.292381
0.350736
0.422894
0.49917
0.570011
0.627528
0.666893
0.687186
0.691396
0.685559
0.67723
0.673611
0.679142
0.694946
0.719837
0.752013
0.788074
0.824276
0.857374
0.885151
0.906508
0.921161
0.929136
0.930373
0.924676
0.911971
0.892881
0.869187
0.843914
0.820876
0.803778
0.796116
0.798693
0.808751
0.821143
0.829792
0.829377
0.816716
0.791481
0.756125
0.7151
0.673614
0.635807
0.603891
0.578278
0.557835
0.539934
0.521294
0.498903
0.47084
0.436819
0.398333
0.3584
0.321002
0.289887
0.267874
0.258491
0.266109
0.28981
0.320612
0.347187
0.35946
0.352036
0.326046
0.288617
0.250144
0.220474
0.203717
0.197401
0.200333
0.208336
0.216623
0.221367
0.220902
0.216166
0.21024
0.207193
0.210622
0.22201
0.240275
0.263484
0.288402
0.310929
0.327236
0.33459
0.331774
0.319102
0.298092
0.270918
0.239887
0.20713
0.174591
0.144059
0.117645
0.09785
0.0873821
0.0887211
0.104727
0.136685
0.183798
0.24234
0.303527
0.355713
0.388924
0.397609
0.38273
0.352494
0.321092
0.305382
0.337818
0.449228
0.607645
0.753994
0.831894
0.814057
0.71203
0.56712
0.430117
0.340436
0.297774
0.278022
0.268039
0.261531
0.252809
0.237323
0.212552
0.178528
0.137843
0.0950386
0.0554832
0.0246693
0.00861015
0.00702286
0.0143997
0.0229828
0.0260578
0.0208229
0.00971336
-0.000284958
0
0.0248341
0.0693249
0.203251
1.27244
3.07504
5.58169
8.53985
11.4808
13.81
14.9837
14.7223
13.149
10.7555
8.19402
6.00097
4.4103
3.34824
2.58543
2.09609
1.80984
1.54226
1.29531
1.06955
0.868721
0.701286
0.569896
0.475856
0.424372
0.420635
0.464935
0.549942
0.661581
0.782698
0.897314
0.997771
1.08403
1.15405
1.20695
1.24332
1.26504
1.27519
1.27777
1.27734
1.27863
1.28557
1.30106
1.32679
1.3634
1.41006
1.46249
1.51456
1.5598
1.59271
1.60956
1.60875
1.59052
1.55638
1.50849
1.44996
1.38393
1.31316
1.24036
1.16849
1.10079
1.04051
0.990551
0.953133
0.929551
0.920055
0.923878
0.939334
0.964246
0.996215
1.03151
1.06539
1.09373
1.114
1.12616
1.13308
1.14023
1.15456
1.18286
1.22992
1.29619
1.38217
1.48424
1.59537
1.70386
1.79392
1.85141
1.86473
1.82677
1.73779
1.60789
1.45714
1.31213
1.19922
1.12941
1.10076
1.11107
1.15177
1.2106
1.27486
1.33421
1.38417
1.4238
1.45209
1.46901
1.47511
1.47127
1.45877
1.43937
1.41537
1.38943
1.36421
1.34199
1.32394
1.3104
1.30107
1.29496
1.29067
1.28697
1.28318
1.27938
1.27641
1.27565
1.27865
1.28684
1.30116
1.32199
1.3492
1.38224
1.42011
1.46195
1.50539
1.54592
1.57824
1.59756
1.60121
1.58992
1.56819
1.54326
1.5231
1.51391
1.51779
1.53384
1.5536
1.5651
1.55617
1.51758
1.44539
1.34161
1.21342
1.07106
0.925318
0.783656
0.649395
0.52416
0.409263
0.305537
0.213807
0.135525
0.0718767
0.024647
-0.000307655
-0.00516529
0
0.00187416
-0.00860939
-0.0362
-0.0795235
-0.133309
-0.191944
-0.251966
0.762066
2.53973
5.08174
8.20396
11.4914
14.3511
16.1735
16.5502
15.4424
13.2088
10.4706
7.87304
5.85861
4.55848
3.83419
3.42648
3.15582
2.89443
2.64241
2.40404
2.18322
1.98355
1.80904
1.66485
1.55692
1.48795
1.46186
1.48229
1.55017
1.6612
1.80473
1.96466
2.12261
2.26227
2.37881
2.47545
2.55263
2.61186
2.65561
2.68614
2.70546
2.71527
2.71674
2.71085
2.69887
2.68263
2.66451
2.64712
2.63277
2.62284
2.61748
2.61561
2.61489
2.612
2.60314
2.58477
2.55409
2.50951
2.45087
2.37948
2.29794
2.20975
2.11889
2.02927
1.94407
1.86572
1.79613
1.73648
1.68737
1.64879
1.62015
1.6006
1.58932
1.58563
1.58899
1.59885
1.61477
1.63562
1.65886
1.68039
1.69541
1.69942
1.68949
1.66526
1.62953
1.5882
1.54935
1.5218
1.52235
1.57813
1.67476
1.77234
1.82461
1.80016
1.69871
1.55428
1.42153
1.35045
1.36182
1.41126
1.47569
1.53761
1.58266
1.60264
1.59629
1.56787
1.52464
1.47424
1.42315
1.37469
1.3306
1.29193
1.2592
1.23239
1.21102
1.19424
1.18097
1.17005
1.16044
1.15143
1.14274
1.1345
1.1273
1.12195
1.11941
1.12056
1.12603
1.1361
1.15065
1.16917
1.19089
1.21492
1.24069
1.26842
1.29929
1.3355
1.38135
1.44996
1.56438
1.70728
1.83819
1.90942
1.89146
1.79239
1.65734
1.54536
1.49615
1.50411
1.5253
1.53119
1.50132
1.43158
1.33476
1.23324
1.14782
1.08758
1.041
1.00124
0.961559
0.916423
0.862879
0.800786
0.731925
0.658549
0.582198
0.503284
0.420311
0.329294
0.228508
0.118015
0
-0.110505
0.468089
1.8229
3.96697
6.68636
9.56453
12.0722
13.6999
14.1111
13.2609
11.4183
9.06056
6.68542
4.64318
3.07481
1.9599
1.22048
1.06941
0.929432
0.804704
0.699827
0.617131
0.55685
0.517411
0.495287
0.485469
0.483136
0.484558
0.48771
0.492484
0.500474
0.514302
0.536723
0.569712
0.613782
0.667728
0.728828
0.79339
0.857433
0.917434
0.970481
1.01407
1.04571
1.06251
1.06225
1.04308
1.00413
0.946166
0.872104
0.786982
0.697371
0.610241
0.531316
0.464009
0.410319
0.367621
0.327183
0.278204
0.210861
0.119203
0.00300837
-0.131973
-0.275516
-0.415646
-0.542222
-0.650244
-0.736701
-0.801486
-0.84622
-0.872885
-0.882831
-0.876543
-0.854191
-0.815266
-0.760309
-0.695843
-0.630594
-0.573332
-0.530472
-0.504455
-0.493479
-0.49256
-0.495404
-0.496433
-0.492857
-0.484157
-0.471024
-0.454914
-0.438049
-0.423147
-0.413187
-0.410889
-0.418438
-0.437244
-0.467806
-0.509743
-0.561985
-0.623072
-0.691479
-0.765633
-0.844257
-0.926408
-1.01109
-1.09705
-1.18271
-1.26614
-1.34521
-1.4179
-1.48258
-1.53816
-1.58441
-1.62199
-1.65215
-1.67628
-1.69557
-1.71072
-1.72188
-1.72875
-1.73095
-1.7282
-1.72088
-1.71006
-1.6974
-1.68493
-1.67471
-1.66841
-1.66707
-1.67079
-1.67869
-1.68901
-1.69898
-1.70533
-1.70491
-1.69528
-1.67511
-1.64437
-1.60413
-1.55613
-1.5022
-1.44381
-1.38181
-1.3164
-1.24739
-1.17476
-1.09891
-1.02142
-0.945843
-0.876984
-0.819924
-0.778963
-0.756796
-0.754113
-0.769704
-0.800934
-0.844344
-0.895975
-0.951762
-1.0084
-1.06314
-1.11339
-1.15669
-1.19076
-1.21363
-1.22367
-1.2198
-1.20079
-1.16366
-1.10512
-1.03243
-0.965697
-0.928977
-0.943851
-1.02286
-1.16599
-1.36167
-1.59128
-1.83399
-1.35411
0
2.21738
5.09144
8.2184
11.0902
13.2029
14.1645
13.7959
12.204
9.78036
7.09015
4.67464
2.86312
1.69282
0.980779
0.571601
0.434323
0.315556
0.221254
0.156917
0.124663
0.118093
0.127888
0.144503
0.160705
0.173218
0.183088
0.19478
0.214354
0.247178
0.294885
0.355968
0.427176
0.504601
0.583055
0.657332
0.723069
0.777318
0.818736
0.847421
0.864542
0.8719
0.871781
0.866182
0.856939
0.84562
0.833443
0.821191
0.809166
0.797193
0.784706
0.770852
0.754633
0.735036
0.711157
0.682281
0.647994
0.608149
0.562811
0.51226
0.456952
0.397491
0.334588
0.269208
0.202898
0.1383
0.0797863
0.0333385
0.00506477
0.000352859
0.0224094
0.0710257
0.142072
0.228054
0.319693
0.408111
0.48741
0.556657
0.616629
0.668294
0.713154
0.752562
0.787248
0.81716
0.84166
0.859923
0.871386
0.876084
0.874762
0.86876
0.859711
0.849179
0.838323
0.827671
0.817124
0.806019
0.793284
0.777631
0.757742
0.732419
0.700696
0.661909
0.615781
0.562506
0.502886
0.438364
0.370971
0.303252
0.238068
0.17819
0.125889
0.0826044
0.0488005
0.0238911
0.00646515
-0.00542717
-0.0139749
-0.0213653
-0.0296302
-0.0405517
-0.0555285
-0.0754817
-0.10075
-0.13102
-0.165338
-0.202232
-0.239921
-0.276577
-0.310614
-0.340829
-0.366341
-0.386713
-0.401834
-0.4118
-0.416713
-0.416608
-0.411277
-0.400223
-0.382746
-0.358183
-0.326242
-0.287356
-0.242789
-0.194923
-0.147197
-0.103445
-0.0673081
-0.0417115
-0.0285178
-0.0284161
-0.0410136
-0.0650638
-0.0987001
-0.139675
-0.185913
-0.235759
-0.288054
-0.342225
-0.398255
-0.456567
-0.517748
-0.582243
-0.650085
-0.720724
-0.793013
-0.865321
-0.93578
-1.00247
-1.06365
-1.11819
-1.16568
-1.20648
-1.2416
-1.27251
-1.30085
-1.32808
-1.35523
-1.38274
-1.41047
-1.07442
0
2.01915
4.87994
8.13892
11.1249
13.1625
13.8017
12.9558
10.9063
8.18845
5.41127
3.07325
1.43494
0.486418
0.0169164
-0.202263
-0.403997
-0.594702
-0.770359
-0.927957
-1.06556
-1.18217
-1.2775
-1.35176
-1.40543
-1.43771
-1.44711
-1.43503
-1.4082
-1.3763
-1.34946
-1.33629
-1.34214
-1.36812
-1.41131
-1.46593
-1.52523
-1.58349
-1.6379
-1.68848
-1.73674
-1.7845
-1.83366
-1.88579
-1.94189
-2.00236
-2.06722
-2.13654
-2.2106
-2.29022
-2.37662
-2.47109
-2.57438
-2.68619
-2.80473
-2.92663
-3.04704
-3.15987
-3.25911
-3.33985
-3.39906
-3.43609
-3.45229
-3.45096
-3.43622
-3.41213
-3.38199
-3.34808
-3.31177
-3.27388
-3.23524
-3.19723
-3.1614
-3.12888
-3.09965
-3.07223
-3.04396
-3.0119
-2.97391
-2.9296
-2.88089
-2.82988
-2.77891
-2.72982
-2.68347
-2.63972
-2.59766
-2.5562
-2.51449
-2.47226
-2.42968
-2.38718
-2.34517
-2.30393
-2.26357
-2.22419
-2.18605
-2.14963
-2.11554
-2.08424
-2.05573
-2.02921
-2.00294
-1.97437
-1.94045
-1.8984
-1.84621
-1.78093
-1.70036
-1.60881
-1.51645
-1.43487
-1.37405
-1.33965
-1.33165
-1.34451
-1.36858
-1.39242
-1.40589
-1.40351
-1.38378
-1.34772
-1.29767
-1.23648
-1.16726
-1.09343
-1.01842
-0.945392
-0.87701
-0.815378
-0.761995
-0.71774
-0.682836
-0.656905
-0.638965
-0.627392
-0.619899
-0.613543
-0.604812
-0.589812
-0.564594
-0.52572
-0.470553
-0.397795
-0.307937
-0.203207
-0.0867136
0.0348011
0.152302
0.256965
0.341539
0.401273
0.434217
0.440933
0.42383
0.386419
0.332984
0.268615
0.197935
0.125035
0.0537006
-0.0126482
-0.0713093
-0.120481
-0.159188
-0.188047
-0.21038
-0.230789
-0.254014
-0.283922
-0.322822
-0.371296
-0.428571
-0.493237
-0.564023
-0.639878
-0.721885
-0.813188
-0.916287
-1.03008
-1.15073
-1.27206
-0.995211
0
1.85052
4.49793
7.60812
10.6325
12.9566
14.0816
13.7786
12.1638
9.66094
6.85593
4.29982
2.34307
1.0748
0.376629
0.0826588
-0.0459892
-0.170495
-0.289932
-0.402761
-0.506321
-0.596921
-0.671107
-0.726006
-0.759899
-0.772873
-0.76711
-0.746659
-0.716699
-0.682462
-0.64813
-0.615858
-0.585769
-0.556465
-0.525429
-0.489708
-0.446811
-0.395383
-0.335109
-0.266765
-0.192174
-0.114875
-0.039727
0.0282141
0.0845749
0.126379
0.152492
0.163721
0.162536
0.152499
0.137529
0.121173
0.105952
0.0930042
0.0821951
0.0725201
0.0623238
0.0495405
0.0320541
0.00804539
-0.0236691
-0.0633358
-0.110535
-0.163468
-0.21754
-0.264882
-0.296556
-0.304352
-0.282638
-0.229885
-0.149393
-0.0489611
0.0604797
0.166986
0.261338
0.33776
0.392844
0.42635
0.440593
0.439388
0.426942
0.407084
0.383281
0.358349
0.334888
0.315725
0.303759
0.301469
0.31027
0.329856
0.35828
0.392039
0.426638
0.457326
0.479689
0.490294
0.486978
0.468988
0.436999
0.393015
0.340174
0.282435
0.224169
0.169675
0.122445
0.084803
0.0583242
0.0437042
0.0411165
0.050498
0.0692549
0.0907032
0.107441
0.112905
0.102872
0.0764013
0.0358541
-0.0139431
-0.0670067
-0.117456
-0.161477
-0.19697
-0.221143
-0.232025
-0.228405
-0.210142
-0.178486
-0.134453
-0.0826799
-0.0305168
0.0147951
0.0478914
0.0665947
0.0722958
0.069286
0.0633354
0.0600639
0.0630898
0.0733545
0.0908812
0.115422
0.146415
0.183199
0.225208
0.272026
0.32328
0.378531
0.437174
0.497486
0.555293
0.605264
0.642645
0.665091
0.673916
0.673952
0.671855
0.673368
0.681683
0.69271
0.697004
0.683692
0.645157
0.580319
0.49513
0.400332
0.307737
0.225838
0.155565
0.0958012
0.0460634
0.00544662
-0.0274612
-0.0543629
-0.0771776
-0.0980774
-0.119644
-0.145031
-0.177869
-0.22213
-0.288148
-0.406531
-0.60196
-0.853808
-1.13199
-1.41299
-1.08754
0
1.89804
4.46682
7.35807
10.0906
12.171
13.2153
13.0399
11.7012
9.48086
6.81953
4.20789
2.05662
0.588845
-0.202428
-0.486864
-0.615575
-0.742983
-0.868984
-0.992822
-1.11299
-1.22722
-1.33285
-1.42729
-1.50824
-1.57399
-1.62346
-1.65594
-1.67118
-1.6699
-1.65352
-1.62436
-1.5849
-1.53933
-1.49369
-1.45401
-1.42529
-1.41061
-1.41075
-1.42439
-1.44869
-1.48006
-1.51451
-1.54858
-1.57941
-1.60412
-1.61992
-1.62403
-1.61251
-1.57752
-1.51046
-1.42357
-1.34382
-1.30128
-1.31847
-1.40154
-1.53765
-1.70016
-1.85906
-1.99113
-2.0965
-2.18361
-2.25377
-2.30681
-2.343
-2.36273
-2.36658
-2.35563
-2.33167
-2.29722
-2.25546
-2.20983
-2.16374
-2.11997
-2.08062
-2.04697
-2.01941
-1.99752
-1.98018
-1.9658
-1.95259
-1.93875
-1.92268
-1.90321
-1.87955
-1.85145
-1.81927
-1.78397
-1.74722
-1.7114
-1.67907
-1.65247
-1.633
-1.62098
-1.61557
-1.61513
-1.61767
-1.62143
-1.62526
-1.62873
-1.6319
-1.63499
-1.63788
-1.63978
-1.63919
-1.63412
-1.62269
-1.60383
-1.57699
-1.54417
-1.50965
-1.47849
-1.4553
-1.4432
-1.44337
-1.45521
-1.47692
-1.50606
-1.5394
-1.57404
-1.60695
-1.63414
-1.65135
-1.65443
-1.64028
-1.60771
-1.558
-1.49502
-1.42441
-1.35303
-1.28715
-1.23115
-1.18674
-1.15297
-1.12687
-1.10468
-1.08309
-1.06014
-1.03562
-1.01028
-0.98535
-0.961992
-0.940732
-0.92116
-0.90188
-0.880752
-0.855357
-0.823662
-0.784506
-0.737857
-0.68448
-0.627186
-0.570752
-0.520253
-0.48002
-0.45288
-0.439926
-0.440835
-0.454524
-0.479799
-0.515442
-0.559697
-0.611355
-0.668459
-0.728166
-0.786984
-0.841391
-0.888569
-0.926808
-0.956652
-0.980449
-1.00179
-1.02472
-1.05299
-1.08953
-1.13614
-1.19349
-1.26144
-1.33866
-1.42312
-1.51225
-1.60317
-1.13535
0
1.87048
4.37409
7.202
9.87305
11.8341
12.6197
12.0234
10.2056
7.6592
5.02599
2.84513
1.36835
0.534578
0.0974466
-0.137893
-0.356734
-0.564524
-0.757216
-0.931913
-1.08705
-1.22241
-1.33902
-1.4389
-1.52475
-1.59969
-1.66696
-1.7297
-1.79081
-1.85269
-1.91713
-1.98501
-2.05621
-2.12949
-2.20221
-2.27048
-2.32975
-2.3755
-2.4039
-2.41245
-2.40046
-2.36928
-2.32077
-2.25918
-2.19255
-2.12996
-2.08007
-2.05008
-2.04511
-2.0679
-2.11888
-2.19635
-2.29667
-2.41395
-2.54404
-2.67789
-2.80106
-2.89864
-2.95775
-2.96982
-2.93239
-2.85019
-2.73447
-2.60073
-2.46521
-2.34046
-2.23014
-2.13294
-2.0476
-1.97375
-1.91089
-1.85825
-1.81469
-1.77877
-1.74883
-1.72301
-1.69926
-1.67556
-1.65012
-1.62175
-1.58999
-1.5552
-1.51836
-1.48072
-1.4433
-1.40649
-1.3699
-1.33243
-1.29262
-1.24906
-1.20075
-1.14753
-1.0898
-1.02838
-0.96445
-0.899446
-0.835011
-0.772994
-0.715413
-0.664133
-0.620712
-0.586163
-0.560767
-0.544023
-0.534738
-0.53125
-0.531676
-0.534114
-0.53672
-0.537751
-0.535403
-0.527751
-0.512789
-0.48862
-0.453756
-0.407486
-0.3503
-0.283855
-0.210801
-0.134812
-0.0609442
0.00573006
0.0611135
0.102717
0.129934
0.1439
0.14705
0.142542
0.133755
0.124056
0.116283
0.113061
0.116807
0.129602
0.152996
0.187825
0.233757
0.290121
0.355694
0.428892
0.507809
0.590563
0.675183
0.759357
0.840172
0.914202
0.977871
1.02778
1.061
1.0755
1.07035
1.046
1.00428
0.948345
0.882382
0.811198
0.739529
0.671349
0.609375
0.555035
0.509052
0.471274
0.440871
0.416527
0.396612
0.379265
0.362308
0.343416
0.320213
0.290433
0.252104
0.203738
0.14425
0.0713121
-0.0154156
-0.113068
-0.217402
-0.323152
0
1.13338
3.17778
5.96422
9.02755
11.7464
13.5515
14.1078
13.4005
11.7063
9.4797
7.20011
5.2308
3.73467
2.67905
1.92186
1.54069
1.32687
1.14483
1.02155
0.990882
1.04004
1.12287
1.18958
1.20363
1.15252
1.04956
0.926731
0.821976
0.766109
0.758545
0.782853
0.829163
0.893647
0.974117
1.06817
1.17332
1.28707
1.40697
1.53069
1.65605
1.78096
1.90317
2.0196
2.1253
2.21417
2.28063
2.3197
2.32887
2.30969
2.26812
2.21319
2.1543
2.09834
2.04712
1.99848
1.94989
1.89885
1.84331
1.78224
1.71586
1.64575
1.57451
1.50535
1.44166
1.38668
1.34325
1.3135
1.29841
1.29776
1.31012
1.33333
1.36432
1.39843
1.43103
1.45838
1.47813
1.48952
1.49319
1.4906
1.4835
1.47355
1.46226
1.45088
1.44092
1.43433
1.43354
1.44118
1.45969
1.49131
1.5387
1.60342
1.68288
1.76672
1.83931
1.88498
1.89117
1.85134
1.76674
1.64673
1.50731
1.36794
1.24674
1.15101
1.0792
1.0307
1.00494
0.999138
1.00891
1.02897
1.05395
1.07902
1.10043
1.11541
1.12203
1.11872
1.10453
1.07893
1.042
0.99476
0.939255
0.878499
0.816004
0.755132
0.698385
0.646865
0.600624
0.558863
0.520523
0.484976
0.452573
0.4249
0.40463
0.39488
0.400115
0.42951
0.488952
0.566849
0.645246
0.705506
0.734383
0.728072
0.693048
0.644009
0.599983
0.579286
0.587801
0.623359
0.681197
0.757758
0.845124
0.932643
1.00959
1.06691
1.09833
1.10061
1.07316
1.01731
0.935659
0.833188
0.715351
0.587193
0.45363
0.319671
0.190248
0.0698679
-0.0374565
-0.12853
-0.201155
-0.254186
-0.287429
-0.301488
-0.2976
-0.277672
-0.245564
-0.209319
-0.179342
-0.165344
-0.174589
-0.21057
-0.272601
-0.3564
-0.45531
-0.561529
0
1.28103
3.34143
6.02537
8.91891
11.4244
12.9478
13.1246
11.9704
9.87325
7.42393
5.17515
3.45122
2.29483
1.55466
1.06916
0.684424
0.311363
-0.0357597
-0.335205
-0.573487
-0.737101
-0.815852
-0.808052
-0.725081
-0.591814
-0.441034
-0.303471
-0.198034
-0.117703
-0.0519953
0.00265446
0.0473473
0.0831263
0.110337
0.128985
0.139298
0.142229
0.139708
0.134548
0.130048
0.129335
0.134564
0.146828
0.166263
0.192083
0.222706
0.255838
0.288651
0.317772
0.33913
0.348611
0.342822
0.319384
0.277486
0.218266
0.144844
0.0619141
-0.0250542
-0.110771
-0.191343
-0.264794
-0.329824
-0.386046
-0.433626
-0.472749
-0.503156
-0.523949
-0.533901
-0.531602
-0.515798
-0.485927
-0.442595
-0.387863
-0.324729
-0.257838
-0.193358
-0.136844
-0.0919367
-0.0594667
-0.0372366
-0.0206156
-0.00385113
0.0182531
0.0489086
0.089764
0.136036
0.179166
0.210114
0.222466
0.21462
0.190327
0.15753
0.12603
0.104823
0.0977835
0.104177
0.121995
0.149517
0.183841
0.220923
0.255343
0.281215
0.293648
0.289544
0.268331
0.232306
0.18634
0.136932
0.0908285
0.0536854
0.0278555
0.0131212
0.00982914
0.0176182
0.0357008
0.0626232
0.0970497
0.137268
0.181199
0.226418
0.270354
0.310762
0.346147
0.376026
0.400966
0.42238
0.442154
0.462203
0.484091
0.508771
0.536456
0.566887
0.599463
0.633332
0.667525
0.701077
0.733167
0.76327
0.791295
0.817665
0.843275
0.869335
0.897084
0.927468
0.960834
0.996955
1.03482
1.07277
1.10897
1.14177
1.16986
1.19214
1.20738
1.21252
1.20438
1.17968
1.13572
1.07174
0.989919
0.89537
0.795012
0.695586
0.601997
0.515066
0.431841
0.347467
0.257892
0.162269
0.0641205
-0.029106
-0.10778
-0.154829
-0.119808
0.0447563
0.27309
0.478591
0.581163
0.533898
0.343821
0.0692221
-0.217398
-0.481518
0
1.22396
3.23449
5.92626
8.99242
11.921
14.0912
14.9743
14.3552
12.4452
9.804
7.10259
4.85512
3.2624
2.22826
1.51184
1.03771
0.734767
0.453222
0.199597
-0.0211071
-0.204654
-0.348461
-0.453957
-0.524398
-0.564477
-0.579965
-0.576487
-0.561113
-0.540746
-0.52137
-0.507457
-0.501575
-0.504342
-0.51472
-0.530591
-0.549448
-0.568998
-0.587667
-0.604613
-0.61948
-0.632129
-0.642413
-0.650037
-0.654615
-0.655919
-0.65408
-0.650223
-0.647635
-0.6515
-0.667793
-0.701903
-0.757218
-0.834129
-0.929736
-1.0383
-1.15226
-1.26358
-1.36634
-1.45648
-1.53044
-1.5862
-1.62341
-1.64234
-1.64505
-1.63596
-1.62094
-1.606
-1.59642
-1.59605
-1.60675
-1.6281
-1.65748
-1.69031
-1.72081
-1.74299
-1.75181
-1.74408
-1.71896
-1.67703
-1.62059
-1.55286
-1.47727
-1.39681
-1.3136
-1.22887
-1.14372
-1.06067
-0.984755
-0.923027
-0.883045
-0.870435
-0.88684
-0.929054
-0.989525
-1.05786
-1.12271
-1.17543
-1.21216
-1.23141
-1.23172
-1.21361
-1.17969
-1.1342
-1.08243
-1.02982
-0.98119
-0.93974
-0.90753
-0.885305
-0.872765
-0.86891
-0.872247
-0.881262
-0.89442
-0.910165
-0.926909
-0.943027
-0.956916
-0.967096
-0.972351
-0.971889
-0.965472
-0.953508
-0.937067
-0.917688
-0.89744
-0.878566
-0.863006
-0.852026
-0.845976
-0.844234
-0.845369
-0.84747
-0.84856
-0.847012
-0.841852
-0.832631
-0.819263
-0.80185
-0.780445
-0.754809
-0.724246
-0.687574
-0.643256
-0.589676
-0.525528
-0.449765
-0.361144
-0.259974
-0.151051
-0.0445479
0.0473815
0.113668
0.146412
0.142229
0.102666
0.0336986
-0.0556321
-0.155222
-0.256031
-0.352293
-0.441988
-0.524934
-0.600978
-0.669088
-0.727438
-0.773316
-0.800351
-0.791082
-0.713022
-0.565402
-0.397115
-0.269288
-0.232215
-0.307106
-0.478327
-0.697202
-0.895894
-1.01092
-1.04198
-1.03372
-1.00234
0
1.67211
4.04727
6.97172
10.0705
12.79
14.534
14.863
13.6772
11.2836
8.29867
5.41579
3.15264
1.69744
0.922323
0.544482
0.38102
0.224863
0.0813866
-0.0450995
-0.151682
-0.23668
-0.300089
-0.343394
-0.369184
-0.380516
-0.380898
-0.374515
-0.365162
-0.355787
-0.348114
-0.342456
-0.337777
-0.332018
-0.32262
-0.307214
-0.284346
-0.253479
-0.214821
-0.169365
-0.118793
-0.0649
-0.00925255
0.0469494
0.102756
0.156909
0.207166
0.250589
0.283749
0.303843
0.309926
0.303565
0.288481
0.269214
0.249362
0.230135
0.210178
0.186837
0.156917
0.117771
0.068246
0.00924969
-0.0564138
-0.123843
-0.186408
-0.237528
-0.271862
-0.28618
-0.279754
-0.254221
-0.213008
-0.160537
-0.101434
-0.0400152
0.0206286
0.0784868
0.132186
0.180714
0.223404
0.259836
0.289722
0.312748
0.32856
0.336762
0.336916
0.328677
0.312034
0.287569
0.256579
0.221156
0.184959
0.153128
0.130969
0.12286
0.131235
0.155903
0.19394
0.240217
0.288442
0.332415
0.367777
0.392273
0.40484
0.406054
0.397881
0.383357
0.366363
0.350877
0.34079
0.339656
0.351145
0.380451
0.432697
0.503835
0.576719
0.630665
0.647294
0.615967
0.536913
0.420998
0.286412
0.153722
0.0398013
-0.0512203
-0.119357
-0.162093
-0.178932
-0.171184
-0.14164
-0.094138
-0.0330656
0.0371174
0.112235
0.188505
0.263143
0.333884
0.39873
0.456056
0.504744
0.544347
0.575243
0.598723
0.616986
0.633009
0.650266
0.672298
0.702323
0.745224
0.806154
0.880436
0.953852
1.00938
1.03269
1.01657
0.962183
0.877111
0.771596
0.655369
0.537009
0.421613
0.312426
0.212681
0.12584
0.0548028
0.00140047
-0.0334229
-0.0499137
-0.0509244
-0.0415896
-0.0274362
-0.0132851
-0.00241547
0.00378723
0.00564508
0.00458488
0.00238142
0.00054388
0
0.567408
1.68871
3.47035
5.89894
8.73923
11.516
13.6156
14.4904
13.8803
11.9409
9.20064
6.36034
4.02974
2.52536
1.82013
1.64714
1.61855
1.58836
1.55576
1.51974
1.47962
1.43513
1.38659
1.33498
1.28213
1.23114
1.18625
1.15188
1.13191
1.12875
1.14273
1.17186
1.21221
1.25882
1.30677
1.35241
1.39412
1.43192
1.46712
1.50157
1.53669
1.57293
1.60916
1.64277
1.67066
1.6903
1.70058
1.70205
1.69647
1.68589
1.67167
1.65391
1.63178
1.60349
1.56727
1.52214
1.46838
1.4076
1.34248
1.27612
1.21139
1.15028
1.09406
1.04335
0.998592
0.9604
0.929563
0.907446
0.89587
0.89679
0.911861
0.941983
0.986906
1.04496
1.11286
1.18692
1.26096
1.32836
1.38331
1.42158
1.4411
1.44179
1.42509
1.39326
1.34885
1.2956
1.23691
1.176
1.11678
1.06402
1.02293
1.00027
1.01397
1.09697
1.24428
1.41192
1.54838
1.61529
1.60073
1.51907
1.39914
1.2703
1.15491
1.0593
0.979142
0.910787
0.852562
0.801282
0.752831
0.703292
0.650137
0.593002
0.533666
0.475192
0.420547
0.371163
0.326372
0.283712
0.239753
0.191376
0.136934
0.0768392
0.0133949
-0.0500078
-0.109967
-0.164549
-0.212906
-0.254836
-0.290712
-0.321041
-0.346121
-0.3659
-0.380064
-0.388241
-0.390253
-0.386136
-0.376123
-0.360537
-0.339676
-0.313848
-0.283283
-0.248304
-0.209434
-0.16744
-0.123161
-0.0775116
-0.0314365
0.0140924
0.0579706
0.0988401
0.135112
0.165133
0.187323
0.20044
0.20383
0.197574
0.182486
0.159946
0.131599
0.0990515
0.0635284
0.0256159
-0.0147942
-0.0581532
-0.104971
-0.155392
-0.208812
-0.263685
-0.317583
-0.367535
-0.410552
-0.444348
-0.467604
-0.480265
-0.48332
-0.478487
-0.469265
-0.459244
-0.451424
-0.447774
-0.449124
-0.502222
0
1.42555
3.81572
6.84049
9.89828
12.317
13.5692
13.4211
11.9771
9.62054
6.8836
4.2898
2.21568
0.812554
0.0126844
-0.362094
-0.540479
-0.714432
-0.882233
-1.04234
-1.19344
-1.33436
-1.46406
-1.58153
-1.6853
-1.77251
-1.83832
-1.87967
-1.8941
-1.88053
-1.8404
-1.77091
-1.68471
-1.59829
-1.52771
-1.48436
-1.47227
-1.48802
-1.52285
-1.56593
-1.60746
-1.6426
-1.67026
-1.69049
-1.70403
-1.71284
-1.71965
-1.72755
-1.73955
-1.7584
-1.78641
-1.82553
-1.87729
-1.94277
-2.02195
-2.11389
-2.21694
-2.32871
-2.44533
-2.56076
-2.66809
-2.76081
-2.8336
-2.88293
-2.9073
-2.90713
-2.88467
-2.84368
-2.7895
-2.72768
-2.66413
-2.60419
-2.55184
-2.50926
-2.47683
-2.45355
-2.43787
-2.4281
-2.42255
-2.41946
-2.41639
-2.4098
-2.3951
-2.36727
-2.32203
-2.25711
-2.17392
-2.07277
-1.96046
-1.85039
-1.75699
-1.69203
-1.66237
-1.66893
-1.70688
-1.76692
-1.83718
-1.90543
-1.96172
-2.00117
-2.02279
-2.02686
-2.01348
-1.98285
-1.93616
-1.87567
-1.80459
-1.72698
-1.6479
-1.57339
-1.50919
-1.4598
-1.4279
-1.41404
-1.41658
-1.43194
-1.45511
-1.48027
-1.50149
-1.51404
-1.51495
-1.50219
-1.47511
-1.43472
-1.38295
-1.32351
-1.26182
-1.20358
-1.15291
-1.11134
-1.07744
-1.04725
-1.01541
-0.976664
-0.92724
-0.865749
-0.794066
-0.714685
-0.629435
-0.539774
-0.446545
-0.350133
-0.25095
-0.149993
-0.0492365
0.048119
0.138141
0.216845
0.280911
0.328167
0.357734
0.369856
0.365589
0.346527
0.315064
0.273565
0.224845
0.172113
0.118743
0.067901
0.0220954
-0.0171474
-0.0490477
-0.0736396
-0.0914431
-0.103191
-0.109709
-0.112007
-0.111398
-0.110284
-0.113453
-0.127201
-0.15807
-0.211089
-0.290125
-0.399889
-0.530345
-0.669451
-0.808553
-0.945243
0
1.76561
4.31152
7.36137
10.425
12.9132
14.3135
14.3578
13.1102
10.9394
8.38274
5.96019
4.01684
2.65729
1.79178
1.3014
1.04913
0.811179
0.597215
0.417232
0.277053
174
351
527
700
872
1044
1215
1387
1559
1735
1915
2098
2284
2467
2646
2830
3013
3196
3374
3555
3736
3404
3560
3711
3551
3704
0
0
0
0
0
0
0
0
0
0
0
0
0
0
0
0
0
0
0
0
0
0
0
0
0
0
0
0
0
0
0
0
0
0
0
0
0
0
0
0
0
0
0
0
0
0
0
0
0
0
0
0
0
0
0
0
0
0
0
0
0
0
0
0
0
0
0
0
0
0
0
0
0
0
0
0
0
0
0
0
0
0
0
0
0
0
0
0
0
0
0
0
0
0
0
0
0
0
0
0
0
0
0
0
0
0
0
0
0
0
0
0
0
0
0
0
0
0
0
0
0
0
0
0
0
0
0
0
0
0
0
0
0
0
0
0
0
0
0
0
0
0
0
0
0
0
0
0
0
0
0
0
0
0
0
0
0
0
0
0
0
0
0
0
0
0
0
0
0
0
0
0
0
0
0
0
0
0
0
0
0
0
0
0
0
0
0
0
0
0
0
0
0
0
0
0
0
0
0
0
0
0
0
0
0
0
0
0
0
0
0
0
0
0
0
0
0
0
0
0
0
0
0
0
0
0
0
0
0
0
0
0
0
0
0
0
0
0
0
0
0
0
0
0
0
0
0
0
0
0
0
0
0
0
0
0
0
0
0
0
0
0
0
0
0
0
0
0
0
0
0
0
0
0
0
0
0
0
0
0
0
0
0
0
0
0
0
0
0
0
0
0
0
0
0
0
0
0
0
0
0
0
0
0
0
0
0
0
0
0
0
0
0
0
0
0
0
0
0
0
0
0
0
0
0
0
0
0
0
0
0
0
0
0
0
0
0
0
0
0
0
0
0
0
0
0
0
0
0
0
0
0
0
0
0
0
0
0
0
0
0
0
0
0
0
0
0
0
0
0
0
0
0
0
0
0
0
0
0
0
0
0
0
0
0
0
0
0
0
0
0
0
0
0
0
0
0
0
0
0
0
0
0
0
0
0
0
0
0
0
0
0
0
0
0
0
0
0
0
0
0
0
0
0
0
0
0
0
0
0
0
0
0
0
0
0
0
0
0
0
0
0
0
0
0
0
0
0
0
0
0
0
0
0
0
0
0
0
0
0
0
0
0
0
0
0
0
0
0
0
0
0
0
0
0
0
0
0
0
0
0
0
0
0
0
0
0
0
0
0
0
0
0
0
0
0
0
0
0
0
0
0
0
0
0
0
0
0
0
0
0
0
0
0
0
0
0
0
0
0
0
0
0
0
0
0
0
0
0
0
0
0
0
0
0
0
0
0
0
0
0
0
0
0
0
0
0
0
0
0
0
0
0
0
0
0
0
0
0
0
0
0
0
0
0
0
0
0
0
0
0
0
0
0
0
0
0
0
0
0
0
0
0
0
0
0
0
0
0
0
0
0
0
0
0
0
0
0
0
0
0
0
0
0
0
0
0
0
0
0
0
0
0
0
0
0
0
0
0
0
0
0
0
0
0
0
0
0
0
0
0
0
0
0
0
0
0
0
0
0
0
0
0
0
0
0
0
0
0
0
0
0
0
0
0
0
0
0
0
0
0
0
0
0
0
0
0
0
0
0
0
0
0
0
0
0
0
0
0
0
0
0
0
0
0
0
0
0
0
0
0
0
0
0
0
0
0
0
0
0
0
0
0
0
0
0
0
0
0
0
0
0
0
0
0
0
0
0
0
0
0
0
0
0
0
0
0
0
0
0
0
0
0
0
0
0
0
0
0
0
0
0
0
0
0
0
0
0
0
0
0
0
0
0
0
0
0
0
0
0
0
0
0
0
0
0
0
0
0
0
0
0
0
0
0
0
0
0
0
0
0
0
0
0
0
0
0
0
0
0
0
0
0
0
0
0
0
0
0
0
0
0
0
0
0
0
0
0
0
0
0
0
0
0
0
0
0
0
0
0
0
0
0
0
0
0
0
0
0
0
0
0
0
0
0
0
0
0
0
0
0
0
0
0
0
0
0
0
0
0
0
0
0
0
0
0
0
0
0
0
0
0
0
0
0
0
0
0
0
0
0
0
0
0
0
0
0
0
0
0
0
0
0
0
0
0
0
0
0
0
0
0
0
0
0
0
0
0
0
0
0
0
0
0
0
0
0
0
0
0
0
0
0
0
0
0
0
0
0
0
0
0
0
0
0
0
0
0
0
0
0
0
0
0
0
0
0
0
0
0
0
0
0
0
0
0
0
0
0
0
0
0
0
0
0
0
0
0
0
0
0
0
0
0
0
0
0
0
0
0
0
0
0
0
0
0
0
0
0
0
0
0
0
0
0
0
0
0
0
0
0
0
0
0
0
0
0
0
0
0
0
0
0
0
0
0
0
0
0
0
0
0
0
0
0
0
0
0
0
0
0
0
0
0
0
0
0
0
0
0
0
0
0
0
0
0
0
0
0
0
0
0
0
0
0
0
0
0
0
0
0
0
0
0
0
0
0
0
0
0
0
0
0
0
0
0
0
0
0
0
0
0
0
0
0
0
0
0
0
0
0
0
0
0
0
0
0
0
0
0
0
0
0
0
0
0
0
0
0
0
0
0
0
0
0
0
0
0
0
0
0
0
0
0
0
0
0
0
0
0
0
0
0
0
0
0
0
0
0
0
0
0
0
0
0
0
0
0
0
0
0
0
0
0
0
0
0
0
0
0
0
0
0
0
0
0
0
0
0
0
0
0
0
0
0
0
0
0
0
0
0
0
0
0
0
0
0
0
0
0
0
0
0
0
0
0
0
0
0
0
0
0
0
0
0
0
0
0
0
0
0
0
0
0
0
0
0
0
0
0
0
0
0
0
0
0
0
0
0
0
0
0
0
0
0
0
0
0
0
0
0
0
0
0
0
0
0
0
0
0
0
0
0
0
0
0
0
0
0
0
0
0
0
0
0
0
0
0
0
0
0
0
0
0
0
0
0
0
0
0
0
0
0
0
0
0
0
0
0
0
0
0
0
0
0
0
0
0
0
0
0
0
0
0
0
0
0
0
0
0
0
0
0
0
0
0
0
0
0
0
0
0
0
0
0
0
0
0
0
0
0
0
0
0
0
0
0
0
0
0
0
0
0
0
0
0
0
0
0
0
0
0
0
0
0
0
0
0
0
0
0
0
0
0
0
0
0
0
0
0
0
0
0
0
0
0
0
0
0
0
0
0
0
0
0
0
0
0
0
0
0
0
0
0
0
0
0
0
0
0
0
0
0
0
0
0
0
0
0
0
0
0
0
0
0
0
0
0
0
0
0
0
0
0
0
0
0
0
0
0
0
0
0
0
0
0
0
0
0
0
0
0
0
0
0
0
0
0
0
0
0
0
0
0
0
0
0
0
0
0
0
0
0
0
0
0
0
0
0
0
0
0
0
0
0
0
0
0
0
0
0
0
0
0
0
0
0
0
0
0
0
0
0
0
0
0
0
0
0
0
0
0
0
0
0
0
0
0
0
0
0
0
0
0
0
0
0
0
0
0
0
0
0
0
0
0
0
0
0
0
0
0
0
0
0
0
0
0
0
0
0
0
0
0
0
0
0
0
0
0
0
0
0
0
0
0
0
0
0
0
0
0
0
0
0
0
0
0
0
0
0
0
0
0
0
0
0
0
0
0
0
0
0
0
0
0
0
0
0
0
0
0
0
0
0
0
0
0
0
0
0
0
0
0
0
0
0
0
0
0
0
0
0
0
0
0
0
0
0
0
0
0
0
0
0
0
0
0
0
0
0
0
0
0
0
0
0
0
0
0
0
0
0
0
0
0
0
0
0
0
0
0
0
0
0
0
0
0
0
0
0
0
0
0
0
0
0
0
0
0
0
0
0
0
0
0
0
0
0
0
0
0
0
0
0
0
0
0
0
0
0
0
0
0
0
0
0
0
0
0
0
0
0
0
0
0
0
0
0
0
0
0
0
0
0
0
0
0
0
0
0
0
0
0
0
0
0
0
0
0
0
0
0
0
0
0
0
0
0
0
0
0
0
0
0
0
0
0
0
0
0
0
0
0
0
0
0
0
0
0
0
0
0
0
0
0
0
0
0
0
0
0
0
0
0
0
0
0
0
0
0
0
0
0
0
0
0
0
0
0
0
0
0
0
0
0
0
0
0
0
0
0
0
0
0
0
0
0
0
0
0
0
0
0
0
0
0
0
0
0
0
0
0
0
0
0
0
0
0
0
0
0
0
0
0
0
0
0
0
0
0
0
0
0
0
0
0
0
0
0
0
0
0
0
0
0
0
0
0
0
0
0
0
0
0
0
0
0
0
0
0
0
0
0
0
0
0
0
0
0
0
0
0
0
0
0
0
0
0
0
0
0
0
0
0
0
0
0
0
0
0
0
0
0
0
0
0
0
0
0
0
0
0
0
0
0
0
0
0
0
0
0
0
0
0
0
0
0
0
0
0
0
0
0
0
0
0
0
0
0
0
0
0
0
0
0
0
0
0
0
0
0
0
0
0
0
0
0
0
0
0
0
0
0
0
0
0
0
0
0
0
0
0
0
0
0
0
0
0
0
0
0
0
0
0
0
0
0
0
0
0
0
0
0
0
0
0
0
0
0
0
0
0
0
0
0
0
0
0
0
0
0
0
0
0
0
0
0
0
0
0
0
0
0
0
0
0
0
0
0
0
0
0
0
0
0
0
0
0
0
0
0
0
0
0
0
0
0
0
0
0
0
0
0
0
0
0
0
0
0
0
0
0
0
0
0
0
0
0
0
0
0
0
0
0
0
0
0
0
0
0
0
0
0
0
0
0
0
0
0
0
0
0
0
0
0
0
0
0
0
0
0
0
0
0
0
0
0
0
0
0
0
0
0
0
0
0
0
0
0
0
0
0
0
0
0
0
0
0
0
0
0
0
0
0
0
0
0
0
0
0
0
0
0
0
0
0
0
0
0
0
0
0
0
0
0
0
0
0
0
0
0
0
0
0
0
0
0
0
0
0
0
0
0
0
0
0
0
0
0
0
0
0
0
0
0
0
0
0
0
0
0
0
0
0
0
0
0
0
0
0
0
0
0
0
0
0
0
0
0
0
0
0
0
0
0
0
0
0
0
0
0
0
0
0
0
0
0
0
0
0
0
0
0
0
0
0
0
0
0
0
0
0
0
0
0
0
0
0
0
0
0
0
0
0
0
0
0
0
0
0
0
0
0
0
0
0
0
0
0
0
0
0
0
0
0
0
0
0
0
0
0
0
0
0
0
0
0
0
0
0
0
0
0
0
0
0
0
0
0
0
0
0
0
0
0
0
0
0
0
0
0
0
0
0
0
0
0
0
0
0
0
0
0
0
0
0
0
0
0
0
0
0
0
0
0
0
0
0
0
0
0
0
0
0
0
0
0
0
0
0
0
0
0
0
0
0
0
0
0
0
0
0
0
0
0
0
0
0
0
0
0
0
0
0
0
0
0
0
0
0
0
0
0
0
0
0
0
0
0
0
0
0
0
0
0
0
0
0
0
0
0
0
0
0
0
0
0
0
0
0
0
0
0
0
0
0
0
0
0
0
0
0
0
0
0
0
0
0
0
0
0
0
0
0
0
0
0
0
0
0
0
0
0
0
0
0
0
0
0
0
0
0
0
0
0
0
0
0
0
0
0
0
0
0
0
0
0
0
0
0
0
0
0
0
0
0
0
0
0
0
0
0
0
0
0
0
0
0
0
0
0
0
0
0
0
0
0
0
0
0
0
0
0
0
0
0
0
0
0
0
0
0
0
0
0
0
0
0
0
0
0
0
0
0
0
0
0
0
0
0
0
0
0
0
0
0
0
0
0
0
0
0
0
0
0
0
0
0
0
0
0
0
0
0
0
0
0
0
0
0
0
0
0
0
0
0
0
0
0
0
0
0
0
0
0
0
0
0
0
0
0
0
0
0
0
0
0
0
0
0
0
0
0
0
0
0
0
0
0
0
0
0
0
0
0
0
0
0
0
0
0
0
0
0
0
0
0
0
0
0
0
0
0
0
0
0
0
0
0
0
0
0
0
0
0
0
0
0
0
0
0
0
0
0
0
0
0
0
0
0
0
0
0
0
0
0
0
0
0
0
0
0
0
0
0
0
0
0
0
0
0
0
0
0
0
0
0
0
0
0
0
0
0
0
0
0
0
0
0
0
0
0
0
0
0
0
0
0
0
0
0
0
0
0
0
0
0
0
0
0
0
0
0
0
0
0
0
0
0
0
0
0
0
0
0
0
0
0
0
0
0
0
0
0
0
0
0
0
0
0
0
0
0
0
0
0
0
0
0
0
0
0
0
0
0
0
0
0
0
0
0
0
0
0
0
0
0
0
0
0
0
0
0
0
0
0
0
0
0
0
0
0
0
0
0
0
0
0
0
0
0
0
0
0
0
0
0
0
0
0
0
0
0
0
0
0
0
0
0
0
0
0
0
0
0
0
0
0
0
0
0
0
0
0
0
0
0
0
0
0
0
0
0
0
0
0
0
0
0
0
0
0
0
0
0
0
0
0
0
0
0
0
0
0
0
0
0
0
0
0
0
0
0
0
0
0
0
0
0
0
0
0
0
0
0
0
0
0
0
0
0
0
0
0
0
0
0
0
0
0
0
0
0
0
0
0
0
0
0
0
0
0
0
0
0
0
0
0
0
0
0
0
0
0
0
0
0
0
0
0
0
0
0
0
0
0
0
0
0
0
0
0
0
0
0
0
0
0
0
0
0
0
0
0
0
0
0
0
0
0
0
0
0
0
0
0
0
0
0
0
0
0
0
0
0
0
0
0
0
0
0
0
0
0
0
0
0
0
0
0
0
0
0
0
0
0
0
0
0
0
0
0
0
0
0
0
0
0
0
0
0
0
0
0
0
0
0
0
0
0
0
0
0
0
0
0
0
0
0
0
0
0
0
0
0
0
0
0
0
0
0
0
0
0
0
0
0
0
0
0
0
0
0
0
0
0
0
0
0
0
0
0
0
0
0
0
0
0
0
0
0
0
0
0
0
0
0
0
0
0
0
0
0
0
0
0
0
0
0
0
0
0
0
0
0
0
0
0
0
0
0
0
0
0
0
0
0
0
0
0
0
0
0
0
0
0
0
0
0
0
0
0
0
0
0
0
0
0
0
0
0
0
0
0
0
0
0
0
0
0
0
0
0
0
0
0
0
0
0
0
0
0
0
0
0
0
0
0
0
0
0
0
0
0
0
0
0
0
0
0
0
0
0
0
0
0
0
0
0
0
0
0
0
0
0
0
0
0
0
0
0
0
0
0
0
0
0
0
0
0
0
0
0
0
0
0
0
0
0
0
0
0
0
0
0
0
0
0
0
0
0
0
0
0
0
0
0
0
0
0
0
0
0
0
0
0
0
0
0
0
0
0
0
0
0
0
0
0
0
0
0
0
0
0
0
0
0
0
0
0
0
0
0
0
0
0
0
0
0
0
0
0
0
0
0
0
0
0
0
0
0
0
0
0
0
0
0
0
0
0
0
0
0
0
0
0
0
0
0
0
0
0
0
0
0
0
0
0
0
0
0
0
0
0
0
0
0
0
0
0
0
0
0
0
0
0
0
0
0
0
0
0
0
0
0
0
0
0
0
0
0
0
0
0
0
0
0
0
0
0
0
0
0
0
0
0
0
0
0
0
0
0
0
0
0
0
0
0
0
0
0
0
0
0
0
0
0
0
0
0
0
0
0
0
0
0
0
0
0
0
0
0
0
0
0
0
0
0
0
0
0
0
0
0
0
0
0
0
0
0
0
0
0
0
0
0
0
0
0
0
0
0
0
0
0
0
0
0
0
0
0
0
0
0
0
0
0
0
0
0
0
0
0
0
0
0
0
0
0
0
0
0
0
0
0
0
0
0
0
0
0
0
0
0
0
0
0
0
0
0
0
0
0
0
0
0
0
0
0
0
0
0
0
0
0
0
0
0
0
0
0
0
0
0
0
0
0
0
0
0
0
0
0
0
0
0
0
0
0
0
0
0
0
0
0
0
0
0
0
0
0
0
0
0
0
0
0
0
0
0
0
0
0
0
0
0
0
0
0
0
0
0
0
0
0
0
0
0
0
0
0
0
0
0
0
0
0
0
0
0
0
0
0
0
0
0
0
0
0
0
0
0
0
0
0
0
0
0
0
0
0
0
0
0
0
0
0
0
0
0
0
0
0
0
0
0
0
0
0
0
0
0
0
0
0
0
0
0
0
0
0
0
0
0
0
0
0
0
0
0
0
0
0
0
0
0
0
0
0
0
0
0
0
0
0
0
0
0
0
0
0
0
0
0
0
0
0
0
0
0
0
0
0
0
0
0
0
0
0
0
0
0
0
0
0
0
0
0
0
0
0
0
0
0
0
0
0
0
0
0
0
0
0
0
0
0
0
0
0
0
0
0
0
0
0
0
0
0
0
0
0
0
0
0
0
0
0
0
0
0
0
0
0
0
0
0
0
0
0
0
0
0
0
0
0
0
0
0
0
0
0
0
0
0
0
0
0
0
0
0
0
0
0
0
0
0
