3.05795
2.82728
2.57096
2.29406
2.00296
1.7051
1.40828
1.11991
0.846345
0.592438
0.361357
0.154715
-0.0270824
-0.184137
-0.315723
-0.420862
-0.500395
-0.55542
-0.587708
-0.600112
-0.596711
-0.582604
-0.563354
-0.544218
-0.529372
-0.521231
-0.520606
-0.52667
-0.537225
-0.54909
-0.558644
-0.562135
-0.55638
-0.539274
-0.510259
-0.470575
-0.423149
-0.372099
-0.321948
-0.276735
-0.239087
-0.210175
-0.189563
-0.175468
-0.165234
-0.155814
-0.144413
-0.128665
-0.106707
-0.0772179
-0.039344
0.00747643
0.0637455
0.130139
0.207587
0.297195
0.39994
0.516202
0.645253
0.784862
0.931669
1.08014
1.22332
1.3544
1.46781
1.55975
1.62823
1.67208
1.69015
1.68265
1.64995
1.59312
1.51472
1.41936
1.31381
1.20639
1.10584
1.01846
0.949366
0.901108
0.873491
0.863905
0.868061
0.880974
0.897937
0.915274
0.930802
0.943621
0.953746
0.961558
0.967214
0.970248
0.969192
0.954614
0.835007
0.476716
-0.0801579
-0.710184
-0.876484
0
2.245
5.78333
10.0309
14.0546
16.8627
17.735
16.4811
13.5258
9.76722
6.23751
3.70555
2.41765
2.10938
2.25649
2.20583
2.14295
2.08077
2.02367
1.97603
1.9413
1.92137
1.91638
1.92499
1.94509
1.97463
2.01189
2.05636
2.10873
2.17057
2.2437
2.32964
2.42921
2.54226
2.66764
2.80355
2.94783
3.09851
3.25404
3.41354
3.57673
3.74371
3.91466
4.08958
4.26804
4.44903
4.63093
4.81157
4.98832
5.15823
5.31815
5.46446
5.59335
5.70192
5.78776
5.84887
5.88364
5.8906
5.86821
5.8148
5.72857
5.60795
5.45274
5.26325
5.04139
4.79093
4.51742
4.22816
3.93089
3.63288
3.34085
3.06062
2.79693
2.55339
2.33271
2.13776
1.97006
1.82994
1.71671
1.62989
1.56689
1.52363
1.49576
1.47944
1.47174
1.47082
1.47564
1.48548
1.49947
1.51621
1.53434
1.55258
1.57003
1.58633
1.6016
1.61613
1.62997
1.6425
1.65227
1.6572
1.65511
1.64444
1.62477
1.59716
1.56401
1.52867
1.49477
1.46554
1.44316
1.42881
1.42298
1.42593
1.43784
1.45889
1.48947
1.53029
1.58237
1.64697
1.72549
1.81921
1.92906
2.05529
2.19725
2.35325
2.52045
2.69551
2.87376
3.04661
3.20229
3.32986
3.42001
3.46611
3.46496
3.41681
3.32514
3.19616
3.0385
2.86385
2.68445
2.50997
2.34727
2.20074
2.07334
1.96804
1.88667
1.82641
1.78063
1.74226
1.70552
1.66727
1.62743
1.58831
1.55325
1.52477
1.50283
1.48474
1.46491
1.43567
1.35263
1.06299
0.604771
0.0831053
-0.419986
0
1.65729
4.68818
8.77203
13.1361
16.7508
18.6769
18.425
16.1579
12.6227
8.83479
5.67163
3.57897
2.51893
2.14525
2.06819
2.04068
2.0148
1.9913
1.97069
1.9532
1.93894
1.92817
1.92154
1.92028
1.92622
1.94162
1.96886
2.00998
2.06619
2.13767
2.22371
2.32295
2.43366
2.55412
2.68311
2.82014
2.96551
3.12018
3.28543
3.46246
3.65205
3.85431
4.06859
4.29347
4.52683
4.76595
5.00758
5.24804
5.4833
5.70919
5.92155
6.11614
6.28857
6.43459
6.55085
6.63558
6.68749
6.70546
6.68826
6.63432
6.54178
6.40872
6.23388
6.01805
5.7658
5.48372
5.17945
4.86192
4.54092
4.22606
3.92568
3.646
3.39082
3.16158
2.95794
2.77843
2.62123
2.4847
2.36783
2.26974
2.18971
2.12692
2.08027
2.04824
2.02894
2.02028
2.02011
2.02637
2.0371
2.05055
2.06474
2.07752
2.08691
2.09145
2.09061
2.08503
2.07656
2.06792
2.06226
2.06243
2.07008
2.08549
2.10818
2.13697
2.16916
2.19961
2.22194
2.23008
2.21969
2.18948
2.14212
2.0842
2.02536
1.97656
1.94745
1.94316
1.96768
2.02183
2.10358
2.20886
2.33266
2.46917
2.6136
2.76291
2.91528
3.06933
3.22305
3.37146
3.5049
3.61052
3.67488
3.68842
3.64928
3.56441
3.4473
3.3134
3.17548
3.04082
2.91128
2.78734
2.66994
2.56074
2.46171
2.37474
2.30133
2.24248
2.19857
2.16879
2.15132
2.14407
2.14515
2.15309
2.16688
2.18578
2.20909
2.23528
2.262
2.28087
2.13075
1.63912
0.93062
0.277077
0
0.759187
2.80199
6.13167
10.3478
14.6776
18.1476
19.8782
19.4111
16.9232
13.1924
9.2899
6.14187
4.1925
3.34393
3.17248
3.24091
3.28864
3.33242
3.36925
3.39731
3.4164
3.42825
3.43638
3.44554
3.46082
3.48657
3.5254
3.57677
3.63951
3.71179
3.79133
3.87593
3.96416
4.05564
4.15097
4.25167
4.35979
4.47759
4.60697
4.7491
4.9041
5.07098
5.24772
5.43169
5.62005
5.81013
5.99973
6.1872
6.37143
6.55173
6.72764
6.89879
7.06456
7.22348
7.37252
7.50708
7.62221
7.71154
7.76783
7.78384
7.75339
7.6721
7.53802
7.35185
7.11712
6.843
6.53999
6.21845
5.88794
5.55608
5.22993
4.91655
4.62263
4.35406
4.11538
3.90937
3.73673
3.59602
3.48387
3.39539
3.32481
3.26593
3.21293
3.16104
3.1071
3.04995
2.99048
2.93144
2.87696
2.83164
2.79951
2.78388
2.78763
2.80923
2.84237
2.87893
2.91073
2.9311
2.93599
2.92445
2.89861
2.8632
2.82489
2.7906
2.76605
2.75785
2.77673
2.82278
2.87838
2.91975
2.92532
2.88395
2.79967
2.69098
2.58513
2.50958
2.47537
2.47473
2.50751
2.5694
2.65339
2.75169
2.85735
2.96538
3.0735
3.18086
3.28723
3.3923
3.4945
3.5891
3.66741
3.7187
3.73192
3.69868
3.61598
3.48809
3.32654
3.14789
2.96986
2.80535
2.65709
2.52377
2.40566
2.30246
2.21328
2.13699
2.07245
2.01866
1.97449
1.93831
1.90823
1.88225
1.8584
1.83498
1.8107
1.78465
1.75565
1.71734
1.60217
1.2413
0.6548
0.0164639
-0.376805
0
1.5143
4.32587
8.21153
12.5329
16.3519
18.702
18.9434
17.0443
13.6242
9.70118
6.25816
3.86657
2.56811
2.03629
1.87119
1.83297
1.79945
1.77456
1.76129
1.76136
1.77492
1.80064
1.83598
1.87783
1.92329
1.97041
2.0186
2.0686
2.12201
2.18095
2.24756
2.32349
2.40974
2.50658
2.61387
2.73136
2.8591
2.99782
3.14897
3.31461
3.497
3.69815
3.91925
4.16033
4.41999
4.69551
4.98296
5.27752
5.57375
5.86579
6.14653
6.40589
6.63382
6.8232
6.9687
7.06733
7.11861
7.12412
7.08667
7.00928
6.89444
6.74488
6.56444
6.35671
6.12483
5.87181
5.60081
5.31534
5.01924
4.71694
4.41341
4.11411
3.82495
3.55192
3.30065
3.07618
2.88315
2.72318
2.59512
2.49601
2.42181
2.36812
2.33079
2.30619
2.2912
2.28317
2.27943
2.27728
2.27445
2.26952
2.26226
2.25386
2.24665
2.24364
2.24776
2.26092
2.28335
2.31447
2.35162
2.39062
2.42647
2.45412
2.46993
2.47225
2.46186
2.44183
2.41712
2.39361
2.37686
2.37101
2.37765
2.3952
2.42116
2.45367
2.49112
2.53255
2.57789
2.62766
2.68257
2.74299
2.80835
2.87718
2.94722
3.01515
3.07715
3.12935
3.16817
3.19059
3.19418
3.17713
3.13818
3.07676
2.99305
2.88875
2.76634
2.62942
2.48264
2.33141
2.18113
2.03635
1.90058
1.77614
1.66355
1.56187
1.4697
1.38605
1.31117
1.24681
1.19795
1.1829
1.23652
1.34204
1.45576
1.5214
1.49088
1.24797
0.732657
0.0709354
-0.630893
-0.78042
0
1.99722
5.20474
9.21104
13.2302
16.3046
17.623
16.8288
14.1769
10.4567
6.69233
3.75029
2.04029
1.44873
1.52092
1.64125
1.59535
1.54117
1.48189
1.42142
1.36416
1.3145
1.27552
1.24992
1.23969
1.24599
1.2694
1.31019
1.36847
1.44428
1.53695
1.64527
1.76784
1.90286
2.04807
2.20108
2.35982
2.52301
2.69048
2.86331
3.04363
3.23426
3.43811
3.65752
3.89362
4.14578
4.41131
4.68545
4.96166
5.23209
5.48753
5.71912
5.91983
6.08467
6.21071
6.29672
6.34251
6.34829
6.31415
6.24001
6.12665
5.97489
5.78659
5.56519
5.31562
5.04398
4.75756
4.46301
4.16589
3.87116
3.5832
3.30606
3.04352
2.7991
2.57578
2.37586
2.20098
2.05098
1.92376
1.81623
1.72499
1.64691
1.57966
1.52175
1.47247
1.43149
1.39843
1.37314
1.35555
1.34561
1.3433
1.34857
1.36125
1.38083
1.40637
1.43641
1.46909
1.50225
1.53354
1.56027
1.57947
1.58872
1.58622
1.57123
1.54454
1.50869
1.46782
1.42746
1.39392
1.37339
1.37093
1.38984
1.43138
1.49459
1.57656
1.67279
1.77786
1.88613
1.99249
2.09331
2.18585
2.26746
2.33581
2.38905
2.42568
2.44424
2.44329
2.42154
2.37798
2.31217
2.22441
2.11605
1.99008
1.85099
1.70386
1.55411
1.4073
1.26864
1.14241
1.03149
0.937099
0.858923
0.795407
0.744249
0.702902
0.668974
0.640449
0.615707
0.593377
0.572111
0.550343
0.526087
0.495579
0.441319
0.260331
-0.0691385
-0.509655
-0.99208
-0.994393
0
2.34388
5.97987
10.3431
14.4697
17.3166
18.1482
16.8162
13.8013
10.0043
6.39015
3.65092
2.0315
1.37253
1.30343
1.33216
1.33144
1.32009
1.29761
1.26556
1.22773
1.18992
1.1583
1.13838
1.13421
1.14822
1.18149
1.23426
1.30643
1.39673
1.50326
1.6246
1.75927
1.90507
2.05928
2.21899
2.38177
2.54628
2.71273
2.88304
3.06059
3.2496
3.45417
3.67721
3.91953
4.17926
4.45187
4.73077
5.00836
5.27724
5.5314
5.76691
5.98184
6.17449
6.34195
6.48136
6.59229
6.67171
6.71331
6.70965
6.65438
6.54377
6.37717
6.15721
5.88987
5.5903
5.27384
4.95185
4.63338
4.32682
4.03946
3.77679
3.54201
3.33595
3.15725
3.00305
2.86968
2.75352
2.65164
2.56219
2.48444
2.4186
2.36527
2.32498
2.29806
2.28432
2.28172
2.28535
2.28968
2.29002
2.28369
2.27062
2.25323
2.2354
2.22108
2.21285
2.21099
2.21353
2.21692
2.21728
2.21171
2.19925
2.18123
2.16095
2.14282
2.13101
2.12807
2.13481
2.15108
2.17601
2.20817
2.24615
2.28901
2.33654
2.38928
2.44826
2.5147
2.5898
2.67418
2.76833
2.87276
2.98884
3.11984
3.27032
3.44175
3.62299
3.78951
3.91461
3.97501
3.95489
3.84951
3.6687
3.43843
3.19775
2.98877
2.82699
2.69926
2.59155
2.49816
2.41417
2.3347
2.2561
2.17669
2.09709
2.01991
1.94891
1.88781
1.84035
1.80878
1.79174
1.78436
1.77996
1.77123
1.74963
1.65663
1.31166
0.788476
0.214585
-0.282451
0
1.41937
4.17695
8.07183
12.4685
16.4237
18.9672
19.4457
17.7859
14.5397
10.6698
7.16538
4.67608
3.33858
2.85991
2.77333
2.67489
2.58046
2.4916
2.41053
2.33883
2.27751
2.22737
2.18951
2.16537
2.15632
2.16366
2.18813
2.22952
2.28634
2.356
2.43533
2.52139
2.6122
2.70762
2.80939
2.92086
3.04629
3.18989
3.35486
3.54262
3.75212
3.98041
4.22325
4.47549
4.73177
4.98704
5.23694
5.47803
5.7078
5.9247
6.12803
6.31782
6.49457
6.65869
6.80958
6.94475
7.05921
7.14649
7.1953
7.19293
7.12982
7.00304
6.81706
6.58143
6.30726
6.00556
5.69047
5.37093
5.05224
4.73953
4.43811
4.15295
3.88815
3.64648
3.42923
3.23627
3.06651
2.91849
2.79102
2.68316
2.59428
2.52369
2.4706
2.43369
2.41092
2.39957
2.39653
2.39869
2.40345
2.40918
2.41534
2.4225
2.43205
2.44578
2.46535
2.4918
2.52537
2.56568
2.6115
2.66015
2.70682
2.74585
2.77209
2.78207
2.77485
2.75244
2.71948
2.68235
2.64789
2.62185
2.60706
2.60429
2.61366
2.63487
2.66707
2.70907
2.75957
2.81748
2.8822
2.95375
3.03284
3.12118
3.22451
3.35649
3.52334
3.69811
3.84018
3.9114
3.89277
3.79211
3.63835
3.46648
3.30228
3.15289
3.01206
2.87602
2.74386
2.61613
2.49441
2.38107
2.27887
2.19043
2.11804
2.06458
2.03245
2.01794
2.01259
2.00728
1.99456
1.97028
1.93385
1.88705
1.832
1.76926
1.69573
1.56611
1.26977
0.836727
0.385774
0
0.610796
2.42322
5.52325
9.60602
13.9628
17.6293
19.6804
19.575
17.3882
13.8016
9.83562
6.44748
4.19604
3.12829
2.9064
3.05684
2.97293
2.88293
2.78357
2.67175
2.55212
2.43727
2.34181
2.2779
2.25207
2.26433
2.30932
2.3788
2.46408
2.55727
2.65344
2.75089
2.84982
2.95178
3.05944
3.17613
3.30515
3.44906
3.60899
3.78438
3.97279
4.17105
4.37602
4.58509
4.79664
5.01005
5.22526
5.44214
5.65973
5.87582
6.0867
6.28718
6.47178
6.63535
6.77375
6.88406
6.96383
7.00988
7.02109
6.99598
6.93247
6.82822
6.6812
6.49046
6.25689
5.98371
5.67689
5.34664
5.00275
4.65443
4.31077
3.97991
3.66828
3.38024
3.11794
2.88173
2.67073
2.48353
2.31887
2.17602
2.05438
1.95352
1.87286
1.81146
1.76739
1.73822
1.72143
1.71484
1.71684
1.7265
1.74329
1.76707
1.79761
1.83267
1.86702
1.89424
1.90859
1.90684
1.88961
1.86163
1.8306
1.80535
1.79356
1.79803
1.81758
1.85034
1.89489
1.94935
2.01166
2.07988
2.15232
2.22759
2.3046
2.38269
2.46182
2.5427
2.62693
2.71683
2.81505
2.92395
3.04478
3.17711
3.32031
3.46803
3.60882
3.73053
3.82297
3.87992
3.89944
3.88286
3.83303
3.75282
3.64764
3.52378
3.38478
3.23417
3.07672
2.91824
2.76502
2.62283
2.49666
2.39009
2.30506
2.2419
2.19951
2.17566
2.16728
2.17071
2.18181
2.1961
2.20934
2.21801
2.21949
2.21054
2.16807
1.9317
1.47197
0.841952
0.172614
-0.2669
0
1.39909
4.12198
7.95453
12.2369
16.0226
18.3772
18.7044
16.9677
13.7123
9.86322
6.37699
3.89733
2.57962
2.15357
2.16476
2.12825
2.09425
2.06546
2.04441
2.03334
2.03381
2.04629
2.07002
2.10305
2.14262
2.18571
2.22981
2.27354
2.31691
2.36128
2.40917
2.46385
2.52885
2.60739
2.70185
2.81366
2.94346
3.09141
3.2574
3.44129
3.643
3.86239
4.09886
4.35091
4.6157
4.8889
5.16486
5.43716
5.69933
5.94569
6.17181
6.37376
6.54661
6.68549
6.78932
6.85722
6.88736
6.87735
6.82496
6.72874
6.58847
6.40527
6.18155
5.92482
5.64301
5.34189
5.02597
4.7
4.36904
4.03831
3.71307
3.39855
3.0998
2.82153
2.56795
2.34242
2.14717
1.98326
1.85168
1.75206
1.67933
1.62736
1.58989
1.56158
1.53859
1.51879
1.50142
1.48651
1.47423
1.46426
1.45609
1.44895
1.4419
1.43402
1.42443
1.41238
1.39726
1.37878
1.35689
1.33192
1.30462
1.27609
1.24758
1.22012
1.19429
1.16998
1.14634
1.12207
1.09589
1.06707
1.03573
1.00449
0.978356
0.963285
0.964529
0.98516
1.02528
1.08215
1.15108
1.22665
1.30369
1.37866
1.44932
1.5137
1.57012
1.61692
1.65231
1.67421
1.68049
1.66894
1.63753
1.58469
1.50979
1.41353
1.29831
1.16841
1.02984
0.889764
0.755338
0.633283
0.53025
0.452105
0.400122
0.369605
0.353535
0.344701
0.337655
0.329886
0.32189
0.316183
0.315656
0.321716
0.332967
0.3464
0.356062
0.300066
-0.0850929
-0.704206
-1.34244
-1.79492
-1.42545
0
2.57987
6.12344
10.1196
13.8059
16.3522
17.1256
15.937
13.1431
9.52677
5.99553
3.24366
1.54459
0.764035
0.544337
0.521254
0.498261
0.475387
0.45271
0.430312
0.408377
0.387336
0.368037
0.351995
0.341467
0.339004
0.347268
0.368618
0.404754
0.456551
0.524127
0.607096
0.704885
0.816672
0.941182
1.0781
1.22739
1.38914
1.56356
1.75107
1.95226
2.16781
2.39811
2.64299
2.90126
3.17051
3.44703
3.726
4.00189
4.26889
4.52142
4.75459
4.96356
5.14211
5.28351
5.38645
5.45075
5.47625
5.46263
5.40939
5.31571
5.18041
5.00214
4.78009
4.52122
4.23395
3.92499
3.60127
3.27109
2.94355
2.62753
2.33077
2.05914
1.81628
1.60365
1.42086
1.26611
1.13676
1.02956
0.941058
0.867841
0.806837
0.755502
0.71195
0.675123
0.644852
0.621734
0.606736
0.60095
0.605196
0.619636
0.643502
0.675013
0.711516
0.749875
0.786873
0.819824
0.846979
0.867692
0.882284
0.89167
0.896817
0.898191
0.89603
0.890212
0.880757
0.868378
0.854855
0.843022
0.836368
0.838396
0.851685
0.876819
0.913831
0.962359
1.02125
1.08866
1.16238
1.24019
1.31982
1.39942
1.47804
1.55596
1.63472
1.71679
1.80494
1.90192
2.01168
2.13352
2.25669
2.36578
2.44558
2.48518
2.48023
2.43292
2.35027
2.24183
2.11767
1.98794
1.85967
1.73713
1.62316
1.51986
1.429
1.35194
1.28935
1.24125
1.2071
1.1859
1.17633
1.17684
1.18577
1.20136
1.2214
1.24291
1.26254
1.2769
1.27774
1.1997
0.818796
0.241957
-0.391344
-0.847252
-0.926248
0
2.1176
5.43075
9.55458
13.732
17.0285
18.6447
18.2145
15.9448
12.5256
8.85799
5.72715
3.56732
2.40655
1.97932
1.9329
1.93027
1.92851
1.92809
1.92961
1.93375
1.94114
1.95226
1.96755
1.9871
2.01078
2.03861
2.07099
2.10883
2.15357
2.2071
2.27166
2.34977
2.44361
2.55579
2.68925
2.84661
3.02961
3.23845
3.47138
3.72456
3.99217
4.26795
4.54577
4.82049
5.08854
5.34809
5.59884
5.84144
6.07685
6.30582
6.52853
6.74427
6.95142
7.14756
7.3295
7.49289
7.63165
7.73841
7.8072
7.82979
7.79672
7.69958
7.53394
7.30182
7.01265
6.68209
6.32943
5.97379
5.62515
5.28887
4.97009
4.67281
4.40009
4.15426
3.93702
3.74935
3.59142
3.4624
3.36045
3.2828
3.22568
3.1843
3.15393
3.1305
3.11099
3.09365
3.07795
3.06427
3.05357
3.04697
3.04527
3.04897
3.05806
3.0719
3.08939
3.1084
3.12565
3.13745
3.1405
3.13273
3.11394
3.0861
3.05307
3.01985
2.99147
2.97129
2.96034
2.95902
2.96634
2.97926
2.99376
3.00606
3.01352
3.01514
3.01167
3.00529
2.99904
2.99627
2.99989
3.01197
3.03447
3.06953
3.1191
3.18484
3.26784
3.36829
3.48614
3.62248
3.77614
3.93726
4.08811
4.21053
4.28912
4.31349
4.27896
4.18637
4.04149
3.85486
3.64197
3.42367
3.21563
3.02669
2.86106
2.72781
2.62926
2.55944
2.50906
2.46824
2.42924
2.38819
2.34534
2.30404
2.2689
2.24288
2.22612
2.21779
2.2161
2.21876
2.22062
2.02834
1.5218
0.804707
0.0868443
-0.322615
0
1.37979
3.98097
7.66166
11.9024
15.8486
18.5219
19.1645
17.576
14.2533
10.2193
6.59551
4.13898
2.99007
2.75386
2.82288
2.65252
2.48978
2.34173
2.21377
2.10941
2.0295
1.9725
1.93501
1.91251
1.90009
1.89341
1.8889
1.88445
1.87963
1.87569
1.87529
1.8821
1.90019
1.93341
1.98468
2.05543
2.14661
2.25846
2.39091
2.54368
2.71656
2.90992
3.12385
3.3576
3.60888
3.87349
4.14519
4.41604
4.6754
4.91239
5.11846
5.28837
5.42072
5.51755
5.58304
5.62182
5.63592
5.62652
5.59223
5.52994
5.4363
5.30904
5.14781
4.95413
4.73084
4.48202
4.21418
3.93101
3.63501
3.32916
3.01719
2.70385
2.39483
2.0965
1.81548
1.55886
1.3334
1.143
0.989352
0.871782
0.787382
0.731464
0.698239
0.681596
0.675834
0.676133
0.678925
0.682079
0.684498
0.685875
0.686423
0.686589
0.68681
0.687311
0.68797
0.688196
0.68703
0.683384
0.676314
0.665263
0.650175
0.63146
0.609857
0.586284
0.561785
0.537469
0.514611
0.494814
0.479834
0.471375
0.470697
0.478373
0.494203
0.516175
0.540503
0.562789
0.579286
0.587955
0.58915
0.585756
0.582745
0.586315
0.602836
0.637302
0.692144
0.768068
0.865277
0.983534
1.12171
1.27771
1.45066
1.64055
1.84058
2.03289
2.19671
2.31388
2.37278
2.37003
2.30979
2.20125
2.05569
1.88452
1.70037
1.5139
1.33257
1.16174
1.00861
0.87922
0.778409
0.709201
0.672407
0.666567
0.68822
0.73239
0.793248
0.866557
0.944016
1.01176
1.05365
1.05287
0.994485
0.868749
0.67405
0.397506
0.0641967
-0.295106
-0.654619
0
1.82506
4.93459
8.9835
13.1937
16.5433
18.114
17.466
14.8525
11.1373
7.42832
4.60892
3.01916
2.44402
2.37677
2.27733
2.16113
2.04897
1.94707
1.86021
1.79092
1.73914
1.70264
1.6779
1.66135
1.65027
1.64375
1.64276
1.64972
1.66809
1.70186
1.7548
1.82981
1.92839
2.05052
2.19462
2.35767
2.53561
2.72383
2.91769
3.11306
3.30675
3.49678
3.68243
3.86424
4.04359
4.22238
4.40244
4.58511
4.77087
4.95929
5.14908
5.3385
5.52564
5.70826
5.8825
6.04172
6.17833
6.28148
6.33409
6.31903
6.22623
6.05534
5.81253
5.5055
5.14207
4.74135
4.32604
3.90984
3.50134
3.10724
2.73365
2.38529
2.06525
1.77508
1.51515
1.2852
1.08388
0.909377
0.759751
0.632654
0.5253
0.434987
0.359356
0.296553
0.245212
0.204247
0.172516
0.148492
0.129951
0.114368
0.0989357
0.0809498
0.0583183
0.0299263
-0.00417442
-0.0427929
-0.0838478
-0.124783
-0.163083
-0.196802
-0.225004
-0.247921
-0.266718
-0.284008
-0.302998
-0.326553
-0.356457
-0.392924
-0.434469
-0.478092
-0.519657
-0.554263
-0.577194
-0.584182
-0.570458
-0.530849
-0.460461
-0.355175
-0.212282
-0.0311104
0.186515
0.436157
0.710961
1.00222
1.30018
1.59496
1.87732
2.13827
2.36929
2.56446
2.72044
2.83541
2.90924
2.94358
2.94062
2.90279
2.83239
2.73159
2.60237
2.44684
2.26757
2.06854
1.85531
1.63354
1.4087
1.18647
0.972533
0.77223
0.59019
0.430028
0.294149
0.184476
0.103336
0.0497581
0.0179382
0
-0.00344315
-0.116921
-0.617392
-1.40432
-2.25449
-2.80986
-2.53371
-1.04773
1.76229
5.60922
9.80573
13.4145
15.5188
15.542
13.4912
9.99492
6.07634
2.74401
0.6007
-0.32179
-0.434574
-0.300367
-0.369608
-0.436517
-0.497121
-0.547908
-0.586021
-0.609323
-0.616372
-0.606317
-0.578825
-0.534109
-0.473836
-0.400028
-0.31503
-0.221805
-0.12353
-0.0229767
0.078154
0.179744
0.28343
0.392403
0.510814
0.64296
0.792439
0.961229
1.14961
1.35643
1.57919
1.81456
2.05879
2.30822
2.55954
2.80989
3.05688
3.29848
3.53287
3.75794
3.97069
4.16708
4.34237
4.49122
4.60804
4.68814
4.7267
4.71933
4.66262
4.55484
4.39637
4.1898
3.93979
3.6532
3.34069
3.01247
2.67534
2.33412
1.99346
1.6579
1.33183
1.01956
0.725312
0.45329
0.208706
-0.00234299
-0.17595
-0.310143
-0.404881
-0.462403
-0.487257
-0.485932
-0.466131
-0.435825
-0.402275
-0.371141
-0.346133
-0.329012
-0.319762
-0.31695
-0.318148
-0.320314
-0.320389
-0.315611
-0.303668
-0.282836
-0.25162
-0.210239
-0.162357
-0.113525
-0.069754
-0.0361828
-0.0159859
-0.00977592
-0.0156006
-0.029406
-0.0457962
-0.059132
-0.0650757
-0.0605179
-0.0430405
-0.0115677
0.033659
0.0913776
0.159821
0.237299
0.32267
0.415327
0.51535
0.622865
0.73881
0.861887
0.985611
1.10022
1.19532
1.2624
1.29654
1.29681
1.26537
1.20601
1.1229
1.02174
0.908406
0.787703
0.663678
0.540118
0.420703
0.308818
0.207317
0.118205
0.0426647
-0.0187969
-0.0661087
-0.0994385
-0.119091
-0.125063
-0.11765
-0.0982853
-0.0697304
-0.0356442
0
0.0518444
0.097385
0.106368
-0.12689
-0.631164
-1.31946
-1.96935
-2.15358
-1.40823
0.597657
3.89299
8.08837
12.392
15.7915
17.3808
16.7207
14.0529
10.229
6.35813
3.34701
1.58096
0.896079
0.814901
0.818565
0.763626
0.71106
0.665116
0.629473
0.605928
0.593758
0.590857
0.594672
0.603107
0.615126
0.630877
0.651411
0.678164
0.712125
0.753706
0.803613
0.862522
0.931321
1.01105
1.10331
1.21005
1.33332
1.47483
1.63575
1.81632
2.01556
2.23121
2.45978
2.69681
2.9374
3.17679
3.41106
3.6377
3.85595
4.06688
4.27276
4.47762
4.70151
5.01559
5.4211
5.82693
6.12605
6.24855
6.19217
6.0111
5.77391
5.52175
5.24934
4.93852
4.60263
4.25546
3.90496
3.55663
3.21548
2.88688
2.57581
2.28634
2.02128
1.78206
1.56893
1.38121
1.21776
1.07728
0.958479
0.860075
0.780656
0.718513
0.67153
0.637233
0.612958
0.596146
0.584664
0.577046
0.572584
0.571245
0.573431
0.579691
0.590294
0.604897
0.622539
0.641746
0.660791
0.678017
0.692132
0.702424
0.708844
0.711994
0.712997
0.713276
0.714403
0.717976
0.725536
0.738627
0.758776
0.787326
0.825393
0.873806
0.933001
1.00297
1.08331
1.17331
1.27218
1.37912
1.49325
1.61367
1.73957
1.86977
2.0012
2.1281
2.24327
2.33922
2.40947
2.44966
2.45816
2.43618
2.38738
2.31709
2.23147
2.13662
2.03695
1.93523
1.83305
1.73162
1.63239
1.53745
1.44967
1.37249
1.30982
1.26644
1.24619
1.24926
1.27222
1.30952
1.35405
1.39797
1.43471
1.45968
1.47035
1.4232
1.07572
0.484199
-0.204767
-0.740198
-0.881156
0
2.11665
5.46505
9.6424
13.8705
17.1908
18.7819
18.2716
15.8938
12.4001
8.75419
5.75951
3.80455
2.83126
2.50478
2.43697
2.32993
2.22574
2.12912
2.04473
1.97669
1.9284
1.90214
1.89888
1.91833
1.95915
2.01924
2.09611
2.18641
2.28686
2.39492
2.50873
2.62697
2.74898
2.87477
3.00502
3.14083
3.28346
3.43406
3.59349
3.76229
3.94075
4.12906
4.32737
4.53584
4.75447
4.9828
5.21965
5.46283
5.70909
5.95418
6.1932
6.42052
6.62937
6.81292
6.96639
7.08604
7.16877
7.21176
7.21222
7.16723
7.07408
6.93078
6.73694
6.49615
6.21436
5.89946
5.56156
5.21215
4.86172
4.51952
4.19344
3.88964
3.61238
3.36411
3.14568
2.95664
2.79548
2.65997
2.54739
2.45493
2.37994
2.32027
2.27436
2.24111
2.21979
2.20971
2.21015
2.21982
2.23651
2.25728
2.27879
2.29775
2.31153
2.31858
2.31871
2.31307
2.30387
2.29386
2.28558
2.28071
2.27977
2.28143
2.28287
2.28081
2.27267
2.25771
2.23754
2.2161
2.19878
2.19106
2.19673
2.21664
2.25034
2.29555
2.34913
2.40822
2.47123
2.53838
2.61157
2.69373
2.78792
2.89607
3.01806
3.15354
3.30247
3.46419
3.6344
3.80034
3.94451
4.0488
4.09777
4.0825
4.00339
3.87025
3.69964
3.51032
3.31939
3.13709
2.96593
2.80643
2.65988
2.52797
2.41181
2.31202
2.22886
2.16238
2.11266
2.07986
2.06438
2.06738
2.09178
2.14222
2.21852
2.31172
2.41033
2.50226
2.47113
1.97022
1.14111
0.236224
-0.357891
0
1.71858
4.8902
9.14562
13.675
17.4329
19.4752
19.3027
17.0566
13.4638
9.54236
6.20794
3.96961
2.84501
2.50097
2.49328
2.39031
2.28984
2.19495
2.10855
2.03317
1.97072
1.92236
1.88848
1.86892
1.86321
1.87106
1.89246
1.92788
1.97814
2.0441
2.12637
2.22507
2.33962
2.4689
2.61118
2.76461
2.92763
3.09902
3.27795
3.46398
3.65706
3.85731
4.06499
4.2804
4.50375
4.73514
4.97435
5.22073
5.47294
5.7288
5.98522
6.23766
6.47903
6.69979
6.88993
7.0423
7.15144
7.21348
7.22592
7.1872
7.09646
6.95354
6.75941
6.51677
6.23394
5.92205
5.59179
5.2521
4.91033
4.57333
4.24769
3.93944
3.65382
3.39508
3.16627
2.96911
2.80401
2.6698
2.56407
2.48357
2.42466
2.38369
2.35731
2.34253
2.33686
2.33804
2.34379
2.35193
2.36047
2.3678
2.37276
2.37469
2.37337
2.3688
2.36103
2.34998
2.33533
2.31653
2.29294
2.26404
2.22953
2.18973
2.14682
2.10558
2.07236
2.05384
2.05574
2.08151
2.13145
2.20239
2.28811
2.38044
2.47097
2.55345
2.6252
2.68591
2.73723
2.78274
2.82722
2.87566
2.93224
2.99932
3.07798
3.16864
3.27157
3.38701
3.5133
3.64243
3.76077
3.85369
3.90847
3.91727
3.87869
3.79725
3.68094
3.53813
3.3758
3.20152
3.02085
2.83774
2.65577
2.47898
2.31204
2.15986
2.02709
1.91743
1.83316
1.77515
1.74389
1.73882
1.75569
1.7871
1.82558
1.86465
1.8996
1.92773
1.9483
1.96197
1.94659
1.67786
1.05735
0.194476
-0.578963
-0.812609
0
2.1235
5.50982
9.72576
13.984
17.3168
18.8776
18.2721
15.7474
12.1125
8.40311
5.46246
3.65985
2.87519
2.70287
2.66988
2.52508
2.38071
2.24424
2.12352
2.02601
1.9577
1.92214
1.92006
1.94967
2.00742
2.08904
2.1902
2.30521
2.42941
2.55958
2.69345
2.82962
2.96762
3.10813
3.2529
3.40448
3.56567
3.73883
3.9253
4.12505
4.33661
4.55761
4.78531
5.01718
5.25145
5.48724
5.7246
5.96418
6.2069
6.45388
6.70721
6.97195
7.25879
7.57643
7.90146
8.18153
8.34815
8.35197
8.19187
7.91539
7.5903
7.26877
6.96945
6.67975
6.39327
6.10824
5.82422
5.54132
5.26005
4.98148
4.70748
4.44073
4.18477
3.9437
3.7217
3.52242
3.34854
3.20157
3.08122
2.98516
2.91004
2.85229
2.80882
2.77749
2.75706
2.74699
2.74684
2.7561
2.7733
2.79581
2.82035
2.84357
2.86265
2.87581
2.88255
2.88359
2.8805
2.87521
2.86945
2.86435
2.86027
2.8569
2.85356
2.84963
2.84485
2.83952
2.83445
2.83068
2.82917
2.83051
2.83477
2.84191
2.85184
2.86476
2.88134
2.90283
2.9309
2.96748
3.01441
3.07303
3.1441
3.22773
3.32326
3.42938
3.54432
3.66611
3.79233
3.91883
4.03792
4.1398
4.21396
4.25048
4.2419
4.18483
4.08079
3.93602
3.76064
3.56752
3.37138
3.18233
3.00611
2.84683
2.70864
2.59416
2.50393
2.43697
2.39128
2.36422
2.35298
2.35509
2.36831
2.39018
2.41826
2.45015
2.48349
2.51624
2.54687
2.56487
2.35222
1.78511
0.899717
-0.0351845
-0.530416
0
1.96016
5.36931
9.74322
14.1832
17.6391
19.2558
18.6745
16.1639
12.5184
8.7528
5.71883
3.82166
2.96996
2.75965
2.75588
2.72976
2.70363
2.67837
2.65512
2.63556
2.62197
2.61685
2.62273
2.64191
2.67597
2.72552
2.79009
2.86831
2.95822
3.05771
3.16456
3.27724
3.39499
3.51747
3.64472
3.77713
3.91537
4.06045
4.21368
4.37655
4.55048
4.73651
4.93485
5.14465
5.36385
5.58939
5.81754
6.04446
6.26669
6.48146
6.68608
6.87674
7.04904
7.19917
7.32366
7.41824
7.47826
7.49941
7.47815
7.41199
7.29951
7.14043
6.93557
6.68735
6.39993
6.08098
5.74084
5.38875
5.03191
4.67761
4.33343
4.00654
3.70302
3.42716
3.18114
2.96495
2.77679
2.61364
2.47204
2.34883
2.24197
2.15041
2.07352
2.01118
1.96328
1.92925
1.90783
1.89702
1.89433
1.89719
1.90334
1.91112
1.91975
1.92908
1.93935
1.95079
1.96326
1.97562
1.98498
1.98736
1.97872
1.95625
1.9195
1.87084
1.81509
1.75844
1.707
1.66457
1.63194
1.60932
1.59632
1.59179
1.59347
1.59905
1.60673
1.61568
1.62614
1.63933
1.65705
1.68121
1.71325
1.75341
1.80103
1.85485
1.91287
1.97251
2.03071
2.08418
2.12976
2.16452
2.18585
2.19147
2.17924
2.14754
2.09525
2.02205
1.92871
1.81738
1.69162
1.55619
1.41661
1.27847
1.14645
1.02433
0.914564
0.818364
0.735835
0.666231
0.608494
0.561699
0.525371
0.499596
0.484879
0.482682
0.495683
0.524992
0.565662
0.609933
0.64835
0.636407
0.272494
-0.356301
-1.06822
-1.6744
-1.4379
0
2.78819
6.66804
10.9711
14.7735
17.1618
17.5326
15.8212
12.5547
8.67233
5.16551
2.69984
1.41266
0.989064
0.940663
0.84353
0.74576
0.646979
0.547203
0.447388
0.351287
0.266552
0.203323
0.17229
0.18152
0.233371
0.322785
0.43784
0.562667
0.68202
0.788565
0.883713
0.969923
1.05273
1.13979
1.23926
1.35812
1.49988
1.66367
1.84755
2.04886
2.26398
2.48896
2.72016
2.95471
3.19068
3.42708
3.6635
3.89978
4.13556
4.36992
4.60093
4.82558
5.03903
5.2329
5.39504
5.51819
5.5957
5.6206
5.58763
5.49581
5.34913
5.15431
4.91718
4.64066
4.33545
4.01253
3.67868
3.33902
2.99959
2.6675
2.35026
2.05487
1.78702
1.55035
1.34609
1.17312
1.02846
0.907308
0.80398
0.713086
0.630976
0.556507
0.490684
0.436896
0.399735
0.382777
0.386861
0.409491
0.445543
0.488869
0.534041
0.577712
0.618849
0.65684
0.691238
0.721557
0.746953
0.766312
0.778653
0.783635
0.781973
0.77561
0.767573
0.761519
0.760959
0.768466
0.785578
0.813382
0.849216
0.886022
0.915611
0.93087
0.927736
0.906312
0.870845
0.828676
0.788614
0.759019
0.744401
0.746507
0.766724
0.806469
0.866696
0.947638
1.0488
1.16886
1.3055
1.4554
1.61516
1.77872
1.93657
2.0784
2.19475
2.27826
2.3243
2.33113
2.29949
2.23204
2.13289
2.00748
1.8632
1.70803
1.54952
1.39415
1.24716
1.1129
0.994714
0.894414
0.812479
0.748388
0.701031
0.669089
0.651282
0.646515
0.653868
0.672455
0.701202
0.737833
0.778909
0.820531
0.855606
0.761484
0.291916
-0.466671
-1.28543
-1.80504
-1.49443
0
2.80645
6.69504
11.0684
15.0487
17.6968
18.3195
16.7516
13.4665
9.42107
5.67902
2.99488
1.57401
1.12555
1.13735
1.09512
1.05442
1.01677
0.983695
0.95674
0.937589
0.928215
0.929998
0.94398
0.97072
1.01021
1.06193
1.12506
1.19875
1.28244
1.37599
1.479
1.59168
1.71436
1.84718
1.98994
2.14227
2.30403
2.47525
2.6561
2.84678
3.04729
3.25733
3.47613
3.70257
3.93523
4.17247
4.41256
4.65363
4.89371
5.13072
5.36243
5.58584
5.79579
5.98487
6.14678
6.27628
6.36779
6.41608
6.41683
6.36683
6.26385
6.10648
5.89437
5.63343
5.33352
5.0049
4.65811
4.30342
3.94974
3.6055
3.27837
2.97452
2.69808
2.45092
2.23282
2.04209
1.87634
1.7334
1.61237
1.51288
1.43519
1.3807
1.35422
1.35714
1.38036
1.41155
1.43832
1.45152
1.44737
1.42778
1.39874
1.36763
1.3404
1.31876
1.30143
1.28647
1.27168
1.25503
1.23527
1.21232
1.18736
1.16268
1.14119
1.12573
1.11835
1.12037
1.13254
1.15409
1.1804
1.20451
1.21942
1.21985
1.2036
1.17207
1.12989
1.08375
1.04083
1.00658
0.983345
0.972929
0.976776
0.995562
1.02946
1.07843
1.14242
1.2215
1.31581
1.4253
1.54946
1.69006
1.85113
2.02713
2.1979
2.34009
2.43389
2.46877
2.44548
2.37345
2.26558
2.13336
1.98623
1.83235
1.6766
1.52246
1.37339
1.23296
1.10466
0.991595
0.896007
0.819011
0.760525
0.719362
0.693475
0.68029
0.677002
0.680862
0.689378
0.700413
0.712153
0.72306
0.731744
0.73405
0.688779
0.38261
-0.189027
-0.888614
-1.4408
-1.28436
0
2.60693
6.34285
10.6049
14.4995
17.0866
17.6868
16.1459
12.9292
8.9723
5.32835
2.76643
1.52157
1.30793
1.56103
1.38892
1.21939
1.05798
0.911837
0.789282
0.697657
0.641083
0.619341
0.628333
0.661772
0.71315
0.775954
0.844947
0.917916
0.992689
1.06724
1.14045
1.21283
1.28703
1.3678
1.46132
1.57397
1.71108
1.87329
2.05901
2.26724
2.4963
2.74345
3.00512
3.27703
3.55428
3.8316
4.10376
4.36603
4.61473
4.84771
5.06429
5.26432
5.44725
5.61258
5.76008
5.88735
5.98716
6.04844
6.05985
6.01267
5.90233
5.72843
5.49419
5.20585
4.87638
4.52221
4.15663
3.78848
3.42418
3.06974
2.73063
2.41152
2.11606
1.84681
1.60532
1.39257
1.21023
1.05897
0.937935
0.845857
0.780987
0.740997
0.722976
0.723528
0.738948
0.765402
0.798911
0.835682
0.872059
0.903811
0.927142
0.939219
0.938881
0.927233
0.907807
0.886051
0.868165
0.85956
0.863437
0.878746
0.90344
0.933366
0.963789
0.990703
1.01184
1.0271
1.03835
1.04868
1.0614
1.07886
1.10225
1.13113
1.16271
1.19231
1.21475
1.22594
1.22432
1.21175
1.19382
1.17904
1.1773
1.19761
1.24573
1.32073
1.41729
1.53157
1.65846
1.79264
1.9291
2.06402
2.19362
2.31437
2.42328
2.51722
2.59252
2.64401
2.66621
2.65458
2.6052
2.51572
2.38667
2.22262
2.0329
1.83121
1.63405
1.45809
1.31695
1.2185
1.16349
1.14594
1.15511
1.17851
1.20494
1.22724
1.24252
1.25014
1.25121
1.24759
1.24115
1.23308
1.22304
1.19976
0.949205
0.40967
-0.319267
-0.973466
-1.02703
0
2.39124
6.05487
10.4532
14.6823
17.7065
18.7061
17.4079
14.2356
10.1625
6.31072
3.49808
1.97792
1.49175
1.55587
1.6198
1.65932
1.68455
1.69307
1.68541
1.66492
1.63708
1.6086
1.58631
1.57559
1.57932
1.59929
1.63689
1.69226
1.76431
1.85116
1.95049
2.05998
2.17788
2.30328
2.43637
2.5782
2.73027
2.89401
3.07023
3.25877
3.45855
3.66777
3.88418
4.10545
4.32944
4.55445
4.77923
5.00301
5.22542
5.44639
5.666
5.88419
108
271
435
599
759
918
1078
1238
1399
1560
1724
1890
2057
2221
2381
2541
2703
2868
3032
3198
3366
3535
3703
3679
2506
2632
2758
2882
3006
3130
3255
3381
3509
3559
3634
0
0
0
0
0
0
0
0
0
0
0
0
0
0
0
0
0
0
0
0
0
0
0
0
0
0
0
0
0
0
0
0
0
0
0
0
0
0
0
0
0
0
0
0
0
0
0
0
0
0
0
0
0
0
0
0
0
0
0
0
0
0
0
0
0
0
0
0
0
0
0
0
0
0
0
0
0
0
0
0
0
0
0
0
0
0
0
0
0
0
0
0
0
0
0
0
0
0
0
0
0
0
0
0
0
0
0
0
0
0
0
0
0
0
0
0
0
0
0
0
0
0
0
0
0
0
0
0
0
0
0
0
0
0
0
0
0
0
0
0
0
0
0
0
0
0
0
0
0
0
0
0
0
0
0
0
0
0
0
0
0
0
0
0
0
0
0
0
0
0
0
0
0
0
0
0
0
0
0
0
0
0
0
0
0
0
0
0
0
0
0
0
0
0
0
0
0
0
0
0
0
0
0
0
0
0
0
0
0
0
0
0
0
0
0
0
0
0
0
0
0
0
0
0
0
0
0
0
0
0
0
0
0
0
0
0
0
0
0
0
0
0
0
0
0
0
0
0
0
0
0
0
0
0
0
0
0
0
0
0
0
0
0
0
0
0
0
0
0
0
0
0
0
0
0
0
0
0
0
0
0
0
0
0
0
0
0
0
0
0
0
0
0
0
0
0
0
0
0
0
0
0
0
0
0
0
0
0
0
0
0
0
0
0
0
0
0
0
0
0
0
0
0
0
0
0
0
0
0
0
0
0
0
0
0
0
0
0
0
0
0
0
0
0
0
0
0
0
0
0
0
0
0
0
0
0
0
0
0
0
0
0
0
0
0
0
0
0
0
0
0
0
0
0
0
0
0
0
0
0
0
0
0
0
0
0
0
0
0
0
0
0
0
0
0
0
0
0
0
0
0
0
0
0
0
0
0
0
0
0
0
0
0
0
0
0
0
0
0
0
0
0
0
0
0
0
0
0
0
0
0
0
0
0
0
0
0
0
0
0
0
0
0
0
0
0
0
0
0
0
0
0
0
0
0
0
0
0
0
0
0
0
0
0
0
0
0
0
0
0
0
0
0
0
0
0
0
0
0
0
0
0
0
0
0
0
0
0
0
0
0
0
0
0
0
0
0
0
0
0
0
0
0
0
0
0
0
0
0
0
0
0
0
0
0
0
0
0
0
0
0
0
0
0
0
0
0
0
0
0
0
0
0
0
0
0
0
0
0
0
0
0
0
0
0
0
0
0
0
0
0
0
0
0
0
0
0
0
0
0
0
0
0
0
0
0
0
0
0
0
0
0
0
0
0
0
0
0
0
0
0
0
0
0
0
0
0
0
0
0
0
0
0
0
0
0
0
0
0
0
0
0
0
0
0
0
0
0
0
0
0
0
0
0
0
0
0
0
0
0
0
0
0
0
0
0
0
0
0
0
0
0
0
0
0
0
0
0
0
0
0
0
0
0
0
0
0
0
0
0
0
0
0
0
0
0
0
0
0
0
0
0
0
0
0
0
0
0
0
0
0
0
0
0
0
0
0
0
0
0
0
0
0
0
0
0
0
0
0
0
0
0
0
0
0
0
0
0
0
0
0
0
0
0
0
0
0
0
0
0
0
0
0
0
0
0
0
0
0
0
0
0
0
0
0
0
0
0
0
0
0
0
0
0
0
0
0
0
0
0
0
0
0
0
0
0
0
0
0
0
0
0
0
0
0
0
0
0
0
0
0
0
0
0
0
0
0
0
0
0
0
0
0
0
0
0
0
0
0
0
0
0
0
0
0
0
0
0
0
0
0
0
0
0
0
0
0
0
0
0
0
0
0
0
0
0
0
0
0
0
0
0
0
0
0
0
0
0
0
0
0
0
0
0
0
0
0
0
0
0
0
0
0
0
0
0
0
0
0
0
0
0
0
0
0
0
0
0
0
0
0
0
0
0
0
0
0
0
0
0
0
0
0
0
0
0
0
0
0
0
0
0
0
0
0
0
0
0
0
0
0
0
0
0
0
0
0
0
0
0
0
0
0
0
0
0
0
0
0
0
0
0
0
0
0
0
0
0
0
0
0
0
0
0
0
0
0
0
0
0
0
0
0
0
0
0
0
0
0
0
0
0
0
0
0
0
0
0
0
0
0
0
0
0
0
0
0
0
0
0
0
0
0
0
0
0
0
0
0
0
0
0
0
0
0
0
0
0
0
0
0
0
0
0
0
0
0
0
0
0
0
0
0
0
0
0
0
0
0
0
0
0
0
0
0
0
0
0
0
0
0
0
0
0
0
0
0
0
0
0
0
0
0
0
0
0
0
0
0
0
0
0
0
0
0
0
0
0
0
0
0
0
0
0
0
0
0
0
0
0
0
0
0
0
0
0
0
0
0
0
0
0
0
0
0
0
0
0
0
0
0
0
0
0
0
0
0
0
0
0
0
0
0
0
0
0
0
0
0
0
0
0
0
0
0
0
0
0
0
0
0
0
0
0
0
0
0
0
0
0
0
0
0
0
0
0
0
0
0
0
0
0
0
0
0
0
0
0
0
0
0
0
0
0
0
0
0
0
0
0
0
0
0
0
0
0
0
0
0
0
0
0
0
0
0
0
0
0
0
0
0
0
0
0
0
0
0
0
0
0
0
0
0
0
0
0
0
0
0
0
0
0
0
0
0
0
0
0
0
0
0
0
0
0
0
0
0
0
0
0
0
0
0
0
0
0
0
0
0
0
0
0
0
0
0
0
0
0
0
0
0
0
0
0
0
0
0
0
0
0
0
0
0
0
0
0
0
0
0
0
0
0
0
0
0
0
0
0
0
0
0
0
0
0
0
0
0
0
0
0
0
0
0
0
0
0
0
0
0
0
0
0
0
0
0
0
0
0
0
0
0
0
0
0
0
0
0
0
0
0
0
0
0
0
0
0
0
0
0
0
0
0
0
0
0
0
0
0
0
0
0
0
0
0
0
0
0
0
0
0
0
0
0
0
0
0
0
0
0
0
0
0
0
0
0
0
0
0
0
0
0
0
0
0
0
0
0
0
0
0
0
0
0
0
0
0
0
0
0
0
0
0
0
0
0
0
0
0
0
0
0
0
0
0
0
0
0
0
0
0
0
0
0
0
0
0
0
0
0
0
0
0
0
0
0
0
0
0
0
0
0
0
0
0
0
0
0
0
0
0
0
0
0
0
0
0
0
0
0
0
0
0
0
0
0
0
0
0
0
0
0
0
0
0
0
0
0
0
0
0
0
0
0
0
0
0
0
0
0
0
0
0
0
0
0
0
0
0
0
0
0
0
0
0
0
0
0
0
0
0
0
0
0
0
0
0
0
0
0
0
0
0
0
0
0
0
0
0
0
0
0
0
0
0
0
0
0
0
0
0
0
0
0
0
0
0
0
0
0
0
0
0
0
0
0
0
0
0
0
0
0
0
0
0
0
0
0
0
0
0
0
0
0
0
0
0
0
0
0
0
0
0
0
0
0
0
0
0
0
0
0
0
0
0
0
0
0
0
0
0
0
0
0
0
0
0
0
0
0
0
0
0
0
0
0
0
0
0
0
0
0
0
0
0
0
0
0
0
0
0
0
0
0
0
0
0
0
0
0
0
0
0
0
0
0
0
0
0
0
0
0
0
0
0
0
0
0
0
0
0
0
0
0
0
0
0
0
0
0
0
0
0
0
0
0
0
0
0
0
0
0
0
0
0
0
0
0
0
0
0
0
0
0
0
0
0
0
0
0
0
0
0
0
0
0
0
0
0
0
0
0
0
0
0
0
0
0
0
0
0
0
0
0
0
0
0
0
0
0
0
0
0
0
0
0
0
0
0
0
0
0
0
0
0
0
0
0
0
0
0
0
0
0
0
0
0
0
0
0
0
0
0
0
0
0
0
0
0
0
0
0
0
0
0
0
0
0
0
0
0
0
0
0
0
0
0
0
0
0
0
0
0
0
0
0
0
0
0
0
0
0
0
0
0
0
0
0
0
0
0
0
0
0
0
0
0
0
0
0
0
0
0
0
0
0
0
0
0
0
0
0
0
0
0
0
0
0
0
0
0
0
0
0
0
0
0
0
0
0
0
0
0
0
0
0
0
0
0
0
0
0
0
0
0
0
0
0
0
0
0
0
0
0
0
0
0
0
0
0
0
0
0
0
0
0
0
0
0
0
0
0
0
0
0
0
0
0
0
0
0
0
0
0
0
0
0
0
0
0
0
0
0
0
0
0
0
0
0
0
0
0
0
0
0
0
0
0
0
0
0
0
0
0
0
0
0
0
0
0
0
0
0
0
0
0
0
0
0
0
0
0
0
0
0
0
0
0
0
0
0
0
0
0
0
0
0
0
0
0
0
0
0
0
0
0
0
0
0
0
0
0
0
0
0
0
0
0
0
0
0
0
0
0
0
0
0
0
0
0
0
0
0
0
0
0
0
0
0
0
0
0
0
0
0
0
0
0
0
0
0
0
0
0
0
0
0
0
0
0
0
0
0
0
0
0
0
0
0
0
0
0
0
0
0
0
0
0
0
0
0
0
0
0
0
0
0
0
0
0
0
0
0
0
0
0
0
0
0
0
0
0
0
0
0
0
0
0
0
0
0
0
0
0
0
0
0
0
0
0
0
0
0
0
0
0
0
0
0
0
0
0
0
0
0
0
0
0
0
0
0
0
0
0
0
0
0
0
0
0
0
0
0
0
0
0
0
0
0
0
0
0
0
0
0
0
0
0
0
0
0
0
0
0
0
0
0
0
0
0
0
0
0
0
0
0
0
0
0
0
0
0
0
0
0
0
0
0
0
0
0
0
0
0
0
0
0
0
0
0
0
0
0
0
0
0
0
0
0
0
0
0
0
0
0
0
0
0
0
0
0
0
0
0
0
0
0
0
0
0
0
0
0
0
0
0
0
0
0
0
0
0
0
0
0
0
0
0
0
0
0
0
0
0
0
0
0
0
0
0
0
0
0
0
0
0
0
0
0
0
0
0
0
0
0
0
0
0
0
0
0
0
0
0
0
0
0
0
0
0
0
0
0
0
0
0
0
0
0
0
0
0
0
0
0
0
0
0
0
0
0
0
0
0
0
0
0
0
0
0
0
0
0
0
0
0
0
0
0
0
0
0
0
0
0
0
0
0
0
0
0
0
0
0
0
0
0
0
0
0
0
0
0
0
0
0
0
0
0
0
0
0
0
0
0
0
0
0
0
0
0
0
0
0
0
0
0
0
0
0
0
0
0
0
0
0
0
0
0
0
0
0
0
0
0
0
0
0
0
0
0
0
0
0
0
0
0
0
0
0
0
0
0
0
0
0
0
0
0
0
0
0
0
0
0
0
0
0
0
0
0
0
0
0
0
0
0
0
0
0
0
0
0
0
0
0
0
0
0
0
0
0
0
0
0
0
0
0
0
0
0
0
0
0
0
0
0
0
0
0
0
0
0
0
0
0
0
0
0
0
0
0
0
0
0
0
0
0
0
0
0
0
0
0
0
0
0
0
0
0
0
0
0
0
0
0
0
0
0
0
0
0
0
0
0
0
0
0
0
0
0
0
0
0
0
0
0
0
0
0
0
0
0
0
0
0
0
0
0
0
0
0
0
0
0
0
0
0
0
0
0
0
0
0
0
0
0
0
0
0
0
0
0
0
0
0
0
0
0
0
0
0
0
0
0
0
0
0
0
0
0
0
0
0
0
0
0
0
0
0
0
0
0
0
0
0
0
0
0
0
0
0
0
0
0
0
0
0
0
0
0
0
0
0
0
0
0
0
0
0
0
0
0
0
0
0
0
0
0
0
0
0
0
0
0
0
0
0
0
0
0
0
0
0
0
0
0
0
0
0
0
0
0
0
0
0
0
0
0
0
0
0
0
0
0
0
0
0
0
0
0
0
0
0
0
0
0
0
0
0
0
0
0
0
0
0
0
0
0
0
0
0
0
0
0
0
0
0
0
0
0
0
0
0
0
0
0
0
0
0
0
0
0
0
0
0
0
0
0
0
0
0
0
0
0
0
0
0
0
0
0
0
0
0
0
0
0
0
0
0
0
0
0
0
0
0
0
0
0
0
0
0
0
0
0
0
0
0
0
0
0
0
0
0
0
0
0
0
0
0
0
0
0
0
0
0
0
0
0
0
0
0
0
0
0
0
0
0
0
0
0
0
0
0
0
0
0
0
0
0
0
0
0
0
0
0
0
0
0
0
0
0
0
0
0
0
0
0
0
0
0
0
0
0
0
0
0
0
0
0
0
0
0
0
0
0
0
0
0
0
0
0
0
0
0
0
0
0
0
0
0
0
0
0
0
0
0
0
0
0
0
0
0
0
0
0
0
0
0
0
0
0
0
0
0
0
0
0
0
0
0
0
0
0
0
0
0
0
0
0
0
0
0
0
0
0
0
0
0
0
0
0
0
0
0
0
0
0
0
0
0
0
0
0
0
0
0
0
0
0
0
0
0
0
0
0
0
0
0
0
0
0
0
0
0
0
0
0
0
0
0
0
0
0
0
0
0
0
0
0
0
0
0
0
0
0
0
0
0
0
0
0
0
0
0
0
0
0
0
0
0
0
0
0
0
0
0
0
0
0
0
0
0
0
0
0
0
0
0
0
0
0
0
0
0
0
0
0
0
0
0
0
0
0
0
0
0
0
0
0
0
0
0
0
0
0
0
0
0
0
0
0
0
0
0
0
0
0
0
0
0
0
0
0
0
0
0
0
0
0
0
0
0
0
0
0
0
0
0
0
0
0
0
0
0
0
0
0
0
0
0
0
0
0
0
0
0
0
0
0
0
0
0
0
0
0
0
0
0
0
0
0
0
0
0
0
0
0
0
0
0
0
0
0
0
0
0
0
0
0
0
0
0
0
0
0
0
0
0
0
0
0
0
0
0
0
0
0
0
0
0
0
0
0
0
0
0
0
0
0
0
0
0
0
0
0
0
0
0
0
0
0
0
0
0
0
0
0
0
0
0
0
0
0
0
0
0
0
0
0
0
0
0
0
0
0
0
0
0
0
0
0
0
0
0
0
0
0
0
0
0
0
0
0
0
0
0
0
0
0
0
0
0
0
0
0
0
0
0
0
0
0
0
0
0
0
0
0
0
0
0
0
0
0
0
0
0
0
0
0
0
0
0
0
0
0
0
0
0
0
0
0
0
0
0
0
0
0
0
0
0
0
0
0
0
0
0
0
0
0
0
0
0
0
0
0
0
0
0
0
0
0
0
0
0
0
0
0
0
0
0
0
0
0
0
0
0
0
0
0
0
0
0
0
0
0
0
0
0
0
0
0
0
0
0
0
0
0
0
0
0
0
0
0
0
0
0
0
0
0
0
0
0
0
0
0
0
0
0
0
0
0
0
0
0
0
0
0
0
0
0
0
0
0
0
0
0
0
0
0
0
0
0
0
0
0
0
0
0
0
0
0
0
0
0
0
0
0
0
0
0
0
0
0
0
0
0
0
0
0
0
0
0
0
0
0
0
0
0
0
0
0
0
0
0
0
0
0
0
0
0
0
0
0
0
0
0
0
0
0
0
0
0
0
0
0
0
0
0
0
0
0
0
0
0
0
0
0
0
0
0
0
0
0
0
0
0
0
0
0
0
0
0
0
0
0
0
0
0
0
0
0
0
0
0
0
0
0
0
0
0
0
0
0
0
0
0
0
0
0
0
0
0
0
0
0
0
0
0
0
0
0
0
0
0
0
0
0
0
0
0
0
0
0
0
0
0
0
0
0
0
0
0
0
0
0
0
0
0
0
0
0
0
0
0
0
0
0
0
0
0
0
0
0
0
0
0
0
0
0
0
0
0
0
0
0
0
0
0
0
0
0
0
0
0
0
0
0
0
0
0
0
0
0
0
0
0
0
0
0
0
0
0
0
0
0
0
0
0
0
0
0
0
0
0
0
0
0
0
0
0
0
0
0
0
0
0
0
0
0
0
0
0
0
0
0
0
0
0
0
0
0
0
0
0
0
0
0
0
0
0
0
0
0
0
0
0
0
0
0
0
0
0
0
0
0
0
0
0
0
0
0
0
0
0
0
0
0
0
0
0
0
0
0
0
0
0
0
0
0
0
0
0
0
0
0
0
0
0
0
0
0
0
0
0
0
0
0
0
0
0
0
0
0
0
0
0
0
0
0
0
0
0
0
0
0
0
0
0
0
0
0
0
0
0
0
0
0
0
0
0
0
0
0
0
0
0
0
0
0
0
0
0
0
0
0
0
0
0
0
0
0
0
0
0
0
0
0
0
0
0
0
0
0
0
0
0
0
0
0
0
0
0
0
0
0
0
0
0
0
0
0
0
0
0
0
0
0
0
0
0
0
0
0
0
0
0
0
0
0
0
0
0
0
0
0
0
0
0
0
0
0
0
0
0
0
0
0
0
0
0
0
0
0
0
0
0
0
0
