0.470219
0.474666
0.488786
0.513682
0.549256
0.594631
0.648315
0.708359
0.77266
0.839249
0.906549
0.973561
1.04
1.10636
1.1739
1.24449
1.32038
1.4039
1.49709
1.60142
1.71763
1.84572
1.98521
2.13546
2.29594
2.46647
2.64722
2.83863
3.04112
3.25481
3.47918
3.71283
3.95339
4.19762
4.44009
4.67101
4.87652
5.0439
5.16215
5.22402
5.22752
5.17603
5.07682
4.93834
4.76724
4.56789
4.34477
4.10099
3.8382
3.55774
3.26202
2.95537
2.64398
2.33529
2.03721
1.75709
1.50086
1.2724
1.07334
0.903127
0.759597
0.639617
0.539817
0.45718
0.389436
0.334878
0.292284
0.260623
0.238813
0.225257
0.218043
0.215164
0.214827
0.21576
0.217396
0.219887
0.223941
0.230511
0.240399
0.254007
0.271202
0.29102
0.311659
0.331064
0.347526
0.3602
0.369366
0.376298
0.38274
0.390136
0.398892
0.407858
0.413976
0.413121
0.401375
0.376433
0.338688
0.291619
0.241352
0.195473
0.161441
0.143816
0.144993
0.165303
0.202741
0.253649
0.313605
0.378182
0.443532
0.506601
0.564297
0.612809
0.647927
0.665331
0.660819
0.631259
0.57558
0.495412
0.395131
0.281274
0.161524
0.0434657
-0.0668462
-0.164079
-0.244491
-0.30657
-0.350623
-0.378676
-0.394324
-0.389603
0
0.804726
2.33237
4.91233
8.63323
13.05
17.0997
19.3929
18.8305
15.2245
9.52088
3.4294
-1.35682
-3.89766
-4.2816
-3.32527
-2.12497
-1.25825
-0.916651
-0.937877
-0.939016
-0.93262
-0.91876
-0.895885
-0.863472
-0.821844
-0.771613
-0.713645
-0.648889
-0.578326
-0.503022
-0.424267
-0.34368
-0.263284
-0.185527
-0.112686
-0.0462753
0.0135426
0.0683489
0.121512
0.177823
0.242785
0.32175
0.418563
0.535007
0.671778
0.828399
1.00317
1.1935
1.39628
1.60813
1.82556
2.04501
2.26287
2.47553
2.67954
2.87184
3.04998
3.21216
3.3567
3.48151
3.58394
3.66124
3.71053
3.72804
3.70981
3.65257
3.55457
3.41615
3.23987
3.03031
2.79409
2.53933
2.27342
2.00229
1.73111
1.4646
1.20702
0.962239
0.73368
0.524331
0.336622
0.172285
0.0324093
-0.0826925
-0.17396
-0.243022
-0.291941
-0.322997
-0.338606
-0.341154
-0.332437
-0.315983
-0.297136
-0.281229
-0.272508
-0.273094
-0.28247
-0.297764
-0.314762
-0.32928
-0.338618
-0.342405
-0.341326
-0.336442
-0.329168
-0.320875
-0.312638
-0.305189
-0.299019
-0.294573
-0.292403
-0.293072
-0.296942
-0.303819
-0.312597
-0.321078
-0.326117
-0.324139
-0.311944
-0.287412
-0.248977
-0.198424
-0.14224
-0.0889853
-0.046674
-0.0205223
-0.0114056
-0.0154715
-0.0249886
-0.0301575
-0.0213699
0.00730381
0.0569374
0.128828
0.222382
0.332149
0.444926
0.542207
0.606372
0.624101
0.589477
0.506022
0.386596
0.250495
0.118272
0.0059782
-0.0836947
-0.156532
-0.217377
-0.269376
-0.315635
-0.35844
-0.398842
-0.436659
-0.470864
-0.443276
0
1.05563
3.08097
6.30848
10.5584
15.0365
18.432
19.4045
17.2619
12.4246
6.33397
0.802399
-2.82093
-4.17112
-3.80996
-2.72023
-1.72921
-1.1664
-0.999565
-0.978968
-0.961835
-0.943598
-0.922975
-0.898481
-0.868646
-0.832214
-0.78834
-0.736774
-0.678019
-0.613375
-0.54481
-0.47474
-0.405654
-0.33961
-0.27781
-0.220313
-0.165922
-0.112284
-0.0561316
0.00636616
0.0791452
0.165848
0.269614
0.39272
0.536351
0.700478
0.883885
1.08431
1.29869
1.5235
1.75501
1.98951
2.22344
2.45338
2.67604
2.88808
3.08616
3.26657
3.42601
3.56165
3.67129
3.75347
3.80744
3.83283
3.8294
3.79666
3.73375
3.64001
3.5147
3.35747
3.1691
2.9518
2.70932
2.44675
2.17025
1.88653
1.60253
1.32511
1.06079
0.815514
0.59437
0.401058
0.237711
0.105125
0.00178642
-0.0764218
-0.134876
-0.179354
-0.215174
-0.246518
-0.276052
-0.304877
-0.33274
-0.358422
-0.380253
-0.3965
-0.405597
-0.406472
-0.398727
-0.382705
-0.35944
-0.330494
-0.297719
-0.262988
-0.227963
-0.193902
-0.161597
-0.131331
-0.102934
-0.0759122
-0.0496469
-0.02365
0.00215797
0.0271499
0.0497353
0.0676492
0.0784636
0.0803175
0.0725678
0.0561168
0.0332917
0.00734034
-0.0182513
-0.0404773
-0.0574077
-0.0677287
-0.0702934
-0.0641176
-0.0483421
-0.0222789
0.0144241
0.0615648
0.118211
0.182657
0.252533
0.325013
0.397091
0.465799
0.528248
0.581362
0.621647
0.645764
0.650957
0.635168
0.597676
0.539698
0.464674
0.378073
0.286668
0.197449
0.11614
0.0467479
-0.00890942
-0.0511998
-0.0822323
-0.105172
-0.123525
-0.137205
0
0.671752
2.29087
5.1549
9.18623
13.7255
17.5659
19.3436
18.1608
14.1055
8.32002
2.51971
-1.7796
-3.87769
-4.02181
-3.05184
-1.89111
-1.07072
-0.718676
-0.688657
-0.656441
-0.620212
-0.580789
-0.537655
-0.490309
-0.43849
-0.382094
-0.321132
-0.255695
-0.186016
-0.112549
-0.0360358
0.042464
0.12162
0.199951
0.276022
0.348697
0.417426
0.482508
0.545306
0.608324
0.675119
0.750017
0.837642
0.942324
1.06749
1.21516
1.38567
1.57765
1.78832
2.01393
2.25022
2.4929
2.73781
2.98102
3.21872
3.44688
3.66113
3.85695
4.02949
4.17343
4.2834
4.35561
4.38748
4.37719
4.32383
4.22774
4.09067
3.916
3.7086
3.47458
3.22172
2.95781
2.6892
2.42109
2.15808
1.90412
1.66235
1.43511
1.22387
1.02926
0.851242
0.689224
0.542377
0.409881
0.291187
0.186267
0.0951123
0.0177743
-0.045912
-0.0965459
-0.135231
-0.163452
-0.182797
-0.194621
-0.199796
-0.198587
-0.190753
-0.175866
-0.153758
-0.124841
-0.0901651
-0.0516185
-0.0120538
0.0255057
0.0584775
0.0852534
0.105493
0.120103
0.130922
0.14025
0.150354
0.163
0.179335
0.199998
0.225129
0.254433
0.287273
0.322775
0.359962
0.39789
0.43584
0.47342
0.510548
0.547256
0.583342
0.617865
0.648531
0.671531
0.682231
0.676048
0.649745
0.60257
0.536831
0.457676
0.372127
0.287667
0.210513
0.144034
0.0902356
0.0497786
0.0221383
0.00608225
0
0.00463324
0.0196139
0.235454
0.737469
1.6896
3.42331
6.18806
9.85933
13.7357
16.6431
17.3897
15.3704
10.9658
5.45016
0.426965
-2.88937
-4.13106
-3.74925
-2.60021
-1.46043
-0.709115
-0.399985
-0.397028
-0.399873
-0.399136
-0.392156
-0.376325
-0.3502
-0.313857
-0.268364
-0.215203
-0.15584
-0.0914118
-0.0224844
0.0509547
0.129294
0.21295
0.302
0.395914
0.493492
0.593058
0.692804
0.791356
0.888305
0.984576
1.0825
1.1856
1.29802
1.42391
1.56674
1.72864
1.91039
2.1115
2.33034
2.56448
2.81098
3.06655
3.32759
3.5901
3.8492
4.09741
4.32472
4.52185
4.68013
4.7927
4.8554
4.86695
4.82846
4.74246
4.61189
4.43956
4.2311
3.99232
3.72873
3.44584
3.14948
2.84586
2.54152
2.24303
1.95637
1.68646
1.43687
1.20966
1.0055
0.823816
0.663106
0.521223
0.395762
0.284436
0.18559
0.0987185
0.0241695
-0.0372464
-0.0841947
-0.115378
-0.130083
-0.128546
-0.112019
-0.082549
-0.0425814
0.00545644
0.0592733
0.117032
0.177255
0.238581
0.299494
0.35827
0.413085
0.46224
0.504487
0.53935
0.5673
0.589787
0.609088
0.627976
0.649272
0.675325
0.707545
0.746207
0.790136
0.83639
0.880135
0.915786
0.938282
0.944141
0.932144
0.903418
0.860857
0.808047
0.748087
0.682792
0.612892
0.538349
0.458372
0.372819
0.283856
0.196193
0.116064
0.0497167
0.0019366
-0.0250679
-0.0321742
-0.0232078
0
0.31105
0.92607
2.08895
4.13662
7.26369
11.2184
15.1315
17.7037
17.7601
14.8992
9.82154
4.07197
-0.68639
-3.43164
-4.12306
-3.45821
-2.40952
-1.54621
-1.06136
-0.888898
-0.83048
-0.777382
-0.723648
-0.667608
-0.608092
-0.544632
-0.477644
-0.40834
-0.338478
-0.269941
-0.20426
-0.142226
-0.083701
-0.0276743
0.027466
0.0835258
0.142107
0.204339
0.27086
0.342044
0.418311
0.500537
0.590323
0.690033
0.802562
0.930903
1.07764
1.24451
1.43203
1.63956
1.8655
2.10741
2.36204
2.62539
2.89267
3.15807
3.41323
3.6478
3.85241
4.0191
4.14239
4.21976
4.25146
4.2396
4.18705
4.09644
3.97105
3.81511
3.63172
3.42316
3.19186
2.94125
2.67588
2.40081
2.12139
1.84321
1.57171
1.31186
1.06778
0.842516
0.637893
0.454496
0.291806
0.148463
0.0226188
-0.0876712
-0.184107
-0.267901
-0.339707
-0.399841
-0.448472
-0.485904
-0.512717
-0.529971
-0.538995
-0.541111
-0.537306
-0.527985
-0.512891
-0.491264
-0.462207
-0.425094
-0.379684
-0.326858
-0.270446
-0.21747
-0.175416
-0.15014
-0.144014
-0.155038
-0.177285
-0.20251
-0.222268
-0.229698
-0.222783
-0.201812
-0.165995
-0.115315
-0.0505064
0.0267602
0.113643
0.206309
0.299361
0.386896
0.463294
0.52392
0.565516
0.586222
0.585348
0.563091
0.520987
0.460836
0.385041
0.296848
0.200211
0.0994817
-0.00102358
-0.0975047
-0.186531
-0.265274
-0.331762
-0.385144
-0.425379
-0.45332
-0.470845
-0.457041
0
0.979596
2.75771
5.55048
9.2978
13.4516
16.9493
18.5293
17.3174
13.3626
7.74776
2.13855
-1.98861
-3.97057
-4.0827
-3.16069
-2.09145
-1.32613
-0.949971
-0.849438
-0.804772
-0.768666
-0.73653
-0.707102
-0.678969
-0.650082
-0.617851
-0.57941
-0.532012
-0.473497
-0.402764
-0.320075
-0.227121
-0.126791
-0.0227241
0.0811726
0.181535
0.276148
0.364252
0.446521
0.524739
0.601326
0.678901
0.760125
0.847626
0.944274
1.05344
1.17902
1.32512
1.49521
1.69117
1.91229
2.15466
2.41117
2.67321
2.93142
3.17662
3.40067
3.59693
3.76035
3.88761
3.97741
4.02974
4.04496
4.02366
3.96672
3.87553
3.75203
3.59853
3.41751
3.21186
2.98492
2.73985
2.47933
2.2068
1.92695
1.64579
1.37036
1.10809
0.865963
0.649689
0.463038
0.307578
0.182811
0.0866456
0.0160263
-0.0324691
-0.0622314
-0.0764381
-0.07791
-0.0694246
-0.0545999
-0.0381983
-0.0250051
-0.0189384
-0.0221658
-0.0344795
-0.0532027
-0.0737362
-0.0906425
-0.0990017
-0.0964006
-0.0822585
-0.0570661
-0.0252541
0.00666924
0.0325694
0.0484441
0.0534798
0.0500667
0.0428078
0.0369471
0.0368481
0.0443411
0.0592319
0.0813172
0.110439
0.146628
0.190183
0.241407
0.30009
0.365563
0.43519
0.503626
0.56437
0.611022
0.638531
0.64403
0.62703
0.589051
0.532941
0.462484
0.3823
0.29612
0.206945
0.117486
0.030192
-0.0529781
-0.130692
-0.202195
-0.267193
-0.325877
-0.378914
-0.426987
-0.47072
-0.437333
0
1.08308
3.14053
6.36879
10.5705
14.9612
18.26
19.1621
16.9989
12.1875
6.13735
0.618057
-3.04192
-4.4527
-4.1154
-2.95701
-1.81664
-1.09338
-0.85189
-0.88281
-0.904766
-0.919297
-0.923502
-0.914382
-0.890434
-0.851934
-0.800177
-0.737419
-0.666744
-0.59171
-0.515919
-0.442626
-0.374281
-0.312164
-0.256152
-0.204659
-0.154792
-0.102721
-0.0442342
0.0246226
0.10695
0.204508
0.317629
0.445439
0.586285
0.738255
0.899704
1.06961
1.2477
1.43429
1.62991
1.83492
2.04901
2.27092
2.49822
2.72736
2.95359
3.17031
3.3691
3.54122
3.6795
3.77825
3.83364
3.84389
3.80908
3.73074
3.61129
3.45372
3.26164
3.04069
2.79757
2.53914
2.27203
2.00271
1.73767
1.48294
1.24349
1.02283
0.822848
0.643918
0.485275
0.345423
0.222592
0.114999
0.0210929
-0.0603371
-0.130155
-0.188943
-0.237171
-0.275327
-0.304058
-0.324543
-0.338474
-0.347843
-0.354652
-0.360571
-0.366612
-0.372909
-0.378677
-0.382367
-0.382007
-0.375676
-0.361925
-0.340183
-0.31102
-0.276129
-0.23804
-0.199717
-0.163929
-0.132686
-0.106812
-0.0857812
-0.0678258
-0.0503213
-0.0303528
-0.00536799
0.026238
0.0647714
0.109284
0.157604
0.20657
0.252889
0.293775
0.327382
0.352901
0.370338
0.380056
0.382181
0.376445
0.361984
0.337537
0.301861
0.254224
0.194828
0.125063
0.047184
-0.0353283
-0.117689
-0.195021
-0.263153
-0.31923
-0.362072
-0.392228
-0.411756
-0.423801
-0.383353
0
1.01911
3.0334
6.24246
10.4417
14.8485
18.1921
19.1605
17.0479
12.228
6.10947
0.525156
-3.11029
-4.37754
-3.8513
-2.5994
-1.54487
-1.07753
-1.10084
-1.09002
-1.05132
-1.00363
-0.948378
-0.887016
-0.821493
-0.753762
-0.685422
-0.617446
-0.550276
-0.483915
-0.418018
-0.351954
-0.284861
-0.215702
-0.143359
-0.0667761
0.0148856
0.102128
0.195087
0.293617
0.397477
0.506558
0.621097
0.741799
0.869852
1.00681
1.15439
1.31414
1.48715
1.6737
1.87299
2.08299
2.30042
2.52107
2.7402
2.95315
3.15595
3.34579
3.52106
3.68062
3.82238
3.94254
4.03654
4.09921
4.12314
4.10053
4.0254
3.89524
3.71173
3.48022
3.20869
2.90857
2.59251
2.2701
1.94886
1.6361
1.33917
1.06523
0.820606
0.609781
0.434935
0.296813
0.193811
0.119907
0.0671047
0.0270502
-0.00769529
-0.0426923
-0.0811272
-0.123788
-0.169398
-0.215136
-0.25738
-0.292092
-0.315506
-0.324634
-0.317776
-0.294896
-0.257749
-0.2097
-0.155234
-0.0992528
-0.0462586
0.000396729
0.0385868
0.0676672
0.0884305
0.102878
0.11386
0.124644
0.138468
0.158154
0.185806
0.222516
0.268549
0.323519
0.386446
0.455814
0.529517
0.604629
0.676943
0.740722
0.789695
0.817894
0.820514
0.79493
0.741462
0.663624
0.567754
0.462083
0.355493
0.255839
0.168174
0.096746
0.0443383
0.0121589
0
0.0104491
0.0369413
0.0787762
0.248926
0.674115
1.50344
3.08671
5.70364
9.26729
13.105
16.05
16.9014
15.0452
10.8541
5.57752
0.759985
-2.46169
-3.76785
-3.58619
-2.67723
-1.732
-1.03637
-0.652311
-0.551828
-0.515715
-0.492491
-0.474953
-0.460327
-0.445639
-0.427966
-0.4048
-0.374409
-0.335955
-0.289347
-0.2351
-0.174242
-0.108206
-0.038675
0.0324526
0.103142
0.171451
0.235769
0.295061
0.349318
0.400185
0.451103
0.507363
0.575804
0.664113
0.779715
0.92845
1.11328
1.33321
1.58203
1.85105
2.1304
2.4094
2.67793
2.92751
3.15208
3.3482
3.51472
3.65168
3.75932
3.83787
3.88758
3.90745
3.8953
3.84825
3.76343
3.63873
3.47357
3.26935
3.02979
2.76168
2.47328
2.17316
1.86982
1.57136
1.28482
1.01578
0.768076
0.543876
0.343857
0.167487
0.0133141
-0.12075
-0.237176
-0.338534
-0.427155
-0.504625
-0.571599
-0.627803
-0.67229
-0.703669
-0.720575
-0.722278
-0.70914
-0.682788
-0.645959
-0.602072
-0.554656
-0.50678
-0.460484
-0.41666
-0.375215
-0.335146
-0.294818
-0.252354
-0.206099
-0.155053
-0.0991975
-0.0395685
0.0218049
0.0823439
0.139474
0.191172
0.236354
0.275016
0.308088
0.337076
0.36359
0.388881
0.413435
0.436773
0.457318
0.4727
0.48016
0.477133
0.461792
0.433435
0.392593
0.340861
0.280525
0.214109
0.144028
0.0721847
0
0.0173224
0.371057
1.38425
3.40376
6.57595
10.5779
14.498
17.0476
17.1057
14.3325
9.45942
4.01543
-0.389054
-2.79953
-3.24123
-2.48407
-1.56868
-0.971763
-0.787211
-0.776587
-0.736367
-0.687249
-0.632117
-0.572044
-0.50854
-0.443013
-0.376375
-0.30885
-0.240067
-0.169322
-0.0959136
-0.0194332
0.0600548
0.141993
0.225476
0.309529
0.393435
0.477038
0.560933
0.64651
0.735826
0.83137
0.935745
1.05139
1.18034
1.32414
1.4838
1.6598
1.8522
2.06057
2.28393
2.52067
2.7683
3.02333
3.28117
3.53615
3.78094
4.00634
4.204
4.36691
4.48992
4.5701
4.60662
4.60026
4.55264
4.46559
4.34081
4.18205
3.99322
3.77768
3.53902
3.28168
3.01117
2.73358
2.45514
2.18189
1.9193
1.67198
1.44347
1.23614
1.05117
0.888618
0.747523
0.626131
0.522152
0.433084
0.356574
0.290807
0.234842
0.188768
0.153524
0.130503
0.121301
0.127138
0.148333
0.183981
0.231914
0.288939
0.351242
0.414831
0.476062
0.531509
0.577838
0.61304
0.636206
0.647739
0.64944
0.644331
0.636161
0.628705
0.62506
0.627134
0.635257
0.649443
0.669318
0.694413
0.724286
0.758471
0.796339
0.83694
0.879087
0.921558
0.963136
1.00267
1.0391
1.07136
1.0982
1.11805
1.12904
1.12935
1.11731
1.09178
1.0524
0.999764
0.935341
0.861243
0.779856
0.693522
0.604311
0.513713
0.422926
0.333064
0.245185
0.160137
0.0784245
0
-0.0753665
0.180894
0.812437
2.07765
4.2804
7.56229
11.6419
15.6683
18.3893
18.6566
16.0356
11.1385
5.416
0.492402
-2.56187
-3.59108
-3.18993
-2.22683
-1.36542
-0.82409
-0.642247
-0.610781
-0.585914
-0.558776
-0.526369
-0.486369
-0.437697
-0.380644
-0.316534
-0.247355
-0.175387
-0.102788
-0.0312592
0.0381602
0.105172
0.170149
0.233958
0.297725
0.362596
0.429561
0.499485
0.573143
0.651452
0.735819
0.828346
0.931817
1.04941
1.18417
1.33844
1.51336
1.70814
1.92082
2.14861
2.38795
2.6348
2.88489
3.13377
3.37665
3.60787
3.82047
4.00622
4.1579
4.27134
4.34468
4.37885
4.37738
4.34545
4.28819
4.20874
4.10687
3.98033
3.82809
3.64759
3.43739
3.19957
2.94009
2.66808
2.39437
2.12912
1.87991
1.65266
1.45093
1.27621
1.12832
1.00605
0.907539
0.831188
0.775034
0.734816
0.704445
0.677773
0.649672
0.617115
0.579828
0.540262
0.502814
0.47256
0.45343
0.446858
0.452734
0.469852
0.49578
0.527466
0.561836
0.596277
0.628866
0.658263
0.683555
0.704091
0.719318
0.72872
0.731883
0.728646
0.719269
0.704583
0.686071
0.66586
0.646612
0.63138
0.623232
0.6249
0.638401
0.664738
0.703729
0.754005
0.813168
0.878051
0.944997
1.01006
1.06883
1.11726
1.15175
1.16941
1.16838
1.14797
1.10883
1.05287
0.983094
0.903326
0.817999
0.730888
0.644948
0.562085
0.482895
0.406653
0.3316
0.25539
0.175503
0.0904234
0
-0.100583
0.0437656
0.728579
2.28331
5.00227
8.89786
13.4394
17.4932
19.6473
18.8501
15.0229
9.23365
3.25321
-1.27269
-3.53668
-3.76101
-2.80412
-1.72349
-0.936441
-0.576096
-0.56774
-0.575454
-0.580279
-0.578618
-0.567024
-0.543293
-0.507091
-0.459342
-0.401813
-0.336912
-0.267389
-0.195957
-0.124966
-0.0561518
0.00950413
0.0717964
0.131238
0.188957
0.246588
0.306187
0.370156
0.441161
0.521994
0.615382
0.723734
0.8489
0.991982
1.15321
1.33205
1.52731
1.73721
1.95943
2.19114
2.42883
2.66835
2.9048
3.13239
3.34455
3.5348
3.69765
3.82907
3.92665
3.98963
4.01873
4.0157
3.9829
3.92276
3.83736
3.72832
3.59685
3.44389
3.27036
3.07734
2.86633
2.63978
2.40144
2.15627
1.91015
1.66933
1.43979
1.22671
1.03399
0.864065
0.717903
0.595184
0.494604
0.414291
0.352154
0.305794
0.272962
0.251704
0.240392
0.237625
0.242032
0.25231
0.266558
0.28207
0.295897
0.305327
0.308437
0.304533
0.294318
0.27974
0.263575
0.248852
0.2381
0.233065
0.234755
0.243438
0.258793
0.279973
0.305878
0.335519
0.368229
0.403719
0.441964
0.482944
0.526352
0.571369
0.616628
0.660362
0.700761
0.73638
0.766484
0.791204
0.811428
0.828435
0.843364
0.856617
0.867251
0.8726
0.868774
0.851398
0.816836
0.763343
0.691803
0.605793
0.510965
0.413951
0.321008
0.236669
0.164379
0.105637
0.0600636
0.0258234
0
-0.0150887
0.292622
1.00689
2.37024
4.63418
7.88442
11.8095
15.5592
17.9019
17.7281
14.6771
9.4781
3.70757
-0.949978
-3.49248
-3.95127
-3.12402
-2.01697
-1.20284
-0.80535
-0.680344
-0.622887
-0.56859
-0.513719
-0.456865
-0.396995
-0.333674
-0.267249
-0.198811
-0.12998
-0.0625298
0.00203419
0.0628463
0.119927
0.174244
0.22759
0.28232
0.341018
0.406182
0.47997
0.564072
0.659704
0.767676
0.888513
1.02254
1.16987
1.33039
1.50357
1.68842
1.88342
2.08656
2.29549
2.50768
2.72052
2.93138
3.13756
3.33622
3.52399
3.69664
3.84972
3.97963
4.08335
4.15888
4.2053
4.22267
4.21172
4.17337
4.10834
4.01719
3.90084
3.75991
3.59468
3.40564
3.194
2.96211
2.71336
2.45198
2.18306
1.9124
1.64622
1.39089
1.15257
0.937097
0.748852
0.590667
0.463525
0.366507
0.297019
0.251257
0.224842
0.213461
0.213311
0.221467
0.23579
0.254697
0.276831
0.300812
0.325067
0.347938
0.367906
0.383887
0.395461
0.402974
0.40746
0.410414
0.413482
0.418122
0.425356
0.43567
0.449031
0.465008
0.482994
0.502489
0.523356
0.545981
0.571276
0.600528
0.63509
0.675976
0.723491
0.777085
0.834904
0.893375
0.947476
0.991669
1.02068
1.03017
1.01722
0.98048
0.920109
0.837538
0.73527
0.616936
0.48404
0.341978
0.204606
0.0903722
0.017698
0
0.0424481
0.134434
0.255575
0.697961
1.3775
2.63246
4.83524
8.09073
11.9545
15.3986
17.147
16.2784
12.7657
7.59568
2.34614
-1.55087
-3.42145
-3.49694
-2.56791
-1.53715
-0.812544
-0.485587
-0.435967
-0.398741
-0.360281
-0.319445
-0.275274
-0.22723
-0.175306
-0.119923
-0.0617561
-0.00157819
0.0598672
0.121934
0.184116
0.24609
0.307797
0.369545
0.432103
0.49673
0.565097
0.639094
0.720558
0.810996
0.911351
1.02197
1.14269
1.27302
1.41242
1.56055
1.71737
1.88315
2.05826
2.24288
2.43672
2.63866
2.84664
3.05752
3.26722
3.47067
3.66188
3.83514
3.98512
4.10722
4.19773
4.25369
4.27206
4.25111
4.18977
4.08794
3.94681
3.76918
3.55945
3.3233
3.06704
2.79736
2.52047
2.24122
1.964
1.69308
1.43272
1.1872
0.960551
0.756221
0.576639
0.422968
0.295167
0.191986
0.111179
0.0499962
0.00553064
-0.0249993
-0.0440665
-0.0537289
-0.0555918
-0.0508261
-0.0402597
-0.0244457
-0.00381842
0.021169
0.0499417
0.0817617
0.115764
0.151085
0.187027
0.223243
0.259869
0.297547
0.33731
0.380336
0.42762
0.479637
0.536073
0.595791
0.656726
0.716054
0.770569
0.817033
0.852469
0.874307
0.88102
0.872156
0.848444
0.811785
0.765058
0.711713
0.655192
0.598299
0.542734
0.488808
0.435633
0.381633
0.325224
0.265392
0.202001
0.135762
0.0679447
0
-0.065451
0.0965041
0.577274
1.64029
3.61345
6.65585
10.4767
14.2002
16.57
16.4973
13.6767
8.86215
3.57072
-0.641586
-2.89212
-3.24783
-2.44045
-1.50853
-0.814474
-0.480442
-0.447552
-0.443054
-0.439366
-0.431579
-0.415753
-0.389114
-0.350549
-0.300278
-0.239603
-0.170645
-0.0960208
-0.0184602
0.0595744
0.136213
0.210406
0.282004
0.3517
0.420858
0.491267
0.564887
0.643655
0.729346
0.823572
0.927816
1.04345
1.17176
1.31386
1.47064
1.64263
1.82986
2.03179
2.24723
2.47419
2.70986
2.95043
3.19111
3.42545
3.64452
3.84023
4.0058
4.13703
4.23292
4.29542
4.32818
4.33475
4.31696
4.27489
4.2064
4.10778
3.97598
3.80997
3.61142
3.3847
3.13599
2.87299
2.60317
2.33209
2.06463
1.80537
1.55869
1.32894
1.12024
0.936297
0.779836
0.652204
0.553737
0.483326
0.437283
0.409751
0.394502
0.385967
0.380077
0.374732
0.369768
0.366457
0.366693
0.372057
0.382999
0.399034
0.418397
0.438482
0.456737
0.471449
0.482291
0.490446
0.498287
0.508706
0.524331
0.546692
0.575878
0.610985
0.650509
0.692621
0.735539
0.777846
0.818665
0.857666
0.894936
0.930775
0.965474
0.999121
1.03144
1.06171
1.08865
1.11046
1.12484
1.12919
1.12082
1.0973
1.0568
0.998544
0.923071
0.832246
0.728479
0.616366
0.502151
0.392007
0.290843
0.201569
0.124617
0.0581028
0
0.0920549
0.525215
1.60899
3.68163
6.90918
11.042
15.2593
18.3003
18.938
16.6044
11.7914
5.92315
0.717594
-2.59676
-3.74427
-3.31137
-2.24718
-1.31262
-0.79852
-0.643557
-0.574798
-0.500363
-0.423645
-0.345208
-0.265311
-0.184384
-0.103116
-0.022457
0.0563831
0.131946
0.202728
0.267492
0.325593
0.37732
0.424125
0.46868
0.514679
0.566419
0.628229
0.703815
0.795696
0.904971
1.03136
1.1735
1.3294
1.49688
1.67393
1.85897
2.05082
2.24851
2.45089
2.65632
2.8624
3.0659
3.26289
3.449
3.62026
3.77361
3.90732
4.021
4.1154
4.19166
4.24937
4.28729
4.3036
4.29475
4.25616
4.18321
4.07234
3.92193
3.7329
3.5088
3.25641
2.98519
2.70409
2.42133
2.14487
1.88186
1.63815
1.41799
1.22389
1.05676
0.916184
0.800836
0.708925
0.638519
0.587687
0.554534
0.537633
0.535627
0.544839
0.558697
0.570309
0.573886
0.566157
0.547185
0.520236
0.490703
0.464497
0.446207
0.437274
0.437484
0.446268
0.462578
0.485157
0.512866
0.544814
0.580288
0.618561
0.65869
0.699264
0.73849
0.774475
0.805632
0.831099
0.85106
0.866847
0.88077
0.895703
0.914482
0.939229
0.971256
1.01008
1.05281
1.09421
1.12719
1.14434
1.13915
1.10716
1.04684
0.959997
0.851579
0.728866
0.600259
0.473862
0.355505
0.248173
0.154199
0.0742642
0.00767961
-0.0473533
-0.0933025
-0.133027
-0.16341
0
0.622265
2.1223
4.83937
8.74036
13.1933
16.9986
18.7861
17.6462
13.655
7.94541
2.22474
-2.00319
-4.05627
-4.19695
-3.23267
-2.20753
-1.43087
-1.04586
-1.04276
-1.06452
-1.08393
-1.09204
-1.08118
-1.04619
-0.987024
-0.907387
-0.812496
-0.708502
-0.603413
-0.505057
-0.419577
-0.350445
-0.298033
-0.259805
-0.231009
-0.205665
-0.177577
-0.141342
-0.0930104
-0.0298033
0.0503354
0.148869
0.266641
0.403884
0.560178
0.734408
0.924767
1.12885
1.34383
1.56663
1.79409
2.02301
2.25009
2.47167
2.68309
2.87815
3.0495
3.1908
3.29712
3.36529
3.39445
3.3861
3.34374
3.27194
3.17534
3.05789
2.92356
2.77567
2.61632
2.44677
2.26798
2.08094
1.88661
1.68593
1.47977
1.26914
1.05545
0.840879
0.628672
0.42337
0.231005
0.057474
-0.0920303
-0.213977
-0.307145
-0.372775
-0.414183
-0.435992
-0.443215
-0.440679
-0.432382
-0.420998
-0.408407
-0.39595
-0.384602
-0.375003
-0.367359
-0.361266
-0.35554
-0.348155
-0.336367
-0.317052
-0.287234
-0.244679
-0.188582
-0.119902
-0.0411112
0.0442844
0.131525
0.215403
0.29146
0.356795
0.410536
0.45386
0.48955
0.521196
0.552249
0.585161
0.620763
0.658434
0.696235
0.731337
0.760609
0.781149
0.790652
0.787598
0.771267
0.741673
0.699485
0.646067
0.583393
0.513469
0.439288
0.364632
0.293176
0.227962
0.170965
0.122883
0.0832139
0.0505438
0.0229322
0
0.0965318
0.549277
1.64115
3.71077
6.95561
11.1339
15.3756
18.3328
18.7291
16.0484
10.9246
4.92798
-0.168179
-3.1983
-4.00777
-3.27265
-1.95409
-0.785482
-0.0718758
0.173602
0.123232
0.0809027
0.0458562
0.0225574
0.0143886
0.0232792
0.0487504
0.0897348
0.145096
0.213146
0.291594
0.377554
0.467751
0.558335
0.645486
0.726208
0.798988
0.864236
0.924357
0.9834
1.0464
1.11863
1.20473
1.308
1.43082
1.57491
1.74114
1.92959
2.13946
2.3691
2.61594
2.87654
3.14672
3.42171
3.69625
3.96336
4.2122
4.4301
4.60701
4.73463
4.80805
4.82724
4.7973
4.72745
4.62871
4.51114
4.38203
4.24473
4.09903
3.94272
3.77257
3.58529
3.37841
3.15102
2.9044
2.64216
2.36996
2.095
1.82522
1.56855
1.33222
1.12293
0.944837
0.799917
0.687965
0.60732
0.554531
0.52465
0.512571
0.513775
0.524824
0.543432
0.568157
0.59783
0.631124
0.665798
0.698764
0.72665
0.746588
0.757041
0.75841
0.75322
0.745811
0.741569
0.745871
0.762866
0.794359
0.839541
0.895733
0.959368
1.02606
1.0913
1.15115
1.20257
1.24345
1.27237
1.28766
1.28774
1.27107
1.23603
1.18125
1.10615
1.01137
0.898913
0.77218
0.63543
0.493511
0.353675
0.225766
0.119303
0.04272
0.00212336
0
0.0382561
0.106656
0.286845
0.745651
1.54059
3.01402
5.48959
8.96971
12.8652
16.0197
17.1437
15.484
11.32
5.92477
0.9645
-2.2987
-3.5126
-3.18379
-2.23582
-1.41662
-0.92332
-0.777321
-0.727733
-0.680056
-0.628368
-0.569783
-0.503037
-0.428857
-0.349424
-0.267915
-0.187928
-0.112619
-0.0440722
0.0170222
0.0713603
0.120715
0.167459
0.21407
0.262801
0.315521
0.373851
0.439434
0.514078
0.59978
0.698546
0.81205
0.941261
1.08607
1.24522
1.41668
1.59778
1.78551
1.97674
2.16842
2.35764
2.5417
2.71804
2.88435
3.03848
3.17851
3.30264
3.40899
3.49546
3.55987
3.60011
3.61369
3.59788
3.54989
3.46718
3.34788
3.1912
2.9978
2.77051
2.51463
2.2367
1.94399
1.64444
1.34628
1.05744
0.78488
0.534071
0.308685
0.110473
-0.0606026
-0.206042
-0.328329
-0.430378
-0.515023
-0.584633
-0.640932
-0.68507
-0.717832
-0.73975
-0.751506
-0.75482
-0.752285
-0.746364
-0.738607
-0.728986
-0.71565
-0.695271
-0.663947
-0.618434
-0.557819
-0.484042
-0.399369
-0.309454
-0.221656
-0.142699
-0.0770938
-0.026224
0.011623
0.0402601
0.0639644
0.085719
0.105833
0.121234
0.126114
0.11371
0.0786169
0.0188452
-0.0630049
-0.159825
-0.26131
-0.356106
-0.435461
-0.494134
-0.529356
-0.54171
-0.534445
-0.512329
-0.480428
-0.443299
-0.403038
-0.387076
0
1.1312
3.32591
6.61038
10.484
13.9038
15.6159
14.7368
11.2705
6.21441
1.13334
-2.5728
-4.27532
-4.25164
-3.32261
-2.35922
-1.70908
-1.39849
-1.29765
-1.23924
-1.18992
-1.1455
-1.10448
-1.06529
-1.02614
-0.985204
-0.940852
-0.891877
-0.837521
-0.777429
-0.711596
-0.640277
-0.563902
-0.482992
-0.398101
-0.309758
-0.218423
-0.124425
-0.027914
0.0712087
0.173378
0.279479
0.390978
0.510016
0.639413
0.782503
0.942732
1.12304
1.32513
1.54873
1.7911
2.04694
2.30869
2.56724
2.81248
3.03479
3.22645
3.38209
3.49884
3.57606
3.61471
3.61661
3.58379
3.51803
3.42104
3.29448
3.14
2.95936
2.75476
2.52912
2.2862
2.03063
1.76786
1.50406
1.2458
0.999659
0.771631
0.566598
0.387952
0.23716
0.113508
0.0146855
-0.0625941
-0.1219
-0.166503
-0.199058
-0.221605
-0.235805
-0.243155
-0.245409
-0.24487
-0.244016
-0.244888
-0.248474
-0.254252
-0.260087
-0.262558
-0.25767
-0.241747
-0.212544
-0.169627
-0.113657
-0.0466029
0.0287053
0.109033
0.191131
0.272009
0.348598
0.417912
0.477541
0.525683
0.561398
0.58475
0.596684
0.598577
0.591599
0.57609
0.551573
0.516913
0.470198
0.409953
0.335894
0.249459
0.153259
0.0522738
-0.0469999
-0.138392
-0.217243
-0.281174
-0.330276
-0.36676
-0.394285
-0.412964
-0.423788
0
1.27651
3.72334
7.31623
11.4915
15.1528
17.0072
16.1472
12.5786
7.33496
2.04127
-1.84551
-3.66643
-3.69822
-2.78401
-1.92979
-1.32131
-1.03196
-0.99522
-0.978314
-0.961658
-0.939554
-0.907955
-0.864871
-0.810679
-0.747137
-0.676812
-0.602449
-0.526309
-0.449767
-0.373242
-0.296413
-0.218581
-0.13903
-0.0573282
0.0267342
0.113211
0.202161
0.293879
0.389041
0.488849
0.595022
0.709651
0.834906
0.972654
1.1241
1.28951
1.46814
1.65841
1.85823
2.06527
2.27705
2.49101
2.70427
2.91337
3.1131
3.29609
3.45508
3.58349
3.67628
3.73085
3.74735
3.72817
3.6768
3.59644
3.48895
3.3566
3.20102
3.02271
2.82199
2.60033
2.36113
2.10975
1.85312
1.5989
1.35458
1.12652
0.919335
0.735652
0.576169
0.440012
0.325191
0.229134
0.149102
0.0821045
0.0252876
-0.0236448
-0.0661501
-0.102572
-0.132203
-0.153645
-0.165266
-0.165882
-0.155365
-0.134996
-0.107218
-0.0757535
-0.0445988
-0.0172434
0.00392885
0.0179053
0.0249602
0.0263174
0.0237429
0.0192321
0.0147676
0.0122422
0.0134862
0.0201757
0.0336622
0.0547747
0.0836794
0.119679
0.161762
0.208765
0.259528
0.313016
0.368296
0.424287
0.47937
0.530924
0.575005
0.606859
0.621803
0.616058
0.587696
0.537248
0.467727
0.384044
0.291969
0.196999
0.103421
0.0136242
-0.0708956
-0.148722
-0.218777
-0.280215
-0.332262
-0.374535
-0.407489
-0.405549
0
0.906364
2.70242
5.68568
9.74354
14.1248
17.5318
18.6152
16.6623
12.0639
6.2192
0.890095
-2.62079
-3.9723
-3.71202
-2.76725
-1.88823
-1.34726
-1.08497
-0.959344
-0.886159
-0.828109
-0.779413
-0.73798
-0.701764
-0.668486
-0.635762
-0.60143
-0.563901
-0.522324
-0.476491
-0.426762
-0.373755
-0.31807
-0.260109
-0.200037
-0.137849
-0.0734114
-0.00643158
0.0636246
0.137912
0.218529
0.308646
0.412302
0.533799
0.676829
0.843534
1.03335
1.24318
1.46849
1.70351
1.94215
2.1789
2.40959
2.63167
2.84404
3.0455
3.2329
3.40076
3.54345
3.65305
3.72196
3.74572
3.72499
3.66531
3.57508
3.46239
3.33219
3.18773
3.02949
2.85605
2.6652
2.45537
2.22661
1.98101
1.72277
1.45785
1.1934
0.936984
0.695828
0.476113
0.282488
0.117807
-0.0168991
-0.122257
-0.200254
-0.253927
-0.287051
-0.303578
-0.307554
-0.303667
-0.296896
-0.291519
-0.290677
-0.296046
-0.307745
-0.324521
-0.344156
-0.363995
-0.38147
-0.394662
-0.40222
-0.403228
-0.397348
-0.384787
-0.366222
-0.342671
-0.315279
-0.284992
-0.252332
-0.217228
-0.178986
-0.136466
-0.0884411
-0.0340723
0.0266225
0.0926293
0.161509
0.229163
0.290799
0.341796
0.378473
0.398587
0.401447
0.387699
0.358898
0.317071
0.264892
0.204725
0.13835
0.0673985
-0.00663838
-0.0823891
-0.158541
-0.23373
-0.306301
-0.374352
-0.436036
-0.48978
-0.534703
-0.571006
-0.600174
-0.620772
-0.478268
0
1.26632
3.78196
7.67344
12.4036
16.7258
19.0802
18.3199
14.3771
8.42334
2.35688
-2.10767
-4.19834
-4.25328
-3.27429
-2.32981
-1.75468
-1.56792
-1.54609
-1.51729
-1.4819
-1.43857
-1.38526
-1.32096
-1.24592
-1.1618
-1.07152
-0.978986
-0.888779
-0.805183
-0.731384
-0.668837
-0.616947
-0.573139
-0.53331
-0.492528
-0.445844
-0.389179
-0.319727
-0.235867
-0.137001
-0.0232605
0.104916
0.247173
0.403433
0.57383
0.758408
0.956676
1.1672
1.38736
1.61343
1.84087
2.06483
2.28064
2.48423
2.67183
2.84004
2.98628
3.10858
3.20495
3.27332
3.31202
3.31958
3.29498
3.23782
3.14853
3.02849
2.88005
2.7064
2.51145
2.30006
2.07722
1.84738
1.61466
1.38305
1.1563
0.937786
0.730307
0.535939
0.355974
0.190993
0.041095
-0.0935817
-0.211977
-0.312503
-0.394045
-0.455356
-0.495646
-0.515192
-0.515736
-0.500534
-0.474007
-0.441133
-0.406745
-0.374746
-0.347709
-0.3272
-0.313685
-0.306647
-0.304776
-0.306221
-0.308886
-0.310748
-0.310168
-0.306145
-0.298471
-0.287591
-0.274507
-0.26049
-0.246704
-0.233895
-0.222192
-0.211074
-0.199485
-0.186056
-0.169361
-0.148184
-0.121681
-0.0893833
-0.0512251
-0.00755971
0.0408771
0.0929768
0.14724
0.201774
0.254241
0.301661
0.340079
0.364786
0.371456
0.35634
0.317088
0.253557
0.168338
0.0668139
-0.0433328
-0.153072
-0.252816
-0.334152
-0.390866
-0.419539
-0.419654
-0.393285
-0.344477
-0.278509
-0.201197
-0.113124
0
0.488794
1.81068
4.39482
8.33768
13.0945
17.4249
19.7645
18.9404
14.8533
8.66667
2.31876
-2.38648
-4.56607
-4.47881
-3.13102
-1.65603
-0.687772
-0.376077
-0.512612
-0.619216
-0.707672
-0.768819
-0.796979
-0.794714
-0.769188
-0.726005
-0.66989
-0.605274
-0.535893
-0.464363
-0.392095
-0.319512
-0.246459
-0.172633
-0.0978811
-0.022263
0.0540867
0.131273
0.209951
0.291499
0.377977
0.471871
0.575698
0.691609
0.821053
0.964635
1.12234
1.29359
1.47736
1.67219
1.8761
2.08648
2.29986
2.512
2.71775
2.9117
3.08909
3.24641
3.38181
3.49501
3.58683
3.65675
3.70288
3.72362
3.71561
3.67454
3.59666
3.48029
3.32678
3.14066
2.92896
2.69991
2.46249
2.22331
1.98693
1.75686
1.53585
1.32622
1.13015
0.949862
0.787508
0.644943
0.523412
0.423287
0.343825
0.283106
0.238309
0.206249
0.18384
0.168444
0.158031
0.151115
0.146549
0.143302
0.140193
0.135912
0.129162
0.11892
0.104689
0.0866769
0.0658136
0.0436213
0.021969
0.00272522
-0.0125056
-0.0225179
-0.0266538
-0.0248111
-0.0173367
-0.00482035
0.0121697
0.0333432
0.0588578
0.0893123
0.125672
0.16897
0.219924
0.278562
0.344062
0.414526
0.4867
0.556178
0.617884
0.666473
0.69686
0.705009
0.688225
0.645567
0.578163
0.489366
0.384656
0.271097
0.157078
0.0513158
-0.038174
-0.104813
-0.143905
-0.152792
-0.130786
-0.0789745
0
0.0980781
0.214081
0.3424
0.499953
0.779488
1.45908
2.96752
5.6379
9.40812
13.5981
16.9811
18.2275
16.5557
12.2196
6.49328
1.10587
-2.55501
-4.00155
-3.67026
-2.48309
-1.30684
-0.543141
-0.253927
-0.286986
-0.337684
-0.389564
-0.438216
-0.478692
-0.506019
-0.516553
-0.508181
-0.480246
-0.433302
-0.368743
-0.288483
-0.19473
-0.0897511
0.0243056
0.145419
0.271575
0.40061
0.530149
0.657712
0.781024
0.898452
1.00946
1.11491
1.21721
1.32003
1.42794
1.54577
1.67791
1.82776
1.99732
2.18695
2.39546
2.62038
2.85827
3.1052
3.3571
3.60984
3.85815
4.09318
4.30169
4.47157
4.59019
4.64727
4.63808
4.56522
4.43778
4.2682
4.06822
3.84679
3.61161
3.36709
3.11552
2.8588
2.59934
2.34053
2.08659
1.84226
1.61223
1.40058
1.21033
1.04312
0.89919
0.777504
0.676122
0.592623
0.524533
0.469714
0.426623
0.39441
0.372846
0.362053
0.362169
0.373185
0.394581
0.424233
0.45726
0.487328
0.508692
0.517806
0.514422
0.501704
0.485215
0.47109
0.46403
0.465408
0.473266
0.485006
0.497521
0.508456
0.517186
0.525195
0.535735
0.55286
0.58013
0.618958
0.668261
0.725813
0.786568
0.844393
0.893337
0.928701
0.947657
0.949311
0.934337
0.904425
0.861794
0.809603
0.750518
0.687089
0.621884
0.557249
0.494972
0.436031
0.380373
0.327083
0.274765
0.222036
0.167985
0.112444
0.0560302
0
-0.0526501
0.175781
0.721492
1.75964
3.61784
6.5355
10.3386
14.2351
16.9621
17.3182
14.8225
10.0769
4.55845
-0.0717887
-2.73488
-3.32502
-2.54772
-1.49698
-0.762478
-0.51081
-0.554917
-0.580625
-0.595676
-0.598583
-0.588299
-0.565554
-0.532228
-0.49061
-0.442941
-0.39082
-0.335183
-0.276656
140
297
455
602
744
889
1035
1181
1322
1457
1604
1753
1899
2040
2176
2318
2461
2605
2740
2871
3005
3147
3290
3438
3584
3727
0
0
0
0
0
0
0
0
0
0
0
0
0
0
0
0
0
0
0
0
0
0
0
0
0
0
0
0
0
0
0
0
0
0
0
0
0
0
0
0
0
0
0
0
0
0
0
0
0
0
0
0
0
0
0
0
0
0
0
0
0
0
0
0
0
0
0
0
0
0
0
0
0
0
0
0
0
0
0
0
0
0
0
0
0
0
0
0
0
0
0
0
0
0
0
0
0
0
0
0
0
0
0
0
0
0
0
0
0
0
0
0
0
0
0
0
0
0
0
0
0
0
0
0
0
0
0
0
0
0
0
0
0
0
0
0
0
0
0
0
0
0
0
0
0
0
0
0
0
0
0
0
0
0
0
0
0
0
0
0
0
0
0
0
0
0
0
0
0
0
0
0
0
0
0
0
0
0
0
0
0
0
0
0
0
0
0
0
0
0
0
0
0
0
0
0
0
0
0
0
0
0
0
0
0
0
0
0
0
0
0
0
0
0
0
0
0
0
0
0
0
0
0
0
0
0
0
0
0
0
0
0
0
0
0
0
0
0
0
0
0
0
0
0
0
0
0
0
0
0
0
0
0
0
0
0
0
0
0
0
0
0
0
0
0
0
0
0
0
0
0
0
0
0
0
0
0
0
0
0
0
0
0
0
0
0
0
0
0
0
0
0
0
0
0
0
0
0
0
0
0
0
0
0
0
0
0
0
0
0
0
0
0
0
0
0
0
0
0
0
0
0
0
0
0
0
0
0
0
0
0
0
0
0
0
0
0
0
0
0
0
0
0
0
0
0
0
0
0
0
0
0
0
0
0
0
0
0
0
0
0
0
0
0
0
0
0
0
0
0
0
0
0
0
0
0
0
0
0
0
0
0
0
0
0
0
0
0
0
0
0
0
0
0
0
0
0
0
0
0
0
0
0
0
0
0
0
0
0
0
0
0
0
0
0
0
0
0
0
0
0
0
0
0
0
0
0
0
0
0
0
0
0
0
0
0
0
0
0
0
0
0
0
0
0
0
0
0
0
0
0
0
0
0
0
0
0
0
0
0
0
0
0
0
0
0
0
0
0
0
0
0
0
0
0
0
0
0
0
0
0
0
0
0
0
0
0
0
0
0
0
0
0
0
0
0
0
0
0
0
0
0
0
0
0
0
0
0
0
0
0
0
0
0
0
0
0
0
0
0
0
0
0
0
0
0
0
0
0
0
0
0
0
0
0
0
0
0
0
0
0
0
0
0
0
0
0
0
0
0
0
0
0
0
0
0
0
0
0
0
0
0
0
0
0
0
0
0
0
0
0
0
0
0
0
0
0
0
0
0
0
0
0
0
0
0
0
0
0
0
0
0
0
0
0
0
0
0
0
0
0
0
0
0
0
0
0
0
0
0
0
0
0
0
0
0
0
0
0
0
0
0
0
0
0
0
0
0
0
0
0
0
0
0
0
0
0
0
0
0
0
0
0
0
0
0
0
0
0
0
0
0
0
0
0
0
0
0
0
0
0
0
0
0
0
0
0
0
0
0
0
0
0
0
0
0
0
0
0
0
0
0
0
0
0
0
0
0
0
0
0
0
0
0
0
0
0
0
0
0
0
0
0
0
0
0
0
0
0
0
0
0
0
0
0
0
0
0
0
0
0
0
0
0
0
0
0
0
0
0
0
0
0
0
0
0
0
0
0
0
0
0
0
0
0
0
0
0
0
0
0
0
0
0
0
0
0
0
0
0
0
0
0
0
0
0
0
0
0
0
0
0
0
0
0
0
0
0
0
0
0
0
0
0
0
0
0
0
0
0
0
0
0
0
0
0
0
0
0
0
0
0
0
0
0
0
0
0
0
0
0
0
0
0
0
0
0
0
0
0
0
0
0
0
0
0
0
0
0
0
0
0
0
0
0
0
0
0
0
0
0
0
0
0
0
0
0
0
0
0
0
0
0
0
0
0
0
0
0
0
0
0
0
0
0
0
0
0
0
0
0
0
0
0
0
0
0
0
0
0
0
0
0
0
0
0
0
0
0
0
0
0
0
0
0
0
0
0
0
0
0
0
0
0
0
0
0
0
0
0
0
0
0
0
0
0
0
0
0
0
0
0
0
0
0
0
0
0
0
0
0
0
0
0
0
0
0
0
0
0
0
0
0
0
0
0
0
0
0
0
0
0
0
0
0
0
0
0
0
0
0
0
0
0
0
0
0
0
0
0
0
0
0
0
0
0
0
0
0
0
0
0
0
0
0
0
0
0
0
0
0
0
0
0
0
0
0
0
0
0
0
0
0
0
0
0
0
0
0
0
0
0
0
0
0
0
0
0
0
0
0
0
0
0
0
0
0
0
0
0
0
0
0
0
0
0
0
0
0
0
0
0
0
0
0
0
0
0
0
0
0
0
0
0
0
0
0
0
0
0
0
0
0
0
0
0
0
0
0
0
0
0
0
0
0
0
0
0
0
0
0
0
0
0
0
0
0
0
0
0
0
0
0
0
0
0
0
0
0
0
0
0
0
0
0
0
0
0
0
0
0
0
0
0
0
0
0
0
0
0
0
0
0
0
0
0
0
0
0
0
0
0
0
0
0
0
0
0
0
0
0
0
0
0
0
0
0
0
0
0
0
0
0
0
0
0
0
0
0
0
0
0
0
0
0
0
0
0
0
0
0
0
0
0
0
0
0
0
0
0
0
0
0
0
0
0
0
0
0
0
0
0
0
0
0
0
0
0
0
0
0
0
0
0
0
0
0
0
0
0
0
0
0
0
0
0
0
0
0
0
0
0
0
0
0
0
0
0
0
0
0
0
0
0
0
0
0
0
0
0
0
0
0
0
0
0
0
0
0
0
0
0
0
0
0
0
0
0
0
0
0
0
0
0
0
0
0
0
0
0
0
0
0
0
0
0
0
0
0
0
0
0
0
0
0
0
0
0
0
0
0
0
0
0
0
0
0
0
0
0
0
0
0
0
0
0
0
0
0
0
0
0
0
0
0
0
0
0
0
0
0
0
0
0
0
0
0
0
0
0
0
0
0
0
0
0
0
0
0
0
0
0
0
0
0
0
0
0
0
0
0
0
0
0
0
0
0
0
0
0
0
0
0
0
0
0
0
0
0
0
0
0
0
0
0
0
0
0
0
0
0
0
0
0
0
0
0
0
0
0
0
0
0
0
0
0
0
0
0
0
0
0
0
0
0
0
0
0
0
0
0
0
0
0
0
0
0
0
0
0
0
0
0
0
0
0
0
0
0
0
0
0
0
0
0
0
0
0
0
0
0
0
0
0
0
0
0
0
0
0
0
0
0
0
0
0
0
0
0
0
0
0
0
0
0
0
0
0
0
0
0
0
0
0
0
0
0
0
0
0
0
0
0
0
0
0
0
0
0
0
0
0
0
0
0
0
0
0
0
0
0
0
0
0
0
0
0
0
0
0
0
0
0
0
0
0
0
0
0
0
0
0
0
0
0
0
0
0
0
0
0
0
0
0
0
0
0
0
0
0
0
0
0
0
0
0
0
0
0
0
0
0
0
0
0
0
0
0
0
0
0
0
0
0
0
0
0
0
0
0
0
0
0
0
0
0
0
0
0
0
0
0
0
0
0
0
0
0
0
0
0
0
0
0
0
0
0
0
0
0
0
0
0
0
0
0
0
0
0
0
0
0
0
0
0
0
0
0
0
0
0
0
0
0
0
0
0
0
0
0
0
0
0
0
0
0
0
0
0
0
0
0
0
0
0
0
0
0
0
0
0
0
0
0
0
0
0
0
0
0
0
0
0
0
0
0
0
0
0
0
0
0
0
0
0
0
0
0
0
0
0
0
0
0
0
0
0
0
0
0
0
0
0
0
0
0
0
0
0
0
0
0
0
0
0
0
0
0
0
0
0
0
0
0
0
0
0
0
0
0
0
0
0
0
0
0
0
0
0
0
0
0
0
0
0
0
0
0
0
0
0
0
0
0
0
0
0
0
0
0
0
0
0
0
0
0
0
0
0
0
0
0
0
0
0
0
0
0
0
0
0
0
0
0
0
0
0
0
0
0
0
0
0
0
0
0
0
0
0
0
0
0
0
0
0
0
0
0
0
0
0
0
0
0
0
0
0
0
0
0
0
0
0
0
0
0
0
0
0
0
0
0
0
0
0
0
0
0
0
0
0
0
0
0
0
0
0
0
0
0
0
0
0
0
0
0
0
0
0
0
0
0
0
0
0
0
0
0
0
0
0
0
0
0
0
0
0
0
0
0
0
0
0
0
0
0
0
0
0
0
0
0
0
0
0
0
0
0
0
0
0
0
0
0
0
0
0
0
0
0
0
0
0
0
0
0
0
0
0
0
0
0
0
0
0
0
0
0
0
0
0
0
0
0
0
0
0
0
0
0
0
0
0
0
0
0
0
0
0
0
0
0
0
0
0
0
0
0
0
0
0
0
0
0
0
0
0
0
0
0
0
0
0
0
0
0
0
0
0
0
0
0
0
0
0
0
0
0
0
0
0
0
0
0
0
0
0
0
0
0
0
0
0
0
0
0
0
0
0
0
0
0
0
0
0
0
0
0
0
0
0
0
0
0
0
0
0
0
0
0
0
0
0
0
0
0
0
0
0
0
0
0
0
0
0
0
0
0
0
0
0
0
0
0
0
0
0
0
0
0
0
0
0
0
0
0
0
0
0
0
0
0
0
0
0
0
0
0
0
0
0
0
0
0
0
0
0
0
0
0
0
0
0
0
0
0
0
0
0
0
0
0
0
0
0
0
0
0
0
0
0
0
0
0
0
0
0
0
0
0
0
0
0
0
0
0
0
0
0
0
0
0
0
0
0
0
0
0
0
0
0
0
0
0
0
0
0
0
0
0
0
0
0
0
0
0
0
0
0
0
0
0
0
0
0
0
0
0
0
0
0
0
0
0
0
0
0
0
0
0
0
0
0
0
0
0
0
0
0
0
0
0
0
0
0
0
0
0
0
0
0
0
0
0
0
0
0
0
0
0
0
0
0
0
0
0
0
0
0
0
0
0
0
0
0
0
0
0
0
0
0
0
0
0
0
0
0
0
0
0
0
0
0
0
0
0
0
0
0
0
0
0
0
0
0
0
0
0
0
0
0
0
0
0
0
0
0
0
0
0
0
0
0
0
0
0
0
0
0
0
0
0
0
0
0
0
0
0
0
0
0
0
0
0
0
0
0
0
0
0
0
0
0
0
0
0
0
0
0
0
0
0
0
0
0
0
0
0
0
0
0
0
0
0
0
0
0
0
0
0
0
0
0
0
0
0
0
0
0
0
0
0
0
0
0
0
0
0
0
0
0
0
0
0
0
0
0
0
0
0
0
0
0
0
0
0
0
0
0
0
0
0
0
0
0
0
0
0
0
0
0
0
0
0
0
0
0
0
0
0
0
0
0
0
0
0
0
0
0
0
0
0
0
0
0
0
0
0
0
0
0
0
0
0
0
0
0
0
0
0
0
0
0
0
0
0
0
0
0
0
0
0
0
0
0
0
0
0
0
0
0
0
0
0
0
0
0
0
0
0
0
0
0
0
0
0
0
0
0
0
0
0
0
0
0
0
0
0
0
0
0
0
0
0
0
0
0
0
0
0
0
0
0
0
0
0
0
0
0
0
0
0
0
0
0
0
0
0
0
0
0
0
0
0
0
0
0
0
0
0
0
0
0
0
0
0
0
0
0
0
0
0
0
0
0
0
0
0
0
0
0
0
0
0
0
0
0
0
0
0
0
0
0
0
0
0
0
0
0
0
0
0
0
0
0
0
0
0
0
0
0
0
0
0
0
0
0
0
0
0
0
0
0
0
0
0
0
0
0
0
0
0
0
0
0
0
0
0
0
0
0
0
0
0
0
0
0
0
0
0
0
0
0
0
0
0
0
0
0
0
0
0
0
0
0
0
0
0
0
0
0
0
0
0
0
0
0
0
0
0
0
0
0
0
0
0
0
0
0
0
0
0
0
0
0
0
0
0
0
0
0
0
0
0
0
0
0
0
0
0
0
0
0
0
0
0
0
0
0
0
0
0
0
0
0
0
0
0
0
0
0
0
0
0
0
0
0
0
0
0
0
0
0
0
0
0
0
0
0
0
0
0
0
0
0
0
0
0
0
0
0
0
0
0
0
0
0
0
0
0
0
0
0
0
0
0
0
0
0
0
0
0
0
0
0
0
0
0
0
0
0
0
0
0
0
0
0
0
0
0
0
0
0
0
0
0
0
0
0
0
0
0
0
0
0
0
0
0
0
0
0
0
0
0
0
0
0
0
0
0
0
0
0
0
0
0
0
0
0
0
0
0
0
0
0
0
0
0
0
0
0
0
0
0
0
0
0
0
0
0
0
0
0
0
0
0
0
0
0
0
0
0
0
0
0
0
0
0
0
0
0
0
0
0
0
0
0
0
0
0
0
0
0
0
0
0
0
0
0
0
0
0
0
0
0
0
0
0
0
0
0
0
0
0
0
0
0
0
0
0
0
0
0
0
0
0
0
0
0
0
0
0
0
0
0
0
0
0
0
0
0
0
0
0
0
0
0
0
0
0
0
0
0
0
0
0
0
0
0
0
0
0
0
0
0
0
0
0
0
0
0
0
0
0
0
0
0
0
0
0
0
0
0
0
0
0
0
0
0
0
0
0
0
0
0
0
0
0
0
0
0
0
0
0
0
0
0
0
0
0
0
0
0
0
0
0
0
0
0
0
0
0
0
0
0
0
0
0
0
0
0
0
0
0
0
0
0
0
0
0
0
0
0
0
0
0
0
0
0
0
0
0
0
0
0
0
0
0
0
0
0
0
0
0
0
0
0
0
0
0
0
0
0
0
0
0
0
0
0
0
0
0
0
0
0
0
0
0
0
0
0
0
0
0
0
0
0
0
0
0
0
0
0
0
0
0
0
0
0
0
0
0
0
0
0
0
0
0
0
0
0
0
0
0
0
0
0
0
0
0
0
0
0
0
0
0
0
0
0
0
0
0
0
0
0
0
0
0
0
0
0
0
0
0
0
0
0
0
0
0
0
0
0
0
0
0
0
0
0
0
0
0
0
0
0
0
0
0
0
0
0
0
0
0
0
0
0
0
0
0
0
0
0
0
0
0
0
0
0
0
0
0
0
0
0
0
0
0
0
0
0
0
0
0
0
0
0
0
0
0
0
0
0
0
0
0
0
0
0
0
0
0
0
0
0
0
0
0
0
0
0
0
0
0
0
0
0
0
0
0
0
0
0
0
0
0
0
0
0
0
0
0
0
0
0
0
0
0
0
0
0
0
0
0
0
0
0
0
0
0
0
0
0
0
0
0
0
0
0
0
0
0
0
0
0
0
0
0
0
0
0
0
0
0
0
0
0
0
0
0
0
0
0
0
0
0
0
0
0
0
0
0
0
0
0
0
0
0
0
0
0
0
0
0
0
0
0
0
0
0
0
0
0
0
0
0
0
0
0
0
0
0
0
0
0
0
0
0
0
0
0
0
0
0
0
0
0
0
0
0
0
0
0
0
0
0
0
0
0
0
0
0
0
0
0
0
0
0
0
0
0
0
0
0
0
0
0
0
0
0
0
0
0
0
0
0
0
0
0
0
0
0
0
0
0
0
0
0
0
0
0
0
0
0
0
0
0
0
0
0
0
0
0
0
0
0
0
0
0
0
0
0
0
0
0
0
0
0
0
0
0
0
0
0
0
0
0
0
0
0
0
0
0
0
0
0
0
0
0
0
0
0
0
0
0
0
0
0
0
0
0
0
0
0
0
0
0
0
0
0
0
0
0
0
0
0
0
0
0
0
0
0
0
0
0
0
0
0
0
0
0
0
0
0
0
0
0
0
0
0
0
0
0
0
0
0
0
0
0
0
0
0
0
0
0
0
0
0
0
0
0
0
0
0
0
0
0
0
0
0
0
0
0
0
0
0
0
0
0
0
0
0
0
0
0
0
0
0
0
0
0
0
0
0
0
0
0
0
0
0
0
0
0
0
0
0
0
0
0
0
0
0
0
0
0
0
0
0
0
0
0
0
0
0
0
0
0
0
0
0
0
0
0
0
0
0
0
0
0
0
0
0
0
0
0
0
0
0
0
0
0
0
0
0
0
0
0
0
0
0
0
0
0
0
0
0
0
0
0
0
0
0
0
0
0
0
0
0
0
0
0
0
0
0
0
0
0
0
0
0
0
0
0
0
0
0
0
0
0
0
0
0
0
0
0
0
0
0
0
0
0
0
0
0
0
0
0
0
0
0
0
0
0
0
0
0
0
0
0
0
0
0
0
0
0
0
0
0
0
0
0
0
0
0
0
0
0
0
0
0
0
0
0
0
0
0
0
0
0
0
0
0
0
0
0
0
0
0
0
0
0
0
0
0
0
0
0
0
0
0
0
0
0
0
0
0
0
0
0
0
0
0
0
0
0
0
0
0
0
0
0
0
0
0
0
0
0
