1.06648
1.09692
1.12194
1.13743
1.14135
1.13411
1.11808
1.09687
1.07449
1.05441
1.03937
1.03182
1.03381
1.0469
1.07204
1.10927
1.15753
1.21461
1.27719
1.34039
1.39848
1.44572
1.47694
1.48807
1.47634
1.4403
1.37984
1.29603
1.19135
1.06987
0.936249
0.795484
0.653008
0.51451
0.38556
0.271376
0.176142
0.101885
0.0489349
0.0159472
0
0.00133047
0.0188265
0.307443
0.950163
2.31617
4.75529
8.3032
12.4341
16.0565
17.8698
16.9659
13.3507
8.04365
2.64177
-1.4175
-3.45854
-3.70347
-2.91797
-1.99665
-1.329
-1.01221
-0.921315
-0.847923
-0.779977
-0.716051
-0.656322
-0.600896
-0.549319
-0.500558
-0.453162
-0.405533
-0.356249
-0.304327
-0.249374
-0.191526
-0.131248
-0.0691192
-0.00558128
0.0592772
0.125871
0.195194
0.268803
0.348741
0.437383
0.537249
0.650798
0.780224
0.927268
1.09302
1.27773
1.48053
1.69923
1.93014
2.16806
2.40648
2.63801
2.85499
3.0504
3.21874
3.3564
3.46181
3.53528
3.57844
3.59367
3.58347
3.54988
3.49417
3.41668
3.31675
3.1927
3.04221
2.86284
2.65286
2.41186
2.14165
1.84671
1.53421
1.21363
0.895774
0.591619
0.311127
0.0624302
-0.147884
-0.316389
-0.443127
-0.53057
-0.583165
-0.606865
-0.608271
-0.594693
-0.573623
-0.551675
-0.533965
-0.523689
-0.52198
-0.528053
-0.539566
-0.553097
-0.564649
-0.570251
-0.566434
-0.550207
-0.519627
-0.474167
-0.414959
-0.344371
-0.266596
-0.18674
-0.109658
-0.0389938
0.0234815
0.078095
0.12703
0.17375
0.222292
0.276358
0.338836
0.411797
0.496115
0.591184
0.695171
0.804762
0.913587
1.01415
1.09917
1.16266
1.20047
1.21026
1.19095
1.14219
1.06413
0.960628
0.834351
0.684637
0.5192
0.354524
0.208466
0.0960734
0.0261661
0
0.0156864
0.0605762
0.124507
0.198229
0.278377
0.559909
1.30447
2.80644
5.2848
8.68626
12.5007
15.7573
17.3067
16.3314
12.8244
7.7165
2.51178
-1.39623
-3.32602
-3.4799
-2.62666
-1.6154
-0.867599
-0.437962
-0.212162
-0.113352
-0.041956
0.0162219
0.0637196
0.104106
0.142417
0.184175
0.234293
0.295735
0.368938
0.452974
0.545929
0.644991
0.746934
0.848669
0.947742
1.04286
1.13418
1.22344
1.31374
1.40917
1.51416
1.63277
1.7681
1.92167
2.09335
2.28175
2.48448
2.69855
2.92083
3.14848
3.37924
3.61153
3.8445
4.07785
4.31156
4.54549
4.77868
5.00763
5.22387
5.41412
5.5636
5.65814
5.68719
5.64601
5.53657
5.36705
5.14997
4.89935
4.6291
4.34993
4.06781
3.78575
3.50579
3.23007
2.96102
2.70144
2.45435
2.2228
2.00951
1.8166
1.64539
1.49635
1.36922
1.26317
1.17711
1.10991
1.06046
1.02769
1.01041
1.00718
1.01618
1.03469
1.05878
1.08386
1.10591
1.12222
1.13192
1.13601
1.13692
1.13767
1.14092
1.14814
1.15919
1.17303
1.18814
1.2029
1.21606
1.22696
1.23557
1.24233
1.24785
1.25285
1.25805
1.26434
1.273
1.2858
1.30492
1.33264
1.37069
1.42059
1.48302
1.55348
1.62249
1.67896
1.71276
1.71679
1.68804
1.62723
1.53756
1.42332
1.29065
1.14597
0.993959
0.838435
0.6835
0.533678
0.393448
0.266803
0.156715
0.0643979
-0.0110909
-0.0721643
-0.122324
-0.162894
0
0.495361
1.58345
3.5952
6.7171
10.7288
14.8307
17.7687
18.3064
15.8548
10.8855
4.81918
-0.599452
-4.08951
-5.32073
-4.85112
-3.65543
-2.56572
-1.922
-1.767
-1.77883
-1.78832
-1.79267
-1.78922
-1.77689
-1.75665
-1.73113
-1.70319
-1.6748
-1.64634
-1.61656
-1.58319
-1.54395
-1.49746
-1.44424
-1.38598
-1.3244
-1.26093
-1.19638
-1.13045
-1.06164
-0.98746
-0.904866
-0.810832
-0.70284
-0.579223
-0.439273
-0.283388
-0.11257
0.0717629
0.267663
0.472567
0.683175
0.895411
1.10455
1.30551
1.49326
1.66315
1.81121
1.93452
2.03148
2.10153
2.14467
2.1611
2.15102
2.11436
2.05075
1.9595
1.83984
1.69158
1.51571
1.31458
1.0919
0.852952
0.604638
0.354768
0.111149
-0.119378
-0.331792
-0.523278
-0.69315
-0.842369
-0.972847
-1.08673
-1.18589
-1.2716
-1.34461
-1.40525
-1.45367
-1.49018
-1.51537
-1.52994
-1.53499
-1.53194
-1.52201
-1.506
-1.48421
-1.45659
-1.42305
-1.38398
-1.34048
-1.29464
-1.24937
-1.20773
-1.17221
-1.14407
-1.123
-1.10711
-1.09321
-1.0774
-1.05574
-1.02492
-0.982384
-0.926461
-0.856799
-0.774478
-0.681676
-0.581715
-0.478778
-0.376745
-0.278481
-0.185448
-0.0978071
-0.0151564
0.0622034
0.132224
0.189929
0.227615
0.236223
0.207943
0.138726
0.0298708
-0.111871
-0.275624
-0.448723
-0.619503
-0.781125
-0.930883
-1.06702
-1.18933
-1.2989
-1.39758
-1.48779
-1.5723
-1.6535
-1.73197
-1.67063
-1.20671
0
2.29043
5.80908
10.2325
14.6313
17.6467
18.0215
15.257
9.99477
3.82155
-1.44607
-4.58751
-5.43035
-4.70563
-3.48256
-2.56801
-2.2294
-2.28124
-2.20025
-2.09173
-1.97761
-1.86252
-1.75106
-1.64739
-1.55378
-1.46951
-1.39292
-1.3215
-1.25169
-1.17938
-1.10039
-1.01109
-0.908815
-0.792291
-0.661766
-0.519023
-0.367114
-0.20996
-0.0518457
0.103138
0.251641
0.391528
0.522314
0.645374
0.763963
0.882978
1.00846
1.14683
1.304
1.48436
1.68987
1.91945
2.16884
2.43109
2.6964
2.95064
3.17952
3.37091
3.51636
3.61175
3.65698
3.65485
3.60966
3.526
3.40919
3.26472
3.09678
2.90861
2.7032
2.4838
2.25398
2.01751
1.77815
1.53967
1.30588
1.08054
0.867365
0.669808
0.490941
0.332987
0.197141
0.0834788
-0.00897503
-0.0822188
-0.138737
-0.181065
-0.211376
-0.231462
-0.242684
-0.246155
-0.24296
-0.234299
-0.221497
-0.205886
-0.188608
-0.170444
-0.151697
-0.132205
-0.111423
-0.0885748
-0.0628325
-0.0335107
-0.000261211
0.0367632
0.0768247
0.118634
0.160529
0.200771
0.237883
0.270937
0.299732
0.324814
0.34738
0.369116
0.392072
0.418567
0.451129
0.492403
0.544933
0.610794
0.691086
0.785405
0.891846
1.00682
1.12305
1.23101
1.32119
1.38573
1.41953
1.42063
1.38987
1.33018
1.24568
1.14146
1.02372
0.897896
0.768421
0.639752
0.515923
0.400138
0.294442
0.199839
0.116248
0.0421338
-0.0246943
-0.0866355
-0.143914
0
0.504116
1.71105
4.00874
7.57394
12.05
16.4142
19.2298
19.2629
16.1507
10.6962
4.55812
-0.512178
-3.43855
-4.15781
-3.40632
-2.19333
-1.25874
-0.874951
-0.935003
-0.940742
-0.934163
-0.920243
-0.898551
-0.869514
-0.833858
-0.792017
-0.743748
-0.688137
-0.624017
-0.55062
-0.468232
-0.37881
-0.285277
-0.191203
-0.100215
-0.0149674
0.0636047
0.136667
0.207376
0.280309
0.360557
0.452745
0.560201
0.684155
0.824203
0.978939
1.1464
1.32464
1.51218
1.70811
1.91189
2.12284
2.33959
2.55958
2.77891
2.9925
3.19451
3.37926
3.54181
3.67835
3.78618
3.86201
3.90132
3.90094
3.8581
3.77025
3.63606
3.45672
3.23682
2.98447
2.71066
2.4279
2.14825
1.88065
1.6322
1.40747
1.20852
1.03517
0.885533
0.756621
0.645059
0.547687
0.46201
0.386389
0.319885
0.262118
0.212956
0.172246
0.139667
0.114728
0.0968837
0.0856733
0.0807738
0.0820962
0.0896627
0.103477
0.123397
0.149062
0.179858
0.214928
0.253222
0.293545
0.334608
0.375104
0.413803
0.449779
0.4826
0.512485
0.540374
0.567844
0.596889
0.629589
0.667761
0.712683
0.764831
0.824009
0.889468
0.959964
1.03384
1.10907
1.18326
1.25353
1.31664
1.36933
1.40854
1.43159
1.43645
1.42181
1.38706
1.33231
1.25832
1.16675
1.06017
0.940501
0.81087
0.675688
0.540289
0.41071
0.293218
0.192258
0.110105
0.0468024
0
-0.010557
0.461981
1.47136
3.28492
6.10191
9.82285
13.8454
17.0788
18.3035
16.7624
12.6469
7.13212
1.87121
-1.77336
-3.2968
-3.10277
-2.08136
-1.07489
-0.450977
-0.233104
-0.207342
-0.17815
-0.145798
-0.109992
-0.0698452
-0.0245512
0.0265165
0.0837943
0.147472
0.217424
0.293104
0.373505
0.457217
0.542598
0.628057
0.712378
0.795014
0.876278
0.957372
1.04026
1.12739
1.22139
1.3247
1.43931
1.56661
1.70738
1.86182
2.02977
2.21089
2.40481
2.61121
2.82975
3.05988
3.30054
3.54987
3.80514
4.06222
4.31427
4.55103
4.75928
4.92661
5.04387
5.10482
5.10662
5.04981
4.93785
4.77639
4.57236
4.33328
4.06917
3.79052
3.50526
3.21909
2.93672
2.66227
2.399
2.14916
1.91407
1.69442
1.49064
1.30332
1.1334
0.9822
0.850958
0.740509
0.650916
0.581322
0.529834
0.493878
0.470646
0.457539
0.452492
0.454087
0.461465
0.474101
0.491516
0.513091
0.538033
0.565434
0.594409
0.624245
0.654499
0.684967
0.715553
0.746086
0.776138
0.804974
0.831866
0.856558
0.879814
0.903786
0.931972
0.968676
1.01805
1.08295
1.16377
1.2575
1.36021
1.46567
1.56557
1.65128
1.71498
1.75055
1.754
1.72377
1.66066
1.56774
1.44997
1.31398
1.16723
1.01667
0.86809
0.72577
0.592647
0.470946
0.362203
0.266958
0.184529
0.113767
0.0530195
0
-0.0434362
0.244944
0.936984
2.37211
4.85447
8.39043
12.4568
15.9986
17.7575
16.8414
13.2388
7.94271
2.54853
-1.47676
-3.42861
-3.53859
-2.63258
-1.60415
-0.89172
-0.539762
-0.404201
-0.338385
-0.282236
-0.229676
-0.17877
-0.128018
-0.076202
-0.0226768
0.0325233
0.0888386
0.145569
0.202391
0.259801
0.319337
0.383484
0.455289
0.537803
0.633498
0.74356
0.867888
1.00522
1.15316
1.30839
1.46742
1.62634
1.78221
1.93402
2.08324
2.23382
2.39156
2.56283
2.75316
2.9659
3.19988
3.4516
3.71711
3.99043
4.25989
4.50899
4.72207
4.88667
4.99438
5.04167
5.02997
4.96499
4.85515
4.70948
4.53534
4.33801
4.12098
3.88746
3.64069
3.38353
3.11908
2.85148
2.58558
2.32622
2.0775
1.84229
1.62207
1.41718
1.22735
1.05227
0.892113
0.747727
0.620679
0.512563
0.424556
0.356961
0.309416
0.279641
0.263243
0.255177
0.250659
0.246021
0.239296
0.23039
0.220848
0.213284
0.210587
0.214959
0.227549
0.248529
0.277289
0.311829
0.349556
0.388079
0.425757
0.461918
0.496703
0.530617
0.563989
0.596613
0.627779
0.656748
0.683504
0.709394
0.737348
0.77148
0.816156
0.874774
0.951566
1.04742
1.15447
1.2557
1.3314
1.36393
1.34151
1.26077
1.12736
0.954844
0.761939
0.569012
0.392643
0.240244
0.120334
0.0390375
0
0.00525513
0.051778
0.134283
0.244129
0.386408
0.841815
1.61023
3.04908
5.51297
9.06692
13.2112
16.8499
18.64
17.6281
13.8245
8.32188
2.82096
-1.17709
-3.02028
-3.02629
-2.07509
-1.08502
-0.436963
-0.174088
-0.124684
-0.0838156
-0.0454798
-0.00950241
0.023518
0.0530409
0.0789589
0.101801
0.122853
0.144158
0.168364
0.198436
0.237266
0.287246
0.349828
0.425315
0.51284
0.610465
0.715455
0.824794
0.935723
1.04639
1.15636
1.26684
1.38063
1.50169
1.63457
1.78358
1.9521
2.14194
2.35314
2.58391
2.83064
3.08813
3.34992
3.60823
3.85309
4.07439
4.26361
4.41422
4.52229
4.58657
4.60823
4.59014
4.53607
4.44992
4.33585
4.19755
4.03773
3.85848
3.66169
3.44934
3.22347
2.98659
2.74193
2.49337
2.24532
2.0024
1.76921
1.54994
1.34812
1.16634
1.00607
0.86768
0.750427
0.652617
0.572041
0.506371
0.453474
0.411579
0.379269
0.355536
0.339489
0.329955
0.325732
0.325974
0.330489
0.33988
0.355361
0.378213
0.40995
0.451068
0.497276
0.54054
0.572039
0.58516
0.578009
0.554389
0.522841
0.494152
0.478315
0.479936
0.498118
0.530682
0.575385
0.629585
0.690339
0.754763
0.820272
0.884691
0.946249
1.00362
1.05587
1.10242
1.14289
1.17694
1.20385
1.22226
1.23014
1.22489
1.20356
1.16336
1.10232
1.01993
0.91748
0.79826
0.666907
0.529623
0.394317
0.269681
0.163811
0.0823715
0.0283787
0.00189209
0
0.0179457
0.0505934
0.3144
0.813272
1.86682
3.91737
7.2325
11.5444
15.8825
18.8086
19.0376
16.1301
10.8241
4.7543
-0.305178
-3.233
-3.93551
-3.14718
-1.90453
-0.922507
-0.43588
-0.407545
-0.444323
-0.480791
-0.51095
-0.529391
-0.532093
-0.517933
-0.487748
-0.443697
-0.388743
-0.326327
-0.259739
-0.191514
-0.123069
-0.0546682
0.0143158
0.0849968
0.158569
0.236016
0.318069
0.405406
0.498803
0.599264
0.708037
0.826506
0.955985
1.09749
1.25157
1.41819
1.59672
1.78603
1.98451
2.19021
2.40092
2.61417
2.82731
3.03745
3.24124
3.43456
3.61241
3.76873
3.89685
3.99121
4.04687
4.05976
4.0272
3.94838
3.82461
3.65947
3.4586
3.22932
2.98135
2.72375
2.46324
2.20461
1.95137
1.70582
1.46934
1.24294
1.02784
0.826032
0.640412
0.474546
0.33289
0.221988
0.147538
0.106521
0.0882782
0.0793373
0.0667524
0.0411907
-0.00122509
-0.05874
-0.125267
-0.192548
-0.252952
-0.302114
-0.338283
-0.361115
-0.371051
-0.369082
-0.356744
-0.335817
-0.308156
-0.275575
-0.239734
-0.202344
-0.16501
-0.129045
-0.0953381
-0.0642761
-0.0357882
-0.00948086
0.0151918
0.03881
0.0619722
0.0853792
0.109961
0.136967
0.167977
0.204786
0.249219
0.302698
0.366045
0.439512
0.522304
0.61281
0.707871
0.801985
0.888658
0.961273
1.01391
1.04192
1.04227
1.01351
0.955775
0.870866
0.763908
0.64031
0.505533
0.369115
0.242165
0.135174
0.0564413
0.0109587
0
0.0242455
0.0761622
0.14939
0.23634
0.349185
0.673327
1.45557
3.11991
5.98718
9.94167
14.2101
17.4941
18.489
16.5496
12.0986
6.48964
1.37721
-2.0307
-3.40333
-3.20433
-2.24477
-1.29012
-0.60135
-0.290936
-0.2555
-0.231582
-0.205053
-0.171914
-0.129544
-0.0772818
-0.0166887
0.0497393
0.119348
0.189589
0.258441
0.324607
0.387523
0.447261
0.504442
0.560176
0.616056
0.674158
0.736967
0.807195
0.887515
0.980269
1.08724
1.20956
1.34773
1.50178
1.67135
1.85575
2.05383
2.26382
2.48312
2.7082
2.93468
3.15765
3.3721
3.57336
3.75761
3.92205
4.06496
4.18585
4.28507
4.36339
4.42151
4.45947
4.47609
4.46793
4.43063
4.35954
4.25028
4.10006
3.90882
3.68007
3.42086
3.1411
2.85228
2.56583
2.29119
2.03602
1.80569
1.60332
1.42995
1.28518
1.16756
1.07391
1.00025
0.942314
0.896042
0.857975
0.825509
0.79697
0.771496
0.7488
0.728844
0.711692
0.697458
0.686269
0.67836
0.674174
0.674414
0.679955
0.691652
0.710032
0.735129
0.766177
0.801217
0.837097
0.870262
0.897663
0.917543
0.929966
0.936887
0.941748
0.9487
0.961675
0.983332
1.01452
1.05475
1.10268
1.15634
1.21327
1.27072
1.32555
1.37418
1.41294
1.43806
1.44581
1.43281
1.39628
1.33442
1.24668
1.13409
0.999752
0.848879
0.686027
0.520076
0.362792
0.225528
0.117343
0.0436181
0.00546389
0
0.0269298
0.0726773
0.131484
0.298164
0.778972
1.91224
4.04075
7.26924
11.2157
14.9294
17.1398
16.8023
13.6768
8.56951
3.02722
-1.37569
-3.73962
-4.1178
-3.2168
-2.09615
-1.1853
-0.679954
-0.628232
-0.645294
-0.666549
-0.683784
-0.690097
-0.680872
-0.655206
-0.616003
-0.567339
-0.512974
-0.456402
-0.400321
-0.346231
-0.294377
-0.243986
-0.193673
-0.141876
-0.0871871
-0.0284299
0.0354162
0.105457
0.18305
0.27005
0.368886
0.482404
0.613474
0.764414
0.936381
1.12891
1.33978
1.56509
1.80013
2.03999
2.28022
2.51725
2.74848
2.97171
3.1842
3.3824
3.56173
3.71635
3.8396
3.9252
3.96776
3.96365
3.91156
3.81275
3.67086
3.4915
3.28155
3.04909
2.80295
2.55042
2.29653
2.0452
1.79969
1.56259
1.33587
1.12097
0.919024
0.731025
0.557894
0.400481
0.259426
0.134982
0.0268591
-0.0658134
-0.144361
-0.210265
-0.264835
-0.308772
-0.341366
-0.360557
-0.364427
-0.351158
-0.320059
-0.27069
-0.206133
-0.134779
-0.0666631
-0.0111508
0.0251678
0.0396709
0.0337548
0.012006
-0.0189693
-0.0514714
-0.0792135
-0.0968536
-0.0995964
-0.0838728
-0.0478347
0.00826795
0.0819747
0.168864
0.263169
0.358695
0.449677
0.531839
0.603028
0.6634
0.715143
0.761765
0.807126
0.854418
0.905334
0.959725
1.01505
1.06682
1.1095
1.13747
1.146
1.13186
1.09373
1.03219
0.949534
0.849378
0.736227
0.615183
0.491395
0.370276
0.258041
0.1601
0.0808065
0.0228584
-0.0132471
-0.0294912
-0.0302057
0
0.309342
1.14121
2.87278
5.75355
9.65853
13.9091
17.3267
18.627
17.0326
12.7622
7.04537
1.58684
-2.22275
-3.86665
-3.73043
-2.66764
-1.53548
-0.723853
-0.359225
-0.359419
-0.357112
-0.349022
-0.332785
-0.307105
-0.272925
-0.233224
-0.191875
-0.152675
-0.118244
-0.0892262
-0.0639935
-0.0389075
-0.0090415
0.0307789
0.0846879
0.155272
0.243424
0.348467
0.468598
0.601419
0.744361
0.895057
1.05155
1.21233
1.3762
1.54223
1.70974
1.87836
2.04818
2.21986
2.39456
2.5736
2.75806
2.94819
3.14289
3.33946
3.53358
3.71922
3.88978
4.03879
4.16056
4.25054
4.30529
4.32198
4.29871
4.23416
4.12767
3.9797
3.79228
3.56934
3.31678
3.04223
2.75476
2.46366
2.1773
1.90338
1.64846
1.4176
1.21404
1.03901
0.892037
0.770711
0.6699
0.583098
0.503871
0.427041
0.349639
0.271384
0.194563
0.123337
0.0626318
0.0164619
-0.0123444
-0.0231008
-0.0162992
0.00498037
0.0353532
0.0694431
0.103078
0.133988
0.161819
0.187536
0.2125
0.237613
0.262857
0.287531
0.310678
0.331546
0.349969
0.366515
0.382364
0.398968
0.417598
0.439014
0.463399
0.490228
0.518469
0.547187
0.576011
0.605404
0.636591
0.671153
0.710433
0.754984
0.804316
0.85701
0.911278
0.965673
1.01967
1.07389
1.12971
1.1889
1.25263
1.31881
1.38052
1.42753
1.44854
1.43388
1.37764
1.2789
1.14199
0.97575
0.792328
0.605692
0.427125
0.264909
0.125396
0.0118862
-0.0755163
-0.139515
-0.184804
-0.217077
-0.242104
-0.259525
0
0.842433
2.57834
5.43965
9.3755
13.8216
17.6477
19.4786
18.3274
14.1965
8.22195
2.19695
-2.26543
-4.42098
-4.54487
-3.53758
-2.35482
-1.52699
-1.15619
-1.09824
-1.06821
-1.03421
-0.99568
-0.951276
-0.900046
-0.841974
-0.777983
-0.709769
-0.63953
-0.569573
-0.501951
-0.438196
-0.379304
-0.325537
-0.275939
-0.228456
-0.179916
-0.126133
-0.0622604
0.0165523
0.114284
0.233175
0.373149
0.530931
0.702024
0.88185
1.06623
1.25211
1.43807
1.62426
1.81193
2.00262
2.19723
2.39529
2.59457
2.79111
2.97937
3.15353
3.3084
3.44013
3.54656
3.62694
3.68083
3.70667
3.70368
3.67013
3.6036
3.50185
3.36369
3.18974
2.98277
2.74766
2.49145
2.22243
1.94771
1.67381
1.40678
1.15203
0.914373
0.69796
0.506524
0.343123
0.209327
0.105222
0.0302259
-0.0173102
-0.042895
-0.0538852
-0.0575878
-0.0599821
-0.0647814
-0.0731078
-0.0838414
-0.0944824
-0.102202
-0.104966
-0.101963
-0.0931847
-0.0790352
-0.0602729
-0.037792
-0.0125346
0.0144634
0.0419731
0.0684568
0.092149
0.111273
0.124345
0.130476
0.129563
0.122335
0.110238
0.0952427
0.0796428
0.0657966
0.0560375
0.052635
0.0576345
0.0727048
0.0989442
0.1367
0.185462
0.243897
0.310031
0.381591
0.456404
0.53281
0.609969
0.687966
0.767733
0.850767
0.938804
1.03367
1.1369
1.24723
1.35584
1.44744
1.50468
1.51265
1.4632
1.35759
1.20665
1.02852
0.844516
0.673569
0.523975
0.396395
0.289852
0.204146
0.137515
0.0871022
0.0495595
0.021544
0
-0.0252044
-0.0360879
0.248956
1.12307
2.99434
6.14293
10.403
14.9492
18.4151
19.4171
17.2603
12.3952
6.29197
0.759772
-2.88391
-4.29968
-4.0362
-3.02554
-2.05441
-1.46335
-1.25469
-1.20599
-1.13902
-1.0679
-0.994843
-0.921085
-0.848042
-0.777199
-0.709742
-0.646354
-0.586758
-0.52959
-0.472443
-0.412155
-0.345324
-0.268977
-0.181225
-0.0817245
0.0282162
0.145822
0.267831
0.391223
0.513918
0.635274
0.756231
0.879102
1.00711
1.14383
1.29264
1.4563
1.63669
1.83461
2.04962
2.28008
2.52315
2.77496
3.03079
3.28534
3.53186
3.76114
3.96293
4.12922
4.25346
4.33067
4.35782
4.3341
4.261
4.14223
3.98354
3.79235
3.5785
3.3515
3.11932
2.88791
2.66114
2.44153
2.23082
2.02983
1.8387
1.65711
1.48455
1.32049
1.16462
1.01693
0.877785
0.748058
0.629023
0.522155
0.429054
0.351312
0.290416
0.247616
0.223661
0.218721
0.23219
0.262491
0.306939
0.361746
0.422445
0.483712
0.540362
0.588156
0.624395
0.648212
0.660484
0.66341
0.659899
0.652954
0.645219
0.638602
0.634365
0.633274
0.635744
0.642008
0.652288
0.666901
0.686366
0.71141
0.74287
0.781487
0.827627
0.880997
0.940479
1.00415
1.06951
1.13389
1.19484
1.25055
1.2999
1.34235
1.37731
1.40376
1.42009
1.42393
1.41211
1.38114
1.32793
1.25046
1.14844
1.02368
0.880258
0.723083
0.559991
0.402795
0.263101
0.1501
0.0690043
0.020303
0
0.00585156
0.0296715
0.0723028
0.509025
1.81918
4.38542
8.21633
12.7295
16.7693
18.9528
18.2664
14.6196
9.00494
3.10121
-1.48622
-3.90694
-4.28359
-3.40116
-2.18997
-1.22489
-0.691143
-0.547236
-0.524307
-0.496171
-0.461245
-0.416823
-0.36114
-0.294117
-0.217375
-0.133585
-0.0459486
0.0423361
0.12861
0.211139
0.289286
0.363477
0.435002
0.505735
0.577839
0.653506
0.734775
0.823418
0.920922
1.02851
1.14721
1.27796
1.42164
1.57918
1.75146
1.9393
2.1432
2.36314
2.59818
2.84617
3.10353
3.36522
3.62477
3.87392
4.10396
4.30708
4.47697
4.60931
4.70183
4.75399
4.76656
4.74101
4.67921
4.58388
4.45785
4.30369
4.12423
3.92287
3.70361
3.47045
3.22678
2.9757
2.72014
2.4629
2.20671
1.95444
1.70919
1.47441
1.25382
1.05115
0.869734
0.712195
0.580151
0.473401
0.389981
0.326847
0.280511
0.247701
0.225845
0.213293
0.209256
0.21355
0.22615
0.247025
0.276009
0.31258
0.355791
0.404172
0.455862
0.508442
0.559003
0.604516
0.642175
0.669751
0.68586
0.69011
0.683117
0.666444
0.642515
0.614514
0.586286
0.562723
0.548835
0.549097
0.566788
0.603521
0.659178
0.732304
0.820838
0.922879
1.03663
1.16113
1.29855
1.45138
1.61411
1.76777
1.88719
1.94822
1.93554
1.84797
1.69902
1.51292
1.31788
1.13807
0.981248
0.844679
0.724802
0.619152
0.524914
0.438937
0.358345
0.280785
0.205053
0.131635
0.0624159
0
0.0671872
0.551379
1.54127
3.33846
6.20129
10.0615
14.2721
17.6265
18.7881
16.9724
12.4672
6.60857
1.16807
-2.48569
-3.93223
-3.66619
-2.60783
-1.56828
-0.873072
-0.554605
-0.501193
-0.479819
-0.465786
-0.456181
-0.449308
-0.442909
-0.434237
-0.42025
-0.397892
-0.364374
-0.317489
-0.255963
-0.179795
-0.0903903
0.0096663
0.116841
0.227118
0.336554
0.441812
0.540605
0.632037
0.716782
0.797111
0.876768
0.960702
1.05464
1.16453
1.29582
1.45271
1.63741
1.84963
2.0863
2.34161
2.60759
2.87492
3.1337
3.3746
3.58987
3.77377
3.92245
4.03349
4.10593
4.14022
4.13718
4.09785
4.02368
3.91664
3.77933
3.61484
3.42651
3.21796
2.99311
2.75501
2.50606
2.24888
1.98659
1.72298
1.46252
1.21025
0.971414
0.751045
0.553516
0.382139
0.238879
0.12422
0.0371852
-0.0245337
-0.0642747
-0.0859674
-0.0941856
-0.0943247
-0.0919233
-0.091851
-0.097757
-0.111602
-0.133392
-0.161208
-0.191564
-0.220049
-0.242139
-0.254027
-0.253301
-0.239312
-0.213205
-0.177587
-0.135969
-0.0921118
-0.0494349
-0.010482
0.0231225
0.0504047
0.0711249
0.0856337
0.0947749
0.0998053
0.102309
0.10409
0.10704
0.113022
0.123738
0.140775
0.16571
0.200186
0.245979
0.305012
0.379435
0.473309
0.59665
0.765418
0.974736
1.18643
1.35241
1.43145
1.40478
1.2823
1.09605
0.885395
0.68251
0.501069
0.337173
0.186188
0.0462968
-0.0827308
-0.201274
-0.309636
-0.408101
-0.49746
-0.579448
-0.655731
-0.727854
-0.795932
-0.579014
0
1.19336
3.33748
6.64269
10.8932
15.2456
18.3638
18.9441
16.4012
11.2933
5.16049
-0.182449
-3.48353
-4.52266
-3.97706
-2.86697
-1.96378
-1.53029
-1.44969
-1.3789
-1.30637
-1.23569
-1.16838
-1.10581
-1.04843
-0.995209
-0.943926
-0.89144
-0.834333
-0.769714
-0.696065
-0.613317
-0.522804
-0.429038
-0.33857
-0.257047
-0.187164
-0.127404
-0.0720386
-0.0125257
0.060155
0.153011
0.268423
0.402732
0.551481
0.710998
0.878027
1.05022
1.22645
1.40672
1.59158
1.78153
1.97628
2.1744
2.37314
2.5685
2.75524
2.92733
3.07875
3.20398
3.29837
3.35864
3.3826
3.36922
3.31854
3.23173
3.11093
2.95921
2.78032
2.57876
2.35989
2.12895
1.89038
1.64822
1.40646
1.16891
0.939167
0.720444
0.515512
0.32661
0.155428
0.00312891
-0.129604
-0.242508
-0.335705
-0.409717
-0.465504
-0.504532
-0.528795
-0.540777
-0.543417
-0.5401
-0.534312
-0.528873
-0.525481
-0.524456
-0.524785
-0.524508
-0.521367
-0.513545
-0.50031
-0.482299
-0.461467
-0.440657
-0.422918
-0.410754
-0.40547
-0.406751
-0.412542
-0.41924
-0.422204
-0.416488
-0.397599
-0.36237
-0.309708
-0.24056
-0.157242
-0.0633275
0.0370251
0.139738
0.24167
0.341155
0.438167
0.53407
0.631077
0.731921
0.838778
0.95003
1.05671
1.14391
1.19451
1.19318
1.13017
1.00412
0.823306
0.60501
0.372756
0.151503
-0.042036
-0.203549
-0.331682
-0.42451
-0.483203
-0.511359
-0.514209
-0.497849
-0.468898
-0.430101
-0.346052
0
1.02922
3.1961
6.68945
11.1352
15.5103
18.4083
18.6195
15.7506
10.513
4.46342
-0.688591
-3.81759
-4.75457
-4.13832
-2.92366
-1.86441
-1.25577
-1.0698
-1.06125
-1.06444
-1.06944
-1.07302
-1.0714
-1.06068
-1.03761
-1.0003
-0.948858
-0.885626
-0.813904
-0.736962
-0.657692
-0.578032
-0.49861
-0.418765
-0.336899
-0.251067
-0.159583
-0.0615147
0.0431664
0.153776
0.269333
0.389066
0.513062
0.642614
0.780199
0.929063
1.09249
1.27297
1.4714
1.68659
1.91528
2.15271
2.39299
2.62983
2.857
3.06876
3.25999
3.42603
3.56224
3.66427
3.72939
3.75529
3.74016
3.6831
3.58467
3.44726
3.27516
3.07417
2.85086
2.6126
2.36557
2.11413
1.86154
1.61068
1.36453
1.12654
0.900725
0.691408
0.502841
0.339198
0.203435
0.0951282
0.0118508
-0.0502183
-0.09549
-0.128259
-0.152305
-0.170833
-0.186631
-0.202221
-0.219796
-0.240942
-0.266177
-0.29452
-0.323304
-0.348402
-0.364844
-0.367748
-0.353755
-0.32097
-0.269763
-0.202817
-0.124765
-0.0415421
0.0403909
0.114518
0.175291
0.218931
0.243667
0.249839
0.23979
0.217567
0.188443
0.158318
0.133073
0.117714
0.115649
0.12898
0.159075
0.206346
0.270342
0.349962
0.443738
0.550032
0.667485
0.795209
0.93145
1.06965
1.19618
1.2935
1.34342
1.33152
1.25137
1.10709
0.913518
0.693693
0.474271
0.276904
0.10953
-0.0281957
-0.134971
-0.210947
-0.258545
-0.281685
-0.285004
-0.273309
-0.251313
-0.222999
-0.187953
0
0.523546
1.78513
4.20177
7.91758
12.4984
16.8326
19.4306
19.0767
15.5048
9.66477
3.35087
-1.63163
-4.266
-4.63333
-3.60818
-2.30124
-1.38451
-1.05936
-1.12606
-1.13251
-1.1274
-1.11246
-1.08645
-1.04961
-1.00319
-0.948852
-0.888598
-0.824332
-0.757597
-0.689399
-0.620155
-0.549802
-0.478019
-0.404518
-0.329285
-0.25266
-0.175259
-0.0976283
-0.019679
0.0598035
0.143392
0.234859
0.33862
0.458917
0.598982
0.760133
0.941547
1.14113
1.35567
1.58106
1.81268
2.04564
2.27492
2.49544
2.70211
2.89013
3.05552
3.1953
3.3076
3.39143
3.44632
3.4728
3.47159
3.44322
3.38804
3.30623
3.19819
3.06478
2.90764
2.7293
2.53341
2.32401
2.10491
1.87968
1.65161
1.42378
1.19933
0.982002
0.777318
0.590518
0.426721
0.289935
0.182105
0.102569
0.0481733
0.0139977
-0.00556002
-0.0157621
-0.0210876
-0.0241119
-0.0262141
-0.0280654
-0.0299863
-0.0322486
-0.0352432
-0.0394529
-0.0452397
-0.0525671
-0.0607363
-0.0682643
-0.0729825
-0.0723664
-0.0640235
-0.0462101
-0.0183887
0.0187499
0.0636674
0.114076
0.167357
0.221045
0.273164
0.322452
0.36838
0.411004
0.450726
0.487983
0.523214
0.557028
0.5904
0.625036
0.663643
0.70988
0.767893
0.841477
0.937186
1.06268
1.21303
1.36677
1.49798
1.58383
1.61032
1.57474
1.48447
1.35366
1.19934
1.03823
0.882517
0.737958
0.606607
0.488741
0.384202
0.293082
0.21479
0.148124
0.0914514
0.0428246
0
-0.0354983
0.166851
0.761627
2.10979
4.58418
8.29369
12.7744
16.9061
19.2371
18.6505
15.0085
9.34342
3.41714
-1.10984
-3.40148
-3.65449
-2.74221
-1.67077
-0.970549
-0.738771
-0.717549
-0.628066
-0.531552
-0.43356
-0.336701
-0.243543
-0.156368
-0.0765961
-0.00489826
0.0585644
0.114431
0.164013
0.20918
0.252211
0.295639
0.342064
0.393978
0.453603
0.52277
0.602832
0.694742
0.79906
0.916005
1.04552
1.18736
1.34121
1.50673
1.68366
1.87169
2.07036
2.27885
2.49569
2.71862
2.94451
3.16947
3.38913
3.59898
3.79463
3.97233
4.1293
4.26365
4.37409
4.45943
4.51655
4.54109
4.52976
4.47871
4.3845
4.24525
4.06177
3.83813
3.58153
3.30158
3.00936
2.71566
2.42894
2.15625
1.90297
1.67265
1.46704
1.28627
1.12906
0.99318
0.875789
0.773934
0.684908
0.606565
0.537515
0.477297
0.426434
0.386081
0.357548
0.342053
0.340232
0.351701
0.374824
0.406746
0.443764
0.481866
0.517474
0.5481
0.572772
0.592129
0.608169
0.623728
0.641819
0.665006
0.694848
0.731807
0.775451
0.824689
0.877895
0.933163
0.988235
1.04062
1.08843
1.13091
1.16899
1.20534
1.24405
1.28949
1.34597
1.41721
1.49728
1.57334
1.63013
1.65476
1.64024
1.58639
1.49824
1.38321
1.24861
1.10292
0.95203
0.799767
0.649776
0.50632
0.374141
0.258014
0.161728
0.0870159
0.0337853
0
-0.0130634
0.0077877
0.436994
1.38038
3.14276
5.92794
9.60638
13.5374
16.6299
17.7167
16.1153
12.0614
6.71026
1.64475
-1.84622
-3.29694
-3.11224
-2.18533
-1.35893
-0.901632
-0.790532
-0.726485
-0.658049
-0.588501
-0.51911
-0.451048
-0.385113
-0.321346
-0.258855
-0.196217
-0.131763
-0.0639991
0.00800209
0.0844298
0.164879
0.248468
0.334284
0.42179
0.511047
0.602688
0.697656
0.796823
0.900644
1.00903
1.12148
1.23756
1.3575
1.48256
1.61528
1.75927
1.91861
2.09706
2.29707
2.51898
2.76049
3.01662
3.28059
3.54229
3.78822
4.00583
4.18494
4.31882
4.40438
4.44162
4.43254
4.38003
4.28705
4.15805
3.99859
3.81275
3.60351
3.37401
3.12821
2.87064
2.60549
2.33696
2.06933
1.80692
1.55406
1.31491
1.09325
0.892146
0.713775
0.559211
0.427936
0.318294
0.227892
0.154091
0.0944508
0.0470223
0.0104262
-0.0162526
-0.0336863
-0.0425133
-0.0435331
-0.0378183
-0.0267519
-0.0118627
0.00500875
0.0219722
0.0375082
0.0508369
0.0622362
0.0731996
0.0863554
0.105124
0.133181
0.173654
0.228409
0.298181
0.382632
0.48029
0.588691
0.704688
0.824762
0.945234
1.0622
1.1712
1.26715
1.34533
1.40136
1.43149
1.43298
1.40468
1.34721
1.26308
1.15638
1.03241
0.897711
0.758489
0.620013
0.487225
0.36504
0.257813
0.168477
0.0986967
0.0487808
0.0175975
0.00260057
0
0.0095187
0.117596
0.474643
1.38947
3.24724
6.2648
10.2012
14.1958
16.9488
17.2639
14.6926
9.87473
4.30725
-0.356889
-3.06194
-3.71457
-2.99963
-1.91914
-1.0969
-0.721735
-0.706724
-0.706336
-0.701745
-0.690957
-0.671311
-0.641251
-0.60043
-0.54916
-0.488423
-0.419675
-0.344638
-0.265171
-0.183152
-0.100362
-0.0183334
0.0618409
0.139794
0.216064
0.292153
0.370386
0.453577
0.54455
0.645669
0.758534
0.883881
1.02176
1.17218
1.33548
1.51241
1.70401
1.91114
2.1339
2.371
2.61942
2.8744
3.12985
3.37898
3.6148
3.83065
4.02009
4.17716
4.29813
4.38111
4.42485
4.42845
4.39122
4.31272
4.19308
4.03332
3.83577
3.60603
3.35163
3.08008
2.79895
2.51594
2.23858
1.97366
1.72677
1.50206
1.30213
1.12806
0.979545
0.855056
0.751973
0.666847
0.59565
0.533861
0.47702
0.421418
0.36468
0.306061
0.247023
0.191418
0.144369
0.110913
0.0946681
0.0968874
0.11616
0.148809
0.189831
0.234062
0.277325
0.317352
0.353459
0.386067
0.416474
0.446413
0.477565
0.511159
0.547729
0.587073
0.628444
0.670849
0.713444
0.755976
0.799137
0.844713
0.895462
0.954706
1.02587
1.11476
1.22835
1.36399
1.50422
1.62652
1.70959
1.73884
1.709
1.62337
1.49104
1.32375
1.13458
0.936344
0.737498
0.543404
0.358302
0.18689
0.0339853
-0.0961763
-0.202256
-0.284713
-0.34584
-0.390117
-0.415305
0
0.828012
2.31457
4.7396
8.19734
12.3054
16.0847
18.2151
17.6399
14.1911
8.80593
3.13559
-1.24574
-3.54126
-3.93046
-3.20445
-2.27172
-1.53781
-1.07608
-0.834179
-0.741615
-0.671561
-0.609036
-0.550275
-0.49294
-0.435447
-0.377326
-0.319172
-0.262175
-0.2074
-0.155075
-0.104187
-0.0525541
0.00264907
0.0640911
0.133452
0.210825
0.295307
0.385345
0.479312
0.576198
0.676106
0.780414
0.891606
1.01286
1.14751
1.29844
1.46773
1.65666
1.86538
2.09266
2.33584
2.59073
2.85172
3.11214
3.36371
3.59728
3.80463
3.97922
4.11588
4.21046
4.26171
4.26988
4.23649
4.16425
4.0569
3.919
3.7554
3.57073
3.36877
3.15335
2.92736
2.69215
2.44883
2.19895
1.94483
1.68973
1.43779
1.19388
0.963159
0.750625
0.560387
0.395905
0.259608
0.150176
0.0644455
-0.00178342
-0.0527883
-0.0920942
-0.122013
-0.143651
-0.157326
-0.163188
-0.162214
-0.155738
-0.145717
-0.134825
-0.125943
-0.121513
-0.122979
-0.130403
-0.142361
-0.156171
-0.16843
-0.175726
-0.175424
-0.166311
-0.148423
-0.122873
-0.0915101
-0.0563766
-0.019217
0.018814
0.0571937
0.0958698
0.135015
0.174828
0.215479
0.257245
0.300739
0.347136
0.398307
0.456762
0.525352
0.60718
0.707568
0.834724
0.988826
1.14898
1.28728
1.37704
1.40098
1.3558
1.25146
1.1062
0.940274
0.77117
0.609314
0.457961
0.318343
0.192088
0.0806923
-0.0150803
-0.0951321
-0.160213
-0.212089
-0.2532
-0.286532
-0.302194
0
0.841261
2.57586
5.46727
9.43525
13.8471
17.5358
19.1689
17.8629
13.7162
7.89615
2.1561
-1.97406
-3.84399
-3.81183
-2.83044
-1.8696
-1.31116
-1.15399
-1.09581
-1.00532
-0.906227
-0.801685
-0.69307
-0.582316
-0.471897
-0.36446
-0.262571
-0.1685
-0.0838582
-0.00938392
0.0551769
0.111053
0.160298
0.205559
0.249822
0.29621
0.347819
0.407674
0.478713
0.563683
0.664961
0.7843
0.922543
1.07942
1.25346
1.4422
1.64243
1.85072
2.06377
2.27873
2.49326
2.70546
2.91367
3.11623
3.3114
3.4973
3.67185
3.83251
3.97569
4.09688
4.19195
4.25691
4.28726
4.27844
4.22635
4.12812
3.98274
3.79165
3.55923
3.2944
3.00854
2.71293
2.41798
2.13305
1.86615
1.62324
1.40782
1.22093
1.06152
0.927137
0.814566
0.720471
0.641788
0.575979
0.52092
0.474714
0.435762
0.402741
0.374617
0.350633
0.330283
0.313242
0.299361
0.288585
0.281065
0.277226
0.277758
0.283469
0.294991
0.31242
0.335153
0.361609
0.389498
0.416395
0.440369
0.460505
0.47713
0.491675
0.506206
0.522778
0.542767
0.566477
0.593212
0.62143
0.649165
0.674566
0.696405
0.71444
0.729549
0.743638
0.75935
0.779667
0.807474
0.845194
0.894504
0.956244
1.0305
1.11666
1.2133
1.31855
1.42958
1.54114
1.64521
1.73266
1.79437
1.82251
1.81167
1.75962
1.66772
1.5408
1.38681
1.21654
1.04071
0.867362
0.701476
0.545567
0.39911
0.259097
0.121248
-0.0192111
-0.165103
-0.315772
-0.467717
-0.603131
0
1.2275
3.20199
6.0923
9.92002
14.2535
18.0683
20.0062
19.0095
14.9794
8.99302
2.86683
-1.70532
-3.90921
-4.01436
-2.97823
-1.81265
-1.05698
-0.763057
-0.700757
-0.643553
-0.587315
-0.531021
-0.473782
-0.41441
-0.351651
-0.284476
-0.212418
-0.135836
-0.0560168
0.0250254
0.104835
0.181025
0.251946
0.317185
0.377846
0.436549
0.497126
0.564093
0.642003
0.734817
0.845098
0.973953
1.12137
1.28617
1.4661
1.65821
1.85919
2.06567
2.27459
2.4834
2.69026
2.89417
3.09502
3.29344
3.49067
3.68807
3.88672
4.08688
4.28542
4.47248
4.63361
4.7532
4.81877
4.82389
4.76853
4.65706
4.49523
4.28812
4.0444
3.77496
3.48871
3.19292
2.89468
2.60138
2.32017
2.05749
1.81835
1.60582
1.42091
1.26269
1.12865
1.01497
0.91738
0.831823
0.755097
0.685462
0.622718
0.568148
0.523876
0.492261
0.475068
0.472806
0.484425
0.507422
0.538293
0.573164
0.6084
0.641129
0.669481
0.692046
0.708108
0.717479
0.720474
0.717919
0.711151
0.701932
0.69226
0.684086
0.678989
0.677902
0.681151
0.688477
0.699139
0.712108
0.726236
0.740356
0.753317
0.763935
0.771055
0.773644
0.770932
0.762597
0.748929
0.730862
0.709858
0.687656
0.665955
0.64611
0.62899
0.615079
0.604587
0.597646
0.594472
0.595404
0.600811
0.6109
0.625614
0.644476
0.666434
0.690308
0.715303
0.741438
0.769746
0.802118
0.840797
0.88765
0.943436
1.00709
1.07624
1.14671
1.21276
1.26813
1.30737
1.32664
1.32424
1.30076
1.25884
1.20261
1.13694
1.06667
0.996061
0.928121
0.864888
0.807735
0.757413
0.714141
0.677725
0.647506
53
196
342
488
637
781
922
1064
1211
1360
1503
1651
1805
1961
2110
2259
2410
2559
2709
2858
3002
3142
3284
3433
3588
3727
0
0
0
0
0
0
0
0
0
0
0
0
0
0
0
0
0
0
0
0
0
0
0
0
0
0
0
0
0
0
0
0
0
0
0
0
0
0
0
0
0
0
0
0
0
0
0
0
0
0
0
0
0
0
0
0
0
0
0
0
0
0
0
0
0
0
0
0
0
0
0
0
0
0
0
0
0
0
0
0
0
0
0
0
0
0
0
0
0
0
0
0
0
0
0
0
0
0
0
0
0
0
0
0
0
0
0
0
0
0
0
0
0
0
0
0
0
0
0
0
0
0
0
0
0
0
0
0
0
0
0
0
0
0
0
0
0
0
0
0
0
0
0
0
0
0
0
0
0
0
0
0
0
0
0
0
0
0
0
0
0
0
0
0
0
0
0
0
0
0
0
0
0
0
0
0
0
0
0
0
0
0
0
0
0
0
0
0
0
0
0
0
0
0
0
0
0
0
0
0
0
0
0
0
0
0
0
0
0
0
0
0
0
0
0
0
0
0
0
0
0
0
0
0
0
0
0
0
0
0
0
0
0
0
0
0
0
0
0
0
0
0
0
0
0
0
0
0
0
0
0
0
0
0
0
0
0
0
0
0
0
0
0
0
0
0
0
0
0
0
0
0
0
0
0
0
0
0
0
0
0
0
0
0
0
0
0
0
0
0
0
0
0
0
0
0
0
0
0
0
0
0
0
0
0
0
0
0
0
0
0
0
0
0
0
0
0
0
0
0
0
0
0
0
0
0
0
0
0
0
0
0
0
0
0
0
0
0
0
0
0
0
0
0
0
0
0
0
0
0
0
0
0
0
0
0
0
0
0
0
0
0
0
0
0
0
0
0
0
0
0
0
0
0
0
0
0
0
0
0
0
0
0
0
0
0
0
0
0
0
0
0
0
0
0
0
0
0
0
0
0
0
0
0
0
0
0
0
0
0
0
0
0
0
0
0
0
0
0
0
0
0
0
0
0
0
0
0
0
0
0
0
0
0
0
0
0
0
0
0
0
0
0
0
0
0
0
0
0
0
0
0
0
0
0
0
0
0
0
0
0
0
0
0
0
0
0
0
0
0
0
0
0
0
0
0
0
0
0
0
0
0
0
0
0
0
0
0
0
0
0
0
0
0
0
0
0
0
0
0
0
0
0
0
0
0
0
0
0
0
0
0
0
0
0
0
0
0
0
0
0
0
0
0
0
0
0
0
0
0
0
0
0
0
0
0
0
0
0
0
0
0
0
0
0
0
0
0
0
0
0
0
0
0
0
0
0
0
0
0
0
0
0
0
0
0
0
0
0
0
0
0
0
0
0
0
0
0
0
0
0
0
0
0
0
0
0
0
0
0
0
0
0
0
0
0
0
0
0
0
0
0
0
0
0
0
0
0
0
0
0
0
0
0
0
0
0
0
0
0
0
0
0
0
0
0
0
0
0
0
0
0
0
0
0
0
0
0
0
0
0
0
0
0
0
0
0
0
0
0
0
0
0
0
0
0
0
0
0
0
0
0
0
0
0
0
0
0
0
0
0
0
0
0
0
0
0
0
0
0
0
0
0
0
0
0
0
0
0
0
0
0
0
0
0
0
0
0
0
0
0
0
0
0
0
0
0
0
0
0
0
0
0
0
0
0
0
0
0
0
0
0
0
0
0
0
0
0
0
0
0
0
0
0
0
0
0
0
0
0
0
0
0
0
0
0
0
0
0
0
0
0
0
0
0
0
0
0
0
0
0
0
0
0
0
0
0
0
0
0
0
0
0
0
0
0
0
0
0
0
0
0
0
0
0
0
0
0
0
0
0
0
0
0
0
0
0
0
0
0
0
0
0
0
0
0
0
0
0
0
0
0
0
0
0
0
0
0
0
0
0
0
0
0
0
0
0
0
0
0
0
0
0
0
0
0
0
0
0
0
0
0
0
0
0
0
0
0
0
0
0
0
0
0
0
0
0
0
0
0
0
0
0
0
0
0
0
0
0
0
0
0
0
0
0
0
0
0
0
0
0
0
0
0
0
0
0
0
0
0
0
0
0
0
0
0
0
0
0
0
0
0
0
0
0
0
0
0
0
0
0
0
0
0
0
0
0
0
0
0
0
0
0
0
0
0
0
0
0
0
0
0
0
0
0
0
0
0
0
0
0
0
0
0
0
0
0
0
0
0
0
0
0
0
0
0
0
0
0
0
0
0
0
0
0
0
0
0
0
0
0
0
0
0
0
0
0
0
0
0
0
0
0
0
0
0
0
0
0
0
0
0
0
0
0
0
0
0
0
0
0
0
0
0
0
0
0
0
0
0
0
0
0
0
0
0
0
0
0
0
0
0
0
0
0
0
0
0
0
0
0
0
0
0
0
0
0
0
0
0
0
0
0
0
0
0
0
0
0
0
0
0
0
0
0
0
0
0
0
0
0
0
0
0
0
0
0
0
0
0
0
0
0
0
0
0
0
0
0
0
0
0
0
0
0
0
0
0
0
0
0
0
0
0
0
0
0
0
0
0
0
0
0
0
0
0
0
0
0
0
0
0
0
0
0
0
0
0
0
0
0
0
0
0
0
0
0
0
0
0
0
0
0
0
0
0
0
0
0
0
0
0
0
0
0
0
0
0
0
0
0
0
0
0
0
0
0
0
0
0
0
0
0
0
0
0
0
0
0
0
0
0
0
0
0
0
0
0
0
0
0
0
0
0
0
0
0
0
0
0
0
0
0
0
0
0
0
0
0
0
0
0
0
0
0
0
0
0
0
0
0
0
0
0
0
0
0
0
0
0
0
0
0
0
0
0
0
0
0
0
0
0
0
0
0
0
0
0
0
0
0
0
0
0
0
0
0
0
0
0
0
0
0
0
0
0
0
0
0
0
0
0
0
0
0
0
0
0
0
0
0
0
0
0
0
0
0
0
0
0
0
0
0
0
0
0
0
0
0
0
0
0
0
0
0
0
0
0
0
0
0
0
0
0
0
0
0
0
0
0
0
0
0
0
0
0
0
0
0
0
0
0
0
0
0
0
0
0
0
0
0
0
0
0
0
0
0
0
0
0
0
0
0
0
0
0
0
0
0
0
0
0
0
0
0
0
0
0
0
0
0
0
0
0
0
0
0
0
0
0
0
0
0
0
0
0
0
0
0
0
0
0
0
0
0
0
0
0
0
0
0
0
0
0
0
0
0
0
0
0
0
0
0
0
0
0
0
0
0
0
0
0
0
0
0
0
0
0
0
0
0
0
0
0
0
0
0
0
0
0
0
0
0
0
0
0
0
0
0
0
0
0
0
0
0
0
0
0
0
0
0
0
0
0
0
0
0
0
0
0
0
0
0
0
0
0
0
0
0
0
0
0
0
0
0
0
0
0
0
0
0
0
0
0
0
0
0
0
0
0
0
0
0
0
0
0
0
0
0
0
0
0
0
0
0
0
0
0
0
0
0
0
0
0
0
0
0
0
0
0
0
0
0
0
0
0
0
0
0
0
0
0
0
0
0
0
0
0
0
0
0
0
0
0
0
0
0
0
0
0
0
0
0
0
0
0
0
0
0
0
0
0
0
0
0
0
0
0
0
0
0
0
0
0
0
0
0
0
0
0
0
0
0
0
0
0
0
0
0
0
0
0
0
0
0
0
0
0
0
0
0
0
0
0
0
0
0
0
0
0
0
0
0
0
0
0
0
0
0
0
0
0
0
0
0
0
0
0
0
0
0
0
0
0
0
0
0
0
0
0
0
0
0
0
0
0
0
0
0
0
0
0
0
0
0
0
0
0
0
0
0
0
0
0
0
0
0
0
0
0
0
0
0
0
0
0
0
0
0
0
0
0
0
0
0
0
0
0
0
0
0
0
0
0
0
0
0
0
0
0
0
0
0
0
0
0
0
0
0
0
0
0
0
0
0
0
0
0
0
0
0
0
0
0
0
0
0
0
0
0
0
0
0
0
0
0
0
0
0
0
0
0
0
0
0
0
0
0
0
0
0
0
0
0
0
0
0
0
0
0
0
0
0
0
0
0
0
0
0
0
0
0
0
0
0
0
0
0
0
0
0
0
0
0
0
0
0
0
0
0
0
0
0
0
0
0
0
0
0
0
0
0
0
0
0
0
0
0
0
0
0
0
0
0
0
0
0
0
0
0
0
0
0
0
0
0
0
0
0
0
0
0
0
0
0
0
0
0
0
0
0
0
0
0
0
0
0
0
0
0
0
0
0
0
0
0
0
0
0
0
0
0
0
0
0
0
0
0
0
0
0
0
0
0
0
0
0
0
0
0
0
0
0
0
0
0
0
0
0
0
0
0
0
0
0
0
0
0
0
0
0
0
0
0
0
0
0
0
0
0
0
0
0
0
0
0
0
0
0
0
0
0
0
0
0
0
0
0
0
0
0
0
0
0
0
0
0
0
0
0
0
0
0
0
0
0
0
0
0
0
0
0
0
0
0
0
0
0
0
0
0
0
0
0
0
0
0
0
0
0
0
0
0
0
0
0
0
0
0
0
0
0
0
0
0
0
0
0
0
0
0
0
0
0
0
0
0
0
0
0
0
0
0
0
0
0
0
0
0
0
0
0
0
0
0
0
0
0
0
0
0
0
0
0
0
0
0
0
0
0
0
0
0
0
0
0
0
0
0
0
0
0
0
0
0
0
0
0
0
0
0
0
0
0
0
0
0
0
0
0
0
0
0
0
0
0
0
0
0
0
0
0
0
0
0
0
0
0
0
0
0
0
0
0
0
0
0
0
0
0
0
0
0
0
0
0
0
0
0
0
0
0
0
0
0
0
0
0
0
0
0
0
0
0
0
0
0
0
0
0
0
0
0
0
0
0
0
0
0
0
0
0
0
0
0
0
0
0
0
0
0
0
0
0
0
0
0
0
0
0
0
0
0
0
0
0
0
0
0
0
0
0
0
0
0
0
0
0
0
0
0
0
0
0
0
0
0
0
0
0
0
0
0
0
0
0
0
0
0
0
0
0
0
0
0
0
0
0
0
0
0
0
0
0
0
0
0
0
0
0
0
0
0
0
0
0
0
0
0
0
0
0
0
0
0
0
0
0
0
0
0
0
0
0
0
0
0
0
0
0
0
0
0
0
0
0
0
0
0
0
0
0
0
0
0
0
0
0
0
0
0
0
0
0
0
0
0
0
0
0
0
0
0
0
0
0
0
0
0
0
0
0
0
0
0
0
0
0
0
0
0
0
0
0
0
0
0
0
0
0
0
0
0
0
0
0
0
0
0
0
0
0
0
0
0
0
0
0
0
0
0
0
0
0
0
0
0
0
0
0
0
0
0
0
0
0
0
0
0
0
0
0
0
0
0
0
0
0
0
0
0
0
0
0
0
0
0
0
0
0
0
0
0
0
0
0
0
0
0
0
0
0
0
0
0
0
0
0
0
0
0
0
0
0
0
0
0
0
0
0
0
0
0
0
0
0
0
0
0
0
0
0
0
0
0
0
0
0
0
0
0
0
0
0
0
0
0
0
0
0
0
0
0
0
0
0
0
0
0
0
0
0
0
0
0
0
0
0
0
0
0
0
0
0
0
0
0
0
0
0
0
0
0
0
0
0
0
0
0
0
0
0
0
0
0
0
0
0
0
0
0
0
0
0
0
0
0
0
0
0
0
0
0
0
0
0
0
0
0
0
0
0
0
0
0
0
0
0
0
0
0
0
0
0
0
0
0
0
0
0
0
0
0
0
0
0
0
0
0
0
0
0
0
0
0
0
0
0
0
0
0
0
0
0
0
0
0
0
0
0
0
0
0
0
0
0
0
0
0
0
0
0
0
0
0
0
0
0
0
0
0
0
0
0
0
0
0
0
0
0
0
0
0
0
0
0
0
0
0
0
0
0
0
0
0
0
0
0
0
0
0
0
0
0
0
0
0
0
0
0
0
0
0
0
0
0
0
0
0
0
0
0
0
0
0
0
0
0
0
0
0
0
0
0
0
0
0
0
0
0
0
0
0
0
0
0
0
0
0
0
0
0
0
0
0
0
0
0
0
0
0
0
0
0
0
0
0
0
0
0
0
0
0
0
0
0
0
0
0
0
0
0
0
0
0
0
0
0
0
0
0
0
0
0
0
0
0
0
0
0
0
0
0
0
0
0
0
0
0
0
0
0
0
0
0
0
0
0
0
0
0
0
0
0
0
0
0
0
0
0
0
0
0
0
0
0
0
0
0
0
0
0
0
0
0
0
0
0
0
0
0
0
0
0
0
0
0
0
0
0
0
0
0
0
0
0
0
0
0
0
0
0
0
0
0
0
0
0
0
0
0
0
0
0
0
0
0
0
0
0
0
0
0
0
0
0
0
0
0
0
0
0
0
0
0
0
0
0
0
0
0
0
0
0
0
0
0
0
0
0
0
0
0
0
0
0
0
0
0
0
0
0
0
0
0
0
0
0
0
0
0
0
0
0
0
0
0
0
0
0
0
0
0
0
0
0
0
0
0
0
0
0
0
0
0
0
0
0
0
0
0
0
0
0
0
0
0
0
0
0
0
0
0
0
0
0
0
0
0
0
0
0
0
0
0
0
0
0
0
0
0
0
0
0
0
0
0
0
0
0
0
0
0
0
0
0
0
0
0
0
0
0
0
0
0
0
0
0
0
0
0
0
0
0
0
0
0
0
0
0
0
0
0
0
0
0
0
0
0
0
0
0
0
0
0
0
0
0
0
0
0
0
0
0
0
0
0
0
0
0
0
0
0
0
0
0
0
0
0
0
0
0
0
0
0
0
0
0
0
0
0
0
0
0
0
0
0
0
0
0
0
0
0
0
0
0
0
0
0
0
0
0
0
0
0
0
0
0
0
0
0
0
0
0
0
0
0
0
0
0
0
0
0
0
0
0
0
0
0
0
0
0
0
0
0
0
0
0
0
0
0
0
0
0
0
0
0
0
0
0
0
0
0
0
0
0
0
0
0
0
0
0
0
0
0
0
0
0
0
0
0
0
0
0
0
0
0
0
0
0
0
0
0
0
0
0
0
0
0
0
0
0
0
0
0
0
0
0
0
0
0
0
0
0
0
0
0
0
0
0
0
0
0
0
0
0
0
0
0
0
0
0
0
0
0
0
0
0
0
0
0
0
0
0
0
0
0
0
0
0
0
0
0
0
0
0
0
0
0
0
0
0
0
0
0
0
0
0
0
0
0
0
0
0
0
0
0
0
0
0
0
0
0
0
0
0
0
0
0
0
0
0
0
0
0
0
0
0
0
0
0
0
0
0
0
0
0
0
0
0
0
0
0
0
0
0
0
0
0
0
0
0
0
0
0
0
0
0
0
0
0
0
0
0
0
0
0
0
0
0
0
0
0
0
0
0
0
0
0
0
0
0
0
0
0
0
0
0
0
0
0
0
0
0
0
0
0
0
0
0
0
0
0
0
0
0
0
0
0
0
0
0
0
0
0
0
0
0
0
0
0
0
0
0
0
0
0
0
0
0
0
0
0
0
0
0
0
0
0
0
0
0
0
0
0
0
0
0
0
0
0
0
0
0
0
0
0
0
0
0
0
0
0
0
0
0
0
0
0
0
0
0
0
0
0
0
0
0
0
0
0
0
0
0
0
0
0
0
0
0
0
0
0
0
0
0
0
0
0
0
0
0
0
0
0
0
0
0
0
0
0
0
0
0
0
0
0
0
0
0
0
0
0
0
0
0
0
0
0
0
0
0
0
0
0
0
0
0
0
0
0
0
0
0
0
0
0
0
0
0
0
0
0
0
0
0
0
0
0
0
0
0
0
0
0
0
0
0
0
0
0
0
0
0
0
0
0
0
0
0
0
0
0
0
0
0
0
0
0
0
0
0
0
0
0
0
0
0
0
0
0
0
0
0
0
0
0
0
0
0
0
0
0
0
0
0
0
0
0
0
0
0
0
0
0
0
0
0
0
0
0
0
0
0
0
0
0
0
0
0
0
0
0
0
0
0
0
0
0
0
0
0
0
0
0
0
0
0
0
0
0
0
0
0
0
0
0
0
0
0
0
0
0
0
0
0
0
0
0
0
0
0
0
0
0
0
0
0
0
0
0
0
0
0
0
0
0
0
0
0
0
0
0
0
0
0
0
0
0
0
0
0
0
0
0
0
0
0
0
0
0
0
0
0
0
0
0
0
0
0
0
0
0
0
0
0
0
0
0
0
0
0
0
0
0
0
0
0
0
0
0
0
0
0
0
0
0
0
0
0
0
0
0
0
0
0
0
0
0
0
0
0
0
0
0
0
0
0
0
0
0
0
0
0
0
0
0
0
0
0
0
0
0
0
0
0
0
0
0
0
0
0
0
0
0
0
0
0
0
0
0
0
0
0
0
0
0
0
0
0
0
0
0
0
0
0
0
0
0
0
0
0
0
0
0
0
0
0
0
0
0
0
0
0
0
0
0
0
0
0
0
0
0
0
0
0
0
0
0
0
0
0
0
0
0
0
0
