1.79648
1.79637
1.80179
1.81247
1.82678
1.84292
1.85898
1.87339
1.88518
1.89398
1.89986
1.90311
1.90418
1.90363
1.90217
1.90056
1.89939
1.89864
1.89732
1.8929
1.88173
1.85998
1.82485
1.77573
1.71464
1.64595
1.57519
1.50762
1.44628
1.39193
1.34422
1.30169
1.26268
1.22604
1.19174
1.16094
1.13573
1.11862
1.11168
1.11643
1.13337
1.16188
1.20032
1.24612
1.29625
1.34737
1.39599
1.43933
1.47595
1.50608
1.53173
1.55639
1.58425
1.61933
1.66449
1.7201
1.78472
1.85602
1.93111
2.00641
2.07843
2.14447
2.20289
2.25313
2.29542
2.32977
2.35575
2.37335
2.38218
2.38201
2.37339
2.35799
2.33836
2.31731
2.29704
2.27842
2.26102
2.24373
2.22511
2.20387
2.17898
2.14954
2.11437
2.07178
2.01995
1.95647
1.87864
1.78419
1.6717
1.54076
1.39188
1.22622
1.0452
0.850684
0.643457
0.425152
0.141126
-0.231043
0
1.46939
4.53356
9.07216
14.2941
18.869
21.3733
20.8706
17.3432
11.736
5.58225
0.39999
-2.84548
-3.97709
-3.48176
-2.15354
-0.71265
0.410955
1.08512
1.25067
1.1472
0.929118
0.643444
0.391669
0.286098
0.336638
0.441664
0.559902
0.67954
0.794043
0.898731
0.991095
1.07063
1.13824
1.19544
1.24307
1.28159
1.31129
1.33235
1.3457
1.35361
1.35994
1.36962
1.38778
1.41862
1.46426
1.52502
1.59935
1.68447
1.77712
1.87423
1.9741
2.07608
2.1803
2.28727
2.39754
2.51139
2.62745
2.74196
2.84948
2.94397
3.02012
3.07448
3.10626
3.1177
3.11387
3.10203
3.0906
3.08783
3.10003
3.12974
3.17611
3.23967
3.32086
3.41492
3.5096
3.5916
3.6493
3.67527
3.66771
3.63044
3.57139
3.50016
3.42547
3.3529
3.28408
3.21919
3.15794
3.0997
3.04373
2.98941
2.93643
2.88494
2.83548
2.78898
2.74664
2.70986
2.68016
2.659
2.64764
2.64719
2.65804
2.6792
2.70803
2.74033
2.77065
2.79351
2.80443
2.80077
2.78224
2.75091
2.71067
2.6663
2.62237
2.58199
2.54622
2.51518
2.48837
2.46524
2.44579
2.43107
2.42319
2.42493
2.44087
2.47729
2.53743
2.61486
2.6951
2.76176
2.80102
2.80503
2.77325
2.71147
2.62915
2.53575
2.43789
2.33793
2.23576
2.13092
2.02323
1.91352
1.80417
1.70009
1.60893
1.53845
1.4951
1.48224
1.49894
1.54123
1.59993
1.66439
1.72494
1.77489
1.81133
1.83482
1.84795
1.85384
1.8551
1.85345
1.84959
1.84412
1.8382
1.83387
1.83411
1.84256
1.86271
1.89969
1.9632
2.05942
2.17253
2.27887
2.35553
2.38866
2.37839
2.33802
2.28757
2.24461
2.21665
2.19618
2.1757
2.14941
2.11318
2.06587
2.00963
1.94932
1.89115
1.84068
1.80077
1.77397
1.76165
1.76407
1.78066
1.81044
1.8523
1.90523
1.96812
2.04009
2.12024
2.20749
2.30054
2.39785
2.49775
2.59832
2.69717
2.79147
2.87811
2.95368
3.01458
3.05828
3.08327
3.08936
3.07779
3.05109
3.01259
2.96569
2.91328
2.85728
2.79903
2.73947
2.67955
2.6207
2.56485
2.51401
2.47014
2.43409
2.40416
2.37668
2.34681
2.3097
2.26182
2.202
2.13199
2.05633
1.9816
1.91455
1.86332
1.84333
1.85678
1.87619
1.86109
1.77235
1.5882
1.31503
0.988006
0.23877
0
0.885034
3.40613
7.56786
12.6328
17.2416
19.9117
19.679
16.5201
11.3335
5.53346
0.50483
-2.82
-4.13907
-3.73249
-2.26134
-0.500724
0.923711
1.70937
1.89843
1.85271
1.80827
1.76234
1.70881
1.63905
1.54477
1.42141
1.27049
1.10011
0.923282
0.754966
0.604535
0.47352
0.363774
0.279864
0.225516
0.193867
0.169232
0.135518
0.0812256
0.00351639
-0.0903519
-0.185046
-0.262247
-0.306971
-0.317434
-0.296009
-0.252032
-0.198643
-0.148971
-0.111388
-0.0883385
-0.0820091
-0.0927322
-0.119516
-0.160101
-0.211849
-0.271463
-0.33515
-0.398992
-0.459511
-0.51428
-0.562135
-0.603713
-0.641112
-0.677055
-0.714049
-0.753709
-0.796442
-0.841556
-0.887672
-0.933252
-0.977169
-1.01899
-1.0588
-1.09715
-1.13509
-1.17406
-1.21579
-1.26206
-1.31442
-1.37391
-1.44071
-1.51394
-1.59178
-1.67123
-1.74849
-1.8194
-1.87972
-1.92523
-1.95267
-1.95975
-1.94537
-1.91
-1.8558
-1.78673
-1.70827
-1.62672
-1.54919
-1.4819
-1.4291
-1.39242
-1.37099
-1.36196
-1.36155
-1.36615
-1.37308
-1.38088
-1.38915
-1.39801
-1.40759
-1.41768
-1.42756
-1.43588
-1.44083
-1.4404
-1.43241
-1.4145
-1.38322
-1.33257
-1.25211
-1.13296
-0.993015
-0.869608
-0.802968
-0.823767
-0.939857
-1.12883
-1.34333
-1.52948
-1.64943
-1.71541
-1.75477
-1.77923
-1.79149
-1.79266
-1.783
-1.76232
-1.73059
-1.68865
-1.63743
-1.58077
-1.52527
-1.47749
-1.44219
-1.42102
-1.41228
-1.4119
-1.41509
-1.4181
-1.41944
-1.41965
-1.42009
-1.42213
-1.42633
-1.43183
-1.43648
-1.43748
-1.43075
-1.41255
-1.38775
-1.36733
-1.3637
-1.38531
-1.43217
-1.49466
-1.55572
-1.596
-1.59995
-1.57027
-1.51659
-1.44666
-1.3667
-1.28451
-1.20769
-1.14254
-1.09324
-1.06158
-1.0473
-1.0486
-1.06295
-1.08731
-1.11897
-1.1554
-1.19376
-1.23047
-1.2599
-1.27567
-1.27151
-1.24267
-1.18743
-1.10789
-1.00977
-0.901112
-0.790286
-0.683528
-0.583078
-0.489378
-0.400616
-0.313276
-0.223017
-0.125704
-0.0183578
0.100081
0.229126
0.366484
0.503105
0.625363
0.720146
0.778111
0.795792
0.775913
0.725871
0.655082
0.57235
0.48452
0.395952
0.309063
0.226596
0.151664
0.0877808
0.038303
0.00554199
-0.0100677
-0.010371
0.000695038
0.0178753
0.0357258
0.0500462
0.0588543
0.061948
0.0604767
0.0569813
0.0549755
0.0590969
0.0804966
0.157702
0.353705
0.622604
0.873818
1.00024
0.926776
0.648058
0.227267
-0.278975
-0.492722
0
1.61487
4.63798
8.90911
13.6464
17.5708
19.3616
18.2434
14.3781
8.83547
3.15537
-1.26512
-3.65718
-4.03539
-3.01243
-1.41785
0.0626736
1.07927
1.59251
1.56238
1.52393
1.47869
1.42557
1.36446
1.29585
1.2205
1.13947
1.05385
0.964306
0.872234
0.780337
0.692919
0.615562
0.553685
0.511563
0.491261
0.492028
0.510389
0.540992
0.578002
0.616594
0.654058
0.690099
0.725523
0.761352
0.798565
0.837792
0.879239
0.922898
0.968737
1.01687
1.06761
1.12131
1.17828
1.23875
1.30269
1.37006
1.44109
1.51627
1.59629
1.68162
1.77212
1.86669
1.96325
2.05923
2.15222
2.2405
2.32357
2.4023
2.47865
2.55507
2.6337
2.71568
2.80101
2.88613
2.9634
3.02399
3.06049
3.06911
3.05067
3.01006
2.95455
2.89161
2.82728
2.76496
2.70593
2.65116
2.60154
2.55803
2.52166
2.49331
2.47344
2.46184
2.45765
2.45928
2.46424
2.46992
2.47396
2.47456
2.4705
2.4609
2.44495
2.42248
2.39375
2.35983
2.32287
2.28622
2.2541
2.23082
2.2199
2.22246
2.23768
2.26373
2.29766
2.33504
2.36948
2.39382
2.40187
2.38915
2.35371
2.29671
2.22254
2.13838
2.05304
1.97534
1.91104
1.8615
1.82986
1.81471
1.81012
1.80844
1.80211
1.78523
1.75482
1.71131
1.65837
1.60205
1.54933
1.50601
1.47607
1.46107
1.45953
1.46948
1.48762
1.51009
1.53141
1.54339
1.53822
1.50992
1.45658
1.38222
1.29705
1.2153
1.15118
1.11444
1.1001
1.10872
1.13271
1.15964
1.178
1.18039
1.16489
1.13432
1.09364
1.04687
0.994954
0.936781
0.869776
0.792749
0.707574
0.619649
0.537056
0.468937
0.423131
0.405283
0.419854
0.468819
0.551093
0.661713
0.795636
0.938713
1.07506
1.19043
1.27521
1.32586
1.34445
1.33698
1.31134
1.27681
1.24093
1.20923
1.18683
1.1783
1.18752
1.21641
1.26536
1.33465
1.4238
1.53129
1.65452
1.79014
1.93406
2.08183
2.2289
2.371
2.50445
2.6261
2.73344
2.82496
2.89967
2.95678
2.99529
3.01304
3.00711
2.97524
2.91543
2.82679
2.71056
2.57075
2.41434
2.25065
2.09006
1.9421
1.817
1.7208
1.65117
1.6014
1.56337
1.53048
1.49958
1.47136
1.44921
1.43747
1.43805
1.45004
1.47309
1.50528
1.54173
1.57443
1.59401
1.59092
1.55641
1.4835
1.36784
1.15357
0.857951
0.516026
0
0.000971508
1.10324
3.74345
7.88754
12.8527
17.4259
20.2646
20.4168
17.7091
12.8202
7.01542
1.67851
-2.14553
-4.01838
-4.11797
-3.0355
-1.48897
-0.0738508
0.866716
1.24871
1.06181
0.835239
0.611836
0.423348
0.298057
0.238878
0.214496
0.209491
0.21807
0.237138
0.263892
0.295516
0.329118
0.361273
0.388029
0.405921
0.412465
0.406853
0.390462
0.366897
0.341427
0.319947
0.307761
0.307723
0.320019
0.344882
0.381568
0.428778
0.484754
0.547883
0.617004
0.691136
0.769415
0.851041
0.935182
1.02081
1.1063
1.18835
1.26067
1.31597
1.34702
1.34928
1.32366
1.27792
1.22579
1.1838
1.16691
1.18308
1.22595
1.29205
1.37791
1.47877
1.58899
1.70399
1.8169
1.9203
2.00693
2.07013
2.10442
2.10606
2.07355
2.00808
1.91396
1.79966
1.67616
1.55474
1.44672
1.3608
1.31207
1.3224
1.39362
1.49329
1.58265
1.62897
1.61462
1.54094
1.4266
1.30092
1.19415
1.12495
1.08807
1.07304
1.07385
1.08825
1.11491
1.15304
1.20282
1.26612
1.34743
1.45388
1.58515
1.71745
1.81812
1.8542
1.80363
1.6654
1.46394
1.24389
1.05534
0.934553
0.864127
0.822408
0.806957
0.815057
0.844843
0.895551
0.967735
1.07649
1.2347
1.4157
1.5789
1.68448
1.70938
1.65623
1.5509
1.42998
1.32432
1.24656
1.18442
1.12904
1.07842
1.03385
0.999344
0.981206
0.985312
1.01442
1.06662
1.13552
1.21214
1.28745
1.35512
1.41365
1.46078
1.49475
1.51557
1.52399
1.52166
1.51146
1.49748
1.48455
1.47719
1.47843
1.48934
1.50803
1.53023
1.55081
1.56539
1.57148
1.56886
1.55912
1.5446
1.52715
1.50742
1.4849
1.45843
1.42727
1.39207
1.35549
1.32215
1.29793
1.28878
1.29819
1.33086
1.39465
1.48468
1.58075
1.6606
1.70691
1.71234
1.68056
1.62302
1.55287
1.47934
1.40543
1.33081
1.25515
1.18063
1.11577
1.07367
1.06763
1.10556
1.18596
1.29751
1.42277
1.54457
1.65238
1.74972
1.84144
1.93338
2.03597
2.15333
2.26988
2.35972
2.40067
2.38667
2.33147
2.26136
2.20104
2.16046
2.12747
2.09038
2.0397
1.9696
1.88014
1.77736
1.67122
1.57225
1.48731
1.4195
1.36727
1.32625
1.29203
1.26264
1.23988
1.22881
1.23586
1.26634
1.32006
1.39657
1.49202
1.60269
1.7255
1.85495
1.98275
2.08071
2.08993
1.94498
1.61916
1.15487
0.199508
-0.427287
0
2.02359
5.78648
10.7968
15.9198
19.6806
20.8181
18.824
14.1788
8.15575
2.30843
-2.08414
-4.37951
-4.64247
-3.46556
-1.66688
0.0167636
1.1295
1.54776
1.31599
1.03792
0.804947
0.679551
0.696795
0.804217
0.944278
1.08563
1.19896
1.26485
1.27885
1.25147
1.20278
1.15357
1.11648
1.08917
1.06341
1.03103
0.985667
0.925984
0.856925
0.789763
0.738548
0.715772
0.728509
0.77646
0.852549
0.945691
1.04447
1.1405
1.23107
1.31498
1.3911
1.4581
1.51388
1.55599
1.58104
1.58603
1.56992
1.5347
1.48562
1.43042
1.37774
1.33516
1.30568
1.28853
1.28339
1.28827
1.29876
1.31017
1.31872
1.3223
1.32082
1.3159
1.30996
1.3052
1.30245
1.30083
1.29776
1.28881
1.26905
1.23453
1.18368
1.11838
1.04413
0.969335
0.903735
0.856408
0.839358
0.864778
0.931958
1.02374
1.11378
1.17726
1.19562
1.15816
1.06333
0.920378
0.75006
0.581904
0.446979
0.361971
0.31917
0.308096
0.324477
0.361878
0.413194
0.47165
0.532126
0.591933
0.6497
0.705134
0.758696
0.811164
0.863189
0.91492
0.965845
1.0149
1.06072
1.10207
1.13821
1.16916
1.19573
1.21942
1.24216
1.26597
1.29259
1.3233
1.35889
1.39953
1.44318
1.48433
1.51633
1.53362
1.53383
1.51889
1.49466
1.46898
1.44923
1.44033
1.44181
1.45239
1.47159
1.49882
1.53355
1.57506
1.62203
1.67241
1.72332
1.77191
1.81546
1.8518
1.87951
1.89779
1.90656
1.90617
1.89739
1.88144
1.8602
1.83636
1.81344
1.79577
1.78784
1.79348
1.81499
1.85392
1.91111
1.97811
2.04422
2.0997
2.13849
2.15957
2.16621
2.16382
2.1575
2.15058
2.1442
2.13878
2.13463
2.13239
2.1329
2.13683
2.14418
2.15404
2.16428
2.17221
2.17519
2.17128
2.15951
2.13996
2.11354
2.08182
2.04721
2.01232
1.98049
1.95535
1.94014
1.9371
1.9469
1.96874
2.00084
2.04126
2.08866
2.14187
2.20114
2.26695
2.33961
2.41864
2.50312
2.59189
2.6835
2.77624
2.86818
2.95709
3.04037
3.1155
3.18016
3.23243
3.27091
3.29465
3.30287
3.29458
3.26753
3.2198
3.14963
3.05624
2.94086
2.80736
2.66236
2.51448
2.37312
2.24648
2.13906
2.05419
1.99278
1.95373
1.93344
1.92608
1.92501
1.92385
1.91727
1.90137
1.87392
1.83424
1.78284
1.7208
1.64909
1.56798
1.47684
1.37459
1.25958
1.13027
0.982895
0.815527
0.634097
0.183966
0
0.65717
2.71986
6.43941
11.4417
16.6826
20.7442
22.3615
20.9287
16.7574
10.9777
5.12786
0.597817
-1.84365
-2.23792
-1.26949
0.148683
1.31447
1.97074
2.24993
2.48059
2.68399
2.83432
2.91002
2.90525
2.83832
2.74881
2.68301
2.67578
2.72861
2.8566
3.05835
3.27583
3.45219
3.53655
3.4967
3.33882
3.11645
2.91532
2.81802
2.85598
2.95761
3.08156
3.21432
3.34868
3.47848
3.59872
3.70583
3.79786
3.87435
3.93593
3.98395
4.01997
4.04533
4.06053
4.06572
4.06095
4.04639
4.02298
3.99185
3.95747
3.92765
3.91142
3.91734
3.95178
4.01769
4.11419
4.2369
4.38045
4.53911
4.69805
4.83897
4.94523
5.00426
5.01003
4.96478
4.87913
4.77018
4.65752
4.55741
4.47416
4.40366
4.34039
4.27962
4.21638
4.14689
4.06964
3.98577
3.89847
3.81172
3.72878
3.65112
3.57676
3.50104
3.41808
3.32246
3.21064
3.08174
2.93751
2.78195
2.62134
2.46116
2.30627
2.16123
2.03058
1.9178
1.82389
1.74825
1.68899
1.64345
1.60854
1.58088
1.55683
1.53232
1.50309
1.46496
1.4145
1.34992
1.27174
1.18315
1.08972
0.998427
0.916915
0.85644
0.822957
0.809333
0.801839
0.785451
0.749451
0.691098
0.616228
0.537059
0.468431
0.420758
0.396206
0.414373
0.500083
0.639116
0.787065
0.895821
0.929667
0.877395
0.75551
0.601163
0.45808
0.361691
0.312336
0.2924
0.291729
0.30652
0.335227
0.376351
0.428394
0.489815
0.558879
0.633423
0.710811
0.787825
0.86093
0.926575
0.981473
1.0228
1.04834
1.0565
1.04647
1.01842
0.973797
0.9156
0.848517
0.778721
0.714332
0.663482
0.637657
0.656667
0.715908
0.792985
0.861247
0.901273
0.908949
0.896383
0.885516
0.897705
0.944247
1.01322
1.09186
1.17273
1.24866
1.31396
1.36525
1.40174
1.4248
1.43724
1.44246
1.44382
1.4441
1.44549
1.44999
1.45962
1.47643
1.5023
1.54208
1.60184
1.67166
1.73543
1.77761
1.79182
1.78639
1.78286
1.80772
1.88145
2.00939
2.16637
2.34004
2.52368
2.71093
2.89667
3.07711
3.24934
3.41163
3.56297
3.7029
3.83125
3.94491
4.03815
4.1077
4.14818
4.15361
4.11979
4.04661
3.939
3.80611
3.65931
3.50978
3.365
3.2282
3.10218
2.98885
2.88917
2.80343
2.73135
2.67203
2.62461
2.58866
2.56431
2.55228
2.55817
2.59305
2.64806
2.69926
2.71707
2.67884
2.57996
2.43541
2.26951
2.09961
1.9243
1.7346
1.52152
1.27791
1.00363
0.678252
-0.0671715
0
1.55334
4.94
9.85674
15.2753
19.7185
21.8013
20.7932
16.9176
11.2513
5.29501
0.42606
-2.52542
-3.43664
-2.77394
-1.28987
0.302333
1.54941
2.30332
2.46011
2.41186
2.35031
2.28913
2.24365
2.22738
2.24794
2.29706
2.36319
2.43797
2.51479
2.58748
2.65122
2.70311
2.7423
2.76973
2.7877
2.79918
2.80742
2.8155
2.82636
2.84282
2.86786
2.90463
2.9565
3.02667
3.11773
3.23158
3.37784
3.5687
3.78857
3.99501
4.14588
4.21333
4.19362
4.10929
4.00166
3.91554
3.88198
3.89549
3.93161
3.97766
4.02788
4.07791
4.12569
4.17196
4.22
4.27495
4.34264
4.43049
4.55903
4.74701
4.96953
5.18037
5.33744
5.41604
5.41199
5.33635
5.20768
5.04722
4.87763
4.71883
4.5789
4.45814
4.35348
4.26139
4.18083
4.11301
4.0584
4.01819
3.99376
3.98588
3.9941
4.01651
4.04986
4.09
4.13233
4.17242
4.20585
4.22882
4.23837
4.23263
4.211
4.1742
4.124
4.063
3.99427
3.92162
3.84856
3.77891
3.71672
3.666
3.63025
3.61215
3.6133
3.63417
3.67433
3.73262
3.80978
3.91031
4.03816
4.18507
4.3243
4.42372
4.45362
4.39634
4.25466
4.05509
3.84222
3.66399
3.55088
3.48676
3.44997
3.43329
3.43445
3.45126
3.48122
3.52185
3.57099
3.62601
3.68389
3.74068
3.79227
3.83489
3.8655
3.88196
3.88287
3.86734
3.83471
3.7845
3.71663
3.62417
3.5019
3.3659
3.24399
3.16596
3.15389
3.21439
3.3359
3.49191
3.64851
3.77382
3.86042
3.91187
3.92675
3.90739
3.85848
3.78547
3.69341
3.58792
3.47401
3.35454
3.23436
3.12223
3.0283
2.9619
2.92911
2.93096
2.96327
3.01797
3.08536
3.15631
3.22405
3.28482
3.33453
3.37073
3.39201
3.39817
3.39025
3.37016
3.33981
3.30025
3.25126
3.19312
3.12536
3.04814
2.96528
2.88617
2.82291
2.78763
2.78954
2.83278
2.91549
3.03031
3.16609
3.31005
3.45214
3.58734
3.71393
3.83266
3.9459
4.05842
4.18112
4.31153
4.42937
4.50629
4.52013
4.46463
4.34959
4.193
4.01156
3.81645
3.6177
3.42155
3.2324
3.05476
2.89343
2.75328
2.63815
2.55023
2.48995
2.45802
2.45417
2.47214
2.49977
2.52533
2.53967
2.53784
2.51952
2.48807
2.44843
2.40469
2.35797
2.30635
2.24622
2.17188
2.07705
1.93714
1.61623
1.14134
0.579306
0
0.0674346
1.37149
4.32041
8.7984
14.0162
18.6769
21.4193
21.3297
18.2994
13.0894
7.07717
1.77435
-1.70138
-2.97859
-2.44659
-0.951321
0.643368
1.78442
2.32397
2.40636
2.35058
2.29486
2.23898
2.18201
2.12277
2.06091
1.99694
1.93234
1.86991
1.81339
1.76681
1.73305
1.7146
1.71239
1.72643
1.75533
1.79392
1.83655
1.87855
1.91738
1.95304
1.98754
2.02369
2.06368
2.10793
2.15444
2.19897
2.23643
2.26239
2.27434
2.27232
2.25882
2.23804
2.2149
2.19387
2.17782
2.16815
2.16519
2.16856
2.1773
2.18991
2.20464
2.21966
2.23338
2.24466
2.25309
2.25897
2.26325
2.26732
2.2726
2.28019
2.29046
2.30287
2.31588
2.32711
2.33384
2.33358
2.32461
2.30639
2.27964
2.24627
2.2089
2.17027
2.13262
2.09706
2.06364
2.03149
1.99907
1.96489
1.92807
1.88885
1.84869
1.81001
1.77561
1.74804
1.72924
1.71906
1.71488
1.71269
1.70813
1.69756
1.67887
1.65181
1.61789
1.58006
1.54215
1.50801
1.48092
1.46365
1.45956
1.47438
1.51209
1.56364
1.61527
1.6523
1.66363
1.64514
1.60068
1.5403
1.4768
1.42197
1.37969
1.34918
1.32959
1.3198
1.31707
1.31848
1.32178
1.32601
1.33172
1.3406
1.35483
1.37603
1.40447
1.43911
1.47735
1.51579
1.55111
1.5808
1.60363
1.61963
1.62974
1.6353
1.63773
1.6383
1.63801
1.63793
1.63924
1.6432
1.65088
1.66299
1.67941
1.69923
1.72088
1.74262
1.76286
1.78064
1.79571
1.80856
1.82025
1.8321
1.84538
1.86101
1.87945
1.90048
1.92298
1.94513
1.96462
1.97897
1.98587
1.98349
1.9707
1.94731
1.9142
1.87351
1.82821
1.78183
1.73813
1.70059
1.67176
1.65328
1.64562
1.64748
1.6558
1.66675
1.67658
1.68233
1.68235
1.67655
1.66633
1.65421
1.64328
1.63644
1.63572
1.64235
1.65659
1.67755
1.7035
1.73237
1.76222
1.79172
1.8204
1.84884
1.87855
1.91185
1.95143
2.00011
2.06036
2.13397
2.22178
2.32358
2.4378
2.56232
2.69498
2.83369
2.97221
3.10013
3.20627
3.28098
3.31857
3.31866
3.28534
3.22491
3.14341
3.04618
2.94006
2.82944
2.71768
2.60853
2.50615
2.41438
2.33606
2.27383
2.22953
2.2012
2.18497
2.17615
2.17034
2.16419
2.15574
2.14432
2.12997
2.1127
2.09202
2.0663
2.03214
1.98409
1.91586
1.82057
1.69187
1.52517
1.31881
1.07482
0.796622
0.494048
-0.0523874
-0.41422
0
1.7783
5.26426
10.1933
15.5571
19.8557
21.6712
20.2876
16.0179
10.0612
3.99039
-0.84615
-3.72238
-4.61173
-4.00704
-2.6275
-1.15472
-0.0598825
0.458399
0.376834
0.132443
-0.0814364
-0.223593
-0.271522
-0.235201
-0.17084
-0.0990603
-0.0302595
0.0276117
0.0699734
0.0957403
0.10672
0.106548
0.0995226
0.0897894
0.0804331
0.0734831
0.0704063
0.0722036
0.0794588
0.0923092
0.110376
0.132748
0.15808
0.184922
0.212078
0.238985
0.265973
0.294303
0.325931
0.36306
0.408035
0.463964
0.532483
0.608349
0.680736
0.737463
0.76843
0.768514
0.739107
0.687976
0.62762
0.572529
0.534184
0.516812
0.520234
0.542109
0.579109
0.628401
0.686732
0.750889
0.818106
0.885024
0.945593
0.991651
1.01303
0.999199
0.94177
0.836862
0.686283
0.497262
0.281047
0.0516724
-0.177873
-0.39979
-0.608252
-0.798137
-0.965821
-1.10837
-1.22336
-1.31268
-1.38115
-1.43447
-1.4781
-1.51624
-1.55122
-1.58343
-1.61159
-1.6333
-1.64648
-1.64952
-1.64037
-1.61597
-1.57196
-1.50597
-1.42701
-1.35451
-1.30974
-1.30935
-1.35934
-1.45208
-1.56777
-1.68051
-1.76667
-1.81752
-1.8422
-1.84967
-1.84319
-1.82672
-1.80408
-1.77861
-1.75241
-1.72659
-1.70139
-1.67632
-1.65061
-1.62354
-1.59481
-1.56491
-1.53577
-1.51025
-1.49143
-1.48179
-1.48243
-1.49265
-1.50991
-1.53033
-1.54928
-1.56257
-1.56719
-1.5611
-1.54317
-1.51331
-1.47216
-1.42085
-1.3607
-1.29441
-1.22918
-1.17467
-1.13941
-1.12758
-1.13608
-1.15386
-1.16464
-1.15272
-1.10928
-1.03979
-0.958052
-0.873339
-0.794584
-0.728027
-0.675847
-0.636158
-0.604218
-0.574337
-0.541825
-0.504848
-0.463326
-0.419999
-0.380086
-0.349379
-0.332379
-0.330818
-0.342764
-0.362577
-0.381839
-0.391192
-0.382669
-0.352172
-0.30224
-0.238917
-0.167599
-0.0937689
-0.0225143
0.0422283
0.0979792
0.143381
0.176995
0.198572
0.208651
0.208197
0.199098
0.184607
0.169352
0.158704
0.157584
0.169098
0.194625
0.232077
0.274578
0.314572
0.346767
0.370351
0.389589
0.412591
0.448723
0.505653
0.584759
0.681827
0.792455
0.912624
1.03805
1.16463
1.28893
1.40828
1.52071
1.625
1.72019
1.8049
1.87638
1.93036
1.96351
1.97228
1.95369
1.90647
1.83181
1.73348
1.61718
1.48944
1.3567
1.22475
1.09742
0.979573
0.876891
0.794351
0.736146
0.70465
0.699443
0.717598
0.754197
0.798419
0.838868
0.866185
0.875149
0.865806
0.843376
0.81703
0.797865
0.80761
0.894278
1.03249
1.15519
1.17691
1.03146
0.709205
0.272307
-0.611059
-0.920763
0
2.59526
6.84938
12.077
17.0199
20.2322
20.6279
17.9418
12.8693
6.80264
1.29396
-2.50322
-4.16888
-4.01303
-2.79526
-1.33313
-0.195071
0.418186
0.601167
0.641568
0.67792
0.710769
0.738884
0.761477
0.778347
0.78985
0.796648
0.79871
0.79539
0.785967
0.769708
0.74735
0.722502
0.702074
0.695227
0.711001
0.755516
0.827086
0.917401
1.02079
1.13063
1.24006
1.3432
1.43536
1.513
1.57437
1.6197
1.65057
1.66964
1.68033
1.68642
1.69156
1.69884
1.71028
1.72659
1.74764
1.77223
1.79882
1.8263
1.85442
1.88385
1.91586
1.95169
1.99191
2.03606
2.08262
2.12984
2.17625
2.2212
2.26519
2.30975
2.35703
2.40959
2.47061
2.54039
2.60964
2.66369
2.68832
2.67529
2.62578
2.54997
2.46282
2.37787
2.30201
2.23216
2.16348
2.09235
2.0163
1.93494
1.85013
1.76524
1.68408
1.6093
1.54177
1.48175
1.4286
1.38126
1.33878
1.30076
1.26739
1.23933
1.21733
1.20177
1.19231
1.18802
1.18753
1.18918
1.19127
1.19233
1.19116
1.18686
1.17908
1.16785
1.15359
1.13702
1.11899
1.10026
1.08115
1.06125
1.03928
1.01338
0.981735
0.943428
0.899253
0.852115
0.806857
0.769411
0.745502
0.739227
0.75159
0.780867
0.822582
0.870443
0.917597
0.958384
0.988697
1.00574
1.00825
0.996404
0.97143
0.93523
0.890108
0.838558
0.783114
0.726274
0.670477
0.618094
0.571663
0.534103
0.508114
0.496162
0.500066
0.520491
0.556508
0.605367
0.662952
0.72349
0.779702
0.82483
0.853922
0.864664
0.857639
0.835971
0.804487
0.768602
0.733269
0.702071
0.676683
0.657629
0.64508
0.638952
0.638909
0.64446
0.65486
0.668883
0.684562
0.698938
0.708236
0.708873
0.698256
0.675629
0.642674
0.603579
0.564483
0.532302
0.513244
0.510992
0.52501
0.552432
0.590328
0.635081
0.682864
0.730212
0.774298
0.812712
0.843174
0.863645
0.872814
0.869712
0.854057
0.82669
0.78989
0.747438
0.704397
0.66666
0.640179
0.629182
0.637157
0.666799
0.718931
0.792205
0.883115
0.986605
1.09635
1.20605
1.31041
1.40578
1.49021
1.56313
1.62397
1.67224
1.70759
1.72908
1.7355
1.72578
1.69929
1.65589
1.59573
1.51899
1.42596
1.31803
1.19737
1.06636
0.928136
0.786734
0.646552
0.511776
0.385928
0.270538
0.165511
0.0697037
-0.0181862
-0.0987789
-0.171498
-0.234552
-0.285384
-0.321459
-0.33953
-0.336685
-0.308729
-0.247681
-0.151949
-0.053579
0
-0.0517731
-0.256228
-0.619703
-1.08649
-2.10295
-2.4891
-1.48652
1.27167
5.46909
10.2051
14.3813
17.0635
17.6253
15.7949
11.7841
6.43196
1.08696
-2.89678
-4.77314
-4.67824
-3.38605
-1.78716
-0.486298
0.302034
0.49919
0.49937
0.481838
0.450539
0.412047
0.374393
0.34499
0.328183
0.323459
0.327507
0.334882
0.340315
0.340976
0.337737
0.334945
0.338753
0.354784
0.385538
0.428294
0.479375
0.535545
0.59368
0.651086
0.70587
0.756993
0.804071
0.846932
0.885343
0.918835
0.946832
0.968936
0.985295
0.996995
1.00624
1.01622
1.03062
1.05292
1.08555
1.12911
1.18379
1.24606
1.30897
1.36457
1.40548
1.4262
1.42405
1.39952
1.35612
1.29989
1.23861
1.18043
1.13213
1.09851
1.08173
1.08293
1.10154
1.13594
1.18418
1.2446
1.31591
1.40164
1.50991
1.63614
1.75193
1.8163
1.79133
1.66078
1.44008
1.17102
0.903268
0.673798
0.478911
0.302192
0.144817
0.00628052
-0.112878
-0.208628
-0.273664
-0.302109
-0.288429
-0.229914
-0.129286
0.0113182
0.168699
0.314452
0.424339
0.487123
0.508151
0.505397
0.499963
0.50601
0.52398
0.545525
0.56153
0.563761
0.547773
0.514189
0.468394
0.419154
0.376376
0.346767
0.337547
0.364835
0.426657
0.500217
0.555843
0.568098
0.525281
0.433039
0.311301
0.187244
0.0879135
0.0229416
-0.012513
-0.0214149
0.00477066
0.0718399
0.173061
0.290367
0.401608
0.48731
0.534277
0.536783
0.496903
0.424511
0.336273
0.252465
0.191607
0.163744
0.164171
0.182481
0.212838
0.252837
0.300994
0.356899
0.420948
0.493787
0.575728
0.665701
0.762283
0.863667
0.967275
1.06902
1.16224
1.23955
1.29364
1.3181
1.30857
1.26366
1.18523
1.07819
0.95
0.810315
0.670618
0.544176
0.444366
0.382594
0.365968
0.395673
0.466827
0.569978
0.693554
0.826179
0.957781
1.07522
1.16678
1.22025
1.22521
1.17852
1.08927
0.978651
0.873528
0.797032
0.758852
0.746225
0.749509
0.766464
0.794755
0.833241
0.876362
0.913003
0.930807
0.919782
0.876539
0.806828
0.724554
0.647279
0.590109
0.557857
0.543095
0.542933
0.554046
0.573308
0.598643
0.629331
0.665691
0.708492
0.758193
0.814501
0.87712
0.945826
1.0205
1.10123
1.18819
1.28153
1.38155
1.48688
1.59229
1.68966
1.77006
1.82564
1.85103
1.84402
1.80528
1.73758
1.64484
1.53219
1.40557
1.27025
1.1308
0.991538
0.856643
0.730327
0.616874
0.520142
0.443846
0.393337
0.375423
0.387768
0.411033
0.42201
0.400396
0.335528
0.230508
0.101958
-0.0249321
-0.124383
-0.170768
-0.141831
-0.0678177
0
0.0139538
-0.0675232
-0.257542
-0.546589
-0.909101
-1.31104
-1.79519
-1.99065
-1.32632
0.8356
4.66383
9.48516
14.0176
17.0379
17.8903
16.4833
13.0381
8.05198
2.48173
-2.30446
-5.08223
-5.4752
-4.14609
-2.27431
-0.79595
-0.0249531
0.208555
0.23387
0.249649
0.255719
0.248084
0.225097
0.188636
0.144345
0.100497
0.0656715
0.0460644
0.0412239
0.0466301
0.0588333
0.0740582
0.0888268
0.100772
0.109076
0.114467
0.118839
0.124664
0.134321
0.149575
0.171622
0.201328
0.239398
0.286397
0.342669
0.40868
0.48553
0.57347
0.66601
0.750734
0.814574
0.84817
0.849256
0.823167
0.780071
0.730467
0.681677
0.636641
0.595856
0.56242
0.540334
0.534678
0.55015
0.589276
0.651173
0.731425
0.82308
0.918234
1.00987
1.0934
1.1643
1.21938
1.25616
1.27266
1.26729
1.23882
1.18647
1.1099
1.00947
0.887127
0.746643
0.592617
0.430423
0.266402
0.107643
-0.0386345
-0.163884
-0.256083
-0.308239
-0.330672
-0.339856
-0.352969
-0.382458
-0.432666
-0.499641
-0.573797
-0.643954
-0.701656
-0.745754
-0.777139
-0.795178
-0.799294
-0.789128
-0.762225
-0.713596
-0.645188
-0.572599
-0.515383
-0.490739
-0.507175
-0.561805
-0.643011
-0.736813
-0.832892
-0.926905
-1.0183
-1.10587
-1.18673
-1.25709
-1.31271
-1.35019
-1.36809
-1.36748
-1.35172
-1.32538
-1.29297
-1.25794
-1.22168
-1.18394
-1.14337
-1.0981
-1.04593
-0.984777
-0.913531
-0.835142
-0.760621
-0.704517
-0.680004
-0.694062
-0.743903
-0.816475
-0.891899
-0.949931
-0.976799
-0.97696
-0.961441
-0.935595
-0.904409
-0.872474
-0.84311
-0.818063
-0.797478
-0.78016
-0.764064
-0.746922
-0.726845
-0.70261
-0.674021
-0.642861
-0.612858
-0.588437
-0.573586
-0.570797
-0.580355
-0.600204
-0.626379
-0.653907
-0.677953
-0.695396
-0.705024
-0.706633
-0.700726
-0.688635
-0.671887
-0.651716
-0.62875
-0.602959
-0.573893
-0.541095
-0.504569
-0.464954
-0.423986
-0.384192
-0.348234
-0.31825
-0.295325
-0.279279
-0.268821
-0.261987
-0.256683
-0.251105
-0.243904
-0.233993
-0.220245
-0.201228
-0.175197
-0.139034
-0.084763
-0.0121792
0.0587616
0.0984352
0.0802494
-0.00436058
-0.137345
-0.277802
-0.377445
-0.400665
-0.334707
-0.205566
-0.061454
0.0485073
0.0945625
0.0767582
0.0220047
-0.0291233
-0.0383064
0.0175461
0.117502
0.245235
0.394551
0.562663
0.74814
0.93941
1.11878
1.26922
1.37805
1.43934
1.45412
1.42818
1.36898
1.28312
1.17871
1.06297
0.940604
0.815677
0.692634
0.576163
0.470292
0.377956
0.300972
0.239279
0.190575
0.150233
0.112183
0.0705135
0.0207584
-0.0390747
-0.107942
-0.181816
-0.254364
-0.318105
-0.364637
-0.38014
-0.348949
-0.266181
-0.153266
-0.0508335
0
-0.0366428
-0.18298
-0.443692
-0.801808
-1.46986
-2.13335
-1.9052
-0.116328
3.461
8.38252
13.6166
17.8767
20.0012
19.2718
15.658
9.94028
3.57368
-1.78985
-4.96066
-5.67875
-4.59725
-2.81377
-1.28174
-0.438377
-0.197252
-0.142005
-0.0865234
-0.0304577
0.0270214
0.0871048
0.151239
0.222122
0.304004
0.396912
0.489322
0.563749
0.602807
0.596404
0.546565
0.467527
0.38108
0.309287
0.26641
0.24945
0.25126
0.267725
0.297144
0.337955
0.38877
0.448417
0.515797
0.589667
0.668398
0.750014
0.832176
0.912074
0.987061
1.05505
1.11477
1.16586
1.20857
1.24266
1.26922
1.28948
1.30498
1.31792
1.3312
1.34813
1.37164
1.40334
1.44265
1.48673
1.53116
1.57082
1.60119
1.61942
1.62502
1.61996
1.60823
1.59512
1.58609
1.58532
1.59654
1.62615
1.6759
1.73196
1.77542
1.78872
1.76224
1.69807
1.60868
1.51103
1.41916
1.3383
1.2639
1.1927
1.12299
1.05469
0.990287
0.934867
0.894975
0.87697
0.885425
0.922038
0.985234
1.07046
1.17097
1.2787
1.38603
1.48715
1.57693
1.65224
1.71192
1.7568
1.78951
1.81404
1.83501
1.85701
1.8838
1.91768
1.95882
2.00628
2.05859
2.11319
2.16543
2.20906
2.23764
2.24543
2.22827
2.18415
2.11323
2.01741
1.89977
1.76434
1.61794
1.46716
1.31864
1.18144
1.06501
0.977462
0.923793
0.90462
0.915909
0.949747
0.995914
1.04375
1.0839
1.10972
1.11796
1.10879
1.08516
1.05183
1.01408
0.976716
0.94287
0.913793
0.889736
0.870417
0.855135
0.842907
0.832619
0.823183
0.813675
0.803392
0.791858
0.778756
0.763858
0.746921
0.727699
0.706044
0.682073
0.656358
0.63005
0.604842
0.582719
0.565507
0.554384
0.54985
0.550847
0.555093
0.559671
0.561652
0.558654
0.549216
0.532952
0.510529
0.48354
0.45444
0.425898
0.400602
0.381035
0.370245
0.370257
0.377525
0.38563
0.38764
0.378709
0.357918
0.328446
0.295954
0.265935
0.241304
0.220481
0.200927
0.179764
0.154898
0.126065
0.0952427
0.0662945
0.0439953
0.0327557
0.0344006
0.0489513
0.0759502
0.113874
0.160728
0.214671
0.274306
0.339145
0.409418
0.485691
0.568473
0.657829
0.753085
0.852951
0.955432
1.05728
1.15426
1.2419
1.31568
1.3702
1.39778
1.39368
1.35417
1.27772
1.16634
1.02645
0.868681
0.706202
0.552042
0.415773
0.297214
0.195428
0.109031
0.035051
-0.0303139
-0.0909473
-0.150163
-0.210208
-0.271892
-0.334605
-0.39635
-0.453997
-0.503699
-0.541104
-0.559577
-0.543903
-0.460847
-0.300316
-0.119669
0
-0.0201653
-0.247052
-0.679808
-1.24224
-2.17011
-2.45987
-1.36186
1.63246
6.36274
11.8506
16.645
19.4461
19.5742
17.0496
12.4348
6.69417
1.07729
-3.1605
-5.23104
-5.18466
-3.82576
-2.1926
-0.993951
-0.396434
-0.194263
-0.0146954
0.168726
0.34485
0.483429
0.546186
0.507131
0.370461
0.175574
-0.0150326
-0.141619
-0.183635
-0.184029
-0.167753
-0.144079
-0.120695
-0.102052
-0.0887898
-0.0783409
-0.0663635
-0.0484402
-0.0222603
0.0121571
0.0541004
0.102496
0.155704
0.211606
0.267496
0.319324
0.360744
0.38517
0.386196
0.359295
0.303656
0.223463
0.127947
0.0300007
-0.0563408
-0.119297
-0.152416
-0.152535
-0.120951
-0.0625126
0.0156479
0.105706
0.199725
0.286898
0.357841
0.406358
0.431213
0.437354
0.435413
0.438958
0.46011
0.50521
0.568731
0.642719
0.71841
0.786577
0.839594
0.872805
0.884937
0.877639
0.854465
0.819694
0.777862
0.732205
0.68474
0.63671
0.58896
0.54222
0.497302
0.455095
0.416381
0.381594
0.35061
0.322369
0.29465
0.264815
0.23058
0.190813
0.146069
0.0986732
0.0523045
0.0112259
-0.0205582
-0.0408514
-0.0477453
-0.0401993
-0.0177422
0.0226915
0.0961311
0.244428
0.480276
0.742602
0.934772
0.963454
0.785288
0.436913
0.0300383
-0.291081
-0.41619
-0.429591
-0.38167
-0.294908
-0.193014
-0.0948113
-0.00902424
0.0662231
0.132945
0.191798
0.243758
0.28997
0.331432
0.368468
0.400457
0.42659
0.445836
0.457802
0.463618
0.466447
0.471314
0.484155
0.510339
0.553018
0.610245
0.680616
0.75954
0.839951
0.915119
0.980266
1.0335
1.07579
1.11011
1.13994
1.16793
1.195
1.2202
1.24153
1.25723
1.26703
1.2728
1.2783
1.28821
1.30663
1.33518
1.37597
1.42397
1.46914
1.50092
1.51217
1.502
1.47634
1.44591
1.42235
1.41401
1.41983
1.43647
1.45904
1.48024
1.49349
1.49507
1.48539
1.46902
1.45339
1.44645
1.45417
1.47768
1.51272
1.55555
1.60162
1.64642
1.68655
1.71984
1.74538
1.76326
1.77412
1.77912
1.77922
1.77533
1.76849
1.76009
1.75208
1.74722
1.74945
1.76335
1.79364
1.84466
1.91954
2.01947
2.14314
2.28661
2.44366
2.60665
2.76778
2.92074
3.06071
3.18475
3.2916
3.38092
3.44794
3.48588
3.48945
3.45169
3.36727
3.23628
3.06674
2.87442
2.6797
2.50242
2.35177
2.23221
2.14361
2.08109
2.03707
2.0034
1.97292
1.9403
1.90203
1.85608
1.80192
1.74078
1.67462
1.60604
1.53885
1.47984
1.4538
1.55535
1.85182
2.22747
2.53923
2.66125
2.51698
2.09673
1.45759
0.702569
0
-0.105072
1.02641
3.94657
8.64525
14.2743
19.4184
22.7321
23.4404
21.4069
16.9765
10.9352
4.55303
-0.633141
-3.43177
-3.61377
-1.97255
0.248253
2.07107
3.10603
3.41922
3.26293
3.13157
3.03525
2.98287
2.97388
2.99002
3.01752
3.04654
3.06871
3.07869
3.07503
3.06025
3.04016
3.0227
3.01562
3.0246
3.05255
3.09922
3.162
3.23782
3.32158
3.4063
3.48522
3.55315
3.60724
3.64735
3.67581
3.69674
3.71515
3.736
3.76309
3.79867
3.84397
3.89953
3.96509
4.03989
4.1229
4.21153
4.29819
4.37193
4.42142
4.4379
4.41826
4.3668
4.29469
4.21749
4.15135
4.10667
107
352
598
847
1097
1353
1614
1865
2122
2380
2640
2907
3172
3433
3689
3083
3278
3463
3634
3660
2924
3070
3218
3366
3520
3676
2890
3055
3132
3215
3245
3309
3365
3526
3581
3685
2754
2816
2921
3033
3084
3248
3339
3410
3487
3576
3208
3249
3298
3415
3467
3538
3575
3635
3526
3597
3691
0
0
0
0
0
0
0
0
0
0
0
0
0
0
0
0
0
0
0
0
0
0
0
0
0
0
0
0
0
0
0
0
0
0
0
0
0
0
0
0
0
0
0
0
0
0
0
0
0
0
0
0
0
0
0
0
0
0
0
0
0
0
0
0
0
0
0
0
0
0
0
0
0
0
0
0
0
0
0
0
0
0
0
0
0
0
0
0
0
0
0
0
0
0
0
0
0
0
0
0
0
0
0
0
0
0
0
0
0
0
0
0
0
0
0
0
0
0
0
0
0
0
0
0
0
0
0
0
0
0
0
0
0
0
0
0
0
0
0
0
0
0
0
0
0
0
0
0
0
0
0
0
0
0
0
0
0
0
0
0
0
0
0
0
0
0
0
0
0
0
0
0
0
0
0
0
0
0
0
0
0
0
0
0
0
0
0
0
0
0
0
0
0
0
0
0
0
0
0
0
0
0
0
0
0
0
0
0
0
0
0
0
0
0
0
0
0
0
0
0
0
0
0
0
0
0
0
0
0
0
0
0
0
0
0
0
0
0
0
0
0
0
0
0
0
0
0
0
0
0
0
0
0
0
0
0
0
0
0
0
0
0
0
0
0
0
0
0
0
0
0
0
0
0
0
0
0
0
0
0
0
0
0
0
0
0
0
0
0
0
0
0
0
0
0
0
0
0
0
0
0
0
0
0
0
0
0
0
0
0
0
0
0
0
0
0
0
0
0
0
0
0
0
0
0
0
0
0
0
0
0
0
0
0
0
0
0
0
0
0
0
0
0
0
0
0
0
0
0
0
0
0
0
0
0
0
0
0
0
0
0
0
0
0
0
0
0
0
0
0
0
0
0
0
0
0
0
0
0
0
0
0
0
0
0
0
0
0
0
0
0
0
0
0
0
0
0
0
0
0
0
0
0
0
0
0
0
0
0
0
0
0
0
0
0
0
0
0
0
0
0
0
0
0
0
0
0
0
0
0
0
0
0
0
0
0
0
0
0
0
0
0
0
0
0
0
0
0
0
0
0
0
0
0
0
0
0
0
0
0
0
0
0
0
0
0
0
0
0
0
0
0
0
0
0
0
0
0
0
0
0
0
0
0
0
0
0
0
0
0
0
0
0
0
0
0
0
0
0
0
0
0
0
0
0
0
0
0
0
0
0
0
0
0
0
0
0
0
0
0
0
0
0
0
0
0
0
0
0
0
0
0
0
0
0
0
0
0
0
0
0
0
0
0
0
0
0
0
0
0
0
0
0
0
0
0
0
0
0
0
0
0
0
0
0
0
0
0
0
0
0
0
0
0
0
0
0
0
0
0
0
0
0
0
0
0
0
0
0
0
0
0
0
0
0
0
0
0
0
0
0
0
0
0
0
0
0
0
0
0
0
0
0
0
0
0
0
0
0
0
0
0
0
0
0
0
0
0
0
0
0
0
0
0
0
0
0
0
0
0
0
0
0
0
0
0
0
0
0
0
0
0
0
0
0
0
0
0
0
0
0
0
0
0
0
0
0
0
0
0
0
0
0
0
0
0
0
0
0
0
0
0
0
0
0
0
0
0
0
0
0
0
0
0
0
0
0
0
0
0
0
0
0
0
0
0
0
0
0
0
0
0
0
0
0
0
0
0
0
0
0
0
0
0
0
0
0
0
0
0
0
0
0
0
0
0
0
0
0
0
0
0
0
0
0
0
0
0
0
0
0
0
0
0
0
0
0
0
0
0
0
0
0
0
0
0
0
0
0
0
0
0
0
0
0
0
0
0
0
0
0
0
0
0
0
0
0
0
0
0
0
0
0
0
0
0
0
0
0
0
0
0
0
0
0
0
0
0
0
0
0
0
0
0
0
0
0
0
0
0
0
0
0
0
0
0
0
0
0
0
0
0
0
0
0
0
0
0
0
0
0
0
0
0
0
0
0
0
0
0
0
0
0
0
0
0
0
0
0
0
0
0
0
0
0
0
0
0
0
0
0
0
0
0
0
0
0
0
0
0
0
0
0
0
0
0
0
0
0
0
0
0
0
0
0
0
0
0
0
0
0
0
0
0
0
0
0
0
0
0
0
0
0
0
0
0
0
0
0
0
0
0
0
0
0
0
0
0
0
0
0
0
0
0
0
0
0
0
0
0
0
0
0
0
0
0
0
0
0
0
0
0
0
0
0
0
0
0
0
0
0
0
0
0
0
0
0
0
0
0
0
0
0
0
0
0
0
0
0
0
0
0
0
0
0
0
0
0
0
0
0
0
0
0
0
0
0
0
0
0
0
0
0
0
0
0
0
0
0
0
0
0
0
0
0
0
0
0
0
0
0
0
0
0
0
0
0
0
0
0
0
0
0
0
0
0
0
0
0
0
0
0
0
0
0
0
0
0
0
0
0
0
0
0
0
0
0
0
0
0
0
0
0
0
0
0
0
0
0
0
0
0
0
0
0
0
0
0
0
0
0
0
0
0
0
0
0
0
0
0
0
0
0
0
0
0
0
0
0
0
0
0
0
0
0
0
0
0
0
0
0
0
0
0
0
0
0
0
0
0
0
0
0
0
0
0
0
0
0
0
0
0
0
0
0
0
0
0
0
0
0
0
0
0
0
0
0
0
0
0
0
0
0
0
0
0
0
0
0
0
0
0
0
0
0
0
0
0
0
0
0
0
0
0
0
0
0
0
0
0
0
0
0
0
0
0
0
0
0
0
0
0
0
0
0
0
0
0
0
0
0
0
0
0
0
0
0
0
0
0
0
0
0
0
0
0
0
0
0
0
0
0
0
0
0
0
0
0
0
0
0
0
0
0
0
0
0
0
0
0
0
0
0
0
0
0
0
0
0
0
0
0
0
0
0
0
0
0
0
0
0
0
0
0
0
0
0
0
0
0
0
0
0
0
0
0
0
0
0
0
0
0
0
0
0
0
0
0
0
0
0
0
0
0
0
0
0
0
0
0
0
0
0
0
0
0
0
0
0
0
0
0
0
0
0
0
0
0
0
0
0
0
0
0
0
0
0
0
0
0
0
0
0
0
0
0
0
0
0
0
0
0
0
0
0
0
0
0
0
0
0
0
0
0
0
0
0
0
0
0
0
0
0
0
0
0
0
0
0
0
0
0
0
0
0
0
0
0
0
0
0
0
0
0
0
0
0
0
0
0
0
0
0
0
0
0
0
0
0
0
0
0
0
0
0
0
0
0
0
0
0
0
0
0
0
0
0
0
0
0
0
0
0
0
0
0
0
0
0
0
0
0
0
0
0
0
0
0
0
0
0
0
0
0
0
0
0
0
0
0
0
0
0
0
0
0
0
0
0
0
0
0
0
0
0
0
0
0
0
0
0
0
0
0
0
0
0
0
0
0
0
0
0
0
0
0
0
0
0
0
0
0
0
0
0
0
0
0
0
0
0
0
0
0
0
0
0
0
0
0
0
0
0
0
0
0
0
0
0
0
0
0
0
0
0
0
0
0
0
0
0
0
0
0
0
0
0
0
0
0
0
0
0
0
0
0
0
0
0
0
0
0
0
0
0
0
0
0
0
0
0
0
0
0
0
0
0
0
0
0
0
0
0
0
0
0
0
0
0
0
0
0
0
0
0
0
0
0
0
0
0
0
0
0
0
0
0
0
0
0
0
0
0
0
0
0
0
0
0
0
0
0
0
0
0
0
0
0
0
0
0
0
0
0
0
0
0
0
0
0
0
0
0
0
0
0
0
0
0
0
0
0
0
0
0
0
0
0
0
0
0
0
0
0
0
0
0
0
0
0
0
0
0
0
0
0
0
0
0
0
0
0
0
0
0
0
0
0
0
0
0
0
0
0
0
0
0
0
0
0
0
0
0
0
0
0
0
0
0
0
0
0
0
0
0
0
0
0
0
0
0
0
0
0
0
0
0
0
0
0
0
0
0
0
0
0
0
0
0
0
0
0
0
0
0
0
0
0
0
0
0
0
0
0
0
0
0
0
0
0
0
0
0
0
0
0
0
0
0
0
0
0
0
0
0
0
0
0
0
0
0
0
0
0
0
0
0
0
0
0
0
0
0
0
0
0
0
0
0
0
0
0
0
0
0
0
0
0
0
0
0
0
0
0
0
0
0
0
0
0
0
0
0
0
0
0
0
0
0
0
0
0
0
0
0
0
0
0
0
0
0
0
0
0
0
0
0
0
0
0
0
0
0
0
0
0
0
0
0
0
0
0
0
0
0
0
0
0
0
0
0
0
0
0
0
0
0
0
0
0
0
0
0
0
0
0
0
0
0
0
0
0
0
0
0
0
0
0
0
0
0
0
0
0
0
0
0
0
0
0
0
0
0
0
0
0
0
0
0
0
0
0
0
0
0
0
0
0
0
0
0
0
0
0
0
0
0
0
0
0
0
0
0
0
0
0
0
0
0
0
0
0
0
0
0
0
0
0
0
0
0
0
0
0
0
0
0
0
0
0
0
0
0
0
0
0
0
0
0
0
0
0
0
0
0
0
0
0
0
0
0
0
0
0
0
0
0
0
0
0
0
0
0
0
0
0
0
0
0
0
0
0
0
0
0
0
0
0
0
0
0
0
0
0
0
0
0
0
0
0
0
0
0
0
0
0
0
0
0
0
0
0
0
0
0
0
0
0
0
0
0
0
0
0
0
0
0
0
0
0
0
0
0
0
0
0
0
0
0
0
0
0
0
0
0
0
0
0
0
0
0
0
0
0
0
0
0
0
0
0
0
0
0
0
0
0
0
0
0
0
0
0
0
0
0
0
0
0
0
0
0
0
0
0
0
0
0
0
0
0
0
0
0
0
0
0
0
0
0
0
0
0
0
0
0
0
0
0
0
0
0
0
0
0
0
0
0
0
0
0
0
0
0
0
0
0
0
0
0
0
0
0
0
0
0
0
0
0
0
0
0
0
0
0
0
0
0
0
0
0
0
0
0
0
0
0
0
0
0
0
0
0
0
0
0
0
0
0
0
0
0
0
0
0
0
0
0
0
0
0
0
0
0
0
0
0
0
0
0
0
0
0
0
0
0
0
0
0
0
0
0
0
0
0
0
0
0
0
0
0
0
0
0
0
0
0
0
0
0
0
0
0
0
0
0
0
0
0
0
0
0
0
0
0
0
0
0
0
0
0
0
0
0
0
0
0
0
0
0
0
0
0
0
0
0
0
0
0
0
0
0
0
0
0
0
0
0
0
0
0
0
0
0
0
0
0
0
0
0
0
0
0
0
0
0
0
0
0
0
0
0
0
0
0
0
0
0
0
0
0
0
0
0
0
0
0
0
0
0
0
0
0
0
0
0
0
0
0
0
0
0
0
0
0
0
0
0
0
0
0
0
0
0
0
0
0
0
0
0
0
0
0
0
0
0
0
0
0
0
0
0
0
0
0
0
0
0
0
0
0
0
0
0
0
0
0
0
0
0
0
0
0
0
0
0
0
0
0
0
0
0
0
0
0
0
0
0
0
0
0
0
0
0
0
0
0
0
0
0
0
0
0
0
0
0
0
0
0
0
0
0
0
0
0
0
0
0
0
0
0
0
0
0
0
0
0
0
0
0
0
0
0
0
0
0
0
0
0
0
0
0
0
0
0
0
0
0
0
0
0
0
0
0
0
0
0
0
0
0
0
0
0
0
0
0
0
0
0
0
0
0
0
0
0
0
0
0
0
0
0
0
0
0
0
0
0
0
0
0
0
0
0
0
0
0
0
0
0
0
0
0
0
0
0
0
0
0
0
0
0
0
0
0
0
0
0
0
0
0
0
0
0
0
0
0
0
0
0
0
0
0
0
0
0
0
0
0
0
0
0
0
0
0
0
0
0
0
0
0
0
0
0
0
0
0
0
0
0
0
0
0
0
0
0
0
0
0
0
0
0
0
0
0
0
0
0
0
0
0
0
0
0
0
0
0
0
0
0
0
0
0
0
0
0
0
0
0
0
0
0
0
0
0
0
0
0
0
0
0
0
0
0
0
0
0
0
0
0
0
0
0
0
0
0
0
0
0
0
0
0
0
0
0
0
0
0
0
0
0
0
0
0
0
0
0
0
0
0
0
0
0
0
0
0
0
0
0
0
0
0
0
0
0
0
0
0
0
0
0
0
0
0
0
0
0
0
0
0
0
0
0
0
0
0
0
0
0
0
0
0
0
0
0
0
0
0
0
0
0
0
0
0
0
0
0
0
0
0
0
0
0
0
0
0
0
0
0
0
0
0
0
0
0
0
0
0
0
0
0
0
0
0
0
0
0
0
0
0
0
0
0
0
0
0
0
0
0
0
0
0
0
0
0
0
0
0
0
0
0
0
0
0
0
0
0
0
0
0
0
0
0
0
0
0
0
0
0
0
0
0
0
0
0
0
0
0
0
0
0
0
0
0
0
0
0
0
0
0
0
0
0
0
0
0
0
0
0
0
0
0
0
0
0
0
0
0
0
0
0
0
0
0
0
0
0
0
0
0
0
0
0
0
0
0
0
0
0
0
0
0
0
0
0
0
0
0
0
0
0
0
0
0
0
0
0
0
0
0
0
0
0
0
0
0
0
0
0
0
0
0
0
0
0
0
0
0
0
0
0
0
0
0
0
0
0
0
0
0
0
0
0
0
0
0
0
0
0
0
0
0
0
0
0
0
0
0
0
0
0
0
0
0
0
0
0
0
0
0
0
0
0
0
0
0
0
0
0
0
0
0
0
0
0
0
0
0
0
0
0
0
0
0
0
0
0
0
0
0
0
0
0
0
0
0
0
0
0
0
0
0
0
0
0
0
0
0
0
0
0
0
0
0
0
0
0
0
0
0
0
0
0
0
0
0
0
0
0
0
0
0
0
0
0
0
0
0
0
0
0
0
0
0
0
0
0
0
0
0
0
0
0
0
0
0
0
0
0
0
0
0
0
0
0
0
0
0
0
0
0
0
0
0
0
0
0
0
0
0
0
0
0
0
0
0
0
0
0
0
0
0
0
0
0
0
0
0
0
0
0
0
0
0
0
0
0
0
0
0
0
0
0
0
0
0
0
0
0
0
0
0
0
0
0
0
0
0
0
0
0
0
0
0
0
0
0
0
0
0
0
0
0
0
0
0
0
0
0
0
0
0
0
0
0
0
0
0
0
0
0
0
0
0
0
0
0
0
0
0
0
0
0
0
0
0
0
0
0
0
0
0
0
0
0
0
0
0
0
0
0
0
0
0
0
0
0
0
0
0
0
0
0
0
0
0
0
0
0
0
0
0
0
0
0
0
0
0
0
0
0
0
0
0
0
0
0
0
0
0
0
0
0
0
0
0
0
0
0
0
0
0
0
0
0
0
0
0
0
0
0
0
0
0
0
0
0
0
0
0
0
0
0
0
0
0
0
0
0
0
0
0
0
0
0
0
0
0
0
0
0
0
0
0
0
0
0
0
0
0
0
0
0
0
0
0
0
0
0
0
0
0
0
0
0
0
0
0
0
0
0
0
0
0
0
0
0
0
0
0
0
0
0
0
0
0
0
0
0
0
0
0
0
0
0
0
0
0
0
0
0
0
0
0
0
0
0
0
0
0
0
0
0
0
0
0
0
0
0
0
0
0
0
0
0
0
0
0
0
0
0
0
0
0
0
0
0
0
0
0
0
0
0
0
0
0
0
0
0
0
0
0
0
0
0
0
0
0
0
0
0
0
0
0
0
0
0
0
0
0
0
0
0
0
0
0
0
0
0
0
0
0
0
0
0
0
0
0
0
0
0
0
0
0
0
0
0
0
0
0
0
0
0
0
0
0
0
0
0
0
0
0
0
0
0
0
0
0
0
0
0
0
0
0
0
0
0
0
0
0
0
0
0
0
0
0
0
0
0
0
0
0
0
0
0
0
0
0
0
0
0
0
0
0
0
0
0
0
0
0
0
0
0
0
0
0
0
0
0
0
0
0
0
0
0
0
0
0
0
0
0
0
0
0
0
0
0
0
0
0
0
0
0
0
0
0
0
0
0
0
0
0
0
0
0
0
0
0
0
0
0
0
0
0
0
0
0
0
0
0
0
0
0
0
0
0
0
0
0
0
0
0
0
0
0
0
0
0
0
0
0
0
0
0
0
0
0
0
0
0
0
0
0
0
0
0
0
0
0
0
0
0
0
0
0
0
0
0
0
0
0
0
0
0
0
0
0
0
0
0
0
0
0
0
0
0
0
0
0
0
0
0
0
0
0
0
0
0
0
0
0
0
0
0
0
0
0
0
0
0
0
0
0
0
0
0
0
0
0
0
0
0
0
0
0
0
0
0
0
0
0
0
0
0
0
0
0
0
0
0
0
0
0
0
0
0
0
0
0
0
0
0
0
0
0
0
0
0
0
0
0
0
0
0
0
0
0
0
0
0
0
0
0
0
0
0
0
0
