1.30677
1.22767
1.12236
0.99754
0.861861
0.724302
0.592469
0.470368
0.360026
0.2623
0.177382
0.105952
0.0488319
0.00709686
-0.0186771
-0.0293186
-0.0269531
-0.0168339
-0.00562477
0
0.0147709
0.0162205
-0.0389885
0.0497082
0.922795
2.74316
5.24366
7.75818
9.48275
9.83836
8.7409
6.63124
4.25646
2.32296
1.2054
0.854372
0.917349
0.871919
0.826548
0.781395
0.736343
0.690969
0.644925
0.598577
0.553969
0.51687
0.496087
0.50186
0.542711
0.622216
0.737075
0.877374
1.02905
1.17759
1.31318
1.43335
1.53597
1.62107
1.6896
1.74117
1.77564
1.79252
1.79114
1.77215
1.73887
1.69742
1.65871
1.63568
1.64027
1.68044
1.75812
1.86855
2.00146
2.14356
2.28171
2.40734
2.51722
2.61025
2.68833
2.75531
2.81563
2.87293
2.92888
2.98233
3.02852
3.06037
3.07027
3.05223
3.00343
2.92473
2.81987
2.69365
2.54989
2.39089
2.21792
2.03063
1.82831
1.61225
1.38668
1.15887
0.938424
0.73564
0.559608
0.420359
0.324013
0.266737
0.240424
0.235297
0.242358
0.254885
0.268663
0.28126
0.291001
0.296485
0.296299
0.289639
0.276915
0.260038
0.242159
0.226947
0.217691
0.21578
0.221395
0.234504
0.254577
0.280842
0.31249
0.348693
0.388485
0.430695
0.473408
0.513785
0.549086
0.577841
0.601034
0.622762
0.649924
0.690816
0.752957
0.840798
0.951813
1.08175
1.22289
1.36433
1.4947
1.60389
1.68416
1.73059
1.74087
1.71486
1.65403
1.56145
1.44155
1.29905
1.13893
0.966656
0.788142
0.609222
0.435581
0.273607
0.131117
0.0147768
-0.0703283
-0.121613
-0.140017
-0.123833
-0.0833114
-0.0360178
0
0.0175949
0.00276842
-0.04296
-0.146633
-0.025431
0.832398
2.51067
4.766
7.0669
8.77475
9.38426
8.72025
7.00624
4.7727
2.6374
1.0544
0.1591
-0.207107
-0.249154
-0.268586
-0.279268
-0.279443
-0.269148
-0.251254
-0.23138
-0.216239
-0.211861
-0.221899
-0.246337
-0.281016
-0.31815
-0.347802
-0.35997
-0.346837
-0.304268
-0.232597
-0.136282
-0.0227023
0.0994777
0.221834
0.338285
0.443559
0.533892
0.607987
0.666689
0.713196
0.753203
0.794726
0.84739
0.921073
1.02409
1.16066
1.32863
1.52632
1.7477
1.9741
2.18625
2.36938
2.51692
2.63157
2.7234
2.80559
2.89024
2.98278
3.07202
3.13785
3.16356
3.14589
3.09751
3.04045
2.99448
2.96718
2.94839
2.92763
2.89511
2.84395
2.77159
2.67926
2.57018
2.44789
2.31737
2.18205
2.0442
1.90649
1.772
1.64393
1.52506
1.41751
1.32255
1.24068
1.17199
1.11663
1.07527
1.04929
1.04088
1.05375
1.09549
1.18081
1.32477
1.5085
1.68476
1.80195
1.82114
1.73086
1.55288
1.33551
1.13664
1.05253
1.36166
1.94253
2.54709
2.94908
3.02273
2.77713
2.32419
1.81049
1.37355
1.18096
1.22994
1.39027
1.60417
1.86047
2.15888
2.48419
2.803
3.07592
3.27397
3.38011
3.38908
3.30807
3.15705
2.96602
2.76792
2.58979
2.44036
2.31276
2.20026
2.09982
2.01021
1.93066
1.86078
1.8005
1.74971
1.70791
1.67402
1.64478
1.613
1.56881
1.50084
1.37064
1.09776
0.697167
0.213209
-0.304765
0
1.34912
3.71333
6.70725
9.64223
11.7462
12.4612
11.6804
9.79146
7.48721
5.44087
4.02506
3.22837
2.79175
2.47898
2.26218
2.07484
1.93111
1.83986
1.80282
1.81424
1.86215
1.93108
2.00542
2.07292
2.12819
2.17098
2.20252
2.22475
2.24065
2.25373
2.26755
2.28544
2.31029
2.3443
2.38873
2.44366
2.50786
2.57883
2.65329
2.72736
2.79736
2.86052
2.91555
2.96288
3.00466
3.0444
3.08644
3.13524
3.1946
3.26715
3.35417
3.45519
3.56791
3.68851
3.81123
3.92831
4.03151
4.11384
4.17043
4.19923
4.20097
4.17864
4.13658
4.07936
4.01087
3.93412
3.85074
3.76087
3.66358
3.55736
3.44053
3.3117
3.17025
3.01674
2.85326
2.68348
2.51232
2.34536
2.18798
2.04456
1.91795
1.80933
1.71838
1.64371
1.58369
1.53769
1.50604
1.48917
1.48793
1.50275
1.53297
1.57645
1.62976
1.68875
1.74938
1.80835
1.86335
1.91272
1.95449
1.9873
2.00956
2.01962
2.01618
1.99857
1.96688
1.92187
1.86488
1.79805
1.72504
1.64956
1.57683
1.51337
1.46617
1.44157
1.44426
1.47654
1.53879
1.63647
1.78182
1.98935
2.24413
2.49404
2.66836
2.69592
2.53663
2.20694
1.783
1.37707
1.09505
0.943937
0.854533
0.793495
0.751962
0.722732
0.698964
0.674857
0.646041
0.609643
0.564108
0.508873
0.44404
0.370203
0.287911
0.197791
0.101228
0
-0.114609
0.158125
1.16522
3.01292
5.42627
7.78348
9.37025
9.71257
8.78971
7.00906
4.98053
3.23765
2.05911
1.4489
1.2379
1.22948
1.24265
1.26368
1.29271
1.32938
1.37213
1.4179
1.46317
1.50482
1.54076
1.5703
1.59385
1.61231
1.62619
1.63473
1.63534
1.62365
1.59525
1.54692
1.47851
1.39351
1.30094
1.22025
1.17423
1.18381
1.2779
1.53084
1.89598
2.26408
2.53244
2.64171
2.58846
2.41605
2.19318
1.99056
1.86323
1.8083
1.80179
1.82988
1.88679
1.96918
2.07303
2.19307
2.32334
2.45643
2.58296
2.69376
2.78102
2.839
2.86441
2.85631
2.81562
2.74452
2.64606
2.52489
2.38669
2.23651
2.07899
1.91877
1.76008
1.60618
1.45913
1.31976
1.18794
1.06302
0.944411
0.83197
0.726216
0.628217
0.539271
0.46045
0.392373
0.334977
0.287556
0.248891
0.21762
0.192577
0.173064
0.158984
0.150807
0.149393
0.155707
0.170505
0.194045
0.225892
0.264838
0.308973
0.355962
0.403271
0.448615
0.490383
0.527926
0.56168
0.593092
0.624383
0.658223
0.69738
0.744362
0.801082
0.868785
0.947703
1.03757
1.13717
1.24055
1.33765
1.41727
1.46944
1.48735
1.46844
1.41443
1.3303
1.22309
1.10154
0.974431
0.848288
0.728165
0.618082
0.52076
0.437759
0.368947
0.312632
0.26611
0.226283
0.190285
0.155984
0.122243
0.0889223
0.0566761
0.0266216
0
-0.024366
0.161368
0.755374
1.82337
3.35386
5.10702
6.62679
7.40252
7.11386
5.8102
3.9048
1.98107
0.528749
-0.236378
-0.386065
-0.350453
-0.323088
-0.299489
-0.279002
-0.260033
-0.240817
-0.220191
-0.198213
-0.176427
-0.157166
-0.142497
-0.133187
-0.128088
-0.124158
-0.117075
-0.10222
-0.0765995
-0.0389935
0.0108475
0.0717823
0.141506
0.215594
0.289031
0.357055
0.415947
0.463621
0.49969
0.526044
0.546397
0.565868
0.590369
0.625805
0.677127
0.747384
0.837001
0.943263
1.06066
1.18348
1.30599
1.42356
1.53347
1.63522
1.73025
1.82112
1.91039
1.99961
2.08837
2.17306
2.24745
2.30436
2.33761
2.34331
2.32038
2.26991
2.19424
2.09605
1.97956
1.8498
1.71045
1.56566
1.42039
1.28007
1.14987
1.03339
0.932924
0.848946
0.780147
0.723682
0.675375
0.630513
0.584855
0.53536
0.480643
0.421055
0.35833
0.294878
0.232927
0.174017
0.117866
0.0625298
0.00562935
-0.0541122
-0.115533
-0.174477
-0.224308
-0.257395
-0.267117
-0.251115
-0.209454
-0.145936
-0.0673111
0.0181881
0.1026
0.180219
0.247467
0.303139
0.347996
0.383982
0.412909
0.436146
0.454914
0.469978
0.482562
0.495226
0.512141
0.538451
0.578843
0.635809
0.708288
0.791331
0.877369
0.957641
1.02403
1.07042
1.09325
1.09112
1.06409
1.01294
0.940961
0.850209
0.743288
0.624045
0.497654
0.370306
0.250133
0.146699
0.0675816
0.0179859
0
0.0102367
0.0463749
0.10192
0.169694
0.243275
0.31793
0.387453
0.810957
1.82546
3.40995
5.29912
7.05077
8.19935
8.42901
7.69418
6.23461
4.47346
2.84503
1.63888
0.933572
0.669046
0.554944
0.442878
0.33185
0.223177
0.119723
0.0257626
-0.0538151
-0.114341
-0.152386
-0.165571
-0.15165
-0.112499
-0.0584286
-0.00388794
0.0380299
0.0590378
0.0578957
0.0407627
0.0195263
0.00859642
0.0211384
0.0631294
0.136257
0.245925
0.390086
0.549469
0.691274
0.783719
0.802312
0.737368
0.601548
0.433385
0.29208
0.241805
0.325396
0.510811
0.751596
1.02906
1.32629
1.61545
1.87012
2.07114
2.20953
2.28694
2.31391
2.30631
2.28106
2.25203
2.2268
2.20611
2.18769
2.16687
2.13821
2.09713
2.04107
1.96989
1.88548
1.79062
1.6877
1.57795
1.46098
1.33476
1.19681
1.04559
0.8817
0.708147
0.53195
0.365694
0.22295
0.114767
0.0466229
0.0192947
0.0234589
0.0449226
0.0684834
0.0816368
0.077029
0.0531803
0.0136791
-0.0344879
-0.0827171
-0.123257
-0.150526
-0.159567
-0.14421
-0.0890232
0.0384483
0.26932
0.570515
0.863808
1.07606
1.15916
1.09807
0.910568
0.642581
0.359185
0.129122
-0.013575
-0.0889999
-0.123297
-0.130153
-0.114598
-0.078006
-0.020927
0.0566139
0.155137
0.275348
0.417742
0.582199
0.768444
0.977594
1.21089
1.46527
1.72379
1.95643
2.13231
2.22559
2.22199
2.12395
1.95138
1.73594
1.51108
1.30253
1.11688
0.949271
0.795957
0.655927
0.529397
0.416846
0.31887
0.235635
0.166808
0.111667
0.0691414
0.0379456
0.0167679
0.00444794
0
-0.00204697
0.00186996
0.024786
0.703195
1.91632
3.60599
5.59273
7.56158
9.09825
9.80119
9.44334
8.09525
6.12174
4.03759
2.30211
1.16432
0.629548
0.630603
0.704707
0.786267
0.874534
0.96889
1.06622
1.15696
1.22735
1.26333
1.25537
1.20293
1.11614
1.01365
0.917149
0.84503
0.802524
0.783233
0.783464
0.800934
0.832527
0.87447
0.923301
0.975858
1.02926
1.08119
1.13025
1.17625
1.22042
1.26537
1.31471
1.37239
1.44188
1.52511
1.62416
1.73934
1.86177
1.97759
2.07418
2.145
2.19264
2.22874
2.27056
2.33527
2.43404
2.56288
2.7129
2.87418
3.03322
3.17655
3.29277
3.37356
3.41214
3.40575
3.35377
3.25769
3.12167
2.95313
2.76279
2.56386
2.37017
2.19357
2.03859
1.90677
1.79949
1.71596
1.65358
1.60853
1.57629
1.55194
1.53046
1.50686
1.4767
1.43653
1.38442
1.3204
1.24668
1.16739
1.08829
1.01581
0.955671
0.911873
0.885911
0.876612
0.880496
0.892569
0.907314
0.919637
0.925621
0.923038
0.911497
0.892332
0.868265
0.842922
0.820241
0.803853
0.79651
0.799326
0.811794
0.832458
0.858241
0.883421
0.899867
0.89944
0.875916
0.827044
0.756124
0.67245
0.590202
0.525802
0.494257
0.515315
0.617075
0.770615
0.928323
1.04216
1.08091
1.03913
0.935349
0.801709
0.670972
0.56582
0.484806
0.420972
0.370031
0.329239
0.296297
0.269308
0.247135
0.229662
0.217922
0.214169
0.221905
0.245143
0.287943
0.353568
0.443574
0.559038
0.701382
0.862428
1.02412
1.16694
1.27384
1.33284
1.33777
1.28745
1.18418
1.03286
0.842101
0.626772
0.401871
0.182951
-0.0115562
-0.164542
-0.263814
-0.305081
-0.293249
-0.241238
-0.167602
-0.0921692
-0.0321434
0.000518036
0
-0.0433807
-0.116695
-0.214146
-0.327867
-0.450417
-0.575929
-0.456209
0.415048
2.24939
4.87584
7.66745
9.77262
10.5236
9.76887
7.91798
5.6868
3.72698
2.3726
1.61581
1.25641
1.15398
1.08953
1.02926
0.970459
0.911131
0.849485
0.784442
0.716131
0.646201
0.577839
0.515485
0.464095
0.428261
0.411504
0.417819
0.448561
0.498882
0.559269
0.618397
0.663676
0.682452
0.666059
0.610223
0.516285
0.392058
0.251574
0.113058
-0.00480423
-0.0872681
-0.131342
-0.139539
-0.117212
-0.0728401
-0.0157631
0.0450958
0.103823
0.155772
0.197944
0.228909
0.248931
0.260091
0.266129
0.271873
0.282252
0.301109
0.330051
0.367513
0.410136
0.453617
0.492764
0.522339
0.537684
0.535072
0.511819
0.466251
0.397636
0.306234
0.193464
0.0624031
-0.0826927
-0.236845
-0.394621
-0.550851
-0.700783
-0.842091
-0.974513
-1.09882
-1.21528
-1.32226
-1.41557
-1.48887
-1.53386
-1.5249
-1.43329
-1.28447
-1.13174
-1.03049
-1.01704
-1.09553
-1.23692
-1.3892
-1.49506
-1.51151
-1.45463
-1.35579
-1.23357
-1.09931
-0.962583
-0.831942
-0.713823
-0.611956
-0.527271
-0.458258
-0.401639
-0.353149
-0.308305
-0.263102
-0.214489
-0.160701
-0.101457
-0.037851
0.0275932
0.0909058
0.14782
0.194827
0.230074
0.253891
0.268773
0.278813
0.288735
0.302804
0.323571
0.351627
0.386205
0.425501
0.466827
0.507307
0.544408
0.576284
0.601897
0.620865
0.633253
0.639506
0.640205
0.636081
0.628182
0.618103
0.608166
0.601434
0.601496
0.611939
0.635613
0.674165
0.729303
0.800041
0.880428
0.960804
1.03054
1.08028
1.10377
1.09905
1.06869
1.01914
0.959319
0.89855
0.844374
0.800411
0.765961
0.737426
0.708626
0.672771
0.624439
0.561121
0.483902
0.397166
0.307472
0.22203
0.146305
0.0830246
0.0341949
0
-0.0319954
-0.0423431
0.286554
1.06829
2.28461
3.82701
5.43946
6.77812
7.50921
7.41143
6.45982
4.8654
3.03683
1.45274
0.481036
0.234115
0.502843
0.632608
0.703549
0.693845
0.602281
0.45096
0.279834
0.134814
0.0535568
0.0308937
0.0528763
0.113218
0.201008
0.303417
0.408434
0.507658
0.597136
0.674419
0.739009
0.792648
0.838228
0.879296
0.919619
0.962732
1.01144
1.06737
1.13071
1.20003
1.2731
1.34772
1.4221
1.49533
1.56776
1.64111
1.71837
1.80349
1.90088
2.01471
2.14874
2.31387
2.52278
2.75363
2.96413
3.11135
3.16879
3.13786
3.0483
2.94693
2.88004
2.87676
2.929
3.02907
3.14234
3.22988
3.26037
3.21807
3.10522
2.9388
2.74315
2.54107
2.34638
2.16073
1.98142
1.80639
1.63471
1.46617
1.30103
1.13994
0.983678
0.833119
0.689656
0.556143
0.436861
0.335849
0.257559
0.20549
0.18071
0.18091
0.200476
0.231638
0.266275
0.297841
0.323372
0.342343
0.354971
0.362048
0.36447
0.362733
0.356784
0.34594
0.329109
0.305212
0.273636
0.234648
0.189677
0.14147
0.0940155
0.0521851
0.0211136
0.00701141
0.0214752
0.0825119
0.192328
0.320554
0.426769
0.475053
0.447919
0.353731
0.224681
0.105698
0.0377716
0.0352966
0.0756958
0.143367
0.219925
0.286366
0.327798
0.336595
0.313419
0.266385
0.209102
0.158138
0.127234
0.124342
0.153732
0.215752
0.312305
0.436754
0.57083
0.694331
0.789796
0.846065
0.859735
0.834415
0.778339
0.701469
0.61348
0.521692
0.43017
0.34122
0.256512
0.177689
0.107283
0.0484222
0.0042038
-0.022699
-0.030864
-0.0209213
0.00411224
0.0395111
0.0771759
0.108221
0.124908
0.122179
0.0985428
0.0561462
0
-0.072345
0.361452
1.43956
3.15024
5.2115
7.09996
8.23651
8.25384
7.19081
5.47841
3.71312
2.36125
1.57786
1.23034
1.08692
0.988998
0.900368
0.819945
0.748714
0.686218
0.631223
0.582434
0.539238
0.5024
0.473875
0.456465
0.452895
0.464781
0.491849
0.53206
0.581308
0.634294
0.686142
0.733507
0.775122
0.811636
0.84484
0.876636
0.908112
0.939154
0.968709
0.99568
1.02005
1.04363
1.07018
1.10464
1.15194
1.21541
1.295
1.38856
1.49312
1.60518
1.72108
1.83765
1.95241
2.06349
2.169
2.26679
2.35482
2.43096
2.49351
2.54163
2.57556
2.59631
2.60509
2.60244
2.58799
2.56051
2.51731
2.45531
2.37207
2.2666
2.13988
1.99493
1.83639
1.66969
1.50015
1.33201
1.16805
1.00967
0.857329
0.711183
0.571814
0.440831
0.321309
0.217377
0.132997
0.0714386
0.0344452
0.0217346
0.0309235
0.0578522
0.0971573
0.14286
0.188853
0.229201
0.257076
0.2673
0.25641
0.223589
0.171506
0.105084
0.0350677
-0.0264694
-0.0691467
-0.0869652
-0.0796494
-0.0522362
-0.013221
0.0278824
0.0632858
0.0889282
0.10144
0.0988991
0.0807999
0.0481331
0.00290909
-0.0515739
-0.110642
-0.168361
-0.218023
-0.253526
-0.268353
-0.255588
-0.21982
-0.170485
-0.118173
-0.0708252
-0.0313194
0.00248947
0.0353699
0.0711746
0.110221
0.146627
0.170872
0.174258
0.153401
0.112636
0.0633659
0.0208427
-0.000131989
0.00646668
0.0381767
0.0939445
0.172899
0.273956
0.393336
0.522546
0.647929
0.753446
0.823732
0.846454
0.814793
0.729321
0.598579
0.43788
0.26649
0.103986
-0.0362282
-0.150732
-0.239288
-0.299524
-0.32911
-0.322034
-0.268415
-0.174103
-0.071524
0
0.0214561
-0.0461678
-0.204704
-0.4373
-0.716443
-1.02702
-0.561896
0.605551
2.33842
4.33662
6.20528
7.55144
8.07633
7.65495
6.38704
4.58952
2.71209
1.18703
0.274502
-0.0125916
0.0318192
0.0416145
0.0398659
0.0250175
-0.00245361
-0.0402901
-0.0851273
-0.133398
-0.182157
-0.2296
-0.274866
-0.31753
-0.356866
-0.390696
-0.415044
-0.42485
-0.414764
-0.380721
-0.321421
-0.238632
-0.137064
-0.0264297
0.0824562
0.179795
0.258414
0.31456
0.347978
0.36162
0.361324
0.355872
0.355154
0.370205
0.411384
0.486256
0.59762
0.743492
0.915221
1.09931
1.28084
1.44621
1.58443
1.68751
1.75333
1.78352
1.78268
1.75776
1.71716
1.66947
1.6218
1.57818
1.53824
1.49908
1.45714
1.40847
1.34955
1.27781
1.19185
1.09135
0.976865
0.850163
0.713662
0.570363
0.424296
0.280402
0.144074
0.020549
-0.0855255
-0.171499
-0.238158
-0.288895
-0.328906
-0.364028
-0.399525
-0.439143
-0.484618
-0.535661
-0.590339
-0.645704
-0.69864
-0.746265
-0.786088
-0.816156
-0.835093
-0.842086
-0.837008
-0.820425
-0.793576
-0.758242
-0.717288
-0.674383
-0.633307
-0.597437
-0.569282
-0.550167
-0.54013
-0.537978
-0.541475
-0.547509
-0.552587
-0.553035
-0.545387
-0.526825
-0.495632
-0.451546
-0.395934
-0.331745
-0.263199
-0.195558
-0.135101
-0.0876785
-0.0579029
-0.0483234
-0.0588085
-0.0863121
-0.125209
-0.168215
-0.207747
-0.237515
-0.25443
-0.257498
-0.247229
-0.225604
-0.195369
-0.159373
-0.120148
-0.0797646
-0.0399216
-0.00212746
0.0321751
0.0615627
0.0847301
0.100665
0.108833
0.109345
0.103118
0.0920223
0.0790096
0.0679836
0.0637188
0.0715157
0.0975784
0.153767
0.259816
0.422752
0.613326
0.791251
0.918344
0.970215
0.942138
0.848442
0.717532
0.584904
0.484266
0.42704
0.407611
0.429357
0.480727
0.542279
0.592978
0.616095
0.603319
0.55572
0.48166
0.392985
0.301236
0.214035
0.134074
0.0624401
0
-0.038763
0.0989258
0.772612
2.02065
3.7886
5.77325
7.49306
8.46871
8.42535
7.4124
5.78065
4.0264
2.58285
1.66157
1.2172
1.04153
0.915543
0.804253
0.707972
0.631392
0.578206
0.548678
0.539536
0.545403
0.559799
0.576242
0.589241
0.595052
0.592158
0.581507
0.566603
0.552792
0.547168
0.557603
0.591713
0.655707
0.753306
0.90288
1.12427
1.3859
1.63327
1.81364
1.89466
1.87669
1.79269
1.69479
1.63353
1.63917
1.69098
1.7651
1.85066
1.94026
2.02736
2.10755
2.17902
2.24259
2.30106
2.35826
2.41784
2.48219
2.55243
2.62602
2.69772
2.7616
2.81295
2.84952
2.87158
2.8808
2.87836
2.86338
2.83371
2.78492
2.71151
2.609
2.47514
2.31069
2.1194
1.90754
1.68355
1.456
1.23219
1.01889
0.822084
0.6466
0.49586
0.371607
0.273776
0.200651
0.149081
0.114401
0.0909488
0.0732181
0.0566273
0.0381214
0.016496
-0.00761919
-0.0320249
-0.0534764
-0.0682732
-0.0727826
-0.0636898
-0.0387949
0.00293741
0.0612248
0.134416
0.219579
0.312756
0.409373
0.504729
0.59446
0.675128
0.743451
0.796711
0.83355
0.853528
0.85726
0.846554
0.824428
0.794855
0.762215
0.730533
0.70262
0.679378
0.6603
0.643569
0.626336
0.605402
0.577849
0.541536
0.495393
0.43948
0.374906
0.303686
0.22864
0.153265
0.0826957
0.0229812
-0.0199739
-0.0413705
-0.0386565
-0.0123195
0.0340081
0.0942105
0.160891
0.226706
0.286257
0.336105
0.373607
0.397267
0.406564
0.401798
0.383997
0.354932
0.317216
0.274431
0.23121
0.193191
0.166687
0.158078
0.173046
0.216532
0.298393
0.434482
0.641491
0.902916
1.16218
1.36138
1.45171
1.40737
1.23739
0.985595
0.714128
0.478247
0.300274
0.159109
0.0382086
-0.0680839
-0.159058
-0.232786
-0.286461
-0.317657
-0.324606
-0.30722
-0.267773
-0.210935
-0.143095
-0.071151
-0.00116992
0.062718
0.116797
0
0.264326
1.24764
2.93045
4.92283
6.59372
7.35628
6.9556
5.59037
3.79565
2.16373
1.07622
0.59648
0.556348
0.610842
0.641701
0.659716
0.661616
0.644652
0.607679
0.55134
0.478156
0.392483
0.300371
0.208617
0.124033
0.0527883
0.00125122
-0.0246146
-0.0249701
-0.00718641
0.0184167
0.0412942
0.0533193
0.0506046
0.0341236
0.00915747
-0.0161268
-0.0330307
-0.0354528
-0.0200056
0.014425
0.0665173
0.133
0.209153
0.289075
0.367057
0.438599
0.501151
0.554409
0.600149
0.641654
0.682884
0.727492
0.7779
0.835604
0.900434
0.967835
1.03049
1.08092
1.11353
1.12612
1.11998
1.09883
1.06706
1.02799
0.983588
0.934204
0.87859
0.814983
0.741528
0.656541
0.558673
0.44737
0.322773
0.185519
0.0371808
-0.119689
-0.281709
-0.445
-0.605648
-0.760177
-0.905929
-1.04126
-1.16551
-1.27873
-1.38135
-1.47387
-1.55642
-1.6283
-1.68776
-1.732
-1.75832
-1.76434
-1.74862
-1.71134
-1.65478
-1.58321
-1.50238
-1.41867
-1.33815
-1.26534
-1.2028
-1.15323
-1.11826
-1.09883
-1.09525
-1.10718
-1.13342
-1.17181
-1.21918
-1.27144
-1.32381
-1.37066
-1.40671
-1.4278
-1.43155
-1.41763
-1.38772
-1.34488
-1.29269
-1.23449
-1.17291
-1.10961
-1.04556
-0.981714
-0.919671
-0.862161
-0.812888
-0.775706
-0.753724
-0.748239
-0.757961
-0.778799
-0.804304
-0.826679
-0.83807
-0.83249
-0.807248
-0.758513
-0.675187
-0.526279
-0.258544
0.107513
0.485184
0.750738
0.789561
0.564228
0.15458
-0.267551
-0.527929
-0.566717
-0.556742
-0.562021
-0.611053
-0.747213
-1.0202
-1.36143
-1.67216
-1.86666
-1.90117
-1.78093
-1.54872
-1.2636
-0.97841
-0.721242
-0.484592
-0.320474
0
0.802228
2.17027
3.93774
5.69735
6.93476
7.22834
6.42469
4.71565
2.5798
0.602185
-0.749943
-1.29264
-1.10136
-0.93149
-0.788981
-0.692716
-0.648607
-0.647842
-0.670453
-0.692853
-0.696322
-0.67665
-0.639805
-0.593016
-0.545572
-0.505456
-0.476624
-0.457786
-0.443036
-0.42406
-0.393126
-0.346088
-0.284954
-0.213776
-0.137271
-0.0601212
0.0147043
0.0871075
0.160126
0.239192
0.330548
0.448356
0.607012
0.785352
0.946994
1.05611
1.09467
1.07234
1.0235
0.992881
1.01728
1.10856
1.23879
1.38972
1.55276
1.72099
1.88795
2.04657
2.18919
2.31001
2.40399
2.4672
2.49725
2.49368
2.45782
2.39226
2.30027
2.18571
2.05414
1.91029
1.75806
1.60126
1.44385
1.28949
1.14117
1.00095
0.869244
0.744845
0.62574
0.510101
0.397225
0.288128
0.185587
0.0935879
0.0163445
-0.0436531
-0.0850372
-0.107254
-0.111843
-0.103561
-0.0881756
-0.0712109
-0.0569084
-0.0475689
-0.0433929
-0.0428268
-0.0432831
-0.0420265
-0.0371906
-0.0278721
-0.0139027
0.00370827
0.0239368
0.0466961
0.0735641
0.10796
0.154575
0.223293
0.332568
0.482707
0.642629
0.769935
0.82865
0.804942
0.713113
0.589458
0.477417
0.410887
0.390454
0.396272
0.417336
0.443841
0.465221
0.472467
0.459948
0.426672
0.376756
0.318924
0.265012
0.227695
0.216617
0.236757
0.289944
0.373293
0.480063
0.60136
0.728186
0.853438
0.973495
1.08693
1.19413
1.29653
1.39554
1.49137
1.58082
1.65568
1.70443
1.71548
1.68145
1.60248
1.48706
1.34994
1.20779
1.0745
0.955259
0.848735
0.754977
0.674364
0.608163
0.559045
0.533487
0.559389
0.680904
0.860962
1.02131
1.07135
0.950017
0.655252
0.242786
-0.303082
0
1.37636
3.68531
6.40936
8.82896
10.2838
10.4147
9.28248
7.3136
5.10635
3.2005
1.91248
1.29319
1.19332
1.23587
1.22983
1.20964
1.174
1.12287
1.05762
0.980493
0.893958
0.800669
0.702897
0.602791
0.50443
0.416035
0.348686
0.314884
0.325368
0.385512
0.492659
0.635544
0.79619
0.953875
1.09068
1.20077
1.28188
1.33491
1.36511
1.38066
1.39096
1.40485
1.42858
1.46533
1.51613
1.58066
1.65749
1.74455
1.83966
1.94095
2.0472
2.15784
2.27282
2.39233
2.51644
2.6447
2.77596
2.9081
3.03766
3.15953
3.26719
3.35394
3.41372
3.44167
3.43474
3.39221
3.3159
3.20988
3.07974
2.93159
2.77135
2.6038
2.43221
2.25867
2.08478
1.91241
1.74399
1.58258
1.43176
1.2952
1.17624
1.07735
0.999811
0.943983
0.908889
0.890956
0.883531
0.878345
0.867353
0.844194
0.805485
0.751681
0.687259
0.620129
0.56032
0.5179
0.503001
0.538057
0.638813
0.775443
0.903414
0.980385
0.982275
0.912947
0.803471
0.700447
0.647197
0.665363
0.727014
0.808114
0.889283
0.9526
0.986238
0.987062
0.960619
0.918838
0.87643
0.846889
0.836369
0.845744
0.874498
0.922632
0.987788
1.06254
1.13392
1.18871
1.21699
1.21492
1.18632
1.14232
1.09873
1.07191
1.0743
1.10675
1.16223
1.23394
1.3162
1.40299
1.48811
1.56523
1.62817
1.67249
1.695
1.6938
1.6683
1.61912
1.54788
1.45687
1.34863
1.22585
1.09198
0.950213
0.80341
0.654802
0.508231
0.368386
0.240869
0.13064
0.0413761
-0.0248697
-0.067968
-0.0896719
-0.093251
-0.0829315
-0.0633261
-0.0384949
0
0.540555
1.82985
3.7693
5.89548
7.56616
8.2636
7.83172
6.51054
4.77013
3.07242
1.70192
0.73206
0.0952395
-0.212689
-0.357201
-0.460933
-0.512311
-0.508387
-0.456386
-0.372488
-0.277758
-0.192357
-0.128662
-0.0855845
-0.0568501
-0.0378544
-0.0241808
-0.0113197
0.00447998
0.0256231
0.0532059
0.0870491
0.125915
0.167696
0.209728
0.249152
0.283103
0.308606
0.322658
0.323536
0.310923
0.286152
0.252546
0.215477
0.182012
0.160113
0.157537
0.180691
0.231376
0.309196
0.413353
0.541076
0.687645
0.847573
1.01481
1.18311
1.34631
1.49812
1.63171
1.74094
1.82197
1.87223
1.8905
1.87695
1.83319
1.76215
1.668
1.5558
1.43148
1.30119
1.16999
1.04191
0.919898
0.80573
0.700169
0.603189
0.514256
0.432681
0.357872
0.289395
0.22683
0.169491
0.116134
0.0647638
0.0124539
-0.0441561
-0.108024
-0.180776
-0.262269
-0.350024
-0.436598
-0.511969
-0.566335
-0.59274
-0.588912
-0.557614
-0.505322
-0.439671
-0.366554
-0.288432
-0.204159
-0.100883
0.0930846
0.490977
0.996675
1.41723
1.56862
1.38006
0.938146
0.443751
0.107049
0.0355805
0.0847193
0.155843
0.229998
0.300914
0.365855
0.425536
0.483133
0.542691
0.607415
0.678103
0.753704
0.829744
0.900136
0.959052
1.00251
1.02925
1.04064
1.03985
1.03065
1.01646
1.00003
0.983123
0.967061
0.952888
0.941154
0.931531
0.92173
0.906177
0.8774
0.828313
0.754979
0.658668
0.54623
0.428526
0.317507
0.223033
0.146193
0.0850618
0.0376091
0
-0.0351728
-0.0751196
-0.128436
-0.202032
-0.299649
-0.420859
-0.560899
-0.712667
-0.876599
-0.392694
0.737754
2.29938
3.88354
5.04782
5.48777
5.137
4.16083
2.8651
1.57291
0.520202
-0.195091
-0.583832
-0.750899
-0.894007
-1.02542
-1.13941
-1.22998
-1.29226
-1.32319
-1.32266
-1.29423
-1.24502
-1.18466
-1.12345
-1.07028
-1.02981
-1.00268
-0.988344
-0.98425
-0.986555
-0.990731
-0.992324
-0.98727
-0.972049
-0.944075
-0.902086
-0.846436
-0.779212
-0.703883
-0.624478
-0.544886
-0.46802
-0.395198
-0.325922
-0.258081
-0.188543
-0.113947
-0.0315119
0.0603146
0.161626
0.271155
0.386602
0.505149
0.624041
0.741089
0.855037
0.965628
1.0734
1.17916
1.28317
1.38399
1.47709
1.55496
1.60871
1.63061
1.61634
1.56573
1.48186
1.36913
1.2314
1.07444
0.903379
0.721425
0.53157
0.337923
0.146031
-0.0374294
-0.205235
-0.350384
-0.465288
-0.538769
-0.557927
-0.523793
-0.461571
-0.402203
-0.374262
-0.396318
-0.471849
-0.587958
-0.718279
-0.829533
-0.890602
-0.893034
-0.845304
-0.752746
-0.619237
-0.451343
-0.254863
-0.026885
0.236028
0.518243
0.779219
0.961631
1.01331
0.91794
0.712122
0.475651
0.297659
0.234942
0.252461
0.299048
0.355535
0.413412
0.467715
0.518083
0.568676
0.631402
0.758897
1.04813
1.43903
1.79739
1.984
1.92374
1.64162
1.24893
0.890783
0.684679
0.63636
0.650578
0.68858
0.739011
0.79646
0.856479
0.915337
0.970301
1.01964
1.06245
1.09842
1.12754
1.14942
1.16405
1.17173
1.17332
1.17063
1.1665
1.16458
1.16851
1.18246
1.20934
1.24416
1.27723
1.29792
1.2987
1.27775
1.23878
1.18807
1.13013
1.06437
0.987104
0.893179
0.77606
0.621249
0.43194
0.219463
0
-0.173598
0.600387
2.11975
4.176
6.35534
8.16152
9.17107
9.16635
8.20991
6.62418
4.86472
3.33653
2.24969
1.59923
1.33152
1.3363
1.35065
1.36768
1.38503
1.40024
1.41094
1.41492
1.41015
1.39478
1.36724
1.3265
1.27234
1.20437
1.12385
1.03611
0.951488
0.882289
0.839803
0.831626
0.859762
0.92007
1.00327
1.09728
1.19019
1.27365
1.34531
1.40635
1.45852
1.50397
1.54516
1.58429
1.62305
1.66261
1.70398
1.74839
1.79772
1.85474
1.92311
2.00708
2.11093
2.2381
2.39039
2.57243
2.79161
3.03368
3.26541
3.45212
3.56821
3.60461
3.5696
3.48306
3.36691
3.23655
3.09875
2.95505
2.80562
2.65059
2.49127
2.33053
2.17223
2.02052
1.87938
1.75039
1.63334
1.52709
1.43068
1.34443
1.27012
1.21053
1.1683
1.14467
1.13863
1.14683
1.16431
1.18571
1.2065
1.22385
1.23643
1.24402
1.2467
1.2442
1.23519
1.21782
1.19017
1.15113
1.10123
1.04298
0.980573
0.919032
0.863086
0.815919
0.778966
0.752434
0.735529
0.727084
0.726067
0.731786
0.743773
0.761477
0.783865
0.809348
0.836007
0.861668
0.884184
0.901691
0.912753
0.916496
0.912607
0.901308
0.883312
0.859729
0.831916
0.80129
0.769115
0.736356
0.703601
0.671108
0.638913
0.606945
0.57512
0.543398
0.511841
0.48074
0.450812
0.42348
0.401114
0.387145
0.387557
0.420187
0.538502
0.810305
1.16774
1.4993
1.69669
1.69541
1.49337
1.14456
0.737068
0.370645
0.134439
0.00450249
-0.0683451
-0.106593
-0.110335
-0.0876154
-0.0525856
-0.0195543
0
0.00764999
-0.00472412
-0.0318413
-0.0648655
-0.0940012
-0.111547
-0.114568
-0.095652
0.100393
0.758473
1.77691
3.0691
4.41697
5.51973
6.09488
5.9827
5.20586
3.95846
2.53077
1.20809
0.190005
-0.399699
-0.424391
-0.423685
-0.418055
-0.411829
-0.409868
-0.41655
-0.434878
-0.465987
-0.509134
-0.562061
-0.621503
-0.683473
-0.743984
-0.798376
-0.840766
-0.866039
-0.870119
-0.851112
-0.810214
-0.751906
-0.683173
-0.611921
-0.545114
-0.48685
-0.438801
-0.400791
-0.371737
-0.350846
-0.337881
-0.33412
-0.341449
-0.36133
-0.393716
-0.437507
-0.48737
-0.532518
-0.560523
-0.560141
-0.523949
-0.449973
-0.341862
-0.207671
-0.0577852
0.0970806
0.248733
0.392303
0.52354
0.638299
0.73257
0.803177
0.84706
0.86127
0.843352
0.791841
0.706711
0.589651
0.444116
0.275177
0.089932
-0.104116
-0.299923
-0.490788
-0.670372
-0.833104
-0.974601
-1.09201
-1.18415
-1.25165
-1.2971
-1.32487
-1.34041
-1.34949
-1.35753
-1.36912
-1.38768
-1.41539
-1.45319
-1.50093
-1.55739
-1.62036
-1.68682
-1.75294
-1.8141
-1.8648
-1.8993
-1.91207
-1.89792
-1.84375
-1.72488
-1.53072
-1.30138
-1.08782
-0.935838
-0.872626
-0.901157
-1.00323
-1.14724
-1.29534
-1.40832
-1.46838
-1.47641
-1.43752
-1.33808
-1.1632
-0.945774
-0.733165
-0.569692
-0.483399
-0.479577
-0.542694
-0.644555
-0.754318
-0.846496
-0.913623
-0.959046
-0.986477
-0.998262
-0.996805
-0.986586
-0.972642
-0.959777
-0.951826
-0.951104
-0.958167
-0.971884
-0.989771
-1.00846
-1.02447
-1.03466
-1.03625
-1.02711
-1.00598
-0.972536
-0.927452
-0.872332
-0.809602
-0.742097
-0.672883
-0.604696
-0.539484
-0.478097
-0.420192
-0.364421
-0.308862
-0.251586
-0.191241
-0.127519
-0.0611087
0.00620661
0.0715584
0.131726
0.183861
0.225975
0.257082
0.27689
0.285134
0.280768
0.260986
0.221758
0.158154
0.0656551
-0.0640026
-0.250555
-0.485966
-0.720486
-0.897151
-0.971965
-0.929572
-0.788435
-0.593156
-0.396586
-0.239438
-0.127543
-0.126895
0
0.966527
2.92055
5.49954
7.93239
9.40306
9.45911
8.21109
6.20806
4.10527
2.36011
1.12899
0.362856
-0.0113261
0.00906057
0.0281819
0.0420609
0.046306
0.0374265
0.0136917
-0.0241252
-0.0723961
-0.124871
-0.173563
-0.210427
-0.225301
-0.200717
-0.138206
-0.0614202
-0.000323486
0.0219279
-0.000161552
-0.0511416
-0.10035
-0.112918
-0.010726
0.208941
0.462485
0.645774
0.68244
0.554524
0.308632
0.038086
-0.152556
-0.188775
-0.116531
0.00365067
0.147278
0.304566
0.468332
0.632407
0.791941
0.943362
1.08398
1.21128
1.32299
1.41803
1.49625
1.55873
1.6081
1.6486
1.68561
1.72467
1.77141
1.83101
1.90031
1.96681
2.01361
2.02421
1.98687
1.89681
1.75658
1.57521
1.36696
1.15093
0.941905
0.749162
0.581116
0.448726
0.350165
0.274464
0.207146
0.135272
0.0517354
-0.0428597
-0.14134
-0.233409
-0.309781
-0.368985
-0.413755
-0.445573
-0.466983
-0.480982
-0.490387
-0.497458
-0.503787
-0.510353
-0.51762
-0.525574
-0.533726
-0.541095
-0.546262
-0.547524
-0.54311
-0.531392
-0.51114
-0.481467
-0.441582
-0.390953
-0.329442
-0.257586
-0.176662
-0.0886674
0.00102949
0.0846982
0.154572
0.204738
0.232614
0.239426
0.229525
0.208866
0.18332
0.157472
0.133758
0.113509
0.0976047
0.0866657
0.0811387
0.0811434
0.0861765
0.0949316
0.105083
0.112967
0.114816
0.108222
0.0934295
0.0740159
0.0565464
0.0491305
0.0592448
0.0915299
0.145165
0.215604
0.296429
0.379776
0.457887
0.525439
0.577892
0.612839
0.62955
0.628643
0.611708
0.580969
0.538971
0.488312
0.431445
0.370655
0.30809
0.245864
0.186386
0.132529
0.0875413
0.0547981
0.0383193
0.0436862
0.0745894
0.122847
0.171505
0.201932
0.199679
0.159183
0.0855202
-0.00729623
-0.100594
-0.176152
-0.225104
-0.248687
-0.249671
-0.229927
-0.179842
0
0.577635
1.43539
2.52787
3.73329
4.82156
5.48923
5.47212
4.68742
3.31263
1.73081
0.362768
-0.509837
-0.766668
-0.553647
-0.341424
-0.143126
0.028579
0.163927
0.263247
0.335908
0.387528
0.41886
0.430339
0.422666
0.396626
0.353678
0.295365
0.225079
0.15201
0.0880579
0.045013
0.0320812
0.0540383
0.110599
0.197068
0.305853
0.428212
0.55511
0.680221
0.799122
0.908107
1.0043
1.0856
1.15041
1.19844
1.23112
1.25147
1.26406
1.27492
1.29102
1.3194
1.36612
1.43502
1.52633
1.63644
1.76088
1.89262
2.02295
2.14421
2.2513
2.34235
2.41844
2.48245
2.53641
2.57982
2.60897
2.61583
2.59033
2.52452
2.41619
2.27053
2.09903
1.91618
1.73527
1.56318
1.40021
1.24537
1.09647
0.950481
0.80453
0.656898
0.50776
0.359624
0.217446
0.0880928
-0.0204765
-0.091364
-0.0888568
0.0111115
0.169703
0.328841
0.433471
0.451152
0.381241
0.252401
0.111612
0.00866585
-0.0248
-0.00257476
0.0522942
0.127892
0.210251
0.285838
0.344646
0.382031
0.398691
0.398937
0.388105
0.370281
0.347964
0.321693
0.291502
0.258321
0.22474
0.19582
0.194341
0.354698
0.827854
1.45287
1.99748
2.23605
2.04941
1.47787
0.698956
-0.033279
-0.400846
-0.305938
-0.0820542
0.182223
0.468429
0.755691
1.02402
1.26266
1.4567
1.59553
1.67677
1.70156
1.67392
1.60063
1.49129
1.35783
1.21338
1.07067
0.939732
0.825101
0.731606
0.664963
0.628909
0.625781
0.655749
0.719674
0.819012
0.937
1.05205
1.14592
1.21043
1.25107
1.2857
1.33863
1.43226
1.57961
1.76825
1.99882
2.28606
2.61422
2.9944
3.56341
4.26586
4.85634
5.02845
4.61169
3.69764
2.6028
1.69091
1.23139
1.14713
1.11281
1.08963
1.07382
1.06348
1.05607
1.04861
1.03836
1.02329
1.00246
0.976197
0.945959
0.914018
0.883072
0.855912
0.835133
0.82386
0.825904
0.84519
0.885769
0.956182
1.08176
1.28054
1.51136
1.71409
1.83295
1.84066
1.75117
1.61384
1.49038
1.42458
1.41433
1.42258
1.42444
1.40124
1.3506
1.28999
1.25162
1.27041
1.37028
1.53447
1.7387
1.97318
2.22167
2.46265
2.67281
2.83466
2.93793
2.97828
2.95645
2.87762
2.75084
2.588
2.40229
2.20675
2.013
1.82808
1.65581
1.49978
1.36348
1.25015
1.16178
1.09641
1.04908
1.01356
0.983641
0.954463
0.92334
0.890006
0.856175
0.824616
0.797805
0.77693
0.761901
0.751646
0.743476
0.733908
0.71977
0.699162
0.672141
0.640919
0.60954
0.583127
0.566935
0.564755
0.578557
0.609487
0.658031
0.724624
0.805771
0.890036
0.962883
1.01105
1.02638
1.00885
0.96745
0.918176
0.87958
0.867164
0.884204
0.9261
0.988089
1.05795
1.12225
1.17012
1.19624
1.20195
1.19441
1.18408
1.18132
1.19272
1.2187
1.25649
1.30318
1.35519
1.40908
1.46223
1.51297
1.56016
1.60241
1.63799
1.66448
1.67901
1.67892
1.6625
1.62934
1.58013
1.5161
1.4385
1.34904
1.24972
1.14296
1.0321
0.921966
0.818994
0.731806
0.678564
0.688023
0.756535
0.852612
0.934422
0.966198
0.930348
0.829788
0.681458
0.506447
0.322302
0.139541
0
0.266778
1.08351
2.38177
3.82114
4.94291
5.39045
5.05042
4.05732
2.69906
1.30044
0.129406
-0.658604
-0.923268
-0.905314
-0.876747
-0.846588
-0.818238
-0.792757
-0.768422
-0.741035
-0.705079
-0.649022
-0.559507
-0.45507
-0.373072
-0.356209
-0.433846
-0.607506
-0.848042
-1.10584
-1.3285
-1.48015
-1.43425
-0.992695
-0.377604
0.199349
0.552167
0.559413
0.21953
-0.333605
-0.882846
-1.22425
-1.26988
-1.25202
-1.23209
-1.21934
-1.21527
-1.21309
-1.19981
-1.16085
-1.08572
32
182
332
480
625
775
930
1112
1289
1461
1634
1818
2007
2175
2346
2513
2674
2841
3012
3200
3380
3704
3690
3534
3689
0
0
0
0
0
0
0
0
0
0
0
0
0
0
0
0
0
0
0
0
0
0
0
0
0
0
0
0
0
0
0
0
0
0
0
0
0
0
0
0
0
0
0
0
0
0
0
0
0
0
0
0
0
0
0
0
0
0
0
0
0
0
0
0
0
0
0
0
0
0
0
0
0
0
0
0
0
0
0
0
0
0
0
0
0
0
0
0
0
0
0
0
0
0
0
0
0
0
0
0
0
0
0
0
0
0
0
0
0
0
0
0
0
0
0
0
0
0
0
0
0
0
0
0
0
0
0
0
0
0
0
0
0
0
0
0
0
0
0
0
0
0
0
0
0
0
0
0
0
0
0
0
0
0
0
0
0
0
0
0
0
0
0
0
0
0
0
0
0
0
0
0
0
0
0
0
0
0
0
0
0
0
0
0
0
0
0
0
0
0
0
0
0
0
0
0
0
0
0
0
0
0
0
0
0
0
0
0
0
0
0
0
0
0
0
0
0
0
0
0
0
0
0
0
0
0
0
0
0
0
0
0
0
0
0
0
0
0
0
0
0
0
0
0
0
0
0
0
0
0
0
0
0
0
0
0
0
0
0
0
0
0
0
0
0
0
0
0
0
0
0
0
0
0
0
0
0
0
0
0
0
0
0
0
0
0
0
0
0
0
0
0
0
0
0
0
0
0
0
0
0
0
0
0
0
0
0
0
0
0
0
0
0
0
0
0
0
0
0
0
0
0
0
0
0
0
0
0
0
0
0
0
0
0
0
0
0
0
0
0
0
0
0
0
0
0
0
0
0
0
0
0
0
0
0
0
0
0
0
0
0
0
0
0
0
0
0
0
0
0
0
0
0
0
0
0
0
0
0
0
0
0
0
0
0
0
0
0
0
0
0
0
0
0
0
0
0
0
0
0
0
0
0
0
0
0
0
0
0
0
0
0
0
0
0
0
0
0
0
0
0
0
0
0
0
0
0
0
0
0
0
0
0
0
0
0
0
0
0
0
0
0
0
0
0
0
0
0
0
0
0
0
0
0
0
0
0
0
0
0
0
0
0
0
0
0
0
0
0
0
0
0
0
0
0
0
0
0
0
0
0
0
0
0
0
0
0
0
0
0
0
0
0
0
0
0
0
0
0
0
0
0
0
0
0
0
0
0
0
0
0
0
0
0
0
0
0
0
0
0
0
0
0
0
0
0
0
0
0
0
0
0
0
0
0
0
0
0
0
0
0
0
0
0
0
0
0
0
0
0
0
0
0
0
0
0
0
0
0
0
0
0
0
0
0
0
0
0
0
0
0
0
0
0
0
0
0
0
0
0
0
0
0
0
0
0
0
0
0
0
0
0
0
0
0
0
0
0
0
0
0
0
0
0
0
0
0
0
0
0
0
0
0
0
0
0
0
0
0
0
0
0
0
0
0
0
0
0
0
0
0
0
0
0
0
0
0
0
0
0
0
0
0
0
0
0
0
0
0
0
0
0
0
0
0
0
0
0
0
0
0
0
0
0
0
0
0
0
0
0
0
0
0
0
0
0
0
0
0
0
0
0
0
0
0
0
0
0
0
0
0
0
0
0
0
0
0
0
0
0
0
0
0
0
0
0
0
0
0
0
0
0
0
0
0
0
0
0
0
0
0
0
0
0
0
0
0
0
0
0
0
0
0
0
0
0
0
0
0
0
0
0
0
0
0
0
0
0
0
0
0
0
0
0
0
0
0
0
0
0
0
0
0
0
0
0
0
0
0
0
0
0
0
0
0
0
0
0
0
0
0
0
0
0
0
0
0
0
0
0
0
0
0
0
0
0
0
0
0
0
0
0
0
0
0
0
0
0
0
0
0
0
0
0
0
0
0
0
0
0
0
0
0
0
0
0
0
0
0
0
0
0
0
0
0
0
0
0
0
0
0
0
0
0
0
0
0
0
0
0
0
0
0
0
0
0
0
0
0
0
0
0
0
0
0
0
0
0
0
0
0
0
0
0
0
0
0
0
0
0
0
0
0
0
0
0
0
0
0
0
0
0
0
0
0
0
0
0
0
0
0
0
0
0
0
0
0
0
0
0
0
0
0
0
0
0
0
0
0
0
0
0
0
0
0
0
0
0
0
0
0
0
0
0
0
0
0
0
0
0
0
0
0
0
0
0
0
0
0
0
0
0
0
0
0
0
0
0
0
0
0
0
0
0
0
0
0
0
0
0
0
0
0
0
0
0
0
0
0
0
0
0
0
0
0
0
0
0
0
0
0
0
0
0
0
0
0
0
0
0
0
0
0
0
0
0
0
0
0
0
0
0
0
0
0
0
0
0
0
0
0
0
0
0
0
0
0
0
0
0
0
0
0
0
0
0
0
0
0
0
0
0
0
0
0
0
0
0
0
0
0
0
0
0
0
0
0
0
0
0
0
0
0
0
0
0
0
0
0
0
0
0
0
0
0
0
0
0
0
0
0
0
0
0
0
0
0
0
0
0
0
0
0
0
0
0
0
0
0
0
0
0
0
0
0
0
0
0
0
0
0
0
0
0
0
0
0
0
0
0
0
0
0
0
0
0
0
0
0
0
0
0
0
0
0
0
0
0
0
0
0
0
0
0
0
0
0
0
0
0
0
0
0
0
0
0
0
0
0
0
0
0
0
0
0
0
0
0
0
0
0
0
0
0
0
0
0
0
0
0
0
0
0
0
0
0
0
0
0
0
0
0
0
0
0
0
0
0
0
0
0
0
0
0
0
0
0
0
0
0
0
0
0
0
0
0
0
0
0
0
0
0
0
0
0
0
0
0
0
0
0
0
0
0
0
0
0
0
0
0
0
0
0
0
0
0
0
0
0
0
0
0
0
0
0
0
0
0
0
0
0
0
0
0
0
0
0
0
0
0
0
0
0
0
0
0
0
0
0
0
0
0
0
0
0
0
0
0
0
0
0
0
0
0
0
0
0
0
0
0
0
0
0
0
0
0
0
0
0
0
0
0
0
0
0
0
0
0
0
0
0
0
0
0
0
0
0
0
0
0
0
0
0
0
0
0
0
0
0
0
0
0
0
0
0
0
0
0
0
0
0
0
0
0
0
0
0
0
0
0
0
0
0
0
0
0
0
0
0
0
0
0
0
0
0
0
0
0
0
0
0
0
0
0
0
0
0
0
0
0
0
0
0
0
0
0
0
0
0
0
0
0
0
0
0
0
0
0
0
0
0
0
0
0
0
0
0
0
0
0
0
0
0
0
0
0
0
0
0
0
0
0
0
0
0
0
0
0
0
0
0
0
0
0
0
0
0
0
0
0
0
0
0
0
0
0
0
0
0
0
0
0
0
0
0
0
0
0
0
0
0
0
0
0
0
0
0
0
0
0
0
0
0
0
0
0
0
0
0
0
0
0
0
0
0
0
0
0
0
0
0
0
0
0
0
0
0
0
0
0
0
0
0
0
0
0
0
0
0
0
0
0
0
0
0
0
0
0
0
0
0
0
0
0
0
0
0
0
0
0
0
0
0
0
0
0
0
0
0
0
0
0
0
0
0
0
0
0
0
0
0
0
0
0
0
0
0
0
0
0
0
0
0
0
0
0
0
0
0
0
0
0
0
0
0
0
0
0
0
0
0
0
0
0
0
0
0
0
0
0
0
0
0
0
0
0
0
0
0
0
0
0
0
0
0
0
0
0
0
0
0
0
0
0
0
0
0
0
0
0
0
0
0
0
0
0
0
0
0
0
0
0
0
0
0
0
0
0
0
0
0
0
0
0
0
0
0
0
0
0
0
0
0
0
0
0
0
0
0
0
0
0
0
0
0
0
0
0
0
0
0
0
0
0
0
0
0
0
0
0
0
0
0
0
0
0
0
0
0
0
0
0
0
0
0
0
0
0
0
0
0
0
0
0
0
0
0
0
0
0
0
0
0
0
0
0
0
0
0
0
0
0
0
0
0
0
0
0
0
0
0
0
0
0
0
0
0
0
0
0
0
0
0
0
0
0
0
0
0
0
0
0
0
0
0
0
0
0
0
0
0
0
0
0
0
0
0
0
0
0
0
0
0
0
0
0
0
0
0
0
0
0
0
0
0
0
0
0
0
0
0
0
0
0
0
0
0
0
0
0
0
0
0
0
0
0
0
0
0
0
0
0
0
0
0
0
0
0
0
0
0
0
0
0
0
0
0
0
0
0
0
0
0
0
0
0
0
0
0
0
0
0
0
0
0
0
0
0
0
0
0
0
0
0
0
0
0
0
0
0
0
0
0
0
0
0
0
0
0
0
0
0
0
0
0
0
0
0
0
0
0
0
0
0
0
0
0
0
0
0
0
0
0
0
0
0
0
0
0
0
0
0
0
0
0
0
0
0
0
0
0
0
0
0
0
0
0
0
0
0
0
0
0
0
0
0
0
0
0
0
0
0
0
0
0
0
0
0
0
0
0
0
0
0
0
0
0
0
0
0
0
0
0
0
0
0
0
0
0
0
0
0
0
0
0
0
0
0
0
0
0
0
0
0
0
0
0
0
0
0
0
0
0
0
0
0
0
0
0
0
0
0
0
0
0
0
0
0
0
0
0
0
0
0
0
0
0
0
0
0
0
0
0
0
0
0
0
0
0
0
0
0
0
0
0
0
0
0
0
0
0
0
0
0
0
0
0
0
0
0
0
0
0
0
0
0
0
0
0
0
0
0
0
0
0
0
0
0
0
0
0
0
0
0
0
0
0
0
0
0
0
0
0
0
0
0
0
0
0
0
0
0
0
0
0
0
0
0
0
0
0
0
0
0
0
0
0
0
0
0
0
0
0
0
0
0
0
0
0
0
0
0
0
0
0
0
0
0
0
0
0
0
0
0
0
0
0
0
0
0
0
0
0
0
0
0
0
0
0
0
0
0
0
0
0
0
0
0
0
0
0
0
0
0
0
0
0
0
0
0
0
0
0
0
0
0
0
0
0
0
0
0
0
0
0
0
0
0
0
0
0
0
0
0
0
0
0
0
0
0
0
0
0
0
0
0
0
0
0
0
0
0
0
0
0
0
0
0
0
0
0
0
0
0
0
0
0
0
0
0
0
0
0
0
0
0
0
0
0
0
0
0
0
0
0
0
0
0
0
0
0
0
0
0
0
0
0
0
0
0
0
0
0
0
0
0
0
0
0
0
0
0
0
0
0
0
0
0
0
0
0
0
0
0
0
0
0
0
0
0
0
0
0
0
0
0
0
0
0
0
0
0
0
0
0
0
0
0
0
0
0
0
0
0
0
0
0
0
0
0
0
0
0
0
0
0
0
0
0
0
0
0
0
0
0
0
0
0
0
0
0
0
0
0
0
0
0
0
0
0
0
0
0
0
0
0
0
0
0
0
0
0
0
0
0
0
0
0
0
0
0
0
0
0
0
0
0
0
0
0
0
0
0
0
0
0
0
0
0
0
0
0
0
0
0
0
0
0
0
0
0
0
0
0
0
0
0
0
0
0
0
0
0
0
0
0
0
0
0
0
0
0
0
0
0
0
0
0
0
0
0
0
0
0
0
0
0
0
0
0
0
0
0
0
0
0
0
0
0
0
0
0
0
0
0
0
0
0
0
0
0
0
0
0
0
0
0
0
0
0
0
0
0
0
0
0
0
0
0
0
0
0
0
0
0
0
0
0
0
0
0
0
0
0
0
0
0
0
0
0
0
0
0
0
0
0
0
0
0
0
0
0
0
0
0
0
0
0
0
0
0
0
0
0
0
0
0
0
0
0
0
0
0
0
0
0
0
0
0
0
0
0
0
0
0
0
0
0
0
0
0
0
0
0
0
0
0
0
0
0
0
0
0
0
0
0
0
0
0
0
0
0
0
0
0
0
0
0
0
0
0
0
0
0
0
0
0
0
0
0
0
0
0
0
0
0
0
0
0
0
0
0
0
0
0
0
0
0
0
0
0
0
0
0
0
0
0
0
0
0
0
0
0
0
0
0
0
0
0
0
0
0
0
0
0
0
0
0
0
0
0
0
0
0
0
0
0
0
0
0
0
0
0
0
0
0
0
0
0
0
0
0
0
0
0
0
0
0
0
0
0
0
0
0
0
0
0
0
0
0
0
0
0
0
0
0
0
0
0
0
0
0
0
0
0
0
0
0
0
0
0
0
0
0
0
0
0
0
0
0
0
0
0
0
0
0
0
0
0
0
0
0
0
0
0
0
0
0
0
0
0
0
0
0
0
0
0
0
0
0
0
0
0
0
0
0
0
0
0
0
0
0
0
0
0
0
0
0
0
0
0
0
0
0
0
0
0
0
0
0
0
0
0
0
0
0
0
0
0
0
0
0
0
0
0
0
0
0
0
0
0
0
0
0
0
0
0
0
0
0
0
0
0
0
0
0
0
0
0
0
0
0
0
0
0
0
0
0
0
0
0
0
0
0
0
0
0
0
0
0
0
0
0
0
0
0
0
0
0
0
0
0
0
0
0
0
0
0
0
0
0
0
0
0
0
0
0
0
0
0
0
0
0
0
0
0
0
0
0
0
0
0
0
0
0
0
0
0
0
0
0
0
0
0
0
0
0
0
0
0
0
0
0
0
0
0
0
0
0
0
0
0
0
0
0
0
0
0
0
0
0
0
0
0
0
0
0
0
0
0
0
0
0
0
0
0
0
0
0
0
0
0
0
0
0
0
0
0
0
0
0
0
0
0
0
0
0
0
0
0
0
0
0
0
0
0
0
0
0
0
0
0
0
0
0
0
0
0
0
0
0
0
0
0
0
0
0
0
0
0
0
0
0
0
0
0
0
0
0
0
0
0
0
0
0
0
0
0
0
0
0
0
0
0
0
0
0
0
0
0
0
0
0
0
0
0
0
0
0
0
0
0
0
0
0
0
0
0
0
0
0
0
0
0
0
0
0
0
0
0
0
0
0
0
0
0
0
0
0
0
0
0
0
0
0
0
0
0
0
0
0
0
0
0
0
0
0
0
0
0
0
0
0
0
0
0
0
0
0
0
0
0
0
0
0
0
0
0
0
0
0
0
0
0
0
0
0
0
0
0
0
0
0
0
0
0
0
0
0
0
0
0
0
0
0
0
0
0
0
0
0
0
0
0
0
0
0
0
0
0
0
0
0
0
0
0
0
0
0
0
0
0
0
0
0
0
0
0
0
0
0
0
0
0
0
0
0
0
0
0
0
0
0
0
0
0
0
0
0
0
0
0
0
0
0
0
0
0
0
0
0
0
0
0
0
0
0
0
0
0
0
0
0
0
0
0
0
0
0
0
0
0
0
0
0
0
0
0
0
0
0
0
0
0
0
0
0
0
0
0
0
0
0
0
0
0
0
0
0
0
0
0
0
0
0
0
0
0
0
0
0
0
0
0
0
0
0
0
0
0
0
0
0
0
0
0
0
0
0
0
0
0
0
0
0
0
0
0
0
0
0
0
0
0
0
0
0
0
0
0
0
0
0
0
0
0
0
0
0
0
0
0
0
0
0
0
0
0
0
0
0
0
0
0
0
0
0
0
0
0
0
0
0
0
0
0
0
0
0
0
0
0
0
0
0
0
0
0
0
0
0
0
0
0
0
0
0
0
0
0
0
0
0
0
0
0
0
0
0
0
0
0
0
0
0
0
0
0
0
0
0
0
0
0
0
0
0
0
0
0
0
0
0
0
0
0
0
0
0
0
0
0
0
0
0
0
0
0
0
0
0
0
0
0
0
0
0
0
0
0
0
0
0
0
0
0
0
0
0
0
0
0
0
0
0
0
0
0
0
0
0
0
0
0
0
0
0
0
0
0
0
0
0
0
0
0
0
0
0
0
0
0
0
0
0
0
0
0
0
0
0
0
0
0
0
0
0
0
0
0
0
0
0
0
0
0
0
0
0
0
0
0
0
0
0
0
0
0
0
0
0
0
0
0
0
0
0
0
0
0
0
0
0
0
0
0
0
0
0
0
0
0
0
0
0
0
0
0
0
0
0
0
0
0
0
0
0
0
0
0
0
0
0
0
0
0
0
0
0
0
0
0
0
0
0
0
0
0
0
0
0
0
0
0
0
0
0
0
0
0
0
0
0
0
0
0
0
0
0
0
0
0
0
0
0
0
0
0
0
0
0
0
0
0
0
0
0
0
0
0
0
0
0
0
0
0
0
0
0
0
0
0
0
0
0
0
0
0
0
0
0
0
0
0
0
0
0
0
0
0
0
0
0
0
0
0
0
0
0
0
0
0
0
0
0
0
0
0
0
0
0
0
0
0
0
0
0
0
0
0
0
0
0
0
0
0
0
0
0
0
0
0
0
0
0
0
0
0
0
0
0
0
0
0
0
0
0
0
0
0
0
0
0
0
0
0
0
0
0
0
0
0
0
0
0
0
0
0
0
0
0
0
0
0
0
0
0
0
0
0
0
0
0
0
0
0
0
0
0
0
0
0
0
0
0
0
0
0
0
0
0
0
0
0
0
0
0
0
