-0.0497763
-0.0187061
0
-0.0593981
-0.160523
-0.315683
-0.568972
-0.940401
-1.40126
-1.90851
-2.10351
-1.48369
0.245087
3.14541
6.89173
10.7317
13.6609
14.7958
13.7753
10.9513
7.23321
3.67281
1.03567
-0.415884
-0.866881
-0.728867
-0.604173
-0.502009
-0.411119
-0.331932
-0.261281
-0.195262
-0.129857
-0.0612625
0.0133282
0.0951969
0.183961
0.277807
0.37401
0.469602
0.56201
0.649521
0.731514
0.80846
0.881744
0.953393
1.0258
1.10149
1.18295
1.27252
1.37237
1.48445
1.61051
1.75203
1.91004
2.08502
2.27658
2.48335
2.70282
2.93144
3.16475
3.39779
3.62544
3.84279
4.04549
4.22993
4.39315
4.53288
4.64757
4.73615
4.79745
4.82977
4.83105
4.79948
4.73278
4.6285
4.48467
4.30048
4.07698
3.81764
3.52852
3.21835
2.89784
2.57704
2.26499
1.96915
1.69491
1.44476
1.21779
1.0106
0.818442
0.636501
0.461108
0.290636
0.126382
-0.0270836
-0.163126
-0.274812
-0.356475
-0.405343
-0.42252
-0.413132
-0.385623
-0.350407
-0.318159
-0.297886
-0.296077
-0.315901
-0.356995
-0.415769
-0.48611
-0.560378
-0.630664
-0.690414
-0.735201
-0.762851
-0.772581
-0.764772
-0.740784
-0.702415
-0.651539
-0.590178
-0.519742
-0.441534
-0.356948
-0.267511
-0.174784
-0.0801498
0.015419
0.111533
0.20846
0.307068
0.408674
0.514842
0.627301
0.74845
0.88255
1.03583
1.20801
1.37827
1.51387
1.58008
1.55104
1.41868
1.19675
0.919314
0.63387
0.389468
0.202532
0.0585663
-0.0555504
-0.14254
-0.208122
-0.258441
-0.298335
-0.330083
-0.353013
-0.364081
-0.358723
-0.325607
-0.252827
-0.149678
-0.0511292
0
-0.0367096
-0.186083
-0.483865
-0.987974
-1.63047
-2.33536
-2.57103
-1.84059
0.143787
3.30798
7.11608
10.6705
13.005
13.4569
11.9459
9.01633
5.60246
2.63018
0.659737
-0.250129
-0.413843
-0.261392
-0.206185
-0.149855
-0.0909699
-0.0279869
0.0400497
0.113786
0.193451
0.27873
0.368916
0.463149
0.560658
0.660896
0.763514
0.868205
0.974503
1.08163
1.18852
1.29397
1.3969
1.4967
1.5935
1.68826
1.78284
1.87986
1.98249
2.09415
2.21822
2.35773
2.51504
2.69153
2.88736
3.10124
3.33041
3.5706
3.81637
4.06148
4.29961
4.52497
4.73319
4.92178
5.09034
5.24039
5.37407
5.49328
5.59926
5.69131
5.76531
5.81362
5.82609
5.79279
5.70646
5.564
5.36665
5.11924
4.82916
4.50795
4.16975
3.82556
3.48359
3.15172
2.83726
2.5466
2.28417
2.05158
1.84817
1.67167
1.519
1.3872
1.27395
1.1777
1.09747
1.03198
0.980009
0.939972
0.909724
0.886687
0.868559
0.853818
0.842044
0.833931
0.830937
0.834653
0.846654
0.867561
0.895083
0.924912
0.951978
0.9718
0.981709
0.98153
0.973598
0.962118
0.952171
0.94831
0.953649
0.970081
0.998527
1.03919
1.09189
1.15627
1.23177
1.31763
1.41278
1.5157
1.62448
1.73677
1.85014
1.96227
2.07134
2.17619
2.2764
2.37197
2.46274
2.54741
2.62253
2.68262
2.72043
2.72848
2.70157
2.63895
2.54543
2.43073
2.30739
2.18795
2.08057
1.98744
1.90899
1.84523
1.79473
1.75506
1.72309
1.69523
1.66749
1.63556
1.59508
1.54194
1.47267
1.38475
1.27697
1.14916
1.00011
0.828169
0.634599
0.427149
0.213287
0
0.147202
0.973525
2.76449
5.49102
8.69341
11.5895
13.3551
13.4356
11.766
8.82142
5.45858
2.57789
0.753757
0.0460541
0.108707
0.459655
0.776589
1.06706
1.31831
1.52434
1.69685
1.83894
1.95261
2.04182
2.11187
2.1685
2.21713
2.26227
2.30725
2.35422
2.40461
2.45947
2.51963
2.5859
2.65909
2.74004
2.82954
2.92841
3.03734
3.15671
3.28638
3.42566
3.57333
3.72784
3.88766
4.05165
4.21918
4.39017
4.5648
4.74316
4.92485
5.10857
5.29207
5.47215
5.64488
5.80604
5.95158
6.07769
6.18077
6.2577
6.30646
6.32527
6.31236
6.26591
6.18425
6.06611
5.91104
5.71976
5.49455
5.24026
4.96256
4.66693
4.35884
4.04368
3.72655
3.41212
3.10463
2.80805
2.52609
2.26217
2.01924
1.79953
1.60427
1.43354
1.28623
1.16027
1.05297
0.961436
0.882963
0.815298
0.75674
0.706104
0.66255
0.625442
0.594257
0.568561
0.54805
0.532604
0.522291
0.517291
0.517747
0.523611
0.534569
0.54987
0.568221
0.588171
0.608476
0.628367
0.647668
0.6667
0.686053
0.706379
0.7282
0.751957
0.77823
0.807928
0.842328
0.882868
0.930769
0.986683
1.05027
1.12027
1.19551
1.27446
1.35545
1.4357
1.51061
1.57431
1.62006
1.64127
1.63273
1.59149
1.51739
1.41302
1.2835
1.13796
0.985376
0.833008
0.687133
0.553066
0.434907
0.335365
0.255526
0.194897
0.151669
0.123208
0.106136
0.0961975
0.0889618
0.0800056
0.0650047
0.0397278
0
-0.0263176
-0.075058
-0.149378
-0.25057
-0.387699
-0.560175
-0.761124
-1.06572
-1.06805
-0.293933
1.49113
4.25342
7.57649
10.6884
12.6875
12.908
11.2403
8.21191
4.7605
1.82068
-0.0428909
-0.770743
-0.687537
-0.391206
-0.135491
0.0934937
0.291077
0.457866
0.605823
0.740543
0.864028
0.977942
1.08331
1.18059
1.26998
1.35178
1.42673
1.49617
1.56211
1.6272
1.69456
1.76766
1.84998
1.94466
2.05408
2.17946
2.32057
2.47569
2.64192
2.81574
2.99363
3.17291
3.35225
3.53185
3.71338
3.89951
4.09331
4.29736
4.51306
4.73993
4.97603
5.21672
5.45372
5.67717
5.87733
6.04579
6.17619
6.26449
6.30877
6.3089
6.26622
6.18333
6.06484
5.91589
5.74159
5.54683
5.33566
5.11066
4.8731
4.62396
4.36443
4.09644
3.82311
3.54885
3.27907
3.01962
2.77611
2.55315
2.35392
2.18
2.03143
1.90708
1.80494
1.72248
1.65687
1.60512
1.56422
1.53135
1.50411
1.48072
1.46018
1.44231
1.42751
1.41645
1.40964
1.40705
1.4079
1.41072
1.41361
1.41475
1.41289
1.40778
1.40042
1.39293
1.38836
1.39007
1.40127
1.42458
1.4617
1.51337
1.5794
1.6588
1.74996
1.85121
1.95998
2.07126
2.17818
2.27393
2.35315
2.41337
2.45595
2.48609
2.5118
2.54208
2.58434
2.64097
2.716
2.80472
2.89189
2.95855
2.98684
2.96438
2.88686
2.75816
2.58848
2.39144
2.18259
1.97437
1.77392
1.5875
1.42091
1.27887
1.16566
1.08509
1.03725
1.0167
1.0155
1.02452
1.03471
1.03814
1.0286
1.00161
0.954193
0.880239
0.751432
0.527777
0.226076
-0.119632
-0.379927
0
1.44455
4.11043
7.66786
11.2849
13.8986
14.6687
13.3699
10.4921
6.99119
3.84084
1.64978
0.530368
0.225103
0.355606
0.464963
0.571377
0.673792
0.771963
0.866562
0.958567
1.04857
1.13655
1.22167
1.30246
1.37741
1.44564
1.50739
1.56405
1.61773
1.67053
1.72404
1.77899
1.83559
1.89425
1.95588
2.02216
2.09548
2.1786
2.27413
2.38353
2.50712
2.64424
2.7931
2.95098
3.1147
3.28109
3.44748
3.61214
3.77446
3.93498
4.09532
4.25787
4.42628
4.60758
4.81684
5.07725
5.38466
5.68736
5.92414
6.03538
5.98128
5.76335
5.4344
5.08345
4.79432
4.58263
4.38845
4.18769
3.97448
3.74444
3.49467
3.22533
2.9397
2.64378
2.34552
2.05372
1.77702
1.52277
1.29636
1.10064
0.936285
0.802577
0.69607
0.611355
0.542962
0.486287
0.438155
0.396901
0.361947
0.333176
0.310503
0.291921
0.273881
0.252131
0.222861
0.183893
0.135462
0.080418
0.0238178
-0.0279076
-0.0689465
-0.0939697
-0.0988956
-0.0817112
-0.0428635
0.014716
0.0860367
0.164912
0.245115
0.321634
0.391885
0.455309
0.51348
0.569602
0.627723
0.691881
0.76516
0.849332
0.94503
1.05177
1.16804
1.29156
1.4196
1.54902
1.6763
1.7971
1.90554
1.99399
2.05528
2.08252
2.06973
2.01342
1.91405
1.77709
1.61314
1.43678
1.26434
1.10912
0.977344
0.871778
0.794961
0.746652
0.724618
0.723636
0.732814
0.739296
0.732296
0.704776
0.654196
0.582034
0.492114
0.388211
0.271866
0.142733
-0.00503006
-0.193983
-0.428844
-0.704045
-1.00289
-0.952932
0
2.16319
5.48947
9.40834
12.9326
15.0154
15.0111
12.981
9.65355
6.06246
3.08847
1.16536
0.26269
0.0678177
0.153793
0.196522
0.23795
0.283436
0.33884
0.407744
0.492999
0.594815
0.710471
0.834718
0.960725
1.08189
1.19382
1.29273
1.37655
1.44529
1.50112
1.54812
1.59172
1.63801
1.69293
1.76132
1.84592
1.94809
2.06811
2.2049
2.35615
2.51875
2.68919
2.86419
3.04118
3.21882
3.39714
3.57759
3.76258
3.95493
4.15707
4.3703
4.59601
4.83384
5.07619
5.31036
5.52232
5.69578
5.81474
5.87452
5.87218
5.8052
5.67346
5.48305
5.24829
4.98924
4.72493
4.46585
4.21022
3.95396
3.69398
3.42772
3.15424
2.87474
2.5926
2.31294
2.04181
1.78522
1.54832
1.33477
1.14673
0.985002
0.849204
0.738104
0.649903
0.582522
0.533961
0.502313
0.485729
0.482411
0.490635
0.5088
0.535443
0.569106
0.608163
0.650838
0.695163
0.738707
0.778914
0.81353
0.841064
0.86116
0.87473
0.883804
0.89112
0.89958
0.911716
0.929335
0.953578
0.985138
1.02459
1.07271
1.13058
1.19942
1.28012
1.37278
1.47624
1.58787
1.70407
1.82102
1.93519
2.04406
2.1465
2.24275
2.33407
2.42203
2.50758
2.59019
2.66687
2.7325
2.78079
2.80598
2.80436
2.77501
2.71978
2.6425
2.54803
2.44223
2.33048
2.21664
2.10379
1.99478
1.89232
1.79893
1.71701
1.64859
1.59532
1.55893
1.54061
1.53837
1.54554
1.55229
1.54719
1.51859
1.45601
1.35133
1.1998
0.988938
0.721732
0.41131
0.0580473
0
0.866578
3.01908
6.39393
10.3796
13.9334
15.9634
15.8081
13.5519
9.98289
6.21443
3.19464
1.37762
0.693378
0.755441
0.983816
1.10787
1.21336
1.29952
1.36955
1.42876
1.48103
1.53047
1.58089
1.63544
1.69678
1.76706
1.84789
1.94005
2.04325
2.15586
2.27488
2.39622
2.51548
2.62862
2.73269
2.82638
2.91034
2.98727
3.06148
3.13831
3.22338
3.32177
3.43731
3.57205
3.72608
3.89763
4.0837
4.28079
4.48556
4.69539
4.90861
5.12434
5.34217
5.5616
5.78143
5.99771
6.20171
6.38185
6.52618
6.62406
6.66742
6.651
6.57235
6.43207
6.23455
5.98836
5.70621
5.40028
5.08025
4.75246
4.4203
4.08546
3.74964
3.41596
3.08913
2.77503
2.47989
2.20939
1.96717
1.7544
1.56988
1.41051
1.2722
1.15075
1.04263
0.945372
0.857638
0.778808
0.708787
0.647722
0.595669
0.551461
0.51326
0.479298
0.448467
0.420698
0.396927
0.378604
0.366912
0.362004
0.36264
0.366069
0.368767
0.367418
0.35991
0.346003
0.327478
0.30771
0.290837
0.280782
0.280061
0.289653
0.309489
0.33912
0.37799
0.425769
0.482555
0.548774
0.624818
0.710539
0.804779
0.905061
1.00776
1.10835
1.2018
1.28326
1.34877
1.39554
1.42205
1.42787
1.41334
1.37918
1.3262
1.25524
1.16732
1.06415
0.94848
0.824186
0.696109
0.569848
0.451193
0.346487
0.261387
0.196319
0.147121
0.10786
0.0733355
0.0411287
0.0123104
-0.00954952
-0.0202547
-0.0129034
0
-0.0151663
-0.0892056
-0.252224
-0.51597
-0.867045
-1.26864
-1.64168
-1.23216
0.24525
2.82602
6.17653
9.56673
12.0367
12.7557
11.4203
8.44376
4.78651
1.50805
-0.693375
-1.68561
-1.77951
-1.41316
-1.06084
-0.727149
-0.428884
-0.179652
0.0327164
0.215326
0.367484
0.489183
0.582265
0.650274
0.697667
0.729458
0.750845
0.766828
0.781897
0.799847
0.823773
0.85606
0.898951
0.954625
1.02522
1.1126
1.21799
1.34153
1.48204
1.6367
1.80217
1.97519
2.15302
2.33386
2.51712
2.70329
2.89352
3.08909
3.2908
3.49845
3.71062
3.92456
4.13637
4.34107
4.53288
4.70567
4.85316
4.96945
5.05016
5.09249
5.09431
5.05412
4.97114
4.84561
4.67888
4.47357
4.23343
3.9642
3.67322
3.36752
3.05302
2.73531
2.42024
2.11369
1.82123
1.54767
1.29672
1.07068
0.870326
0.695013
0.542841
0.410994
0.296123
0.194624
0.103069
0.0185474
-0.0610466
-0.136836
-0.208919
-0.276503
-0.338227
-0.392491
-0.437788
-0.472922
-0.497086
-0.50984
-0.510918
-0.500513
-0.479249
-0.448329
-0.409192
-0.364339
-0.317062
-0.270464
-0.226785
-0.186917
-0.150325
-0.115401
-0.0801315
-0.0428215
-0.00277939
0.0396912
0.0836906
0.127914
0.170974
0.211744
0.249701
0.285184
0.319473
0.354732
0.393777
0.439671
0.495147
0.561987
0.640467
0.72951
0.825846
0.923707
1.01618
1.09602
1.15617
1.18978
1.19226
1.1608
1.09464
0.995516
0.867867
0.718922
0.558229
0.396698
0.245037
0.111013
0.00101318
-0.0813225
-0.135202
-0.162331
-0.16626
-0.151674
-0.123814
-0.088324
-0.0509239
-0.0184402
0
0.00327682
-0.026062
-0.0953415
-0.230723
-0.426146
-0.66458
-1.05702
-0.95703
0.0175968
2.02539
4.91755
8.16762
10.9459
12.3923
12.0005
9.89621
6.80805
3.71623
1.39433
0.124394
-0.275066
-0.193578
-0.0415028
0.103999
0.245876
0.383854
0.51844
0.650491
0.780533
0.908686
1.03465
1.15788
1.27783
1.39428
1.5075
1.61831
1.72788
1.83751
1.94832
2.06112
2.17633
2.2941
2.41437
2.53689
2.6613
2.78727
2.91469
3.04392
3.17615
3.31347
3.45882
3.61546
3.78636
3.97333
4.1765
4.3941
4.62254
4.85762
5.09519
5.33185
5.56536
5.79451
6.018
6.23284
6.43255
6.60838
6.7485
6.84129
6.87887
6.85878
6.78329
6.65681
6.48348
6.26631
6.01704
5.74605
5.45987
5.16381
4.86342
4.56434
4.27169
3.98972
3.72163
3.46983
3.2362
3.02249
2.8304
2.66146
2.51663
2.39642
2.30074
2.22649
2.16596
2.11018
2.05063
1.98108
1.89903
1.80613
1.70756
1.61051
1.52206
1.44649
1.38792
1.34626
1.31938
1.30452
1.29971
1.30464
1.32063
1.34981
1.39386
1.45242
1.52225
1.60035
1.68277
1.76539
1.84453
1.9177
1.98383
2.0432
2.09702
2.14683
2.19368
2.23769
2.2779
2.3124
2.33929
2.35787
2.36964
2.37881
2.39209
2.41778
2.47588
2.62573
2.9083
3.2483
3.5435
3.71019
3.71512
3.57935
3.35505
3.09387
2.83135
2.59208
2.38361
2.20369
2.05053
1.92337
1.8218
1.74555
1.69263
1.65988
1.64308
1.63651
1.63408
1.63021
1.6202
1.60028
1.5674
1.51888
1.45204
1.36402
1.24094
1.03849
0.759362
0.420222
0
0.044861
1.00718
3.10754
6.22861
9.83791
13.0662
14.9787
14.957
12.9994
9.75004
6.21252
3.30648
1.51702
0.814672
0.835699
1.08703
1.26109
1.41769
1.55328
1.66786
1.7683
1.85862
1.94319
2.02584
2.10901
2.19351
2.27882
2.36378
2.44729
2.5289
2.60903
2.6888
2.7696
2.85268
2.93877
3.02836
3.12201
3.22058
3.3255
3.43876
3.56277
3.69992
3.85204
4.01994
4.20299
4.3991
4.60499
4.8167
5.03023
5.24216
5.45003
5.65239
5.8486
6.03842
6.22144
6.39647
6.56088
6.71071
6.84152
6.94866
7.0276
7.07435
7.08566
7.0591
6.99298
6.88633
6.73897
6.55264
6.33065
6.07756
5.79933
5.50295
5.19561
4.88451
4.57677
4.2789
3.99627
3.73286
3.49121
3.27268
3.07775
2.90643
2.75855
2.63384
2.53168
2.45124
2.39166
2.35026
2.32269
2.30405
2.28951
2.27493
2.25723
2.23454
2.20612
2.17213
2.13363
2.09218
2.04954
2.00791
1.96984
1.93806
1.91523
1.90354
1.90445
1.91843
1.94482
1.98183
2.02665
2.07589
2.12588
2.17329
2.21574
2.25214
2.28277
2.30904
2.33302
2.35691
2.38262
2.41152
2.44443
2.48206
2.52498
2.57375
2.62876
2.69004
2.75693
2.82787
2.90052
2.97152
3.03655
3.09103
3.13047
3.1508
3.1486
3.12128
3.06727
2.98631
2.87982
2.75181
2.60857
2.45722
2.30544
2.16108
2.03125
1.92292
1.83974
1.78264
1.75057
1.74129
1.75188
1.78078
1.82914
1.88843
1.9399
1.95986
1.92458
1.79186
1.46925
1.01622
0.51103
0
0.299101
1.40113
3.40377
6.24039
9.57865
12.7764
15.0093
15.5777
14.2503
11.4201
7.94393
4.74946
2.4506
1.18826
0.740975
0.80752
1.0081
1.20563
1.38897
1.54869
1.67944
1.78779
1.8804
1.96161
2.03423
2.10028
2.16144
2.21909
2.27436
2.32819
2.38148
2.4352
2.49057
2.54916
2.61286
2.6838
2.76416
2.85587
2.96025
3.0778
3.20806
3.34974
3.50108
3.66024
3.82586
3.99741
4.17529
4.36081
4.55581
4.76229
4.98191
5.21565
5.46348
5.72423
5.99705
6.2803
6.56393
6.82756
7.04877
7.20824
7.29439
7.30545
7.24828
7.13479
6.97783
6.78804
6.57634
6.34919
6.10882
5.85519
5.58761
5.30532
5.00817
4.69792
4.37874
4.05722
3.74181
3.4418
3.166
2.9227
2.71933
2.55678
2.43041
2.33255
2.2545
2.18832
2.12818
2.07102
2.01635
1.96563
1.92078
1.88336
1.85472
1.83579
1.82584
1.82159
1.81888
1.81381
1.80379
1.78831
1.76898
1.74889
1.73156
1.71956
1.71323
1.71181
1.71277
1.71284
1.70913
1.70015
1.68652
1.67112
1.65864
1.65471
1.66467
1.69167
1.73682
1.79991
1.87883
1.97008
2.06942
2.17262
2.27623
2.37784
2.47602
2.57011
2.65984
2.74492
2.8247
2.89799
2.96301
3.01755
3.05919
3.08548
3.09413
3.08318
3.05123
2.99764
2.92294
2.82908
2.71976
2.60041
2.47762
2.35824
2.24881
2.1561
2.08643
2.03931
2.00606
1.97513
1.93595
1.88237
1.81431
1.73705
1.65835
1.5845
1.51631
1.44958
1.3765
1.28667
1.15913
0.944839
0.646766
0.286711
-0.112027
0
0.941485
2.97112
6.09296
9.88403
13.4939
15.8912
16.2857
14.5096
11.1279
7.20003
3.81436
1.65018
0.787869
0.82539
1.10733
1.20044
1.28803
1.37732
1.47443
1.58009
1.69464
1.81557
1.93774
2.05401
2.15712
2.24148
2.30439
2.34658
2.37167
2.38511
2.39287
2.40052
2.41233
2.4316
2.46158
2.50552
2.5666
2.64761
2.75047
2.87574
3.02138
3.18443
3.36162
3.54945
3.74472
3.94499
4.14873
4.35525
4.56428
4.77545
4.98786
5.19981
5.40882
5.61202
5.80659
5.99021
6.16116
6.318
6.45887
6.58062
6.67792
6.74443
6.77177
6.75034
6.6717
6.53091
6.32799
6.06803
5.76016
5.41585
5.0507
4.67777
4.30561
3.94195
3.59443
3.27019
2.97532
2.71503
2.49374
2.3113
2.16382
2.04539
1.94923
1.86892
1.79928
1.73674
1.67918
1.6256
1.57537
1.52823
1.48422
1.44356
1.40674
1.37446
1.34752
1.32661
1.31211
1.30371
1.29981
1.2978
1.29451
1.28678
1.27207
1.249
1.21779
1.18038
1.14037
1.10256
1.07239
1.05488
1.05369
1.07022
1.10414
1.15235
1.20776
1.26233
1.30911
1.34391
1.36623
1.37924
1.38876
1.40164
1.42391
1.45853
1.50523
1.56183
1.62562
1.69342
1.76235
1.8304
1.89674
1.96157
2.0257
2.08998
2.15486
2.22006
2.28462
2.34698
2.40521
2.45708
2.49944
2.5274
2.53674
2.523
2.48246
2.41326
2.31645
2.1965
2.06102
1.91973
1.78298
1.65829
1.55084
1.46479
1.40313
1.36783
1.35686
1.3616
1.37156
1.37642
1.36767
1.33955
1.28913
1.21563
1.11934
1.00071
0.843913
0.622488
0.34515
0.0351521
-0.270138
0
1.2271
3.60005
6.95451
10.6704
13.7937
15.3776
14.9034
12.5412
9.07857
5.54942
2.78626
1.14889
0.535644
0.590791
0.811332
1.00312
1.17188
1.31186
1.42236
1.51194
1.58572
1.64799
1.70335
1.75609
1.80977
1.86699
1.9295
1.99837
2.07421
2.15733
2.2478
2.34539
2.4495
2.55911
2.67284
2.78919
2.9069
3.02538
3.14497
3.26697
3.39339
3.52649
3.66821
3.81985
3.98184
4.154
4.33602
4.52774
4.72928
4.94099
5.16293
5.39437
5.63317
5.87579
6.11629
6.34683
6.55871
6.74279
6.89001
6.99362
7.04881
7.05221
7.0019
6.89767
6.74142
6.5375
6.2926
6.0153
5.71631
5.40564
5.09053
4.77631
4.4671
4.16596
3.87513
3.59642
3.33145
3.08186
2.84941
2.63596
2.44337
2.27327
2.12675
2.00469
1.90731
1.83203
1.77421
1.72831
1.68885
1.6514
1.6133
1.57404
1.53504
1.49916
1.46956
1.4488
1.43883
1.44063
1.45411
1.47766
1.50818
1.54194
1.57509
1.60423
1.62677
1.64121
1.64722
1.64555
1.63791
1.6268
1.61503
1.60564
1.60152
1.60514
1.61827
1.64183
1.67574
1.71903
1.76991
1.82604
1.88472
1.94321
1.99901
2.05003
2.09476
2.13245
2.16327
2.18836
2.20996
2.23138
2.25678
2.29092
2.33916
2.41221
2.52929
2.70315
2.91244
3.11662
3.27567
3.3609
3.35854
3.26773
3.09798
2.86937
2.61379
2.37017
2.16259
1.99387
1.85505
1.74045
1.64528
1.56346
1.48944
1.41973
1.35378
1.29382
1.24364
1.20724
1.18977
1.18955
1.19235
1.17738
1.12219
1.00826
0.825611
0.565025
0.242641
-0.113716
-0.380412
0
1.30536
3.63042
6.73754
9.99895
12.5251
13.4891
12.5096
9.86749
6.4004
3.12234
0.791166
-0.33766
-0.4743
-0.0635948
0.262082
0.54638
0.762619
0.899525
0.995821
1.07046
1.12979
1.17868
1.22188
1.26368
1.3078
1.3573
1.41465
1.48167
1.55955
1.64869
1.74853
1.85744
1.97297
2.09146
2.20715
2.31417
2.40821
2.488
2.55609
2.61879
2.68503
2.76459
2.86603
2.99325
3.1451
3.31936
3.51331
3.72321
3.94473
4.17352
4.4055
4.63699
4.86466
5.08485
5.29329
5.48542
5.6562
5.79927
5.90721
5.97518
5.99906
5.97575
5.90375
5.78351
5.61741
5.40907
5.16242
4.88101
4.57249
4.24489
3.90359
3.55346
3.20076
2.85281
2.51724
2.20108
1.90997
1.64752
1.41521
1.2126
1.03778
0.888004
0.760097
0.650796
0.556929
0.475373
0.402832
0.336172
0.272671
0.210345
0.148267
0.0867584
0.0274811
-0.026841
-0.072934
-0.107542
-0.12794
-0.1323
-0.11988
-0.0910355
-0.0471046
0.00977631
0.076815
0.150838
0.228584
0.306893
0.382847
0.453609
0.516577
0.569941
0.612751
0.645084
0.668112
0.683984
0.695512
0.705743
0.717462
0.732796
0.752837
0.777856
0.807631
0.84165
0.879369
0.920386
0.964633
1.01238
1.06405
1.12001
1.18025
1.24425
1.31107
1.37938
1.44793
1.51593
1.58319
1.64997
1.71656
1.78234
1.84352
1.89246
1.91897
1.91341
1.87007
1.78966
1.67978
1.55329
1.42519
1.30827
1.20716
1.12132
1.0521
0.997338
0.952483
0.912932
0.875531
0.839416
0.805872
0.777197
0.756112
0.742073
0.726974
0.697579
0.639119
0.539886
0.394983
0.208035
-0.0094841
-0.240799
-0.416801
0
1.16613
3.22194
6.05166
9.20266
11.9238
13.3886
13.0515
10.9474
7.72728
4.37093
1.73881
0.23503
-0.238342
-0.071505
0.211867
0.473755
0.696512
0.869637
1.00363
1.11436
1.20873
1.29065
1.36395
1.43195
1.49711
1.56087
1.62366
1.68514
1.74444
1.80062
1.85344
1.90377
1.95388
2.00742
2.06899
2.14334
2.2344
2.34435
2.47282
2.61665
2.77202
2.93498
3.10206
3.27107
3.44155
3.61485
3.79367
3.9814
4.18125
4.39549
4.62481
4.86807
5.12226
5.38329
5.64495
5.89799
6.1305
6.32838
6.4784
6.57329
6.60827
6.58135
6.49383
6.35088
6.16092
5.93379
5.67813
5.40073
5.1081
4.80495
4.49397
4.1776
3.85951
3.54458
3.23837
2.94642
2.67342
2.42259
2.19534
1.99133
1.80884
1.64539
1.49836
1.36558
1.24561
1.13792
1.0428
0.960985
0.89294
0.83875
0.797872
0.769045
0.750422
0.739846
0.73521
0.73481
0.737545
0.742956
0.751176
0.762614
0.77766
0.796373
0.818378
0.842858
0.868596
0.894083
0.918001
0.939708
0.959578
0.979076
1.00051
1.02646
1.05902
1.09914
1.14607
1.19772
1.2512
1.30353
1.35248
1.39722
1.4385
1.47829
1.51911
1.56317
1.61164
1.66461
1.72082
1.77861
1.83681
1.89545
1.95599
2.02083
2.09346
2.17787
2.27273
2.36814
2.44951
2.50197
2.51431
2.48148
2.40517
2.29297
2.1568
2.01099
1.86992
1.7438
1.63736
1.5514
1.48684
1.44334
1.41871
1.40936
1.41087
1.41864
1.42834
1.43605
1.43829
1.43068
1.40786
1.36424
1.29387
1.18686
1.00503
0.754503
0.454929
-0.0158091
0
0.967905
3.11638
6.26504
9.77181
12.6842
14.0928
13.5315
11.2045
7.89632
4.60834
2.13069
0.780489
0.409147
0.61333
0.821286
1.00859
1.18499
1.347
1.49173
1.61509
1.71514
1.79161
1.84581
1.881
1.90254
1.91739
1.93322
1.95709
1.99419
2.04584
2.11064
2.18642
2.27055
2.36022
2.45306
2.54769
2.64404
2.74339
2.84814
2.96135
3.08613
3.22492
3.37895
3.54785
3.72968
3.92135
4.11928
4.32025
4.52204
4.72374
4.92558
5.12835
5.33262
5.5379
5.74208
5.94035
6.12485
6.28622
6.41557
6.50531
6.54983
6.5457
6.4915
6.3875
6.23549
6.03875
5.80257
5.53461
5.24378
4.93885
4.6274
4.31562
4.00878
3.71123
3.42639
3.1568
2.90427
2.67005
2.45495
2.25948
2.08394
1.92843
1.7928
1.67652
1.57932
1.50108
1.43886
1.38593
1.33496
1.27967
1.21653
1.14584
1.07177
1.00122
0.941813
0.898968
0.873691
0.866201
0.874246
0.893826
0.920227
0.948983
0.976833
1.0018
1.02293
1.03978
1.05219
1.06033
1.06451
1.06547
1.06484
1.06539
1.07093
1.08576
1.11374
1.15724
1.21575
1.28656
1.36603
1.44959
1.53269
1.61174
1.68463
1.75089
1.81137
1.86766
1.92144
1.97406
2.02619
2.07786
2.12854
2.17719
2.2221
2.26028
2.28734
2.2988
2.29012
2.25784
2.20074
2.12072
2.0229
1.91486
1.80517
1.70146
1.60776
1.52588
1.45642
1.39814
1.34861
1.30483
1.26389
1.22339
1.18169
1.1378
1.09114
1.04107
0.986515
0.925683
0.856118
0.774624
0.673803
0.546364
0.396106
0.232495
0
0.374799
1.745
4.257
7.64121
11.1713
13.8473
14.7837
13.6245
10.7403
7.06591
3.66521
1.28192
0.121776
-0.064295
0.288683
0.606608
0.889503
1.11223
1.26342
1.3755
1.46643
1.54179
1.60417
1.65595
1.69938
1.73668
1.77017
1.80254
1.83675
1.87594
1.92303
1.9803
2.04898
2.12905
2.21942
2.31816
2.423
2.53191
2.64361
2.75789
2.87561
2.99844
3.1285
3.26787
3.41836
3.58122
3.75726
3.94684
4.14988
4.36572
4.59306
4.82968
5.07243
5.31714
5.55862
5.78924
5.99828
6.17622
6.31558
6.41093
6.45947
6.46095
6.417
6.33014
6.20269
6.03619
5.83531
5.60515
5.34936
5.07104
4.77401
4.46332
4.14486
3.82531
3.51164
3.21055
2.92789
2.66818
2.43447
2.22826
2.04976
1.89815
1.77182
1.66853
1.58565
1.52043
1.46928
1.42709
1.3884
1.34839
1.30366
1.25294
1.19733
1.13998
1.08539
1.03832
1.00259
0.980482
0.97225
0.976268
0.989509
1.00825
1.02875
1.04795
1.06381
1.07512
1.08172
1.08447
1.08523
1.08669
1.09216
1.10506
1.12843
1.16426
1.21294
1.27318
1.34231
1.41669
1.49169
1.5628
1.62685
1.68254
1.7307
1.77391
1.81584
1.86033
1.91062
1.96874
2.03501
2.10895
2.18966
2.27587
2.36553
2.45354
2.53
2.58244
2.59794
2.56687
2.4865
2.36305
2.21114
2.05043
1.90077
1.77375
1.66931
1.58573
1.52257
1.47723
1.44546
1.42269
1.40481
1.38852
1.37137
1.35146
1.32688
1.29528
1.25368
1.1985
1.1259
1.03095
0.901703
0.725687
0.511551
0.27401
0
0.144404
1.03565
2.93191
5.82098
9.27767
12.4883
14.4954
14.596
12.6927
9.37991
5.68857
2.6208
0.7453
0.0706747
0.214328
0.545063
0.750854
0.921875
1.05251
1.14886
1.21657
1.2646
1.30298
1.34053
1.38312
1.43249
1.4883
1.54962
1.61497
1.6826
1.75076
1.81773
1.882
1.9427
2.00005
2.05559
2.11236
2.17438
2.24591
2.33039
2.42959
2.54253
2.66685
2.80022
2.94056
3.08695
3.24
3.40189
3.5757
3.7645
3.97039
4.19366
4.43234
4.68267
4.9397
5.19696
5.44531
5.67215
5.86326
6.00843
6.09948
6.12991
6.09608
5.99863
5.84341
5.64126
5.40623
5.15256
4.89225
4.63084
4.36933
4.10689
3.84173
3.57188
3.29597
3.01387
2.72714
2.43911
2.15461
1.87945
1.61972
1.38118
1.16867
0.985767
0.834717
0.716338
0.630002
0.574719
0.550571
0.556759
0.58692
0.627897
0.664932
0.684697
0.677648
0.639766
0.57324
0.485907
0.389549
0.297382
0.220044
0.162291
0.124148
0.104068
0.0998966
0.108039
0.124307
0.144781
0.166433
0.187555
0.207615
0.226994
0.246602
0.267521
0.290728
0.317044
0.347135
0.381508
0.42048
0.464097
0.512067
0.563761
0.618339
0.675009
0.733286
0.793179
0.855189
0.92009
0.988533
1.06059
1.13549
1.21099
1.28283
1.34537
1.39253
1.4186
1.41906
1.39107
1.33381
1.24863
1.13893
1.00992
0.868775
0.722815
0.578484
0.441059
0.314492
0.201804
0.10503
0.0253738
-0.0365223
-0.0803841
-0.106131
-0.11307
-0.0998669
-0.0673676
-0.0266998
0
-0.0126369
-0.0882065
-0.240993
-0.47141
-0.764395
-1.09179
-1.32952
-0.79257
0.787445
3.4225
6.75269
10.0636
12.4704
13.2407
12.1167
9.4522
6.0704
2.90505
0.626438
-0.554892
-0.839755
-0.6208
-0.445956
-0.285462
-0.148224
-0.037915
0.0530735
0.131979
0.202111
0.264912
0.321993
0.374918
0.425557
0.476533
0.531342
0.594017
0.668327
0.756783
0.859776
0.974503
1.09664
1.22137
1.3437
1.45959
1.56675
1.66509
1.75667
1.8453
1.93592
2.03394
2.14445
2.27177
2.41936
2.58946
2.78283
2.99863
3.23441
3.48629
3.74919
4.01725
4.28413
4.54234
4.78414
5.0026
5.19093
5.34152
5.44794
5.5075
5.51808
5.47834
5.38834
5.25025
5.06854
4.84955
4.60034
4.32894
4.04381
3.75071
3.45306
3.15405
2.85712
2.56596
2.28429
2.01556
1.76265
1.52766
1.31193
1.11627
0.941169
0.78751
0.655805
0.546388
0.459144
0.39328
0.346899
0.316966
0.299572
0.290304
0.284687
0.278589
0.268536
0.251971
0.227394
0.194444
0.153898
0.107562
0.05807
0.00856895
-0.037653
-0.0775894
-0.108702
-0.129142
-0.137823
-0.134408
-0.119247
-0.0932903
-0.0579967
-0.0152386
0.032827
0.0839901
0.136209
0.187881
0.238241
0.287574
0.337239
0.389435
0.446759
0.51163
0.585732
0.669547
0.76206
0.861385
0.965014
1.06954
1.17067
1.26377
1.34385
1.40491
1.44005
1.44414
1.41327
1.34585
1.24371
1.11275
0.96263
0.805439
0.65356
0.516826
0.398158
0.297982
0.21664
0.152919
0.104693
0.0695126
0.0449848
0.0288872
0.0190369
0.0131039
0.00807877
0
-0.0139614
-0.041029
-0.0865461
-0.161831
-0.302923
-0.549856
-0.878177
-1.24683
-1.53747
-1.18751
0.109237
2.48414
5.71263
9.17984
12.015
13.3847
12.8335
10.5011
7.08697
3.56158
0.77212
-0.854262
-1.37684
-1.18401
-0.921408
-0.681756
-0.482338
-0.331978
-0.219147
-0.128038
-0.0547709
0.00392418
0.0521923
0.0949287
0.13738
0.184438
0.23975
0.304949
0.378907
0.458666
0.540464
0.620432
0.695669
0.765087
0.829779
0.892864
0.958879
1.03291
1.1197
1.22255
1.34347
1.4835
1.6427
1.82021
2.01427
2.22227
2.44075
2.66556
2.89207
3.11567
3.33229
3.53893
3.73392
3.91676
4.08776
4.24717
4.39411
4.52506
4.63338
4.70832
4.7376
4.71194
4.62863
4.49235
4.31276
4.1002
3.86188
3.60535
3.33629
3.05745
2.77034
2.4774
2.18226
1.88954
1.6044
1.33202
1.07706
0.84325
0.633027
0.447536
0.286695
0.148907
0.0317097
-0.0677595
-0.152301
-0.224306
-0.285614
-0.337581
-0.381313
-0.417973
-0.448851
-0.475502
-0.499533
-0.522247
-0.54433
-0.565696
-0.585607
-0.603049
-0.617036
-0.627109
-0.634717
-0.642707
-0.653977
-0.669985
-0.689607
-0.7089
-0.721944
-0.72246
-0.705562
-0.671243
-0.621089
-0.55672
-0.480622
-0.395666
-0.304791
-0.210311
-0.114443
-0.0194418
0.0723846
0.158973
0.238889
0.311738
0.378421
0.441117
0.50294
0.567349
0.637665
0.717102
0.808171
0.909197
1.00869
1.08851
1.1293
1.11553
1.04028
0.908019
0.734335
0.542532
0.358054
0.198716
0.0667511
-0.0405657
-0.123126
-0.181381
-0.217206
-0.233364
-0.232975
-0.219107
-0.19455
-0.161844
-0.123188
-0.0809587
-0.0385271
0
0.0394283
0.0315184
-0.252656
-0.787243
-1.44336
-2.08946
-2.03804
-0.948566
1.37257
4.77504
8.68559
12.1884
14.3061
14.3989
12.469
9.17453
5.52297
2.42424
0.363793
-0.650184
-0.91135
-0.743999
-0.550604
-0.361655
-0.183197
-0.0161308
0.143223
0.297191
0.445349
0.585729
0.715526
0.831115
0.929776
1.01058
1.07488
1.12646
1.17125
1.21647
1.26945
1.33645
1.4216
1.52548
1.64567
1.77925
1.92339
2.07507
2.23152
2.39064
2.55129
2.71363
2.87911
3.05027
3.23019
3.42167
3.62643
3.84442
4.07344
4.30938
4.54706
4.78081
5.00514
5.21465
5.40335
5.56617
5.70063
5.80487
5.87746
5.91714
5.92274
5.89294
5.82611
5.72033
5.57468
5.39118
5.17273
4.92282
4.64646
4.35051
4.04337
3.73409
3.43147
3.1431
2.87464
2.62952
2.40903
2.21276
2.03922
1.88652
1.75289
1.63705
1.53836
1.45669
1.39215
1.34481
1.31496
1.30229
1.30381
1.31468
1.3292
1.3416
1.34684
1.34125
1.32294
1.29206
1.25075
1.20329
1.15468
1.11071
1.07696
1.0578
1.0556
1.07039
1.09998
1.14063
1.1881
1.23865
1.28998
1.34155
1.3943
1.45024
1.51188
1.58153
1.66058
1.74901
1.84534
1.9468
2.04902
2.14743
2.23838
2.31996
2.39238
2.45772
2.51924
2.5803
2.64331
2.70899
2.77599
2.84074
2.89803
2.94169
2.96511
2.96236
2.92877
2.86159
2.76068
2.62905
2.47296
2.30159
2.12619
1.95866
1.80854
1.68224
1.58518
1.52144
1.49633
1.515
1.57049
1.6414
1.70487
1.74077
1.73492
1.68038
1.57659
1.42709
1.23716
0.986638
0.685301
0.345942
-0.0140811
0
0.851431
2.83971
5.94826
9.70399
13.2233
15.4951
15.8051
14.0772
10.9145
7.30477
4.16751
2.01597
0.89365
0.545473
0.713952
1.00452
1.29746
1.56561
1.78086
1.93661
2.05558
2.15348
2.23781
2.31224
2.37882
2.43886
2.49272
2.53981
2.57929
2.61068
2.63472
2.65413
2.67396
2.70114
2.74335
2.8075
2.8981
3.01439
3.1529
3.30949
3.47888
3.65579
3.83593
4.01691
4.19801
4.37989
4.56401
4.75203
4.94525
5.14428
5.34885
5.55785
5.76932
5.98059
6.18755
6.38391
6.56157
6.71278
6.83045
6.90874
6.94365
6.93316
6.87702
6.77632
6.633
6.44956
6.23121
5.98422
5.71455
5.42745
5.12752
4.81867
4.50467
4.18937
3.87666
3.57047
3.27482
2.99383
2.73168
2.49237
2.27934
2.09553
1.94333
1.82239
1.72905
1.65777
1.6019
1.55469
1.51032
1.46461
1.41547
1.36288
1.30856
1.25517
1.20555
1.16215
1.12683
1.10034
1.08246
1.07231
1.06871
1.07045
1.07649
1.08597
1.09826
1.11273
1.12897
1.14695
1.16721
1.19086
1.21948
1.25466
1.29757
1.34857
1.40672
1.4703
1.53729
1.60545
1.67271
1.7373
1.79825
1.85556
1.91027
1.96426
2.01994
2.07972
2.14641
2.22182
2.30201
2.37788
2.43815
2.47241
2.47378
2.44003
2.37319
2.27815
2.16122
2.0308
1.89424
1.75692
1.62322
1.49701
1.38155
1.27956
1.19332
1.12412
1.07218
1.03672
1.01555
1.00404
0.994586
0.977771
0.943541
0.882398
0.786655
0.651566
0.474532
0.250859
-0.0091814
-0.313715
-0.513045
0
1.56759
4.23441
7.59109
10.8131
12.9315
13.2391
11.6226
8.62403
5.1857
2.22699
0.293901
-0.545908
-0.567142
-0.156661
0.18381
0.499319
0.775171
1.00051
1.1813
1.31716
1.41168
1.47206
1.50842
1.53256
1.55646
1.5904
1.64127
1.71073
1.79535
1.88998
1.98977
2.09009
2.18758
2.28087
2.37072
2.45965
2.55135
2.6499
2.75899
2.88162
3.02028
3.17681
3.35221
3.54655
3.75873
3.98631
4.22544
4.47093
4.71654
4.95549
5.18093
5.38683
5.56861
5.72347
5.85092
5.95286
6.03291
6.09578
6.14629
6.18845
6.22327
6.24724
6.25245
6.22617
6.15446
6.02672
5.8395
5.59792
5.31428
5.00436
4.68312
4.36171
4.04478
3.73549
3.43612
3.14879
2.87598
2.62065
2.38601
2.17523
1.99174
1.83729
1.71051
1.6084
1.52699
1.46215
1.41024
1.36836
1.33442
1.30688
1.28431
1.26568
1.25007
1.2368
1.22559
1.21661
1.21067
1.20918
1.21408
1.22783
1.25297
1.29272
1.35326
1.43871
1.53853
1.63349
1.70312
1.7329
1.71975
1.67356
1.61457
1.5675
1.55499
1.58229
1.64255
1.72914
1.83704
1.96134
2.09624
2.23462
2.37042
2.49969
2.62095
2.73494
2.84291
2.94568
3.04168
3.12306
3.1764
3.18799
3.14987
3.06387
2.9417
2.80128
2.66115
2.53405
2.4221
2.32402
20
180
342
503
663
824
985
1146
1307
1467
1630
1795
1966
2136
2306
2473
2639
2805
2969
3131
3293
3456
3617
3473
3627
3576
3713
0
0
0
0
0
0
0
0
0
0
0
0
0
0
0
0
0
0
0
0
0
0
0
0
0
0
0
0
0
0
0
0
0
0
0
0
0
0
0
0
0
0
0
0
0
0
0
0
0
0
0
0
0
0
0
0
0
0
0
0
0
0
0
0
0
0
0
0
0
0
0
0
0
0
0
0
0
0
0
0
0
0
0
0
0
0
0
0
0
0
0
0
0
0
0
0
0
0
0
0
0
0
0
0
0
0
0
0
0
0
0
0
0
0
0
0
0
0
0
0
0
0
0
0
0
0
0
0
0
0
0
0
0
0
0
0
0
0
0
0
0
0
0
0
0
0
0
0
0
0
0
0
0
0
0
0
0
0
0
0
0
0
0
0
0
0
0
0
0
0
0
0
0
0
0
0
0
0
0
0
0
0
0
0
0
0
0
0
0
0
0
0
0
0
0
0
0
0
0
0
0
0
0
0
0
0
0
0
0
0
0
0
0
0
0
0
0
0
0
0
0
0
0
0
0
0
0
0
0
0
0
0
0
0
0
0
0
0
0
0
0
0
0
0
0
0
0
0
0
0
0
0
0
0
0
0
0
0
0
0
0
0
0
0
0
0
0
0
0
0
0
0
0
0
0
0
0
0
0
0
0
0
0
0
0
0
0
0
0
0
0
0
0
0
0
0
0
0
0
0
0
0
0
0
0
0
0
0
0
0
0
0
0
0
0
0
0
0
0
0
0
0
0
0
0
0
0
0
0
0
0
0
0
0
0
0
0
0
0
0
0
0
0
0
0
0
0
0
0
0
0
0
0
0
0
0
0
0
0
0
0
0
0
0
0
0
0
0
0
0
0
0
0
0
0
0
0
0
0
0
0
0
0
0
0
0
0
0
0
0
0
0
0
0
0
0
0
0
0
0
0
0
0
0
0
0
0
0
0
0
0
0
0
0
0
0
0
0
0
0
0
0
0
0
0
0
0
0
0
0
0
0
0
0
0
0
0
0
0
0
0
0
0
0
0
0
0
0
0
0
0
0
0
0
0
0
0
0
0
0
0
0
0
0
0
0
0
0
0
0
0
0
0
0
0
0
0
0
0
0
0
0
0
0
0
0
0
0
0
0
0
0
0
0
0
0
0
0
0
0
0
0
0
0
0
0
0
0
0
0
0
0
0
0
0
0
0
0
0
0
0
0
0
0
0
0
0
0
0
0
0
0
0
0
0
0
0
0
0
0
0
0
0
0
0
0
0
0
0
0
0
0
0
0
0
0
0
0
0
0
0
0
0
0
0
0
0
0
0
0
0
0
0
0
0
0
0
0
0
0
0
0
0
0
0
0
0
0
0
0
0
0
0
0
0
0
0
0
0
0
0
0
0
0
0
0
0
0
0
0
0
0
0
0
0
0
0
0
0
0
0
0
0
0
0
0
0
0
0
0
0
0
0
0
0
0
0
0
0
0
0
0
0
0
0
0
0
0
0
0
0
0
0
0
0
0
0
0
0
0
0
0
0
0
0
0
0
0
0
0
0
0
0
0
0
0
0
0
0
0
0
0
0
0
0
0
0
0
0
0
0
0
0
0
0
0
0
0
0
0
0
0
0
0
0
0
0
0
0
0
0
0
0
0
0
0
0
0
0
0
0
0
0
0
0
0
0
0
0
0
0
0
0
0
0
0
0
0
0
0
0
0
0
0
0
0
0
0
0
0
0
0
0
0
0
0
0
0
0
0
0
0
0
0
0
0
0
0
0
0
0
0
0
0
0
0
0
0
0
0
0
0
0
0
0
0
0
0
0
0
0
0
0
0
0
0
0
0
0
0
0
0
0
0
0
0
0
0
0
0
0
0
0
0
0
0
0
0
0
0
0
0
0
0
0
0
0
0
0
0
0
0
0
0
0
0
0
0
0
0
0
0
0
0
0
0
0
0
0
0
0
0
0
0
0
0
0
0
0
0
0
0
0
0
0
0
0
0
0
0
0
0
0
0
0
0
0
0
0
0
0
0
0
0
0
0
0
0
0
0
0
0
0
0
0
0
0
0
0
0
0
0
0
0
0
0
0
0
0
0
0
0
0
0
0
0
0
0
0
0
0
0
0
0
0
0
0
0
0
0
0
0
0
0
0
0
0
0
0
0
0
0
0
0
0
0
0
0
0
0
0
0
0
0
0
0
0
0
0
0
0
0
0
0
0
0
0
0
0
0
0
0
0
0
0
0
0
0
0
0
0
0
0
0
0
0
0
0
0
0
0
0
0
0
0
0
0
0
0
0
0
0
0
0
0
0
0
0
0
0
0
0
0
0
0
0
0
0
0
0
0
0
0
0
0
0
0
0
0
0
0
0
0
0
0
0
0
0
0
0
0
0
0
0
0
0
0
0
0
0
0
0
0
0
0
0
0
0
0
0
0
0
0
0
0
0
0
0
0
0
0
0
0
0
0
0
0
0
0
0
0
0
0
0
0
0
0
0
0
0
0
0
0
0
0
0
0
0
0
0
0
0
0
0
0
0
0
0
0
0
0
0
0
0
0
0
0
0
0
0
0
0
0
0
0
0
0
0
0
0
0
0
0
0
0
0
0
0
0
0
0
0
0
0
0
0
0
0
0
0
0
0
0
0
0
0
0
0
0
0
0
0
0
0
0
0
0
0
0
0
0
0
0
0
0
0
0
0
0
0
0
0
0
0
0
0
0
0
0
0
0
0
0
0
0
0
0
0
0
0
0
0
0
0
0
0
0
0
0
0
0
0
0
0
0
0
0
0
0
0
0
0
0
0
0
0
0
0
0
0
0
0
0
0
0
0
0
0
0
0
0
0
0
0
0
0
0
0
0
0
0
0
0
0
0
0
0
0
0
0
0
0
0
0
0
0
0
0
0
0
0
0
0
0
0
0
0
0
0
0
0
0
0
0
0
0
0
0
0
0
0
0
0
0
0
0
0
0
0
0
0
0
0
0
0
0
0
0
0
0
0
0
0
0
0
0
0
0
0
0
0
0
0
0
0
0
0
0
0
0
0
0
0
0
0
0
0
0
0
0
0
0
0
0
0
0
0
0
0
0
0
0
0
0
0
0
0
0
0
0
0
0
0
0
0
0
0
0
0
0
0
0
0
0
0
0
0
0
0
0
0
0
0
0
0
0
0
0
0
0
0
0
0
0
0
0
0
0
0
0
0
0
0
0
0
0
0
0
0
0
0
0
0
0
0
0
0
0
0
0
0
0
0
0
0
0
0
0
0
0
0
0
0
0
0
0
0
0
0
0
0
0
0
0
0
0
0
0
0
0
0
0
0
0
0
0
0
0
0
0
0
0
0
0
0
0
0
0
0
0
0
0
0
0
0
0
0
0
0
0
0
0
0
0
0
0
0
0
0
0
0
0
0
0
0
0
0
0
0
0
0
0
0
0
0
0
0
0
0
0
0
0
0
0
0
0
0
0
0
0
0
0
0
0
0
0
0
0
0
0
0
0
0
0
0
0
0
0
0
0
0
0
0
0
0
0
0
0
0
0
0
0
0
0
0
0
0
0
0
0
0
0
0
0
0
0
0
0
0
0
0
0
0
0
0
0
0
0
0
0
0
0
0
0
0
0
0
0
0
0
0
0
0
0
0
0
0
0
0
0
0
0
0
0
0
0
0
0
0
0
0
0
0
0
0
0
0
0
0
0
0
0
0
0
0
0
0
0
0
0
0
0
0
0
0
0
0
0
0
0
0
0
0
0
0
0
0
0
0
0
0
0
0
0
0
0
0
0
0
0
0
0
0
0
0
0
0
0
0
0
0
0
0
0
0
0
0
0
0
0
0
0
0
0
0
0
0
0
0
0
0
0
0
0
0
0
0
0
0
0
0
0
0
0
0
0
0
0
0
0
0
0
0
0
0
0
0
0
0
0
0
0
0
0
0
0
0
0
0
0
0
0
0
0
0
0
0
0
0
0
0
0
0
0
0
0
0
0
0
0
0
0
0
0
0
0
0
0
0
0
0
0
0
0
0
0
0
0
0
0
0
0
0
0
0
0
0
0
0
0
0
0
0
0
0
0
0
0
0
0
0
0
0
0
0
0
0
0
0
0
0
0
0
0
0
0
0
0
0
0
0
0
0
0
0
0
0
0
0
0
0
0
0
0
0
0
0
0
0
0
0
0
0
0
0
0
0
0
0
0
0
0
0
0
0
0
0
0
0
0
0
0
0
0
0
0
0
0
0
0
0
0
0
0
0
0
0
0
0
0
0
0
0
0
0
0
0
0
0
0
0
0
0
0
0
0
0
0
0
0
0
0
0
0
0
0
0
0
0
0
0
0
0
0
0
0
0
0
0
0
0
0
0
0
0
0
0
0
0
0
0
0
0
0
0
0
0
0
0
0
0
0
0
0
0
0
0
0
0
0
0
0
0
0
0
0
0
0
0
0
0
0
0
0
0
0
0
0
0
0
0
0
0
0
0
0
0
0
0
0
0
0
0
0
0
0
0
0
0
0
0
0
0
0
0
0
0
0
0
0
0
0
0
0
0
0
0
0
0
0
0
0
0
0
0
0
0
0
0
0
0
0
0
0
0
0
0
0
0
0
0
0
0
0
0
0
0
0
0
0
0
0
0
0
0
0
0
0
0
0
0
0
0
0
0
0
0
0
0
0
0
0
0
0
0
0
0
0
0
0
0
0
0
0
0
0
0
0
0
0
0
0
0
0
0
0
0
0
0
0
0
0
0
0
0
0
0
0
0
0
0
0
0
0
0
0
0
0
0
0
0
0
0
0
0
0
0
0
0
0
0
0
0
0
0
0
0
0
0
0
0
0
0
0
0
0
0
0
0
0
0
0
0
0
0
0
0
0
0
0
0
0
0
0
0
0
0
0
0
0
0
0
0
0
0
0
0
0
0
0
0
0
0
0
0
0
0
0
0
0
0
0
0
0
0
0
0
0
0
0
0
0
0
0
0
0
0
0
0
0
0
0
0
0
0
0
0
0
0
0
0
0
0
0
0
0
0
0
0
0
0
0
0
0
0
0
0
0
0
0
0
0
0
0
0
0
0
0
0
0
0
0
0
0
0
0
0
0
0
0
0
0
0
0
0
0
0
0
0
0
0
0
0
0
0
0
0
0
0
0
0
0
0
0
0
0
0
0
0
0
0
0
0
0
0
0
0
0
0
0
0
0
0
0
0
0
0
0
0
0
0
0
0
0
0
0
0
0
0
0
0
0
0
0
0
0
0
0
0
0
0
0
0
0
0
0
0
0
0
0
0
0
0
0
0
0
0
0
0
0
0
0
0
0
0
0
0
0
0
0
0
0
0
0
0
0
0
0
0
0
0
0
0
0
0
0
0
0
0
0
0
0
0
0
0
0
0
0
0
0
0
0
0
0
0
0
0
0
0
0
0
0
0
0
0
0
0
0
0
0
0
0
0
0
0
0
0
0
0
0
0
0
0
0
0
0
0
0
0
0
0
0
0
0
0
0
0
0
0
0
0
0
0
0
0
0
0
0
0
0
0
0
0
0
0
0
0
0
0
0
0
0
0
0
0
0
0
0
0
0
0
0
0
0
0
0
0
0
0
0
0
0
0
0
0
0
0
0
0
0
0
0
0
0
0
0
0
0
0
0
0
0
0
0
0
0
0
0
0
0
0
0
0
0
0
0
0
0
0
0
0
0
0
0
0
0
0
0
0
0
0
0
0
0
0
0
0
0
0
0
0
0
0
0
0
0
0
0
0
0
0
0
0
0
0
0
0
0
0
0
0
0
0
0
0
0
0
0
0
0
0
0
0
0
0
0
0
0
0
0
0
0
0
0
0
0
0
0
0
0
0
0
0
0
0
0
0
0
0
0
0
0
0
0
0
0
0
0
0
0
0
0
0
0
0
0
0
0
0
0
0
0
0
0
0
0
0
0
0
0
0
0
0
0
0
0
0
0
0
0
0
0
0
0
0
0
0
0
0
0
0
0
0
0
0
0
0
0
0
0
0
0
0
0
0
0
0
0
0
0
0
0
0
0
0
0
0
0
0
0
0
0
0
0
0
0
0
0
0
0
0
0
0
0
0
0
0
0
0
0
0
0
0
0
0
0
0
0
0
0
0
0
0
0
0
0
0
0
0
0
0
0
0
0
0
0
0
0
0
0
0
0
0
0
0
0
0
0
0
0
0
0
0
0
0
0
0
0
0
0
0
0
0
0
0
0
0
0
0
0
0
0
0
0
0
0
0
0
0
0
0
0
0
0
0
0
0
0
0
0
0
0
0
0
0
0
0
0
0
0
0
0
0
0
0
0
0
0
0
0
0
0
0
0
0
0
0
0
0
0
0
0
0
0
0
0
0
0
0
0
0
0
0
0
0
0
0
0
0
0
0
0
0
0
0
0
0
0
0
0
0
0
0
0
0
0
0
0
0
0
0
0
0
0
0
0
0
0
0
0
0
0
0
0
0
0
0
0
0
0
0
0
0
0
0
0
0
0
0
0
0
0
0
0
0
0
0
0
0
0
0
0
0
0
0
0
0
0
0
0
0
0
0
0
0
0
0
0
0
0
0
0
0
0
0
0
0
0
0
0
0
0
0
0
0
0
0
0
0
0
0
0
0
0
0
0
0
0
0
0
0
0
0
0
0
0
0
0
0
0
0
0
0
0
0
0
0
0
0
0
0
0
0
0
0
0
0
0
0
0
0
0
0
0
0
0
0
0
0
0
0
0
0
0
0
0
0
0
0
0
0
0
0
0
0
0
0
0
0
0
0
0
0
0
0
0
0
0
0
0
0
0
0
0
0
0
0
0
0
0
0
0
0
0
0
0
0
0
0
0
0
0
0
0
0
0
0
0
0
0
0
0
0
0
0
0
0
0
0
0
0
0
0
0
0
0
0
0
0
0
0
0
0
0
0
0
0
0
0
0
0
0
0
0
0
0
0
0
0
0
0
0
0
0
0
0
0
0
0
0
0
0
0
0
0
0
0
0
0
0
0
0
0
0
0
0
0
0
0
0
0
0
0
0
0
0
0
0
0
0
0
0
0
0
0
0
0
0
0
0
0
0
0
0
0
0
0
0
0
0
0
0
0
0
0
0
0
0
0
0
0
0
0
0
0
0
0
0
0
0
0
0
0
0
0
0
0
0
0
0
0
0
0
0
0
0
0
0
0
0
0
0
0
0
0
0
0
0
0
0
0
0
0
0
0
0
0
0
0
0
0
0
0
0
0
0
0
0
0
0
0
0
0
0
0
0
0
0
0
0
0
0
0
0
0
0
0
0
0
0
0
0
0
0
0
0
0
0
0
0
0
0
0
0
0
0
0
0
0
0
0
0
0
0
0
0
0
0
0
0
0
0
0
0
0
0
0
0
0
0
0
0
0
0
0
0
0
0
0
0
0
0
0
0
0
0
0
0
0
0
0
0
0
0
0
0
0
0
0
0
0
0
0
0
0
0
0
0
0
0
0
0
0
0
0
0
0
0
0
0
0
0
0
0
0
0
0
0
0
0
0
0
0
0
0
0
0
0
0
0
0
0
0
0
0
0
0
0
0
0
0
0
0
0
0
0
0
0
0
0
0
0
0
0
0
0
0
0
0
0
0
0
0
0
0
0
0
0
0
0
0
0
0
0
0
0
0
0
0
0
0
0
0
0
0
0
0
0
0
0
0
0
0
0
0
0
0
0
0
0
0
0
0
0
0
0
0
0
0
0
0
0
0
0
0
0
0
0
0
0
0
0
0
0
0
0
0
0
0
0
0
0
0
0
0
0
0
0
0
0
0
0
0
0
0
0
0
0
0
0
0
0
0
0
0
0
0
0
0
0
0
0
0
0
0
0
0
0
0
0
0
0
0
0
0
0
0
0
0
0
0
0
0
0
0
0
0
0
0
0
0
0
0
0
0
0
0
0
0
0
0
0
0
0
0
0
0
0
0
0
0
0
0
0
0
0
0
0
0
0
0
0
0
0
0
0
0
0
0
0
0
0
0
0
0
0
0
0
0
0
0
0
0
0
0
0
0
0
0
0
0
0
0
0
0
0
0
0
0
0
0
0
0
0
0
0
0
0
0
0
0
0
0
0
0
0
0
0
0
0
0
0
0
0
0
0
0
0
0
0
0
0
0
0
0
0
0
0
0
0
0
0
0
0
0
0
0
0
0
0
0
0
0
0
0
0
0
0
0
0
0
0
0
0
0
0
0
0
0
0
0
0
0
0
0
0
0
0
0
0
0
0
0
0
0
0
0
0
0
0
0
0
0
0
0
0
0
0
0
0
0
0
0
0
0
0
0
0
0
0
0
0
0
0
0
0
0
0
0
0
0
0
0
0
0
0
0
0
0
0
0
0
0
0
0
0
0
0
0
0
0
0
0
0
0
0
0
0
0
0
0
0
0
0
0
0
0
0
0
0
0
0
0
0
0
0
0
0
0
0
0
0
0
0
0
0
