3.12643
3.28136
3.45233
3.63898
3.84021
4.05426
4.27866
4.51037
4.74635
4.98199
5.20924
5.41807
5.59851
5.74116
5.83959
5.89041
5.88965
5.83183
5.71114
5.52428
5.27382
4.97046
4.63326
4.28815
3.9539
3.63716
3.3438
3.07944
2.84746
2.64889
2.48274
2.34641
2.2363
2.14837
2.07861
2.02334
1.97944
1.94432
1.91559
1.89131
1.87003
1.85076
1.83296
1.81644
1.80117
1.78715
1.77421
1.76201
1.75012
1.73818
1.72609
1.71416
1.70318
1.69429
1.68877
1.68779
1.69211
1.7019
1.7167
1.73549
1.75684
1.77909
1.8006
1.81977
1.83511
1.84512
1.84837
1.84372
1.8304
1.80816
1.77749
1.73968
1.6968
1.65149
1.60664
1.56496
1.52842
1.49838
1.47539
1.45927
1.44913
1.4436
1.44126
1.44092
1.44187
1.44386
1.44703
1.45159
1.4575
1.46421
1.47002
1.47241
1.46873
1.45711
1.43723
1.41071
1.38092
1.35214
1.32861
1.31314
1.30659
1.30931
1.32069
1.33952
1.36431
1.39329
1.42512
1.45824
1.49074
1.52046
1.54502
1.56177
1.56822
1.56268
1.54445
1.51418
1.47406
1.42768
1.37997
1.33691
1.30395
1.28505
1.28188
1.2938
1.31837
1.35248
1.3935
1.43983
1.49109
1.54831
1.61273
1.68504
1.76479
1.85087
1.93923
2.02382
2.09828
2.15723
2.19707
2.2163
2.21534
2.19603
2.16111
2.11418
2.05921
1.99938
1.93717
1.87456
1.81298
1.75301
1.69462
1.63719
1.57955
1.51999
1.45632
1.38592
1.30592
1.21335
1.1051
0.968236
0.764677
0.505168
0.213656
-0.134307
0
1.08627
3.36294
6.54673
9.7778
11.9344
12.1852
10.4465
7.43759
4.28799
1.95179
0.799627
0.602708
0.83997
0.942281
1.00041
1.05297
1.10088
1.1457
1.18897
1.23221
1.27677
1.32364
1.37335
1.42592
1.48089
1.53746
1.59474
1.65201
1.70892
1.76556
1.82238
1.87997
1.93872
1.99862
2.05896
2.118
2.17369
2.22451
2.27044
2.31357
2.35811
2.40983
2.47502
2.55928
2.6651
2.79173
2.93809
3.10295
3.28426
3.47943
3.6856
3.89985
4.11954
4.34242
4.56552
4.78403
4.99011
5.17305
5.32355
5.43123
5.48288
5.46468
5.3664
5.18558
4.92965
4.61468
4.26244
3.90081
3.54647
3.20442
2.87835
2.57395
2.29604
2.04814
1.83215
1.64825
1.49486
1.36906
1.26713
1.18507
1.11925
1.06675
1.02556
0.994415
0.972497
0.959248
0.954246
0.956247
0.962994
0.971902
0.980516
0.986976
0.99038
0.990924
0.989815
0.988979
0.990566
0.996298
1.00727
1.02388
1.04589
1.07181
1.09935
1.12599
1.14945
1.16816
1.18152
1.18983
1.19417
1.19599
1.19679
1.19766
1.19922
1.20156
1.2043
1.20682
1.20854
1.2091
1.20847
1.20701
1.20533
1.2042
1.20439
1.20659
1.21132
1.21876
1.22872
1.24047
1.25264
1.26352
1.27132
1.27465
1.27271
1.26556
1.25401
1.23949
1.22372
1.20841
1.19487
1.18394
1.17603
1.17119
1.16923
1.16976
1.17238
1.17683
1.1831
1.19138
1.20189
1.21473
1.22968
1.24575
1.26115
1.27379
1.28175
1.28385
1.28001
1.27134
1.25986
1.24807
1.23831
1.23209
1.2299
1.23143
1.23588
1.24199
1.24835
1.25374
1.2575
1.25974
1.26147
1.26457
1.27154
1.2852
1.30829
1.34282
1.38968
1.4486
1.51832
1.59679
1.68093
1.76612
1.8467
1.91715
1.97281
2.01027
2.02766
2.02472
2.00283
1.96483
1.91477
1.8574
1.79762
1.73947
1.6855
1.63651
1.59215
1.55078
1.50977
1.46587
1.41549
1.35498
1.28086
1.19012
1.08108
0.9539
0.802769
0.632746
0.451947
-0.00406799
0
0.947162
3.09616
6.19422
9.41941
11.6642
12.0611
10.4494
7.47314
4.2363
1.73073
0.402593
0.0935511
0.315817
0.524814
0.638505
0.744718
0.843404
0.935458
1.0208
1.09917
1.17043
1.23466
1.29236
1.34455
1.39273
1.43874
1.48452
1.53184
1.58207
1.63596
1.69368
1.75477
1.81828
1.8829
1.94725
2.01004
2.07042
2.12819
2.18395
2.23925
2.29648
2.35878
2.42972
2.513
2.61204
2.72959
2.86738
3.02578
3.20369
3.39852
3.60637
3.82237
4.04113
4.25706
4.46422
4.65702
4.82997
4.97651
5.08877
5.16122
5.18942
5.16699
5.08694
4.94437
4.7394
4.47917
4.17793
3.85491
3.53072
3.21662
2.9178
2.63943
2.38469
2.15496
1.95026
1.76973
1.61215
1.47617
1.36052
1.26396
1.18524
1.123
1.07572
1.04171
1.01928
1.00683
1.00291
1.00617
1.01553
1.0297
1.04648
1.06272
1.07512
1.08107
1.07938
1.07081
1.05817
1.04572
1.03813
1.03914
1.05008
1.07223
1.10106
1.13002
1.15303
1.16678
1.17202
1.17337
1.17752
1.19075
1.21659
1.25389
1.299
1.3443
1.38132
1.40308
1.40576
1.3895
1.35805
1.31762
1.27513
1.23646
1.2047
1.17993
1.16093
1.14698
1.13738
1.13175
1.13005
1.13247
1.13916
1.14977
1.16344
1.17867
1.19269
1.20128
1.20003
1.18538
1.15572
1.11246
1.05981
1.00564
0.959109
0.928319
0.918234
0.929484
0.95851
0.998928
1.0435
1.08605
1.12378
1.15574
1.18145
1.20127
1.21611
1.22717
1.23573
1.24298
1.24981
1.25667
1.26347
1.26942
1.27318
1.27329
1.26879
1.25969
1.24732
1.2343
1.22399
1.21976
1.2241
1.23765
1.25995
1.28939
1.32391
1.36191
1.40281
1.44731
1.49708
1.55406
1.61952
1.69314
1.77274
1.85511
1.93519
2.00756
2.06755
2.11204
2.13988
2.15167
2.14925
2.13491
2.11066
2.07832
2.03888
1.99254
1.93923
1.87911
1.8128
1.74147
1.66663
1.58973
1.51163
1.43212
1.34965
1.26138
1.16379
1.05356
0.928517
0.786517
0.62942
0.463679
0.0632031
0
0.699311
2.48408
5.31672
8.62309
11.3997
12.6241
11.7736
9.13001
5.65548
2.50147
0.461308
-0.305793
-0.16461
0.337101
0.54297
0.726391
0.873214
0.990607
1.09366
1.18537
1.26858
1.34581
1.41896
1.48916
1.5569
1.62231
1.68542
1.74638
1.80554
1.86344
1.92067
1.97774
2.03503
2.09285
2.15152
2.21158
2.27395
2.33994
2.41111
2.48905
2.57508
2.67003
2.77419
2.88747
3.00981
3.14146
3.2831
3.43584
3.60088
3.77912
3.97064
4.17443
4.38823
4.60902
4.83306
5.05424
5.2618
5.44258
5.58739
5.68729
5.73407
5.7219
5.64848
5.51499
5.32508
5.08414
4.80266
4.49872
4.18693
3.8766
3.57461
3.28762
3.02125
2.77954
2.56456
2.37644
2.21373
2.07517
1.96022
1.86849
1.79891
1.75065
1.72355
1.71711
1.72957
1.75757
1.79635
1.84052
1.88491
1.92557
1.96052
1.98881
2.00941
2.02193
2.02639
2.02336
2.01395
1.99989
1.98346
1.96721
1.95373
1.94511
1.94282
1.94745
1.95867
1.97541
1.99601
2.01862
2.04141
2.06289
2.08206
2.0984
2.1119
2.12286
2.1318
2.13921
2.14549
2.15089
2.15549
2.15924
2.16197
2.16335
2.16287
2.1598
2.1533
2.14253
2.12678
2.10555
2.07859
2.04577
2.0069
1.96164
1.9098
1.85111
1.78578
1.7148
1.64007
1.56425
1.49038
1.42133
1.359
1.30447
1.25775
1.21786
1.18315
1.15172
1.12177
1.09187
1.06117
1.02936
0.996586
0.963315
0.930128
0.897593
0.866186
0.83628
0.808203
0.782309
0.759036
0.738886
0.7224
0.710078
0.702317
0.699387
0.701479
0.708794
0.721672
0.740682
0.766659
0.800686
0.843986
0.897704
0.96265
1.03903
1.1271
1.22742
1.33813
1.45211
1.55865
1.64697
1.70818
1.73655
1.73017
1.69107
1.62505
1.54119
1.4508
1.36521
1.292
1.23347
1.18763
1.15297
1.12534
1.09921
1.06869
1.02852
0.974826
0.905458
0.820106
0.720085
0.608556
0.488845
0.198173
0
0.31638
1.55072
3.82164
6.74501
9.4587
10.957
10.5866
8.41124
5.20143
2.04251
-0.193965
-1.19139
-1.1724
-0.612013
-0.0204483
0.51822
0.95526
1.26393
1.53539
1.7793
1.99506
2.18346
2.34666
2.48801
2.61162
2.72197
2.82336
2.9196
3.01364
3.10753
3.20235
3.29833
3.39506
3.49169
3.58722
3.68074
3.77172
3.86023
3.94704
4.0337
4.12241
4.21594
4.31733
4.42975
4.55622
4.6994
4.8613
5.04304
5.24457
5.46454
5.70026
5.94794
6.2031
6.46119
6.71742
6.96548
7.19634
7.40078
7.57506
7.71412
7.80128
7.81371
7.73058
7.54096
7.2498
6.88009
6.46936
6.06006
5.67129
5.30078
4.94715
4.61377
4.30324
4.01731
3.7569
3.52215
3.31249
3.12682
2.96367
2.82137
2.69832
2.59295
2.50383
2.42967
2.36923
2.32131
2.28469
2.25812
2.24024
2.22967
2.22524
2.22569
2.2296
2.23604
2.24487
2.25686
2.27356
2.29698
2.32892
2.3704
2.42109
2.47893
2.54124
2.6052
2.66805
2.72746
2.78178
2.82999
2.87133
2.90512
2.93085
2.94841
2.9578
2.95941
2.95428
2.94417
2.93124
2.91749
2.90407
2.89074
2.87536
2.85421
2.82312
2.77879
2.72001
2.64832
2.5678
2.48414
2.4033
2.32961
2.26441
2.20806
2.16014
2.11926
2.08346
2.05048
2.01827
1.98523
1.95045
1.91368
1.87522
1.83574
1.7961
1.75723
1.72011
1.68596
1.65648
1.63418
1.6217
1.62163
1.63584
1.66482
1.70879
1.76483
1.82622
1.88488
1.9331
1.9648
1.97621
1.96608
1.9354
1.88684
1.82415
1.75156
1.6731
1.59234
1.51201
1.4338
1.35858
1.28687
1.21866
1.15321
1.08884
1.02291
0.951967
0.871995
0.778897
0.669024
0.539724
0.387596
0.205927
0
-0.249566
-0.492936
-0.197172
0.979986
3.13289
5.92192
8.58396
10.2073
10.1655
8.46039
5.74215
2.97354
0.948167
-0.0386196
-0.192437
0.042033
0.145134
0.225902
0.299929
0.366393
0.425614
0.478423
0.526216
0.570737
0.613835
0.657232
0.702305
0.749916
0.80031
0.853095
0.907343
0.961754
1.01485
1.06534
1.1124
1.15591
1.1966
1.23594
1.27596
1.31888
1.36676
1.42123
1.48327
1.55347
1.63241
1.72087
1.82008
1.93181
2.05814
2.20109
2.36212
2.54158
2.73849
2.95042
3.1738
3.40481
3.63927
3.8719
4.09465
4.29757
4.47414
4.61519
4.70245
4.71483
4.63794
4.4712
4.2293
3.93688
3.61953
3.29826
2.98264
2.67518
2.37855
2.0974
1.83644
1.60007
1.3918
1.21452
1.07134
0.962816
0.884111
0.828969
0.790893
0.764214
0.744722
0.729764
0.71792
0.708521
0.701187
0.695686
0.692126
0.690894
0.692625
0.698021
0.707565
0.721271
0.738608
0.758613
0.780238
0.802716
0.825794
0.849706
0.874889
0.90156
0.929442
0.957212
0.982752
1.0038
1.0187
1.02702
1.02973
1.02896
1.02741
1.02757
1.03105
1.03822
1.04872
1.06196
1.07711
1.0932
1.10923
1.12411
1.13661
1.14558
1.15008
1.14959
1.14428
1.135
1.12324
1.11078
1.09929
1.09006
1.08387
1.0811
1.08217
1.08798
1.10028
1.12169
1.15539
1.20445
1.27108
1.35491
1.4538
1.56673
1.69016
1.81488
1.92932
2.0231
2.08866
2.12221
2.12359
2.09562
2.04307
1.9718
1.88894
1.80159
1.7151
1.63352
1.55985
1.49586
1.44262
1.39972
1.36502
1.33512
1.30563
1.27158
1.22778
1.16928
1.09179
0.992216
0.869608
0.723522
0.55768
0.349034
-0.0949121
0
1.07297
3.28615
6.30292
9.29766
11.2521
11.4252
9.73718
6.82628
3.72741
1.36385
0.157444
-0.0354208
0.313585
0.546249
0.663836
0.767994
0.859231
0.939708
1.0116
1.07737
1.1394
1.19964
1.25943
1.31939
1.37957
1.43958
1.49889
1.55703
1.61375
1.66904
1.72306
1.77601
1.82798
1.87893
1.92881
1.97773
2.02627
2.07566
2.12792
2.18568
2.25194
2.32968
2.42143
2.52888
2.65292
2.79372
2.95087
3.12361
3.311
3.51189
3.72488
3.94943
4.18637
4.43232
4.67429
4.89152
5.06505
5.18479
5.24677
5.24958
5.19179
5.07188
4.89001
4.65021
4.36158
4.04127
3.70947
3.37953
3.05756
2.74794
2.45595
2.18635
1.9434
1.7303
1.54876
1.39913
1.28038
1.1902
1.12532
1.08172
1.05506
1.0411
1.03577
1.0355
1.03746
1.03972
1.04123
1.04174
1.04154
1.04126
1.04155
1.04287
1.04534
1.04875
1.05256
1.05607
1.0585
1.05922
1.05805
1.05543
1.05239
1.05052
1.05159
1.05712
1.06796
1.08425
1.10456
1.12654
1.14743
1.16475
1.17668
1.18237
1.18189
1.17598
1.16597
1.15331
1.13929
1.12503
1.11141
1.09895
1.08776
1.07759
1.06801
1.05857
1.04892
1.03895
1.02888
1.01915
1.01036
1.00306
0.997613
0.994105
0.992145
0.990684
0.988483
0.984652
0.97919
0.973354
0.969722
0.971885
0.983858
1.00937
1.05004
1.10602
1.17723
1.26264
1.36011
1.46755
1.58152
1.69556
1.80048
1.88742
1.94915
1.98122
1.98269
1.95619
1.90725
1.84312
1.77138
1.69868
1.62942
1.56546
1.50741
1.45554
1.40984
1.36979
1.33421
1.30095
1.26687
1.2281
1.18035
1.11934
1.04129
0.943344
0.82005
0.650973
0.445258
0.21915
-0.133184
0
1.09969
3.41094
6.64075
9.92091
12.1248
12.4111
10.6741
7.60675
4.32608
1.80556
0.467818
0.149753
0.377777
0.604925
0.698481
0.780862
0.851747
0.913307
0.96701
1.01484
1.05901
1.10164
1.14448
1.18877
1.23518
1.28389
1.33475
1.38725
1.44062
1.4936
1.54399
1.5888
1.62501
1.65025
1.66373
1.66687
1.66353
1.65948
1.66152
1.67628
1.70814
1.75843
1.8274
1.91536
2.02243
2.14808
2.29118
2.44999
2.62229
2.8055
2.99689
3.19388
3.39492
3.60016
3.81624
4.09214
4.41956
4.72423
4.91295
4.92402
4.7588
4.47691
4.16027
3.86609
3.58614
3.27877
2.96196
2.64577
2.33549
2.03642
1.75418
1.49357
1.25801
1.04926
0.867471
0.711554
0.579673
0.469749
0.379789
0.308016
0.252829
0.212702
0.186053
0.170744
0.163184
0.158711
0.153062
0.143136
0.127542
0.10678
0.0829505
0.0590889
0.0383328
0.0230166
0.013869
0.0107254
0.0132419
0.0209219
0.033259
0.0499124
0.0707388
0.0956799
0.124553
0.156848
0.191576
0.2271
0.261143
0.291108
0.314756
0.330619
0.338308
0.338572
0.33308
0.324001
0.313504
0.303331
0.294547
0.287503
0.282286
0.278868
0.277258
0.277568
0.279964
0.284557
0.291265
0.299786
0.309706
0.320568
0.332003
0.343872
0.356378
0.370117
0.386056
0.405427
0.429556
0.459637
0.496501
0.54044
0.591135
0.647737
0.709109
0.774051
0.841681
0.911668
0.984291
1.06027
1.14046
1.22542
1.31508
1.40845
1.50372
1.59818
1.68808
1.76868
1.83526
1.88424
1.91306
1.92045
1.90648
1.87251
1.82102
1.75533
1.67937
1.59764
1.51448
1.43328
1.35675
1.28696
1.22518
1.1715
1.12435
1.08046
1.03524
0.983471
0.920149
0.841244
0.744409
0.629417
0.498274
0.301529
0
0.14916
1.13646
3.12681
5.83322
8.49127
10.1316
10.0486
8.19514
5.24082
2.23093
0.0554645
-0.939221
-0.975925
-0.556248
-0.208249
0.107926
0.366806
0.549759
0.704199
0.841576
0.962733
1.06949
1.16435
1.24989
1.32819
1.3999
1.46474
1.52165
1.56919
1.60649
1.63404
1.6541
1.67053
1.68823
1.71223
1.74656
1.79313
1.85211
1.92266
2.00346
2.09297
2.18982
2.29321
2.40322
2.52079
2.64757
2.78546
2.93616
3.10069
3.27907
3.47019
3.67197
3.88206
4.09809
4.3168
4.53257
4.73704
4.9207
5.07352
5.18015
5.22276
5.18565
5.05995
4.84744
4.56232
4.22956
3.88019
3.53778
3.20755
2.88897
2.58403
2.29598
2.02789
1.78256
1.56233
1.36879
1.20278
1.06419
0.951341
0.861572
0.791652
0.738192
0.697998
0.66828
0.646697
0.631442
0.620751
0.612942
0.606577
0.600618
0.594604
0.588738
0.583813
0.580965
0.581341
0.585729
0.594659
0.607967
0.625161
0.645693
0.66919
0.695502
0.724577
0.756228
0.789928
0.824718
0.859414
0.892801
0.923871
0.951961
0.976743
0.998088
1.01588
1.02994
1.04004
1.04598
1.04778
1.04579
1.04071
1.03354
1.02543
1.01757
1.01096
1.00648
1.0048
1.00632
1.01111
1.01876
1.02836
1.03819
1.04557
1.04778
1.04302
1.03145
1.01545
1.00105
0.996346
1.00933
1.04557
1.1064
1.18836
1.28398
1.38361
1.47768
1.56107
1.63079
1.68462
1.72178
1.7426
1.74807
1.73962
1.71875
1.68717
1.64679
1.59986
1.54903
1.49717
1.44705
1.4011
1.36109
1.3278
1.30033
1.27555
1.24871
1.21405
1.16558
1.09798
1.00744
0.89227
0.753311
0.593944
0.354599
0
0.163496
1.25105
3.39058
6.21248
8.87914
10.4179
10.208
8.32909
5.5318
2.83454
1.00583
0.257008
0.297404
0.643822
0.752835
0.853096
0.947163
1.03335
1.11097
1.18026
1.24216
1.29807
1.34951
1.39787
1.44418
1.48899
1.53241
1.57425
1.61423
1.6523
1.68884
1.72472
1.76127
1.80006
1.84266
1.89038
1.94412
2.00446
2.07174
2.1465
2.22961
2.32228
2.4259
2.54175
2.67064
2.81262
2.96672
3.13139
3.30474
3.4849
3.67042
3.86046
4.05481
4.25454
4.46302
4.6857
4.92364
5.16081
5.36831
5.5246
5.61389
5.62032
5.52812
5.3308
5.04207
4.69754
4.34277
4.01123
3.7058
3.41952
3.15186
2.90716
2.68911
2.50035
2.34219
2.21431
2.11466
2.03956
1.98407
1.94274
1.9103
1.88222
1.85507
1.82673
1.79638
1.7643
1.7316
1.69988
1.67089
1.64629
1.62742
1.61516
1.60991
1.61164
1.61989
1.63394
1.65289
1.67568
1.70116
1.72809
1.75511
1.78075
1.8035
1.82208
1.83566
1.84414
1.84827
1.84972
1.85089
1.85455
1.86336
1.87922
1.90319
1.93547
1.97396
2.01398
2.04973
2.07573
2.08801
2.08488
2.06715
2.0378
2.0012
1.96204
1.92433
1.89045
1.86136
1.83736
1.81894
1.80669
1.8012
1.80308
1.81268
1.83003
1.85448
1.88381
1.91475
1.94359
1.96684
1.98182
1.98712
1.9828
1.97041
1.95273
1.93346
1.91658
1.90592
1.90467
1.91475
1.93688
1.97161
2.01875
2.07727
2.1451
2.21991
2.29839
2.37537
2.44522
2.50281
2.5443
2.56751
2.57198
2.55858
2.52897
2.48518
2.43018
2.36694
2.29797
2.22564
2.15264
2.08172
2.01542
1.95563
1.90338
1.85841
1.81917
1.78242
1.74234
1.69142
1.62146
1.52473
1.37322
1.12038
0.791296
0.239514
0
0.586349
2.30718
5.05345
8.19168
10.7303
11.7452
10.8488
8.41077
5.37379
2.7663
1.21522
0.745748
0.940407
1.28344
1.29757
1.31027
1.32199
1.33333
1.34531
1.35923
1.37646
1.39808
1.42491
1.45746
1.49601
1.54071
1.59169
1.64914
1.71324
1.78407
1.86153
1.94526
2.03465
2.12896
2.22744
2.32941
2.4344
2.54214
2.65257
2.76584
2.88229
3.0025
3.12726
3.25754
3.3945
3.53931
3.69308
3.85671
4.03067
4.21491
4.40872
4.61069
4.81921
5.03227
5.24644
5.45569
5.64958
5.81605
5.95032
6.04287
6.07697
6.03508
5.90803
5.70054
5.42979
5.11894
4.79048
4.46299
4.14253
3.83016
3.52772
3.23844
2.96559
2.71252
2.48457
2.28687
2.12175
1.98998
1.89034
1.81953
1.7724
1.74277
1.72437
1.71177
1.70097
1.6896
1.67656
1.66155
1.64456
1.62564
1.6049
1.58268
1.55967
1.53691
1.51548
1.4961
1.47893
1.46275
1.44558
1.42536
1.40081
1.37191
1.33993
1.30694
1.27502
1.24555
1.21871
1.19425
1.17175
1.15078
1.13117
1.11312
1.09713
1.08387
1.07389
1.06763
1.06524
1.06657
1.07097
1.07629
1.07893
1.07484
1.06059
1.03425
0.99605
0.948363
0.895052
0.840528
0.788754
0.741885
0.700714
0.665791
0.637296
0.615079
0.598636
0.586836
0.577973
0.570089
0.561227
0.549768
0.53475
0.516088
0.494609
0.471875
0.449793
0.430102
0.413993
0.401759
0.391959
0.381961
0.36876
0.349911
0.324344
0.292797
0.257735
0.222752
0.191646
0.167101
0.150114
0.141144
0.138486
0.139051
0.139826
0.139062
0.137142
0.136815
0.142667
0.159931
0.192935
0.243151
0.308125
0.383163
0.463316
0.54205
0.61283
0.670086
0.709858
0.730036
0.730232
0.711435
0.675617
0.625504
0.564612
0.496586
0.425046
0.353534
0.285341
0.223174
0.169156
0.124555
0.0891169
0.0613056
0.038868
0.0192677
0
-0.0156961
-0.0357782
-0.0627928
-0.0996666
-0.158138
-0.306717
-0.551972
-0.862729
-1.31205
-1.22665
-0.145735
2.08326
5.08692
8.008
9.84701
9.94288
8.31121
5.62629
2.85956
0.806398
-0.217824
-0.376529
-0.0816593
0.0317699
0.086438
0.114003
0.11831
0.110402
0.104763
0.114433
0.145673
0.192995
0.250384
0.31364
0.378467
0.440627
0.496541
0.543599
0.58028
0.60648
0.623415
0.633462
0.63996
0.646906
0.6587
0.679285
0.711504
0.756673
0.814532
0.883631
0.96204
1.04815
1.14093
1.24071
1.34869
1.46647
1.59543
1.73584
1.88718
2.04832
2.21735
2.3919
2.56945
2.74768
2.92456
3.09796
3.26481
3.42071
3.55933
3.66694
3.72317
3.70812
3.61056
3.43286
3.1907
2.90801
2.6096
2.3139
2.02583
1.74664
1.47922
1.22655
0.991647
0.777444
0.58663
0.421276
0.282463
0.170164
0.0835506
0.0204683
-0.0235943
-0.0544756
-0.0778111
-0.0981133
-0.118061
-0.138177
-0.156761
-0.170351
-0.174837
-0.166634
-0.143627
-0.10565
-0.0544624
0.00668392
0.0736927
0.142213
0.208193
0.268313
0.320808
0.365777
0.405307
0.443166
0.484017
0.532271
0.590951
0.660991
0.739789
0.824364
0.912496
1.00198
1.09078
1.17658
1.25662
1.32822
1.38841
1.43433
1.46366
1.47519
1.46894
1.4462
1.4094
1.36232
1.30971
1.25594
1.20493
1.16014
1.12425
1.0996
1.08678
1.08407
1.08839
1.09588
1.10272
1.10574
1.10293
1.09361
1.07845
1.05924
1.03847
1.01869
1.0022
0.990659
0.984914
0.985228
0.99079
0.999763
1.01009
1.02009
1.02889
1.03667
1.04452
1.05404
1.0668
1.0839
1.10553
1.13149
1.16118
1.19384
1.22865
1.26489
1.302
1.33938
1.37662
1.41369
1.45112
1.49014
1.53255
1.58034
1.63518
1.69798
1.768
1.84381
1.92372
2.00576
2.08781
2.1678
2.24368
2.31319
2.37378
2.42302
2.45872
2.47891
2.48224
2.46839
2.43838
2.3945
2.34014
2.27917
2.21544
2.15195
2.09056
2.03241
1.9782
1.92843
1.8835
1.84385
1.80995
1.78211
1.76036
1.74407
1.73196
1.72226
1.7124
1.66389
1.41265
0.958315
0.404712
0
0.315974
1.82338
4.67915
8.45935
12.1929
14.7408
15.3425
14.0019
11.4605
8.77698
6.78912
5.79192
5.57956
5.7377
5.85304
5.90118
5.94047
5.97008
5.99015
6.00184
6.00714
6.00856
6.00872
6.00993
6.01372
6.02058
6.03018
6.0415
6.0529
6.06223
6.06741
6.06689
6.06009
6.04768
6.0314
6.01438
6.0003
5.99252
5.9935
6.00449
6.02567
6.05672
6.09753
6.14885
6.21128
6.28697
6.37831
6.48724
6.61411
6.75802
6.91708
7.08825
7.26801
7.45268
7.63895
7.8236
8.0026
8.17218
8.32787
8.45463
8.52772
8.52283
8.42652
8.2412
7.98266
7.67285
7.33309
6.9856
6.64149
6.30488
5.9803
5.67271
5.38667
5.12596
4.8933
4.69006
4.51621
4.37036
4.24995
4.1517
4.07183
4.00575
3.94894
3.89744
3.84813
3.79899
3.74902
3.69805
3.64643
3.59469
3.54328
3.49256
3.44292
3.39491
3.34943
3.3077
3.27115
3.24114
3.21841
3.20326
3.19519
3.19289
3.19424
3.1966
3.19742
3.19469
3.18727
3.17509
3.15914
3.14117
3.12332
3.10756
3.09515
3.08656
3.08127
3.07762
3.07347
3.06681
3.05637
3.04203
3.02497
3.00738
2.99193
2.98115
2.97641
2.97842
2.98649
2.99785
3.00831
3.01332
3.00883
2.99205
2.96198
2.9196
2.86773
2.81071
2.75376
2.70167
2.65802
2.62532
2.60489
2.59792
2.6026
2.61448
2.62863
2.64082
2.64838
2.65043
2.64749
2.64075
2.63124
2.61962
2.60609
2.59076
2.57427
2.55804
2.54427
2.5355
2.53394
2.54068
2.55569
2.57719
2.60211
2.62679
2.64772
2.6622
2.66877
2.66735
2.65904
2.64577
2.62984
2.61318
2.59697
2.58158
2.56625
2.54953
2.52995
2.50668
2.48009
2.45195
2.42527
2.40377
2.39099
2.38898
2.39963
2.42361
2.46027
2.5077
2.56302
2.62262
2.68222
2.73741
2.78394
2.81848
2.83881
2.84381
2.83344
2.80861
2.77096
2.72262
2.66591
2.60307
2.53629
2.46735
2.39756
2.32792
2.25924
2.19213
2.12696
2.0637
2.00177
1.93998
1.87635
1.80816
1.73197
1.64379
1.5394
1.41466
1.25407
0.991542
0.641365
0.240262
-0.18866
0
1.2274
3.61973
6.79354
9.87571
11.8236
11.9141
10.1253
7.16233
4.09587
1.83034
0.722869
0.552252
0.794361
0.792145
0.761366
0.729911
0.703245
0.686285
0.68231
0.692411
0.715652
0.749796
0.792301
0.840819
0.893728
0.950466
1.01079
1.07414
1.13949
1.20438
1.26527
1.31856
1.36168
1.39392
1.41702
1.43496
1.45341
1.47872
1.51625
1.56889
1.63828
1.72528
1.82967
1.95031
2.0856
2.23391
2.39401
2.56525
2.74741
2.94041
3.14374
3.35609
3.57568
3.79894
4.01911
4.22616
4.40746
4.55068
4.65036
4.70283
4.70478
4.65316
4.54641
4.38587
4.17653
3.92654
3.64624
3.35069
3.05157
2.75554
2.46813
2.19496
1.9413
1.71163
1.50923
1.33613
1.19296
1.07785
0.987377
0.917249
0.862904
0.820113
0.785374
0.756093
0.730558
0.707774
0.687192
0.668588
0.65192
0.637247
0.624714
0.614584
0.607258
0.603263
0.603192
0.607605
0.616895
0.631144
0.650011
0.672695
0.697985
0.724405
0.750422
0.774686
0.796224
0.814575
0.829831
0.842569
0.853703
0.864282
0.875256
0.887264
0.900521
0.914692
0.92873
0.941153
0.950507
0.95581
0.956855
0.954263
0.949232
0.943077
0.936726
0.93038
0.923527
0.915201
0.904389
0.890469
0.87353
0.854479
0.83491
0.816808
0.802096
0.792178
0.787943
0.789839
0.797731
0.810962
0.82847
0.848928
0.870893
0.892929
0.913706
0.932046
0.946972
0.957783
0.96406
0.965692
0.962897
0.956227
0.946529
0.934863
0.922388
0.910222
0.899293
0.890242
0.883395
0.878775
0.876145
0.875093
0.875142
0.875881
0.87706
0.878641
0.88077
0.883695
0.887635
0.892649
0.89852
0.904719
0.910462
0.914864
0.917121
0.916683
0.913379
0.907452
0.899523
0.890478
0.881316
0.872986
0.866224
0.861476
0.858905
0.858508
0.860173
0.863919
0.870259
0.880458
0.896608
0.921457
0.957965
1.00867
1.07504
1.15685
1.25261
1.36002
1.47337
1.58246
1.67638
1.74628
1.78679
1.79671
1.77899
1.73985
1.68736
1.62995
1.57514
1.52761
1.48932
1.46161
1.44606
1.44412
1.45795
1.48838
1.53274
1.58532
1.63867
1.68369
1.71068
1.71062
1.67514
1.59687
1.47031
1.22238
0.871736
0.461822
-0.0257112
0
0.957964
3.05707
6.08907
9.34332
11.8068
12.6022
11.4359
8.77075
5.59322
2.91228
1.30217
0.750233
0.843294
1.09835
1.18942
1.27932
1.36769
1.45388
1.53693
1.61582
1.68993
1.7594
1.82525
1.8892
1.95324
2.01893
2.08691
2.15642
2.22574
2.29251
2.35423
2.40884
2.45508
2.49277
2.52278
2.54696
2.56787
2.58861
2.61252
2.6432
2.68404
2.738
2.80729
2.89323
2.99613
3.11544
3.25009
3.39894
3.56077
3.73494
3.92156
4.12103
4.33359
4.55895
4.79896
5.05753
5.32595
5.57945
5.79256
5.94652
6.03308
6.05299
6.01009
5.90509
5.73371
5.49222
5.19778
4.8695
4.52371
4.1754
3.83595
3.512
3.21029
2.93595
2.69236
2.48133
2.30323
2.15729
2.04261
1.95916
1.9052
1.87413
1.85892
1.85313
1.8518
1.852
1.85275
1.85439
1.85754
1.86226
1.86757
1.87184
1.87329
1.87083
1.86464
1.85635
1.84871
1.84477
1.84696
1.85581
1.87069
1.89017
1.91207
1.93395
1.95362
1.96948
1.98068
1.98707
1.9891
1.98762
1.98366
1.97819
1.97205
1.96582
1.95984
1.95417
1.94863
1.94282
1.93621
1.92819
1.91818
1.90568
1.89037
1.87213
1.85112
1.82784
1.80305
1.77782
1.75336
1.73096
1.71171
1.69641
1.68537
1.67838
1.67472
1.67336
1.67315
1.67314
1.67285
1.67241
1.67253
1.67433
1.67896
1.68756
1.70055
1.7163
1.73156
1.74255
1.74602
1.74025
1.72547
1.70366
1.67796
1.65183
1.62816
1.60867
1.59459
1.58709
1.58684
1.59424
1.60973
1.63198
1.65746
1.68188
1.70123
1.71268
1.71522
1.70974
1.69846
1.68419
1.66944
1.65566
1.6433
1.63228
1.62217
1.61235
1.60227
1.59162
1.58051
1.56961
1.56022
1.5544
1.55528
1.56678
1.59247
1.63533
1.69695
1.77692
1.87239
1.97845
2.08826
2.19371
2.28679
2.36066
2.41059
2.43399
2.43034
2.4009
2.34849
2.27725
2.19227
2.09923
2.00386
1.91067
1.82231
1.74016
1.66452
1.59426
1.52691
1.4588
1.3855
1.30222
1.20443
1.08838
0.951632
0.793383
0.61245
0.41178
0
-0.383643
-0.127197
1.19974
3.72324
7.04355
10.2468
12.2329
12.2331
10.2215
6.94998
3.56671
1.05036
-0.193657
-0.365883
0.0105274
0.230919
0.359279
0.470869
0.565281
0.645799
0.715054
0.776397
0.83328
0.888652
0.944498
1.00161
1.05963
1.11741
1.17346
1.22642
1.27554
1.32084
1.36312
1.40378
1.44454
1.48711
1.53295
1.58316
1.63852
1.69954
1.7666
1.84016
1.92087
2.00972
2.10801
2.21732
2.33934
2.47561
2.62731
2.795
2.97841
3.17638
3.38677
3.60656
3.83201
4.05885
4.28226
4.49643
4.69619
4.87735
5.03502
5.16127
5.24583
5.28417
5.26738
5.18323
5.0206
4.77561
4.45667
4.0855
3.69322
3.31206
2.95436
2.62159
2.31951
2.05124
1.81761
1.61813
1.45073
1.31268
1.20097
1.11255
1.0445
0.994376
0.959494
0.937365
0.925656
0.922136
0.924615
0.930946
0.939073
0.947158
0.953745
0.957909
0.959358
0.958441
0.956071
0.953532
0.952228
0.953399
0.957863
0.965817
0.976951
0.990405
1.00487
1.01901
1.03169
1.04225
1.05044
1.05635
1.0602
1.06209
1.06191
1.0593
1.05375
1.0448
1.0322
1.01608
0.996956
0.975747
0.95363
0.931816
0.911393
0.893174
0.877559
0.864449
0.853341
0.84337
0.83345
0.822421
0.809338
0.793702
0.775637
0.755902
0.735983
0.717795
0.703296
0.694139
0.69144
0.695712
0.706987
0.725011
0.749432
0.779586
0.814823
0.854422
0.897352
0.941977
0.986023
1.02667
1.06085
1.08603
1.10045
1.10349
1.09581
1.07935
1.05712
1.0328
1.01028
0.993039
0.983294
0.981879
0.988645
1.00275
1.02264
1.04612
1.07046
1.09293
1.11129
1.12414
1.13112
1.13297
1.13136
1.12857
1.12705
1.12895
1.13564
1.14763
1.16486
1.18667
1.21204
1.24007
1.27033
1.303
1.33892
1.37935
1.42566
1.47898
1.53961
1.60739
1.68204
1.76171
1.8402
1.90855
1.95766
1.98024
1.97258
1.93515
1.8721
1.78978
1.69507
1.59475
1.49404
1.39597
1.30278
1.21637
1.13823
1.06906
1.00866
0.955637
0.906186
0.853822
0.791212
0.711552
0.609918
0.484187
0.335297
0
-0.385883
-0.183889
1.06994
3.55587
6.90151
10.1624
12.1666
12.0858
9.89566
6.41277
2.8628
0.257856
-1.02295
-1.22897
-0.902784
-0.651364
-0.428493
-0.252868
-0.130877
-0.0320293
0.0534111
0.12542
0.185119
0.234045
0.27436
0.308916
0.341052
0.374122
0.410894
0.453002
0.500529
0.552063
0.605815
0.659929
0.712734
0.763061
0.810496
0.855524
0.8995
0.944545
0.993372
1.04905
1.11474
1.19338
1.28747
1.39869
1.52797
1.67559
1.84102
2.02297
2.21951
2.42814
2.64598
2.86993
3.09695
3.3242
3.54848
3.76497
3.96627
4.14319
4.28799
4.39051
4.43994
4.42788
4.3505
4.20893
4.00798
3.75449
3.45695
3.13356
2.80084
2.46859
2.14268
1.82882
1.53252
1.25862
1.01098
0.79243
0.604656
0.447597
0.319962
0.219478
0.1432
0.0878462
0.0500998
0.0268457
0.0152973
0.0130081
0.0178408
0.0278721
0.0413525
0.0566978
0.0725706
0.0880373
0.102708
0.116789
0.130995
0.146334
0.163767
0.183866
0.206631
0.231243
0.256023
0.27897
0.29829
0.312908
0.32279
0.328992
0.333417
0.338368
0.34592
0.357331
0.373046
0.392991
0.415798
0.439369
0.461606
0.480955
0.496732
0.509125
0.518891
0.526876
0.533568
0.538919
0.54227
0.54265
0.539137
0.531232
0.51917
0.504079
0.487944
0.473313
0.462847
0.458845
0.462733
0.475179
0.495731
0.521726
0.550056
0.578229
0.605256
0.63201
0.660915
0.695041
0.736931
0.787264
0.844398
0.905961
0.967135
1.0223
1.06662
1.0971
1.11325
1.11696
1.11187
1.10233
1.09234
1.08469
1.08046
1.07971
1.08212
1.08715
1.09418
1.10272
1.1124
1.12299
1.13441
1.14662
1.15973
1.17405
1.19013
1.2089
1.23168
1.26015
1.2961
1.34128
1.39699
1.4638
1.54137
1.62842
1.72319
1.82279
1.92226
2.01423
2.09115
2.14628
2.1743
2.17189
2.13825
2.0753
1.98766
1.88206
1.7666
1.6497
1.53725
1.43231
1.33608
1.24883
1.16987
1.09719
1.02775
0.957552
0.882165
0.797371
0.699747
0.587169
0.459147
0.219761
-0.156021
0
1.15327
3.53158
6.84497
10.2271
12.5134
12.7799
10.8468
7.41039
3.69109
0.810039
-0.712059
-1.04456
-0.74473
-0.454181
-0.187167
0.0371298
0.204265
0.340667
0.458571
0.558187
0.641135
0.710357
0.769721
0.823379
0.875056
0.927482
0.982012
1.03896
1.09801
1.15859
1.22034
1.28336
1.34823
1.41577
1.48656
1.56068
1.63761
1.71606
1.79446
1.87183
1.94845
2.02619
2.1084
2.1994
2.30363
2.42486
2.56453
2.72273
2.89912
3.09249
3.30094
3.52203
3.75285
3.9912
4.23374
4.47029
4.68373
4.85729
4.97746
5.03688
5.0349
4.9756
4.86422
4.70441
4.49805
4.25412
3.98561
3.70279
3.41336
3.12356
2.8385
2.56289
2.30096
2.05632
1.83189
1.63024
1.45318
1.3016
1.17555
1.07432
0.996453
0.939834
0.901869
0.879647
0.870089
0.870099
0.876991
0.888084
0.901108
0.914589
0.928007
0.941811
0.957236
0.97592
0.999415
1.0287
1.06368
1.10322
1.14557
1.18856
1.22989
1.2675
1.29988
1.32628
1.34678
1.36221
1.37398
1.38388
1.39372
1.40507
1.41901
1.436
1.45549
1.47565
1.49376
1.50686
1.51238
1.50871
1.49561
1.47436
1.44755
1.4187
1.39159
1.36946
1.35444
1.34727
1.34751
1.35425
1.366
1.38099
1.39753
1.4143
1.43039
1.44532
1.45899
1.4715
1.48309
1.49406
1.50473
1.51543
1.5265
1.53828
1.55103
1.56483
1.57948
1.59437
1.60839
1.61985
1.62672
1.6271
1.61962
1.604
1.58136
1.55441
1.52724
1.50483
1.49223
1.49335
1.51067
1.54504
1.59546
1.65927
1.73269
1.81139
1.89102
1.96761
2.03682
2.09389
2.13515
2.15793
2.16062
2.14324
2.10784
2.05855
2.00088
1.9406
1.88237
1.82821
1.77762
1.7292
1.68049
1.62852
1.5703
1.50307
1.42446
1.33249
1.22566
1.10393
0.968118
0.819505
0.66075
0.48783
0.0622084
0
0.721948
2.50119
5.20728
8.18594
10.4288
11.016
9.60468
6.6526
3.20862
0.384319
-1.16281
-1.43271
-0.906552
-0.276383
0.216074
0.507449
0.638188
0.748232
0.851481
0.948077
1.03749
1.11894
1.19164
1.25522
1.3099
1.35662
1.39683
1.43228
1.4647
1.49565
1.52636
1.5578
1.59081
1.62622
1.66491
1.70787
1.75617
1.81091
1.87313
1.94377
2.02356
2.11294
2.212
2.32049
2.43777
2.56295
2.69502
2.83301
2.97618
3.12416
3.277
3.43511
3.59919
3.77037
3.95353
4.16439
4.43183
4.74876
5.05179
5.28428
5.41697
5.44697
5.38168
5.22133
4.95554
4.57656
4.09949
3.59246
3.12095
2.69335
2.29636
1.92665
1.58967
1.2894
1.02801
0.80591
0.622706
0.476139
0.360071
0.267036
0.189533
0.121014
0.0566376
-0.00638157
-0.0688687
-0.13016
-0.188769
-0.243266
-0.292578
-0.335796
-0.372274
-0.401427
-0.422293
-0.433657
-0.43428
-0.423079
-0.399605
-0.36451
-0.319218
-0.266661
-0.212407
-0.162501
-0.122126
-0.0945409
-0.0805006
-0.0783169
-0.0845035
-0.0947692
-0.10506
-0.112597
-0.116234
-0.115892
-0.112161
-0.106107
-0.0991216
-0.0927324
-0.0883505
-0.0871094
-0.0897623
-0.0966176
-0.107515
-0.121838
-0.138568
-0.156386
-0.173845
-0.189619
-0.202686
-0.212377
-0.218631
-0.222537
-0.226145
-0.231751
-0.241248
-0.25555
-0.274279
-0.295782
-0.317446
-0.336141
-0.348927
-0.353702
-0.348709
-0.332187
-0.302722
-0.259496
-0.202479
-0.1326
-0.0512028
0.0393184
0.134601
0.229029
0.31632
0.389553
0.442111
0.469805
0.469896
0.441333
0.385219
0.305274
0.207903
0.101531
-0.00482354
-0.103637
-0.192022
-0.270749
-0.341073
-0.405381
-0.467358
-0.531531
-0.602722
173
384
598
802
986
1160
1340
1521
1694
1880
2085
2294
2517
2745
2965
3183
3392
3586
3465
3658
2076
2185
2381
2587
2647
2743
2803
2915
3016
3080
3173
3204
3237
3301
3400
3604
3659
3723
3614
3699
3176
3208
3259
3311
3379
3434
3601
0
0
0
0
0
0
0
0
0
0
0
0
0
0
0
0
0
0
0
0
0
0
0
0
0
0
0
0
0
0
0
0
0
0
0
0
0
0
0
0
0
0
0
0
0
0
0
0
0
0
0
0
0
0
0
0
0
0
0
0
0
0
0
0
0
0
0
0
0
0
0
0
0
0
0
0
0
0
0
0
0
0
0
0
0
0
0
0
0
0
0
0
0
0
0
0
0
0
0
0
0
0
0
0
0
0
0
0
0
0
0
0
0
0
0
0
0
0
0
0
0
0
0
0
0
0
0
0
0
0
0
0
0
0
0
0
0
0
0
0
0
0
0
0
0
0
0
0
0
0
0
0
0
0
0
0
0
0
0
0
0
0
0
0
0
0
0
0
0
0
0
0
0
0
0
0
0
0
0
0
0
0
0
0
0
0
0
0
0
0
0
0
0
0
0
0
0
0
0
0
0
0
0
0
0
0
0
0
0
0
0
0
0
0
0
0
0
0
0
0
0
0
0
0
0
0
0
0
0
0
0
0
0
0
0
0
0
0
0
0
0
0
0
0
0
0
0
0
0
0
0
0
0
0
0
0
0
0
0
0
0
0
0
0
0
0
0
0
0
0
0
0
0
0
0
0
0
0
0
0
0
0
0
0
0
0
0
0
0
0
0
0
0
0
0
0
0
0
0
0
0
0
0
0
0
0
0
0
0
0
0
0
0
0
0
0
0
0
0
0
0
0
0
0
0
0
0
0
0
0
0
0
0
0
0
0
0
0
0
0
0
0
0
0
0
0
0
0
0
0
0
0
0
0
0
0
0
0
0
0
0
0
0
0
0
0
0
0
0
0
0
0
0
0
0
0
0
0
0
0
0
0
0
0
0
0
0
0
0
0
0
0
0
0
0
0
0
0
0
0
0
0
0
0
0
0
0
0
0
0
0
0
0
0
0
0
0
0
0
0
0
0
0
0
0
0
0
0
0
0
0
0
0
0
0
0
0
0
0
0
0
0
0
0
0
0
0
0
0
0
0
0
0
0
0
0
0
0
0
0
0
0
0
0
0
0
0
0
0
0
0
0
0
0
0
0
0
0
0
0
0
0
0
0
0
0
0
0
0
0
0
0
0
0
0
0
0
0
0
0
0
0
0
0
0
0
0
0
0
0
0
0
0
0
0
0
0
0
0
0
0
0
0
0
0
0
0
0
0
0
0
0
0
0
0
0
0
0
0
0
0
0
0
0
0
0
0
0
0
0
0
0
0
0
0
0
0
0
0
0
0
0
0
0
0
0
0
0
0
0
0
0
0
0
0
0
0
0
0
0
0
0
0
0
0
0
0
0
0
0
0
0
0
0
0
0
0
0
0
0
0
0
0
0
0
0
0
0
0
0
0
0
0
0
0
0
0
0
0
0
0
0
0
0
0
0
0
0
0
0
0
0
0
0
0
0
0
0
0
0
0
0
0
0
0
0
0
0
0
0
0
0
0
0
0
0
0
0
0
0
0
0
0
0
0
0
0
0
0
0
0
0
0
0
0
0
0
0
0
0
0
0
0
0
0
0
0
0
0
0
0
0
0
0
0
0
0
0
0
0
0
0
0
0
0
0
0
0
0
0
0
0
0
0
0
0
0
0
0
0
0
0
0
0
0
0
0
0
0
0
0
0
0
0
0
0
0
0
0
0
0
0
0
0
0
0
0
0
0
0
0
0
0
0
0
0
0
0
0
0
0
0
0
0
0
0
0
0
0
0
0
0
0
0
0
0
0
0
0
0
0
0
0
0
0
0
0
0
0
0
0
0
0
0
0
0
0
0
0
0
0
0
0
0
0
0
0
0
0
0
0
0
0
0
0
0
0
0
0
0
0
0
0
0
0
0
0
0
0
0
0
0
0
0
0
0
0
0
0
0
0
0
0
0
0
0
0
0
0
0
0
0
0
0
0
0
0
0
0
0
0
0
0
0
0
0
0
0
0
0
0
0
0
0
0
0
0
0
0
0
0
0
0
0
0
0
0
0
0
0
0
0
0
0
0
0
0
0
0
0
0
0
0
0
0
0
0
0
0
0
0
0
0
0
0
0
0
0
0
0
0
0
0
0
0
0
0
0
0
0
0
0
0
0
0
0
0
0
0
0
0
0
0
0
0
0
0
0
0
0
0
0
0
0
0
0
0
0
0
0
0
0
0
0
0
0
0
0
0
0
0
0
0
0
0
0
0
0
0
0
0
0
0
0
0
0
0
0
0
0
0
0
0
0
0
0
0
0
0
0
0
0
0
0
0
0
0
0
0
0
0
0
0
0
0
0
0
0
0
0
0
0
0
0
0
0
0
0
0
0
0
0
0
0
0
0
0
0
0
0
0
0
0
0
0
0
0
0
0
0
0
0
0
0
0
0
0
0
0
0
0
0
0
0
0
0
0
0
0
0
0
0
0
0
0
0
0
0
0
0
0
0
0
0
0
0
0
0
0
0
0
0
0
0
0
0
0
0
0
0
0
0
0
0
0
0
0
0
0
0
0
0
0
0
0
0
0
0
0
0
0
0
0
0
0
0
0
0
0
0
0
0
0
0
0
0
0
0
0
0
0
0
0
0
0
0
0
0
0
0
0
0
0
0
0
0
0
0
0
0
0
0
0
0
0
0
0
0
0
0
0
0
0
0
0
0
0
0
0
0
0
0
0
0
0
0
0
0
0
0
0
0
0
0
0
0
0
0
0
0
0
0
0
0
0
0
0
0
0
0
0
0
0
0
0
0
0
0
0
0
0
0
0
0
0
0
0
0
0
0
0
0
0
0
0
0
0
0
0
0
0
0
0
0
0
0
0
0
0
0
0
0
0
0
0
0
0
0
0
0
0
0
0
0
0
0
0
0
0
0
0
0
0
0
0
0
0
0
0
0
0
0
0
0
0
0
0
0
0
0
0
0
0
0
0
0
0
0
0
0
0
0
0
0
0
0
0
0
0
0
0
0
0
0
0
0
0
0
0
0
0
0
0
0
0
0
0
0
0
0
0
0
0
0
0
0
0
0
0
0
0
0
0
0
0
0
0
0
0
0
0
0
0
0
0
0
0
0
0
0
0
0
0
0
0
0
0
0
0
0
0
0
0
0
0
0
0
0
0
0
0
0
0
0
0
0
0
0
0
0
0
0
0
0
0
0
0
0
0
0
0
0
0
0
0
0
0
0
0
0
0
0
0
0
0
0
0
0
0
0
0
0
0
0
0
0
0
0
0
0
0
0
0
0
0
0
0
0
0
0
0
0
0
0
0
0
0
0
0
0
0
0
0
0
0
0
0
0
0
0
0
0
0
0
0
0
0
0
0
0
0
0
0
0
0
0
0
0
0
0
0
0
0
0
0
0
0
0
0
0
0
0
0
0
0
0
0
0
0
0
0
0
0
0
0
0
0
0
0
0
0
0
0
0
0
0
0
0
0
0
0
0
0
0
0
0
0
0
0
0
0
0
0
0
0
0
0
0
0
0
0
0
0
0
0
0
0
0
0
0
0
0
0
0
0
0
0
0
0
0
0
0
0
0
0
0
0
0
0
0
0
0
0
0
0
0
0
0
0
0
0
0
0
0
0
0
0
0
0
0
0
0
0
0
0
0
0
0
0
0
0
0
0
0
0
0
0
0
0
0
0
0
0
0
0
0
0
0
0
0
0
0
0
0
0
0
0
0
0
0
0
0
0
0
0
0
0
0
0
0
0
0
0
0
0
0
0
0
0
0
0
0
0
0
0
0
0
0
0
0
0
0
0
0
0
0
0
0
0
0
0
0
0
0
0
0
0
0
0
0
0
0
0
0
0
0
0
0
0
0
0
0
0
0
0
0
0
0
0
0
0
0
0
0
0
0
0
0
0
0
0
0
0
0
0
0
0
0
0
0
0
0
0
0
0
0
0
0
0
0
0
0
0
0
0
0
0
0
0
0
0
0
0
0
0
0
0
0
0
0
0
0
0
0
0
0
0
0
0
0
0
0
0
0
0
0
0
0
0
0
0
0
0
0
0
0
0
0
0
0
0
0
0
0
0
0
0
0
0
0
0
0
0
0
0
0
0
0
0
0
0
0
0
0
0
0
0
0
0
0
0
0
0
0
0
0
0
0
0
0
0
0
0
0
0
0
0
0
0
0
0
0
0
0
0
0
0
0
0
0
0
0
0
0
0
0
0
0
0
0
0
0
0
0
0
0
0
0
0
0
0
0
0
0
0
0
0
0
0
0
0
0
0
0
0
0
0
0
0
0
0
0
0
0
0
0
0
0
0
0
0
0
0
0
0
0
0
0
0
0
0
0
0
0
0
0
0
0
0
0
0
0
0
0
0
0
0
0
0
0
0
0
0
0
0
0
0
0
0
0
0
0
0
0
0
0
0
0
0
0
0
0
0
0
0
0
0
0
0
0
0
0
0
0
0
0
0
0
0
0
0
0
0
0
0
0
0
0
0
0
0
0
0
0
0
0
0
0
0
0
0
0
0
0
0
0
0
0
0
0
0
0
0
0
0
0
0
0
0
0
0
0
0
0
0
0
0
0
0
0
0
0
0
0
0
0
0
0
0
0
0
0
0
0
0
0
0
0
0
0
0
0
0
0
0
0
0
0
0
0
0
0
0
0
0
0
0
0
0
0
0
0
0
0
0
0
0
0
0
0
0
0
0
0
0
0
0
0
0
0
0
0
0
0
0
0
0
0
0
0
0
0
0
0
0
0
0
0
0
0
0
0
0
0
0
0
0
0
0
0
0
0
0
0
0
0
0
0
0
0
0
0
0
0
0
0
0
0
0
0
0
0
0
0
0
0
0
0
0
0
0
0
0
0
0
0
0
0
0
0
0
0
0
0
0
0
0
0
0
0
0
0
0
0
0
0
0
0
0
0
0
0
0
0
0
0
0
0
0
0
0
0
0
0
0
0
0
0
0
0
0
0
0
0
0
0
0
0
0
0
0
0
0
0
0
0
0
0
0
0
0
0
0
0
0
0
0
0
0
0
0
0
0
0
0
0
0
0
0
0
0
0
0
0
0
0
0
0
0
0
0
0
0
0
0
0
0
0
0
0
0
0
0
0
0
0
0
0
0
0
0
0
0
0
0
0
0
0
0
0
0
0
0
0
0
0
0
0
0
0
0
0
0
0
0
0
0
0
0
0
0
0
0
0
0
0
0
0
0
0
0
0
0
0
0
0
0
0
0
0
0
0
0
0
0
0
0
0
0
0
0
0
0
0
0
0
0
0
0
0
0
0
0
0
0
0
0
0
0
0
0
0
0
0
0
0
0
0
0
0
0
0
0
0
0
0
0
0
0
0
0
0
0
0
0
0
0
0
0
0
0
0
0
0
0
0
0
0
0
0
0
0
0
0
0
0
0
0
0
0
0
0
0
0
0
0
0
0
0
0
0
0
0
0
0
0
0
0
0
0
0
0
0
0
0
0
0
0
0
0
0
0
0
0
0
0
0
0
0
0
0
0
0
0
0
0
0
0
0
0
0
0
0
0
0
0
0
0
0
0
0
0
0
0
0
0
0
0
0
0
0
0
0
0
0
0
0
0
0
0
0
0
0
0
0
0
0
0
0
0
0
0
0
0
0
0
0
0
0
0
0
0
0
0
0
0
0
0
0
0
0
0
0
0
0
0
0
0
0
0
0
0
0
0
0
0
0
0
0
0
0
0
0
0
0
0
0
0
0
0
0
0
0
0
0
0
0
0
0
0
0
0
0
0
0
0
0
0
0
0
0
0
0
0
0
0
0
0
0
0
0
0
0
0
0
0
0
0
0
0
0
0
0
0
0
0
0
0
0
0
0
0
0
0
0
0
0
0
0
0
0
0
0
0
0
0
0
0
0
0
0
0
0
0
0
0
0
0
0
0
0
0
0
0
0
0
0
0
0
0
0
0
0
0
0
0
0
0
0
0
0
0
0
0
0
0
0
0
0
0
0
0
0
0
0
0
0
0
0
0
0
0
0
0
0
0
0
0
0
0
0
0
0
0
0
0
0
0
0
0
0
0
0
0
0
0
0
0
0
0
0
0
0
0
0
0
0
0
0
0
0
0
0
0
0
0
0
0
0
0
0
0
0
0
0
0
0
0
0
0
0
0
0
0
0
0
0
0
0
0
0
0
0
0
0
0
0
0
0
0
0
0
0
0
0
0
0
0
0
0
0
0
0
0
0
0
0
0
0
0
0
0
0
0
0
0
0
0
0
0
0
0
0
0
0
0
0
0
0
0
0
0
0
0
0
0
0
0
0
0
0
0
0
0
0
0
0
0
0
0
0
0
0
0
0
0
0
0
0
0
0
0
0
0
0
0
0
0
0
0
0
0
0
0
0
0
0
0
0
0
0
0
0
0
0
0
0
0
0
0
0
0
0
0
0
0
0
0
0
0
0
0
0
0
0
0
0
0
0
0
0
0
0
0
0
0
0
0
0
0
0
0
0
0
0
0
0
0
0
0
0
0
0
0
0
0
0
0
0
0
0
0
0
0
0
0
0
0
0
0
0
0
0
0
0
0
0
0
0
0
0
0
0
0
0
0
0
0
0
0
0
0
0
0
0
0
0
0
0
0
0
0
0
0
0
0
0
0
0
0
0
0
0
0
0
0
0
0
0
0
0
0
0
0
0
0
0
0
0
0
0
0
0
0
0
0
0
0
0
0
0
0
0
0
0
0
0
0
0
0
0
0
0
0
0
0
0
0
0
0
0
0
0
0
0
0
0
0
0
0
0
0
0
0
0
0
0
0
0
0
0
0
0
0
0
0
0
0
0
0
0
0
0
0
0
0
0
0
0
0
0
0
0
0
0
0
0
0
0
0
0
0
0
0
0
0
0
0
0
0
0
0
0
0
0
0
0
0
0
0
0
0
0
0
0
0
0
0
0
0
0
0
0
0
0
0
0
0
0
0
0
0
0
0
0
0
0
0
0
0
0
0
0
0
0
0
0
0
0
0
0
0
0
0
0
0
0
0
0
0
0
0
0
0
0
0
0
0
0
0
0
0
0
0
0
0
0
0
0
0
0
0
0
0
0
0
0
0
0
0
0
0
0
0
0
0
0
0
0
0
0
0
0
0
0
0
0
0
0
0
0
0
0
0
0
0
0
0
0
0
0
0
0
0
0
0
0
0
0
0
0
0
0
0
0
0
0
0
0
0
0
0
0
0
0
0
0
0
0
0
0
0
0
0
0
0
0
0
0
0
0
0
0
0
0
0
0
0
0
0
0
0
0
0
0
0
0
0
0
0
0
0
0
0
0
0
0
0
0
0
0
0
0
0
0
0
0
0
0
0
0
0
0
0
0
0
0
0
0
0
0
0
0
0
0
0
0
0
0
0
0
0
0
0
0
0
0
0
0
0
0
0
0
0
0
0
0
0
0
0
0
0
0
0
0
0
0
0
0
0
0
0
0
0
0
0
0
0
0
0
0
0
0
0
0
0
0
0
0
0
0
0
0
0
0
0
0
0
0
0
0
0
0
0
0
0
0
0
0
0
0
0
0
0
0
0
0
0
0
0
0
0
0
0
0
0
0
0
0
0
0
0
0
0
0
0
0
0
0
0
0
0
0
0
0
0
0
0
0
0
0
0
0
0
0
0
0
0
0
0
0
0
0
0
0
0
0
0
0
0
0
0
0
0
0
0
0
0
0
0
0
0
0
0
0
0
0
0
0
0
0
0
0
0
0
0
0
0
0
0
0
0
0
0
0
0
0
0
0
0
0
0
0
0
0
0
0
0
0
0
0
0
0
0
0
0
0
0
0
0
0
0
0
0
0
0
0
0
0
0
0
0
0
0
0
0
0
0
0
0
0
0
0
0
0
0
0
0
0
0
0
0
0
0
0
0
0
0
0
0
0
0
0
0
0
0
0
0
0
0
0
0
0
0
0
0
0
0
0
0
0
0
0
0
0
0
0
0
0
0
0
0
0
0
0
0
0
0
0
0
0
0
0
0
0
0
0
0
0
0
0
0
0
0
0
0
0
0
0
0
0
0
0
0
0
0
0
0
0
0
0
0
0
0
0
0
0
0
0
0
0
0
0
0
0
0
0
0
0
0
0
0
0
0
0
0
0
0
0
0
0
0
0
0
0
0
0
0
0
0
0
0
0
0
0
0
0
0
0
0
0
0
0
0
0
0
0
0
0
0
0
0
0
0
0
0
0
0
0
0
0
0
0
0
0
0
0
0
0
0
0
0
0
0
0
0
0
0
0
0
0
0
0
0
0
0
0
0
0
0
0
0
0
0
0
0
0
0
0
0
0
0
0
0
0
0
0
0
0
0
0
0
0
0
0
0
0
0
0
0
0
0
0
0
0
0
0
0
0
0
0
0
0
0
0
0
0
0
0
0
0
0
0
0
0
0
