6.78968
6.60216
6.36146
6.07265
5.74371
5.38419
5.00499
4.6155
4.22152
3.82769
3.43814
3.05708
2.68939
2.34076
2.0174
1.72543
1.46982
1.25388
1.08077
0.950836
0.857947
0.794024
0.750501
0.719656
0.695483
0.673964
0.652824
0.631003
0.608149
0.584342
0.559839
0.535171
0.511256
0.489422
0.471328
0.458748
0.453057
0.455212
0.46582
0.484948
0.510442
0.536931
0.558397
0.569915
0.569316
0.55809
0.541076
0.524915
0.515796
0.517338
0.527938
0.544166
0.561765
0.575706
0.581017
0.573363
0.54934
0.506623
0.444131
0.363053
0.26623
0.15767
0.0427916
-0.069513
-0.169411
-0.248298
-0.300614
-0.325013
-0.324499
-0.305456
-0.27589
-0.243436
-0.213578
-0.189189
-0.170845
-0.157669
-0.148517
-0.143063
-0.142659
-0.149989
-0.168407
-0.20064
-0.247487
-0.306992
-0.374401
-0.442984
-0.505463
-0.555633
-0.590121
-0.607751
-0.609807
-0.599342
-0.580293
-0.556916
-0.532934
-0.511508
-0.495727
-0.488457
-0.492313
-0.50937
-0.540714
-0.585961
-0.642899
-0.70739
-0.773607
-0.834633
-0.883653
-0.913044
-0.908408
-0.850087
-0.741149
-0.61516
-0.512258
-0.465519
-0.490329
-0.580662
-0.712882
-0.854266
-0.971817
-1.04592
-1.07956
-1.07978
-1.04967
-0.990825
-0.902483
-0.791119
-0.672469
-0.562728
-0.474708
-0.414988
-0.383135
-0.373161
-0.376509
-0.385281
-0.394454
-0.402662
-0.410129
-0.417714
-0.426153
-0.435299
-0.443614
-0.448004
-0.443976
-0.418746
-0.32911
-0.128079
0.133352
0.355675
0.436228
0.321844
0.0377242
-0.322509
-0.637903
-0.81147
-0.865832
-0.873762
-0.853981
-0.815168
-0.766271
-0.71537
-0.668329
-0.628272
-0.596865
-0.574288
-0.560275
-0.567761
-0.469026
0
0.997525
2.54929
4.49137
6.40542
7.68146
7.72335
6.22983
3.39773
-0.0926965
-3.33156
-5.54588
-6.38182
-5.96544
-4.74681
-3.25057
-1.87709
-0.824747
-0.116298
0.323617
0.533392
0.717221
0.895149
1.06866
1.23838
1.4048
1.56786
1.72647
1.87799
2.01914
2.14634
2.25666
2.34868
2.42314
2.48316
2.53392
2.58207
2.63491
2.6987
2.77846
2.87804
2.99942
3.14252
3.30533
3.48418
3.67473
3.87258
4.07378
4.27519
4.47458
4.67049
4.86197
5.0483
5.22875
5.40249
5.56865
5.72639
5.87486
6.01338
6.14126
6.25738
6.35928
6.4416
6.49528
6.51115
6.478
6.38446
6.22149
5.98498
5.67752
5.30887
4.89492
4.45573
4.01275
3.57996
3.16893
2.78875
2.44556
2.14255
1.88006
1.65601
1.46634
1.30582
1.16868
1.04859
0.940052
0.839021
0.743345
0.652813
0.568758
0.493445
0.42988
0.379802
0.342336
0.314731
0.293081
0.273388
0.252572
0.229118
0.203228
0.176543
0.151542
0.130675
0.115904
0.108577
0.10928
0.117838
0.133323
0.15376
0.175974
0.196488
0.212471
0.222487
0.226942
0.228065
0.229383
0.234819
0.247717
0.269656
0.300315
0.338683
0.383228
0.432081
0.483348
0.535362
0.586602
0.635468
0.680063
0.71831
0.747948
0.766759
0.772858
0.764959
0.742561
0.706033
0.656669
0.596714
0.52964
0.459402
0.390459
0.327598
0.275257
0.236938
0.214731
0.209083
0.218805
0.241278
0.272741
0.309255
0.344788
0.372584
0.38654
0.38219
0.357578
0.313659
0.254018
0.184002
0.109559
0.036109
-0.0329689
-0.0954079
-0.149415
-0.193904
-0.228467
-0.253423
-0.269824
-0.279428
-0.284613
-0.288305
-0.293787
-0.304174
-0.321939
-0.348498
-0.383947
-0.42703
-0.475368
-0.525912
-0.575523
-0.621635
-0.662732
-0.698265
-0.728758
-0.755665
-0.781069
-0.807292
-0.836449
-0.869993
-0.908395
-0.95119
-0.996152
-1.0392
-1.07563
-1.10117
-1.11282
-1.10938
-1.09148
-1.06115
-1.02115
-0.974487
-0.924187
-0.87255
-0.82168
-0.773964
-0.73261
-0.702198
-0.687288
-0.69152
-0.716705
-0.761609
-0.821379
-0.887632
-0.947859
-0.98932
-1.00215
-0.981911
-0.930759
-0.856899
-0.772543
-0.69105
-0.623994
-0.579016
-0.558671
-0.560423
-0.57765
-0.601337
-0.622047
-0.63215
-0.628071
-0.609542
-0.576965
-0.523108
-0.366657
0
0.605706
1.57349
2.94889
4.58084
6.06105
6.80817
6.3122
4.42268
1.5003
-1.69284
-4.32374
-5.84404
-6.16144
-5.55541
-4.44378
-3.18134
-1.99359
-1.01273
-0.317809
0.0662313
0.234054
0.399847
0.565468
0.731144
0.897037
1.06322
1.22959
1.39563
1.56028
1.72182
1.87762
2.02477
2.16076
2.28415
2.39512
2.49565
2.5893
2.68052
2.77381
2.87288
2.98
3.09625
3.22229
3.35867
3.50623
3.6663
3.84059
4.03089
4.23846
4.4635
4.70464
4.95877
5.22109
5.48547
5.7444
5.98851
6.2076
6.39294
6.53839
6.63975
6.69432
6.70051
6.65757
6.5654
6.4246
6.23652
6.00319
5.72788
5.41528
5.0719
4.70477
4.31933
3.92033
3.51329
3.10443
2.70032
2.30747
1.93187
1.57855
1.25133
0.952717
0.683988
0.445315
0.235975
0.0545565
-0.101089
-0.233574
-0.345793
-0.440745
-0.521378
-0.590463
-0.650259
-0.702768
-0.749752
-0.79227
-0.830525
-0.863869
-0.891055
-0.910771
-0.920973
-0.920563
-0.91318
-0.904021
-0.897567
-0.89515
-0.893605
-0.885813
-0.863072
-0.818415
-0.744527
-0.642385
-0.532293
-0.439962
-0.387721
-0.387383
-0.437082
-0.522726
-0.623107
-0.716412
-0.785949
-0.829231
-0.850363
-0.851792
-0.830999
-0.777597
-0.676553
-0.544463
-0.419336
-0.344769
-0.351583
-0.441539
-0.584007
-0.72934
-0.832191
-0.871044
-0.873683
-0.861234
-0.840136
-0.814762
-0.78722
-0.757325
-0.72324
-0.682503
-0.63353
-0.575511
-0.508121
-0.433429
-0.358325
-0.293197
-0.248425
-0.231606
-0.245027
-0.28423
-0.338374
-0.392593
-0.431829
-0.445278
-0.433738
-0.394036
-0.336172
-0.277849
-0.236454
-0.223301
-0.239773
-0.276634
-0.316833
-0.341007
-0.333867
-0.293865
-0.230461
-0.153174
-0.0691586
0.014744
0.0924685
0.159536
0.213253
0.253164
0.280549
0.297884
0.308217
0.314569
0.31944
0.324502
0.330529
0.337526
0.345107
0.352954
0.361209
0.370653
0.382607
0.39859
0.419846
0.446851
0.479142
0.515678
0.555079
0.595971
0.637365
0.678892
0.720785
0.763637
0.807989
0.853897
0.900628
0.946427
0.98868
1.02438
1.05068
1.06537
1.06713
1.05565
1.03139
0.99547
0.949481
0.895665
0.83652
0.774859
0.71387
0.656873
0.606913
0.566865
0.538907
0.520928
0.505585
0.483377
0.44517
0.384684
0.300085
0.19419
0.0733391
-0.0545351
-0.180719
0
0.474276
1.37172
2.78191
4.59962
6.41607
7.57842
7.44474
5.72127
2.6797
-0.90283
-4.06302
-6.05037
-6.59348
-5.91816
-4.56037
-3.10453
-1.97188
-1.32142
-1.06581
-0.92395
-0.689064
-0.463671
-0.252107
-0.0615686
0.103276
0.241028
0.353689
0.446058
0.524514
0.595516
0.664254
0.733762
0.804904
0.877283
0.949853
1.02156
1.0919
1.16119
1.23063
1.3021
1.37793
1.46061
1.55271
1.6568
1.77555
1.91165
2.06765
2.24546
2.44581
2.66758
2.90743
3.15972
3.41702
3.67088
3.91298
4.13619
4.33531
4.50618
4.64452
4.74863
4.81937
4.85723
4.86179
4.83158
4.76432
4.65729
4.50801
4.31492
4.08056
3.81069
3.51084
3.18688
2.84577
2.4951
2.14209
1.7929
1.45199
1.12185
0.803026
0.494626
0.195033
-0.0971996
-0.382491
-0.659299
-0.922337
-1.16283
-1.372
-1.54138
-1.66491
-1.74035
-1.76983
-1.75937
-1.71767
-1.65461
-1.58004
-1.50289
-1.42977
-1.3669
-1.31877
-1.28815
-1.27579
-1.28021
-1.29773
-1.32313
-1.35071
-1.37565
-1.39508
-1.40897
-1.41825
-1.42444
-1.42868
-1.43104
-1.43047
-1.42538
-1.41448
-1.39764
-1.37659
-1.35359
-1.33157
-1.31349
-1.30182
-1.2982
-1.30323
-1.31653
-1.33684
-1.36212
-1.39006
-1.418
-1.44305
-1.46225
-1.47289
-1.47255
-1.45956
-1.43305
-1.39228
-1.33802
-1.27421
-1.20769
-1.14647
-1.09805
-1.06814
-1.05951
-1.07147
-1.09985
-1.13776
-1.17682
-1.20898
-1.22846
-1.23321
-1.22492
-1.20628
-1.18135
-1.15488
-1.13145
-1.1146
-1.1063
-1.10675
-1.11461
-1.12742
-1.14233
-1.15684
-1.16939
-1.17979
-1.18907
-1.19892
-1.21116
-1.22702
-1.24671
-1.2693
-1.29289
-1.3152
-1.33428
-1.34916
-1.3598
-1.36725
-1.37363
-1.3814
-1.39276
-1.40903
-1.43022
-1.45497
-1.48063
-1.5036
-1.51989
-1.52557
-1.51681
-1.49097
-1.44678
-1.38475
-1.30727
-1.21785
-1.12195
-1.02561
-0.933798
-0.84932
-0.772254
-0.700194
-0.6292
-0.555149
-0.475094
-0.388656
-0.29723
-0.204081
-0.114523
-0.0356218
0.0256449
0.0634266
0.073616
0.0544321
0.00681305
-0.0654528
-0.155935
-0.256129
-0.356343
-0.445873
-0.515195
-0.557209
-0.568234
-0.548589
-0.502595
-0.437824
-0.363631
-0.28921
-0.221567
-0.163184
-0.11316
-0.0813894
0
0.41468
1.28767
2.6676
4.41275
6.12322
7.19853
7.04781
5.38137
2.42532
-1.0906
-4.20596
-6.1364
-6.59213
-5.8331
-4.4493
-3.02234
-1.87801
-1.04697
-0.399218
0.175316
0.487136
0.619339
0.691093
0.699207
0.65587
0.585986
0.520271
0.487002
0.496173
0.53959
0.609147
0.701142
0.813972
0.939334
1.06277
1.1706
1.25318
1.30731
1.33722
1.35343
1.37006
1.40132
1.45738
1.53915
1.64475
1.77331
1.92434
2.0969
2.28962
2.50049
2.72648
2.96324
3.20522
3.44494
3.67399
3.88522
4.0744
4.24136
4.38868
4.5125
4.65835
5.0609
5.6423
6.2024
6.57329
6.66323
6.45428
5.97056
5.25904
4.40771
3.63028
3.16061
2.81369
2.49838
2.19805
1.90538
1.61418
1.32095
1.02585
0.732979
0.449747
0.185355
-0.0506825
-0.250082
-0.40117
-0.483418
-0.477586
-0.403005
-0.302882
-0.219096
-0.180438
-0.195119
-0.249885
-0.31622
-0.361707
-0.362411
-0.321979
-0.253564
-0.16743
-0.0808853
-0.0109623
0.0297424
0.0361252
0.0119846
-0.0305286
-0.0734612
-0.097234
-0.0741596
0.0364059
0.203422
0.364006
0.451231
0.424039
0.285124
0.0789471
-0.128381
-0.277662
-0.350989
-0.385221
-0.401862
-0.408248
-0.411342
-0.417329
-0.431081
-0.455961
-0.493838
-0.545135
-0.608465
-0.680813
-0.758043
-0.834665
-0.903061
-0.954809
-0.981825
-0.968611
-0.878486
-0.704037
-0.494606
-0.311111
-0.202669
-0.189983
-0.26245
-0.388516
-0.532061
-0.665599
-0.78014
-0.880508
-0.970617
-1.05224
-1.12638
-1.19384
-1.25529
-1.31119
-1.36179
-1.40715
-1.44727
-1.48226
-1.5126
-1.5393
-1.56412
-1.58998
-1.62002
-1.65651
-1.6997
-1.74745
-1.79362
-1.82942
-1.84579
-1.83582
-1.79664
-1.73003
-1.64177
-1.54017
-1.43393
-1.33444
-1.25389
-1.20163
-1.1836
-1.1999
-1.24232
-1.29451
-1.33615
-1.34999
-1.32836
-1.28346
-1.22577
-1.16312
-1.1019
-1.04532
-0.993044
-0.942139
-0.889026
-0.831493
-0.769847
-0.707695
-0.650547
-0.603864
-0.571213
-0.553331
-0.548417
-0.553463
-0.565924
-0.58464
-0.609723
-0.64276
-0.685088
-0.736742
-0.796008
-0.858769
-0.919149
-0.970907
-1.00875
-1.02933
-1.03164
-1.0168
-0.987457
-0.946942
-0.899112
-0.846646
-0.785397
-0.554653
0
1.04212
2.62473
4.57099
6.4556
7.6991
7.76936
6.40892
3.7837
0.470717
-2.72589
-5.05775
-6.0896
-5.81631
-4.59566
-2.94508
-1.3154
0.0446289
1.08654
1.79056
1.9957
2.17703
2.33673
2.47272
2.58604
2.68046
2.76151
2.83527
2.90734
2.98191
3.06171
3.14849
3.24338
3.34732
3.46135
3.58668
3.72457
3.87603
4.04154
4.22081
4.4127
4.61528
4.826
5.04192
5.25994
5.47708
5.6907
5.89872
6.09989
6.29395
6.48164
6.66465
6.8453
7.02616
7.20941
7.3963
7.58716
7.78
7.96627
8.13313
8.26701
8.35703
8.39697
8.38511
8.3222
8.20906
8.04554
7.83803
7.59657
7.3256
7.02885
6.71091
6.37623
6.02952
5.67355
5.30972
4.93956
4.56554
4.19176
3.82415
3.47003
3.13713
2.83287
2.56317
2.33057
2.13496
1.97426
1.84548
1.74561
1.67233
1.624
1.59931
1.59829
1.62021
1.66171
1.71534
1.76893
1.8089
1.82368
1.80605
1.75463
1.67424
1.57478
1.46856
1.36699
1.27707
1.19888
1.13019
1.06917
1.01405
0.964115
0.920007
0.883477
0.856675
0.841384
0.837371
0.844588
0.862241
0.88899
0.922772
0.961531
1.00303
1.04454
1.08294
1.11499
1.13762
1.14827
1.14501
1.12672
1.09306
1.04443
0.981977
0.907031
0.821131
0.729122
0.639907
0.564013
0.511829
0.491784
0.508715
0.562796
0.649187
0.75846
0.877787
0.993136
1.09362
1.17004
1.21644
1.23057
1.21359
1.16918
1.10249
1.01925
0.926372
0.829404
0.732681
0.640148
0.555392
0.4814
0.420289
0.373115
0.339783
0.3192
0.309871
0.309242
0.314601
0.32348
0.33385
0.34411
0.352885
0.35855
0.359352
0.353382
0.338923
0.315024
0.282053
0.241975
0.198165
0.154768
0.11575
0.0834892
0.0591377
0.0422482
0.0302822
0.0197842
0.00737343
-0.00935974
-0.0313427
-0.0580246
-0.0878658
-0.119114
-0.150587
-0.182183
-0.21478
-0.249918
-0.289256
-0.333891
-0.383951
-0.438245
-0.492731
-0.541486
-0.578362
-0.598488
-0.59939
-0.57279
-0.374034
0
0.556137
1.5392
3.07736
4.96946
6.62638
7.28074
6.3728
3.88697
0.424852
-3.03914
-5.57664
-6.66517
-6.31495
-4.94488
-3.12922
-1.36945
0.0178055
0.904441
1.24078
1.26414
1.28705
1.31423
1.34909
1.39354
1.44805
1.51155
1.58278
1.66051
1.74372
1.83168
1.9239
2.02001
2.11969
2.22271
2.32903
2.43908
2.55379
2.67463
2.80347
2.94239
3.09347
3.25864
3.43963
3.63795
3.85475
4.09057
4.34494
4.616
4.90022
5.19244
5.48629
5.77485
6.05156
6.3109
6.54896
6.76268
6.94877
7.10421
7.22726
7.31779
7.37498
7.39765
7.38472
7.33562
7.25043
7.12973
6.97417
6.78421
6.5618
6.30947
6.02976
5.72508
5.39809
5.05245
4.69336
4.32737
3.96186
3.60437
3.26188
2.94016
2.64337
2.37396
2.13283
1.91967
1.73331
1.57212
1.43422
1.31766
1.22051
1.14097
1.0776
1.02959
0.997171
0.980836
0.98115
0.998238
1.03112
1.07899
1.13811
1.20069
1.25858
1.30519
1.33691
1.3535
1.35708
1.35029
1.33369
1.30493
1.25893
1.18947
1.09221
0.967372
0.821051
0.664552
0.512101
0.377815
0.270316
0.196306
0.158577
0.156403
0.18629
0.242726
0.317517
0.403
0.49234
0.579377
0.659356
0.729645
0.788704
0.836245
0.872973
0.899854
0.917258
0.925739
0.925929
0.918535
0.905003
0.887977
0.871242
0.859029
0.854886
0.86053
0.874887
0.894885
0.915919
0.933028
0.942041
0.940351
0.927104
0.902907
0.869319
0.828515
0.783203
0.735766
0.688758
0.645
0.607249
0.577823
0.558222
0.548873
0.549098
0.557288
0.571221
0.588566
0.607075
0.624988
0.641718
0.658117
0.676404
0.699636
0.730728
0.771262
0.822013
0.878555
0.932562
0.974476
0.996149
0.992937
0.964508
0.914181
0.847243
0.769006
0.684112
0.595129
0.503111
0.408596
0.312212
0.215707
0.123572
0.042386
-0.0204825
-0.0586051
-0.068004
-0.0478307
0
0.0686103
0.157448
0.262198
0.378113
0.502236
0.632933
0.770476
0.935604
1.15651
1.67162
2.74717
4.45034
6.47736
8.16222
8.72646
7.66039
5.02048
1.45381
-2.07636
-4.70087
-5.95943
-5.87462
-4.80933
-3.24596
-1.61845
-0.242087
0.698836
1.15252
1.17353
1.20302
1.2519
1.322
1.41898
1.54424
1.69264
1.85753
2.03137
2.20584
2.37219
2.52299
2.65367
2.76289
2.85255
2.92732
2.99377
3.05926
3.13079
3.21408
3.31229
3.42632
3.55598
3.70006
3.85644
4.02253
4.19569
4.37363
4.5547
4.73812
4.92398
5.11311
5.30685
5.50673
5.71417
5.93026
6.15694
6.39875
6.66118
6.93628
7.19263
7.39074
7.49502
7.48647
7.36984
7.17092
6.92329
6.64971
6.34974
6.01874
5.66148
5.28289
4.88588
4.47401
4.05311
3.63095
3.21628
2.8178
2.44328
2.09887
1.78871
1.51472
1.27663
1.07235
0.897754
0.74689
0.612869
0.488582
0.367511
0.244499
0.116394
-0.018275
-0.158545
-0.296389
-0.418254
-0.510049
-0.561336
-0.56859
-0.536256
-0.47509
-0.398389
-0.317696
-0.239575
-0.164849
-0.0930233
-0.0241806
0.040377
0.0968422
0.138982
0.15966
0.153218
0.117553
0.055137
-0.0273247
-0.120389
-0.213933
-0.299828
-0.374101
-0.435276
-0.482474
-0.51474
-0.531532
-0.532628
-0.518023
-0.487916
-0.442091
-0.380508
-0.304908
-0.221223
-0.14061
-0.0766218
-0.0422269
-0.0471535
-0.0954317
-0.183709
-0.300953
-0.430014
-0.551073
-0.646993
-0.711794
-0.749554
-0.759633
-0.747954
-0.724704
-0.700848
-0.685759
-0.685386
-0.70128
-0.730591
-0.766972
-0.802189
-0.828242
-0.839703
-0.834804
-0.815059
-0.783372
-0.742821
-0.696715
-0.647831
-0.597911
-0.547505
-0.496131
-0.44262
-0.385609
-0.323972
-0.256916
-0.184295
-0.106738
-0.0256568
0.0568731
0.138297
0.21588
0.286955
0.349085
0.399933
0.436523
0.45612
0.457659
0.441398
0.409647
0.367295
0.32175
0.282099
0.257434
0.257608
0.298034
0.373456
0.461205
0.533917
0.569505
0.558252
0.504415
0.422589
0.331309
0.246943
0.176144
0.117725
0.0697552
0.0314152
0
-0.0286337
-0.0610477
-0.102101
-0.155178
-0.222166
-0.50207
-0.562886
0.055347
1.51223
3.6512
5.97055
7.73008
8.20158
6.97922
4.20226
0.551647
-3.00276
-5.58241
-6.7155
-6.43887
-5.17433
-3.4845
-1.84628
-0.537942
0.355258
0.857673
0.840232
0.809801
0.775593
0.744954
0.728506
0.737294
0.779167
0.851117
0.945488
1.05688
1.17756
1.2998
1.41772
1.52842
1.63224
1.73199
1.83161
1.93458
2.04269
2.15534
2.27092
2.38748
2.50324
2.61726
2.72993
2.84309
2.95985
3.08422
3.2204
3.3722
3.54227
3.73163
3.93924
4.1619
4.39438
4.6299
4.85974
5.07429
5.26479
5.42421
5.54763
5.63231
5.67715
5.68194
5.64658
5.5706
5.45506
5.30032
5.10591
4.87229
4.60137
4.29706
3.96508
3.61158
3.24288
2.86574
2.48706
2.11372
1.75228
1.40874
1.08817
0.794414
0.529853
0.295444
0.091156
-0.0824385
-0.225577
-0.339785
-0.426366
-0.486499
-0.521507
-0.533175
-0.523975
-0.497144
-0.456616
-0.40696
-0.353021
-0.299808
-0.252864
-0.217388
-0.197483
-0.195589
-0.211869
-0.24385
-0.286524
-0.333017
-0.375775
-0.408029
-0.426091
-0.428333
-0.414555
-0.389237
-0.360266
-0.33553
-0.320587
-0.316923
-0.32129
-0.326327
-0.32233
-0.294899
-0.214809
-0.0836104
0.0593159
0.161971
0.183199
0.111836
-0.0275202
-0.18449
-0.303527
-0.346026
-0.33155
-0.279943
-0.206462
-0.133498
-0.0816759
-0.0641311
-0.0828308
-0.128204
-0.182448
-0.225656
-0.242831
-0.233866
-0.200531
-0.157222
-0.121783
-0.108401
-0.121865
-0.15562
-0.194549
-0.221303
-0.22335
-0.201453
-0.165328
-0.122234
-0.0775934
-0.0362076
-0.0014329
0.0251615
0.0436743
0.0554422
0.062499
0.0671803
0.0715612
0.0774107
0.0861708
0.0989289
0.116399
0.138894
0.166276
0.197979
0.233026
0.270002
0.307025
0.341722
0.371332
0.393134
0.404897
0.405268
0.394144
0.372819
0.34382
0.310425
0.275983
0.243216
0.213629
0.187606
0.164592
0.143525
0.12334
0.103367
0.0835069
0.0641961
0.0462102
0.0303687
0.0173224
0.0075922
0.00147138
-0.000995445
0
0.00504541
0.0125915
0.0219861
0.0326506
0.0448865
0.0883309
0.432013
1.29246
2.7579
4.66327
6.55512
7.80283
7.83128
6.38027
3.65981
0.312191
-2.81435
-4.97832
-5.79971
-5.34866
-4.04387
-2.43074
-0.956371
0.159659
0.917805
1.39993
1.52017
1.62451
1.72035
1.80985
1.89705
1.98659
2.0821
2.18483
2.29282
2.40242
2.50949
2.61023
2.70221
2.78496
2.86003
2.93049
3.00022
3.07311
3.15236
3.2404
3.3391
3.44987
3.57384
3.71201
3.86514
4.03361
4.21703
4.41404
4.62218
4.83816
5.05835
5.27949
5.49927
5.71665
5.9318
6.14537
6.35778
6.56678
6.76235
6.92771
7.04412
7.09754
7.08299
7.0047
6.8721
6.69383
6.47322
6.21491
5.92654
5.61301
5.27653
4.91911
4.54402
4.1558
3.75987
3.36218
2.96894
2.58642
2.2209
1.87843
1.56445
1.28346
1.04012
0.837675
0.673078
0.540788
0.433979
0.346027
0.271771
0.208185
0.154284
0.110378
0.0769597
0.0530204
0.0377278
0.0289467
0.0236625
0.0193331
0.0149806
0.0119951
0.0143561
0.0281251
0.0602457
0.125737
0.259656
0.453646
0.657857
0.812819
0.875807
0.839634
0.734502
0.613052
0.527571
0.511064
0.542794
0.599576
0.671789
0.75391
0.840758
0.927499
1.00991
1.08443
1.14804
1.19827
1.2333
1.25194
1.25357
1.2383
1.20716
1.16218
1.10632
1.04338
0.97758
0.913271
0.854361
0.8041
0.76521
0.739522
0.727853
0.730395
0.746469
0.77368
0.807149
0.840439
0.867545
0.884183
0.888712
0.882385
0.868787
0.852673
0.838613
0.829868
0.827523
0.831858
0.843009
0.861169
0.886754
0.920163
0.961237
1.00869
1.06004
1.11099
1.15667
1.19284
1.21705
1.2294
1.2325
1.23095
1.23025
1.23546
1.24966
1.27403
1.30949
1.35522
1.40547
1.45048
1.48067
1.48954
1.47574
1.44359
1.40141
1.35827
1.32036
1.28804
1.2571
1.22226
1.17765
1.11831
1.04126
0.946037
0.834599
0.710929
0.581
0.45078
0.327035
0.21683
0.126125
0.059109
0.0174623
0
0.0121672
0.201554
0.595672
1.20723
2.20427
3.68434
5.5042
7.19661
8.07619
7.53718
5.39267
2.0439
-1.64842
-4.73134
-6.55459
-6.97504
-6.29445
-5.02226
-3.63139
-2.4246
-1.52137
-0.910068
-0.508895
-0.262194
-0.106756
0.0191231
0.107199
0.153553
0.163002
0.14892
0.130261
0.126333
0.151026
0.205438
0.279623
0.3645
0.453863
0.542591
0.627476
0.707888
0.78583
0.86547
0.952348
1.0525
1.17141
1.31389
1.48417
1.68597
1.92259
2.19694
2.51134
2.86719
3.2644
3.70082
4.17188
4.67042
5.18707
5.71092
6.2305
6.73499
7.21456
7.66094
8.06779
8.42942
8.7387
8.98726
9.17044
9.28736
9.32153
9.24474
9.02684
8.64814
8.11044
7.44255
6.69706
5.93884
5.20695
4.50762
3.8514
3.24608
2.69554
2.20046
1.75926
1.36909
1.02649
0.727821
0.469379
0.247358
0.0577453
-0.103716
-0.24148
-0.359976
-0.463451
-0.555891
-0.640571
-0.719794
-0.794705
-0.865272
-0.930462
-0.988632
-1.03805
-1.07743
-1.10591
-1.12332
-1.13063
-1.12917
-1.11902
-1.09778
-1.05991
-0.996773
-0.897814
-0.752555
-0.553198
-0.299251
0.00164671
0.338883
0.702751
1.07284
1.42487
1.7388
2.00275
2.21473
2.38183
2.51715
2.63571
2.75048
2.86917
2.99374
3.1233
3.25517
3.3857
3.51112
3.62821
3.73445
3.82806
3.90802
3.97379
4.02503
4.06165
4.08426
4.09423
4.09412
4.08781
4.08037
4.07753
4.08474
4.10982
4.15992
4.23279
4.31402
4.38186
4.41223
4.38257
4.27508
4.08004
3.79905
3.44722
3.052
2.64733
2.26174
1.90362
1.56839
1.25927
0.985327
0.753656
0.560333
0.420377
0.360226
0.399785
0.536096
0.738916
0.960768
1.1554
1.29512
1.40008
1.48575
1.55584
1.6133
1.66028
1.69742
1.72351
1.73608
1.73216
1.70903
1.66524
1.60131
1.52004
1.42619
1.32577
1.22498
1.12909
1.04132
0.963694
0.897757
0.844271
0.803294
0.774324
0.756411
0.747441
0.742843
0.7359
0.719361
0.68675
0.633693
0.558831
0.464042
0.353941
0.234856
0.113719
0
0.069805
0.443739
1.12727
2.22169
3.72181
5.39148
6.7386
7.16747
6.25655
4.00646
0.89592
-2.30188
-4.83647
-6.25143
-6.4832
-5.7811
-4.54235
-3.16291
-1.9484
-1.07598
-0.582624
-0.385882
-0.279709
-0.180337
-0.0845754
0.00745554
0.0953742
0.179577
0.261062
0.340857
0.419344
0.495149
0.564425
0.622141
0.664899
0.693772
0.715657
0.742206
0.786566
0.859228
0.962605
1.08963
1.23416
1.3922
1.56044
1.73722
1.9226
2.11759
2.32295
2.53792
2.75949
2.98245
3.20109
3.40997
3.60524
3.78558
3.95255
4.10993
4.2631
4.42623
4.64835
4.98706
5.37765
5.72477
5.93645
5.957
5.78661
5.47204
5.07603
4.64797
4.21038
3.76255
3.30578
2.84444
2.382
1.92225
1.47068
1.03443
0.621775
0.241271
-0.0992305
-0.393355
-0.637496
-0.831099
-0.975469
-1.07289
-1.12857
-1.15263
-1.15695
-1.15173
-1.1442
-1.13804
-1.13363
-1.12898
-1.12106
-1.10704
-1.08546
-1.05639
-1.02005
-0.976542
-0.925891
-0.867947
-0.802456
-0.729225
-0.648256
-0.559906
-0.46452
-0.362249
-0.252874
-0.135299
-0.00646515
0.139276
0.301469
0.458128
0.576064
0.62216
0.578605
0.454724
0.288257
0.13304
0.0370048
0.0160872
0.0337816
0.0722614
0.115083
0.148498
0.165323
0.166423
0.159465
0.15548
0.164489
0.191336
0.238136
0.294127
0.344261
0.375924
0.38469
0.37646
0.365042
0.366478
0.392975
0.444998
0.514385
0.595569
0.684861
0.778569
0.872647
0.960829
1.03459
1.08522
1.1048
1.08879
1.03836
0.961204
0.869837
0.77792
0.696007
0.626274
0.566816
0.514382
0.464934
0.415463
0.36518
0.315717
0.270402
0.233012
0.206104
0.190292
0.185881
0.19226
0.208239
0.23204
0.261737
0.295516
0.330727
0.364299
0.393095
0.414358
0.426147
0.427634
0.419208
0.402418
0.37983
0.355003
0.331807
0.314357
0.306916
0.314565
0.346319
0.417674
0.534034
0.666924
0.777002
0.827393
0.797487
0.69098
0.534165
0.365167
0.219582
0.115671
0.0425388
-0.0104887
-0.0473058
-0.069548
-0.0790835
-0.0779956
-0.0686386
-0.0536623
-0.0360972
-0.019297
-0.00642853
0
0.00267425
-0.00275917
-0.0152165
-0.0325406
-0.0520058
-0.0686862
0.0657754
0.428199
1.10208
2.23571
3.82666
5.55231
6.7675
6.75471
5.11503
2.05458
-1.63582
-4.91674
-6.95497
-7.43725
-6.60089
-5.02023
-3.30973
-1.90047
-0.956159
-0.410892
-0.0735377
0.244087
0.497874
0.711813
0.866123
0.952279
0.97714
0.962063
0.936477
0.928155
0.954371
1.00916
1.08037
1.16112
1.24728
1.3358
1.4254
1.51657
1.61129
1.71235
1.82267
1.9445
2.07925
2.22741
2.38853
2.56134
2.74407
2.93472
3.1313
3.33206
3.53552
3.74036
3.94513
4.14803
4.34647
4.53633
4.71181
4.86743
4.99813
5.10009
5.17121
5.21107
5.22025
5.19941
5.14837
5.06618
4.95338
4.80899
4.63145
4.42039
4.17698
3.90393
3.60515
3.28622
2.95225
2.60848
2.26035
1.9134
1.57318
1.24503
0.933752
0.64325
0.376257
0.134227
-0.0825604
-0.274687
-0.443161
-0.588932
-0.712496
-0.813398
-0.890153
-0.94144
-0.966092
-0.958647
-0.911658
-0.825905
-0.71452
-0.598021
-0.49812
-0.432228
-0.410324
-0.433392
-0.493268
-0.574108
-0.655968
-0.720321
-0.756195
-0.767119
-0.7644
-0.755264
-0.746639
-0.74345
-0.74753
-0.757656
-0.770552
-0.782382
-0.790437
-0.79402
-0.793576
-0.790149
-0.78524
-0.78027
-0.776086
-0.772634
-0.768843
-0.76276
-0.751921
-0.733881
-0.706671
-0.668712
-0.619808
-0.563018
-0.505842
-0.457379
-0.425491
-0.414506
-0.423882
-0.448368
-0.479706
-0.509309
-0.530879
-0.543062
-0.548212
-0.548384
-0.545804
-0.542142
-0.53809
-0.533502
-0.52797
-0.521556
-0.515324
-0.511599
-0.513183
-0.522116
-0.53841
-0.559314
-0.579491
-0.59216
-0.590833
-0.571085
-0.533188
-0.479153
-0.413624
-0.342936
-0.273958
-0.213323
-0.166269
-0.136197
-0.124449
-0.130349
-0.151478
-0.184174
-0.224195
-0.267412
-0.310364
-0.350723
-0.387126
-0.418475
-0.443607
-0.461086
-0.469118
-0.465686
-0.448767
-0.415715
-0.363264
-0.290569
-0.204631
-0.119029
-0.0489328
-0.00795917
-0.00548372
-0.044937
-0.123196
-0.230964
-0.354124
-0.476176
-0.583893
-0.670262
-0.733805
-0.776313
-0.799816
-0.808259
-0.8065
-0.799261
-0.790309
-0.781916
-0.774808
-0.768317
-0.760712
-0.749717
-0.732796
-0.707437
-0.671519
-0.623628
-0.563304
-0.490708
-0.403621
-0.273087
0
0.483648
1.3884
2.8423
4.68119
6.36232
7.11815
6.32486
3.88123
0.346143
-3.27588
-5.98538
-7.21115
-6.9768
-5.765
-4.21167
-2.82425
-1.84839
-1.28706
-0.99843
-0.729769
-0.4096
-0.0932562
0.214609
0.510012
0.789341
1.04986
1.29001
1.50925
1.7069
1.88284
2.03805
2.17401
2.29287
2.39767
2.49241
2.58189
2.67134
2.76605
2.87072
2.98918
3.1248
3.28021
3.45695
3.65527
3.87398
4.11053
4.36129
4.62207
4.8887
5.15748
5.42541
5.69018
5.94988
6.20273
6.44679
6.67991
6.8997
7.10355
7.28837
7.45017
7.58431
7.68659
7.75357
7.78116
7.76505
7.7014
7.58757
7.42267
7.20776
6.94587
6.64351
6.31107
5.95906
5.59656
5.23276
4.87773
4.5418
4.23474
3.9645
3.73708
3.55746
3.42653
3.33835
3.28322
3.25022
3.22902
3.2114
3.19217
3.16955
3.14488
3.12199
3.106
3.10194
3.11595
3.16082
3.24908
3.36212
3.462
3.50566
3.45898
3.30881
3.06833
2.77343
2.47169
2.20812
1.99095
1.8081
1.65628
1.53492
1.44135
1.37141
1.31946
1.27882
1.24292
1.20584
1.16269
1.10984
1.04497
0.966986
0.876017
0.773476
0.661991
0.544781
0.425623
0.308452
0.196816
0.0935173
-0.000154114
-0.0851974
-0.164147
-0.240243
-0.316419
-0.394414
-0.474249
-0.554201
-0.631189
-0.701513
-0.760952
-0.805552
-0.832741
-0.841054
-0.830102
-0.800414
-0.75322
-0.690223
-0.613433
-0.525128
-0.42801
-0.323951
-0.218629
-0.122326
-0.0471983
-0.00487041
-0.00346603
-0.045237
-0.12575
-0.234856
-0.358942
-0.483604
-0.598024
-0.697471
-0.778888
-0.839416
-0.877848
-0.894483
-0.890854
-0.869358
-0.832855
-0.784319
-0.726716
-0.662883
-0.595473
-0.527059
-0.461165
-0.402994
-0.358817
-0.334372
-0.33362
-0.356924
-0.399638
-0.451838
-0.499617
-0.527883
-0.524023
-0.484727
-0.412074
-0.312847
-0.197624
-0.0815414
0.0209597
0.0990047
0.146852
0.163868
0.153185
0.119734
0.0684473
0.00452843
-0.0681637
-0.147474
-0.231573
-0.318236
-0.40458
-0.486812
-0.560543
-0.62153
-0.666002
-0.691027
-0.694747
-0.676489
-0.636745
-0.57708
-0.499959
-0.408753
-0.307419
-0.199096
-0.0809237
0
0.290936
1.13428
2.69058
4.7068
6.4761
7.11283
6.02091
3.26913
-0.383143
-3.84209
-6.19291
-7.05982
-6.63725
-5.44981
-4.04483
-2.79567
-1.86427
-1.25748
-0.898763
-0.696066
-0.548524
-0.417703
-0.298364
-0.190739
-0.0960472
-0.0149824
0.0528889
0.109123
0.156264
0.197589
0.23676
0.277469
0.323085
0.376404
0.439486
0.51362
0.599372
0.696691
0.805005
0.923285
1.05005
1.18334
1.32074
1.45947
1.59665
1.72961
1.85707
1.97989
2.10145
2.22762
2.36596
2.52444
2.70993
2.92967
3.20785
3.57171
4.00184
4.4064
4.72134
4.91938
4.98485
4.9077
4.69422
4.37869
4.02371
3.70505
3.46767
3.26603
3.0575
2.82831
2.571
2.27759
1.94529
1.57724
1.18216
0.772992
0.364794
-0.0288495
-0.396001
-0.727612
-1.01811
-1.26495
-1.46785
-1.63003
-1.75659
-1.8532
-1.92534
-1.97777
-2.0145
-2.03902
-2.05411
-2.06329
-2.07198
-2.08703
-2.11497
-2.16038
-2.22432
-2.30351
-2.39069
-2.47629
-2.55086
-2.60752
-2.64598
-2.66745
-2.67592
-2.67684
-2.67556
-2.67601
-2.68016
-2.68882
-2.70173
-2.71801
-2.73659
-2.75667
-2.77804
-2.80138
-2.82874
-2.86366
-2.91035
-2.97304
-3.05476
-3.15611
-3.27698
-3.41166
-3.54562
-3.66233
-3.74714
-3.79068
-3.79042
-3.74976
-3.67498
-3.57096
-3.43741
-3.27242
-3.07386
-2.83421
-2.54826
-2.21599
-1.84398
-1.44726
-1.0423
-0.64581
-0.273226
0.0635186
0.357443
0.606891
0.814868
0.987643
1.13303
1.25821
1.36895
1.46927
1.56058
1.64124
1.70634
1.74949
1.76563
1.75167
1.70823
1.64065
1.55893
1.47606
1.40508
1.35764
1.34283
1.34912
1.35396
1.33122
1.25911
1.12515
0.92727
0.671983
0.371989
0.0468885
-0.282575
-0.603256
-0.905601
-1.18019
-1.41973
-1.61727
-1.76358
-1.86121
-1.91723
-1.9388
-1.93029
-1.89193
-1.82024
-1.71047
-1.55975
-1.36983
-1.15286
-0.919982
-0.681305
-0.446834
-0.226615
-0.0348085
0.114635
0.218946
0.277659
0.292784
0.27037
0.22135
0.159836
0.0989349
0.046118
0
-0.0380302
-0.0812054
-0.13452
-0.200023
-0.276571
-0.394347
-0.228844
0.329191
1.3283
2.73279
4.32011
5.61939
5.99503
4.91326
2.266
-1.45982
-5.31621
-8.28987
-9.73696
-9.61048
-8.37248
-6.68402
-5.0815
-3.81281
-2.87504
-2.16891
-1.72383
-1.5824
-1.55425
-1.66016
-1.87085
-2.1181
-2.3192
-2.40224
-2.38123
-2.30414
-2.19568
-2.06614
-1.92183
-1.76881
-1.61314
-1.46034
-1.31492
-1.18008
-1.05739
-0.946756
-0.846365
-0.752869
-0.661658
-0.567301
-0.464118
-0.346839
-0.211252
-0.0547607
0.123372
0.322027
0.538546
0.769268
1.01012
1.25705
1.50627
1.75409
1.99594
2.22418
2.43038
2.60618
2.74414
2.8395
2.89108
2.90107
2.87352
2.8122
2.71881
2.59637
2.44673
2.26929
2.06219
1.82407
1.55486
1.25583
0.929588
0.57981
0.211258
-0.170107
-0.556942
-0.940443
-1.31052
-1.65467
-1.96182
-2.22299
-2.43276
-2.58356
-2.67423
-2.71657
-2.72575
-2.71682
-2.70162
-2.68676
-2.6731
-2.65667
-2.63044
-2.58743
-2.5241
-2.43858
-2.32119
-2.17138
-2.01175
-1.86928
-1.76584
-1.71039
-1.69673
-1.70837
-1.72812
-1.74739
-1.76912
-1.80029
-1.84701
-1.90914
-1.97791
-2.03759
-2.07056
-2.06367
-2.01334
-1.92629
-1.8175
-1.70543
-1.60671
-1.52665
-1.46659
-1.4278
-1.40963
-1.41016
-1.42679
-1.45597
-1.49394
-1.53669
-1.57961
-1.61764
-1.64582
-1.65829
-1.6483
-1.61391
-1.56439
-1.51302
-1.47281
-1.45221
-1.4527
-1.46894
-1.49147
-1.51074
-1.52045
-1.52094
-1.51464
-1.50382
-1.4906
-1.47628
-1.46136
-1.44604
-1.43092
-1.4172
-1.40647
-1.4001
-1.39852
-1.40076
-1.40456
-1.40696
-1.40516
-1.39781
-1.38492
-1.36676
-1.34441
-1.31914
-1.2916
-1.26128
-1.22645
-1.1845
-1.13277
-1.06742
-0.984523
-0.891823
-0.802618
-0.730592
-0.684399
-0.664182
-0.661754
-0.664262
-0.659408
-0.639726
-0.608287
-0.569611
-0.526815
-0.483034
-0.441272
-0.404217
-0.373723
-0.350806
-0.335598
-0.327379
-0.324697
-0.325643
-0.328231
-0.330798
-0.332283
-0.332349
-0.331022
-0.328459
-0.32464
-0.319207
-0.3114
-0.298913
-0.255145
0
0.519724
1.51837
3.11214
5.11657
6.96455
7.87089
7.20226
4.85171
1.37399
-2.2311
-4.97306
-6.29504
-6.2333
-5.26188
-3.97001
-2.78518
-1.87338
-1.20404
-0.677983
-0.234223
0.0911231
0.374949
0.641035
0.894711
1.13683
1.36717
1.58581
1.79277
1.98774
2.16922
2.33418
2.48001
2.60454
2.70658
2.78672
2.84774
2.89463
2.93403
2.97341
3.02022
3.08035
3.15794
3.25629
3.37795
3.52429
3.6952
3.88892
4.10189
4.32886
4.56323
4.79774
5.02524
5.23957
5.43617
5.61241
5.76748
5.90201
6.01692
6.11292
6.19072
6.25002
6.2891
6.30477
6.29253
6.24681
6.16152
6.03075
5.84973
5.6168
5.33245
5.00077
4.62947
4.22927
3.813
3.39347
2.98193
2.58765
2.21725
1.87465
1.56137
1.27724
1.02115
0.791835
0.588424
0.410833
0.258879
0.132255
0.0310603
-0.0460667
-0.102415
-0.142167
-0.169835
-0.189653
-0.205125
-0.21884
-0.23252
-0.2472
-0.263357
-0.281087
-0.30011
-0.319815
-0.339358
-0.357819
-0.374289
-0.388139
-0.398925
-0.406244
-0.409648
-0.408747
-0.403586
-0.394761
-0.385105
-0.380768
-0.389345
-0.417426
-0.46781
-0.537554
-0.617894
-0.696353
-0.760407
-0.801359
-0.82039
-0.820298
-0.807295
-0.788639
-0.770191
-0.754779
-0.741855
-0.728446
-0.710869
-0.686668
-0.656274
-0.621102
-0.583968
-0.548234
-0.516697
-0.490777
-0.470194
-0.453235
-0.43749
-0.420817
-0.402184
-0.382069
-0.362593
-0.346793
-0.337655
-0.337159
-0.345657
-0.36173
-0.382536
-0.404501
-0.424184
-0.43917
-0.448191
-0.450961
-0.447996
-0.440356
-0.429308
-0.416
-0.401165
-0.384902
-0.366605
-0.345044
-0.318618
-0.285725
-0.245193
-0.196623
-0.14046
-0.0786913
-0.0153175
0.0438377
0.0926912
0.126253
0.141735
0.139216
0.121649
0.0941883
0.062987
0.0338074
0.0107678
-0.00483542
-0.013743
-0.0173115
-0.016974
-0.0141895
-0.0100988
-0.0053376
0
0.00629194
0.0142525
0.0248013
0.0389242
0.0575316
0.0816669
0.114987
0.194549
0.49496
1.03454
1.94931
3.3366
5.11781
6.93379
8.17006
8.17203
6.57251
3.54664
-0.183724
-3.63182
-5.96179
-6.80177
-6.30109
-4.95073
-3.31609
-1.83298
-0.727364
-0.0313998
0.355049
0.530477
0.638319
0.73287
0.815907
0.886884
0.946619
0.99705
1.04076
1.0804
1.11833
1.15634
1.19574
1.23763
1.28318
1.33378
1.39103
1.45666
1.53225
1.6191
1.71807
1.82966
1.95406
2.09129
2.24129
2.40388
2.5788
2.76552
2.96323
3.17086
3.38708
3.61047
3.83956
4.07284
4.30873
4.54538
4.78054
5.01135
5.23381
5.44297
5.63341
5.79934
5.93413
6.03045
6.08242
6.08486
6.03266
5.9212
5.74725
5.51006
5.21231
4.86054
4.46503
4.04128
3.60487
3.16743
2.7388
2.32758
1.94076
1.5835
1.2591
0.96911
0.713543
0.491156
0.299767
0.136586
-0.00148754
-0.117628
-0.214932
-0.296334
-0.364547
-0.422204
-0.471912
-0.516022
-0.556428
-0.594328
-0.629998
-0.662646
-0.690441
-0.710926
-0.721521
-0.720111
-0.705593
-0.67823
-0.639735
-0.593054
-0.54189
-0.490034
-0.440585
-0.395223
-0.353509
-0.312343
-0.26563
-0.204291
-0.116738
0.0101235
0.189321
0.431202
0.740183
1.11526
1.55015
2.03251
2.55335
3.08394
3.58536
4.02371
4.37619
4.63366
4.79957
4.88624
4.91028
4.88885
4.8407
4.78014
4.71658
4.65758
4.60929
4.57613
4.56038
4.56203
4.57893
4.6073
4.6425
4.67984
4.71538
4.74645
4.77125
4.78843
4.7968
4.79483
4.78021
4.74959
4.69835
4.62109
4.51263
4.36891
4.18817
3.97189
3.72524
3.45681
3.17761
2.89947
2.6335
2.38883
2.17142
1.98425
176
408
641
869
1091
1297
1501
1707
1912
2114
2323
2540
2758
2975
3188
3393
3591
3016
3191
3369
3534
3704
0
0
0
0
0
0
0
0
0
0
0
0
0
0
0
0
0
0
0
0
0
0
0
0
0
0
0
0
0
0
0
0
0
0
0
0
0
0
0
0
0
0
0
0
0
0
0
0
0
0
0
0
0
0
0
0
0
0
0
0
0
0
0
0
0
0
0
0
0
0
0
0
0
0
0
0
0
0
0
0
0
0
0
0
0
0
0
0
0
0
0
0
0
0
0
0
0
0
0
0
0
0
0
0
0
0
0
0
0
0
0
0
0
0
0
0
0
0
0
0
0
0
0
0
0
0
0
0
0
0
0
0
0
0
0
0
0
0
0
0
0
0
0
0
0
0
0
0
0
0
0
0
0
0
0
0
0
0
0
0
0
0
0
0
0
0
0
0
0
0
0
0
0
0
0
0
0
0
0
0
0
0
0
0
0
0
0
0
0
0
0
0
0
0
0
0
0
0
0
0
0
0
0
0
0
0
0
0
0
0
0
0
0
0
0
0
0
0
0
0
0
0
0
0
0
0
0
0
0
0
0
0
0
0
0
0
0
0
0
0
0
0
0
0
0
0
0
0
0
0
0
0
0
0
0
0
0
0
0
0
0
0
0
0
0
0
0
0
0
0
0
0
0
0
0
0
0
0
0
0
0
0
0
0
0
0
0
0
0
0
0
0
0
0
0
0
0
0
0
0
0
0
0
0
0
0
0
0
0
0
0
0
0
0
0
0
0
0
0
0
0
0
0
0
0
0
0
0
0
0
0
0
0
0
0
0
0
0
0
0
0
0
0
0
0
0
0
0
0
0
0
0
0
0
0
0
0
0
0
0
0
0
0
0
0
0
0
0
0
0
0
0
0
0
0
0
0
0
0
0
0
0
0
0
0
0
0
0
0
0
0
0
0
0
0
0
0
0
0
0
0
0
0
0
0
0
0
0
0
0
0
0
0
0
0
0
0
0
0
0
0
0
0
0
0
0
0
0
0
0
0
0
0
0
0
0
0
0
0
0
0
0
0
0
0
0
0
0
0
0
0
0
0
0
0
0
0
0
0
0
0
0
0
0
0
0
0
0
0
0
0
0
0
0
0
0
0
0
0
0
0
0
0
0
0
0
0
0
0
0
0
0
0
0
0
0
0
0
0
0
0
0
0
0
0
0
0
0
0
0
0
0
0
0
0
0
0
0
0
0
0
0
0
0
0
0
0
0
0
0
0
0
0
0
0
0
0
0
0
0
0
0
0
0
0
0
0
0
0
0
0
0
0
0
0
0
0
0
0
0
0
0
0
0
0
0
0
0
0
0
0
0
0
0
0
0
0
0
0
0
0
0
0
0
0
0
0
0
0
0
0
0
0
0
0
0
0
0
0
0
0
0
0
0
0
0
0
0
0
0
0
0
0
0
0
0
0
0
0
0
0
0
0
0
0
0
0
0
0
0
0
0
0
0
0
0
0
0
0
0
0
0
0
0
0
0
0
0
0
0
0
0
0
0
0
0
0
0
0
0
0
0
0
0
0
0
0
0
0
0
0
0
0
0
0
0
0
0
0
0
0
0
0
0
0
0
0
0
0
0
0
0
0
0
0
0
0
0
0
0
0
0
0
0
0
0
0
0
0
0
0
0
0
0
0
0
0
0
0
0
0
0
0
0
0
0
0
0
0
0
0
0
0
0
0
0
0
0
0
0
0
0
0
0
0
0
0
0
0
0
0
0
0
0
0
0
0
0
0
0
0
0
0
0
0
0
0
0
0
0
0
0
0
0
0
0
0
0
0
0
0
0
0
0
0
0
0
0
0
0
0
0
0
0
0
0
0
0
0
0
0
0
0
0
0
0
0
0
0
0
0
0
0
0
0
0
0
0
0
0
0
0
0
0
0
0
0
0
0
0
0
0
0
0
0
0
0
0
0
0
0
0
0
0
0
0
0
0
0
0
0
0
0
0
0
0
0
0
0
0
0
0
0
0
0
0
0
0
0
0
0
0
0
0
0
0
0
0
0
0
0
0
0
0
0
0
0
0
0
0
0
0
0
0
0
0
0
0
0
0
0
0
0
0
0
0
0
0
0
0
0
0
0
0
0
0
0
0
0
0
0
0
0
0
0
0
0
0
0
0
0
0
0
0
0
0
0
0
0
0
0
0
0
0
0
0
0
0
0
0
0
0
0
0
0
0
0
0
0
0
0
0
0
0
0
0
0
0
0
0
0
0
0
0
0
0
0
0
0
0
0
0
0
0
0
0
0
0
0
0
0
0
0
0
0
0
0
0
0
0
0
0
0
0
0
0
0
0
0
0
0
0
0
0
0
0
0
0
0
0
0
0
0
0
0
0
0
0
0
0
0
0
0
0
0
0
0
0
0
0
0
0
0
0
0
0
0
0
0
0
0
0
0
0
0
0
0
0
0
0
0
0
0
0
0
0
0
0
0
0
0
0
0
0
0
0
0
0
0
0
0
0
0
0
0
0
0
0
0
0
0
0
0
0
0
0
0
0
0
0
0
0
0
0
0
0
0
0
0
0
0
0
0
0
0
0
0
0
0
0
0
0
0
0
0
0
0
0
0
0
0
0
0
0
0
0
0
0
0
0
0
0
0
0
0
0
0
0
0
0
0
0
0
0
0
0
0
0
0
0
0
0
0
0
0
0
0
0
0
0
0
0
0
0
0
0
0
0
0
0
0
0
0
0
0
0
0
0
0
0
0
0
0
0
0
0
0
0
0
0
0
0
0
0
0
0
0
0
0
0
0
0
0
0
0
0
0
0
0
0
0
0
0
0
0
0
0
0
0
0
0
0
0
0
0
0
0
0
0
0
0
0
0
0
0
0
0
0
0
0
0
0
0
0
0
0
0
0
0
0
0
0
0
0
0
0
0
0
0
0
0
0
0
0
0
0
0
0
0
0
0
0
0
0
0
0
0
0
0
0
0
0
0
0
0
0
0
0
0
0
0
0
0
0
0
0
0
0
0
0
0
0
0
0
0
0
0
0
0
0
0
0
0
0
0
0
0
0
0
0
0
0
0
0
0
0
0
0
0
0
0
0
0
0
0
0
0
0
0
0
0
0
0
0
0
0
0
0
0
0
0
0
0
0
0
0
0
0
0
0
0
0
0
0
0
0
0
0
0
0
0
0
0
0
0
0
0
0
0
0
0
0
0
0
0
0
0
0
0
0
0
0
0
0
0
0
0
0
0
0
0
0
0
0
0
0
0
0
0
0
0
0
0
0
0
0
0
0
0
0
0
0
0
0
0
0
0
0
0
0
0
0
0
0
0
0
0
0
0
0
0
0
0
0
0
0
0
0
0
0
0
0
0
0
0
0
0
0
0
0
0
0
0
0
0
0
0
0
0
0
0
0
0
0
0
0
0
0
0
0
0
0
0
0
0
0
0
0
0
0
0
0
0
0
0
0
0
0
0
0
0
0
0
0
0
0
0
0
0
0
0
0
0
0
0
0
0
0
0
0
0
0
0
0
0
0
0
0
0
0
0
0
0
0
0
0
0
0
0
0
0
0
0
0
0
0
0
0
0
0
0
0
0
0
0
0
0
0
0
0
0
0
0
0
0
0
0
0
0
0
0
0
0
0
0
0
0
0
0
0
0
0
0
0
0
0
0
0
0
0
0
0
0
0
0
0
0
0
0
0
0
0
0
0
0
0
0
0
0
0
0
0
0
0
0
0
0
0
0
0
0
0
0
0
0
0
0
0
0
0
0
0
0
0
0
0
0
0
0
0
0
0
0
0
0
0
0
0
0
0
0
0
0
0
0
0
0
0
0
0
0
0
0
0
0
0
0
0
0
0
0
0
0
0
0
0
0
0
0
0
0
0
0
0
0
0
0
0
0
0
0
0
0
0
0
0
0
0
0
0
0
0
0
0
0
0
0
0
0
0
0
0
0
0
0
0
0
0
0
0
0
0
0
0
0
0
0
0
0
0
0
0
0
0
0
0
0
0
0
0
0
0
0
0
0
0
0
0
0
0
0
0
0
0
0
0
0
0
0
0
0
0
0
0
0
0
0
0
0
0
0
0
0
0
0
0
0
0
0
0
0
0
0
0
0
0
0
0
0
0
0
0
0
0
0
0
0
0
0
0
0
0
0
0
0
0
0
0
0
0
0
0
0
0
0
0
0
0
0
0
0
0
0
0
0
0
0
0
0
0
0
0
0
0
0
0
0
0
0
0
0
0
0
0
0
0
0
0
0
0
0
0
0
0
0
0
0
0
0
0
0
0
0
0
0
0
0
0
0
0
0
0
0
0
0
0
0
0
0
0
0
0
0
0
0
0
0
0
0
0
0
0
0
0
0
0
0
0
0
0
0
0
0
0
0
0
0
0
0
0
0
0
0
0
0
0
0
0
0
0
0
0
0
0
0
0
0
0
0
0
0
0
0
0
0
0
0
0
0
0
0
0
0
0
0
0
0
0
0
0
0
0
0
0
0
0
0
0
0
0
0
0
0
0
0
0
0
0
0
0
0
0
0
0
0
0
0
0
0
0
0
0
0
0
0
0
0
0
0
0
0
0
0
0
0
0
0
0
0
0
0
0
0
0
0
0
0
0
0
0
0
0
0
0
0
0
0
0
0
0
0
0
0
0
0
0
0
0
0
0
0
0
0
0
0
0
0
0
0
0
0
0
0
0
0
0
0
0
0
0
0
0
0
0
0
0
0
0
0
0
0
0
0
0
0
0
0
0
0
0
0
0
0
0
0
0
0
0
0
0
0
0
0
0
0
0
0
0
0
0
0
0
0
0
0
0
0
0
0
0
0
0
0
0
0
0
0
0
0
0
0
0
0
0
0
0
0
0
0
0
0
0
0
0
0
0
0
0
0
0
0
0
0
0
0
0
0
0
0
0
0
0
0
0
0
0
0
0
0
0
0
0
0
0
0
0
0
0
0
0
0
0
0
0
0
0
0
0
0
0
0
0
0
0
0
0
0
0
0
0
0
0
0
0
0
0
0
0
0
0
0
0
0
0
0
0
0
0
0
0
0
0
0
0
0
0
0
0
0
0
0
0
0
0
0
0
0
0
0
0
0
0
0
0
0
0
0
0
0
0
0
0
0
0
0
0
0
0
0
0
0
0
0
0
0
0
0
0
0
0
0
0
0
0
0
0
0
0
0
0
0
0
0
0
0
0
0
0
0
0
0
0
0
0
0
0
0
0
0
0
0
0
0
0
0
0
0
0
0
0
0
0
0
0
0
0
0
0
0
0
0
0
0
0
0
0
0
0
0
0
0
0
0
0
0
0
0
0
0
0
0
0
0
0
0
0
0
0
0
0
0
0
0
0
0
0
0
0
0
0
0
0
0
0
0
0
0
0
0
0
0
0
0
0
0
0
0
0
0
0
0
0
0
0
0
0
0
0
0
0
0
0
0
0
0
0
0
0
0
0
0
0
0
0
0
0
0
0
0
0
0
0
0
0
0
0
0
0
0
0
0
0
0
0
0
0
0
0
0
0
0
0
0
0
0
0
0
0
0
0
0
0
0
0
0
0
0
0
0
0
0
0
0
0
0
0
0
0
0
0
0
0
0
0
0
0
0
0
0
0
0
0
0
0
0
0
0
0
0
0
0
0
0
0
0
0
0
0
0
0
0
0
0
0
0
0
0
0
0
0
0
0
0
0
0
0
0
0
0
0
0
0
0
0
0
0
0
0
0
0
0
0
0
0
0
0
0
0
0
0
0
0
0
0
0
0
0
0
0
0
0
0
0
0
0
0
0
0
0
0
0
0
0
0
0
0
0
0
0
0
0
0
0
0
0
0
0
0
0
0
0
0
0
0
0
0
0
0
0
0
0
0
0
0
0
0
0
0
0
0
0
0
0
0
0
0
0
0
0
0
0
0
0
0
0
0
0
0
0
0
0
0
0
0
0
0
0
0
0
0
0
0
0
0
0
0
0
0
0
0
0
0
0
0
0
0
0
0
0
0
0
0
0
0
0
0
0
0
0
0
0
0
0
0
0
0
0
0
0
0
0
0
0
0
0
0
0
0
0
0
0
0
0
0
0
0
0
0
0
0
0
0
0
0
0
0
0
0
0
0
0
0
0
0
0
0
0
0
0
0
0
0
0
0
0
0
0
0
0
0
0
0
0
0
0
0
0
0
0
0
0
0
0
0
0
0
0
0
0
0
0
0
0
0
0
0
0
0
0
0
0
0
0
0
0
0
0
0
0
0
0
0
0
0
0
0
0
0
0
0
0
0
0
0
0
0
0
0
0
0
0
0
0
0
0
0
0
0
0
0
0
0
0
0
0
0
0
0
0
0
0
0
0
0
0
0
0
0
0
0
0
0
0
0
0
0
0
0
0
0
0
0
0
0
0
0
0
0
0
0
0
0
0
0
0
0
0
0
0
0
0
0
0
0
0
0
0
0
0
0
0
0
0
0
0
0
0
0
0
0
0
0
0
0
0
0
0
0
0
0
0
0
0
0
0
0
0
0
0
0
0
0
0
0
0
0
0
0
0
0
0
0
0
0
0
0
0
0
0
0
0
0
0
0
0
0
0
0
0
0
0
0
0
0
0
0
0
0
0
0
0
0
0
0
0
0
0
0
0
0
0
0
0
0
0
0
0
0
0
0
0
0
0
0
0
0
0
0
0
0
0
0
0
0
0
0
0
0
0
0
0
0
0
0
0
0
0
0
0
0
0
0
0
0
0
0
0
0
0
0
0
0
0
0
0
0
0
0
0
0
0
0
0
0
0
0
0
0
0
0
0
0
0
0
0
0
0
0
0
0
0
0
0
0
0
0
0
0
0
0
0
0
0
0
0
0
0
0
0
0
0
0
0
0
0
0
0
0
0
0
0
0
0
0
0
0
0
0
0
0
0
0
0
0
0
0
0
0
0
0
0
0
0
0
0
0
0
0
0
0
0
0
0
0
0
0
0
0
0
0
0
0
0
0
0
0
0
0
0
0
0
0
0
0
0
0
0
0
0
0
0
0
0
0
0
0
0
0
0
0
0
0
0
0
0
0
0
0
0
0
0
0
0
0
0
0
0
0
0
0
0
0
0
0
0
0
0
0
0
0
0
0
0
0
0
0
0
0
0
0
0
0
0
0
0
0
0
0
0
0
0
0
0
0
0
0
0
0
0
0
0
0
0
0
0
0
0
0
0
0
0
0
0
0
0
0
0
0
0
0
0
0
0
0
0
0
0
0
0
0
0
0
0
0
0
0
0
0
0
0
0
0
0
0
0
0
0
0
0
0
0
0
0
0
0
0
0
0
0
0
0
0
0
0
0
0
0
0
0
0
0
0
0
0
0
0
0
0
0
0
0
0
0
0
0
0
0
0
0
0
0
0
0
0
0
0
0
0
0
0
0
0
0
0
0
0
0
0
0
0
0
0
0
0
0
0
0
0
0
0
0
0
0
0
0
0
0
0
0
0
0
0
0
0
0
0
0
0
0
0
0
0
0
0
0
0
0
0
0
0
0
0
0
0
0
0
0
0
0
0
0
0
0
0
0
0
0
0
0
0
0
0
0
0
0
0
0
0
0
0
0
0
0
0
0
0
0
0
0
0
0
0
0
0
0
0
0
0
0
0
0
0
0
0
0
0
0
0
0
0
0
0
0
0
0
0
0
0
0
0
0
0
0
0
0
0
0
0
0
0
0
0
0
0
0
0
0
0
0
0
0
0
0
0
0
0
0
0
0
0
0
0
0
0
0
0
0
0
0
0
0
0
0
0
0
0
0
0
0
0
0
0
0
0
0
0
0
0
0
0
0
0
0
0
0
0
0
0
0
0
0
0
0
0
0
0
0
0
0
0
0
0
0
0
0
0
0
0
0
0
0
0
0
0
0
0
0
0
0
0
0
0
0
0
0
0
0
0
0
0
0
0
0
0
0
0
0
0
0
0
0
0
0
0
0
0
0
0
0
0
0
0
0
0
0
0
0
0
0
0
0
0
0
0
0
0
0
0
0
0
0
0
0
0
0
0
0
0
0
0
0
0
0
0
0
0
0
0
0
0
0
0
0
0
0
0
0
0
0
0
0
0
0
0
0
0
0
0
0
0
0
0
0
0
0
0
0
0
0
0
0
0
0
0
0
0
0
0
0
0
0
0
0
0
0
0
0
0
0
0
0
0
0
0
0
0
0
0
0
0
0
0
0
0
0
0
0
0
0
0
0
0
0
0
0
0
0
0
0
0
0
0
0
0
0
0
0
0
0
0
0
0
0
0
0
0
0
0
0
0
0
0
0
0
0
0
0
0
0
0
0
0
0
0
0
0
0
0
0
0
0
0
0
0
0
0
0
0
0
0
0
0
0
0
0
0
0
0
0
0
0
0
0
0
0
0
0
0
0
0
0
0
0
0
0
0
0
0
0
0
0
0
0
0
0
0
0
0
0
0
0
0
0
0
0
0
0
0
0
0
0
0
0
0
0
0
0
0
0
0
0
