2.00175
4.30607
7.02863
9.50508
11.0639
11.2855
10.1515
8.02341
5.47996
3.10579
1.31916
0.28818
-0.0595444
0.0834984
0.275572
0.457358
0.61506
0.74511
0.856118
0.958429
1.05622
1.1514
1.24528
1.33901
1.43349
1.52929
1.62665
1.72544
1.82515
1.92508
2.02448
2.12278
2.21978
2.31565
2.41087
2.50609
2.60198
2.69922
2.7984
2.90022
3.00555
3.11544
3.23089
3.35257
3.48042
3.61349
3.74988
3.88726
4.0233
4.15601
4.28398
4.40638
4.52246
4.63058
4.72639
4.80222
4.84727
4.84926
4.79899
4.69485
4.54491
4.36525
4.17487
3.98941
3.81406
3.6464
3.48497
3.32881
3.17731
3.03076
2.89044
2.75832
2.63651
2.52674
2.43006
2.34625
2.274
2.21148
2.15687
2.10877
2.06632
2.02901
1.99656
1.9683
1.94201
1.91453
1.88284
1.84523
1.80226
1.75697
1.71429
1.67967
1.65757
1.65002
1.65655
1.67425
1.69863
1.72454
1.74744
1.76397
1.77151
1.76856
1.75481
1.73138
1.70076
1.66675
1.63407
1.60776
1.59238
1.59442
1.62262
1.67887
1.7461
1.8025
1.82969
1.82072
1.7847
1.74546
1.73406
1.77757
1.88553
2.0339
2.20718
2.39404
2.57734
2.73764
2.8601
2.93513
2.95806
2.92848
2.84974
2.72881
2.57612
2.40501
2.23067
2.06604
1.91762
1.78782
1.67958
1.59585
1.53547
1.4923
1.45835
1.42521
1.38536
1.33296
1.26411
1.17667
1.06975
0.932332
0.747262
0.521533
0.267188
0
0.10345
0.898448
2.51725
4.86699
7.58001
10.0919
11.8211
12.3735
11.6781
9.98818
7.7609
5.48636
3.54604
2.14678
1.32855
1.00955
1.09122
1.16509
1.23611
1.3049
1.37377
1.4462
1.52478
1.61181
1.70872
1.8154
1.93022
2.05043
2.17276
2.29411
2.41194
2.52446
2.63044
2.72869
2.81726
2.89314
2.9545
3.00079
3.03362
3.05793
3.08228
3.11761
3.17467
3.2607
3.3767
3.51274
3.65901
3.80271
3.93121
4.03472
4.10812
4.15156
4.16969
4.16995
4.16033
4.14737
4.13471
4.12224
4.10602
4.08007
4.03828
3.97578
3.88935
3.77669
3.63536
3.46209
3.25722
3.02342
2.76285
2.47787
2.173
1.85549
1.53468
1.22095
0.924406
0.653563
0.414405
0.210226
0.0416489
-0.09403
-0.202271
-0.289375
-0.361365
-0.423135
-0.478043
-0.527933
-0.573538
-0.615081
-0.652942
-0.687929
-0.721546
-0.756014
-0.793614
-0.836047
-0.883906
-0.936423
-0.991602
-1.04665
-1.09861
-1.1449
-1.18397
-1.2148
-1.23695
-1.25035
-1.25525
-1.25171
-1.23943
-1.21804
-1.1872
-1.14683
-1.09746
-1.04005
-0.975983
-0.906913
-0.834392
-0.759398
-0.681938
-0.600796
-0.513535
-0.416774
-0.306713
-0.17979
-0.033342
0.135139
0.334924
0.578949
0.858775
1.13007
1.3466
1.47466
1.49887
1.42398
1.27315
1.08262
0.892386
0.734717
0.613766
0.516927
0.434708
0.362656
0.298701
0.241445
0.189526
0.141461
0.0954056
0.0490944
0
-0.0555969
-0.11876
-0.191299
-0.274962
-0.370445
-0.475694
-0.587469
-0.701744
-0.635555
-0.0548576
1.30444
3.52307
6.34669
9.2001
11.3713
12.2853
11.7291
9.9188
7.38736
4.76684
2.57335
1.07886
0.29609
0.0539177
0.180974
0.323035
0.465797
0.60135
0.72102
0.821584
0.90707
0.981919
1.04959
1.11241
1.1719
1.22904
1.28428
1.33772
1.3894
1.43966
1.48928
1.53954
1.59201
1.64837
1.71008
1.77829
1.85397
1.93771
2.02963
2.12928
2.23558
2.3469
2.46121
2.57635
2.69034
2.8016
2.90911
3.01227
3.1107
3.20358
3.28916
3.36479
3.42766
3.4747
3.50326
3.51172
3.49956
3.46704
3.41441
3.34123
3.24611
3.12888
2.98978
2.82832
2.64459
2.44032
2.21885
1.98494
1.74431
1.50285
1.26631
1.04004
0.828766
0.636374
0.465702
0.318343
0.194564
0.0932648
0.011924
-0.0531776
-0.106165
-0.150928
-0.19056
-0.227022
-0.261094
-0.292618
-0.320948
-0.345405
-0.365643
-0.382179
-0.396177
-0.409121
-0.422386
-0.43688
-0.452872
-0.470053
-0.487751
-0.505205
-0.521781
-0.537004
-0.550391
-0.561319
-0.568889
-0.571952
-0.569192
-0.559332
-0.54137
-0.514742
-0.479367
-0.435529
-0.383633
-0.324002
-0.256567
-0.18062
-0.094886
0.00225296
0.114039
0.248777
0.422549
0.656734
0.95132
1.252
1.51789
1.72345
1.82966
1.78798
1.57284
1.2129
0.791938
0.420113
0.19536
0.077372
0.00187531
-0.0530609
-0.0915176
-0.115195
-0.125952
-0.125574
-0.115698
-0.0979385
-0.0737129
-0.0452065
-0.0178658
0
0.0076088
-0.013102
-0.0686539
-0.161156
-0.287459
-0.439413
-0.605051
-0.588805
-0.0449287
1.26416
3.37386
5.98349
8.48562
10.1834
10.5859
9.61458
7.60791
5.13902
2.77374
0.899409
-0.321638
-0.907999
-0.926427
-0.793772
-0.6639
-0.543769
-0.437405
-0.345131
-0.262163
-0.184023
-0.105654
-0.0227119
0.0671516
0.163818
0.266001
0.369854
0.470192
0.562301
0.643256
0.712729
0.773039
0.828484
0.884129
0.944474
1.01217
1.08746
1.16935
1.25654
1.34779
1.44257
1.54143
1.64595
1.75829
1.88047
2.01365
2.15786
2.31225
2.47273
2.63214
2.78159
2.91099
3.01049
3.07396
3.09765
3.08051
3.0247
2.93583
2.82227
2.69339
2.55706
2.41784
2.27678
2.13331
1.98621
1.83444
1.67772
1.51677
1.35328
1.18972
1.02891
0.873692
0.726498
0.589054
0.462128
0.345401
0.237567
0.136602
0.0401649
-0.0539383
-0.147324
-0.240723
-0.33382
-0.425276
-0.512844
-0.593465
-0.663675
-0.720375
-0.761211
-0.7849
-0.791447
-0.782152
-0.759375
-0.726106
-0.685442
-0.640115
-0.592278
-0.543367
-0.494354
-0.446239
-0.400591
-0.359467
-0.325282
-0.300214
-0.28549
-0.280888
-0.28467
-0.293964
-0.305444
-0.316055
-0.323827
-0.327742
-0.327061
-0.321116
-0.309129
-0.289902
-0.261683
-0.222298
-0.169275
-0.0959137
0.0161568
0.197968
0.454234
0.730032
0.96407
1.11201
1.15246
1.08424
0.923062
0.701135
0.46599
0.270876
0.135439
0.0429741
-0.0241722
-0.0743683
-0.109858
-0.131239
-0.139011
-0.133479
-0.11564
-0.0881084
-0.055241
-0.0231384
0
0.0106735
-0.00407257
-0.0500404
-0.129737
-0.241478
-0.379117
-0.551162
-0.601187
0.0669697
1.66002
4.04333
6.72845
9.02532
10.2962
10.199
8.81532
6.60368
4.20099
2.16816
0.80667
0.125994
-0.0528355
0.0931232
0.233143
0.367619
0.492265
0.603301
0.699317
0.780624
0.846049
0.896186
0.932897
0.959438
0.980438
1.00157
1.02889
1.0679
1.12262
1.1943
1.28119
1.38165
1.49363
1.6149
1.74333
1.87741
2.01595
2.15787
2.30191
2.44657
2.59008
2.73061
2.86653
2.9966
3.12006
3.23661
3.34624
3.4489
3.54397
3.62934
3.70055
3.75229
3.77894
3.77566
3.74025
3.67454
3.58458
3.47938
3.36862
3.26014
3.15709
3.05887
2.96453
2.87242
2.78048
2.68664
2.58912
2.48652
2.378
2.26319
2.14232
2.01624
1.8865
1.75519
1.62487
1.49824
1.3778
1.26553
1.16263
1.06935
0.98512
0.908741
0.838768
0.773904
0.713353
0.657035
0.605645
0.560527
0.523421
0.496114
0.48007
0.476186
0.484761
0.50546
0.536594
0.573695
0.610148
0.639791
0.658394
0.664716
0.660741
0.65088
0.640397
0.633633
0.632644
0.637074
0.645845
0.658183
0.674877
0.698793
0.734353
0.786112
0.856998
0.94588
1.04758
1.15714
1.26741
1.36964
1.45378
1.51051
1.53279
1.51554
1.45607
1.35482
1.21613
1.04857
0.864521
0.678749
0.505271
0.352251
0.223373
0.122216
0.0501984
0.00705223
-0.0103367
-0.00972061
-0.00250702
0
-0.0231159
-0.0681957
-0.139602
-0.238444
-0.36273
-0.507816
-0.667058
-0.832283
-0.969735
-0.655589
0.316505
2.03446
4.30471
6.64853
8.45166
9.20217
8.69514
7.098
4.85679
2.51027
0.511433
-0.876086
-1.59494
-1.74072
-1.4837
-1.22911
-1.00049
-0.827531
-0.727376
-0.666322
-0.62151
-0.585176
-0.554155
-0.526377
-0.499875
-0.472716
-0.442949
-0.408625
-0.367901
-0.319201
-0.261377
-0.193812
-0.116592
-0.0301922
0.064558
0.166478
0.274089
0.38567
0.499352
0.613276
0.725795
0.835659
0.942146
1.04507
1.14467
1.24138
1.33562
1.42748
1.51662
1.60223
1.68286
1.75702
1.82335
1.88085
1.92897
1.96744
1.99461
2.00734
2.00317
1.97841
1.92901
1.85196
1.74658
1.61531
1.46364
1.29923
1.13072
0.965146
0.806652
0.658341
0.522116
0.397979
0.284811
0.181064
0.086219
0.000922394
-0.0735024
-0.134483
-0.179154
-0.205556
-0.213616
-0.205587
-0.185792
-0.159838
-0.133565
-0.111622
-0.0966675
-0.09077
-0.0944626
-0.106714
-0.125097
-0.145953
-0.164681
-0.176208
-0.175606
-0.158799
-0.123228
-0.068866
0.00282669
0.0884712
0.183446
0.282075
0.376073
0.457691
0.5216
0.566238
0.594679
0.614629
0.637407
0.675967
0.74243
0.843515
0.978138
1.14703
1.36303
1.63594
1.94503
2.23642
2.46669
2.60929
2.65065
2.58982
2.44015
2.22935
1.99524
1.77737
1.59882
1.45409
1.33201
1.2263
1.1347
1.05707
0.993574
0.944746
0.911435
0.891425
0.877607
0.860968
0.832117
0.783024
0.70847
0.606745
0.47957
0.331427
0.169392
0
0.0621239
0.753086
2.35069
4.81189
7.68236
10.2289
11.7396
11.824
10.5519
8.3751
5.90132
3.65904
1.96082
0.893001
0.387879
0.419953
0.596927
0.780865
0.960425
1.1271
1.27719
1.41522
1.54588
1.67082
1.78923
1.9001
2.00203
2.09397
2.17589
2.24919
2.31659
2.38165
2.44796
2.51833
2.59402
2.6752
2.76151
2.85224
2.9467
3.04453
3.14593
3.25168
3.36301
3.48141
3.60836
3.74502
3.89201
4.0499
4.21985
4.40117
4.58522
4.75641
4.89794
4.9961
5.04396
5.04308
5.00237
4.93481
4.85315
4.76643
4.6779
4.5868
4.49104
4.38786
4.27423
4.14756
4.00634
3.85059
3.68194
3.50349
3.3193
3.13387
2.95155
2.77618
2.61095
2.45846
2.32085
2.1999
2.09704
2.0132
1.94856
1.90215
1.87182
1.85429
1.8454
1.84057
1.83531
1.82585
1.8096
1.78557
1.75448
1.71864
1.68158
1.64736
1.61992
1.60224
1.5959
1.60073
1.61508
1.63584
1.65797
1.67599
1.68559
1.68471
1.67422
1.65784
1.64131
1.63097
1.63217
1.64845
1.68
1.72365
1.77425
1.82626
1.87528
1.91911
1.95825
1.99568
2.0363
2.08546
2.15032
2.2488
2.40298
2.59381
2.77701
2.90198
2.92906
2.84286
2.65677
2.40808
2.14613
1.91743
1.73008
1.5705
1.43167
1.31271
1.21163
1.12531
1.04989
0.981121
0.914938
0.847878
0.777194
0.700846
0.618932
0.533267
0.446108
0.359301
0.273848
0.187007
0.0956078
0
-0.00557232
0.542527
1.94583
4.22839
7.03314
9.69393
11.4709
11.8446
10.7276
8.49307
5.81007
3.37127
1.64427
0.753315
0.523408
0.618289
0.670583
0.721497
0.771894
0.822652
0.87456
0.928198
0.983875
1.04164
1.10143
1.1632
1.22714
1.2937
1.36364
1.43779
1.51688
1.60131
1.69099
1.78548
1.88401
1.98568
2.08967
2.19536
2.30245
2.41097
2.52124
2.63373
2.74894
2.86715
2.98832
3.11182
3.23642
3.3603
3.4811
3.59629
3.7034
3.80037
3.88561
3.95809
4.01707
4.06183
4.09138
4.10431
4.09878
4.07273
4.02427
3.95217
3.85625
3.73758
3.59846
3.44218
3.2727
3.09405
2.91001
2.72391
2.53854
2.35619
2.17864
2.0073
1.84335
1.68783
1.54186
1.40681
1.28432
1.17622
1.0843
1.01023
0.955646
0.920573
0.900972
0.889884
0.879893
0.865004
0.842251
0.812472
0.779959
0.751019
0.731866
0.729176
0.745464
0.772271
0.796368
0.804896
0.790415
0.753765
0.703667
0.653396
0.61601
0.597248
0.593814
0.604023
0.624636
0.650397
0.675888
0.696792
0.710877
0.718533
0.722719
0.728356
0.741247
0.766796
0.808123
0.865582
0.93829
1.02437
1.12099
1.22492
1.33291
1.44227
1.5502
1.6527
1.7439
1.81728
1.86564
1.88252
1.86397
1.80965
1.72306
1.61057
1.48004
1.33997
1.19762
1.05755
0.923315
0.798349
0.685773
0.588168
0.50724
0.443905
0.398281
0.367506
0.343043
0.313839
0.268188
0.19572
0.0713612
-0.108774
-0.33316
-0.580886
-0.61266
0
1.46187
3.7734
6.64738
9.51544
11.6888
12.6091
12.07
10.2895
7.79866
5.2152
3.02567
1.47324
0.571114
0.188619
0.242977
0.303857
0.365456
0.427062
0.488257
0.549283
0.611172
0.675584
0.744675
0.820759
0.905879
1.00137
1.10754
1.22346
1.34711
1.47561
1.60576
1.73456
1.85971
1.97991
2.095
2.20574
2.31361
2.42037
2.52771
2.63697
2.74891
2.86367
2.98082
3.09944
3.21841
3.33652
3.45268
3.56593
3.67536
3.77988
3.87768
3.96587
4.04112
4.10011
4.13968
4.15763
4.15323
4.12724
4.08132
4.01719
3.93581
3.83842
3.7266
3.60142
3.4637
3.31515
3.1588
2.99873
2.83947
2.68534
2.5399
2.40499
2.28093
2.1669
2.06174
1.96457
1.87519
1.79407
1.72193
1.65939
1.60631
1.56126
1.5221
1.48656
1.45309
1.42136
1.39239
1.36812
1.35063
1.34262
1.34503
1.35267
1.35779
1.35288
1.33392
1.30256
1.26628
1.23629
1.22394
1.23663
1.27034
1.32426
1.39114
1.46012
1.51998
1.56134
1.57805
1.56783
1.53214
1.47571
1.40583
1.33159
1.26266
1.20838
1.17616
1.17026
1.19098
1.23486
1.29577
1.36675
1.44205
1.51835
1.59507
1.67305
1.75369
1.8383
1.92749
2.02104
2.11792
2.21639
2.31396
2.40679
2.48834
2.55012
2.58326
2.57884
2.53005
2.43473
2.29705
2.12759
1.94153
1.75553
1.582
1.42449
1.28478
1.16431
1.06265
0.977445
0.905205
0.842091
0.785075
0.731179
0.677927
0.623462
0.565969
0.502675
0.423196
0.3026
0.135233
-0.0647259
-0.323235
0
1.26968
3.55703
6.51048
9.44114
11.5765
12.3644
11.6785
9.82365
7.36242
4.87309
2.77008
1.25116
0.34196
-0.0350796
0.0925274
0.23917
0.378617
0.500765
0.598693
0.671677
0.729131
0.777783
0.8232
0.871215
0.927091
0.994444
1.07507
1.1691
1.27497
1.38968
1.50931
1.62971
1.74723
1.85944
1.96562
2.06688
2.16597
2.26666
2.37307
2.4889
2.61673
2.75755
2.9109
3.07481
3.24608
3.42077
3.59365
3.75755
3.90454
4.02785
4.12249
4.1856
4.21679
4.21822
4.1943
4.15096
4.09447
4.03003
3.96057
3.88614
3.80471
3.71367
3.60958
3.48985
3.35342
3.20098
3.0346
2.857
2.67081
2.47834
2.28081
2.0793
1.87545
1.6722
1.47494
1.2909
1.12819
0.994316
0.894602
0.83121
0.802773
0.804737
0.830247
0.873783
0.925615
0.973453
1.00681
1.01839
1.00534
0.969826
0.918731
0.862098
0.810694
0.77336
0.752151
0.744534
0.74734
0.757641
0.771481
0.784576
0.792852
0.792839
0.781951
0.758645
0.722519
0.674353
0.615855
0.549514
0.479747
0.412251
0.352979
0.307467
0.280201
0.27405
0.289853
0.326158
0.379194
0.444756
0.514724
0.57982
0.632772
0.670464
0.695206
0.714565
0.739618
0.782094
0.851247
0.947464
1.06545
1.2055
1.36295
1.52374
1.66874
1.7809
1.84785
1.86319
1.82679
1.7445
1.62742
1.49073
1.35179
1.22597
1.12088
1.03748
0.974227
0.930476
0.903613
0.889659
0.883987
0.881932
0.879135
0.871569
0.855043
0.825344
0.778023
0.708685
0.599562
0.426921
0.200636
-0.0564198
-0.319439
0
1.18946
3.32481
6.11235
8.92867
11.0277
11.8287
11.1426
9.22669
6.65554
4.0867
2.03372
0.738342
0.172223
0.135388
0.367789
0.57679
0.756556
0.89623
0.990217
1.05335
1.09193
1.11279
1.1245
1.13609
1.15574
1.18876
1.23706
1.30054
1.37775
1.46604
1.56188
1.66148
1.76134
1.85868
1.95172
2.03966
2.12249
2.2007
2.27494
2.34562
2.41315
2.47831
2.54233
2.60723
2.67574
2.75082
2.83483
2.92852
3.03035
3.13625
3.24048
3.33646
3.41794
3.47998
3.51944
3.53494
3.52641
3.49446
3.44035
3.36592
3.2721
3.15978
3.03031
2.88564
2.72835
2.56156
2.38864
2.21284
2.03728
1.86478
1.69783
1.53847
1.38832
1.24846
1.11948
1.00149
0.894214
0.797202
0.710009
0.63239
0.564397
0.506414
0.459019
0.422473
0.396577
0.381789
0.377138
0.379202
0.384603
0.391188
0.398919
0.409975
0.427896
0.456032
0.495869
0.545264
0.599784
0.654107
0.702483
0.739991
0.763527
0.772273
0.767593
0.752486
0.730798
0.706482
0.682954
0.662671
0.647299
0.638047
0.635704
0.640706
0.653199
0.673128
0.700365
0.734888
0.777071
0.82786
0.888847
0.962148
1.05005
1.1563
1.29261
1.47296
1.68432
1.88956
2.05089
2.14235
2.15533
2.09604
1.97805
1.81511
1.61814
1.39991
1.17443
0.952654
0.742643
0.55
0.378471
0.231508
0.112322
0.0233242
-0.0342802
-0.0615883
-0.0638679
-0.0519766
-0.0403297
-0.0424599
-0.0691753
-0.127127
-0.217946
-0.338077
-0.479353
-0.630244
-0.606313
0
1.34029
3.41151
5.92497
8.36142
10.1329
10.7934
10.2033
8.57007
6.35348
4.08337
2.17848
0.843388
0.0740271
-0.258
-0.164634
-0.0372093
0.137797
0.347486
0.558366
0.728209
0.846615
0.930017
0.993652
1.04542
1.09065
1.13492
1.18297
1.23802
1.30097
1.37101
1.44666
1.52627
1.60833
1.69193
1.77689
1.86379
1.95384
2.04864
2.14997
2.25949
2.37847
2.50752
2.6463
2.79335
2.9461
3.1007
3.24922
3.3807
3.48519
3.5559
3.5913
3.59607
3.58013
3.55592
3.53457
3.52242
3.51974
3.51892
3.50802
3.47491
3.41103
3.31326
3.18369
3.02765
2.85135
2.66153
2.46435
2.26382
2.06284
1.86458
1.67267
1.49106
1.32362
1.17364
1.04329
0.933594
0.844889
0.775842
0.721167
0.673474
0.625576
0.571954
0.509859
0.439742
0.364867
0.290232
0.221127
0.161047
0.11094
0.0710581
0.0406238
0.0180686
0.00157777
-0.010431
-0.0189941
-0.0245334
-0.0269868
-0.0260661
-0.0215553
-0.0135801
-0.00267391
0.0102189
0.0237863
0.0364221
0.0464587
0.0524952
0.0536401
0.0497031
0.0412679
0.0296073
0.0164397
0.00357223
-0.00748286
-0.0158632
-0.0214133
-0.0245302
-0.026088
-0.0269697
-0.0276059
-0.027623
-0.0256822
-0.0195553
-0.00640612
0.0168068
0.0529179
0.103818
0.170544
0.25373
0.353547
0.46958
0.60205
0.753239
0.927649
1.12941
1.35092
1.56432
1.73627
1.83322
1.82694
1.7031
1.46974
1.16142
0.836965
0.56834
0.38658
0.263812
0.174752
0.112917
0.0741277
0.0529175
0.0433578
0.0397809
0.0371974
0.0317678
0.0202598
0
-0.0313138
-0.0752034
-0.132992
-0.20694
-0.295875
-0.396238
-0.503384
-0.619942
-0.304855
0.597916
2.22798
4.51461
7.11308
9.46202
10.9628
11.2007
10.103
7.96363
5.32743
2.79717
0.845038
-0.305238
-0.694396
-0.518943
-0.228859
0.0307143
0.217986
0.339103
0.444197
0.548583
0.652955
0.756254
0.856829
0.952916
1.04353
1.12883
1.20947
1.28656
1.36181
1.43737
1.51561
1.59881
1.6889
1.78712
1.89386
2.00856
2.12987
2.25594
2.38486
2.51505
2.64565
2.77657
2.90841
3.04229
3.17944
3.32106
3.46802
3.62087
3.77973
3.94466
4.11591
4.29278
4.47034
4.63623
4.77441
4.86886
4.90784
4.88737
4.81246
4.69551
4.55217
4.39606
4.23515
4.07117
3.90357
3.73161
3.55467
3.37273
3.187
3.00005
2.81568
2.6385
2.47344
2.32493
2.1964
2.09018
2.00663
1.9442
1.90013
1.87102
1.85338
1.844
1.84018
1.83971
1.84089
1.84234
1.8432
1.84326
1.84301
1.84355
1.8462
1.85222
1.86251
1.8751
1.88573
1.88991
1.88532
1.87372
1.86112
1.85604
1.8663
1.9002
1.95387
2.01404
2.06468
2.09408
2.09983
2.08912
2.07467
2.06861
2.07753
2.09658
2.12067
2.14652
2.17122
2.19272
2.2102
2.22404
2.23545
2.24612
2.25775
2.27182
2.28954
2.31199
2.34028
2.37569
2.4196
2.47336
2.5383
2.61682
2.71013
2.81327
2.91337
2.99518
3.04483
3.05278
3.01516
2.93337
2.81236
2.65879
2.48003
2.28684
2.08867
1.89232
1.70319
1.52613
1.36538
1.2238
1.10252
1.0008
0.916191
0.844958
0.78261
0.724507
0.666267
0.603971
0.534261
0.453825
0.358728
0.248524
0.12709
0
-0.105343
0.22775
1.31928
3.32327
6.0492
8.93666
11.2227
12.2368
11.6822
9.75823
7.06406
4.33914
2.17807
0.853044
0.305791
0.272517
0.375994
0.473283
0.564849
0.651224
0.73443
0.816918
0.899825
0.983568
1.06811
1.15313
1.23829
1.3233
1.40789
1.49148
1.57245
1.64773
1.71379
1.76782
1.80967
1.84323
1.87656
1.92033
1.98514
2.07846
2.19915
2.34007
2.49501
2.65818
2.82366
2.98614
3.14173
3.28825
3.42533
3.5541
3.67666
3.79554
3.9131
4.0314
4.15159
4.27191
4.38469
4.4774
4.53567
4.54604
4.49894
4.39136
4.22811
4.02139
3.78832
3.5472
3.31244
3.0889
2.8769
2.67687
2.48943
2.31435
2.15082
1.99778
1.8543
1.7199
1.59465
1.47921
1.37461
1.28192
1.20201
1.13497
1.07965
1.0337
0.994021
0.957239
0.920229
0.880552
0.836759
0.788535
0.736692
0.683043
0.630145
0.581152
0.539318
0.507378
0.487083
0.478788
0.481269
0.491874
0.506864
0.522128
0.533894
0.539324
0.536838
0.52614
0.508025
0.48409
0.45652
0.427761
0.400149
0.375876
0.356692
0.343603
0.336666
0.334831
0.336131
0.338049
0.338015
0.333912
0.32448
0.309559
0.290104
0.268011
0.245711
0.225695
0.209977
0.199699
0.19517
0.194845
0.195505
0.193436
0.185421
0.169546
0.145591
0.1149
0.0798367
0.0430901
0.0070919
-0.0264503
-0.0563339
-0.0813129
-0.0998051
-0.110164
-0.110798
-0.100468
-0.0786758
-0.0459194
-0.00371933
0.0456795
0.0998463
0.156809
0.215559
0.276392
0.341096
0.4165
0.536424
0.804813
1.19944
1.6019
1.88071
1.94355
1.77955
1.4599
1.09635
0.786996
0.585058
0.446018
0.334385
0.239117
0.158051
0.0918057
0.0418804
0.0101788
-0.00241089
-0.000114441
0.00785408
0.0110683
0
-0.029501
-0.0832638
-0.160903
-0.259398
-0.37431
-0.500054
-0.632326
-0.767178
-0.869042
-0.507887
0.634298
2.68008
5.41524
8.30353
10.6496
11.8423
11.5733
9.94485
7.42167
4.65457
2.24819
0.572741
-0.307413
-0.573855
-0.483439
-0.381956
-0.279495
-0.177978
-0.0798508
0.0126945
0.0988133
0.178142
0.250836
0.317891
0.380967
0.441953
0.502888
0.566006
0.633545
0.707561
0.78972
0.881053
0.981735
1.09096
1.20698
1.32733
1.44926
1.57024
1.68847
1.8032
1.91486
2.0248
2.13501
2.24758
2.36439
2.48675
2.61542
2.75067
2.89278
3.04239
3.19938
3.35812
3.50549
3.62472
3.69955
3.71902
3.68069
3.59072
3.46132
3.30693
3.14113
2.97451
2.81142
2.65324
2.50055
2.35374
2.21308
2.07875
1.95109
1.8307
1.71849
1.61547
1.5224
1.43954
1.36613
1.29939
1.23511
1.16807
1.09285
1.00465
0.900207
0.778465
0.640948
0.491792
0.337596
0.185706
0.0436993
-0.0803324
-0.174535
-0.225643
-0.238831
-0.232118
-0.226407
-0.237883
-0.272248
-0.323185
-0.375667
-0.412651
-0.422232
-0.408937
-0.381992
-0.346404
-0.307926
-0.271711
-0.24132
-0.218248
-0.202006
-0.190589
-0.181141
-0.170683
-0.156828
-0.137813
-0.112544
-0.0806912
-0.0427148
0.000244141
0.0463846
0.0933802
0.138499
0.178693
0.210929
0.23296
0.243612
0.243215
0.233868
0.219398
0.204939
0.196092
0.197838
0.21333
0.24467
0.291827
0.348003
0.403627
0.449554
0.479549
0.491704
0.488363
0.474666
0.456327
0.437516
0.419487
0.401362
0.381479
0.358153
0.330517
0.299022
0.265449
0.232464
0.202872
0.178616
0.160125
0.146986
0.137849
0.130284
0.120989
0.106591
0.0842792
0.0523292
0.0104638
-0.0400312
-0.0964517
-0.155049
-0.211567
-0.261776
-0.302146
-0.330271
-0.345102
-0.346924
-0.337062
-0.317396
-0.289785
-0.255578
-0.215509
-0.169683
-0.117348
-0.0574677
0.0110531
0.0890179
0.177133
0.276066
0.38749
0.517896
0.677651
0.859333
1.03296
1.16239
1.21921
1.19388
1.0971
0.950956
0.776282
0.585113
0.385313
0.183704
-0.0120459
-0.189797
-0.335457
-0.436934
-0.48765
-0.488071
-0.445087
-0.370251
-0.277986
-0.184324
-0.101286
-0.0359104
0.00499535
0.0172585
0
-0.0792955
-0.179805
-0.293488
-0.411102
-0.457816
0.124551
1.50179
3.73896
6.58964
9.49495
11.732
12.6772
12.0672
10.1204
7.44068
4.75383
2.62537
1.30731
0.757136
0.763509
0.979165
1.1637
1.33822
1.5039
1.66469
1.82543
1.99071
2.16464
2.35018
2.54896
2.7614
2.98743
3.2272
3.48172
3.75325
4.04515
4.36137
4.70578
5.08132
5.48953
5.93035
6.40221
6.90249
7.42799
7.97534
8.54117
9.12206
9.71433
10.3137
10.9151
11.5125
12.099
12.6674
13.2102
13.72
14.1904
14.6158
14.9917
15.3154
15.5854
15.802
15.967
16.0837
16.1566
16.1912
16.1936
16.1698
16.1256
16.0662
15.9959
15.918
15.8353
15.7494
15.6617
15.5729
15.4836
15.394
15.3042
15.2144
15.1247
15.0351
14.9456
14.8562
14.767
14.678
14.5891
14.5005
14.412
14.3238
14.2358
14.148
14.0605
13.9732
13.8862
13.7995
13.7131
13.627
13.5412
13.4557
13.3706
13.2858
13.2014
13.1173
13.0336
12.9503
12.8674
12.7848
12.7028
12.6211
12.5399
12.4591
12.3788
12.2989
12.2196
12.1407
12.0623
11.9845
11.9071
11.8303
11.7541
11.6784
11.6032
11.5287
11.4547
11.3813
11.3085
11.2364
11.1648
11.0939
11.0237
10.9541
10.8852
10.8169
10.7494
10.6825
10.6164
10.551
10.4863
10.4223
10.3591
10.2967
10.235
10.1742
10.1141
10.0548
9.99631
9.93864
9.88179
9.82576
9.77053
9.71607
9.66231
9.60915
9.55636
9.50363
9.45045
9.39608
9.33959
9.27977
9.2153
9.14482
9.06716
8.98154
8.88778
8.78637
8.67844
8.56551
8.449
8.3297
8.20716
8.07925
7.94206
7.79016
7.6172
7.41694
7.18434
6.91663
6.6141
6.2804
5.92244
5.54957
5.17193
4.79949
4.44076
4.10177
3.78554
3.49205
3.2187
2.96112
2.71414
2.47267
2.23238
1.99003
1.74363
1.49224
1.23581
0.974744
0.709619
0.441895
0.169012
0
0.386476
1.53109
3.38384
5.52787
7.38928
8.53472
8.80237
8.21141
6.84023
4.8466
2.56783
0.494174
-0.952104
-1.6515
-1.68835
-1.68013
-1.66787
-1.65386
-1.64048
-1.62979
-1.62325
-1.62144
-1.62392
-1.62922
-1.63489
-1.63786
-1.63487
-1.62286
-1.59889
-1.56106
-1.51058
-1.45028
-1.38372
-1.31407
-1.24335
-1.17193
-1.09872
-1.02175
-0.938939
-0.849265
-0.752409
-0.648153
-0.536565
-0.417792
-0.291846
-0.158545
-0.0176056
0.131236
0.288189
0.45257
0.621555
0.789371
0.948288
1.08999
1.20685
1.29299
1.34493
1.36169
1.3444
1.29549
1.21806
1.11708
0.99735
0.862159
0.713
0.550565
0.375714
0.18966
-0.00590897
-0.208769
-0.416187
-0.624988
-0.831661
-1.03248
-1.22364
-1.40145
-1.56257
-1.70427
-1.82469
-1.92312
-2.00008
-2.05727
-2.09743
-2.12396
-2.14061
-2.15108
-2.15871
-2.16625
-2.17562
-2.18782
-2.2028
-2.21957
-2.23624
-2.25038
-2.25939
-2.26089
-2.25314
-2.23524
-2.2074
-2.17071
-2.12685
-2.0777
-2.02509
-1.97059
-1.91556
-1.86123
-1.80887
-1.75975
-1.71506
-1.67569
-1.64196
-1.61348
-1.58914
-1.56725
-1.54581
-1.52282
-1.4965
-1.46541
-1.42857
-1.38554
-1.33634
-1.2816
-1.22243
-1.16026
-1.09658
-1.03271
-0.969597
-0.907689
-0.847025
-0.787378
-0.728497
-0.670334
-0.61318
-0.557684
-0.504752
-0.455363
-0.410333
-0.370112
-0.334612
-0.303136
-0.274368
-0.24646
-0.217171
-0.184062
-0.144704
-0.0968686
-0.0387198
0.0310971
0.113405
0.208473
0.316031
0.435547
0.566001
0.70505
0.848127
0.988034
1.11557
1.22095
1.29507
1.33087
1.32465
1.27691
1.19241
1.07946
0.948483
0.810709
0.674797
0.546078
0.429107
0.327442
0.243766
0.179992
0.13723
0.115608
0.1142
0.13103
0.162175
0.199543
0.231731
0.246309
0.231489
0.157793
-0.00643234
-0.247598
-0.548791
-0.658025
0
1.65584
4.19627
7.16251
9.85742
11.5784
11.872
10.6979
8.43312
5.71603
3.207
1.37198
0.37436
0.0997643
0.295234
0.4925
0.680041
0.850351
0.998416
1.12461
1.2318
1.3228
1.40176
1.47353
1.54306
1.61485
1.69243
1.77832
1.8742
1.98086
2.09809
2.22467
2.35847
2.4969
2.63678
2.77496
2.90902
3.03766
3.16074
3.27895
3.39331
3.50461
3.61288
3.71758
3.81775
3.91273
4.00266
4.08874
4.17307
4.25799
4.34573
4.43692
4.52791
4.61025
4.67303
4.70548
4.69953
4.65146
4.56239
4.43758
4.28478
4.11238
3.92934
3.74163
3.5524
3.36351
3.17638
2.99208
2.81144
2.6351
2.46359
2.2973
2.13654
1.98157
1.83267
1.69016
1.55442
1.42588
1.30497
1.19207
1.08741
0.991026
0.902737
0.82215
0.748687
0.681727
0.620697
0.565125
0.514612
0.46905
0.428254
0.391511
0.358089
0.327486
0.299667
0.275153
0.254862
0.239754
0.230427
0.22658
0.227412
0.232041
0.239606
0.24957
0.261871
0.276852
0.295032
0.316677
0.341624
0.369188
0.397791
0.424946
0.447795
0.463685
0.470748
0.468404
0.457646
0.441052
0.422478
0.406444
0.397146
0.397771
0.413216
0.445847
0.487803
0.527161
0.552313
0.556177
0.538857
0.507553
0.4737
0.448597
0.439414
0.443439
0.455527
0.472041
0.489749
0.505904
0.518755
0.527778
0.533632
0.537912
0.542788
0.550607
0.563605
0.583746
0.612576
0.651177
0.700153
0.75958
0.828886
0.906741
0.991233
1.07948
1.16752
1.25077
1.32413
1.38176
1.41754
1.42734
1.40835
1.35972
1.28311
1.18302
1.06671
0.943362
0.822752
0.713309
0.618874
0.54098
0.480183
0.434653
0.400243
0.371677
0.343504
0.310743
0.269245
0.215784
0.147945
0.0639374
-0.0442276
-0.19494
-0.385516
-0.607621
-0.847014
-0.803204
0
1.76803
4.3677
7.296
9.83199
11.3099
11.3822
10.1371
8.01948
5.61109
3.403
1.6723
0.490507
-0.194681
-0.356892
-0.31834
-0.218872
-0.0711929
0.100709
0.271142
0.417724
0.537513
0.637108
0.722363
0.797449
0.865527
0.929179
0.99076
1.05264
1.11714
1.18643
1.26238
1.34649
1.43975
1.54255
1.65462
1.77504
1.90235
2.03477
2.17053
2.30821
2.44703
2.58697
2.72872
2.87328
3.02152
3.17353
3.32824
3.48323
3.63471
3.77801
3.90828
4.021
4.11259
4.18096
4.2253
4.2458
4.24341
4.21947
4.17549
4.11292
4.0331
3.93707
3.82588
3.70041
3.56151
3.41014
3.24773
3.07655
2.89976
2.72123
2.54514
2.3755
2.21547
2.06708
1.93113
1.80742
1.69516
1.59344
1.50153
1.41915
1.34635
1.28347
1.23095
1.18897
1.15739
1.13565
1.1228
1.11758
1.11854
1.12421
1.13313
1.14391
1.15523
1.1657
1.17389
1.17845
1.17834
1.17303
1.16275
1.1485
1.132
1.11538
1.1008
1.08996
1.08374
1.08236
1.08524
1.09121
1.09859
1.10554
1.11039
1.11205
1.1102
1.10525
1.09819
1.0902
1.08225
1.07486
1.06783
1.06059
1.05277
1.04472
1.03775
1.03392
1.0355
1.04431
1.06093
1.08477
1.1156
1.15328
1.19817
1.25137
1.3146
1.39096
1.48929
1.63157
1.8506
2.1317
2.41135
2.62507
2.71954
2.66764
2.47613
2.18014
1.83047
1.48608
1.20425
0.988556
0.817217
0.677454
0.569074
0.492402
0.445654
0.425185
0.425895
0.441677
0.465808
0.491343
0.50974
0.512089
0.490431
0.438582
0.353321
0.229656
0.0747086
-0.0991646
-0.342538
0
1.21617
3.38031
6.21653
9.13505
11.4114
12.4501
12.0085
10.2773
7.78163
5.16398
2.9565
1.44171
0.638052
0.384488
0.519576
0.674582
0.830132
0.979395
1.11661
1.24085
1.35552
1.46319
1.56545
1.66352
1.75861
1.8521
1.94557
2.04077
2.13947
2.24332
2.35367
2.47144
2.59697
2.72997
2.86948
3.01398
3.16157
3.31023
3.45819
3.60413
3.7475
3.88856
4.02828
4.16811
4.30963
4.45419
4.60247
4.75432
4.90857
5.06301
5.21398
5.35596
5.48149
5.58286
5.65451
5.69261
5.69556
5.66428
5.60197
5.51339
5.40366
5.27691
5.13629
4.9843
4.82236
4.65103
4.47066
4.2823
4.08811
3.89134
3.69615
3.50719
3.32914
3.16612
3.02123
2.89625
2.79141
2.70554
2.63648
2.58106
2.53511
2.49457
2.45596
2.41679
2.37573
2.33257
2.2881
2.24374
2.2013
2.16253
2.12917
2.10264
2.0839
2.07331
2.07045
2.0743
2.08307
2.09382
2.10303
2.10756
2.1053
2.09564
2.07952
2.05911
2.03712
2.01605
1.9975
1.98172
1.96816
1.95588
1.94388
1.93153
1.91888
1.9067
1.89628
1.8891
1.88628
1.88848
1.89527
1.90424
1.9116
1.91339
1.90674
1.89091
1.86779
1.84175
1.81875
1.80503
1.80535
1.82094
1.85029
1.89076
1.93939
1.99174
2.04248
2.08712
2.1231
2.15044
2.17193
2.19275
2.21961
2.26128
2.3416
2.49471
2.70352
2.91203
3.06389
3.1233
3.08276
2.95728
2.77197
2.55236
2.32298
2.10743
1.91665
1.75287
1.61541
1.50296
1.41567
1.35526
1.32271
1.31526
1.32475
1.34014
1.34989
1.34321
1.31086
1.24581
1.14356
0.99581
0.771101
0.483868
0.156053
-0.20618
0
1.05726
3.09351
5.89262
8.90119
11.3888
12.7088
12.5411
10.9977
8.54813
5.81759
3.36453
1.53687
0.442587
0.00214996
0.0814171
0.212025
0.334386
0.438882
0.520348
0.580405
0.627818
0.667731
0.704026
0.740416
0.780069
0.825583
0.878977
0.941669
1.01453
1.09777
1.19084
1.29236
1.40015
1.51139
1.62295
1.73146
1.8344
1.93076
2.02135
2.10873
2.19671
2.2894
2.39029
2.50144
2.62242
2.75134
2.88558
3.02192
3.15681
3.28668
3.40787
3.51733
3.61255
3.69149
3.75251
3.79338
3.81106
3.80404
3.77082
3.71009
3.62124
3.50475
3.36258
3.19822
3.01647
2.82308
2.62444
2.42552
2.23031
2.04194
1.8626
1.69354
1.5353
1.38802
1.2517
1.12642
1.01241
0.90999
0.819378
0.740474
0.672552
0.614321
0.56423
0.520807
0.482981
0.450284
0.422806
0.400926
0.384945
0.374794
0.369867
0.368629
0.369171
0.369659
0.368775
0.365965
0.361425
0.355854
0.350092
0.34477
0.340104
0.335939
0.331852
0.327282
0.321655
0.314489
0.305447
0.294373
0.281314
0.266562
0.250689
0.234577
0.219396
0.20652
0.197353
0.193115
0.194609
0.202044
0.214953
0.232308
0.252699
0.274508
0.29641
0.31771
0.33853
0.35982
0.383196
0.410689
0.444487
0.486752
0.539228
0.603453
0.680837
0.772237
0.877597
0.997759
1.13279
1.27435
1.40735
1.51587
1.58678
1.61237
1.59092
1.52557
1.42244
1.28918
1.1363
0.975048
0.814152
0.661321
0.523917
0.408001
0.317395
0.253056
0.212962
0.192574
0.185732
0.185725
0.186218
0.182408
0.170791
0.148547
0.113577
0.0644329
0.000290298
-0.0819889
-0.181871
-0.29511
-0.41549
-0.508247
0
1.38085
3.65009
6.43304
9.05652
10.7926
11.1538
10.0846
7.95589
5.38144
2.96895
1.13106
0.0175537
-0.444233
-0.41061
-0.327837
-0.247145
-0.171745
-0.102695
-0.0385021
0.0243843
0.0898911
0.161647
0.24202
0.331246
0.427777
0.529161
0.63251
0.735052
0.834654
0.93009
1.02101
1.10773
1.19089
1.27116
1.34907
1.42498
1.49925
1.57239
1.6453
1.71937
1.79646
1.87874
1.96838
2.0672
2.17636
2.2961
2.42558
2.56292
2.70557
2.84977
2.98876
3.11351
3.21554
3.28763
3.32512
3.32666
3.29442
3.23338
3.14999
3.05038
2.93921
2.81883
2.68943
2.55037
2.40111
2.24176
2.07354
1.89942
1.72395
1.55283
1.39186
1.24602
1.11874
1.01158
0.924297
0.855287
0.802102
0.761903
0.732033
0.710148
0.694358
0.683244
0.675959
0.672287
0.672656
0.678073
0.689962
0.709903
0.739346
0.779239
0.829861
0.890772
0.960686
1.0375
1.11849
1.1996
1.2753
1.34004
1.38947
1.42136
1.43624
1.43743
1.43036
1.42119
1.41519
1.41534
1.42113
1.43015
1.43877
1.44308
1.43994
1.42762
1.40615
1.37704
1.34286
1.30677
1.27164
1.2398
1.21324
1.19356
1.18217
1.18025
1.1891
1.2102
1.24516
1.29558
1.36265
1.44676
1.54725
1.66206
1.78855
1.92369
2.06421
2.20569
2.34007
2.45591
2.5404
2.57893
2.55907
2.47568
2.33463
2.15272
1.9538
1.76247
1.59316
1.44502
1.31409
1.19869
1.0978
1.00979
0.932815
0.865035
0.804654
0.749963
0.698832
0.648008
0.593347
0.530204
0.454006
0.360964
0.245208
0.0984229
-0.074917
-0.266453
-0.465398
-0.507043
0
1.25961
3.28997
5.80213
8.25165
10.0206
10.6416
9.96293
8.18941
5.79371
3.34106
1.30032
-0.0851122
-0.819525
-1.05506
-0.965118
-0.876669
-0.793614
-0.719295
-0.655884
-0.603363
-0.558966
-0.519832
-0.482254
-0.442501
-0.397712
-0.346583
-0.290014
-0.230084
-0.169402
-0.110759
-0.0565688
-0.00813664
0.0346473
0.0733959
0.111046
0.151449
0.198791
0.256936
0.328798
0.415796
0.51733
0.631318
0.754429
0.882365
1.01045
1.13424
1.25029
1.35678
1.45382
1.54347
1.62936
1.71605
1.811
1.92653
2.06198
2.1944
2.29258
2.33004
2.29455
2.18969
2.02899
1.82729
1.59509
1.34309
1.08093
8
164
319
472
625
774
922
1074
1228
1390
1552
1708
1874
2038
2225
2441
2637
2823
3009
3177
3352
3523
3690
3534
3689
0
0
0
0
0
0
0
0
0
0
0
0
0
0
0
0
0
0
0
0
0
0
0
0
0
0
0
0
0
0
0
0
0
0
0
0
0
0
0
0
0
0
0
0
0
0
0
0
0
0
0
0
0
0
0
0
0
0
0
0
0
0
0
0
0
0
0
0
0
0
0
0
0
0
0
0
0
0
0
0
0
0
0
0
0
0
0
0
0
0
0
0
0
0
0
0
0
0
0
0
0
0
0
0
0
0
0
0
0
0
0
0
0
0
0
0
0
0
0
0
0
0
0
0
0
0
0
0
0
0
0
0
0
0
0
0
0
0
0
0
0
0
0
0
0
0
0
0
0
0
0
0
0
0
0
0
0
0
0
0
0
0
0
0
0
0
0
0
0
0
0
0
0
0
0
0
0
0
0
0
0
0
0
0
0
0
0
0
0
0
0
0
0
0
0
0
0
0
0
0
0
0
0
0
0
0
0
0
0
0
0
0
0
0
0
0
0
0
0
0
0
0
0
0
0
0
0
0
0
0
0
0
0
0
0
0
0
0
0
0
0
0
0
0
0
0
0
0
0
0
0
0
0
0
0
0
0
0
0
0
0
0
0
0
0
0
0
0
0
0
0
0
0
0
0
0
0
0
0
0
0
0
0
0
0
0
0
0
0
0
0
0
0
0
0
0
0
0
0
0
0
0
0
0
0
0
0
0
0
0
0
0
0
0
0
0
0
0
0
0
0
0
0
0
0
0
0
0
0
0
0
0
0
0
0
0
0
0
0
0
0
0
0
0
0
0
0
0
0
0
0
0
0
0
0
0
0
0
0
0
0
0
0
0
0
0
0
0
0
0
0
0
0
0
0
0
0
0
0
0
0
0
0
0
0
0
0
0
0
0
0
0
0
0
0
0
0
0
0
0
0
0
0
0
0
0
0
0
0
0
0
0
0
0
0
0
0
0
0
0
0
0
0
0
0
0
0
0
0
0
0
0
0
0
0
0
0
0
0
0
0
0
0
0
0
0
0
0
0
0
0
0
0
0
0
0
0
0
0
0
0
0
0
0
0
0
0
0
0
0
0
0
0
0
0
0
0
0
0
0
0
0
0
0
0
0
0
0
0
0
0
0
0
0
0
0
0
0
0
0
0
0
0
0
0
0
0
0
0
0
0
0
0
0
0
0
0
0
0
0
0
0
0
0
0
0
0
0
0
0
0
0
0
0
0
0
0
0
0
0
0
0
0
0
0
0
0
0
0
0
0
0
0
0
0
0
0
0
0
0
0
0
0
0
0
0
0
0
0
0
0
0
0
0
0
0
0
0
0
0
0
0
0
0
0
0
0
0
0
0
0
0
0
0
0
0
0
0
0
0
0
0
0
0
0
0
0
0
0
0
0
0
0
0
0
0
0
0
0
0
0
0
0
0
0
0
0
0
0
0
0
0
0
0
0
0
0
0
0
0
0
0
0
0
0
0
0
0
0
0
0
0
0
0
0
0
0
0
0
0
0
0
0
0
0
0
0
0
0
0
0
0
0
0
0
0
0
0
0
0
0
0
0
0
0
0
0
0
0
0
0
0
0
0
0
0
0
0
0
0
0
0
0
0
0
0
0
0
0
0
0
0
0
0
0
0
0
0
0
0
0
0
0
0
0
0
0
0
0
0
0
0
0
0
0
0
0
0
0
0
0
0
0
0
0
0
0
0
0
0
0
0
0
0
0
0
0
0
0
0
0
0
0
0
0
0
0
0
0
0
0
0
0
0
0
0
0
0
0
0
0
0
0
0
0
0
0
0
0
0
0
0
0
0
0
0
0
0
0
0
0
0
0
0
0
0
0
0
0
0
0
0
0
0
0
0
0
0
0
0
0
0
0
0
0
0
0
0
0
0
0
0
0
0
0
0
0
0
0
0
0
0
0
0
0
0
0
0
0
0
0
0
0
0
0
0
0
0
0
0
0
0
0
0
0
0
0
0
0
0
0
0
0
0
0
0
0
0
0
0
0
0
0
0
0
0
0
0
0
0
0
0
0
0
0
0
0
0
0
0
0
0
0
0
0
0
0
0
0
0
0
0
0
0
0
0
0
0
0
0
0
0
0
0
0
0
0
0
0
0
0
0
0
0
0
0
0
0
0
0
0
0
0
0
0
0
0
0
0
0
0
0
0
0
0
0
0
0
0
0
0
0
0
0
0
0
0
0
0
0
0
0
0
0
0
0
0
0
0
0
0
0
0
0
0
0
0
0
0
0
0
0
0
0
0
0
0
0
0
0
0
0
0
0
0
0
0
0
0
0
0
0
0
0
0
0
0
0
0
0
0
0
0
0
0
0
0
0
0
0
0
0
0
0
0
0
0
0
0
0
0
0
0
0
0
0
0
0
0
0
0
0
0
0
0
0
0
0
0
0
0
0
0
0
0
0
0
0
0
0
0
0
0
0
0
0
0
0
0
0
0
0
0
0
0
0
0
0
0
0
0
0
0
0
0
0
0
0
0
0
0
0
0
0
0
0
0
0
0
0
0
0
0
0
0
0
0
0
0
0
0
0
0
0
0
0
0
0
0
0
0
0
0
0
0
0
0
0
0
0
0
0
0
0
0
0
0
0
0
0
0
0
0
0
0
0
0
0
0
0
0
0
0
0
0
0
0
0
0
0
0
0
0
0
0
0
0
0
0
0
0
0
0
0
0
0
0
0
0
0
0
0
0
0
0
0
0
0
0
0
0
0
0
0
0
0
0
0
0
0
0
0
0
0
0
0
0
0
0
0
0
0
0
0
0
0
0
0
0
0
0
0
0
0
0
0
0
0
0
0
0
0
0
0
0
0
0
0
0
0
0
0
0
0
0
0
0
0
0
0
0
0
0
0
0
0
0
0
0
0
0
0
0
0
0
0
0
0
0
0
0
0
0
0
0
0
0
0
0
0
0
0
0
0
0
0
0
0
0
0
0
0
0
0
0
0
0
0
0
0
0
0
0
0
0
0
0
0
0
0
0
0
0
0
0
0
0
0
0
0
0
0
0
0
0
0
0
0
0
0
0
0
0
0
0
0
0
0
0
0
0
0
0
0
0
0
0
0
0
0
0
0
0
0
0
0
0
0
0
0
0
0
0
0
0
0
0
0
0
0
0
0
0
0
0
0
0
0
0
0
0
0
0
0
0
0
0
0
0
0
0
0
0
0
0
0
0
0
0
0
0
0
0
0
0
0
0
0
0
0
0
0
0
0
0
0
0
0
0
0
0
0
0
0
0
0
0
0
0
0
0
0
0
0
0
0
0
0
0
0
0
0
0
0
0
0
0
0
0
0
0
0
0
0
0
0
0
0
0
0
0
0
0
0
0
0
0
0
0
0
0
0
0
0
0
0
0
0
0
0
0
0
0
0
0
0
0
0
0
0
0
0
0
0
0
0
0
0
0
0
0
0
0
0
0
0
0
0
0
0
0
0
0
0
0
0
0
0
0
0
0
0
0
0
0
0
0
0
0
0
0
0
0
0
0
0
0
0
0
0
0
0
0
0
0
0
0
0
0
0
0
0
0
0
0
0
0
0
0
0
0
0
0
0
0
0
0
0
0
0
0
0
0
0
0
0
0
0
0
0
0
0
0
0
0
0
0
0
0
0
0
0
0
0
0
0
0
0
0
0
0
0
0
0
0
0
0
0
0
0
0
0
0
0
0
0
0
0
0
0
0
0
0
0
0
0
0
0
0
0
0
0
0
0
0
0
0
0
0
0
0
0
0
0
0
0
0
0
0
0
0
0
0
0
0
0
0
0
0
0
0
0
0
0
0
0
0
0
0
0
0
0
0
0
0
0
0
0
0
0
0
0
0
0
0
0
0
0
0
0
0
0
0
0
0
0
0
0
0
0
0
0
0
0
0
0
0
0
0
0
0
0
0
0
0
0
0
0
0
0
0
0
0
0
0
0
0
0
0
0
0
0
0
0
0
0
0
0
0
0
0
0
0
0
0
0
0
0
0
0
0
0
0
0
0
0
0
0
0
0
0
0
0
0
0
0
0
0
0
0
0
0
0
0
0
0
0
0
0
0
0
0
0
0
0
0
0
0
0
0
0
0
0
0
0
0
0
0
0
0
0
0
0
0
0
0
0
0
0
0
0
0
0
0
0
0
0
0
0
0
0
0
0
0
0
0
0
0
0
0
0
0
0
0
0
0
0
0
0
0
0
0
0
0
0
0
0
0
0
0
0
0
0
0
0
0
0
0
0
0
0
0
0
0
0
0
0
0
0
0
0
0
0
0
0
0
0
0
0
0
0
0
0
0
0
0
0
0
0
0
0
0
0
0
0
0
0
0
0
0
0
0
0
0
0
0
0
0
0
0
0
0
0
0
0
0
0
0
0
0
0
0
0
0
0
0
0
0
0
0
0
0
0
0
0
0
0
0
0
0
0
0
0
0
0
0
0
0
0
0
0
0
0
0
0
0
0
0
0
0
0
0
0
0
0
0
0
0
0
0
0
0
0
0
0
0
0
0
0
0
0
0
0
0
0
0
0
0
0
0
0
0
0
0
0
0
0
0
0
0
0
0
0
0
0
0
0
0
0
0
0
0
0
0
0
0
0
0
0
0
0
0
0
0
0
0
0
0
0
0
0
0
0
0
0
0
0
0
0
0
0
0
0
0
0
0
0
0
0
0
0
0
0
0
0
0
0
0
0
0
0
0
0
0
0
0
0
0
0
0
0
0
0
0
0
0
0
0
0
0
0
0
0
0
0
0
0
0
0
0
0
0
0
0
0
0
0
0
0
0
0
0
0
0
0
0
0
0
0
0
0
0
0
0
0
0
0
0
0
0
0
0
0
0
0
0
0
0
0
0
0
0
0
0
0
0
0
0
0
0
0
0
0
0
0
0
0
0
0
0
0
0
0
0
0
0
0
0
0
0
0
0
0
0
0
0
0
0
0
0
0
0
0
0
0
0
0
0
0
0
0
0
0
0
0
0
0
0
0
0
0
0
0
0
0
0
0
0
0
0
0
0
0
0
0
0
0
0
0
0
0
0
0
0
0
0
0
0
0
0
0
0
0
0
0
0
0
0
0
0
0
0
0
0
0
0
0
0
0
0
0
0
0
0
0
0
0
0
0
0
0
0
0
0
0
0
0
0
0
0
0
0
0
0
0
0
0
0
0
0
0
0
0
0
0
0
0
0
0
0
0
0
0
0
0
0
0
0
0
0
0
0
0
0
0
0
0
0
0
0
0
0
0
0
0
0
0
0
0
0
0
0
0
0
0
0
0
0
0
0
0
0
0
0
0
0
0
0
0
0
0
0
0
0
0
0
0
0
0
0
0
0
0
0
0
0
0
0
0
0
0
0
0
0
0
0
0
0
0
0
0
0
0
0
0
0
0
0
0
0
0
0
0
0
0
0
0
0
0
0
0
0
0
0
0
0
0
0
0
0
0
0
0
0
0
0
0
0
0
0
0
0
0
0
0
0
0
0
0
0
0
0
0
0
0
0
0
0
0
0
0
0
0
0
0
0
0
0
0
0
0
0
0
0
0
0
0
0
0
0
0
0
0
0
0
0
0
0
0
0
0
0
0
0
0
0
0
0
0
0
0
0
0
0
0
0
0
0
0
0
0
0
0
0
0
0
0
0
0
0
0
0
0
0
0
0
0
0
0
0
0
0
0
0
0
0
0
0
0
0
0
0
0
0
0
0
0
0
0
0
0
0
0
0
0
0
0
0
0
0
0
0
0
0
0
0
0
0
0
0
0
0
0
0
0
0
0
0
0
0
0
0
0
0
0
0
0
0
0
0
0
0
0
0
0
0
0
0
0
0
0
0
0
0
0
0
0
0
0
0
0
0
0
0
0
0
0
0
0
0
0
0
0
0
0
0
0
0
0
0
0
0
0
0
0
0
0
0
0
0
0
0
0
0
0
0
0
0
0
0
0
0
0
0
0
0
0
0
0
0
0
0
0
0
0
0
0
0
0
0
0
0
0
0
0
0
0
0
0
0
0
0
0
0
0
0
0
0
0
0
0
0
0
0
0
0
0
0
0
0
0
0
0
0
0
0
0
0
0
0
0
0
0
0
0
0
0
0
0
0
0
0
0
0
0
0
0
0
0
0
0
0
0
0
0
0
0
0
0
0
0
0
0
0
0
0
0
0
0
0
0
0
0
0
0
0
0
0
0
0
0
0
0
0
0
0
0
0
0
0
0
0
0
0
0
0
0
0
0
0
0
0
0
0
0
0
0
0
0
0
0
0
0
0
0
0
0
0
0
0
0
0
0
0
0
0
0
0
0
0
0
0
0
0
0
0
0
0
0
0
0
0
0
0
0
0
0
0
0
0
0
0
0
0
0
0
0
0
0
0
0
0
0
0
0
0
0
0
0
0
0
0
0
0
0
0
0
0
0
0
0
0
0
0
0
0
0
0
0
0
0
0
0
0
0
0
0
0
0
0
0
0
0
0
0
0
0
0
0
0
0
0
0
0
0
0
0
0
0
0
0
0
0
0
0
0
0
0
0
0
0
0
0
0
0
0
0
0
0
0
0
0
0
0
0
0
0
0
0
0
0
0
0
0
0
0
0
0
0
0
0
0
0
0
0
0
0
0
0
0
0
0
0
0
0
0
0
0
0
0
0
0
0
0
0
0
0
0
0
0
0
0
0
0
0
0
0
0
0
0
0
0
0
0
0
0
0
0
0
0
0
0
0
0
0
0
0
0
0
0
0
0
0
0
0
0
0
0
0
0
0
0
0
0
0
0
0
0
0
0
0
0
0
0
0
0
0
0
0
0
0
0
0
0
0
0
0
0
0
0
0
0
0
0
0
0
0
0
0
0
0
0
0
0
0
0
0
0
0
0
0
0
0
0
0
0
0
0
0
0
0
0
0
0
0
0
0
0
0
0
0
0
0
0
0
0
0
0
0
0
0
0
0
0
0
0
0
0
0
0
0
0
0
0
0
0
0
0
0
0
0
0
0
0
0
0
0
0
0
0
0
0
0
0
0
0
0
0
0
0
0
0
0
0
0
0
0
0
0
0
0
0
0
0
0
0
0
0
0
0
0
0
0
0
0
0
0
0
0
0
0
0
0
0
0
0
0
0
0
0
0
0
0
0
0
0
0
0
0
0
0
0
0
0
0
0
0
0
0
0
0
0
0
0
0
0
0
0
0
0
0
0
0
0
0
0
0
0
0
0
0
0
0
0
0
0
0
0
0
0
0
0
0
0
0
0
0
0
0
0
0
0
0
0
0
0
0
0
0
0
0
0
0
0
0
0
0
0
0
0
0
0
0
0
0
0
0
0
0
0
0
0
0
0
0
0
0
0
0
0
0
0
0
0
0
0
0
0
0
0
0
0
0
0
0
0
0
0
0
0
0
0
0
0
0
0
0
0
0
0
0
0
0
0
0
0
0
0
0
0
0
0
0
0
0
0
0
0
0
0
0
0
0
0
0
0
0
0
0
0
0
0
0
0
0
0
0
0
0
0
0
0
0
0
0
0
0
0
0
0
0
0
0
0
0
0
0
0
0
0
0
0
0
0
0
0
0
0
0
0
0
0
0
0
0
0
0
0
0
0
0
0
0
0
0
0
0
0
0
0
0
0
0
0
0
0
0
0
0
0
0
0
0
0
0
0
0
0
0
0
0
0
0
0
0
0
0
0
0
0
0
0
0
0
0
0
0
0
0
0
0
0
0
0
0
0
0
0
0
0
0
0
0
0
0
0
0
0
0
0
0
0
0
0
0
0
0
0
0
0
0
0
0
0
0
0
0
0
0
0
0
0
0
0
0
0
0
0
0
0
0
0
0
0
0
0
0
0
0
0
0
0
0
0
0
0
0
0
0
0
0
0
0
0
0
0
0
0
0
0
0
0
0
0
0
0
0
0
0
0
0
0
0
0
0
0
0
0
0
0
0
0
0
0
0
0
0
0
0
0
0
0
0
0
0
0
0
0
0
0
0
0
0
0
0
0
0
0
0
0
0
0
0
0
0
0
0
0
0
0
0
0
0
0
0
0
0
0
0
0
0
0
0
0
0
0
0
0
0
0
0
0
0
0
0
0
0
0
0
0
0
0
0
0
0
0
0
0
0
0
0
0
0
0
0
0
0
0
0
0
0
0
0
0
0
0
0
0
0
0
0
0
0
0
0
0
0
0
0
0
0
0
0
0
0
0
0
0
0
0
0
0
0
0
0
0
0
0
0
0
0
0
0
0
0
0
0
0
0
0
0
0
0
0
0
0
0
0
0
0
0
0
0
0
0
0
0
0
0
0
0
0
0
0
0
0
0
0
0
0
0
0
0
0
0
0
0
0
0
0
0
0
0
0
0
0
0
0
0
0
0
0
0
0
0
0
0
0
0
0
0
0
0
0
0
0
0
0
0
0
0
0
0
0
0
0
0
0
0
0
0
0
0
0
0
0
0
0
