5.6481
5.74338
5.82787
5.89653
5.94446
5.9676
5.96304
5.92933
5.86656
5.77666
5.665
5.53774
5.40117
5.26205
5.12663
4.9993
4.88216
4.77512
4.67593
4.58082
4.48536
4.38545
4.27813
4.16218
4.03843
3.90986
3.78065
3.65592
3.54082
3.43976
3.3571
3.2944
3.25111
3.22544
3.21514
3.21809
3.2324
3.2583
3.29455
3.33465
3.37021
3.39299
3.39756
3.38316
3.35384
3.31703
3.28118
3.25284
3.23345
3.22275
3.22157
3.22719
3.23431
3.23726
3.2315
3.21494
3.1883
3.15467
3.11838
3.08363
3.05287
3.02677
3.00558
2.98941
2.97817
2.97178
2.97025
2.97354
2.98148
2.99363
3.00841
3.02208
3.02972
3.02649
3.00895
2.97612
2.9298
2.87414
2.81465
2.75718
2.70617
2.66404
2.63318
2.61643
2.62016
2.65057
2.69656
2.73875
2.75583
2.73234
2.66515
2.5653
2.45408
2.35479
2.28392
2.2358
2.20481
2.18428
2.1663
2.14418
2.11424
2.07643
2.03371
1.99042
1.95053
1.91574
1.88556
1.85927
1.83585
1.81435
1.79429
1.77578
1.75945
1.74608
1.73624
1.73002
1.72623
1.72241
1.71515
1.70075
1.67598
1.63886
1.5894
1.52996
1.46522
1.40163
1.34629
1.30577
1.28675
1.29796
1.33705
1.39211
1.44777
1.48925
1.50547
1.4904
1.44287
1.36545
1.26344
1.14568
1.02101
0.896879
0.779559
0.673572
0.581148
0.503487
0.441217
0.392507
0.351644
0.312178
0.268668
0.218276
0.160509
0.101142
0.0490596
0.0132955
0
0.0415217
0.102818
0.176054
0.26409
0.326635
0.759439
1.81398
3.44634
5.22487
6.46449
6.54297
5.23087
2.83738
0.0791251
-2.24938
-3.60738
-3.86725
-3.25917
-2.18582
-1.04288
-0.116958
0.442509
0.50197
0.427646
0.33864
0.24715
0.165059
0.101585
0.0574737
0.0286392
0.0128779
0.0095849
0.0185647
0.0393138
0.0709049
0.112236
0.161874
0.21823
0.279051
0.341406
0.402603
0.460816
0.515557
0.567851
0.620022
0.675098
0.736022
0.80492
0.882192
0.966976
1.05807
1.15407
1.25361
1.35558
1.45938
1.56492
1.6726
1.78323
1.8979
2.01758
2.14271
2.27289
2.40696
2.54041
2.66729
2.78184
2.88003
2.96036
3.02345
3.07069
3.10167
3.11472
3.10597
3.07051
3.00418
2.90512
2.77448
2.61645
2.43791
2.24966
2.06088
1.87987
1.7149
1.5731
1.45945
1.38292
1.34217
1.32931
1.33376
1.34488
1.35431
1.35702
1.35119
1.3372
1.31647
1.29139
1.26373
1.23471
1.20562
1.17778
1.15259
1.13139
1.11536
1.10563
1.10322
1.10908
1.12393
1.14825
1.18231
1.22583
1.27663
1.32936
1.37707
1.41308
1.43265
1.43431
1.42041
1.39658
1.37032
1.34892
1.33678
1.33424
1.34058
1.35302
1.3676
1.3802
1.38737
1.38693
1.37812
1.36162
1.33931
1.31435
1.29014
1.27061
1.25952
1.25976
1.27275
1.29811
1.33365
1.37598
1.42128
1.46613
1.50812
1.54582
1.57856
1.60599
1.62772
1.64324
1.65211
1.65435
1.65091
1.64383
1.63613
1.63128
1.63244
1.64134
1.65931
1.68568
1.71687
1.74807
1.77433
1.79166
1.79763
1.79158
1.77425
1.74727
1.71273
1.67318
1.63096
1.58834
1.54826
1.51445
1.49065
1.48011
1.48475
1.50459
1.53744
1.57923
1.6246
1.66784
1.70412
1.72992
1.74276
1.74153
1.72649
1.69917
1.66245
1.62016
1.5766
1.53677
1.50566
1.48773
1.4864
1.50366
1.53988
1.59369
1.66448
1.75003
1.84231
1.92871
1.99636
2.03434
2.0356
1.99829
1.9259
1.82617
1.70923
1.58563
1.46357
1.34703
1.23762
1.13599
1.04211
0.95493
0.87241
0.791647
0.709011
0.620571
0.522627
0.412305
0.288131
0.150421
0.000826645
-0.169821
-0.27533
0
0.784769
2.11751
3.8341
5.53735
6.67403
6.74208
5.53875
3.30321
0.648236
-1.69906
-3.20056
-3.68835
-3.34646
-2.54911
-1.66514
-0.947136
-0.50956
-0.414444
-0.437742
-0.462631
-0.484053
-0.498525
-0.503846
-0.499557
-0.48679
-0.466845
-0.441145
-0.411386
-0.37948
-0.3481
-0.320967
-0.302156
-0.295484
-0.303574
-0.326896
-0.363145
-0.407261
-0.4522
-0.490262
-0.515049
-0.522702
-0.511177
-0.480707
-0.433215
-0.371515
-0.29863
-0.218236
-0.133046
-0.0452236
0.0431561
0.130231
0.214589
0.295553
0.373392
0.449366
0.525556
0.604823
0.69145
0.793633
0.923184
1.07251
1.21044
1.29579
1.29265
1.18806
1.00114
0.776343
0.563239
0.394566
0.259468
0.137219
0.0187614
-0.101208
-0.22789
-0.36624
-0.520533
-0.693903
-0.887855
-1.10182
-1.3329
-1.57584
-1.82346
-2.06735
-2.29899
-2.5107
-2.69526
-2.84615
-2.96229
-3.05008
-3.11863
-3.17734
-3.23383
-3.29253
-3.35439
-3.41767
-3.47916
-3.53594
-3.58681
-3.6319
-3.67186
-3.70802
-3.7422
-3.77632
-3.81207
-3.8506
-3.89229
-3.93666
-3.98241
-4.02751
-4.06961
-4.10655
-4.13682
-4.15956
-4.17514
-4.18466
-4.18947
-4.19088
-4.18999
-4.18773
-4.18501
-4.1831
-4.18338
-4.18702
-4.19458
-4.20572
-4.2193
-4.23363
-4.24697
-4.25806
-4.26638
-4.27171
-4.27401
-4.27342
-4.27018
-4.26464
-4.2573
-4.24879
-4.23982
-4.23104
-4.22295
-4.21582
-4.20961
-4.20403
-4.19869
-4.19312
-4.18688
-4.17949
-4.17022
-4.15789
-4.14051
-4.11519
-4.07833
-4.02609
-3.95529
-3.86429
-3.75394
-3.62362
-3.48054
-3.33992
-3.21705
-3.12296
-3.0615
-3.02873
-3.01481
-3.00724
-2.99429
-2.96933
-2.93146
-2.8805
-2.81659
-2.74082
-2.65499
-2.56124
-2.4617
-2.35825
-2.25226
-2.14456
-2.0355
-1.92501
-1.81281
-1.69849
-1.58156
-1.46153
-1.33798
-1.21039
-1.07824
-0.94245
-0.808023
-0.685782
-0.588839
-0.529366
-0.514994
-0.545786
-0.612405
-0.696288
-0.772651
-0.816422
-0.810488
-0.760063
-0.681617
-0.588143
-0.488004
-0.389348
-0.298986
-0.221495
-0.158886
-0.110857
-0.0754714
-0.0500094
-0.0317275
-0.0181737
-0.0078927
-0.0061842
0
0.324663
1.24757
2.836
4.83892
6.69776
7.72481
7.39422
5.61555
2.83509
-0.11946
-2.39209
-3.46207
-3.31739
-2.36175
-1.14514
-0.0899919
0.624572
0.923889
1.05752
1.17935
1.29118
1.3929
1.48433
1.56442
1.6314
1.68439
1.72351
1.75019
1.76787
1.78219
1.80057
1.83108
1.88096
1.95514
2.05315
2.17118
2.3048
2.44881
2.59725
2.74415
2.88423
3.01344
3.12974
3.23332
3.32647
3.41327
3.49891
3.58881
3.6877
3.79888
3.92367
4.06148
4.21052
4.36829
4.53205
4.69927
4.8677
5.03522
5.19954
5.35779
5.50581
5.63778
5.74862
5.83419
5.89192
5.92122
5.92337
5.90082
5.85629
5.79183
5.70843
5.60747
5.48866
5.35211
5.19898
5.0317
4.85379
4.66941
4.48277
4.29736
4.11592
3.94063
3.77327
3.61532
3.46808
3.33275
3.21003
3.10026
3.0034
2.91902
2.84643
2.78458
2.73236
2.68848
2.65082
2.61625
2.5817
2.54502
2.5057
2.4652
2.42677
2.39472
2.37335
2.36595
2.37288
2.39254
2.42342
2.46384
2.51168
2.56135
2.60239
2.62342
2.61495
2.5732
2.50317
2.41869
2.33865
2.28054
2.25397
2.25
2.2587
2.27302
2.28582
2.29146
2.28692
2.27198
2.24855
2.21952
2.18739
2.15291
2.11499
2.0709
2.0178
1.95447
1.88257
1.80681
1.7339
1.67067
1.62148
1.59154
1.57796
1.56947
1.55258
1.5163
1.45589
1.37418
1.28018
1.18563
1.10092
1.02965
0.969313
0.917727
0.872623
0.831641
0.793232
0.757315
0.725505
0.700829
0.688012
0.69672
0.739417
0.815313
0.898659
0.956087
0.957797
0.887594
0.749225
0.567251
0.381259
0.234082
0.153172
0.124824
0.128303
0.158747
0.209893
0.274496
0.345256
0.416549
0.48494
0.548735
0.608036
0.664536
0.721043
0.781427
0.852075
0.940516
1.04063
1.12944
1.17671
1.1545
1.0458
0.848945
0.57716
0.254416
-0.0995365
-0.438354
-0.715699
-0.895069
-0.955964
-0.900024
-0.753167
-0.560545
-0.373824
-0.233654
-0.137978
-0.0644177
0
0.0783814
0.157273
0.255766
0.52055
0.952236
1.68266
2.77769
4.08067
5.1717
5.51598
4.74463
2.89785
0.461222
-1.83938
-3.36696
-3.83639
-3.37767
-2.39739
-1.35257
-0.566356
-0.160053
-0.111168
-0.0737701
-0.0229908
0.0415215
0.124912
0.23121
0.352861
0.475903
0.585434
0.669614
0.722222
0.743329
0.738503
0.717302
0.691701
0.673709
0.671892
0.692249
0.761865
0.914592
1.11642
1.31164
1.4446
1.48264
1.42983
1.32489
1.22485
1.18286
1.22775
1.32452
1.44775
1.58774
1.73918
1.89717
2.0572
2.21553
2.36941
2.51713
2.65801
2.79221
2.92048
3.04371
3.16222
3.27492
3.37831
3.4674
3.53507
3.5736
3.57646
3.53961
3.46184
3.3443
3.18991
3.00361
2.79702
2.57948
2.35789
2.13918
1.93026
1.73733
1.5651
1.41571
1.28884
1.18207
1.09165
1.01339
0.943579
0.87947
0.819527
0.763221
0.710633
0.662041
0.617485
0.576538
0.538323
0.501734
0.465775
0.429917
0.394344
0.360017
0.328526
0.301769
0.281548
0.26921
0.265382
0.269905
0.281893
0.299878
0.322106
0.346735
0.37194
0.395897
0.416632
0.431734
0.439141
0.437322
0.425926
0.406408
0.382412
0.35963
0.345081
0.345986
0.376719
0.457484
0.58873
0.738884
0.869831
0.95083
0.9684
0.928909
0.853082
0.764757
0.67962
0.599842
0.52168
0.443825
0.366864
0.293313
0.227323
0.173856
0.137444
0.121033
0.125278
0.148457
0.186958
0.236106
0.290849
0.346964
0.401444
0.452265
0.498476
0.540071
0.577778
0.612762
0.646284
0.67934
0.712435
0.745337
0.777266
0.807434
0.835673
0.862864
0.890915
0.922246
0.958911
1.00181
1.05002
1.09964
1.14432
1.17676
1.19021
1.17986
1.14377
1.08319
1.00221
0.906784
0.803553
0.698482
0.595167
0.495166
0.39901
0.3064
0.216696
0.129525
0.0453835
-0.0335738
-0.103917
-0.161526
-0.202431
-0.223908
-0.225335
-0.208561
-0.177719
-0.122856
0
0.352159
1.09798
2.31618
3.87042
5.36112
6.2166
5.93696
4.37912
1.89928
-0.773697
-2.87885
-3.96636
-4.03452
-3.40798
-2.48779
-1.56145
-0.762722
-0.140786
0.188836
0.20121
0.187562
0.158899
0.123829
0.0938001
0.0800838
0.0882722
0.11558
0.158444
0.214492
0.281999
0.358823
0.441607
0.524268
0.599341
0.660024
0.701669
0.723102
0.727162
0.720097
0.709873
0.703973
0.707077
0.719219
0.739466
0.766987
0.800924
0.841016
0.887887
0.942954
1.00803
1.08483
1.17411
1.27563
1.38885
1.513
1.64694
1.7893
1.93875
2.09379
2.25196
2.40884
2.5569
2.68636
2.78802
2.85428
2.88073
2.86717
2.8175
2.73832
2.63653
2.51714
2.38375
2.23946
2.08621
1.92484
1.7562
1.58183
1.40376
1.2242
1.04517
0.868319
0.694873
0.525878
0.362496
0.206288
0.0593346
-0.0758984
-0.196925
-0.30174
-0.389346
-0.460135
-0.515953
-0.55987
-0.595771
-0.627693
-0.659105
-0.69232
-0.728154
-0.765894
-0.803595
-0.838644
-0.868356
-0.890528
-0.904202
-0.91011
-0.910393
-0.907997
-0.905999
-0.906978
-0.912565
-0.92323
-0.938278
-0.955994
-0.973879
-0.98909
-0.998882
-1.00074
-0.992843
-0.97284
-0.940066
-0.899163
-0.856878
-0.82047
-0.796001
-0.787041
-0.794188
-0.815397
-0.846786
-0.883522
-0.920482
-0.953927
-0.980845
-0.998568
-1.00526
-1.00005
-0.982841
-0.955584
-0.921942
-0.886572
-0.85454
-0.830827
-0.81959
-0.823634
-0.844015
-0.879757
-0.929834
-0.989013
-1.04806
-1.09719
-1.12803
-1.13516
-1.11695
-1.07527
-1.01452
-0.940259
-0.858289
-0.773296
-0.688163
-0.604727
-0.524321
-0.44836
-0.378462
-0.316167
-0.263094
-0.220772
-0.190415
-0.172694
-0.167559
-0.174108
-0.19053
-0.214087
-0.241213
-0.268248
-0.291771
-0.308807
-0.316071
-0.312158
-0.301432
-0.290434
-0.2854
-0.289698
-0.302289
-0.317911
-0.328936
-0.328097
-0.311622
-0.28255
-0.244146
-0.19953
-0.151809
-0.11875
0
0.470465
1.45783
2.93442
4.56804
5.78008
5.98981
4.92742
2.81482
0.285759
-1.91398
-3.26071
-3.62433
-3.21405
-2.38354
-1.4467
-0.599848
0.0585796
0.46161
0.466464
0.433064
0.394307
0.354697
0.318271
0.287658
0.263353
0.244581
0.231757
0.226198
0.229969
0.245621
0.275547
0.321212
0.382541
0.45766
0.543108
0.634456
0.727147
0.81755
0.903469
0.984171
1.0605
1.13459
1.20935
1.28786
1.37269
1.46536
1.56606
1.67377
1.78661
1.90221
2.01883
2.13603
2.25498
2.37825
2.51087
2.66656
2.85192
3.04159
3.1964
3.28262
3.29062
3.24184
3.17993
3.15136
3.19229
3.34177
3.55163
3.74872
3.87039
3.87822
3.75977
3.5293
3.23084
2.93594
2.72311
2.59952
2.52243
2.46813
2.42743
2.39073
2.34993
2.29999
2.23958
2.17087
2.09846
2.02787
1.96319
1.90671
1.85986
1.82246
1.79307
1.76941
1.74909
1.73022
1.71196
1.69489
1.68126
1.67468
1.67941
1.6996
1.73836
1.79718
1.87547
1.97065
2.07844
2.19336
2.30943
2.41939
2.51551
2.59184
2.64436
2.67153
2.67474
2.65833
2.62915
2.59555
2.56598
2.5471
2.54127
2.54767
2.56566
2.59352
2.62677
2.6606
2.6908
2.71451
2.73024
2.73744
2.73567
2.72377
2.69988
2.66172
2.60643
2.5321
2.43869
2.32869
2.20468
2.07552
1.9562
1.86138
1.80195
1.78242
1.79997
1.84543
1.90594
1.96819
2.02138
2.06146
2.08812
2.10028
2.09648
2.0755
2.03644
1.97894
1.90361
1.81236
1.70861
1.59707
1.48328
1.37287
1.27067
1.18026
1.10355
1.04069
0.990474
0.950637
0.918459
0.891403
0.867551
0.845821
0.82595
0.808288
0.793467
0.78205
0.774204
0.769564
0.767165
0.765496
0.762534
0.75608
0.744078
0.724844
0.697162
0.660233
0.613504
0.556483
0.488685
0.409971
0.321031
0.223069
0.117224
0.00893478
-0.0928177
-0.178667
-0.241325
-0.277503
-0.288551
-0.279555
-0.257426
-0.228825
-0.198699
-0.17282
0
0.42134
1.06918
1.90643
2.86182
3.77013
4.34373
4.2516
3.30212
1.6108
-0.388401
-2.12445
-3.15863
-3.36602
-2.93396
-2.19606
-1.45721
-0.894964
-0.567323
-0.487383
-0.460313
-0.433711
-0.405206
-0.373826
-0.339064
-0.301059
-0.260356
-0.21762
-0.173409
-0.128076
-0.0818161
-0.0348068
0.0126587
0.0601273
0.107062
0.152993
0.197661
0.241039
0.283227
0.324142
0.363126
0.39861
0.428529
0.450886
0.464819
0.471527
0.474614
0.479634
0.492914
0.520056
0.564324
0.624577
0.698129
0.782362
0.874397
0.971049
1.06905
1.16514
1.25561
1.33693
1.40635
1.46224
1.50459
1.53536
1.55835
1.57863
1.60158
1.63392
1.68382
1.74921
1.80907
1.83484
1.80031
1.69143
1.51218
1.28376
1.03693
0.801296
0.592486
0.405822
0.237029
0.0873035
-0.0420483
-0.146729
-0.21898
-0.261489
-0.288331
-0.316671
-0.361352
-0.42954
-0.518182
-0.615633
-0.706619
-0.778089
-0.828407
-0.862802
-0.883061
-0.890885
-0.888183
-0.877065
-0.859301
-0.836592
-0.810826
-0.784748
-0.761425
-0.743653
-0.733319
-0.73094
-0.735519
-0.7448
-0.755793
-0.765394
-0.771077
-0.771235
-0.764854
-0.751348
-0.730576
-0.7028
-0.668674
-0.6292
-0.585791
-0.540373
-0.49542
-0.454026
-0.419888
-0.396413
-0.385944
-0.389423
-0.405977
-0.432834
-0.465652
-0.499282
-0.528787
-0.550437
-0.563116
-0.56802
-0.566703
-0.561253
-0.554895
-0.55134
-0.553555
-0.56318
-0.580233
-0.603259
-0.629872
-0.65755
-0.684346
-0.70922
-0.731941
-0.752201
-0.769184
-0.781282
-0.786268
-0.781875
-0.76659
-0.740929
-0.706779
-0.666355
-0.622644
-0.578536
-0.536232
-0.49694
-0.460948
-0.428008
-0.398086
-0.371599
-0.349763
-0.3346
-0.328503
-0.333638
-0.351347
-0.381727
-0.423443
-0.473801
-0.529023
-0.584806
-0.637005
-0.68224
-0.718307
-0.743906
-0.758341
-0.761701
-0.754356
-0.736574
-0.708263
-0.668939
-0.617941
-0.554796
-0.479629
-0.393555
-0.296143
-0.175261
0
0.343792
1.02089
2.08138
3.34201
4.38571
4.71908
4.02719
2.37862
0.240284
-1.72725
-2.97936
-3.31139
-2.91255
-2.15468
-1.4024
-0.858657
-0.563454
-0.497598
-0.465326
-0.433449
-0.398095
-0.356266
-0.30628
-0.248044
-0.182781
-0.114951
-0.0500206
0.00690537
0.0522648
0.0846684
0.104814
0.114852
0.117571
0.115916
0.112797
0.110712
0.112545
0.121728
0.142064
0.177189
0.229757
0.300168
0.389284
0.495073
0.607479
0.714948
0.807497
0.879441
0.930919
0.967797
1.00005
1.03915
1.09477
1.16972
1.2634
1.37377
1.49712
1.6283
1.76145
1.89073
2.01081
2.11698
2.20619
2.2774
2.33085
2.3677
2.38955
2.39795
2.39401
2.37794
2.34894
2.30571
2.2468
2.17007
2.07392
1.95787
1.82298
1.67199
1.50922
1.34033
1.17149
1.00903
0.858981
0.726654
0.616354
0.530902
0.471174
0.436394
0.42424
0.431125
0.453196
0.484897
0.520337
0.554143
0.582005
0.601046
0.609934
0.60876
0.598714
0.58167
0.559922
0.535622
0.510555
0.486152
0.463564
0.443771
0.427747
0.416642
0.411935
0.415208
0.427738
0.450311
0.482823
0.523995
0.571488
0.621745
0.670827
0.715189
0.752391
0.781549
0.803378
0.819817
0.833381
0.846399
0.860307
0.875393
0.890776
0.904576
0.914439
0.918174
0.91436
0.902812
0.88478
0.86283
0.840429
0.821286
0.808495
0.803859
0.808081
0.820617
0.839228
0.860757
0.882034
0.900622
0.915337
0.926413
0.935288
0.944103
0.955057
0.969735
0.988779
1.01236
1.0397
1.0697
1.10151
1.13482
1.16989
1.20723
1.24709
1.28907
1.33167
1.3726
1.40939
1.44026
1.46477
1.48409
1.50091
1.51879
1.54146
1.57129
1.60957
1.65683
1.71253
1.77505
1.84116
1.90688
1.96793
2.02001
2.05868
2.07883
2.07676
2.0494
1.99487
1.91314
1.80671
1.68099
1.54413
1.40605
1.2769
1.16516
1.08493
1.04536
1.03524
1.03567
1.02655
0.992781
0.928012
0.83468
0.721099
0.597287
0.471552
0.347644
0.226276
0.107462
-0.00862122
-0.113786
0
0.434005
1.33051
2.69796
4.34338
5.87175
6.7997
6.74965
5.62394
3.66517
1.366
-0.725357
-2.20285
-2.91232
-2.93461
-2.50531
-1.86247
-1.20012
-0.644049
-0.284736
-0.184759
-0.135011
-0.0942444
-0.0574196
-0.0234623
0.00838699
0.0386036
0.0673534
0.0944466
0.119057
0.138915
0.150188
0.148546
0.129826
0.0917824
0.0356277
-0.0334591
-0.10724
-0.176432
-0.233004
-0.274427
-0.301822
-0.315148
-0.315483
-0.30465
-0.285285
-0.259433
-0.228861
-0.19504
-0.158986
-0.121188
-0.0816063
-0.0397697
0.00503731
0.0535236
0.106151
0.162946
0.223424
0.286588
0.351005
0.414939
0.476467
0.533487
0.583459
0.623219
0.649596
0.659525
0.649768
0.617098
0.558572
0.471886
0.355768
0.210381
0.0376686
-0.157591
-0.36885
-0.589176
-0.811662
-1.02997
-1.23888
-1.43484
-1.61648
-1.7846
-1.94212
-2.09351
-2.24363
-2.39661
-2.55484
-2.71921
-2.88673
-3.04908
-3.19614
-3.3187
-3.41087
-3.47118
-3.50239
-3.51023
-3.50164
-3.48337
-3.46152
-3.43962
-3.41984
-3.40337
-3.39029
-3.37956
-3.36913
-3.35625
-3.33717
-3.30621
-3.25909
-3.20325
-3.15656
-3.13972
-3.1687
-3.24858
-3.37074
-3.51448
-3.65257
-3.75921
-3.82559
-3.86043
-3.87324
-3.86875
-3.85066
-3.82246
-3.78678
-3.74488
-3.69674
-3.64171
-3.57915
-3.50752
-3.42898
-3.35317
-3.29221
-3.25665
-3.25161
-3.27465
-3.31618
-3.36222
-3.39834
-3.41423
-3.41009
-3.38911
-3.35421
-3.30865
-3.25653
-3.20314
-3.15443
-3.11506
-3.08743
-3.07118
-3.06322
-3.05837
-3.05055
-3.03425
-3.00573
-2.96445
-2.91274
-2.85338
-2.78906
-2.72247
-2.65596
-2.59139
-2.5301
-2.47306
-2.42092
-2.37403
-2.33238
-2.2955
-2.2623
-2.23109
-2.19969
-2.16561
-2.12641
-2.08
-2.02496
-1.96057
-1.88679
-1.804
-1.71266
-1.61308
-1.50528
-1.38912
-1.26473
-1.13288
-0.995428
-0.85541
-0.716805
-0.584062
-0.461375
-0.351984
-0.257757
-0.179108
-0.1154
-0.0666085
-0.0334447
-0.0154456
-0.0117855
-0.0213779
-0.0415984
-0.0672997
-0.0907414
-0.102682
-0.0943528
-0.0596058
0
0.0742262
0.165073
0.267767
0.377186
0.489081
0.600612
0.710172
0.815711
0.896302
1.11639
1.62839
2.57704
3.9711
5.56073
6.83614
7.21872
6.36984
4.424
1.97684
-0.18627
-1.45895
-1.65902
-0.995098
-0.0281504
0.905946
1.58553
1.87972
2.06846
2.2398
2.39517
2.53384
2.6565
2.76514
2.86273
2.95289
3.03928
3.1251
3.21276
3.30374
3.39861
3.49738
3.59965
3.70477
3.81195
3.91764
4.01402
4.09124
4.1414
4.16315
4.16445
4.16109
4.17146
4.20994
4.28193
4.37501
4.48077
4.59509
4.71498
4.83861
4.96552
5.09641
5.2327
5.37596
5.52739
5.68733
5.85493
6.02801
6.20303
6.3753
6.53902
6.68847
6.81855
6.92536
7.00628
7.06
7.08724
7.08986
7.07037
7.03155
6.97608
6.90624
6.82378
6.72987
6.62539
6.51165
6.39031
6.26347
6.13417
6.00618
5.88346
5.76972
5.66711
5.57579
5.49389
5.41785
5.34323
5.26569
5.18199
5.09071
4.99262
4.89064
4.7893
4.69405
4.61032
4.54254
4.49396
4.46619
4.45908
4.47111
4.50146
4.54748
4.60127
4.65118
4.68618
4.69809
4.6834
4.64375
4.5849
4.51436
4.43885
4.36275
4.28788
4.21497
4.1452
4.08056
4.02389
3.97842
3.94838
3.94008
3.95682
3.99185
4.03202
4.06289
4.07282
4.05584
4.01249
3.94866
3.87277
3.79259
3.71251
3.63273
3.55147
3.46656
3.37592
3.27813
3.17298
3.06163
2.94652
2.83093
2.71851
2.61281
2.5171
2.43411
2.36583
2.31361
2.27901
2.26344
2.26412
2.27214
2.27782
2.27346
2.25591
2.22769
2.19614
2.17068
2.15924
2.16447
2.18441
2.21222
2.23862
2.25472
2.2543
2.23502
2.19831
2.14857
2.09195
2.03523
1.98339
1.93986
1.90668
1.88418
1.8722
1.86906
1.87118
1.87476
1.87694
1.87665
1.87495
1.87464
1.87932
1.89216
1.91664
1.95108
1.98863
2.02033
2.03817
2.03776
2.01988
1.99028
1.95823
1.93404
1.92513
1.93375
1.95919
1.99969
2.05338
2.1162
2.1816
2.24106
2.28622
2.30989
2.3068
2.27423
2.21223
2.1238
2.01454
1.89205
1.76507
1.64099
1.52437
1.41743
1.32119
1.23426
1.15327
1.07342
0.989322
0.895756
0.788516
0.664988
0.524496
0.368558
0.199511
0
-0.101029
0.229172
1.12204
2.54368
4.2713
5.91905
7.0188
7.16179
6.17477
4.247
1.90799
-0.174702
-1.48408
-1.86235
-1.47556
-0.850693
-0.231308
0.222235
0.485172
0.647208
0.780384
0.898614
1.00107
1.08604
1.15293
1.20228
1.23567
1.25548
1.26461
1.26624
1.26368
1.26006
1.25817
1.26038
1.26847
1.28346
1.30547
1.33386
1.36744
1.40489
1.44518
1.4879
1.5334
1.58261
1.63661
1.69614
1.76151
1.83196
1.90389
1.97249
2.0334
2.08418
2.12523
2.15971
2.19265
2.22947
2.27452
2.32865
2.39092
2.46011
2.53448
2.61179
2.68952
2.76495
2.83526
2.89776
2.94983
2.98888
3.0124
3.01794
3.00326
2.96642
2.90605
2.82168
2.71422
2.58555
2.43828
2.27593
2.10283
1.92378
1.74364
1.56733
1.39954
1.24451
1.10563
0.985189
0.884147
0.801864
0.736271
0.684187
0.641798
0.605195
0.570903
0.536288
0.499805
0.461051
0.420662
0.380042
0.341047
0.305685
0.275817
0.252904
0.237906
0.231225
0.232669
0.241734
0.257849
0.278864
0.301563
0.322859
0.340513
0.353609
0.362508
0.368215
0.371433
0.371725
0.367666
0.35683
0.336923
0.306806
0.267295
0.221409
0.173984
0.130724
0.096341
0.0740083
0.0654508
0.0703859
0.0867755
0.111418
0.140679
0.171153
0.20009
0.225502
0.246028
0.260703
0.268889
0.270208
0.264358
0.251454
0.232162
0.207708
0.179719
0.149944
0.119941
0.0908455
0.0632779
0.0374365
0.0133245
-0.00899539
-0.0292143
-0.0467096
-0.0606069
-0.0700048
-0.0740865
-0.0722178
-0.0641207
-0.0499536
-0.0303781
-0.00655394
0.0198915
0.0469149
0.0720704
0.0927392
0.106419
0.111016
0.105132
0.0882918
0.0610348
0.0248617
-0.0179567
-0.0646467
-0.11218
-0.157516
-0.197258
-0.227301
-0.243811
-0.244027
-0.226211
-0.190195
-0.137761
-0.0725965
0.000292254
0.0755425
0.148442
0.216056
0.277335
0.331252
0.376309
0.41026
0.430412
0.433975
0.418476
0.382697
0.327533
0.25645
0.175332
0.0916833
0.0133631
-0.0535028
-0.105063
-0.138521
-0.153898
-0.154862
-0.147674
-0.139118
-0.135119
-0.139696
-0.154397
-0.178294
-0.208436
-0.240637
-0.270466
-0.29451
-0.310806
-0.318039
-0.312024
-0.260222
0
0.453959
1.19703
2.30211
3.68342
5.01895
5.81363
5.61372
4.26824
2.06805
-0.347987
-2.28075
-3.28365
-3.31748
-2.68235
-1.7951
-0.98303
-0.393223
-0.0346985
0.0753706
0.113857
0.140378
0.160374
0.174803
0.185119
0.193308
0.201869
0.213691
0.231725
0.258489
0.295473
0.344394
0.404077
0.469269
0.533674
0.591826
0.640622
0.679891
0.711866
0.739977
0.767623
0.79724
0.830405
0.868524
0.912913
0.96482
1.02528
1.09497
1.17393
1.26174
1.35908
1.46711
1.58729
1.7209
1.86823
2.03129
2.20804
2.38462
2.54422
2.67209
2.76023
2.80943
2.82816
2.82858
2.82149
2.81228
2.80015
2.78169
2.7518
2.70548
2.63903
2.55074
2.44102
2.31214
2.16765
2.01217
1.84954
1.68255
1.51355
1.34468
1.1781
1.01619
0.861646
0.717398
0.586312
0.470844
0.372624
0.292179
0.228801
0.180597
0.1447
0.117611
0.0953518
0.0738823
0.049469
0.0189816
-0.0198502
-0.0682312
-0.126167
-0.192418
-0.264561
-0.339351
-0.41199
-0.476875
-0.528702
-0.563167
-0.577605
-0.57136
-0.545824
-0.50412
-0.450544
-0.389922
-0.327113
-0.2663
-0.210811
-0.164034
-0.128521
-0.106199
-0.0982212
-0.104804
-0.125129
-0.157404
-0.199096
-0.247292
-0.299015
-0.35165
-0.403263
-0.452337
-0.497679
-0.538301
-0.573328
-0.601957
-0.623513
-0.637618
-0.644327
-0.644107
-0.638501
-0.631065
-0.626397
-0.629148
-0.643017
-0.669888
-0.709342
-0.75869
-0.813459
-0.868205
-0.917912
-0.95893
-0.988285
-1.00441
-1.00717
-0.997099
-0.977254
-0.951456
-0.923497
-0.896408
-0.871996
-0.850716
-0.831874
-0.814028
-0.795417
-0.774498
-0.749967
-0.720839
-0.686615
-0.64738
-0.603588
-0.556535
-0.508194
-0.460628
-0.415617
-0.374437
-0.337918
-0.30685
-0.282719
-0.266745
-0.260082
-0.262954
-0.273679
-0.288034
-0.298874
-0.277284
-0.111596
0.209311
0.570777
0.833997
0.902951
0.762486
0.474661
0.142702
-0.130836
-0.271658
-0.332003
-0.362097
-0.377354
-0.381798
-0.376871
-0.364059
-0.344909
-0.320982
-0.294217
-0.26698
-0.241608
-0.22004
-0.203437
-0.191964
-0.18479
-0.181031
-0.18112
0
0.419022
1.18774
2.36681
3.83284
5.22046
6.01455
5.78446
4.43168
2.28716
-0.0176685
-1.83753
-2.78616
-2.84419
-2.28304
-1.46718
-0.698502
-0.142546
0.153123
0.228772
0.298036
0.366514
0.433999
0.499399
0.561301
0.61834
0.66968
0.715364
0.756353
0.794244
0.830759
0.867216
0.90415
0.941335
0.978112
1.01364
1.04719
1.07838
1.10728
1.13446
1.16091
1.18799
1.2173
1.25057
1.2895
1.33563
1.39016
1.45381
1.52674
1.60853
1.69823
1.79447
1.89556
1.99974
2.10533
2.21086
2.31524
2.41788
2.51857
2.61737
2.71426
2.80887
2.90017
2.98655
3.06584
3.13556
3.19314
3.23606
3.26102
3.26566
3.24792
3.20615
3.13947
3.04793
2.93264
2.79566
2.63993
2.46957
2.28986
2.10562
1.9222
1.74555
1.58165
1.43645
1.31787
1.22991
1.16964
1.13081
1.10566
1.08698
1.06958
1.05073
1.02957
1.00591
0.979169
0.948024
0.91039
0.863586
0.804572
0.727671
0.629059
0.515862
0.404592
0.313574
0.258135
0.247449
0.283649
0.362685
0.475842
0.611142
0.754226
0.891963
1.01554
1.1204
1.20214
1.25815
1.28823
1.29466
1.28184
1.25578
1.22332
1.19116
1.16479
1.14753
1.14024
1.14224
1.15253
1.1692
1.1897
1.21102
1.22903
1.2394
1.2383
1.22324
1.19377
1.15205
1.10277
1.05234
1.00771
0.97442
0.95589
0.955871
0.972988
0.998454
1.02128
1.03152
1.02304
0.995275
0.95326
0.906141
0.864436
0.836999
0.826123
0.829135
0.842823
0.864202
0.889848
0.916617
0.942121
0.964864
0.984077
0.999178
1.00979
1.01542
1.01555
1.00983
0.998531
0.982694
0.96425
0.94584
0.930519
0.921138
0.920087
0.929393
0.950653
0.984933
1.03253
1.09277
1.16489
1.24742
1.33438
1.41638
1.48374
1.52842
1.54558
1.53431
1.49724
1.43953
1.36751
1.28805
1.20709
1.12869
1.05581
0.990662
0.934772
0.889262
0.853696
0.82562
0.801438
0.776936
0.747836
0.710267
0.661094
0.598094
0.520074
0.427259
0.321447
0.204972
0.0807564
-0.0491341
-0.176821
0
0.56446
1.61303
3.06813
4.65478
5.93404
6.44558
5.90342
4.34403
2.13692
-0.154945
-1.98891
-3.02286
-3.17984
-2.65406
-1.74342
-0.780531
-0.0257744
0.332079
0.353505
0.362493
0.370438
0.381289
0.399026
0.427207
0.47147
0.544409
0.650685
0.763848
0.848446
0.87347
0.82567
0.715949
0.575095
0.441031
0.344703
0.294918
0.275809
0.278503
0.301693
0.345962
0.411911
0.499709
0.608495
0.735883
0.877715
1.02834
1.18151
1.33112
1.47207
1.60103
1.71685
1.82056
1.91494
2.00378
2.09089
2.17919
2.26989
2.36228
2.45277
2.53525
2.60276
2.6492
2.6707
2.66645
2.63856
2.59127
2.52965
2.45818
2.38013
2.29662
2.20684
2.1087
1.99972
1.87773
1.74158
1.59164
1.42983
1.25951
1.08505
0.911293
0.742795
0.583919
0.438341
0.30843
0.195263
0.0988609
0.0185194
-0.0481926
-0.104055
-0.15161
-0.192741
-0.228573
-0.259713
-0.286573
-0.309682
-0.330942
-0.352852
-0.377324
-0.404494
-0.431988
-0.455113
-0.46802
-0.465457
-0.444415
-0.406725
-0.356718
-0.298384
-0.235186
-0.170087
-0.105229
-0.0419789
0.0189832
0.0770701
0.130016
0.17098
0.18961
0.173596
0.113086
0.0058074
-0.138926
-0.29972
-0.447692
-0.555295
-0.60733
-0.618927
-0.607692
-0.580424
-0.543941
-0.504607
-0.467294
-0.435278
-0.410602
-0.393873
-0.384597
-0.381459
-0.3826
-0.38591
-0.38938
-0.391457
-0.391346
-0.389132
-0.385689
-0.38243
-0.380722
-0.381354
-0.384184
-0.388126
-0.39148
-0.392513
-0.390095
-0.384142
-0.375631
-0.366485
-0.358793
-0.354023
-0.352398
-0.352663
-0.352317
-0.348221
-0.337385
-0.317976
-0.289501
-0.25228
-0.207215
-0.15555
-0.0983382
-0.0361266
0.031093
0.104054
0.184554
0.273066
0.364058
0.446683
0.508244
0.537733
0.528705
0.480711
0.399419
0.295885
0.185129
0.083284
0.00224628
-0.0520485
-0.0801407
-0.087499
-0.0784586
-0.0580534
-0.031571
-0.00685444
0.00646191
0
-0.0319765
-0.0937794
-0.184981
-0.300981
-0.433993
-0.574843
-0.714452
-0.619992
-0.29218
0.314043
1.31152
2.70949
4.29684
5.63107
6.18473
5.5915
3.8569
1.40135
-1.10355
-3.01631
-3.96909
-3.95697
-3.26104
-2.27207
-1.32575
-0.607061
-0.152261
0.012188
0.133317
0.245268
0.349124
0.445138
0.533238
0.612256
0.680065
0.734704
0.773427
0.794311
0.79809
0.789415
0.776868
0.771568
0.784741
0.82448
0.889787
0.976201
1.07925
1.19394
1.31441
1.43384
1.54548
1.64433
1.72787
1.79646
1.85332
1.90402
1.9556
2.01538
2.0897
2.18245
2.29408
2.42261
2.56444
2.71466
2.86749
3.017
3.1578
3.28548
3.39669
3.48906
3.56122
3.61329
3.64592
3.65998
3.65632
3.63554
3.59782
3.54279
3.4695
3.37658
3.26336
3.12971
2.97571
2.80227
2.61161
2.40722
2.19372
1.97658
1.76177
1.55545
1.36367
1.1915
1.04421
0.929951
0.848741
0.794558
0.759048
0.733793
0.712397
0.691652
0.671468
0.653823
0.641254
0.634434
0.632763
0.635404
0.640656
0.645267
0.645273
0.637075
0.618415
0.589119
0.551355
0.509272
0.4681
0.433001
0.4073
0.391823
0.387025
0.392149
0.405531
0.424906
0.446884
0.467502
0.482997
0.490216
0.486927
0.471969
0.445208
0.407371
0.359836
0.30476
0.244837
0.182657
0.120863
0.0622099
0.00931339
-0.0356758
-0.0713795
-0.0973648
-0.114141
-0.12309
-0.1262
-0.125159
-0.120787
-0.112715
-0.0994492
-0.0788092
-0.0486212
-0.00745258
0.0448532
0.107012
0.176527
0.250187
0.324642
0.396941
0.464301
0.524012
0.573651
0.610919
0.633483
0.63925
0.626859
0.59623
0.548974
0.48851
0.419776
0.348606
0.280504
0.219627
0.169236
0.130604
0.102584
0.0825935
0.0674816
0.0544132
0.0415327
0.0282907
0.0154549
0.00488396
-0.00113144
0
0.0129707
0.0375559
0.0747772
0.125092
0.197763
0.439832
0.798182
1.33593
2.23577
3.53849
4.98999
6.06897
6.22512
5.194
3.18335
0.804278
-1.21477
-2.35909
-2.51664
-1.94788
-1.08305
-0.296607
0.229123
0.501659
0.618952
0.701216
0.774285
0.840707
0.899923
0.951098
0.993996
1.02919
1.05803
1.08254
1.10528
1.12898
1.15614
1.18905
1.23012
1.27815
1.32777
1.37326
1.41161
1.44468
1.47895
1.52277
1.5823
1.6583
1.74411
1.83297
1.919
1.99999
2.07859
2.16132
2.25587
2.3679
2.49648
2.63587
2.78096
2.92582
3.06256
3.18424
3.28628
3.36738
3.42999
3.48006
3.52611
3.57963
3.67125
3.85438
4.12275
4.39778
4.60924
4.71652
4.70686
4.58471
4.36483
4.07439
3.75912
3.47782
3.25256
3.0663
2.90128
2.74898
2.60635
2.47087
2.34008
2.21179
2.08446
1.9575
1.83151
1.70869
1.59355
1.49142
1.40778
1.34685
1.31031
1.2967
1.30152
1.31827
1.33986
1.36017
1.375
1.38238
1.38216
1.37533
1.36313
1.34661
1.3264
1.30258
1.27536
1.24542
1.21415
1.18354
1.15591
1.13337
1.11721
1.10791
1.1049
1.10673
1.11131
1.1162
1.11902
1.11759
1.11004
1.09489
1.07118
1.03847
0.997084
0.948189
0.893909
0.837267
0.781869
0.731467
0.689825
0.660738
0.646333
0.644214
0.648227
0.651143
0.646837
0.632061
0.607187
0.575666
0.542463
0.512118
0.486907
0.466329
0.449156
0.433693
0.418572
0.403375
0.388816
0.376423
0.36788
0.364068
0.364721
0.369265
0.375671
0.38155
0.385143
0.386123
0.385967
0.387714
0.395162
0.411737
0.439422
0.476892
0.521961
0.571606
0.622078
0.669516
0.710392
0.741762
0.761323
0.767124
0.757882
0.732781
0.691576
0.634805
0.564013
0.481889
0.392047
0.299144
0.209186
0.128955
0.0644927
0.0205137
0
0.00887318
0.0412824
0.0945313
0.164607
0.246755
0.33609
0.428145
0.514851
0.636347
1.04473
1.92053
3.27755
4.848
6.10806
6.47642
5.60696
3.60659
1.02999
-1.35981
-2.92935
-3.41804
-2.97287
-1.99591
-0.930855
-0.103359
0.339536
0.370202
0.321094
0.278327
0.246531
0.229946
0.230025
0.243383
0.266241
0.295532
0.328258
0.361843
0.394477
0.425254
0.454119
0.481654
0.508777
0.536405
0.565158
0.595156
0.625959
0.656556
0.685568
0.71162
0.733701
0.751462
0.765351
0.776565
0.786828
0.798052
0.811997
0.829916
0.852514
0.880176
0.913149
0.951688
0.996222
1.04742
1.10608
1.17319
1.25024
1.33847
1.43695
1.54097
1.64165
1.72732
1.78704
1.81272
1.80089
1.7537
1.67846
1.58526
1.48303
1.3755
1.26045
1.13467
0.996226
0.842204
0.672097
0.488288
0.295777
0.101245
-0.0884329
-0.267858
-0.432928
-0.581455
-0.713088
-0.82891
-0.930885
-1.02132
-1.10248
-1.17633
-1.24451
-1.30826
-1.36838
-1.42505
-1.47738
-1.52325
-1.55992
-1.58405
-1.59247
-1.58293
-1.55471
-1.50896
-1.44859
-1.37802
-1.30244
-1.22838
-1.16403
-1.11687
-1.09277
-1.09469
-1.12154
-1.16756
-1.22276
-1.27444
-1.3097
-1.32016
-1.30019
-1.23492
-1.126
-1
-0.887595
-0.814056
-0.792381
-0.82051
-0.882888
-0.955525
-1.01329
-1.03961
-1.03743
-1.01248
-0.973907
-0.93399
-0.904485
-0.893081
-0.90124
-0.924115
-0.952468
-0.975844
-0.986225
-0.982847
-0.968318
-0.94508
-0.916482
-0.886458
-0.858796
-0.836554
-0.821713
-0.815055
-0.816204
-0.823756
-0.835337
-0.84818
-0.859312
-0.865874
-0.865554
-0.85693
-0.839513
-0.813735
-0.780678
-0.741334
-0.696068
-0.64437
-0.585049
-0.516833
-0.439206
-0.350999
-0.255605
-0.161693
-0.0794333
-0.0176844
0.018391
0.0283865
0.0161904
-0.0115211
-0.0470361
-0.0829297
-0.114382
-0.138547
-0.153288
-0.15685
-0.147686
-0.126658
-0.0985339
-0.0696706
-0.0465553
-0.03437
-0.0359465
-0.0514274
-0.0786755
-0.114195
-0.154183
-0.195227
-0.234497
-0.209144
0
0.563462
1.66286
3.29811
5.16088
6.67093
7.20948
6.43698
4.50015
1.99067
-0.324605
-1.8402
-2.32837
-1.92
-1.0754
-0.144484
0.601862
1.01907
1.20464
1.36913
1.52567
1.67353
1.81189
1.93987
2.05684
2.16291
2.25897
2.34682
2.42901
2.50849
2.58813
2.67012
2.75559
2.84447
2.93555
3.02704
3.11711
3.20446
3.28864
3.37013
3.45017
3.53046
3.61284
3.69898
3.79039
3.88839
3.99403
4.10813
4.23122
4.36345
4.50452
4.65362
4.80939
4.97004
5.1335
5.2978
5.46145
5.6238
5.78524
5.94724
6.11324
6.29233
6.50045
6.73617
6.965
7.14479
7.24237
7.24193
7.14538
6.96935
6.74292
6.50594
6.30163
6.14625
6.02998
5.9398
5.86797
5.8114
5.76575
5.7258
5.68633
5.64279
5.59193
5.53208
5.46335
5.38746
5.30762
5.22813
5.15378
5.08973
5.04088
5.01217
5.01222
5.05379
5.14783
5.28623
5.43448
5.55658
5.62427
5.62294
5.55522
5.44121
5.31334
5.20593
5.14357
5.12064
5.12165
5.13798
5.16682
5.20681
5.25679
5.31552
5.38204
170
391
605
816
1008
1200
1403
1595
1802
2017
2242
2459
2668
2879
3079
3259
3450
3643
3454
3641
3700
2185
2381
2587
2647
2743
2803
2915
3016
3080
3173
3204
3237
3301
3400
3604
3659
3723
3614
3699
3176
3208
3259
3311
3379
3434
3601
0
0
0
0
0
0
0
0
0
0
0
0
0
0
0
0
0
0
0
0
0
0
0
0
0
0
0
0
0
0
0
0
0
0
0
0
0
0
0
0
0
0
0
0
0
0
0
0
0
0
0
0
0
0
0
0
0
0
0
0
0
0
0
0
0
0
0
0
0
0
0
0
0
0
0
0
0
0
0
0
0
0
0
0
0
0
0
0
0
0
0
0
0
0
0
0
0
0
0
0
0
0
0
0
0
0
0
0
0
0
0
0
0
0
0
0
0
0
0
0
0
0
0
0
0
0
0
0
0
0
0
0
0
0
0
0
0
0
0
0
0
0
0
0
0
0
0
0
0
0
0
0
0
0
0
0
0
0
0
0
0
0
0
0
0
0
0
0
0
0
0
0
0
0
0
0
0
0
0
0
0
0
0
0
0
0
0
0
0
0
0
0
0
0
0
0
0
0
0
0
0
0
0
0
0
0
0
0
0
0
0
0
0
0
0
0
0
0
0
0
0
0
0
0
0
0
0
0
0
0
0
0
0
0
0
0
0
0
0
0
0
0
0
0
0
0
0
0
0
0
0
0
0
0
0
0
0
0
0
0
0
0
0
0
0
0
0
0
0
0
0
0
0
0
0
0
0
0
0
0
0
0
0
0
0
0
0
0
0
0
0
0
0
0
0
0
0
0
0
0
0
0
0
0
0
0
0
0
0
0
0
0
0
0
0
0
0
0
0
0
0
0
0
0
0
0
0
0
0
0
0
0
0
0
0
0
0
0
0
0
0
0
0
0
0
0
0
0
0
0
0
0
0
0
0
0
0
0
0
0
0
0
0
0
0
0
0
0
0
0
0
0
0
0
0
0
0
0
0
0
0
0
0
0
0
0
0
0
0
0
0
0
0
0
0
0
0
0
0
0
0
0
0
0
0
0
0
0
0
0
0
0
0
0
0
0
0
0
0
0
0
0
0
0
0
0
0
0
0
0
0
0
0
0
0
0
0
0
0
0
0
0
0
0
0
0
0
0
0
0
0
0
0
0
0
0
0
0
0
0
0
0
0
0
0
0
0
0
0
0
0
0
0
0
0
0
0
0
0
0
0
0
0
0
0
0
0
0
0
0
0
0
0
0
0
0
0
0
0
0
0
0
0
0
0
0
0
0
0
0
0
0
0
0
0
0
0
0
0
0
0
0
0
0
0
0
0
0
0
0
0
0
0
0
0
0
0
0
0
0
0
0
0
0
0
0
0
0
0
0
0
0
0
0
0
0
0
0
0
0
0
0
0
0
0
0
0
0
0
0
0
0
0
0
0
0
0
0
0
0
0
0
0
0
0
0
0
0
0
0
0
0
0
0
0
0
0
0
0
0
0
0
0
0
0
0
0
0
0
0
0
0
0
0
0
0
0
0
0
0
0
0
0
0
0
0
0
0
0
0
0
0
0
0
0
0
0
0
0
0
0
0
0
0
0
0
0
0
0
0
0
0
0
0
0
0
0
0
0
0
0
0
0
0
0
0
0
0
0
0
0
0
0
0
0
0
0
0
0
0
0
0
0
0
0
0
0
0
0
0
0
0
0
0
0
0
0
0
0
0
0
0
0
0
0
0
0
0
0
0
0
0
0
0
0
0
0
0
0
0
0
0
0
0
0
0
0
0
0
0
0
0
0
0
0
0
0
0
0
0
0
0
0
0
0
0
0
0
0
0
0
0
0
0
0
0
0
0
0
0
0
0
0
0
0
0
0
0
0
0
0
0
0
0
0
0
0
0
0
0
0
0
0
0
0
0
0
0
0
0
0
0
0
0
0
0
0
0
0
0
0
0
0
0
0
0
0
0
0
0
0
0
0
0
0
0
0
0
0
0
0
0
0
0
0
0
0
0
0
0
0
0
0
0
0
0
0
0
0
0
0
0
0
0
0
0
0
0
0
0
0
0
0
0
0
0
0
0
0
0
0
0
0
0
0
0
0
0
0
0
0
0
0
0
0
0
0
0
0
0
0
0
0
0
0
0
0
0
0
0
0
0
0
0
0
0
0
0
0
0
0
0
0
0
0
0
0
0
0
0
0
0
0
0
0
0
0
0
0
0
0
0
0
0
0
0
0
0
0
0
0
0
0
0
0
0
0
0
0
0
0
0
0
0
0
0
0
0
0
0
0
0
0
0
0
0
0
0
0
0
0
0
0
0
0
0
0
0
0
0
0
0
0
0
0
0
0
0
0
0
0
0
0
0
0
0
0
0
0
0
0
0
0
0
0
0
0
0
0
0
0
0
0
0
0
0
0
0
0
0
0
0
0
0
0
0
0
0
0
0
0
0
0
0
0
0
0
0
0
0
0
0
0
0
0
0
0
0
0
0
0
0
0
0
0
0
0
0
0
0
0
0
0
0
0
0
0
0
0
0
0
0
0
0
0
0
0
0
0
0
0
0
0
0
0
0
0
0
0
0
0
0
0
0
0
0
0
0
0
0
0
0
0
0
0
0
0
0
0
0
0
0
0
0
0
0
0
0
0
0
0
0
0
0
0
0
0
0
0
0
0
0
0
0
0
0
0
0
0
0
0
0
0
0
0
0
0
0
0
0
0
0
0
0
0
0
0
0
0
0
0
0
0
0
0
0
0
0
0
0
0
0
0
0
0
0
0
0
0
0
0
0
0
0
0
0
0
0
0
0
0
0
0
0
0
0
0
0
0
0
0
0
0
0
0
0
0
0
0
0
0
0
0
0
0
0
0
0
0
0
0
0
0
0
0
0
0
0
0
0
0
0
0
0
0
0
0
0
0
0
0
0
0
0
0
0
0
0
0
0
0
0
0
0
0
0
0
0
0
0
0
0
0
0
0
0
0
0
0
0
0
0
0
0
0
0
0
0
0
0
0
0
0
0
0
0
0
0
0
0
0
0
0
0
0
0
0
0
0
0
0
0
0
0
0
0
0
0
0
0
0
0
0
0
0
0
0
0
0
0
0
0
0
0
0
0
0
0
0
0
0
0
0
0
0
0
0
0
0
0
0
0
0
0
0
0
0
0
0
0
0
0
0
0
0
0
0
0
0
0
0
0
0
0
0
0
0
0
0
0
0
0
0
0
0
0
0
0
0
0
0
0
0
0
0
0
0
0
0
0
0
0
0
0
0
0
0
0
0
0
0
0
0
0
0
0
0
0
0
0
0
0
0
0
0
0
0
0
0
0
0
0
0
0
0
0
0
0
0
0
0
0
0
0
0
0
0
0
0
0
0
0
0
0
0
0
0
0
0
0
0
0
0
0
0
0
0
0
0
0
0
0
0
0
0
0
0
0
0
0
0
0
0
0
0
0
0
0
0
0
0
0
0
0
0
0
0
0
0
0
0
0
0
0
0
0
0
0
0
0
0
0
0
0
0
0
0
0
0
0
0
0
0
0
0
0
0
0
0
0
0
0
0
0
0
0
0
0
0
0
0
0
0
0
0
0
0
0
0
0
0
0
0
0
0
0
0
0
0
0
0
0
0
0
0
0
0
0
0
0
0
0
0
0
0
0
0
0
0
0
0
0
0
0
0
0
0
0
0
0
0
0
0
0
0
0
0
0
0
0
0
0
0
0
0
0
0
0
0
0
0
0
0
0
0
0
0
0
0
0
0
0
0
0
0
0
0
0
0
0
0
0
0
0
0
0
0
0
0
0
0
0
0
0
0
0
0
0
0
0
0
0
0
0
0
0
0
0
0
0
0
0
0
0
0
0
0
0
0
0
0
0
0
0
0
0
0
0
0
0
0
0
0
0
0
0
0
0
0
0
0
0
0
0
0
0
0
0
0
0
0
0
0
0
0
0
0
0
0
0
0
0
0
0
0
0
0
0
0
0
0
0
0
0
0
0
0
0
0
0
0
0
0
0
0
0
0
0
0
0
0
0
0
0
0
0
0
0
0
0
0
0
0
0
0
0
0
0
0
0
0
0
0
0
0
0
0
0
0
0
0
0
0
0
0
0
0
0
0
0
0
0
0
0
0
0
0
0
0
0
0
0
0
0
0
0
0
0
0
0
0
0
0
0
0
0
0
0
0
0
0
0
0
0
0
0
0
0
0
0
0
0
0
0
0
0
0
0
0
0
0
0
0
0
0
0
0
0
0
0
0
0
0
0
0
0
0
0
0
0
0
0
0
0
0
0
0
0
0
0
0
0
0
0
0
0
0
0
0
0
0
0
0
0
0
0
0
0
0
0
0
0
0
0
0
0
0
0
0
0
0
0
0
0
0
0
0
0
0
0
0
0
0
0
0
0
0
0
0
0
0
0
0
0
0
0
0
0
0
0
0
0
0
0
0
0
0
0
0
0
0
0
0
0
0
0
0
0
0
0
0
0
0
0
0
0
0
0
0
0
0
0
0
0
0
0
0
0
0
0
0
0
0
0
0
0
0
0
0
0
0
0
0
0
0
0
0
0
0
0
0
0
0
0
0
0
0
0
0
0
0
0
0
0
0
0
0
0
0
0
0
0
0
0
0
0
0
0
0
0
0
0
0
0
0
0
0
0
0
0
0
0
0
0
0
0
0
0
0
0
0
0
0
0
0
0
0
0
0
0
0
0
0
0
0
0
0
0
0
0
0
0
0
0
0
0
0
0
0
0
0
0
0
0
0
0
0
0
0
0
0
0
0
0
0
0
0
0
0
0
0
0
0
0
0
0
0
0
0
0
0
0
0
0
0
0
0
0
0
0
0
0
0
0
0
0
0
0
0
0
0
0
0
0
0
0
0
0
0
0
0
0
0
0
0
0
0
0
0
0
0
0
0
0
0
0
0
0
0
0
0
0
0
0
0
0
0
0
0
0
0
0
0
0
0
0
0
0
0
0
0
0
0
0
0
0
0
0
0
0
0
0
0
0
0
0
0
0
0
0
0
0
0
0
0
0
0
0
0
0
0
0
0
0
0
0
0
0
0
0
0
0
0
0
0
0
0
0
0
0
0
0
0
0
0
0
0
0
0
0
0
0
0
0
0
0
0
0
0
0
0
0
0
0
0
0
0
0
0
0
0
0
0
0
0
0
0
0
0
0
0
0
0
0
0
0
0
0
0
0
0
0
0
0
0
0
0
0
0
0
0
0
0
0
0
0
0
0
0
0
0
0
0
0
0
0
0
0
0
0
0
0
0
0
0
0
0
0
0
0
0
0
0
0
0
0
0
0
0
0
0
0
0
0
0
0
0
0
0
0
0
0
0
0
0
0
0
0
0
0
0
0
0
0
0
0
0
0
0
0
0
0
0
0
0
0
0
0
0
0
0
0
0
0
0
0
0
0
0
0
0
0
0
0
0
0
0
0
0
0
0
0
0
0
0
0
0
0
0
0
0
0
0
0
0
0
0
0
0
0
0
0
0
0
0
0
0
0
0
0
0
0
0
0
0
0
0
0
0
0
0
0
0
0
0
0
0
0
0
0
0
0
0
0
0
0
0
0
0
0
0
0
0
0
0
0
0
0
0
0
0
0
0
0
0
0
0
0
0
0
0
0
0
0
0
0
0
0
0
0
0
0
0
0
0
0
0
0
0
0
0
0
0
0
0
0
0
0
0
0
0
0
0
0
0
0
0
0
0
0
0
0
0
0
0
0
0
0
0
0
0
0
0
0
0
0
0
0
0
0
0
0
0
0
0
0
0
0
0
0
0
0
0
0
0
0
0
0
0
0
0
0
0
0
0
0
0
0
0
0
0
0
0
0
0
0
0
0
0
0
0
0
0
0
0
0
0
0
0
0
0
0
0
0
0
0
0
0
0
0
0
0
0
0
0
0
0
0
0
0
0
0
0
0
0
0
0
0
0
0
0
0
0
0
0
0
0
0
0
0
0
0
0
0
0
0
0
0
0
0
0
0
0
0
0
0
0
0
0
0
0
0
0
0
0
0
0
0
0
0
0
0
0
0
0
0
0
0
0
0
0
0
0
0
0
0
0
0
0
0
0
0
0
0
0
0
0
0
0
0
0
0
0
0
0
0
0
0
0
0
0
0
0
0
0
0
0
0
0
0
0
0
0
0
0
0
0
0
0
0
0
0
0
0
0
0
0
0
0
0
0
0
0
0
0
0
0
0
0
0
0
0
0
0
0
0
0
0
0
0
0
0
0
0
0
0
0
0
0
0
0
0
0
0
0
0
0
0
0
0
0
0
0
0
0
0
0
0
0
0
0
0
0
0
0
0
0
0
0
0
0
0
0
0
0
0
0
0
0
0
0
0
0
0
0
0
0
0
0
0
0
0
0
0
0
0
0
0
0
0
0
0
0
0
0
0
0
0
0
0
0
0
0
0
0
0
0
0
0
0
0
0
0
0
0
0
0
0
0
0
0
0
0
0
0
0
0
0
0
0
0
0
0
0
0
0
0
0
0
0
0
0
0
0
0
0
0
0
0
0
0
0
0
0
0
0
0
0
0
0
0
0
0
0
0
0
0
0
0
0
0
0
0
0
0
0
0
0
0
0
0
0
0
0
0
0
0
0
0
0
0
0
0
0
0
0
0
0
0
0
0
0
0
0
0
0
0
0
0
0
0
0
0
0
0
0
0
0
0
0
0
0
0
0
0
0
0
0
0
0
0
0
0
0
0
0
0
0
0
0
0
0
0
0
0
0
0
0
0
0
0
0
0
0
0
0
0
0
0
0
0
0
0
0
0
0
0
0
0
0
0
0
0
0
0
0
0
0
0
0
0
0
0
0
0
0
0
0
0
0
0
0
0
0
0
0
0
0
0
0
0
0
0
0
0
0
0
0
0
0
0
0
0
0
0
0
0
0
0
0
0
0
0
0
0
0
0
0
0
0
0
0
0
0
0
0
0
0
0
0
0
0
0
0
0
0
0
0
0
0
0
0
0
0
0
0
0
0
0
0
0
0
0
0
0
0
0
0
0
0
0
0
0
0
0
0
0
0
0
0
0
0
0
0
0
0
0
0
0
0
0
0
0
0
0
0
0
0
0
0
0
0
0
0
0
0
0
0
0
0
0
0
0
0
0
0
0
0
0
0
0
0
0
0
0
0
0
0
0
0
0
0
0
0
0
0
0
0
0
0
0
0
0
0
0
0
0
0
0
0
0
0
0
0
0
0
0
0
0
0
0
0
0
0
0
0
0
0
0
0
0
0
0
0
0
0
0
0
0
0
0
0
0
0
0
0
0
0
0
0
0
0
0
0
0
0
0
0
0
0
0
0
0
0
0
0
0
0
0
0
0
0
0
0
0
0
0
0
0
0
0
0
0
0
0
0
0
0
0
0
0
0
0
0
0
0
0
0
0
0
0
0
0
0
0
0
0
0
0
0
0
0
0
0
0
0
0
0
0
0
0
0
0
0
0
0
0
0
0
0
0
0
0
0
0
0
0
0
0
0
0
0
0
0
0
0
0
0
0
0
0
0
0
0
0
0
0
0
0
0
0
0
0
0
0
0
0
0
0
0
0
0
0
0
0
0
0
0
0
0
0
0
0
0
0
0
0
0
0
0
0
0
0
0
0
0
0
0
0
0
0
0
0
0
0
0
0
0
0
0
0
0
0
0
0
0
0
0
0
0
0
0
0
0
0
0
0
0
0
0
0
0
0
0
0
0
0
0
0
0
0
0
0
0
0
0
0
0
0
0
0
0
0
0
0
0
0
0
0
0
0
0
0
0
0
0
0
0
0
0
0
0
0
0
0
0
0
0
0
0
0
0
0
0
0
0
0
0
0
0
0
0
0
0
0
0
0
0
0
0
0
0
0
0
0
0
0
0
0
0
0
0
0
0
0
0
0
0
0
0
0
0
0
0
0
0
0
0
0
0
0
0
0
0
0
0
0
0
0
0
0
0
0
0
0
0
0
0
0
0
0
0
0
0
0
0
0
0
0
0
0
0
0
0
0
0
0
0
0
0
0
0
0
0
0
0
0
0
0
0
0
0
0
0
0
0
0
0
0
0
0
0
0
0
0
0
0
0
0
0
0
0
0
0
0
0
0
0
0
0
0
0
0
0
0
0
0
0
0
0
0
0
0
0
0
0
0
0
0
0
0
0
0
0
0
0
0
0
0
0
0
0
0
0
0
0
0
0
0
0
0
0
0
0
0
0
0
0
0
0
0
0
0
0
0
0
0
0
0
0
0
0
0
0
0
0
0
0
0
0
0
0
0
0
0
0
0
0
0
0
0
0
0
0
0
0
0
0
0
0
0
0
0
0
0
0
0
0
0
0
0
0
0
0
0
0
0
0
0
0
0
0
0
0
0
0
0
0
0
0
0
0
0
0
0
0
0
0
0
0
0
0
0
0
0
0
0
0
0
0
0
0
0
0
0
0
0
0
0
0
0
0
0
0
0
0
0
0
0
0
0
0
0
0
0
0
0
0
0
0
0
0
0
0
0
0
