9.82839
12.7817
13.3034
11.0071
6.62406
1.61093
-2.59079
-5.16273
-6.05806
-5.6527
-4.68946
-3.44903
-2.19178
-1.15073
-0.607751
-0.357186
-0.182921
-0.0365457
0.094372
0.216103
0.3348
0.455932
0.5837
0.720664
0.867498
1.02295
1.18407
1.34658
1.50552
1.65581
1.79324
1.91511
2.02061
2.11093
2.1891
2.25965
2.32807
2.4004
2.48273
2.58057
2.69868
2.84039
3.0069
3.19788
3.41119
3.63692
3.85896
4.0598
4.2238
4.34005
4.40398
4.41747
4.38755
4.32436
4.23926
4.1428
4.04252
3.94299
3.8462
3.7522
3.65958
3.56585
3.46785
3.36234
3.24664
3.11917
2.97989
2.83035
2.67342
2.51286
2.35272
2.19688
2.04884
1.91171
1.78854
1.68153
1.59236
1.52208
1.47101
1.43875
1.42437
1.4269
1.44487
1.47655
1.51979
1.57193
1.62964
1.68932
1.74769
1.80233
1.85198
1.8964
1.93585
1.97034
1.9991
2.02015
2.03082
2.02854
2.01194
1.98174
1.94132
1.89643
1.85469
1.82386
1.81019
1.81719
1.84498
1.89064
1.94919
2.01497
2.08284
2.14913
2.21162
2.2691
2.32092
2.3665
2.40496
2.43491
2.45471
2.46275
2.45778
2.43926
2.40762
2.36442
2.31232
2.25476
2.19548
2.13768
2.08315
2.03155
1.97951
1.9191
1.83895
1.72625
1.56955
1.36159
1.10152
0.795808
0.366874
0
0.694384
2.90687
6.54431
10.7755
14.2033
15.4403
13.8123
9.75248
4.60916
-0.0295362
-3.07415
-4.29549
-4.08145
-3.32602
-2.515
-1.72878
-1.0568
-0.579561
-0.218197
0.0826877
0.344727
0.576724
0.783404
0.970218
1.14263
1.3052
1.46086
1.61069
1.75408
1.8893
2.01441
2.12809
2.23016
2.32188
2.40571
2.48488
2.56283
2.64276
2.72737
2.81887
2.91907
3.02941
3.15088
3.28374
3.42713
3.57873
3.73455
3.88899
4.03464
4.16368
4.26949
4.34772
4.39707
4.41934
4.41873
4.40053
4.3697
4.32969
4.28214
4.22653
4.16119
4.08412
3.99384
3.88983
3.77265
3.64372
3.50502
3.35841
3.20522
3.04621
2.88181
2.71242
2.53885
2.36264
2.18631
2.01342
1.84827
1.69536
1.55879
1.44169
1.34583
1.27139
1.21699
1.17989
1.15639
1.14228
1.13341
1.1262
1.11808
1.10768
1.09473
1.07989
1.0642
1.04861
1.03356
1.01862
1.00252
0.983364
0.959015
0.927591
0.888113
0.840922
0.787954
0.732726
0.68
0.635122
0.603133
0.587852
0.591141
0.612562
0.649484
0.697607
0.751725
0.806516
0.85725
0.899989
0.931688
0.950076
0.95346
0.940617
0.9108
0.863818
0.800238
0.721632
0.63076
0.531606
0.42919
0.329111
0.23682
0.156636
0.0909328
0.0397572
0
-0.0281704
-0.0678261
-0.13512
-0.245022
-0.408083
-0.627987
-0.900568
-1.21452
-1.64284
-1.6803
-0.750789
1.47184
4.91633
8.88221
12.1334
13.3941
11.9943
8.24943
3.30618
-1.43929
-4.95522
-6.86315
-7.29159
-6.73902
-5.56378
-4.10354
-2.64049
-1.43385
-0.771033
-0.473391
-0.265347
-0.0950569
0.0450581
0.159058
0.25283
0.333393
0.408057
0.483545
0.565243
0.656649
0.759217
0.872494
0.994463
1.12208
1.2519
1.38073
1.50617
1.62696
1.74315
1.85611
1.96823
2.08257
2.20241
2.33075
2.46993
2.62126
2.78477
2.95911
3.14153
3.32798
3.51276
3.68852
3.84753
3.98255
4.08774
4.15937
4.1962
4.1992
4.17104
4.11522
4.03567
3.93653
3.82131
3.69307
3.55474
3.40945
3.26055
3.11143
2.96512
2.8238
2.68844
2.55867
2.43299
2.30923
2.18531
2.05989
1.93288
1.80561
1.68071
1.56155
1.45178
1.35478
1.27348
1.21025
1.16712
1.14598
1.14866
1.17668
1.23089
1.3121
1.42055
1.55318
1.69971
1.84303
1.96427
2.04667
2.07895
2.05764
1.98769
1.88136
1.75555
1.62854
1.51566
1.42545
1.36104
1.32314
1.31222
1.32702
1.36497
1.42266
1.496
1.58035
1.67084
1.76184
1.84745
1.92178
1.97935
2.01546
2.02651
2.01025
1.96605
1.89499
1.80018
1.68636
1.55952
1.42658
1.29455
1.16937
1.05515
0.953844
0.864471
0.782066
0.699182
0.607667
0.500511
0.373421
0.225318
0
-0.0982731
0.76672
2.97928
6.41282
10.2401
13.1389
13.8702
11.9225
7.80653
2.80141
-1.67912
-4.69283
-6.01141
-5.94938
-5.08428
-3.86691
-2.60801
-1.47579
-0.572266
-0.0265623
0.263047
0.467639
0.632263
0.769939
0.88563
0.984424
1.07222
1.15483
1.23713
1.32234
1.41172
1.50465
1.59913
1.69248
1.78225
1.86689
1.94631
2.02205
2.09708
2.17524
2.26053
2.35628
2.46441
2.58495
2.7159
2.85351
2.9929
3.1289
3.25688
3.37352
3.47722
3.56823
3.64831
3.72018
3.78676
3.85032
3.91179
3.9701
4.02158
4.06003
4.0781
4.06846
4.02539
3.94604
3.83105
3.68427
3.51177
3.32042
3.11694
2.90664
2.69285
2.47778
2.26344
2.05227
1.84762
1.65378
1.47571
1.31839
1.186
1.08112
1.00468
0.956028
0.931289
0.922405
0.920657
0.918372
0.910293
0.894209
0.870739
0.842429
0.812577
0.784218
0.759303
0.739023
0.723961
0.714156
0.709142
0.708058
0.709441
0.711666
0.713452
0.714397
0.715311
0.718142
0.725451
0.739582
0.761719
0.791083
0.825576
0.861704
0.894876
0.92017
0.93309
0.930215
0.909663
0.871296
0.816636
0.748501
0.670451
0.586172
0.49896
0.411335
0.324939
0.240676
0.158812
0.0789684
0
-0.0700836
-0.14491
-0.228815
-0.326337
-0.44109
-0.574538
-0.725087
-0.90855
-1.25475
-0.69405
1.23967
4.4837
8.25331
11.2357
12.1653
10.4771
6.62924
1.86754
-2.41444
-5.30059
-6.59984
-6.62696
-5.94424
-4.86545
-3.59136
-2.27528
-1.15111
-0.559076
-0.311739
-0.146601
-0.00869141
0.11447
0.228141
0.336451
0.441726
0.544212
0.642069
0.732044
0.810747
0.875943
0.927762
0.969423
1.00725
1.04995
1.10718
1.18776
1.29741
1.43726
1.60459
1.79408
1.99839
2.20913
2.41749
2.61599
2.79984
2.96756
3.12095
3.26427
3.40282
3.54129
3.68249
3.8231
3.95221
4.05477
4.11641
4.12839
4.09069
4.0123
3.90842
3.79565
3.68667
3.58556
3.48922
3.39183
3.28654
3.16675
3.02788
2.86852
2.69078
2.49984
2.30278
2.10719
1.91969
1.74561
1.5889
1.45238
1.33832
1.24885
1.18565
1.1499
1.14172
1.15985
1.20191
1.26252
1.33289
1.40352
1.46636
1.51635
1.55198
1.57492
1.58862
1.59648
1.60034
1.59997
1.59321
1.57724
1.55
1.51155
1.46477
1.41531
1.37071
1.33876
1.32579
1.33604
1.37056
1.42714
1.50081
1.58472
1.67135
1.75348
1.8253
1.88199
1.91984
1.93641
1.93048
1.90191
1.8517
1.78181
1.69492
1.59412
1.48252
1.36305
1.23819
1.10988
0.979741
0.849049
0.718794
0.589604
0.461702
0.334929
0.208921
0.0841312
0
0.676334
2.6836
6.08366
10.1341
13.4557
14.6494
13.0215
8.96992
3.78647
-0.987781
-4.25338
-5.70113
-5.68093
-4.89328
-3.84679
-2.80922
-1.82125
-0.842568
0.0407001
0.628803
1.0202
1.30295
1.51296
1.65268
1.73197
1.76625
1.7737
1.77215
1.77619
1.79426
1.83036
1.88624
1.96192
2.05608
2.16668
2.29152
2.42852
2.57579
2.73155
2.89384
3.06038
3.22845
3.395
3.55684
3.71094
3.85474
3.98637
4.10478
4.20973
4.30177
4.38211
4.45252
4.51508
4.57206
4.62557
4.67729
4.72801
4.77724
4.82283
4.86055
4.88388
4.88499
4.85594
4.7899
4.68256
4.53317
4.34502
4.12511
3.88321
3.63061
3.37882
3.1375
2.91516
2.71937
2.55561
2.42725
2.33518
2.27912
2.25522
2.25581
2.27133
2.29186
2.30852
2.31456
2.30604
2.28169
2.24249
2.19079
2.12967
2.06222
1.99141
1.92021
1.85181
1.7902
1.73973
1.70442
1.6872
1.68893
1.70793
1.74006
1.77954
1.8203
1.85736
1.88789
1.91165
1.93067
1.94837
1.96839
1.99329
2.02384
2.05908
2.09591
2.12913
2.15244
2.15965
2.14586
2.10853
2.04803
1.9676
1.87271
1.76982
1.66496
1.5623
1.46332
1.36709
1.27058
1.16929
1.05822
0.932898
0.790296
0.629473
0.45002
0.202208
0
0.794049
3.1346
6.96023
11.3133
14.6031
15.3618
13.0448
8.34474
2.80614
-1.97997
-5.06085
-6.31048
-6.14527
-5.12012
-3.64169
-1.97888
-0.354153
0.984142
1.62196
1.78383
1.85762
1.88801
1.88391
1.85878
1.82866
1.80933
1.81186
1.84102
1.89717
1.97787
2.07899
2.1955
2.32203
2.45369
2.58679
2.71917
2.85017
2.9803
3.11066
3.24228
3.37566
3.51043
3.64535
3.77857
3.90809
4.03225
4.15019
4.26208
4.36915
4.47335
4.57694
4.68184
4.78904
4.89803
5.00608
5.10777
5.19563
5.26105
5.29538
5.29126
5.24377
5.15134
5.01619
4.84428
4.64494
4.42923
4.20772
3.98918
3.77977
3.58309
3.40078
3.23285
3.07839
2.93623
2.80535
2.68506
2.57495
2.47464
2.38393
2.30293
2.23228
2.17325
2.12752
2.09672
2.08202
2.0839
2.10104
2.13059
2.16913
2.21343
2.26102
2.31022
2.35985
2.40857
2.4543
2.49449
2.52689
2.5506
2.56677
2.57842
2.58923
2.60209
2.61745
2.63275
2.64394
2.64771
2.64336
2.63322
2.62131
2.61097
2.60292
2.59471
2.58251
2.56305
2.53572
2.50343
2.47198
2.44791
2.43595
2.43579
2.44356
2.45245
2.45308
2.43472
2.38652
2.29868
2.16339
1.97589
1.73706
1.45164
1.12685
0.765221
0.0553314
0
1.32985
4.30652
8.5031
12.7454
15.497
15.5693
12.75
7.93668
2.67179
-1.61301
-4.16558
-5.01056
-4.59479
-3.61482
-2.37127
-1.07576
0.11702
0.931075
1.38545
1.71612
1.98906
2.21172
2.38385
2.50775
2.58809
2.6316
2.64661
2.64256
2.62932
2.61652
2.61303
2.62576
2.65975
2.71896
2.80637
2.92332
3.06912
3.24084
3.43332
3.63948
3.85106
4.05958
4.25728
4.43795
4.59731
4.73317
4.84556
4.93625
5.00836
5.06599
5.11386
5.15695
5.2
5.24697
5.30045
5.36128
5.42804
5.49618
5.55771
5.60276
5.62123
5.60447
5.54664
5.44544
5.30211
5.12072
4.90724
4.66907
4.41463
4.1515
3.88644
3.62636
3.37897
3.15295
2.95643
2.79596
2.67585
2.59739
2.55852
2.55402
2.57623
2.61607
2.66428
2.71259
2.75469
2.78653
2.80637
2.81444
2.81228
2.80194
2.78531
2.76368
2.73771
2.70765
2.67382
2.63714
2.59943
2.56344
2.53245
2.50979
2.49794
2.4984
2.51122
2.53497
2.56696
2.60369
2.64136
2.67632
2.70539
2.72592
2.73563
2.73253
2.71495
2.68171
2.63242
2.56793
2.49067
2.40474
2.31545
2.22854
2.14892
2.07958
2.02059
1.96714
1.90802
1.82825
1.71267
1.54973
1.33451
1.07009
0.765356
0.10127
0
1.23101
4.07416
8.11184
12.2011
14.854
14.9021
12.0944
7.25716
1.90241
-2.4898
-5.09115
-5.91128
-5.51009
-4.61363
-3.58503
-2.52598
-1.40083
-0.339579
0.318165
0.724397
1.01504
1.23985
1.4058
1.51624
1.57824
1.6013
1.59673
1.57702
1.55503
1.54306
1.55159
1.58817
1.65585
1.75311
1.87618
2.01885
2.17379
2.3338
2.49305
2.64732
2.7939
2.93098
3.05654
3.16868
3.26593
3.34732
3.41312
3.46547
3.50839
3.54733
3.58804
3.63549
3.69239
3.75892
3.83348
3.91276
3.99132
4.06126
4.11359
4.13918
4.12978
4.07911
3.98378
3.84375
3.66235
3.44564
3.20154
2.93966
2.66864
2.39556
2.12641
1.86661
1.6215
1.39705
1.19904
1.03227
0.900289
0.804584
0.744
0.714573
0.709983
0.722532
0.744425
0.768938
0.791375
0.809096
0.821115
0.827316
0.827279
0.820161
0.804541
0.778871
0.742397
0.696036
0.642804
0.587608
0.536474
0.495454
0.468902
0.459029
0.466855
0.49189
0.532063
0.584017
0.643373
0.704759
0.762046
0.809085
0.840492
0.852246
0.842148
0.810043
0.757726
0.688618
0.607328
0.519257
0.430363
0.346592
0.273741
0.217495
0.183093
0.175417
0.19914
0.257037
0.344409
0.44211
0.521358
0.553437
0.51732
0.406002
0.229481
0
-0.50369
-0.111572
1.75018
5.09
9.09862
12.3506
13.4524
11.773
7.79015
2.82153
-1.66589
-4.70813
-6.08795
-6.1049
-5.35278
-4.20012
-2.92821
-1.7312
-0.788058
-0.246626
0.0816504
0.342899
0.571774
0.776232
0.958317
1.12007
1.26275
1.38724
1.49492
1.58711
1.66574
1.73385
1.79565
1.8561
1.92009
1.99145
2.07235
2.16282
2.26199
2.36905
2.48361
2.6061
2.73776
2.88022
3.0348
3.20178
3.37985
3.56596
3.75546
3.94246
4.12045
4.28327
4.42588
4.54484
4.63849
4.7067
4.75041
4.771
4.76974
4.74747
4.70461
4.64131
4.55774
4.45447
4.3326
4.19396
4.04107
3.87738
3.70666
3.53308
3.36097
3.19448
3.03724
2.89189
2.75992
2.64151
2.53576
2.44105
2.3553
2.27679
2.20469
2.13944
2.08277
2.03721
2.00529
1.98904
1.98914
2.00296
2.02527
2.04969
2.07013
2.08234
2.08482
2.07903
2.06891
2.05972
2.05649
2.06263
2.07954
2.10696
2.14209
2.18028
2.21618
2.24486
2.26273
2.26809
2.26121
2.2439
2.21882
2.18884
2.1562
2.12215
2.08698
2.05019
2.01088
1.96821
1.92196
1.87294
1.82322
1.77604
1.73534
1.70487
1.68788
1.68606
1.69425
1.69706
1.67365
1.60228
1.46564
1.25541
0.974611
0.637269
0.208435
0
0.741397
2.82045
6.14989
9.94458
12.9048
13.7936
12.0895
8.28251
3.60885
-0.590376
-3.46198
-4.84381
-4.97657
-4.50218
-3.62374
-2.53134
-1.37176
-0.342564
0.307312
0.673871
0.932856
1.14193
1.31628
1.4606
1.58081
1.68338
1.77467
1.86029
1.94479
2.03146
2.12228
2.21796
2.31798
2.42067
2.52339
2.6228
2.7153
2.79785
2.86865
2.92772
2.97732
3.02191
3.06771
3.12194
3.19178
3.28327
3.39998
3.54259
3.70907
3.89465
4.09221
4.29289
4.48661
4.66289
4.81214
4.92675
5.00136
5.03287
5.02032
4.96459
4.86812
4.73481
4.56999
4.3809
4.17611
3.96448
3.75482
3.55527
3.37259
3.21122
3.07266
2.95564
2.8565
2.76999
2.69008
2.61072
2.52654
2.43336
2.32872
2.21205
2.0844
1.95019
1.8183
1.69995
1.60629
1.54619
1.52443
1.54093
1.59105
1.66685
1.75886
1.85751
1.95514
2.04661
2.12843
2.19799
2.25307
2.2919
2.31344
2.31749
2.305
2.27824
2.24095
2.1981
2.15524
2.11773
2.08984
2.07373
2.06935
2.07467
2.0859
2.09801
2.10534
2.10266
2.08606
2.05346
2.0049
1.94223
1.86849
1.78689
1.6997
1.60742
1.50856
1.39969
1.27626
1.13368
0.968472
0.779172
0.566814
0.330659
-0.0170889
0
1.05505
3.43352
6.87663
10.4963
13.0568
13.5223
11.5729
7.76403
3.22885
-0.86714
-3.77457
-5.28211
-5.50577
-4.8696
-3.63952
-2.15462
-0.760558
0.2002
0.582387
0.812179
1.00938
1.19136
1.35952
1.51346
1.65181
1.77237
1.87262
1.95069
2.00624
2.04095
2.05876
2.06576
2.0695
2.07813
2.09925
2.13898
2.20094
2.28589
2.3928
2.51986
2.66459
2.82393
2.99446
3.17234
3.35328
3.53265
3.70569
3.86792
4.01557
4.14578
4.25603
4.34479
4.41244
4.46032
4.49063
4.50617
4.51
4.50479
4.49215
4.47183
4.44201
4.39948
4.34058
4.26224
4.1628
4.04236
3.90249
3.74571
3.57544
3.39511
3.20738
3.01483
2.82041
2.62766
2.44081
2.26469
2.10458
1.96587
1.8536
1.77184
1.72323
1.70849
1.72596
1.7722
1.84277
1.92817
2.01432
2.08766
2.13776
2.15929
2.15279
2.12385
2.08126
2.03463
1.99233
1.95926
1.93786
1.93027
1.93772
1.96085
1.99987
2.05457
2.12403
2.20689
2.30126
2.40446
2.51224
2.61766
2.71146
2.78355
2.82435
2.82649
2.7862
2.70422
2.58581
2.44001
2.2781
2.11186
1.95043
1.79892
1.65863
1.5279
1.40141
1.27058
1.12564
0.957709
0.760997
0.534345
0.281824
0
-0.487231
-0.19505
1.38169
4.3694
8.2363
11.8042
13.6897
12.9851
9.76536
5.07081
0.363102
-3.18009
-5.09091
-5.5184
-5.03025
-4.0842
-2.92131
-1.75215
-0.823238
-0.327791
-0.0250845
0.221131
0.442699
0.64705
0.836371
1.01276
1.17822
1.33456
1.48309
1.62439
1.75802
1.88247
1.99552
2.0948
2.1785
2.24618
2.29943
2.34209
2.38002
2.42031
2.4703
2.53643
2.62323
2.7328
2.86506
3.01848
3.19077
3.3789
3.57929
3.78838
3.99924
4.19827
4.36912
4.49658
4.57124
4.59284
4.57038
4.51868
4.45278
4.38269
4.31112
4.23604
4.15333
4.05873
3.94924
3.82396
3.6842
3.53303
3.37492
3.21404
3.05379
2.89675
2.74446
2.59759
2.45611
2.31978
2.18853
2.06291
1.94436
1.83526
1.73861
1.65736
1.59391
1.54957
1.52418
1.5161
1.52255
1.54013
1.56553
1.59591
1.62925
1.66432
1.70025
1.73623
1.7711
1.80329
1.83114
1.85336
1.86948
1.88006
1.88655
1.89075
1.89423
1.89783
1.90152
1.90474
1.90703
1.90853
1.90999
1.91229
1.91556
1.91848
1.91794
1.90937
1.88761
1.84803
1.78777
1.70657
1.60716
1.49504
1.3778
1.26312
1.15745
1.06548
0.98937
0.925964
0.86773
0.805013
0.728507
0.631657
0.512329
0.37327
0.216633
0
0.337231
1.67913
4.24364
7.63433
10.785
12.3785
11.5501
8.40888
4.00434
-0.245309
-3.26416
-4.70905
-4.77243
-4.22881
-3.34872
-2.37
-1.43187
-0.68425
-0.213639
0.0919333
0.319897
0.504117
0.656956
0.782839
0.887156
0.976995
1.06022
1.14433
1.2354
1.33703
1.44993
1.57237
1.70071
1.82987
1.95428
2.06887
2.16996
2.25584
2.32711
2.38666
2.43944
2.49186
2.551
2.62359
2.715
2.82834
2.96388
3.11883
3.28803
3.465
3.64272
3.81443
3.97427
4.11738
4.23925
4.33497
4.40005
4.43093
4.42444
4.37848
4.29284
4.16967
4.01361
3.83125
3.63028
3.419
3.2047
2.9931
2.78894
2.59607
2.41758
2.25575
2.11218
1.98764
1.88216
1.79491
1.72429
1.6679
1.62266
1.58491
1.55058
1.51552
1.47607
1.42967
1.3754
1.31419
1.24876
1.18306
1.12149
1.06807
1.02596
0.996655
0.980382
0.976544
0.98424
1.00255
1.03047
1.06662
1.10914
1.15507
1.20091
1.24335
1.28008
1.31031
1.33471
1.35488
1.37248
1.38838
1.40234
1.41331
1.42019
1.42286
1.42269
1.42231
1.42461
1.43151
1.44242
1.45236
1.45367
1.43852
1.40179
1.34301
1.26654
1.17988
1.09072
1.00385
0.919191
0.833288
0.740511
0.634301
0.508887
0.360835
0.190052
0
-0.217579
-0.559337
-0.306403
1.11213
3.95898
7.81311
11.5206
13.6326
13.1385
10.0359
5.35079
0.586934
-3.02352
-4.98961
-5.50839
-5.0977
-4.33344
-3.36422
-2.31685
-1.35019
-0.698555
-0.292544
0.0195343
0.290614
0.535961
0.758755
0.959673
1.13784
1.29111
1.41732
1.51466
1.58298
1.62483
1.64586
1.65442
1.66038
1.67347
1.70181
1.75
1.81919
1.90883
2.01775
2.14424
2.28633
2.44197
2.60896
2.78475
2.96624
3.14972
3.33097
3.50556
3.66923
3.81819
3.94925
4.05989
4.14884
4.21602
4.26216
4.28855
4.29657
4.2873
4.26096
4.21667
4.1524
4.06554
3.95373
3.81589
3.65311
3.46923
3.27072
3.06606
2.86461
2.67502
2.50419
2.35689
2.23522
2.139
2.06501
2.00589
1.9523
1.89521
1.82776
1.74667
1.65291
1.55131
1.44939
1.35563
1.2771
1.21826
1.18201
1.16892
1.17755
1.20496
1.24696
1.29884
1.35561
1.41151
1.4605
1.4975
1.51919
1.52484
1.51652
1.49883
1.47779
1.4595
1.44876
1.44777
1.45613
1.47216
1.49377
1.51886
1.54576
1.5735
1.60173
1.6304
1.65935
1.68783
1.71421
1.73585
1.74927
1.75045
1.7356
1.70202
1.64869
1.57681
1.48991
1.39353
1.29441
1.19934
1.11385
1.04085
0.980356
0.930006
0.884809
0.837609
0.78102
0.709117
0.618823
0.510742
0.361633
0
0.560297
2.60483
6.0942
10.2094
13.5786
14.8616
13.3918
9.51401
4.41925
-0.420316
-3.87846
-5.52511
-5.50376
-4.56546
-3.17128
-1.74576
-0.549634
0.18178
0.514525
0.749007
0.944828
1.10976
1.24431
1.35138
1.43637
1.50688
1.57198
1.64114
1.72289
1.8234
1.94517
2.08649
2.24236
2.40558
2.56741
2.71957
2.85569
2.97231
3.0692
3.14903
3.21664
3.27806
3.33959
3.40695
3.48481
3.57654
3.68389
3.80695
3.94416
4.09258
4.24828
4.40685
4.56378
4.71446
4.85361
4.9752
5.07327
5.14169
5.17428
5.16566
5.11224
5.0132
4.87115
4.69225
4.48581
4.26404
4.03945
3.82344
3.62521
3.45131
3.30607
3.19118
3.10595
3.04598
3.0017
2.96127
2.91321
2.84849
2.76227
2.65482
2.53142
2.40133
2.27607
2.16692
2.08365
2.03294
2.01748
2.0357
2.0822
2.1486
2.22494
2.30113
2.36874
2.4221
2.45817
2.47582
2.47574
2.45972
2.42991
2.38838
2.33681
2.27657
2.20915
2.13671
2.06237
1.99066
1.92695
1.87651
1.84356
1.83053
1.83778
1.86381
1.90585
1.96049
2.02388
2.09222
2.16159
2.22701
2.28297
2.32392
2.34514
2.34363
2.31866
2.27192
2.20717
2.1296
2.04536
1.95992
1.87758
1.80142
1.73294
1.67172
1.61528
1.55917
1.49723
1.42219
1.32681
1.20495
1.05267
0.868976
0.656075
0.413937
0
0.00600357
1.12807
3.69176
7.45795
11.485
14.3859
14.9413
12.7318
8.38775
3.27502
-1.17825
-4.08012
-5.27496
-5.07699
-4.16336
-2.88468
-1.54168
-0.361172
0.340647
0.566143
0.696615
0.804424
0.903848
1.00155
1.1016
1.2051
1.31014
1.41359
1.51322
1.60933
1.70523
1.80654
1.91946
2.04887
2.19562
2.35738
2.53059
2.71053
2.8918
3.06921
3.2385
3.39679
3.54304
3.67812
3.80476
3.92713
4.05028
4.17923
4.31813
4.46935
4.63293
4.80638
4.98502
5.16239
5.3309
5.48255
5.60977
5.70652
5.76854
5.79343
5.78069
5.7317
5.6495
5.5383
5.40283
5.24761
5.07655
4.8926
4.69776
4.49348
4.28158
4.06509
3.84857
3.63807
3.4405
3.26271
3.11045
2.98753
2.89543
2.83322
2.79802
2.78555
2.79097
2.80899
2.83409
2.86106
2.88508
2.90194
2.90814
2.90116
2.87968
2.8438
2.79517
2.73692
2.67341
2.6097
2.55097
2.50188
2.4659
2.4454
2.44182
2.45559
2.48631
2.53271
2.59293
2.66405
2.74067
2.81414
2.87454
2.91295
2.92385
2.90706
2.86856
2.81953
2.77389
2.74475
2.74005
2.76006
2.80228
2.85822
2.91659
2.96593
2.99694
3.00391
2.98508
2.9421
2.87888
2.80097
2.71356
2.62026
2.5229
2.42137
2.31349
2.19525
2.06107
1.90502
1.72203
1.50931
1.26753
1.00135
0.698068
0
0.281321
2.24282
5.99072
10.7202
14.8731
16.7916
15.5454
11.4249
5.78645
0.357096
-3.5506
-5.45893
-5.60441
-4.69158
-3.27843
-1.77689
-0.445735
0.475393
0.845344
1.07185
1.25729
1.41871
1.55828
1.67855
1.7827
1.87433
1.95718
2.03491
2.1108
2.18756
2.26721
2.351
2.43951
2.53277
2.63033
2.73145
2.8352
2.94061
3.0468
3.15314
3.25929
3.36525
3.47141
3.57853
3.68777
3.80065
3.91893
4.04425
4.17767
4.31908
4.46677
4.61706
4.76385
4.89958
5.01652
5.10801
5.16951
5.19905
5.19703
5.16551
5.10711
5.02411
4.91806
4.78942
4.63795
4.46325
4.26559
4.04666
3.81017
3.56193
3.30945
3.06131
2.8263
2.61251
2.42655
2.27304
2.15424
2.07005
2.01819
1.9946
1.99379
2.00879
2.03119
2.05214
2.06365
2.0596
2.03653
1.99419
1.9356
1.86647
1.79419
1.72641
1.66935
1.62655
1.59931
1.58666
1.58512
1.58973
1.59566
1.59943
1.59962
1.5969
1.59342
1.59175
1.59377
1.59991
1.60892
1.61829
1.62546
1.629
1.62953
1.62991
1.63452
1.64805
1.67401
1.71308
1.76294
1.81961
1.87754
1.93048
1.9725
1.99877
2.00607
1.9931
1.96043
1.91045
1.84714
1.77572
1.70191
1.63123
1.56803
1.51468
1.47091
1.43249
1.39044
1.33292
1.24798
1.12631
0.963523
0.761204
0.524044
0
-0.0298416
1.19763
3.983
7.96449
12.0631
14.8411
15.1444
12.6636
8.08021
2.72061
-2.045
-5.30084
-6.7609
-6.6431
-5.43794
-3.6861
-1.86649
-0.319344
0.772886
1.18725
1.27982
1.32025
1.33049
1.32326
1.31537
1.3243
1.36407
1.43939
1.54527
1.67344
1.81568
1.96374
2.10942
2.24582
2.36853
2.47595
2.56913
2.65121
2.72658
2.79996
2.87556
2.95645
3.04408
3.13849
3.23874
3.34309
3.44934
3.55514
3.65833
3.75714
3.85033
3.93721
4.01739
4.09054
4.15591
4.21184
4.25559
4.28369
4.29207
4.27673
4.23446
4.16346
4.06371
3.93698
3.7865
3.61645
3.43176
3.23708
3.03652
2.83404
2.63362
2.43956
2.25654
2.08943
1.9429
1.82077
1.72543
1.65735
1.61473
1.59314
1.58576
1.58495
1.58358
1.57622
1.5599
1.53442
1.50218
1.46751
1.43575
1.41199
1.4
1.40208
1.41859
1.44839
1.48827
1.53417
1.58198
1.62819
1.67024
1.70651
1.73601
1.75803
1.77207
1.77777
1.77512
1.76476
1.74813
1.72753
1.70597
1.68704
1.67451
1.67242
1.68498
1.7156
1.76639
1.83742
1.92606
2.02723
2.13288
2.23354
2.31973
2.38334
2.41855
2.4223
2.39418
2.33611
2.25186
2.14737
2.02928
1.90431
1.77899
1.65892
1.5482
1.449
1.35898
1.27081
1.17486
1.06166
0.924041
0.758031
0.201145
0
1.16249
4.06502
8.33758
12.8084
15.9018
16.3415
13.7859
9.00752
3.50548
-1.20629
-4.20756
-5.36645
-5.0821
-4.08352
-2.80274
-1.54198
-0.462074
0.261656
0.639277
0.923072
1.17271
1.40179
1.61361
1.81006
1.9922
2.16001
2.31248
2.44779
2.56376
2.65846
2.73113
2.78262
2.81574
2.83539
2.84845
2.86331
2.88924
2.93556
3.01067
3.12076
3.26929
3.45791
3.68569
3.94884
4.24055
4.55341
4.87509
5.1843
5.45765
5.67484
5.82268
5.89785
5.90725
5.86569
5.79157
5.70205
5.60927
5.51824
5.42908
5.34018
5.2494
5.15499
5.05618
4.95326
4.84728
4.73947
4.63065
4.52085
4.40925
4.29438
4.17441
4.04766
3.9129
3.76972
3.61868
3.46149
3.30105
3.14146
2.98808
2.84747
2.726
2.6293
2.56131
2.52359
2.51497
2.53166
2.5678
2.61629
2.66964
2.7209
2.76425
2.79542
2.81199
2.81356
2.80177
2.78007
2.75324
2.72665
2.70532
2.6928
2.69058
2.69846
2.71347
2.72972
2.74042
2.73972
2.72435
2.69469
2.65492
2.61215
2.57487
2.55093
2.54466
2.55671
2.58584
2.62837
2.67797
2.72687
2.76748
2.79352
2.8008
2.78755
2.75428
2.70329
2.63796
2.56202
2.47898
2.3914
2.30064
2.20672
2.10833
2.00289
1.88674
1.75569
1.60569
1.43353
1.23757
1.01812
0.771893
0.184661
0
1.16293
4.13867
8.61804
13.384
16.7046
17.1354
14.2843
9.05329
3.17375
-1.67475
-4.60054
-5.67377
-5.51454
-4.83005
-3.88911
-2.73317
-1.37879
-0.0624613
0.72255
1.07617
1.30313
1.48571
1.63999
1.77255
1.88937
1.99517
2.09333
2.1858
2.27361
2.35727
2.43707
2.51314
2.58548
2.654
2.7186
2.77962
2.83827
2.89708
2.96024
3.03346
3.12337
3.23646
3.37762
3.54887
3.74819
3.96956
4.20372
4.43797
4.65892
4.85444
5.01508
5.13491
5.21152
5.24559
5.24023
5.20044
5.13248
5.04346
4.94122
4.83387
4.72914
4.63333
4.55024
4.48143
4.4254
4.37598
4.32273
4.25371
4.15781
4.0272
3.85899
3.65585
3.42549
3.17912
2.92945
2.68772
2.46239
2.26037
2.08636
1.94309
1.83171
1.75205
1.7029
1.68236
1.68779
1.71572
1.76173
1.82048
1.88594
1.95184
2.01223
2.06208
2.0977
2.11699
2.11949
2.10615
2.07906
2.04106
1.99545
1.9456
1.89465
1.84533
1.79989
1.75999
1.72685
1.70154
1.68524
1.67977
1.68799
1.71369
1.76068
1.83186
1.93132
2.06151
2.21134
2.36035
2.48538
2.5662
2.59004
2.5536
2.46242
2.3284
2.16694
1.99582
1.82918
1.67742
1.54878
1.44919
1.38281
1.3541
1.36312
1.3945
1.41914
1.40559
1.32783
1.17225
0.941043
0.650954
0.0535272
0
1.2156
3.98787
7.99548
12.2039
15.1634
15.6461
13.2699
8.70946
3.34581
-1.40937
-4.67273
-6.24055
-6.36452
-5.47204
-3.94577
-2.15032
-0.445226
0.83888
1.35382
1.49284
1.58613
1.66518
1.73623
1.80483
1.8756
1.9517
2.03463
2.12444
2.21997
2.31926
2.42001
2.52002
2.61758
2.71173
2.80244
2.89061
2.97793
3.06669
3.15939
3.25847
3.36594
3.48318
3.61075
3.7484
3.89503
4.04878
4.20721
4.36747
4.52655
4.68147
4.82953
4.96831
5.0956
5.20918
5.30678
5.38617
5.44512
5.48147
5.49337
5.47962
5.43986
5.37466
5.28543
5.17412
5.04309
4.89472
4.73107
4.5536
4.36325
4.16082
3.94751
3.72555
3.49881
3.27326
3.0577
2.86328
2.70095
2.57975
2.50467
2.47521
2.48677
2.5277
2.58351
2.63976
2.68462
2.71072
2.71569
2.70157
2.67353
2.63809
2.60161
2.56884
2.54271
2.52461
2.51492
2.51348
2.51979
2.53331
2.55348
2.57971
2.61127
2.64721
2.68635
2.7272
2.76803
2.80688
2.84159
2.87025
2.89143
2.90459
2.91021
2.90977
2.90526
2.89849
2.89029
2.87988
2.86476
2.84112
2.80479
2.75247
2.68283
2.59722
2.49965
2.39609
2.29314
2.19617
2.10786
2.02789
1.9512
1.86776
1.76497
1.63027
1.45398
1.23146
0.964204
0.658727
0.159276
0
0.988026
3.53733
7.49268
11.9188
15.3101
16.2401
14.1113
9.52081
3.97211
-0.888468
-4.00686
-5.19709
-4.84073
-3.7561
-2.35667
-0.999382
0.0487682
0.558754
0.835659
1.06058
1.26357
1.44955
1.61987
1.7756
1.9172
2.04425
2.15579
2.25128
2.33077
2.39557
2.44877
2.49542
2.54228
2.59699
2.66689
2.75779
2.87217
3.00936
3.1663
3.33784
3.51718
3.69679
3.86937
4.02897
4.17172
4.29628
4.40371
4.49701
4.58027
4.65764
4.73244
4.80656
4.88023
4.95224
5.02041
5.08216
5.13491
5.1763
5.20403
5.21518
5.20656
5.17486
5.11669
5.02929
4.9111
4.7623
4.58493
4.38276
4.16093
3.92584
3.6842
3.44266
3.20801
2.98717
2.78653
2.61139
2.46542
2.35022
2.26517
2.20765
2.1735
2.15764
2.15472
2.15949
2.16729
2.17402
2.17627
2.17154
2.15841
2.13673
2.10761
2.07331
2.03688
2.00158
1.97047
1.94585
1.92928
1.92157
1.9229
1.93298
1.9511
1.97627
2.00728
2.04268
2.08099
2.1209
2.16138
2.20157
2.24056
2.27697
2.30858
2.33244
2.34512
2.34329
2.32446
2.28751
2.23299
2.16292
2.0805
1.98959
1.89444
1.79897
1.70652
1.61969
1.53992
1.46708
1.39888
1.33004
1.25287
1.15872
1.03972
0.890562
0.709639
0.497998
0.120468
0
0.984213
3.46102
7.22015
11.2877
14.201
14.6841
12.3405
7.90041
2.83527
-1.40871
-4.04452
-5.08411
-4.94115
-4.28557
-3.2894
-2.089
-0.847046
0.0868609
0.54014
0.822768
1.05363
1.26013
1.44702
1.61565
1.76606
1.89707
2.00687
2.094
2.15849
2.20268
2.23153
2.25236
2.27402
2.30571
2.35559
2.42944
2.52991
2.65654
2.80641
2.97462
3.15476
3.33948
3.52126
3.69294
3.84873
3.9848
4.09975
4.19477
4.27345
4.34124
4.40451
4.46944
4.54087
4.62158
4.71196
4.80881
4.90422
4.98686
5.0447
5.06722
5.04744
4.98303
4.87639
4.73362
4.56272
4.37168
4.16772
3.95572
3.73838
3.51737
3.29437
3.0719
2.85371
2.64489
2.4515
2.27952
2.13414
2.01893
1.93541
1.88291
1.85875
1.85875
1.87772
1.91003
1.94995
1.99213
2.03156
2.06417
2.0872
2.09954
2.10198
2.09714
2.08906
2.08245
2.08178
2.09029
2.1092
2.13769
2.17341
2.21263
2.251
2.28435
2.30934
2.32391
2.32741
2.32043
2.30443
2.28137
2.25317
2.22144
2.18722
2.15107
2.11314
2.07348
2.0322
1.98961
1.9462
1.90238
1.85818
1.81286
1.76459
1.71038
1.64615
1.56716
1.46855
1.34604
1.19666
1.01929
0.815081
0.584612
0.244985
0
0.851543
3.26282
6.96668
10.851
13.383
13.3831
10.6681
6.14977
1.3297
-2.46041
-4.59507
-5.18827
-4.77044
-3.92549
-2.87905
-1.75417
-0.674065
0.0628639
0.420798
0.643845
0.816436
0.962512
1.08898
1.20155
1.30451
1.40133
1.4944
1.58568
1.67727
1.7717
1.87169
1.97947
2.09604
2.22061
2.35035
2.48153
2.61013
2.73251
2.84601
2.94911
3.0413
3.12278
3.19437
3.25753
3.31436
3.36779
3.42177
3.48108
3.55089
3.63588
3.7392
3.86148
4.00143
4.15417
4.30918
4.45218
4.56885
4.64736
4.68028
4.66535
4.60498
4.50473
4.37119
4.20997
4.02616
3.82306
3.60275
3.36735
3.1202
2.86671
2.61451
2.37273
2.15065
1.95771
1.80287
1.68764
1.60594
1.54854
1.50642
1.47339
1.44732
1.42941
1.422
1.4262
1.43951
1.45764
1.47544
1.48804
1.49246
1.48861
1.4795
1.47061
1.46865
1.47934
1.5063
1.55142
1.61556
1.69473
1.77876
1.85618
1.91725
1.95668
1.97492
1.97759
1.97308
1.96928
1.97041
1.97553
1.97896
1.97218
1.94684
1.8977
1.82443
1.73179
1.62806
1.52251
1.4225
1.3306
1.24541
1.16335
1.0788
0.985064
0.875644
0.745475
0.591945
0.415625
0.220025
0
-0.460863
-0.152441
1.47394
4.48106
8.23181
11.5203
13.0697
12.151
8.95623
4.49804
0.102109
-3.18683
-4.95037
-5.25764
-4.84666
-4.03276
-3.07226
-2.08288
-1.1383
-0.427349
0.0368465
0.379913
0.659025
0.895015
1.0936
1.25958
1.39846
1.51561
1.61563
1.70204
1.77756
1.84444
1.90489
1.96134
2.01666
2.07391
2.136
2.20525
2.28296
2.36928
2.46336
2.56386
2.66946
2.77931
2.89341
3.01269
3.13883
3.27382
3.41932
3.57605
3.74317
3.91829
4.09687
4.27273
4.43875
4.58718
4.70868
4.79319
4.83438
4.82816
4.7736
4.67371
4.5356
4.36979
4.18845
4.00312
3.82243
3.64989
3.48603
3.32923
3.17665
3.02532
2.87314
2.71935
2.56465
2.41096
2.26102
2.11811
1.98572
1.86737
1.7664
1.68595
1.62868
1.59653
1.59052
1.6105
1.65478
1.72079
1.80397
1.89654
1.98724
2.06393
2.11618
2.13732
2.12587
2.086
2.02675
1.96034
1.89989
1.85662
1.8365
1.84121
1.87015
1.92135
1.99084
2.07088
2.15063
2.21928
2.26784
2.29073
2.28651
2.25787
2.21062
2.15206
2.08915
2.02688
1.96709
1.90893
1.84926
1.78296
1.70354
1.60392
1.47732
1.31816
1.12287
0.890606
0.623546
0.326905
0
-0.594041
-0.586935
0.742253
3.57278
7.36285
10.9344
12.9546
12.5696
9.82495
5.61973
1.23809
-2.23624
-4.28201
-4.92702
-4.37947
-3.4908
-2.37863
-1.29194
-0.493618
-0.0389637
0.287121
0.564651
0.812491
1.0335
1.22943
1.40194
1.55249
1.68256
1.79407
1.88953
1.97222
2.04614
2.11575
2.18537
2.25858
2.33761
2.4231
2.5143
2.60959
2.7074
2.80709
2.9096
3.01757
3.1349
3.26589
3.41404
3.58088
3.76526
3.9637
4.17009
4.3751
4.56769
4.73725
4.87503
4.97519
5.03534
5.05662
5.04325
5.0017
4.93948
4.86388
4.7806
4.69287
4.60144
4.50522
4.4022
4.29071
4.17042
4.04271
3.91041
3.77695
3.64538
3.5174
3.39341
3.27278
3.15454
3.03812
2.92391
2.81336
2.7086
2.61175
2.52453
2.44778
2.38159
2.3256
2.27954
2.24364
2.21873
2.20597
2.20639
2.22018
2.24619
2.28189
2.32359
2.36669
2.40648
2.43894
2.46135
2.47275
2.47397
2.46745
2.45672
2.4459
2.43893
2.439
2.44809
2.4668
2.49419
2.52763
2.56281
2.59379
2.61372
2.616
2.59541
2.54902
2.47699
2.38256
2.27147
2.15065
2.02655
1.90359
1.78293
1.66286
1.53924
1.40659
1.2595
1.09402
0.908595
0.704562
0.48596
0.252725
0
0.357643
1.83448
4.62287
8.24397
11.5647
13.2636
12.5093
9.41792
4.98566
0.557711
-2.80138
-4.65534
-5.03888
-4.60031
-3.60904
-2.36539
-1.09582
-0.037979
0.509719
0.743249
0.88182
0.979655
1.04597
1.09323
1.13519
1.18447
1.24999
1.33476
1.43724
1.55321
1.67668
1.80066
1.91824
2.02352
2.1127
2.18469
2.24104
2.28567
2.32436
2.36402
2.41181
2.47409
2.5556
2.65838
2.78165
2.92268
3.07702
3.23886
3.40167
3.55884
3.70443
3.83374
3.94352
4.03187
4.09782
4.14064
4.15844
4.14859
4.10851
4.03567
3.92875
3.78874
3.61966
3.42854
3.22463
3.01793
2.81743
2.62928
2.4572
2.30214
2.16249
2.03471
1.91416
5
148
291
430
565
699
833
967
1100
1233
1366
1498
1629
1762
1898
2037
2181
2322
2465
2606
2747
2887
3025
3161
3293
3422
3551
3682
0
0
0
0
0
0
0
0
0
0
0
0
0
0
0
0
0
0
0
0
0
0
0
0
0
0
0
0
0
0
0
0
0
0
0
0
0
0
0
0
0
0
0
0
0
0
0
0
0
0
0
0
0
0
0
0
0
0
0
0
0
0
0
0
0
0
0
0
0
0
0
0
0
0
0
0
0
0
0
0
0
0
0
0
0
0
0
0
0
0
0
0
0
0
0
0
0
0
0
0
0
0
0
0
0
0
0
0
0
0
0
0
0
0
0
0
0
0
0
0
0
0
0
0
0
0
0
0
0
0
0
0
0
0
0
0
0
0
0
0
0
0
0
0
0
0
0
0
0
0
0
0
0
0
0
0
0
0
0
0
0
0
0
0
0
0
0
0
0
0
0
0
0
0
0
0
0
0
0
0
0
0
0
0
0
0
0
0
0
0
0
0
0
0
0
0
0
0
0
0
0
0
0
0
0
0
0
0
0
0
0
0
0
0
0
0
0
0
0
0
0
0
0
0
0
0
0
0
0
0
0
0
0
0
0
0
0
0
0
0
0
0
0
0
0
0
0
0
0
0
0
0
0
0
0
0
0
0
0
0
0
0
0
0
0
0
0
0
0
0
0
0
0
0
0
0
0
0
0
0
0
0
0
0
0
0
0
0
0
0
0
0
0
0
0
0
0
0
0
0
0
0
0
0
0
0
0
0
0
0
0
0
0
0
0
0
0
0
0
0
0
0
0
0
0
0
0
0
0
0
0
0
0
0
0
0
0
0
0
0
0
0
0
0
0
0
0
0
0
0
0
0
0
0
0
0
0
0
0
0
0
0
0
0
0
0
0
0
0
0
0
0
0
0
0
0
0
0
0
0
0
0
0
0
0
0
0
0
0
0
0
0
0
0
0
0
0
0
0
0
0
0
0
0
0
0
0
0
0
0
0
0
0
0
0
0
0
0
0
0
0
0
0
0
0
0
0
0
0
0
0
0
0
0
0
0
0
0
0
0
0
0
0
0
0
0
0
0
0
0
0
0
0
0
0
0
0
0
0
0
0
0
0
0
0
0
0
0
0
0
0
0
0
0
0
0
0
0
0
0
0
0
0
0
0
0
0
0
0
0
0
0
0
0
0
0
0
0
0
0
0
0
0
0
0
0
0
0
0
0
0
0
0
0
0
0
0
0
0
0
0
0
0
0
0
0
0
0
0
0
0
0
0
0
0
0
0
0
0
0
0
0
0
0
0
0
0
0
0
0
0
0
0
0
0
0
0
0
0
0
0
0
0
0
0
0
0
0
0
0
0
0
0
0
0
0
0
0
0
0
0
0
0
0
0
0
0
0
0
0
0
0
0
0
0
0
0
0
0
0
0
0
0
0
0
0
0
0
0
0
0
0
0
0
0
0
0
0
0
0
0
0
0
0
0
0
0
0
0
0
0
0
0
0
0
0
0
0
0
0
0
0
0
0
0
0
0
0
0
0
0
0
0
0
0
0
0
0
0
0
0
0
0
0
0
0
0
0
0
0
0
0
0
0
0
0
0
0
0
0
0
0
0
0
0
0
0
0
0
0
0
0
0
0
0
0
0
0
0
0
0
0
0
0
0
0
0
0
0
0
0
0
0
0
0
0
0
0
0
0
0
0
0
0
0
0
0
0
0
0
0
0
0
0
0
0
0
0
0
0
0
0
0
0
0
0
0
0
0
0
0
0
0
0
0
0
0
0
0
0
0
0
0
0
0
0
0
0
0
0
0
0
0
0
0
0
0
0
0
0
0
0
0
0
0
0
0
0
0
0
0
0
0
0
0
0
0
0
0
0
0
0
0
0
0
0
0
0
0
0
0
0
0
0
0
0
0
0
0
0
0
0
0
0
0
0
0
0
0
0
0
0
0
0
0
0
0
0
0
0
0
0
0
0
0
0
0
0
0
0
0
0
0
0
0
0
0
0
0
0
0
0
0
0
0
0
0
0
0
0
0
0
0
0
0
0
0
0
0
0
0
0
0
0
0
0
0
0
0
0
0
0
0
0
0
0
0
0
0
0
0
0
0
0
0
0
0
0
0
0
0
0
0
0
0
0
0
0
0
0
0
0
0
0
0
0
0
0
0
0
0
0
0
0
0
0
0
0
0
0
0
0
0
0
0
0
0
0
0
0
0
0
0
0
0
0
0
0
0
0
0
0
0
0
0
0
0
0
0
0
0
0
0
0
0
0
0
0
0
0
0
0
0
0
0
0
0
0
0
0
0
0
0
0
0
0
0
0
0
0
0
0
0
0
0
0
0
0
0
0
0
0
0
0
0
0
0
0
0
0
0
0
0
0
0
0
0
0
0
0
0
0
0
0
0
0
0
0
0
0
0
0
0
0
0
0
0
0
0
0
0
0
0
0
0
0
0
0
0
0
0
0
0
0
0
0
0
0
0
0
0
0
0
0
0
0
0
0
0
0
0
0
0
0
0
0
0
0
0
0
0
0
0
0
0
0
0
0
0
0
0
0
0
0
0
0
0
0
0
0
0
0
0
0
0
0
0
0
0
0
0
0
0
0
0
0
0
0
0
0
0
0
0
0
0
0
0
0
0
0
0
0
0
0
0
0
0
0
0
0
0
0
0
0
0
0
0
0
0
0
0
0
0
0
0
0
0
0
0
0
0
0
0
0
0
0
0
0
0
0
0
0
0
0
0
0
0
0
0
0
0
0
0
0
0
0
0
0
0
0
0
0
0
0
0
0
0
0
0
0
0
0
0
0
0
0
0
0
0
0
0
0
0
0
0
0
0
0
0
0
0
0
0
0
0
0
0
0
0
0
0
0
0
0
0
0
0
0
0
0
0
0
0
0
0
0
0
0
0
0
0
0
0
0
0
0
0
0
0
0
0
0
0
0
0
0
0
0
0
0
0
0
0
0
0
0
0
0
0
0
0
0
0
0
0
0
0
0
0
0
0
0
0
0
0
0
0
0
0
0
0
0
0
0
0
0
0
0
0
0
0
0
0
0
0
0
0
0
0
0
0
0
0
0
0
0
0
0
0
0
0
0
0
0
0
0
0
0
0
0
0
0
0
0
0
0
0
0
0
0
0
0
0
0
0
0
0
0
0
0
0
0
0
0
0
0
0
0
0
0
0
0
0
0
0
0
0
0
0
0
0
0
0
0
0
0
0
0
0
0
0
0
0
0
0
0
0
0
0
0
0
0
0
0
0
0
0
0
0
0
0
0
0
0
0
0
0
0
0
0
0
0
0
0
0
0
0
0
0
0
0
0
0
0
0
0
0
0
0
0
0
0
0
0
0
0
0
0
0
0
0
0
0
0
0
0
0
0
0
0
0
0
0
0
0
0
0
0
0
0
0
0
0
0
0
0
0
0
0
0
0
0
0
0
0
0
0
0
0
0
0
0
0
0
0
0
0
0
0
0
0
0
0
0
0
0
0
0
0
0
0
0
0
0
0
0
0
0
0
0
0
0
0
0
0
0
0
0
0
0
0
0
0
0
0
0
0
0
0
0
0
0
0
0
0
0
0
0
0
0
0
0
0
0
0
0
0
0
0
0
0
0
0
0
0
0
0
0
0
0
0
0
0
0
0
0
0
0
0
0
0
0
0
0
0
0
0
0
0
0
0
0
0
0
0
0
0
0
0
0
0
0
0
0
0
0
0
0
0
0
0
0
0
0
0
0
0
0
0
0
0
0
0
0
0
0
0
0
0
0
0
0
0
0
0
0
0
0
0
0
0
0
0
0
0
0
0
0
0
0
0
0
0
0
0
0
0
0
0
0
0
0
0
0
0
0
0
0
0
0
0
0
0
0
0
0
0
0
0
0
0
0
0
0
0
0
0
0
0
0
0
0
0
0
0
0
0
0
0
0
0
0
0
0
0
0
0
0
0
0
0
0
0
0
0
0
0
0
0
0
0
0
0
0
0
0
0
0
0
0
0
0
0
0
0
0
0
0
0
0
0
0
0
0
0
0
0
0
0
0
0
0
0
0
0
0
0
0
0
0
0
0
0
0
0
0
0
0
0
0
0
0
0
0
0
0
0
0
0
0
0
0
0
0
0
0
0
0
0
0
0
0
0
0
0
0
0
0
0
0
0
0
0
0
0
0
0
0
0
0
0
0
0
0
0
0
0
0
0
0
0
0
0
0
0
0
0
0
0
0
0
0
0
0
0
0
0
0
0
0
0
0
0
0
0
0
0
0
0
0
0
0
0
0
0
0
0
0
0
0
0
0
0
0
0
0
0
0
0
0
0
0
0
0
0
0
0
0
0
0
0
0
0
0
0
0
0
0
0
0
0
0
0
0
0
0
0
0
0
0
0
0
0
0
0
0
0
0
0
0
0
0
0
0
0
0
0
0
0
0
0
0
0
0
0
0
0
0
0
0
0
0
0
0
0
0
0
0
0
0
0
0
0
0
0
0
0
0
0
0
0
0
0
0
0
0
0
0
0
0
0
0
0
0
0
0
0
0
0
0
0
0
0
0
0
0
0
0
0
0
0
0
0
0
0
0
0
0
0
0
0
0
0
0
0
0
0
0
0
0
0
0
0
0
0
0
0
0
0
0
0
0
0
0
0
0
0
0
0
0
0
0
0
0
0
0
0
0
0
0
0
0
0
0
0
0
0
0
0
0
0
0
0
0
0
0
0
0
0
0
0
0
0
0
0
0
0
0
0
0
0
0
0
0
0
0
0
0
0
0
0
0
0
0
0
0
0
0
0
0
0
0
0
0
0
0
0
0
0
0
0
0
0
0
0
0
0
0
0
0
0
0
0
0
0
0
0
0
0
0
0
0
0
0
0
0
0
0
0
0
0
0
0
0
0
0
0
0
0
0
0
0
0
0
0
0
0
0
0
0
0
0
0
0
0
0
0
0
0
0
0
0
0
0
0
0
0
0
0
0
0
0
0
0
0
0
0
0
0
0
0
0
0
0
0
0
0
0
0
0
0
0
0
0
0
0
0
0
0
0
0
0
0
0
0
0
0
0
0
0
0
0
0
0
0
0
0
0
0
0
0
0
0
0
0
0
0
0
0
0
0
0
0
0
0
0
0
0
0
0
0
0
0
0
0
0
0
0
0
0
0
0
0
0
0
0
0
0
0
0
0
0
0
0
0
0
0
0
0
0
0
0
0
0
0
0
0
0
0
0
0
0
0
0
0
0
0
0
0
0
0
0
0
0
0
0
0
0
0
0
0
0
0
0
0
0
0
0
0
0
0
0
0
0
0
0
0
0
0
0
0
0
0
0
0
0
0
0
0
0
0
0
0
0
0
0
0
0
0
0
0
0
0
0
0
0
0
0
0
0
0
0
0
0
0
0
0
0
0
0
0
0
0
0
0
0
0
0
0
0
0
0
0
0
0
0
0
0
0
0
0
0
0
0
0
0
0
0
0
0
0
0
0
0
0
0
0
0
0
0
0
0
0
0
0
0
0
0
0
0
0
0
0
0
0
0
0
0
0
0
0
0
0
0
0
0
0
0
0
0
0
0
0
0
0
0
0
0
0
0
0
0
0
0
0
0
0
0
0
0
0
0
0
0
0
0
0
0
0
0
0
0
0
0
0
0
0
0
0
0
0
0
0
0
0
0
0
0
0
0
0
0
0
0
0
0
0
0
0
0
0
0
0
0
0
0
0
0
0
0
0
0
0
0
0
0
0
0
0
0
0
0
0
0
0
0
0
0
0
0
0
0
0
0
0
0
0
0
0
0
0
0
0
0
0
0
0
0
0
0
0
0
0
0
0
0
0
0
0
0
0
0
0
0
0
0
0
0
0
0
0
0
0
0
0
0
0
0
0
0
0
0
0
0
0
0
0
0
0
0
0
0
0
0
0
0
0
0
0
0
0
0
0
0
0
0
0
0
0
0
0
0
0
0
0
0
0
0
0
0
0
0
0
0
0
0
0
0
0
0
0
0
0
0
0
0
0
0
0
0
0
0
0
0
0
0
0
0
0
0
0
0
0
0
0
0
0
0
0
0
0
0
0
0
0
0
0
0
0
0
0
0
0
0
0
0
0
0
0
0
0
0
0
0
0
0
0
0
0
0
0
0
0
0
0
0
0
0
0
0
0
0
0
0
0
0
0
0
0
0
0
0
0
0
0
0
0
0
0
0
0
0
0
0
0
0
0
0
0
0
0
0
0
0
0
0
0
0
0
0
0
0
0
0
0
0
0
0
0
0
0
0
0
0
0
0
0
0
0
0
0
0
0
0
0
0
0
0
0
0
0
0
0
0
0
0
0
0
0
0
0
0
0
0
0
0
0
0
0
0
0
0
0
0
0
0
0
0
0
0
0
0
0
0
0
0
0
0
0
0
0
0
0
0
0
0
0
0
0
0
0
0
0
0
0
0
0
0
0
0
0
0
0
0
0
0
0
0
0
0
0
0
0
0
0
0
0
0
0
0
0
0
0
0
0
0
0
0
0
0
0
0
0
0
0
0
0
0
0
0
0
0
0
0
0
0
0
0
0
0
0
0
0
0
0
0
0
0
0
0
0
0
0
0
0
0
0
0
0
0
0
0
0
0
0
0
0
0
0
0
0
0
0
0
0
0
0
0
0
0
0
0
0
0
0
0
0
0
0
0
0
0
0
0
0
0
0
0
0
0
0
0
0
0
0
0
0
0
0
0
0
0
0
0
0
0
0
0
0
0
0
0
0
0
0
0
0
0
0
0
0
0
0
0
0
0
0
0
0
0
0
0
0
0
0
0
0
0
0
0
0
0
0
0
0
0
0
0
0
0
0
0
0
0
0
0
0
0
0
0
0
0
0
0
0
0
0
0
0
0
0
0
0
0
0
0
0
0
0
0
0
0
0
0
0
0
0
0
0
0
0
0
0
0
0
0
0
0
0
0
0
0
0
0
0
0
0
0
0
0
0
0
0
0
0
0
0
0
0
0
0
0
0
0
0
0
0
0
0
0
0
0
0
0
0
0
0
0
0
0
0
0
0
0
0
0
0
0
0
0
0
0
0
0
0
0
0
0
0
0
0
0
0
0
0
0
0
0
0
0
0
0
0
0
0
0
0
0
0
0
0
0
0
0
0
0
0
0
0
0
0
0
0
0
0
0
0
0
0
0
0
0
0
0
0
0
0
0
0
0
0
0
0
0
0
0
0
0
0
0
0
0
0
0
0
0
0
0
0
0
0
0
0
0
0
0
0
0
0
0
0
0
0
0
0
0
0
0
0
0
0
0
0
0
0
0
0
0
0
0
0
0
0
0
0
0
0
0
0
0
0
0
0
0
0
0
0
0
0
0
0
0
0
0
0
0
0
0
0
0
0
0
0
0
0
0
0
0
0
0
0
0
0
0
0
0
0
0
0
0
0
0
0
0
0
0
0
0
0
0
0
0
0
0
0
0
0
0
0
0
0
0
0
0
0
0
0
0
0
0
0
0
0
0
0
0
0
0
0
0
0
0
0
0
0
0
0
0
0
0
0
0
0
0
0
0
0
0
0
0
0
0
0
0
0
0
0
0
0
0
0
0
0
0
0
0
0
0
0
0
0
0
0
0
0
0
0
0
0
0
0
0
0
0
0
0
0
0
0
0
0
0
0
0
0
0
0
0
0
0
0
0
0
0
0
0
0
0
0
0
0
0
0
0
0
0
0
0
0
0
0
0
0
0
0
0
0
0
0
0
0
0
0
0
0
0
0
0
0
0
0
0
0
0
0
0
0
0
0
0
0
0
0
0
0
0
0
0
0
0
0
0
0
0
0
0
0
0
0
0
0
0
0
0
0
0
0
0
0
0
0
0
0
0
0
0
0
0
0
0
0
0
0
0
0
0
0
0
0
0
0
0
0
0
0
0
0
0
0
0
0
0
0
0
0
0
0
0
0
0
0
0
0
0
0
0
0
0
0
0
0
0
0
0
0
0
0
0
0
0
0
0
0
0
0
0
0
0
0
0
0
0
0
0
0
0
0
0
0
0
0
0
0
0
0
0
0
0
0
0
0
0
0
0
0
0
0
0
0
0
0
0
0
0
0
0
0
0
0
0
0
0
0
0
0
0
0
0
0
0
0
0
0
0
0
0
0
0
0
0
0
0
0
0
0
0
0
0
0
0
0
0
0
0
0
0
0
0
0
0
0
0
0
0
0
0
0
0
0
0
0
0
0
0
0
0
0
0
0
0
0
0
0
0
0
0
0
0
0
0
0
0
0
0
0
0
0
0
0
0
0
0
0
0
0
0
0
0
0
0
0
0
0
0
0
0
0
0
0
0
0
0
0
0
0
0
0
0
0
0
0
0
0
0
0
0
0
0
0
0
0
0
0
0
0
0
0
0
0
0
0
0
0
0
0
0
0
0
0
0
0
0
0
0
0
0
0
0
0
0
0
0
0
0
0
0
0
0
0
0
0
0
0
0
0
0
0
0
0
0
0
0
0
0
0
