-6.30646
-6.26144
-6.21307
-6.15777
-6.09172
-6.01198
-5.91735
-5.80754
-5.68312
-5.54542
-5.39605
-5.23641
-5.06738
-4.88926
-4.70195
-4.50534
-4.29972
-4.08616
-3.86658
-3.64361
-3.42035
-3.19993
-2.98525
-2.77881
-2.5827
-2.39869
-2.22833
-2.07322
-1.93487
-1.8143
-1.71218
-1.62881
-1.56424
-1.51899
-1.49353
-1.48803
-1.50285
-1.53837
-1.59461
-1.67083
-1.76521
-1.87474
-1.99531
-2.12205
-2.25015
-2.37559
-2.49521
-2.60701
-2.71008
-2.80438
-2.89032
-2.96837
-3.03879
-3.10145
-3.15592
-3.20148
-3.23726
-3.26197
-3.27432
-3.27338
-3.25867
-3.23041
-3.18995
-3.13932
-3.08206
-3.02372
-2.97005
-2.92582
-2.89379
-2.87415
-2.86459
-2.86085
-2.8577
-2.85
-2.83425
-2.80892
-2.77373
-2.72942
-2.67771
-2.62093
-2.56189
-2.50339
-2.44753
-2.3955
-2.3474
-2.30249
-2.25955
-2.2174
-2.17541
-2.13374
-2.09344
-2.05623
-2.02408
-1.99881
-1.98161
-1.9728
-1.97165
-1.97648
-1.98469
-1.99304
-1.99788
-1.99545
-1.98224
-1.95524
-1.91206
-1.8513
-1.7728
-1.67778
-1.56872
-1.44912
-1.32305
-1.19476
-1.0683
-0.94782
-0.837946
-0.743215
-0.667129
-0.613067
-0.584196
-0.582957
-0.61034
-0.665157
-0.743562
-0.839001
-0.942715
-1.04482
-1.13645
-1.21129
-1.2662
-1.29576
-1.29129
-1.24032
-1.14978
-1.0552
-0.996906
-1.00877
-1.10569
-1.27717
-1.49395
-1.72567
-1.95681
-1.26424
0
1.65382
3.44299
5.13593
6.50974
7.33287
7.40244
6.64649
5.21646
3.47522
1.85563
0.669323
-0.0105297
-0.326993
-0.522718
-0.70298
-0.875264
-1.03529
-1.17903
-1.30297
-1.40462
-1.48269
-1.53678
-1.56715
-1.57448
-1.55968
-1.52381
-1.4683
-1.39519
-1.30765
-1.20856
-1.10307
-0.997601
-0.897822
-0.807327
-0.726669
-0.653109
-0.581212
-0.504138
-0.415258
-0.310701
-0.189626
-0.0527626
0.0978218
0.258838
0.426239
0.595797
0.76357
0.926216
1.08116
1.22665
1.3617
1.486
1.59965
1.70284
1.79543
1.87639
1.94325
1.99199
2.01813
2.01642
1.98206
1.91192
1.80564
1.66607
1.49914
1.313
1.11705
0.920315
0.729096
0.548616
0.383434
0.237967
0.115514
0.0176888
-0.0551647
-0.104093
-0.131538
-0.141129
-0.137241
-0.124364
-0.106425
-0.086285
-0.0653305
-0.0435825
-0.0200058
0.00702438
0.0391342
0.0773251
0.121944
0.172882
0.228409
0.284651
0.337766
0.385231
0.426759
0.464464
0.502075
0.54349
0.591208
0.645237
0.702492
0.759497
0.812579
0.858291
0.893843
0.917227
0.927109
0.922649
0.903754
0.870518
0.823784
0.765393
0.698332
0.626641
0.555095
0.488635
0.431865
0.38857
0.361421
0.351881
0.360322
0.386268
0.428666
0.486937
0.562757
0.661229
0.783509
0.90946
1.01048
1.05695
1.03065
0.936137
0.803915
0.682417
0.621199
0.652351
0.741177
0.858197
0.994344
1.1399
1.28103
1.40538
1.50482
1.57682
1.62464
1.65628
1.6824
1.71373
1.76479
1.83961
1.91909
1.97296
1.97156
1.89701
1.74997
1.55048
1.33278
1.13528
0.979875
0.859767
0.782061
0.735405
0.7005
0.655753
0.583468
0.474441
0.327864
0.153616
-0.0338684
-0.220319
-0.39447
0
1.09886
2.75685
4.74278
6.68501
8.17593
8.89359
8.70745
7.7328
6.30052
4.83181
3.66119
2.90433
2.45283
2.10089
1.83266
1.59431
1.37738
1.18875
1.03294
0.912828
0.828866
0.779215
0.760833
0.769846
0.801725
0.851355
0.913103
0.981026
1.04928
1.11267
1.16732
1.21127
1.24476
1.27027
1.29199
1.31496
1.34411
1.38322
1.43416
1.49633
1.56835
1.64896
1.73701
1.83167
1.93252
2.03946
2.15246
2.27127
2.3951
2.52248
2.6512
2.77838
2.90064
3.01417
3.11509
3.20021
3.26707
3.31414
3.34073
3.34689
3.33311
3.30003
3.24826
3.17831
3.09104
2.98747
2.86882
2.73682
2.59396
2.44342
2.28884
2.13397
1.9824
1.83729
1.70118
1.576
1.46315
1.36378
1.27908
1.21005
1.15746
1.12164
1.10228
1.09952
1.11222
1.13578
1.1624
1.18398
1.19374
1.18753
1.16473
1.12827
1.08394
1.03907
1.00088
0.97399
0.959635
0.956717
0.96328
0.976556
0.992986
1.00932
1.02328
1.03395
1.04168
1.04766
1.05331
1.05958
1.06651
1.07314
1.07768
1.07791
1.07156
1.05698
1.03348
1.00153
0.962833
0.920181
0.87722
0.83805
0.806787
0.786942
0.780541
0.789002
0.812842
0.85148
0.903315
0.966085
1.03707
1.11336
1.19198
1.26996
1.34362
1.40836
1.45991
1.49407
1.50722
1.49681
1.46177
1.40254
1.32092
1.21975
1.10262
0.974818
0.841332
0.706479
0.574188
0.448017
0.330897
0.224917
0.131045
0.0490025
-0.0224382
-0.0850019
-0.140414
-0.189814
-0.233621
-0.271575
-0.302701
-0.325583
-0.338681
0
0.941169
2.41077
4.25878
6.14606
7.64112
8.38747
8.25488
7.38488
6.1027
4.75369
3.56454
2.60225
1.82788
1.18678
0.838942
0.596001
0.378312
0.186603
0.0240602
-0.108114
-0.2108
-0.286303
-0.33795
-0.36967
-0.385605
-0.389765
-0.385777
-0.376734
-0.365207
-0.353272
-0.342642
-0.33494
-0.331445
-0.332923
-0.339256
-0.349035
-0.35925
-0.365203
-0.360701
-0.338527
-0.291896
-0.215662
-0.105433
0.0418538
0.226849
0.447417
0.710428
1.02679
1.36918
1.67996
1.90873
2.02567
2.02878
1.94383
1.81666
1.69933
1.63447
1.65759
1.79154
1.97319
2.12296
2.17578
2.09912
1.89741
1.60736
1.28799
1.00457
0.789391
0.617088
0.46495
0.323854
0.190453
0.0624439
-0.060998
-0.178842
-0.288433
-0.386482
-0.469965
-0.53703
-0.586117
-0.620118
-0.643932
-0.663114
-0.682435
-0.70476
-0.730544
-0.758024
-0.783943
-0.804523
-0.817126
-0.820398
-0.813844
-0.79765
-0.772978
-0.742342
-0.709815
-0.680374
-0.658426
-0.64677
-0.645876
-0.653683
-0.666074
-0.677965
-0.684706
-0.683338
-0.673684
-0.657886
-0.638251
-0.617112
-0.596341
-0.576977
-0.55921
-0.542645
-0.526701
-0.510953
-0.495346
-0.480161
-0.465844
-0.452537
-0.439485
-0.424568
-0.404053
-0.372793
-0.324981
-0.255415
-0.160992
-0.0420017
0.0995964
0.255795
0.413436
0.559769
0.685778
0.788101
0.868864
0.933584
0.985786
1.02802
1.05739
1.06604
1.04524
0.990002
0.901903
0.789336
0.665275
0.543637
0.434163
0.339231
0.258087
0.190534
0.136182
0.0941003
0.0630362
0.0414275
0.0277002
0.0194487
0.0122368
0
-0.0167603
-0.0503923
-0.104153
-0.179394
-0.272645
-0.377359
-0.484997
-0.586184
-0.229061
0.822374
2.40708
4.32098
6.23002
7.76701
8.6396
8.70564
7.99952
6.71645
5.16017
3.65673
2.45184
1.6336
1.13274
0.865092
0.630372
0.410015
0.210748
0.0383809
-0.103163
-0.211633
-0.286533
-0.329014
-0.341625
-0.327994
-0.292547
-0.23754
-0.165002
-0.0836106
-0.00749345
0.0501316
0.0808648
0.0851388
0.0740357
0.0672098
0.0870213
0.151009
0.259384
0.396351
0.551025
0.716748
0.886847
1.05569
1.21942
1.37614
1.52568
1.66904
1.80762
1.94259
2.07436
2.2024
2.32541
2.44169
2.54945
2.64704
2.7329
2.80381
2.85472
2.88132
2.87819
2.8395
2.76042
2.63863
2.47559
2.27706
2.05277
1.81536
1.57866
1.35291
1.14699
0.967653
0.820136
0.711282
0.64668
0.615527
0.600215
0.583839
0.555037
0.511257
0.459226
0.412314
0.385672
0.390913
0.423939
0.489488
0.581578
0.682252
0.772506
0.837285
0.86892
0.868439
0.844736
0.811909
0.78536
0.777253
0.789567
0.826005
0.876993
0.927976
0.964918
0.979682
0.972906
0.952969
0.931495
0.917609
0.913477
0.913163
0.911364
0.902748
0.883449
0.852114
0.810126
0.76109
0.709893
0.661426
0.619167
0.585546
0.562572
0.551261
0.551582
0.562639
0.582896
0.609549
0.639157
0.66851
0.695241
0.718266
0.737973
0.756081
0.775236
0.798444
0.828257
0.866153
0.912929
0.969186
1.0343
1.104
1.17055
1.22545
1.2611
1.27233
1.25729
1.21729
1.15586
1.07729
0.985522
0.884115
0.774907
0.658539
0.535297
0.405798
0.271539
0.135159
0.000321388
-0.12869
-0.247832
-0.353882
-0.443493
-0.517248
-0.581366
-0.644141
-0.713465
-0.794321
-0.887061
-0.987015
-1.08553
-0.902789
0
1.46643
3.33764
5.35152
7.16887
8.42009
8.80495
8.22369
6.85821
5.12555
3.49991
2.30338
1.59559
1.21879
0.935504
0.631695
0.341363
0.0677786
-0.180638
-0.397046
-0.572334
-0.680164
-0.694037
-0.644127
-0.572285
-0.517888
-0.504165
-0.530946
-0.577087
-0.611217
-0.605507
-0.549412
-0.463043
-0.360129
-0.247252
-0.129486
-0.0111856
0.104579
0.216349
0.324335
0.430202
0.53663
0.646713
0.763292
0.888334
1.02247
1.1648
1.31298
1.46361
1.61278
1.75662
1.89176
2.01533
2.12458
2.21777
2.29413
2.35303
2.39371
2.41512
2.41587
2.39426
2.34858
2.27745
2.18114
2.06101
1.91962
1.7612
1.59135
1.41635
1.24231
1.07413
0.915537
0.769023
0.635973
0.517074
0.412732
0.323377
0.249513
0.191616
0.149902
0.123965
0.112642
0.113971
0.124771
0.140055
0.154059
0.161901
0.160501
0.149189
0.129766
0.105983
0.0825386
0.0639042
0.0530609
0.0504787
0.0554672
0.0672529
0.0846003
0.106111
0.130499
0.15671
0.18387
0.211236
0.238154
0.264036
0.288376
0.310764
0.330897
0.348538
0.363589
0.376236
0.387043
0.397128
0.408307
0.423133
0.444763
0.476634
0.521992
0.583278
0.661279
0.755428
0.86585
0.991507
1.12424
1.2507
1.35768
1.43482
1.47659
1.48311
1.45972
1.4156
1.36184
1.30909
1.26371
1.22754
1.20184
1.17976
1.14872
1.09511
1.00928
0.889653
0.744188
0.58828
0.439934
0.31413
0.210904
0.12954
0.0680401
0.0224796
-0.0114639
-0.037175
-0.0562677
-0.0683752
-0.0714949
-0.0632107
-0.0412106
-0.00334339
0.055489
0.615492
1.78818
3.19153
4.53293
5.52623
5.99266
5.9174
5.43824
4.772
4.113
3.55841
3.09763
2.66476
2.30521
2.05084
1.84571
1.67436
1.53774
1.43575
1.36519
1.32066
1.29577
1.28437
1.28126
1.28319
1.2887
1.29749
1.30983
1.32595
1.34578
1.36831
1.39142
1.41242
1.42877
1.43899
1.44334
1.44422
1.44605
1.45462
1.47599
1.51517
1.57462
1.6532
1.74708
1.85187
1.96278
2.07517
2.18536
2.29103
2.39127
2.48634
2.57703
2.66407
2.74767
2.82684
2.89874
2.95813
2.99804
3.01158
2.99254
2.93672
2.84308
2.71429
2.55647
2.37807
2.18814
1.99507
1.80426
1.61854
1.4404
1.27194
1.11508
0.971617
0.843112
0.730787
0.635247
0.556168
0.492448
0.442416
0.404136
0.375751
0.355752
0.343095
0.337167
0.337571
0.343844
0.355345
0.371099
0.389284
0.407326
0.422655
0.433298
0.438401
0.438517
0.435555
0.432421
0.432471
0.438854
0.453538
0.477539
0.511399
0.555442
0.609526
0.670864
0.731671
0.782196
0.813643
0.820797
0.803923
0.769017
0.726122
0.686283
0.658272
0.644087
0.640779
0.645336
0.655426
0.668733
0.683244
0.697504
0.710679
0.72244
0.732936
0.742705
0.752578
0.763622
0.777021
0.793851
0.814787
0.839992
0.868874
0.899429
0.929165
0.955731
0.977356
0.992859
1.00117
0.999125
0.983281
0.948993
0.891803
0.809539
0.704147
0.582353
0.454689
0.33312
0.228065
0.141073
0.0737088
0.0250264
-0.00901356
-0.0343691
-0.0574893
-0.0841
-0.118304
-0.162076
-0.215192
-0.275865
-0.340462
-0.404685
-0.464221
-0.515137
0
1.16241
2.8051
4.70583
6.51618
7.85193
8.41903
8.12718
7.13234
5.77492
4.43493
3.3765
2.66624
2.20161
1.81293
1.45212
1.10785
0.799161
0.540823
0.343833
0.213493
0.14824
0.139776
0.174592
0.236545
0.309792
0.381431
0.445006
0.499456
0.545342
0.583399
0.615198
0.642625
0.667176
0.690035
0.712044
0.733886
0.756844
0.783488
0.817919
0.865395
0.931411
1.02057
1.13432
1.27025
1.42625
1.60047
1.79078
1.9951
2.21169
2.43982
2.68482
2.96417
3.27985
3.58634
3.81521
3.90575
3.84072
3.66114
3.44585
3.26521
3.13848
3.02335
2.90117
2.76776
2.61966
2.45688
2.28272
2.10275
1.92359
1.75076
1.58878
1.44084
1.30857
1.19225
1.09116
1.00402
0.929464
0.866373
0.814054
0.772388
0.741742
0.722488
0.714777
0.718222
0.731629
0.753219
0.780012
0.808458
0.834988
0.85651
0.870791
0.876663
0.874033
0.863752
0.847379
0.827085
0.804956
0.7829
0.762503
0.744933
0.730905
0.720832
0.715054
0.714049
0.718533
0.729364
0.74726
0.772422
0.804446
0.841708
0.881325
0.919748
0.953324
0.978825
0.99408
0.998206
0.991649
0.975987
0.953555
0.926976
0.89873
0.870865
0.84493
0.822093
0.803747
0.791723
0.788608
0.797212
0.820154
0.85909
0.914
0.982767
1.06138
1.14416
1.22483
1.29748
1.35725
1.40063
1.42524
1.42927
1.41153
1.37112
1.30763
1.22162
1.11509
0.991787
0.857032
0.717241
0.579069
0.447909
0.32831
0.223267
0.133797
0.0592089
-0.00250587
-0.0540777
-0.0982468
-0.136217
-0.168621
-0.194153
-0.20976
-0.211506
0
0.990249
2.42221
4.06795
5.67134
7.00558
7.87955
8.14147
7.72136
6.69332
5.28991
3.82709
2.57263
1.64427
1.00523
0.729343
0.540407
0.368844
0.217492
0.0876659
-0.020716
-0.108425
-0.175013
-0.220709
-0.24651
-0.253176
-0.241732
-0.21399
-0.172797
-0.121818
-0.0649307
-0.00541601
0.0546771
0.114865
0.175836
0.239091
0.306482
0.379632
0.459653
0.546951
0.641156
0.741279
0.846023
0.954139
1.06474
1.17746
1.29242
1.41002
1.53049
1.65355
1.77812
1.90177
2.02015
2.12774
2.21867
2.28749
2.32971
2.34225
2.32358
2.27372
2.19415
2.08775
1.95906
1.81361
1.6576
1.49744
1.33863
1.18549
1.04138
0.908335
0.786764
0.675334
0.571334
0.471238
0.371451
0.269104
0.162733
0.0527101
-0.0586777
-0.167272
-0.267186
-0.352445
-0.418022
-0.460882
-0.480629
-0.479427
-0.460673
-0.430675
-0.395617
-0.360177
-0.326676
-0.295046
-0.263594
-0.230223
-0.193186
-0.154351
-0.119353
-0.0951265
-0.0868059
-0.0952528
-0.116446
-0.143053
-0.167443
-0.184737
-0.195598
-0.20299
-0.210276
-0.220573
-0.235569
-0.254961
-0.276667
-0.297676
-0.315145
-0.327742
-0.335786
-0.340158
-0.342349
-0.344076
-0.346701
-0.350781
-0.355866
-0.360606
-0.363154
-0.361793
-0.354747
-0.34179
-0.327041
-0.316761
-0.317096
-0.331483
-0.358712
-0.392462
-0.422601
-0.437815
-0.428631
-0.395078
-0.340679
-0.267043
-0.177492
-0.0762907
0.0319242
0.143081
0.253842
0.36082
0.459752
0.545713
0.613985
0.659473
0.677525
0.665011
0.621195
0.548137
0.450571
0.335356
0.211046
0.0858318
-0.0345459
-0.14639
-0.247503
-0.336651
-0.414367
-0.482908
-0.545469
-0.605417
-0.665473
-0.727282
-0.790355
-0.850721
-0.902431
-0.939359
-0.957107
-0.86497
0
1.34304
3.02237
4.7982
6.4039
7.59672
8.18455
8.05556
7.22321
5.85754
4.25588
2.74414
1.55687
0.770457
0.324608
0.227812
0.154797
0.090515
0.037
-0.00450287
-0.0333815
-0.0494329
-0.0526598
-0.0431656
-0.0212038
0.0126857
0.0586651
0.116618
0.182092
0.245533
0.296823
0.328262
0.337317
0.327951
0.309908
0.296173
0.29959
0.328539
0.381482
0.454778
0.546339
0.654357
0.776543
0.910426
1.05365
1.20415
1.36014
1.52003
1.6822
1.84477
2.00543
2.1614
2.30954
2.44655
2.56908
2.67367
2.75766
2.81957
2.8586
2.87444
2.86711
2.83686
2.7842
2.71004
2.61596
2.50487
2.38057
2.24697
2.1083
1.96881
1.83234
1.70205
1.5802
1.46825
1.36687
1.27618
1.19581
1.12501
1.0626
1.00687
0.955795
0.907221
0.859174
0.810123
0.759216
0.706408
0.652455
0.598794
0.547399
0.500405
0.45979
0.427081
0.403154
0.38816
0.381575
0.38235
0.389094
0.400206
0.414047
0.429179
0.444309
0.458315
0.470262
0.479428
0.485295
0.487541
0.486154
0.481407
0.473854
0.464288
0.453649
0.442891
0.432919
0.424597
0.418754
0.416461
0.419245
0.429067
0.447954
0.477321
0.517924
0.569013
0.625378
0.680157
0.726608
0.759746
0.777178
0.778909
0.766462
0.741912
0.708639
0.66913
0.62557
0.580835
0.538626
0.503356
0.480327
0.474249
0.488802
0.525853
0.585271
0.671512
0.77613
0.880785
0.966981
1.02204
1.04343
1.03949
1.02626
1.0217
1.03963
1.09201
1.17845
1.27415
1.34661
1.36594
1.31227
1.18111
0.986411
0.759429
0.54172
0.37291
0.260494
0.186874
0.159848
0.200798
0.318569
0.464211
0.580927
0.609827
0.508561
0.277143
-0.0296906
-0.321386
-0.517821
-0.599571
0
1.32224
3.00358
4.86527
6.6952
8.23138
9.19921
9.40753
8.84072
7.67442
6.20117
4.71642
3.43045
2.43955
1.74092
1.35056
1.1686
1.00305
0.853522
0.722445
0.611078
0.519684
0.448083
0.395477
0.360513
0.34191
0.338561
0.349512
0.373911
0.410966
0.45995
0.520233
0.591165
0.671947
0.761823
0.859835
0.964477
1.07357
1.18429
1.29336
1.39726
1.49321
1.57971
1.65716
1.72809
1.7971
1.8703
1.95448
2.05598
2.17957
2.32682
2.5052
2.72455
2.96464
3.18657
3.35354
3.44224
3.44908
3.38906
3.28815
3.17259
3.05943
2.95061
2.84135
2.72763
2.60578
2.47256
2.32598
2.16583
1.99393
1.81394
1.63102
1.45118
1.28084
1.12646
0.993286
0.884409
0.80087
0.741705
0.704226
0.684502
0.677984
0.680147
0.687046
0.69564
0.704022
0.711188
0.716753
0.720693
0.723147
0.724293
0.724344
0.723615
0.722648
0.722274
0.723601
0.727891
0.736329
0.749726
0.768243
0.791234
0.817282
0.844359
0.870223
0.892835
0.910681
0.92293
0.929404
0.930393
0.926402
0.918024
0.905595
0.889185
0.868628
0.843597
0.813713
0.778692
0.738525
0.693609
0.644821
0.593464
0.541096
0.489325
0.439684
0.393173
0.350315
0.31135
0.276443
0.245768
0.21941
0.197428
0.179162
0.163666
0.150171
0.138655
0.130185
0.126801
0.130905
0.1444
0.16793
0.199632
0.237583
0.279701
0.323903
0.368408
0.411709
0.452154
0.487737
0.515912
0.533401
0.53651
0.521738
0.48648
0.429671
0.352236
0.257275
0.149783
0.0359382
-0.0749217
-0.17291
-0.249459
-0.298558
-0.317564
-0.307404
-0.272125
-0.217822
-0.151122
-0.0774946
0
0.0883096
0.182166
0.284176
0.397564
0.525407
0.669896
0.831949
1.01134
1.60106
2.91528
4.76227
6.92993
9.04605
10.7047
11.6166
11.7055
11.1031
10.0547
8.80243
7.51634
6.29901
5.22988
4.39463
3.89031
3.89528
3.91279
3.93398
3.95764
3.9822
4.00611
4.02814
4.04748
4.06365
4.07649
4.08609
4.09276
4.09715
4.10031
4.10373
4.10936
4.11922
4.13502
4.15782
4.18778
4.22419
4.26577
4.31121
4.35968
4.4112
4.46698
4.52919
4.60056
4.68377
4.78078
4.89228
5.01742
5.15383
5.29799
5.44579
5.5931
5.73576
5.86789
5.98189
6.07328
6.13786
6.17274
6.17763
6.15554
6.11164
6.05062
5.97396
5.88002
5.76929
5.63976
5.48941
5.31874
5.13119
4.93262
4.73036
4.53147
4.34137
4.16393
4.00104
3.85272
3.71754
3.5932
3.4772
3.36733
3.26208
3.16074
3.06345
2.9711
2.88514
2.80744
2.74025
2.68594
2.64625
2.6221
2.61563
2.62691
2.65003
2.67712
2.69987
2.71109
2.70566
2.68074
2.6351
2.56839
2.48102
2.37642
2.25769
2.12758
1.98966
1.84871
1.71238
1.58975
1.48935
1.41773
1.37845
1.37158
1.394
1.44004
1.50251
1.57359
1.64561
1.71166
1.76615
1.80536
1.82798
1.83541
1.83177
1.82351
1.81847
1.82467
1.84774
1.88982
1.95182
2.03588
2.14043
2.2594
2.3835
2.50033
2.59618
2.66039
2.68532
2.66715
2.60671
2.50968
2.38529
2.24362
2.09268
1.93774
1.78177
1.6266
1.47434
1.32777
1.19004
1.06464
0.955122
0.860586
0.776213
0.694117
0.602628
0.46481
0.211937
-0.13316
-0.461419
-0.690119
-0.772361
-0.682576
-0.41567
0
1.06524
2.55471
4.25472
5.80442
6.84016
7.15843
6.79839
6.00065
5.07534
4.26175
3.65804
3.24027
2.94255
2.78034
2.66796
2.57361
2.4921
2.42275
2.36534
2.31894
2.28208
2.25309
2.23033
2.21249
2.19884
2.18948
2.1855
2.18892
2.20234
2.22865
2.27062
2.33032
2.4087
2.50535
2.61848
2.74515
2.88172
3.0243
3.16985
3.31653
3.46354
3.61109
3.76003
3.91136
4.06568
4.22271
4.3811
4.53846
4.69163
4.83705
4.97121
5.09068
5.19216
5.2733
5.33369
5.37393
5.3956
5.40109
5.39319
5.37438
5.34586
5.30659
5.2528
5.17924
5.08034
4.9524
4.79555
4.61466
4.41884
4.21962
4.02839
3.85123
3.69154
3.55117
3.42976
3.3254
3.23556
3.15787
3.09066
3.0333
2.98654
2.95131
2.92861
2.91894
2.92311
2.93981
2.96598
2.99818
3.03336
3.06943
3.10534
3.14067
3.17476
3.20622
3.23259
3.25084
3.25823
3.2532
3.23579
3.20741
3.17008
3.12538
3.07419
3.01598
2.94906
2.87106
2.77949
2.67259
2.54976
2.41188
2.2612
2.10106
1.93535
1.7679
1.60208
1.44053
1.28514
1.13721
0.997638
0.867152
0.746397
0.63598
0.536426
0.448125
0.371318
0.306149
0.252758
0.21109
0.181013
0.162294
0.154639
0.157589
0.170628
0.19323
0.224833
0.2648
0.313075
0.369086
0.428157
0.481877
0.521483
0.540876
0.539216
0.521599
0.497162
0.47525
0.461399
0.454056
0.448516
0.438583
0.418519
0.384892
0.337207
0.277158
0.206969
0.127692
0.0397175
-0.0583313
-0.176716
-0.331671
-0.514399
-0.696125
-0.844873
-0.941015
-0.984508
-0.989502
-0.971398
-0.936614
-0.882237
-0.756919
0
1.31423
3.08948
5.07301
6.89199
8.14072
8.51613
7.9514
6.66472
5.06763
3.57416
2.42427
1.62762
1.04496
0.561697
0.307342
0.0870232
-0.0801872
-0.183711
-0.223872
-0.210997
-0.162038
-0.0957798
-0.0281265
0.0323898
0.0850266
0.131081
0.172017
0.209931
0.246959
0.285157
0.326255
0.371824
0.423545
0.483273
0.552767
0.633107
0.724057
0.823701
0.928574
1.03461
1.13823
1.23747
1.33272
1.42666
1.52342
1.62722
1.74088
1.86417
1.99481
2.12883
2.26044
2.38414
2.49603
2.59465
2.68086
2.75673
2.82185
2.87452
2.9091
2.91505
2.88159
2.80302
2.68182
2.52792
2.35448
2.17259
1.98834
1.80321
1.61739
1.43141
1.24707
1.06805
0.90003
0.749719
0.623726
0.527437
0.463972
0.433537
0.443221
0.497611
0.57789
0.658618
0.717362
0.740707
0.727622
0.688658
0.641092
0.602025
0.582327
0.578027
0.582526
0.591965
0.600692
0.603444
0.596773
0.579931
0.555127
0.527048
0.501674
0.484663
0.479754
0.48681
0.504691
0.528527
0.552081
0.569892
0.578988
0.579858
0.576377
0.574682
0.581321
0.601208
0.634863
0.680002
0.732754
0.786922
0.836279
0.876094
0.904049
0.920252
0.926521
0.925331
0.918993
0.909716
0.899217
0.889722
0.884367
0.88717
0.902506
0.934224
0.984719
1.05222
1.13501
1.2296
1.33226
1.4359
1.53056
1.60721
1.65937
1.68428
1.6831
1.65989
1.61977
1.56697
1.50379
1.43284
1.35487
1.26989
1.1785
1.08204
0.982526
0.882341
0.783676
0.688277
0.596956
0.509299
0.423548
0.336771
0.243417
0.130295
-0.00585327
-0.160521
-0.323512
-0.482983
0
1.19156
2.99265
5.17678
7.34694
9.03527
9.86492
9.69849
8.68731
7.19336
5.62859
4.29896
3.3276
2.67692
2.23265
1.9981
1.80929
1.63768
1.48729
1.36199
1.26404
1.19406
1.15117
1.13353
1.13886
1.16351
1.19913
1.23328
1.25513
1.25804
1.24174
1.21312
1.18477
1.17143
1.18542
1.23137
1.30096
1.38878
1.48891
1.59546
1.70383
1.81182
1.91901
2.02629
2.13524
2.24747
2.36414
2.48582
2.61241
2.74324
2.87732
3.01361
3.15127
3.2899
3.42958
3.57099
3.71531
3.86158
3.99974
4.11077
4.17183
4.16457
4.08285
3.93635
3.74791
3.54536
3.35137
3.17162
3.00091
2.83525
2.67261
2.51134
2.35033
2.18913
2.0279
1.86721
1.70798
1.55152
1.39968
1.2554
1.12458
1.0128
0.925568
0.866874
0.837779
0.840005
0.865248
0.901941
0.93799
0.963369
0.971719
0.960641
0.931039
0.886142
0.831562
0.77319
0.715654
0.663274
0.619778
0.587887
0.56952
0.563881
0.567825
0.576868
0.586146
0.591401
0.589764
0.580161
0.563301
0.541269
0.516854
0.492656
0.470388
0.450385
0.431578
0.411922
0.388782
0.359505
0.32193
0.274729
0.217522
0.150832
0.076049
-0.00467072
-0.0889328
-0.174163
-0.257279
-0.334455
-0.401884
-0.456182
-0.494678
-0.515671
-0.518463
-0.503158
-0.470308
-0.420565
-0.354504
-0.271261
-0.164468
-0.0283592
0.128609
0.280711
0.398675
0.457759
0.443734
0.355479
0.204825
0.014801
-0.183396
-0.356577
-0.489196
-0.584952
-0.652137
-0.684357
-0.682274
-0.661898
-0.646498
-0.659125
-0.717225
-0.828641
-0.990332
-1.19037
-1.41253
-1.64136
-1.86543
-1.29219
0
1.84419
4.01993
6.18991
7.96235
8.97378
9.00604
8.08842
6.51145
4.71821
3.11674
1.91952
1.09924
0.478803
0.0442562
-0.256625
-0.530389
-0.771423
-0.975164
-1.14093
-1.2711
-1.37034
-1.44458
-1.49936
-1.53974
-1.56918
-1.58873
-1.59676
-1.58915
-1.55991
-1.50218
-1.40954
-1.27725
-1.10547
-0.895489
-0.651655
-0.380712
-0.0912121
0.208871
0.512849
0.815909
1.11539
1.41058
1.70205
1.99089
2.27784
2.56267
2.84393
3.11901
3.38447
3.6367
3.87248
4.0896
4.28707
4.46491
4.62304
4.76023
4.87396
4.96133
5.01868
5.03877
5.01331
4.93614
4.80563
4.6257
4.40542
4.15771
3.89842
3.64127
3.39388
3.16137
2.94852
2.75844
2.59243
2.44999
2.32889
2.22589
2.13734
2.05982
1.99058
1.92766
1.86988
1.81659
1.76737
1.72156
1.67817
1.636
1.59384
1.55073
1.50619
1.46035
1.41388
1.36783
1.3233
1.28121
1.24221
1.20661
1.17405
1.14374
1.11489
1.08698
1.05996
1.03412
1.00985
0.987338
0.96611
0.945148
0.923194
0.899195
0.872641
0.843633
0.812674
0.780312
0.746859
0.712412
0.676847
0.640212
0.603022
0.566473
0.532475
0.50351
0.482045
0.470461
0.470638
0.48356
0.509163
0.546382
0.593411
0.648109
0.708443
0.772762
0.840199
0.91053
0.983954
1.06074
1.14095
1.22415
1.30725
1.38317
1.44288
1.47757
1.48095
1.45076
1.38907
1.30122
1.19423
1.07528
0.951683
0.827877
0.706443
0.589172
0.477196
0.370997
0.270399
0.174324
0.0809612
-0.0120962
-0.108075
-0.213266
-0.340815
-0.492659
-0.649833
-0.783592
-0.870146
-0.839442
0
1.37916
3.1782
5.14304
6.91952
8.13532
8.52435
8.03849
6.87357
5.3772
3.88714
2.60355
1.57078
0.751107
0.128441
-0.106432
-0.30474
-0.464756
-0.575644
-0.632257
-0.635891
-0.594354
-0.521003
-0.432375
-0.344548
-0.269057
-0.207452
-0.155215
-0.105957
-0.0512516
0.017112
0.104794
0.211047
0.332789
0.466103
0.606184
0.746774
0.881539
1.00603
1.11866
1.22098
1.31739
1.41412
1.51789
1.63458
1.76806
1.91839
2.08407
2.26274
2.4507
2.64316
2.83428
3.01511
3.17672
3.31086
3.41111
3.4736
3.497
3.48175
3.42876
3.33814
3.20911
3.04599
2.85159
2.62617
2.37173
2.09248
1.79476
1.48667
1.17697
0.874354
0.586779
0.320855
0.0813652
-0.12902
-0.309717
-0.461834
-0.588321
-0.694263
-0.785251
-0.866419
-0.941597
-1.01275
-1.07975
-1.14086
-1.19336
-1.23446
-1.26221
-1.27604
-1.27695
-1.26735
-1.25063
-1.23061
-1.21088
-1.19446
-1.18356
-1.17952
-1.18276
-1.19303
-1.20961
-1.23163
-1.2583
-1.28909
-1.32373
-1.36199
-1.40355
-1.44771
-1.49252
-1.53447
-1.56892
-1.59065
-1.59468
-1.5771
-1.53572
-1.47066
-1.38465
-1.28156
-1.16746
-1.05595
-0.961026
-0.893678
-0.859018
-0.85483
-0.872093
-0.897315
-0.91584
-0.915036
-0.892017
-0.848667
-0.786182
-0.705506
-0.60847
-0.497689
-0.376249
-0.247337
-0.114039
0.0203178
0.151298
0.272742
0.377107
0.456697
0.503336
0.509461
0.469682
0.382445
0.251326
0.085475
-0.101238
-0.292412
-0.473279
-0.636295
-0.780209
-0.904054
-1.00682
-1.08864
-1.15014
-1.19167
-1.21314
-1.21424
-1.19417
-1.15201
-1.08741
-1.00111
-0.895477
-0.774667
-0.624066
0
1.10083
2.78149
4.89778
7.05141
8.71541
9.44576
9.06962
7.7526
5.91575
4.05216
2.53863
1.53112
0.972321
0.682907
0.446242
0.226568
0.0192688
-0.170447
-0.338592
-0.482285
-0.599615
-0.691534
-0.760044
-0.807458
-0.835815
-0.846688
-0.84139
-0.821434
-0.788565
-0.74577
-0.696421
-0.643504
-0.588758
-0.532097
-0.471581
-0.403961
-0.325631
-0.233666
-0.127811
-0.00878277
0.121943
0.262075
0.409074
0.560739
0.715645
0.873277
1.03383
1.19774
1.36502
1.53467
1.70433
1.8702
2.0273
2.17029
2.2942
2.39505
2.4702
2.51829
2.53887
2.53198
2.49767
2.43611
2.34738
2.23209
2.09195
1.93022
1.75194
1.56366
1.37282
1.18665
1.01153
0.8527
0.712864
0.591621
0.486763
0.395365
0.314848
0.24369
0.181588
0.129084
0.086865
0.0553137
0.0343557
0.021767
0.0146812
0.0106729
0.00866135
0.00928409
0.0145368
0.0267839
0.0475216
0.0764045
0.111185
0.147615
0.181115
0.208332
0.228291
0.242708
0.255359
0.270811
0.292985
0.32326
0.360828
0.404129
0.450993
0.498821
0.544853
0.586912
0.623861
0.6558
0.683999
0.710542
0.737738
0.767424
0.800353
0.835847
0.871803
0.904832
0.931254
0.948047
0.953659
0.948456
0.934745
0.916402
0.898248
0.88533
0.881768
0.890526
0.913848
0.953223
1.00918
1.08119
1.16767
1.26596
1.37251
1.48316
1.59169
1.69109
1.77478
1.83738
1.87518
1.88633
1.87067
1.82941
1.76476
1.68014
1.58058
1.47055
1.35443
1.2369
1.12276
1.01611
0.920106
0.837347
0.769592
0.718579
0.68456
0.66203
0.640698
0.609412
0.558838
0.483803
0.384447
0.265655
0.134994
0
-0.137751
0.703973
2.33201
4.62534
7.22576
9.63312
11.3509
12.0312
11.579
10.1811
8.2419
6.23716
4.54308
3.32415
2.53113
2.00053
1.72667
1.50054
1.297
1.12297
0.982711
0.877616
0.80631
0.765124
0.748822
0.751491
0.767461
0.791951
0.821865
0.855875
0.894053
0.937473
0.987583
1.04562
1.11226
1.18736
1.2703
1.36046
1.45752
1.56175
1.67408
1.7959
1.92861
2.07311
2.22933
2.39594
2.57036
2.74901
2.92778
3.10251
3.26962
3.42643
3.57157
3.70501
3.82796
3.94237
4.05004
4.15214
4.24828
4.33309
4.39477
4.41786
4.38842
4.29869
4.14934
3.94858
3.70932
3.44594
3.1743
2.90411
2.64039
2.38746
2.14908
1.92797
1.72568
1.54257
1.37793
1.23032
1.09798
0.979273
0.873
0.778588
0.696176
0.626645
0.571377
0.531461
0.507519
0.499309
0.506113
0.526966
0.556927
0.588225
0.613124
0.625647
0.622882
0.605452
0.577033
0.543167
0.50986
0.481963
0.461771
0.450253
0.448031
0.455671
0.472406
0.49307
0.509492
0.513165
0.497527
0.459985
0.402819
0.332507
0.257635
0.186184
0.122293
0.0657667
0.0158701
-0.0287174
-0.0693016
-0.106386
-0.139151
-0.165633
-0.183214
-0.189493
-0.183169
-0.164653
-0.136173
-0.101279
-0.0645302
-0.0301037
-0.000765038
0.0228582
0.0425255
0.062121
0.0869471
0.122735
0.174384
0.244645
0.34036
0.469958
0.636766
0.826522
1.00711
1.14746
1.22284
1.21738
1.12756
0.965479
0.758667
0.544878
0.362798
0.228451
0.131858
0.0616306
0.0126953
-0.0160839
-0.0265371
-0.0221729
-0.00998116
0
0.00439529
-0.0117414
-0.0536392
-0.122408
-0.214741
-0.323369
-0.438137
-0.163291
0.781137
2.40806
4.57912
6.96227
9.09507
10.5074
10.8751
10.146
8.56926
6.59543
4.69021
3.16269
2.09703
1.40663
0.964624
0.763462
0.575301
0.406032
0.263905
0.154179
0.0796293
0.0406542
0.0352844
0.0593504
0.106862
0.170659
0.243321
0.318261
0.390981
0.459975
0.525855
0.590687
0.657869
0.731484
0.81554
0.913247
1.02629
1.15442
1.2962
1.44935
1.6108
1.77712
1.94478
2.1105
2.2714
2.42512
2.56986
2.70428
2.82703
2.93645
3.03191
3.11401
3.18422
3.2451
3.30022
3.35366
3.40936
3.47146
3.53951
3.60342
3.64681
3.65161
3.60332
3.49506
3.32913
3.11616
2.87251
2.61755
2.36667
2.12686
1.9026
1.69781
1.51466
1.35365
1.21394
1.0938
0.991091
0.903657
0.829722
0.767963
0.717595
0.678612
0.651686
0.637016
0.634628
0.644048
0.664043
0.692525
0.726689
0.763375
0.79957
0.832919
0.862049
0.886573
0.906915
0.923919
0.93842
0.950854
0.961149
0.968983
0.974135
0.976963
0.978725
0.98155
0.988018
1.00043
1.02132
1.0506
1.08443
1.11712
1.14275
1.15706
1.15862
1.14921
1.13318
1.11637
1.10439
1.10079
1.10711
1.1236
1.14957
1.18382
1.22447
1.26876
1.3138
1.35754
1.39938
1.44042
1.48324
1.53137
1.58842
1.65714
1.73846
1.83086
1.93185
2.03873
2.14778
2.25361
2.3501
2.43141
2.49228
2.52831
2.53622
2.51403
2.46117
2.37851
2.2683
2.13502
1.98414
1.82159
1.65369
1.48642
1.32495
1.174
1.03702
0.915982
0.812275
0.722361
0.638612
0.55174
0.45154
0.32653
0.174436
0
-0.18966
0.236576
1.44662
3.42208
5.93478
8.5673
10.8025
12.1603
12.347
11.3667
9.53269
7.35473
5.34275
3.82451
2.87188
2.36316
2.14275
2.01863
1.89991
1.78836
1.68713
1.59988
1.52969
1.47883
1.45021
1.44742
1.46584
1.49487
1.52314
1.54187
1.54759
1.54317
1.5368
1.53945
1.56148
1.60658
1.67215
1.7546
1.85124
1.95817
2.07168
2.18917
2.30974
2.43426
2.5649
2.70445
2.85555
3.01988
3.19756
3.38807
3.59005
3.80137
4.01924
4.24023
4.46036
4.67515
4.87954
5.06794
5.2354
5.37797
5.49272
5.5777
5.63152
5.65277
5.64079
5.59499
5.51499
5.40108
5.25479
5.07931
4.87979
4.66309
4.4374
4.211
3.99092
3.78307
3.59184
3.41993
3.26839
3.13689
3.02407
2.92786
2.84592
2.77583
2.71473
2.65988
2.60881
2.55952
2.51058
2.46127
2.41147
2.36169
2.31294
2.26665
2.22485
2.18977
2.16381
2.14929
2.14821
2.16198
2.19117
2.23536
2.29565
2.37413
2.46571
2.55294
2.61518
2.63409
2.60046
2.51929
2.41039
2.30318
2.22752
2.20083
2.2104
2.25129
2.31364
2.38015
2.43381
2.46237
2.46118
2.43364
2.38938
2.34083
2.29947
2.27094
2.25478
2.24913
2.25261
2.2633
2.2794
2.2998
2.32428
2.35339
2.38849
2.4319
2.48261
2.53071
2.5612
2.55798
2.50887
2.40962
2.26547
2.08989
1.90133
1.719
1.55331
1.40592
1.2787
1.17459
1.09211
1.02399
0.96076
0.892613
0.811232
0.711286
0.579423
0.409744
0.232427
0.0851953
0
-0.0178359
0.109296
1.13214
2.58521
4.25455
5.87267
7.18813
8.0054
8.20245
7.755
6.76952
5.48884
4.22919
3.25508
2.665
2.3676
2.10618
1.82923
1.55892
1.30692
1.08493
0.902523
0.76596
0.6769
0.631975
0.623495
0.641113
0.674041
0.713197
0.75271
0.790685
0.827463
0.864288
0.902818
0.944765
0.991569
1.04423
1.10334
1.16921
1.24205
1.32213
1.40986
1.50573
1.61015
1.72324
1.84459
1.97308
2.10683
2.2433
2.37958
2.51276
2.64043
2.76117
2.87481
2.98258
3.0869
3.1915
3.30506
3.44703
3.62516
3.80767
3.94643
3.99783
3.93961
3.7765
3.53428
3.24798
2.95216
2.67364
2.41812
2.18193
1.96245
1.7596
1.57374
1.40425
1.24991
1.10924
0.981411
0.866018
0.762872
0.672301
0.594863
0.531002
0.480817
0.443975
0.419771
0.407283
0.405295
0.412804
0.428885
0.452587
0.482832
0.518327
0.557447
0.598415
0.639414
0.678662
0.714582
0.745939
0.77188
0.791906
0.806079
0.814869
0.819054
0.819625
0.817684
0.814309
0.810437
0.806782
0.803837
0.801976
0.801632
0.803453
0.808378
0.817563
0.832158
0.852999
0.880308
0.913409
0.950885
0.99079
1.03085
1.06872
1.10227
1.1297
1.14976
1.16177
1.16575
1.16231
1.1526
1.13817
1.12066
1.1015
1.08146
1.06022
1.03602
1.00585
0.966228
0.914118
0.847943
0.768153
0.677264
0.579387
0.479412
0.381927
0.289939
0.205574
0.129792
0.0619865
0
-0.0599949
-0.123918
-0.198595
-0.293164
-0.426501
-0.599868
-0.805465
-1.02749
-0.869065
0.0824928
1.81572
4.08547
6.45795
8.42787
9.55371
9.59148
8.58906
6.88164
4.96162
3.27423
2.05153
1.27906
0.795654
0.516812
0.329425
0.152192
-0.0154499
-0.173279
-0.321537
-0.460555
-0.590291
-0.709928
-0.817658
-0.909325
-0.970858
-0.959111
-0.830195
-0.637017
-0.464815
-0.395913
-0.472044
-0.671169
-0.911813
-1.086
-1.10717
-0.990098
-0.818769
-0.625009
-0.418575
-0.207224
0.000791931
0.193349
0.361153
0.498027
0.602356
0.678099
0.73451
0.784152
0.839561
0.911727
1.0077
1.11708
1.22012
1.29577
1.3279
1.30794
1.23428
1.11008
0.941118
0.73468
0.501848
0.253134
-0.00291595
-0.260074
-0.514185
-0.762004
-1.00038
-1.22652
-1.4381
-1.63324
-1.81058
-1.96922
-2.10873
-2.2291
-2.33079
-2.41476
-2.48245
-2.5353
-2.57569
-2.60679
-2.63183
-2.6537
-2.6747
-2.69629
-2.71904
-2.74261
-2.76575
-2.78645
-2.80201
-2.8093
-2.80525
-2.78755
-2.75354
-2.69983
-2.632
-2.56308
-2.50695
-2.47368
-2.46623
-2.47994
-2.505
-2.53091
-2.55083
-2.56492
-2.57668
-2.59144
-2.61432
-2.64811
-2.6923
-2.74317
-2.7947
-2.83995
-2.87432
151
323
485
652
819
1139
1303
1474
1651
1828
1990
2161
2326
2492
2657
2823
2991
3158
3324
3485
3642
3674
0
0
0
0
0
0
0
0
0
0
0
0
0
0
0
0
0
0
0
0
0
0
0
0
0
0
0
0
0
0
0
0
0
0
0
0
0
0
0
0
0
0
0
0
0
0
0
0
0
0
0
0
0
0
0
0
0
0
0
0
0
0
0
0
0
0
0
0
0
0
0
0
0
0
0
0
0
0
0
0
0
0
0
0
0
0
0
0
0
0
0
0
0
0
0
0
0
0
0
0
0
0
0
0
0
0
0
0
0
0
0
0
0
0
0
0
0
0
0
0
0
0
0
0
0
0
0
0
0
0
0
0
0
0
0
0
0
0
0
0
0
0
0
0
0
0
0
0
0
0
0
0
0
0
0
0
0
0
0
0
0
0
0
0
0
0
0
0
0
0
0
0
0
0
0
0
0
0
0
0
0
0
0
0
0
0
0
0
0
0
0
0
0
0
0
0
0
0
0
0
0
0
0
0
0
0
0
0
0
0
0
0
0
0
0
0
0
0
0
0
0
0
0
0
0
0
0
0
0
0
0
0
0
0
0
0
0
0
0
0
0
0
0
0
0
0
0
0
0
0
0
0
0
0
0
0
0
0
0
0
0
0
0
0
0
0
0
0
0
0
0
0
0
0
0
0
0
0
0
0
0
0
0
0
0
0
0
0
0
0
0
0
0
0
0
0
0
0
0
0
0
0
0
0
0
0
0
0
0
0
0
0
0
0
0
0
0
0
0
0
0
0
0
0
0
0
0
0
0
0
0
0
0
0
0
0
0
0
0
0
0
0
0
0
0
0
0
0
0
0
0
0
0
0
0
0
0
0
0
0
0
0
0
0
0
0
0
0
0
0
0
0
0
0
0
0
0
0
0
0
0
0
0
0
0
0
0
0
0
0
0
0
0
0
0
0
0
0
0
0
0
0
0
0
0
0
0
0
0
0
0
0
0
0
0
0
0
0
0
0
0
0
0
0
0
0
0
0
0
0
0
0
0
0
0
0
0
0
0
0
0
0
0
0
0
0
0
0
0
0
0
0
0
0
0
0
0
0
0
0
0
0
0
0
0
0
0
0
0
0
0
0
0
0
0
0
0
0
0
0
0
0
0
0
0
0
0
0
0
0
0
0
0
0
0
0
0
0
0
0
0
0
0
0
0
0
0
0
0
0
0
0
0
0
0
0
0
0
0
0
0
0
0
0
0
0
0
0
0
0
0
0
0
0
0
0
0
0
0
0
0
0
0
0
0
0
0
0
0
0
0
0
0
0
0
0
0
0
0
0
0
0
0
0
0
0
0
0
0
0
0
0
0
0
0
0
0
0
0
0
0
0
0
0
0
0
0
0
0
0
0
0
0
0
0
0
0
0
0
0
0
0
0
0
0
0
0
0
0
0
0
0
0
0
0
0
0
0
0
0
0
0
0
0
0
0
0
0
0
0
0
0
0
0
0
0
0
0
0
0
0
0
0
0
0
0
0
0
0
0
0
0
0
0
0
0
0
0
0
0
0
0
0
0
0
0
0
0
0
0
0
0
0
0
0
0
0
0
0
0
0
0
0
0
0
0
0
0
0
0
0
0
0
0
0
0
0
0
0
0
0
0
0
0
0
0
0
0
0
0
0
0
0
0
0
0
0
0
0
0
0
0
0
0
0
0
0
0
0
0
0
0
0
0
0
0
0
0
0
0
0
0
0
0
0
0
0
0
0
0
0
0
0
0
0
0
0
0
0
0
0
0
0
0
0
0
0
0
0
0
0
0
0
0
0
0
0
0
0
0
0
0
0
0
0
0
0
0
0
0
0
0
0
0
0
0
0
0
0
0
0
0
0
0
0
0
0
0
0
0
0
0
0
0
0
0
0
0
0
0
0
0
0
0
0
0
0
0
0
0
0
0
0
0
0
0
0
0
0
0
0
0
0
0
0
0
0
0
0
0
0
0
0
0
0
0
0
0
0
0
0
0
0
0
0
0
0
0
0
0
0
0
0
0
0
0
0
0
0
0
0
0
0
0
0
0
0
0
0
0
0
0
0
0
0
0
0
0
0
0
0
0
0
0
0
0
0
0
0
0
0
0
0
0
0
0
0
0
0
0
0
0
0
0
0
0
0
0
0
0
0
0
0
0
0
0
0
0
0
0
0
0
0
0
0
0
0
0
0
0
0
0
0
0
0
0
0
0
0
0
0
0
0
0
0
0
0
0
0
0
0
0
0
0
0
0
0
0
0
0
0
0
0
0
0
0
0
0
0
0
0
0
0
0
0
0
0
0
0
0
0
0
0
0
0
0
0
0
0
0
0
0
0
0
0
0
0
0
0
0
0
0
0
0
0
0
0
0
0
0
0
0
0
0
0
0
0
0
0
0
0
0
0
0
0
0
0
0
0
0
0
0
0
0
0
0
0
0
0
0
0
0
0
0
0
0
0
0
0
0
0
0
0
0
0
0
0
0
0
0
0
0
0
0
0
0
0
0
0
0
0
0
0
0
0
0
0
0
0
0
0
0
0
0
0
0
0
0
0
0
0
0
0
0
0
0
0
0
0
0
0
0
0
0
0
0
0
0
0
0
0
0
0
0
0
0
0
0
0
0
0
0
0
0
0
0
0
0
0
0
0
0
0
0
0
0
0
0
0
0
0
0
0
0
0
0
0
0
0
0
0
0
0
0
0
0
0
0
0
0
0
0
0
0
0
0
0
0
0
0
0
0
0
0
0
0
0
0
0
0
0
0
0
0
0
0
0
0
0
0
0
0
0
0
0
0
0
0
0
0
0
0
0
0
0
0
0
0
0
0
0
0
0
0
0
0
0
0
0
0
0
0
0
0
0
0
0
0
0
0
0
0
0
0
0
0
0
0
0
0
0
0
0
0
0
0
0
0
0
0
0
0
0
0
0
0
0
0
0
0
0
0
0
0
0
0
0
0
0
0
0
0
0
0
0
0
0
0
0
0
0
0
0
0
0
0
0
0
0
0
0
0
0
0
0
0
0
0
0
0
0
0
0
0
0
0
0
0
0
0
0
0
0
0
0
0
0
0
0
0
0
0
0
0
0
0
0
0
0
0
0
0
0
0
0
0
0
0
0
0
0
0
0
0
0
0
0
0
0
0
0
0
0
0
0
0
0
0
0
0
0
0
0
0
0
0
0
0
0
0
0
0
0
0
0
0
0
0
0
0
0
0
0
0
0
0
0
0
0
0
0
0
0
0
0
0
0
0
0
0
0
0
0
0
0
0
0
0
0
0
0
0
0
0
0
0
0
0
0
0
0
0
0
0
0
0
0
0
0
0
0
0
0
0
0
0
0
0
0
0
0
0
0
0
0
0
0
0
0
0
0
0
0
0
0
0
0
0
0
0
0
0
0
0
0
0
0
0
0
0
0
0
0
0
0
0
0
0
0
0
0
0
0
0
0
0
0
0
0
0
0
0
0
0
0
0
0
0
0
0
0
0
0
0
0
0
0
0
0
0
0
0
0
0
0
0
0
0
0
0
0
0
0
0
0
0
0
0
0
0
0
0
0
0
0
0
0
0
0
0
0
0
0
0
0
0
0
0
0
0
0
0
0
0
0
0
0
0
0
0
0
0
0
0
0
0
0
0
0
0
0
0
0
0
0
0
0
0
0
0
0
0
0
0
0
0
0
0
0
0
0
0
0
0
0
0
0
0
0
0
0
0
0
0
0
0
0
0
0
0
0
0
0
0
0
0
0
0
0
0
0
0
0
0
0
0
0
0
0
0
0
0
0
0
0
0
0
0
0
0
0
0
0
0
0
0
0
0
0
0
0
0
0
0
0
0
0
0
0
0
0
0
0
0
0
0
0
0
0
0
0
0
0
0
0
0
0
0
0
0
0
0
0
0
0
0
0
0
0
0
0
0
0
0
0
0
0
0
0
0
0
0
0
0
0
0
0
0
0
0
0
0
0
0
0
0
0
0
0
0
0
0
0
0
0
0
0
0
0
0
0
0
0
0
0
0
0
0
0
0
0
0
0
0
0
0
0
0
0
0
0
0
0
0
0
0
0
0
0
0
0
0
0
0
0
0
0
0
0
0
0
0
0
0
0
0
0
0
0
0
0
0
0
0
0
0
0
0
0
0
0
0
0
0
0
0
0
0
0
0
0
0
0
0
0
0
0
0
0
0
0
0
0
0
0
0
0
0
0
0
0
0
0
0
0
0
0
0
0
0
0
0
0
0
0
0
0
0
0
0
0
0
0
0
0
0
0
0
0
0
0
0
0
0
0
0
0
0
0
0
0
0
0
0
0
0
0
0
0
0
0
0
0
0
0
0
0
0
0
0
0
0
0
0
0
0
0
0
0
0
0
0
0
0
0
0
0
0
0
0
0
0
0
0
0
0
0
0
0
0
0
0
0
0
0
0
0
0
0
0
0
0
0
0
0
0
0
0
0
0
0
0
0
0
0
0
0
0
0
0
0
0
0
0
0
0
0
0
0
0
0
0
0
0
0
0
0
0
0
0
0
0
0
0
0
0
0
0
0
0
0
0
0
0
0
0
0
0
0
0
0
0
0
0
0
0
0
0
0
0
0
0
0
0
0
0
0
0
0
0
0
0
0
0
0
0
0
0
0
0
0
0
0
0
0
0
0
0
0
0
0
0
0
0
0
0
0
0
0
0
0
0
0
0
0
0
0
0
0
0
0
0
0
0
0
0
0
0
0
0
0
0
0
0
0
0
0
0
0
0
0
0
0
0
0
0
0
0
0
0
0
0
0
0
0
0
0
0
0
0
0
0
0
0
0
0
0
0
0
0
0
0
0
0
0
0
0
0
0
0
0
0
0
0
0
0
0
0
0
0
0
0
0
0
0
0
0
0
0
0
0
0
0
0
0
0
0
0
0
0
0
0
0
0
0
0
0
0
0
0
0
0
0
0
0
0
0
0
0
0
0
0
0
0
0
0
0
0
0
0
0
0
0
0
0
0
0
0
0
0
0
0
0
0
0
0
0
0
0
0
0
0
0
0
0
0
0
0
0
0
0
0
0
0
0
0
0
0
0
0
0
0
0
0
0
0
0
0
0
0
0
0
0
0
0
0
0
0
0
0
0
0
0
0
0
0
0
0
0
0
0
0
0
0
0
0
0
0
0
0
0
0
0
0
0
0
0
0
0
0
0
0
0
0
0
0
0
0
0
0
0
0
0
0
0
0
0
0
0
0
0
0
0
0
0
0
0
0
0
0
0
0
0
0
0
0
0
0
0
0
0
0
0
0
0
0
0
0
0
0
0
0
0
0
0
0
0
0
0
0
0
0
0
0
0
0
0
0
0
0
0
0
0
0
0
0
0
0
0
0
0
0
0
0
0
0
0
0
0
0
0
0
0
0
0
0
0
0
0
0
0
0
0
0
0
0
0
0
0
0
0
0
0
0
0
0
0
0
0
0
0
0
0
0
0
0
0
0
0
0
0
0
0
0
0
0
0
0
0
0
0
0
0
0
0
0
0
0
0
0
0
0
0
0
0
0
0
0
0
0
0
0
0
0
0
0
0
0
0
0
0
0
0
0
0
0
0
0
0
0
0
0
0
0
0
0
0
0
0
0
0
0
0
0
0
0
0
0
0
0
0
0
0
0
0
0
0
0
0
0
0
0
0
0
0
0
0
0
0
0
0
0
0
0
0
0
0
0
0
0
0
0
0
0
0
0
0
0
0
0
0
0
0
0
0
0
0
0
0
0
0
0
0
0
0
0
0
0
0
0
0
0
0
0
0
0
0
0
0
0
0
0
0
0
0
0
0
0
0
0
0
0
0
0
0
0
0
0
0
0
0
0
0
0
0
0
0
0
0
0
0
0
0
0
0
0
0
0
0
0
0
0
0
0
0
0
0
0
0
0
0
0
0
0
0
0
0
0
0
0
0
0
0
0
0
0
0
0
0
0
0
0
0
0
0
0
0
0
0
0
0
0
0
0
0
0
0
0
0
0
0
0
0
0
0
0
0
0
0
0
0
0
0
0
0
0
0
0
0
0
0
0
0
0
0
0
0
0
0
0
0
0
0
0
0
0
0
0
0
0
0
0
0
0
0
0
0
0
0
0
0
0
0
0
0
0
0
0
0
0
0
0
0
0
0
0
0
0
0
0
0
0
0
0
0
0
0
0
0
0
0
0
0
0
0
0
0
0
0
0
0
0
0
0
0
0
0
0
0
0
0
0
0
0
0
0
0
0
0
0
0
0
0
0
0
0
0
0
0
0
0
0
0
0
0
0
0
0
0
0
0
0
0
0
0
0
0
0
0
0
0
0
0
0
0
0
0
0
0
0
0
0
0
0
0
0
0
0
0
0
0
0
0
0
0
0
0
0
0
0
0
0
0
0
0
0
0
0
0
0
0
0
0
0
0
0
0
0
0
0
0
0
0
0
0
0
0
0
0
0
0
0
0
0
0
0
0
0
0
0
0
0
0
0
0
0
0
0
0
0
0
0
0
0
0
0
0
0
0
0
0
0
0
0
0
0
0
0
0
0
0
0
0
0
0
0
0
0
0
0
0
0
0
0
0
0
0
0
0
0
0
0
0
0
0
0
0
0
0
0
0
0
0
0
0
0
0
0
0
0
0
0
0
0
0
0
0
0
0
0
0
0
0
0
0
0
0
0
0
0
0
0
0
0
0
0
0
0
0
0
0
0
0
0
0
0
0
0
0
0
0
0
0
0
0
0
0
0
0
0
0
0
0
0
0
0
0
0
0
0
0
0
0
0
0
0
0
0
0
0
0
0
0
0
0
0
0
0
0
0
0
0
0
0
0
0
0
0
0
0
0
0
0
0
0
0
0
0
0
0
0
0
0
0
0
0
0
0
0
0
0
0
0
0
0
0
0
0
0
0
0
0
0
0
0
0
0
0
0
0
0
0
0
0
0
0
0
0
0
0
0
0
0
0
0
0
0
0
0
0
0
0
0
0
0
0
0
0
0
0
0
0
0
0
0
0
0
0
0
0
0
0
0
0
0
0
0
0
0
0
0
0
0
0
0
0
0
0
0
0
0
0
0
0
0
0
0
0
0
0
0
0
0
0
0
0
0
0
0
0
0
0
0
0
0
0
0
0
0
0
0
0
0
0
0
0
0
0
0
0
0
0
0
0
0
0
0
0
0
0
0
0
0
0
0
0
0
0
0
0
0
0
0
0
0
0
0
0
0
0
0
0
0
0
0
0
0
0
0
0
0
0
0
0
0
0
0
0
0
0
0
0
0
0
0
0
0
0
0
0
0
0
0
0
0
0
0
0
0
0
0
0
0
0
0
0
0
0
0
0
0
0
0
0
0
0
0
0
0
0
0
0
0
0
0
0
0
0
0
0
0
0
0
0
0
0
0
0
0
0
0
0
0
0
0
0
0
0
0
0
0
0
0
0
0
0
0
0
0
0
0
0
0
0
0
0
0
0
0
0
0
0
0
0
0
0
0
0
0
0
0
0
0
0
0
0
0
0
0
0
0
0
0
0
0
0
0
0
0
0
0
0
0
0
0
0
0
0
0
0
0
0
0
0
0
0
0
0
0
0
0
0
0
0
0
0
0
0
0
0
0
0
0
0
0
0
0
0
0
0
0
0
0
0
0
0
0
0
0
0
0
0
0
0
0
0
0
0
0
0
0
0
0
0
0
0
0
0
0
0
0
0
0
0
0
0
0
0
0
0
0
0
0
0
0
0
0
0
0
0
0
0
0
0
0
0
0
0
0
0
0
0
0
0
0
0
0
0
0
0
0
0
0
0
0
0
0
0
0
0
0
0
0
0
0
0
0
0
0
0
0
0
0
0
0
0
0
0
0
0
0
0
0
0
0
0
0
0
0
0
0
0
0
0
0
0
0
0
0
0
0
0
0
0
0
0
0
0
0
0
0
0
0
0
0
0
0
0
0
0
0
0
0
0
0
0
0
0
0
0
0
0
0
0
0
0
0
0
0
0
0
0
0
0
0
0
0
0
0
0
0
0
0
0
0
0
0
0
0
0
0
0
0
0
0
0
0
0
0
0
0
0
0
0
0
0
0
0
0
0
0
0
0
0
0
0
0
0
0
0
0
0
0
0
0
0
0
0
0
0
0
0
0
0
0
0
0
0
0
0
0
0
0
0
0
0
0
0
0
0
0
0
0
0
0
0
0
0
0
0
0
0
0
0
0
0
0
0
0
0
0
0
0
0
0
0
0
0
0
0
0
0
0
0
0
0
0
0
0
0
0
0
0
0
0
0
0
0
0
0
0
0
0
0
0
0
0
0
0
0
0
0
0
0
0
0
0
0
0
0
0
0
0
0
0
0
0
0
0
0
0
0
0
0
0
0
0
0
0
0
0
0
0
0
0
0
0
0
0
0
0
0
0
0
0
0
0
0
0
0
0
0
0
0
0
0
0
0
0
0
0
0
0
0
0
0
0
0
0
0
0
0
0
0
0
0
0
0
0
0
0
