3.67804
3.65241
3.62607
3.60032
3.57565
3.55219
3.52992
3.50881
3.4888
3.46969
3.45095
3.43134
3.40911
3.38251
3.35058
3.3139
3.27504
3.23839
3.20932
3.1936
3.20002
3.23232
3.28173
3.33354
3.37225
3.38633
3.37125
3.33017
3.2721
3.20862
3.14996
3.10063
3.05954
3.02339
2.98919
2.95435
2.91722
2.87753
2.83649
2.79649
2.76054
2.73132
2.71089
2.70122
2.70394
2.72023
2.75284
2.81097
2.90679
3.02156
3.12396
3.17959
3.16549
3.08146
2.95017
2.80538
2.67619
2.5779
2.49942
2.43394
2.38219
2.3462
2.33385
2.37069
2.48887
2.65965
2.8304
2.94679
2.97473
2.91135
2.78182
2.62665
2.4864
2.38873
2.32398
2.27751
2.24175
2.21351
2.19144
2.17526
2.16564
2.16372
2.17077
2.1888
2.21564
2.24556
2.27219
2.29127
2.30279
2.31172
2.32673
2.36462
2.45492
2.58619
2.71704
2.79743
2.79145
2.69303
2.52847
2.34495
2.18931
2.08666
2.01413
1.95234
1.89491
1.83809
1.78106
1.72583
1.6761
1.6358
1.6079
1.59057
1.57821
1.56285
1.5308
1.37535
0.917095
0.32064
-0.287117
-0.710945
-0.783809
0
1.74995
4.37159
7.4639
10.3901
12.483
13.2831
12.6964
10.9991
8.70413
6.362
4.3892
2.97926
2.11289
1.63983
1.51706
1.44704
1.38371
1.32572
1.27066
1.21593
1.1594
1.10023
1.03919
0.980093
0.9294
0.894452
0.881567
0.894364
0.932821
0.993287
1.06927
1.1526
1.23451
1.30461
1.35444
1.37803
1.37269
1.33961
1.28402
1.21423
1.13992
1.06981
1.00895
0.956942
0.912016
0.872522
0.836061
0.799657
0.760608
0.716837
0.666623
0.612931
0.564531
0.532537
0.526929
0.55323
0.610673
0.692605
0.788894
0.889331
0.987145
1.0811
1.17242
1.26334
1.35695
1.45656
1.56494
1.68365
1.8126
1.9499
2.09208
2.23454
2.37228
2.50045
2.61478
2.71189
2.78978
2.84737
2.8842
2.90011
2.89502
2.86895
2.8221
2.75512
2.66937
2.56726
2.45163
2.32548
2.19161
2.05223
1.90871
1.76153
1.61057
1.45568
1.29721
1.13647
0.9759
0.818905
0.66933
0.531013
0.407182
0.300034
0.210498
0.1381
0.0812447
0.0375702
0.00437241
-0.0210014
-0.0408691
-0.0570847
-0.0710609
-0.0839317
-0.0967606
-0.110731
-0.127254
-0.147842
-0.173861
-0.206152
-0.244667
-0.288262
-0.334767
-0.381409
-0.425443
-0.464216
-0.496606
-0.526083
-0.558395
-0.599084
-0.650642
-0.710536
-0.771004
-0.82086
-0.837717
-0.789735
-0.693303
-0.589117
-0.521933
-0.518703
-0.576588
-0.666374
-0.748977
-0.795738
-0.804796
-0.79737
-0.782445
-0.764087
-0.743135
-0.717461
-0.682616
-0.632296
-0.574956
-0.529528
-0.517871
-0.553805
-0.63479
-0.740792
-0.841052
-0.905602
-0.92116
-0.865659
-0.766016
-0.66496
-0.601396
-0.593111
-0.628996
-0.674131
-0.685865
-0.634045
-0.526313
-0.395164
-0.257178
-0.129732
-0.0266846
0.0446213
0.0842117
0.0981079
0.0955482
0.0860886
0.0777054
0.0750122
0.0807701
0.0988075
0.132753
0.186
0.261013
0.358442
0.47746
0.616601
0.766423
0.912571
1.0415
1.14387
1.21684
1.26449
1.2964
1.3249
1.36165
1.41391
1.49057
1.5852
1.67991
1.75427
1.79266
1.78918
1.74861
1.6837
1.61072
1.54545
1.49646
1.46452
1.45034
1.46238
1.50734
1.57218
1.63664
1.67856
1.67991
1.63138
1.48119
1.12405
0.671339
0.209977
-0.211214
0
1.16022
3.37221
6.35565
9.46164
11.9187
13.1564
13.0241
11.7914
9.95947
8.01599
6.27411
4.84706
3.71916
2.83618
2.17578
2.0248
1.89536
1.77899
1.6794
1.59938
1.54115
1.5061
1.49693
1.52378
1.59783
1.70747
1.82971
1.93937
2.01662
2.05249
2.0499
2.02036
1.97895
1.93973
1.91009
1.89075
1.88077
1.87863
1.88263
1.8899
1.89745
1.90302
1.90576
1.9065
1.90763
1.91227
1.92337
1.9437
1.97363
2.01036
2.04965
2.08732
2.12084
2.15008
2.17723
2.20582
2.23931
2.27955
2.32607
2.37751
2.43219
2.4881
2.5433
2.59632
2.64643
2.69377
2.73943
2.78536
2.83431
2.88941
2.95359
3.02932
3.12055
3.22675
3.34107
3.45404
3.55564
3.63711
3.69178
3.7151
3.70433
3.65843
3.5813
3.47925
3.35761
3.22342
3.08439
2.94736
2.816
2.69178
2.57494
2.4643
2.35784
2.25341
2.14952
2.04582
1.94343
1.84478
1.75314
1.67193
1.6046
1.55355
1.51842
1.49702
1.48586
1.4808
1.47765
1.47252
1.46187
1.44252
1.41178
1.36814
1.31001
1.23646
1.14755
1.04431
0.928699
0.803394
0.671558
0.536519
0.401744
0.27066
0.146422
0.0315811
-0.0715851
-0.161743
-0.240973
-0.31291
-0.381674
-0.450612
-0.52131
-0.593256
-0.664281
-0.731615
-0.793295
-0.849382
-0.900435
-0.947981
-0.993954
-1.04007
-1.08732
-1.13575
-1.18457
-1.23249
-1.27818
-1.32068
-1.35957
-1.39499
-1.42751
-1.4578
-1.48631
-1.51302
-1.53727
-1.55788
-1.57334
-1.58216
-1.58328
-1.5763
-1.56174
-1.54135
-1.51808
-1.49519
-1.47554
-1.46092
-1.45172
-1.4469
-1.44433
-1.44146
-1.43591
-1.42633
-1.4122
-1.39379
-1.37194
-1.34777
-1.3223
-1.29623
-1.26987
-1.24324
-1.21615
-1.18844
-1.16004
-1.13099
-1.10143
-1.07153
-1.04137
-1.01094
-0.980084
-0.948511
-0.915843
-0.881662
-0.845552
-0.807152
-0.766159
-0.722363
-0.675649
-0.626012
-0.573592
-0.518738
-0.462022
-0.40433
-0.346928
-0.29131
-0.239079
-0.191779
-0.150722
-0.116928
-0.0909302
-0.0727798
-0.062027
-0.0577515
-0.0586227
-0.0630203
-0.0692001
-0.0754562
-0.0803375
-0.0827911
-0.0821198
-0.0780075
-0.0705231
-0.0601074
-0.0475189
-0.0338211
-0.0203049
-0.00840607
0.000437927
0.00495605
0.00423889
-0.00221558
-0.0140976
-0.0303848
-0.051622
0
0.578218
2.05743
4.46045
7.29992
9.73324
10.9711
10.6671
9.04279
6.71257
4.36259
2.47982
1.24203
0.570612
0.270454
0.230197
0.200146
0.172668
0.148071
0.126353
0.107291
0.0905487
0.0757507
0.0625442
0.050621
0.0397186
0.0296173
0.0201035
0.0109894
0.0020874
-0.00676727
-0.0157257
-0.0249084
-0.0344177
-0.0443237
-0.0546814
-0.0655212
-0.0768677
-0.0887177
-0.101057
-0.113853
-0.127061
-0.140619
-0.154457
-0.168509
-0.182718
-0.197038
-0.211444
-0.225929
-0.240509
-0.255214
-0.270091
-0.285185
-0.300523
-0.316122
-0.331984
-0.3481
-0.364452
-0.381036
-0.397876
-0.415007
-0.432478
-0.450345
-0.468637
-0.487349
-0.506447
-0.525856
-0.545483
-0.565225
-0.584996
-0.60473
-0.624397
-0.644006
-0.663606
-0.683289
-0.703175
-0.723405
-0.744135
-0.765489
-0.787567
-0.81041
-0.834001
-0.858264
-0.883084
-0.908328
-0.933878
-0.959647
-0.985591
-1.01172
-1.03807
-1.06468
-1.09161
-1.11888
-1.14648
-1.17439
-1.20254
-1.23087
-1.25934
-1.28789
-1.31649
-1.34511
-1.37373
-1.40235
-1.43096
-1.45951
-1.48801
-1.51646
-1.54488
-1.57334
-1.60192
-1.63075
-1.65996
-1.68967
-1.71997
-1.75088
-1.78237
-1.81434
-1.84665
-1.87914
-1.91168
-1.94414
-1.97647
-2.00865
-2.04069
-2.07266
-2.1046
-2.13657
-2.16859
-2.20063
-2.23264
-2.26451
-2.29603
-2.32694
-2.35687
-2.38527
-2.41142
-2.43439
-2.45312
-2.46646
-2.47338
-2.47311
-2.46524
-2.44945
-2.42565
-2.39409
-2.35474
-2.30704
-2.25009
-2.18299
-2.10549
-2.01848
-1.92311
-1.82344
-1.72383
-1.62764
-1.53621
-1.44864
-1.36257
-1.27546
-1.18593
-1.0946
-1.00365
-0.91577
-0.834003
-0.761774
-0.702763
-0.659303
-0.632292
-0.621552
-0.625678
-0.641847
-0.665781
-0.691986
-0.71436
-0.727103
-0.726344
-0.710762
-0.678838
-0.630133
-0.569882
-0.510825
-0.467116
-0.449702
-0.462999
-0.503125
-0.558496
-0.612965
-0.650844
-0.662106
-0.649492
-0.622829
-0.589121
-0.555241
-0.526685
-0.506349
-0.494208
-0.487869
-0.48371
-0.478127
-0.468752
-0.454697
-0.43564
-0.411549
-0.382448
-0.348123
-0.30799
-0.261115
-0.206419
-0.142963
-0.0702545
0.0114502
0.101013
0.196399
0.294836
0.393134
0.488072
0.576816
0.657294
0.728447
0.790384
0.844351
0.892587
0.938054
0.98408
1.03397
1.09062
1.15643
1.23401
1.32699
1.43865
1.56369
1.68213
1.76941
1.80299
1.76916
1.66839
1.51663
1.34086
1.16984
1.02394
0.901514
0.792218
0.689355
0.58951
0.489991
0.388623
0.283832
0.174317
0.0571602
-0.0732872
-0.21672
-0.37075
-0.531558
-0.695365
0
1.56993
3.99491
6.90531
9.6842
11.6649
12.3823
11.7592
10.1152
7.98985
5.88744
4.09939
2.69205
1.6198
0.841052
0.596835
0.414236
0.24461
0.0893395
-0.0512985
-0.177925
-0.291111
-0.391759
-0.483024
-0.568758
-0.652422
-0.736337
-0.821185
-0.906027
-0.988906
-1.06789
-1.14217
-1.21276
-1.28257
-1.35602
-1.43764
-1.53065
-1.63603
-1.75219
-1.87557
-2.00162
-2.12586
-2.24494
-2.35703
-2.45828
-2.54565
-2.61667
-2.6695
-2.7038
-2.72145
-2.72655
-2.72462
-2.72111
-2.72008
-2.72266
-2.72887
-2.73771
-2.74783
-2.75797
-2.76726
-2.77499
-2.78038
-2.78248
-2.78013
-2.77212
-2.75742
-2.7354
-2.70596
-2.6693
-2.62573
-2.5757
-2.51972
-2.45852
-2.39307
-2.32467
-2.2549
-2.18539
-2.11768
-2.0532
-1.99336
-1.93997
-1.89621
-1.86791
-1.86279
-1.89008
-1.95924
-2.07678
-2.24324
-2.45134
-2.68631
-2.92872
-3.15887
-3.36589
-3.55024
-3.71297
-3.85393
-3.97449
-4.0768
-4.16301
-4.23474
-4.29279
-4.33715
-4.36735
-4.38312
-4.38487
-4.37382
-4.35154
-4.32322
-4.29612
-4.27682
-4.26955
-4.27506
-4.29059
-4.3109
-4.32994
-4.3427
-4.34713
-4.34395
-4.33448
-4.32019
-4.30246
-4.28211
-4.25919
-4.23312
-4.20305
-4.16838
-4.12923
-4.08665
-4.04257
-3.99956
-3.9604
-3.92712
-3.9004
-3.8793
-3.86144
-3.84357
-3.82243
-3.79564
-3.76234
-3.72345
-3.68121
-3.63811
-3.59646
-3.55787
-3.5229
-3.49126
-3.46212
-3.43465
-3.40852
-3.38413
-3.36275
-3.34656
-3.33799
-3.33898
-3.35053
-3.37233
-3.4026
-3.43831
-3.4756
-3.5105
-3.53963
-3.56103
-3.57451
-3.58092
-3.58158
-3.57845
-3.57387
-3.5696
-3.56621
-3.56294
-3.55797
-3.54906
-3.53447
-3.51375
-3.48819
-3.46073
-3.43523
-3.41543
-3.40391
-3.40128
-3.40595
-3.41449
-3.4225
-3.42572
-3.42124
-3.40819
-3.38748
-3.36096
-3.33131
-3.3012
-3.27261
-3.24647
-3.22265
-3.20029
-3.17811
-3.15493
-3.12984
-3.10233
-3.07212
-3.03918
-3.00367
-2.96595
-2.92662
-2.88644
-2.84625
-2.80678
-2.76853
-2.7316
-2.69576
-2.66054
-2.62533
-2.58946
-2.55231
-2.5132
-2.47145
-2.42642
-2.37769
-2.32514
-2.26912
-2.21038
-2.1499
-2.08855
-2.02685
-1.96481
-1.90187
-1.83715
-1.7696
-1.6983
-1.62253
-1.54177
-1.45562
-1.36376
-1.26593
-1.16212
-1.05273
-0.93884
-0.822407
-0.706377
-0.595519
-0.497128
-0.418556
-0.36534
-0.340278
-0.34233
-0.366249
-0.40315
-0.441987
-0.471574
-0.482628
-0.472194
-0.442155
-0.392004
-0.319291
-0.226087
-0.126463
-0.0421225
0.00558758
0
-0.0862209
-0.231566
-0.423859
-0.64405
-0.869968
-0.697765
0.354734
2.36717
5.17053
8.25115
10.9009
12.4826
12.6779
11.5903
9.65597
7.42811
5.36171
3.70443
2.51027
1.72018
1.23702
1.09269
0.969371
0.857709
0.761488
0.683365
0.624877
0.586398
0.567113
0.565038
0.577196
0.599957
0.629564
0.662666
0.696939
0.731359
0.765937
0.801372
0.838681
0.878757
0.922072
0.968394
1.01588
1.06029
1.09604
1.11739
1.11963
1.10018
1.05943
1.00122
0.932735
0.863702
0.80477
0.76471
0.748788
0.757323
0.787356
0.828581
0.869942
0.90392
0.929394
0.951818
0.980724
1.02569
1.09257
1.17699
1.27266
1.37445
1.47682
1.57328
1.65676
1.72344
1.77273
1.80759
1.83431
1.86163
1.89903
1.95455
2.03253
2.13155
2.24388
2.3621
2.47463
2.57052
2.64244
2.68849
2.71274
2.72419
2.73462
2.75964
2.82777
2.93528
3.04785
3.12272
3.12898
3.05936
2.92932
2.76704
2.60218
2.45912
2.34366
2.2516
2.17982
2.12648
2.08953
2.06621
2.05353
2.04808
2.04624
2.0449
2.04214
2.03753
2.03201
2.02744
2.02592
2.02907
2.03739
2.05003
2.06501
2.0797
2.09156
2.09871
2.10024
2.0962
2.08727
2.07397
2.05706
2.03714
2.01486
1.9913
1.9681
1.94731
1.93087
1.92086
1.91649
1.91275
1.90215
1.87689
1.83127
1.76346
1.67609
1.57557
1.47035
1.36863
1.27561
1.19295
1.12019
1.05629
1.00029
0.951102
0.907838
0.869991
0.837392
0.810011
0.787605
0.769741
0.755452
0.742646
0.7286
0.710912
0.688319
0.661266
0.632047
0.604356
0.582388
0.569732
0.567825
0.5756
0.59119
0.612436
0.63641
0.660378
0.682558
0.702515
0.721143
0.740238
0.762134
0.789408
0.820134
0.845245
0.852428
0.831383
0.778944
0.701534
0.613656
0.53299
0.474277
0.440302
0.423683
0.418489
0.420849
0.426741
0.432653
0.436142
0.436099
0.43274
0.427377
0.422026
0.418984
0.420363
0.427786
0.442294
0.464132
0.492151
0.522244
0.546201
0.554056
0.53639
0.486826
0.404132
0.293119
0.163799
0.0289177
-0.0993294
-0.213754
-0.314376
-0.402438
-0.47851
-0.543755
-0.599271
-0.645596
-0.682406
-0.708468
-0.721754
-0.719693
-0.700056
-0.661399
-0.603683
-0.528751
-0.438285
-0.338068
-0.238135
-0.148205
-0.0752487
-0.0216148
0.0156403
0.0439758
0.0733521
0.113593
0.171898
0.248884
0.341296
0.445101
0.555849
0.668466
0.77711
0.875542
0.958501
1.02197
1.06303
1.07988
1.07183
1.03944
0.98461
0.910643
0.822223
0.725325
0.626083
0.529892
0.440727
0.360678
0.290758
0.230186
0.176843
0.128285
0.0826981
0.0395813
0
-0.0200485
0.0995987
1.13644
3.07681
5.61391
8.12546
10.0237
11.0479
11.2598
10.819
9.82192
8.36024
6.66723
5.11772
4.03991
3.52843
3.43372
3.37498
3.31003
3.24471
3.18194
3.12592
3.08125
3.0518
3.03984
3.04536
3.06606
3.09783
3.13564
3.17444
3.21024
3.2405
3.26359
3.27883
3.28622
3.28619
3.2793
3.26603
3.24665
3.22117
3.18933
3.15069
3.10471
3.05093
2.9892
2.91988
2.8441
2.76384
2.68189
2.60173
2.52717
2.46191
2.40921
2.37149
2.35014
2.34548
2.35676
2.38242
2.42042
2.46801
2.52075
2.57263
2.61829
2.65415
2.67945
2.69667
2.71104
2.72931
2.75787
2.80101
2.85778
2.92529
3.00028
3.07751
3.15044
3.21305
3.26077
3.29104
3.30339
3.29909
3.28049
3.2502
3.21023
3.16192
3.10561
3.04044
2.96469
2.87647
2.77442
2.65836
2.52972
2.39177
2.24944
2.10879
1.97618
1.85723
1.75638
1.67685
1.6191
1.57794
1.54604
1.51595
1.48204
1.44182
1.39624
1.3492
1.30623
1.27313
1.25344
1.25058
1.267
1.30444
1.36412
1.44668
1.55168
1.67889
1.83081
1.99442
2.15207
2.28765
2.39194
2.46579
2.51937
2.56793
2.6259
2.70429
2.80475
2.91149
3.00265
3.05986
3.07579
3.05707
3.02184
2.99274
2.98829
3.01369
3.05975
3.11794
3.18498
3.2584
3.33635
3.41809
3.50026
3.57253
3.61939
3.62468
3.5788
3.48459
3.35867
3.22685
3.11556
3.04026
2.99137
2.96531
2.95682
2.95837
2.96172
2.95916
2.94459
2.91408
2.86619
2.80198
2.72487
2.63911
2.54894
2.45792
2.36839
2.28126
2.19625
2.11245
2.02923
1.94686
1.86666
1.79074
1.72166
1.66155
1.60934
1.56167
1.51397
1.46183
1.40215
1.33355
1.25605
1.17042
1.0783
0.981863
0.882847
0.783811
0.688269
0.600415
0.524571
0.465979
0.429472
0.414898
0.416241
0.424766
0.431169
0.427757
0.410003
0.377244
0.332465
0.281418
0.231188
0.187523
0.153902
0.134867
0.133446
0.144398
0.159745
0.171848
0.176511
0.174769
0.172481
0.177778
0.197443
0.234328
0.285062
0.342011
0.396786
0.444004
0.483528
0.520148
0.560981
0.611932
0.674827
0.745158
0.817639
0.885488
0.941669
0.9785
0.989729
0.970884
0.919643
0.83689
0.727657
0.601172
0.469514
0.344926
0.236622
0.144726
0.0677261
0
-0.0677574
-0.145453
-0.264929
-0.497011
-0.803608
-1.11277
-1.36864
-1.56909
-1.05425
0.162312
2.11769
4.61637
7.20768
9.2856
10.3006
9.99151
8.51165
6.36355
4.16785
2.39603
1.20915
0.47518
-0.0758553
-0.562455
-0.984544
-1.3801
-1.73959
-2.05605
-2.32558
-2.54719
-2.72244
-2.8549
-2.94889
-3.00319
-3.01488
-2.99679
-2.96697
-2.94245
-2.93583
-2.95277
-2.99176
-3.04655
-3.10976
-3.17585
-3.24212
-3.30782
-3.37232
-3.43443
-3.49198
-3.54153
-3.57925
-3.60185
-3.60718
-3.59496
-3.56706
-3.5272
-3.48026
-3.43118
-3.38395
-3.34059
-3.30128
-3.26578
-3.23364
-3.20472
-3.1791
-3.15711
-3.13876
-3.12293
-3.10679
-3.08592
-3.05514
-3.00976
-2.94671
-2.86686
-2.773
-2.66658
-2.54913
-2.42211
-2.28679
-2.14455
-1.99701
-1.84631
-1.69493
-1.54539
-1.39989
-1.25989
-1.12604
-0.998658
-0.878473
-0.766924
-0.666804
-0.582437
-0.519685
-0.484838
-0.483289
-0.518404
-0.59081
-0.698061
-0.834658
-0.992472
-1.16102
-1.33038
-1.49307
-1.64432
-1.78054
-1.89818
-1.99335
-2.06373
-2.10957
-2.13183
-2.13226
-2.11364
-2.07981
-2.03542
-1.9853
-1.9336
-1.88297
-1.83407
-1.78629
-1.73817
-1.68765
-1.63254
-1.57094
-1.50155
-1.42382
-1.33787
-1.24435
-1.14418
-1.03837
-0.927993
-0.814188
-0.69829
-0.581895
-0.466853
-0.35514
-0.248667
-0.149067
-0.0575191
0.0252384
0.0991615
0.164775
0.223124
0.27567
0.324167
0.370479
0.416377
0.463354
0.512506
0.564489
0.619656
0.678199
0.740308
0.806296
0.876637
0.951958
1.03296
1.1204
1.21515
1.31862
1.43389
1.56683
1.72094
1.8805
2.01485
2.08782
2.0713
1.95975
1.77816
1.57772
1.41854
1.34565
1.34026
1.36805
1.41398
1.47358
1.54284
1.61838
1.6982
1.78068
1.86358
1.94213
2.00825
2.05223
2.0652
2.04249
1.98624
1.90593
1.81626
1.73287
1.66776
1.62234
1.59136
1.57155
1.56108
1.55841
1.5627
1.5738
1.59183
1.61728
1.64973
1.68618
1.72043
1.7447
1.7514
1.73495
1.69316
1.62779
1.54425
1.45029
1.35422
1.2627
1.17874
1.10254
1.03345
0.970522
0.912527
0.858407
0.807605
0.760153
0.716564
0.677599
0.643885
0.615935
0.59396
0.577877
0.567416
0.562138
0.561596
0.565361
0.573003
0.583988
0.597765
0.613301
0.629015
0.643292
0.654886
0.663257
0.668682
0.672086
0.674658
0.677466
0.681219
0.686285
0.693014
0.701893
0.713618
0.728969
0.748521
0.772322
0.799474
0.828404
0.856998
0.882507
0.901582
0.910688
0.906679
0.88701
0.850143
0.795887
0.725612
0.642192
0.549641
0.45248
0.35497
0.260116
0.169431
0.0830933
0
-0.072403
-0.149246
-0.255219
-0.482373
-0.839051
-1.24224
-1.57825
-1.7686
-1.39047
-0.27375
1.6923
4.38365
7.36959
9.98497
11.5559
11.684
10.4278
8.26431
5.8521
3.74116
2.19358
1.18442
0.527477
0.0411652
-0.295071
-0.615868
-0.914507
-1.18374
-1.41842
-1.61567
-1.77472
-1.8966
-1.98369
-2.03807
-2.05783
-2.03897
-1.98983
-1.9299
-1.87908
-1.85277
-1.85729
-1.88834
-1.93358
-1.97809
-2.01038
-2.02878
-2.03831
-2.04263
-2.04486
-2.04814
-2.05511
-2.0676
-2.08646
-2.11142
-2.14112
-2.17373
-2.20663
-2.23686
-2.2613
-2.2769
-2.28058
-2.27022
-2.24441
-2.20256
-2.14495
-2.07277
-1.98797
-1.89318
-1.79139
-1.68579
-1.5794
-1.47475
-1.37409
-1.27942
-1.19241
-1.11441
-1.04626
-0.988138
-0.939608
-0.89953
-0.866093
-0.836921
-0.809262
-0.780275
-0.747396
-0.708785
-0.663273
-0.610491
-0.552736
-0.49716
-0.453281
-0.430235
-0.434177
-0.466513
-0.523746
-0.599199
-0.685971
-0.77989
-0.879957
-0.987017
-1.10381
-1.23296
-1.3758
-1.5317
-1.69785
-1.86942
-2.04014
-2.20293
-2.34847
-2.46899
-2.55897
-2.61539
-2.63811
-2.62976
-2.59519
-2.54059
-2.47269
-2.39813
-2.32322
-2.25696
-2.20804
-2.18358
-2.18683
-2.21483
-2.2579
-2.30194
-2.33281
-2.34089
-2.32948
-2.30318
-2.2651
-2.21875
-2.16725
-2.11249
-2.05488
-1.99405
-1.92933
-1.8603
-1.78706
-1.71051
-1.63223
-1.55424
-1.47853
-1.40662
-1.33925
-1.27637
-1.21718
-1.16051
-1.10505
-1.04961
-0.993344
-0.935704
-0.876461
-0.815682
-0.753727
-0.691259
-0.62925
-0.568965
-0.511823
-0.459127
-0.411836
-0.370348
-0.334387
-0.303025
-0.274836
-0.248166
-0.221424
-0.193394
-0.163461
-0.131615
-0.098436
-0.0652042
-0.0336826
-0.00570374
0.0171753
0.033913
0.0440498
0.0475903
0.0447895
0.0359772
0.0216076
0.00246048
-0.0204006
-0.0452518
-0.0697308
-0.0911339
-0.10693
-0.115158
-0.115124
-0.107373
-0.0934448
-0.0754105
-0.0553928
-0.0352158
-0.0162632
0.000502014
0.0144531
0.0253208
0.0329689
0.0375446
0.0395489
0.0398731
0.0397678
0.04072
0.0442089
0.051543
0.0637051
0.0812157
0.103972
0.13095
0.160266
0.189999
0.21879
0.246313
0.273436
0.301968
0.334077
0.371527
0.414967
0.463822
0.516249
0.569063
0.619025
0.664151
0.704498
0.742311
0.781407
0.82604
0.879644
0.943969
1.01819
1.10057
1.18942
1.28304
1.37986
1.47818
1.5757
1.66912
1.75445
1.82768
1.88575
1.92723
1.95263
1.964
1.96423
1.95625
1.94304
1.92632
1.90694
1.88519
1.86097
1.83379
1.80265
1.76615
1.72205
1.66502
1.58151
1.44363
1.2156
0.916162
0.636114
0.386338
0.156031
0
0.0737619
0.827634
2.5183
5.16213
8.36574
11.3996
13.4625
14.0124
12.9944
10.8468
8.28551
5.98947
4.34749
3.38685
2.88226
2.54856
2.25896
1.99196
1.73988
1.50782
1.29925
1.11596
0.958261
0.825481
0.716977
0.631576
0.567768
0.523943
0.499726
0.492692
0.499927
0.518394
0.545308
0.578386
0.615818
0.655967
0.696928
0.735282
0.766526
0.786033
0.790498
0.779308
0.755175
0.723614
0.691369
0.664301
0.645469
0.634914
0.629814
0.626419
0.622211
0.617474
0.615566
0.621778
0.641289
0.677179
0.726807
0.787695
0.85701
0.932089
1.0113
1.09428
1.18276
1.28026
1.38368
1.48077
1.55546
1.59632
1.60427
1.59472
1.59219
1.62027
1.69191
1.79437
1.91251
2.03871
2.16843
2.29842
2.42713
2.55427
2.68054
2.80677
2.92939
3.03787
3.11727
3.15316
3.13634
3.06582
2.94926
2.80121
2.63963
2.48119
2.33399
2.19953
2.07728
1.96744
1.87046
1.78817
1.72283
1.67629
1.65026
1.64542
1.6608
1.69541
1.74182
1.79108
1.83471
1.8665
1.88349
1.8859
1.87627
1.85833
1.83631
1.8142
1.79509
1.78205
1.77798
1.78554
1.80835
1.84895
1.90414
1.96416
2.01729
2.05291
2.06418
2.04966
2.01345
1.96407
1.91256
1.87
1.84308
1.83382
1.84705
1.88995
1.957
2.02889
2.08394
2.10529
2.08725
2.03794
1.97692
1.9284
1.91263
1.93231
1.98603
2.06704
2.15731
2.23589
2.28539
2.29553
2.2648
2.20019
2.11496
2.02462
1.94241
1.87478
1.82058
1.77691
1.74285
1.71893
1.7057
1.70368
1.71439
1.73656
1.76498
1.79302
1.81427
1.8241
1.82073
1.80517
1.78049
1.75049
1.71879
1.6875
1.65743
1.62857
1.60027
1.57131
1.54023
1.50581
1.46748
1.4256
1.38151
1.33732
1.29542
1.25786
1.22566
1.19885
1.1763
1.15594
1.13527
1.11193
1.08418
1.05131
1.01379
0.973258
0.932192
0.89341
0.859466
0.832431
0.813827
0.803224
0.796884
0.789788
0.777009
0.755079
0.722891
0.681881
0.635531
0.588499
0.545642
0.510348
0.487249
0.479473
0.489126
0.516858
0.561402
0.619331
0.685269
0.752637
0.814784
0.86622
0.903807
0.926085
0.933346
0.927042
0.909189
0.882558
0.849995
0.814198
0.778605
0.748705
0.731002
0.732051
0.756966
0.819005
0.924631
1.05068
1.16576
1.24173
1.26361
1.2333
1.166
1.08175
0.996975
0.918612
0.845387
0.775694
0.708717
0.644131
0.582078
0.523085
0.467779
0.416492
0.368884
0.323625
0.278318
0.229789
0.174553
0.107742
0.0214144
-0.0864607
-0.213298
-0.353961
-0.501857
0
1.30825
3.49231
6.3017
9.17655
11.4216
12.4782
12.1522
10.6722
8.55253
6.35267
4.47149
3.06974
2.11494
1.48209
1.14324
0.876292
0.627033
0.402946
0.209236
0.0490059
-0.0769592
-0.170114
-0.233801
-0.272685
-0.292118
-0.297543
-0.29416
-0.28635
-0.277651
-0.270794
-0.267501
-0.268422
-0.273131
-0.280271
-0.287883
-0.293915
-0.29674
-0.29532
-0.290309
-0.283737
-0.278164
-0.275723
-0.277267
-0.281935
-0.287263
-0.289804
-0.286043
-0.273911
-0.253057
-0.224118
-0.188455
-0.148832
-0.10881
-0.0719505
-0.041214
-0.0184704
-0.00419865
0.00260239
0.00429039
0.00427284
0.00651817
0.0148767
0.0326546
0.0623182
0.105178
0.161289
0.230171
0.310932
0.40264
0.504411
0.615634
0.735668
0.863456
0.99723
1.13451
1.27184
1.40537
1.53134
1.64646
1.74694
1.82694
1.88241
1.91072
1.90935
1.8766
1.81243
1.71884
1.5997
1.45983
1.30406
1.13826
0.966896
0.792959
0.619791
0.452352
0.297286
0.161189
0.0498785
-0.0328415
-0.0860176
-0.111728
-0.114573
-0.100724
-0.076852
-0.0495445
-0.0237154
-0.00318317
0.00907879
0.0109734
0.00135002
-0.0199007
-0.0517752
-0.0921648
-0.137995
-0.185497
-0.2306
-0.269449
-0.298621
-0.315463
-0.318307
-0.306585
-0.280866
-0.242603
-0.193566
-0.13697
-0.0790291
-0.0279379
0.00840416
0.0238541
0.0154272
-0.0157909
-0.064592
-0.122585
-0.179945
-0.227516
-0.260738
-0.279261
-0.283941
-0.275775
-0.25688
-0.230054
-0.198406
-0.165035
-0.13304
-0.105408
-0.0844784
-0.071678
-0.0672216
-0.0699406
-0.0774061
-0.0864071
-0.0937145
-0.0969387
-0.0949387
-0.0883318
-0.0802135
-0.0744442
-0.0740932
-0.0800598
-0.0903679
-0.100399
-0.104007
-0.0951572
-0.0701561
-0.0299923
0.0243832
0.0913416
0.163726
0.230384
0.280886
0.308096
0.309973
0.290023
0.256205
0.218602
0.186659
0.166131
0.156684
0.156218
0.163068
0.175054
0.189685
0.20474
0.218686
0.230942
0.241997
0.25333
0.267151
0.285945
0.311822
0.346726
0.393036
0.448082
0.503658
0.549898
0.57823
0.584023
0.567903
0.535394
0.495206
0.456927
0.427561
0.409347
0.402937
0.410187
0.430193
0.45677
0.48147
0.496302
0.495911
0.479034
0.44873
0.411319
0.374441
0.344955
0.325886
0.316617
0.315642
0.321531
0.332081
0.344043
0.353968
0.358855
0.35664
0.346553
0.329266
0.306759
0.281936
0.258059
0.237958
0.223488
0.215867
0.21576
0.222943
0.237017
0.257896
0.286169
0.323192
0.370861
0.431109
0.505274
0.595511
0.703427
0.826667
0.954121
1.0681
1.15163
1.19223
1.18496
1.13397
1.05174
0.95555
0.862064
0.782102
0.714872
0.654967
0.598476
0.542921
0.486269
0.427039
0.364172
0.29664
0.221186
0.122902
-0.0538467
-0.321349
-0.654019
-1.00625
-0.923426
0
1.92731
4.73784
7.97175
10.9384
12.9435
13.5425
12.6977
10.7628
8.30916
5.89494
3.89334
2.44249
1.49655
0.917304
0.646231
0.447967
0.266216
0.106917
-0.0255421
-0.128623
-0.201838
-0.246743
-0.266721
-0.266589
-0.252068
-0.229104
-0.203454
-0.180009
-0.162397
-0.152818
-0.152112
-0.160032
-0.175605
-0.197473
-0.223981
-0.253395
-0.284093
-0.314439
-0.342794
-0.36769
-0.387939
-0.402646
-0.411761
-0.415804
-0.415331
-0.410505
-0.400896
-0.385629
-0.363885
-0.335137
-0.299738
-0.261234
-0.22441
-0.193793
-0.172102
-0.159304
-0.152635
-0.147462
-0.138517
-0.121388
-0.0941563
-0.0554482
-0.00353756
0.0629833
0.145017
0.242767
0.355499
0.481389
0.617509
0.760162
0.90528
1.04893
1.18776
1.31937
1.44228
1.55572
1.65912
1.75143
1.83077
1.89442
1.93911
1.96064
1.95474
1.91805
1.84912
1.74902
1.62148
1.47251
1.30958
1.14056
0.971694
0.80722
0.650245
0.503242
0.368083
0.246149
0.138412
0.0457359
-0.0317547
-0.0959686
-0.150186
-0.198415
-0.244688
-0.292319
-0.343334
-0.398248
-0.456227
-0.515538
-0.574167
-0.630474
-0.683351
-0.732147
-0.776628
-0.816768
-0.852473
-0.883333
-0.90846
-0.926503
-0.935834
-0.934629
-0.919794
-0.887013
-0.838524
-0.787617
-0.751048
-0.7435
-0.771843
-0.831701
-0.908075
-0.980074
-1.028
-1.04385
-1.0357
-1.01004
-0.972246
-0.928805
-0.885906
-0.848148
-0.818093
-0.796073
-0.780467
-0.768328
-0.756203
-0.7411
-0.720752
-0.693949
-0.662085
-0.629417
-0.601547
-0.58375
-0.579331
-0.588365
-0.607189
-0.628878
-0.644679
-0.646148
-0.626567
-0.573975
-0.498584
-0.420642
-0.361824
-0.33644
-0.345825
-0.378462
-0.415519
-0.438917
-0.438122
-0.42011
-0.39282
-0.360977
-0.328902
-0.300497
-0.278738
-0.265156
-0.259759
-0.261083
-0.266405
-0.27213
-0.274359
-0.2695
-0.252697
-0.220115
-0.177386
-0.13723
-0.11383
-0.117457
-0.150187
-0.204624
-0.26626
-0.31856
-0.348686
-0.356987
-0.350421
-0.33319
-0.309677
-0.284443
-0.261398
-0.243329
-0.231844
-0.22764
-0.230907
-0.24164
-0.259578
-0.28426
-0.314537
-0.348258
-0.382204
-0.412393
-0.434722
-0.444948
-0.439524
-0.4186
-0.385806
-0.347276
-0.312631
-0.293558
-0.300371
-0.340275
-0.415545
-0.522071
-0.648919
-0.779407
-0.872484
-0.706546
-0.313466
0.131495
0.411691
0.391448
0.0943655
-0.309978
-0.602217
-0.638596
-0.479693
-0.3052
-0.13718
0.016337
0.150742
0.265408
0.362926
0.447706
0.524368
0.596305
0.664728
0.728266
0.782732
0.821827
0.839351
0.830338
0.792526
0.727493
0.641182
0.543468
0.446636
0.362936
0.301816
0.276553
0.285562
0.309169
0.320494
0.292986
0.206881
0.0528496
-0.179535
-0.476394
-0.817036
-1.1787
-1.00409
0
1.97585
4.78478
7.95901
10.8141
12.6746
13.1218
12.1456
10.1269
7.66101
5.31674
3.44992
2.15055
1.31886
0.801693
0.632682
0.486497
0.345723
0.211223
0.0839561
-0.0347136
-0.143457
-0.240787
-0.325279
-0.3958
-0.451426
-0.491126
-0.515385
-0.525344
-0.522837
-0.510401
-0.491174
-0.468598
-0.445975
-0.425968
-0.410081
-0.398784
-0.391904
-0.388915
-0.389388
-0.393314
-0.401282
-0.414252
-0.433197
-0.458628
-0.490166
-0.526328
-0.564501
-0.601072
-0.631922
-0.653012
-0.660916
-0.653275
-0.629126
-0.589092
-0.535407
-0.471752
-0.402649
-0.333671
-0.270465
-0.217507
-0.177275
-0.149719
-0.1322
-0.119927
-0.106834
-0.0867039
-0.0543259
-0.00708008
0.0554054
0.132399
0.222724
0.324956
0.437618
0.559383
0.689645
0.82862
0.976132
1.12957
1.28125
1.41751
1.52358
1.58568
1.59279
1.53853
1.42344
1.25695
1.05773
0.85094
0.662008
0.502903
0.371058
0.261134
0.171295
0.100312
0.0460224
0.00588474
-0.0230658
-0.0441641
-0.060388
-0.0740616
-0.0866301
-0.0985413
-0.109288
-0.11763
-0.121973
-0.120865
-0.1136
-0.0999174
-0.0804411
-0.0576254
-0.0353357
-0.0173103
-0.00602608
-0.00183373
-0.00267754
-0.0045496
-0.00258217
0.00754013
0.0279636
0.0574877
0.0940556
0.134285
0.173547
0.207638
0.233884
0.251864
0.263565
0.272932
0.284907
0.304205
0.333966
0.374267
0.423893
0.480533
0.538409
0.590709
0.631558
0.657401
0.667732
0.664998
0.653768
0.639505
0.627328
0.620445
0.620021
0.626519
0.639668
0.658576
0.681625
0.706309
0.729899
0.750129
0.765649
0.776242
0.782663
0.786148
0.78774
0.787518
0.78455
0.77706
0.763364
0.74292
0.717001
0.688641
0.661851
0.640427
0.626691
0.620072
0.619226
0.622501
0.627926
0.633696
0.638537
0.641827
0.643545
0.644053
0.643795
0.643003
0.641478
0.638534
0.633156
0.624338
0.611486
0.594764
0.575223
0.554671
0.535312
0.519275
0.508174
0.50321
0.50479
0.512992
0.527879
0.549626
0.579047
0.618917
0.666108
0.709487
0.734804
0.730769
0.695224
0.637577
0.575622
0.528152
0.50716
0.506662
0.517235
0.532814
0.546678
0.552792
0.546787
0.526474
0.491962
0.445494
0.391149
0.334519
0.281978
0.240234
0.215455
0.212375
0.233516
0.278732
0.345246
0.428194
0.521543
0.619042
0.715595
0.807906
0.893708
0.971728
1.04147
1.10295
1.15658
1.20292
1.24243
1.27538
1.30159
1.3199
1.32807
1.32368
1.30453
1.26922
1.21811
1.15382
1.08118
1.00634
0.935325
0.87442
0.824832
0.781293
0.734296
0.673054
0.58856
0.475568
0.312216
0.0545954
-0.266128
-0.619697
-0.983106
-0.89991
0
1.92625
4.76742
8.02388
10.9465
12.8141
13.2203
12.2161
10.2334
7.85113
5.55348
3.61198
2.11364
1.05528
0.407267
0.283172
0.217136
0.155666
0.0965399
0.0383904
-0.0184388
-0.0707872
-0.113121
-0.13902
-0.143333
-0.124149
-0.0838632
-0.0283313
0.0330257
0.0907374
0.138053
0.172911
0.198445
0.22184
0.251878
0.295939
0.356554
0.435296
0.524062
0.60925
0.677712
0.721442
0.740218
0.741193
0.735644
0.734333
0.743473
0.761139
0.783746
0.806964
0.827485
0.844643
0.860898
0.881083
0.910801
0.95464
1.01318
1.08426
1.16569
1.25522
1.35052
1.44957
1.55095
1.65398
1.75853
1.86467
1.97232
2.08099
2.1896
2.29672
2.40103
2.50187
2.59947
2.69493
2.78981
2.88559
2.98315
3.08232
3.18215
3.28104
3.37671
3.46609
3.54533
3.61044
3.65823
3.6861
3.69248
3.67714
3.64132
3.58747
3.51877
3.43864
3.35054
3.25785
3.16342
3.06969
2.97924
2.89484
2.81917
2.75453
2.70257
2.66403
2.63866
2.62527
2.62189
2.62594
2.63438
2.64405
2.65132
2.65269
2.64549
2.62846
2.60217
2.56914
2.5334
2.49959
2.4718
2.45302
2.44377
2.44171
2.4432
2.44492
2.44524
2.44485
2.44647
2.45375
2.47001
2.49609
2.53119
2.57422
2.62377
2.67805
2.7351
2.79293
2.84922
2.901
2.94529
2.97929
3.00083
3.00892
3.00405
2.98824
2.96449
2.93616
2.90612
2.87603
2.84609
2.81536
2.78181
2.74303
2.69697
2.64269
2.58085
2.51366
2.44441
2.37666
2.31347
2.25681
2.20806
2.16838
2.14072
2.1276
2.13197
2.15609
2.20476
2.27533
2.35733
2.4375
2.50335
2.54611
2.56163
2.54961
2.51236
2.45421
2.38442
2.31053
2.24176
2.18772
2.15624
2.15114
2.17379
2.21583
2.26496
2.30884
2.33892
2.35242
2.35214
2.34414
2.33464
2.32723
2.32148
2.31518
2.30499
2.2876
2.26077
2.2241
2.17921
2.12941
2.07902
2.03217
1.99189
1.95971
1.93649
1.92138
1.91183
1.9049
1.89805
1.88974
1.87955
1.86788
1.85539
1.84248
1.82916
1.81525
1.80101
1.78771
1.77786
1.7749
1.78247
1.80347
1.83823
1.88585
1.94544
2.0155
2.09442
2.18111
2.27507
2.3763
2.48264
2.58267
2.65701
2.6836
2.64695
2.5478
2.40717
2.26029
2.14216
2.07208
2.0328
2.00831
1.98928
1.96727
1.93634
1.89351
1.83801
1.77014
1.69121
1.59437
1.43823
1.14632
0.75539
0.349413
0
0.393342
1.82746
4.41847
7.85843
11.4491
14.3266
15.7791
15.5072
13.7102
10.9745
8.02686
5.47573
3.64649
2.55534
2.00117
1.73347
1.57157
1.41907
1.28095
1.16139
1.0627
0.984461
0.924464
0.8795
0.846182
0.821694
0.80428
0.793352
0.789239
0.792586
0.80357
0.822552
0.848644
0.877636
0.902571
0.916456
0.91451
0.896016
0.864959
0.829064
0.797466
0.777906
0.773635
0.782861
0.804095
0.835231
0.874775
0.922475
0.98088
1.05766
1.15117
1.24483
1.31416
1.33721
1.3052
1.22762
1.12946
1.04262
0.995101
0.988302
1.0097
1.05278
1.11393
1.18899
1.27446
1.3683
1.47006
1.5805
1.70074
1.83126
1.97129
2.11811
2.26889
2.42064
2.57047
2.71565
2.85346
2.98068
3.09273
3.1835
3.24644
3.27376
3.25848
3.19697
3.09121
2.94982
2.78737
2.62168
2.46901
2.33611
2.22272
2.13119
2.05826
1.99804
1.94362
1.88871
1.82886
1.76204
1.68854
1.61041
1.53094
1.45489
1.39204
1.35347
1.35193
1.39877
1.49872
1.65366
1.83835
2.01663
2.15397
2.23005
2.2452
2.21823
2.17755
2.15029
2.15222
2.17654
2.21617
2.26726
2.32668
2.39134
2.45859
2.5265
2.59391
2.66025
2.72515
2.78771
2.84573
2.89597
2.93441
2.95747
2.9635
2.9537
2.93209
2.90446
2.87665
2.85295
2.83414
2.81922
2.80682
2.79495
2.78138
2.76409
2.7416
2.71327
2.67973
2.64268
2.60501
2.57061
2.54388
2.52958
2.535
2.56999
2.63554
2.71611
2.79102
2.84056
2.85131
2.81867
2.74642
2.64431
2.52529
2.40367
2.29035
2.19079
2.10797
2.04503
2.0078
1.99796
2.00726
2.02419
2.03678
2.03535
2.01454
1.97402
1.91807
1.85433
1.79217
1.73939
1.70064
1.68009
1.68654
1.72946
1.80752
1.90127
1.98676
2.04265
2.05613
2.02625
1.96377
1.88764
1.81898
1.77473
1.75672
1.75728
1.76917
1.78806
1.80859
1.82415
1.82911
1.82019
1.79749
1.76491
1.72968
1.70077
1.68665
1.69791
1.73896
1.79809
1.85686
1.8969
1.90599
1.88067
1.8248
1.74557
1.64935
1.54142
1.42549
1.30365
1.1776
1.04979
0.923899
0.804643
0.697265
0.607759
0.545943
0.524247
0.539824
0.575485
0.609916
0.624054
0.606002
0.552682
0.46813
0.359943
0.235866
0.103593
-0.0322237
-0.169504
0
0.911164
2.85043
5.74509
9.06348
11.9509
13.5689
13.4709
11.8024
9.20686
6.49958
4.30528
2.86332
2.07026
1.67287
1.52321
1.39898
1.27687
1.15569
1.03428
0.911832
0.78809
0.663828
0.541865
0.428123
0.330844
0.258621
0.219348
0.218838
0.259727
0.340729
0.456318
0.596934
0.749873
0.901034
1.03937
1.15737
1.25005
1.31665
1.36061
1.38895
1.41081
1.43574
1.47133
1.52261
1.59852
1.6962
1.79798
1.88373
1.9395
1.96452
1.97313
1.99027
2.04176
2.14346
2.28606
2.44882
2.61897
2.78808
130
354
586
840
1104
1367
1616
1885
2141
2405
2675
2943
3204
3457
3697
3612
0
0
0
0
0
0
0
0
0
0
0
0
0
0
0
0
0
0
0
0
0
0
0
0
0
0
0
0
0
0
0
0
0
0
0
0
0
0
0
0
0
0
0
0
0
0
0
0
0
0
0
0
0
0
0
0
0
0
0
0
0
0
0
0
0
0
0
0
0
0
0
0
0
0
0
0
0
0
0
0
0
0
0
0
0
0
0
0
0
0
0
0
0
0
0
0
0
0
0
0
0
0
0
0
0
0
0
0
0
0
0
0
0
0
0
0
0
0
0
0
0
0
0
0
0
0
0
0
0
0
0
0
0
0
0
0
0
0
0
0
0
0
0
0
0
0
0
0
0
0
0
0
0
0
0
0
0
0
0
0
0
0
0
0
0
0
0
0
0
0
0
0
0
0
0
0
0
0
0
0
0
0
0
0
0
0
0
0
0
0
0
0
0
0
0
0
0
0
0
0
0
0
0
0
0
0
0
0
0
0
0
0
0
0
0
0
0
0
0
0
0
0
0
0
0
0
0
0
0
0
0
0
0
0
0
0
0
0
0
0
0
0
0
0
0
0
0
0
0
0
0
0
0
0
0
0
0
0
0
0
0
0
0
0
0
0
0
0
0
0
0
0
0
0
0
0
0
0
0
0
0
0
0
0
0
0
0
0
0
0
0
0
0
0
0
0
0
0
0
0
0
0
0
0
0
0
0
0
0
0
0
0
0
0
0
0
0
0
0
0
0
0
0
0
0
0
0
0
0
0
0
0
0
0
0
0
0
0
0
0
0
0
0
0
0
0
0
0
0
0
0
0
0
0
0
0
0
0
0
0
0
0
0
0
0
0
0
0
0
0
0
0
0
0
0
0
0
0
0
0
0
0
0
0
0
0
0
0
0
0
0
0
0
0
0
0
0
0
0
0
0
0
0
0
0
0
0
0
0
0
0
0
0
0
0
0
0
0
0
0
0
0
0
0
0
0
0
0
0
0
0
0
0
0
0
0
0
0
0
0
0
0
0
0
0
0
0
0
0
0
0
0
0
0
0
0
0
0
0
0
0
0
0
0
0
0
0
0
0
0
0
0
0
0
0
0
0
0
0
0
0
0
0
0
0
0
0
0
0
0
0
0
0
0
0
0
0
0
0
0
0
0
0
0
0
0
0
0
0
0
0
0
0
0
0
0
0
0
0
0
0
0
0
0
0
0
0
0
0
0
0
0
0
0
0
0
0
0
0
0
0
0
0
0
0
0
0
0
0
0
0
0
0
0
0
0
0
0
0
0
0
0
0
0
0
0
0
0
0
0
0
0
0
0
0
0
0
0
0
0
0
0
0
0
0
0
0
0
0
0
0
0
0
0
0
0
0
0
0
0
0
0
0
0
0
0
0
0
0
0
0
0
0
0
0
0
0
0
0
0
0
0
0
0
0
0
0
0
0
0
0
0
0
0
0
0
0
0
0
0
0
0
0
0
0
0
0
0
0
0
0
0
0
0
0
0
0
0
0
0
0
0
0
0
0
0
0
0
0
0
0
0
0
0
0
0
0
0
0
0
0
0
0
0
0
0
0
0
0
0
0
0
0
0
0
0
0
0
0
0
0
0
0
0
0
0
0
0
0
0
0
0
0
0
0
0
0
0
0
0
0
0
0
0
0
0
0
0
0
0
0
0
0
0
0
0
0
0
0
0
0
0
0
0
0
0
0
0
0
0
0
0
0
0
0
0
0
0
0
0
0
0
0
0
0
0
0
0
0
0
0
0
0
0
0
0
0
0
0
0
0
0
0
0
0
0
0
0
0
0
0
0
0
0
0
0
0
0
0
0
0
0
0
0
0
0
0
0
0
0
0
0
0
0
0
0
0
0
0
0
0
0
0
0
0
0
0
0
0
0
0
0
0
0
0
0
0
0
0
0
0
0
0
0
0
0
0
0
0
0
0
0
0
0
0
0
0
0
0
0
0
0
0
0
0
0
0
0
0
0
0
0
0
0
0
0
0
0
0
0
0
0
0
0
0
0
0
0
0
0
0
0
0
0
0
0
0
0
0
0
0
0
0
0
0
0
0
0
0
0
0
0
0
0
0
0
0
0
0
0
0
0
0
0
0
0
0
0
0
0
0
0
0
0
0
0
0
0
0
0
0
0
0
0
0
0
0
0
0
0
0
0
0
0
0
0
0
0
0
0
0
0
0
0
0
0
0
0
0
0
0
0
0
0
0
0
0
0
0
0
0
0
0
0
0
0
0
0
0
0
0
0
0
0
0
0
0
0
0
0
0
0
0
0
0
0
0
0
0
0
0
0
0
0
0
0
0
0
0
0
0
0
0
0
0
0
0
0
0
0
0
0
0
0
0
0
0
0
0
0
0
0
0
0
0
0
0
0
0
0
0
0
0
0
0
0
0
0
0
0
0
0
0
0
0
0
0
0
0
0
0
0
0
0
0
0
0
0
0
0
0
0
0
0
0
0
0
0
0
0
0
0
0
0
0
0
0
0
0
0
0
0
0
0
0
0
0
0
0
0
0
0
0
0
0
0
0
0
0
0
0
0
0
0
0
0
0
0
0
0
0
0
0
0
0
0
0
0
0
0
0
0
0
0
0
0
0
0
0
0
0
0
0
0
0
0
0
0
0
0
0
0
0
0
0
0
0
0
0
0
0
0
0
0
0
0
0
0
0
0
0
0
0
0
0
0
0
0
0
0
0
0
0
0
0
0
0
0
0
0
0
0
0
0
0
0
0
0
0
0
0
0
0
0
0
0
0
0
0
0
0
0
0
0
0
0
0
0
0
0
0
0
0
0
0
0
0
0
0
0
0
0
0
0
0
0
0
0
0
0
0
0
0
0
0
0
0
0
0
0
0
0
0
0
0
0
0
0
0
0
0
0
0
0
0
0
0
0
0
0
0
0
0
0
0
0
0
0
0
0
0
0
0
0
0
0
0
0
0
0
0
0
0
0
0
0
0
0
0
0
0
0
0
0
0
0
0
0
0
0
0
0
0
0
0
0
0
0
0
0
0
0
0
0
0
0
0
0
0
0
0
0
0
0
0
0
0
0
0
0
0
0
0
0
0
0
0
0
0
0
0
0
0
0
0
0
0
0
0
0
0
0
0
0
0
0
0
0
0
0
0
0
0
0
0
0
0
0
0
0
0
0
0
0
0
0
0
0
0
0
0
0
0
0
0
0
0
0
0
0
0
0
0
0
0
0
0
0
0
0
0
0
0
0
0
0
0
0
0
0
0
0
0
0
0
0
0
0
0
0
0
0
0
0
0
0
0
0
0
0
0
0
0
0
0
0
0
0
0
0
0
0
0
0
0
0
0
0
0
0
0
0
0
0
0
0
0
0
0
0
0
0
0
0
0
0
0
0
0
0
0
0
0
0
0
0
0
0
0
0
0
0
0
0
0
0
0
0
0
0
0
0
0
0
0
0
0
0
0
0
0
0
0
0
0
0
0
0
0
0
0
0
0
0
0
0
0
0
0
0
0
0
0
0
0
0
0
0
0
0
0
0
0
0
0
0
0
0
0
0
0
0
0
0
0
0
0
0
0
0
0
0
0
0
0
0
0
0
0
0
0
0
0
0
0
0
0
0
0
0
0
0
0
0
0
0
0
0
0
0
0
0
0
0
0
0
0
0
0
0
0
0
0
0
0
0
0
0
0
0
0
0
0
0
0
0
0
0
0
0
0
0
0
0
0
0
0
0
0
0
0
0
0
0
0
0
0
0
0
0
0
0
0
0
0
0
0
0
0
0
0
0
0
0
0
0
0
0
0
0
0
0
0
0
0
0
0
0
0
0
0
0
0
0
0
0
0
0
0
0
0
0
0
0
0
0
0
0
0
0
0
0
0
0
0
0
0
0
0
0
0
0
0
0
0
0
0
0
0
0
0
0
0
0
0
0
0
0
0
0
0
0
0
0
0
0
0
0
0
0
0
0
0
0
0
0
0
0
0
0
0
0
0
0
0
0
0
0
0
0
0
0
0
0
0
0
0
0
0
0
0
0
0
0
0
0
0
0
0
0
0
0
0
0
0
0
0
0
0
0
0
0
0
0
0
0
0
0
0
0
0
0
0
0
0
0
0
0
0
0
0
0
0
0
0
0
0
0
0
0
0
0
0
0
0
0
0
0
0
0
0
0
0
0
0
0
0
0
0
0
0
0
0
0
0
0
0
0
0
0
0
0
0
0
0
0
0
0
0
0
0
0
0
0
0
0
0
0
0
0
0
0
0
0
0
0
0
0
0
0
0
0
0
0
0
0
0
0
0
0
0
0
0
0
0
0
0
0
0
0
0
0
0
0
0
0
0
0
0
0
0
0
0
0
0
0
0
0
0
0
0
0
0
0
0
0
0
0
0
0
0
0
0
0
0
0
0
0
0
0
0
0
0
0
0
0
0
0
0
0
0
0
0
0
0
0
0
0
0
0
0
0
0
0
0
0
0
0
0
0
0
0
0
0
0
0
0
0
0
0
0
0
0
0
0
0
0
0
0
0
0
0
0
0
0
0
0
0
0
0
0
0
0
0
0
0
0
0
0
0
0
0
0
0
0
0
0
0
0
0
0
0
0
0
0
0
0
0
0
0
0
0
0
0
0
0
0
0
0
0
0
0
0
0
0
0
0
0
0
0
0
0
0
0
0
0
0
0
0
0
0
0
0
0
0
0
0
0
0
0
0
0
0
0
0
0
0
0
0
0
0
0
0
0
0
0
0
0
0
0
0
0
0
0
0
0
0
0
0
0
0
0
0
0
0
0
0
0
0
0
0
0
0
0
0
0
0
0
0
0
0
0
0
0
0
0
0
0
0
0
0
0
0
0
0
0
0
0
0
0
0
0
0
0
0
0
0
0
0
0
0
0
0
0
0
0
0
0
0
0
0
0
0
0
0
0
0
0
0
0
0
0
0
0
0
0
0
0
0
0
0
0
0
0
0
0
0
0
0
0
0
0
0
0
0
0
0
0
0
0
0
0
0
0
0
0
0
0
0
0
0
0
0
0
0
0
0
0
0
0
0
0
0
0
0
0
0
0
0
0
0
0
0
0
0
0
0
0
0
0
0
0
0
0
0
0
0
0
0
0
0
0
0
0
0
0
0
0
0
0
0
0
0
0
0
0
0
0
0
0
0
0
0
0
0
0
0
0
0
0
0
0
0
0
0
0
0
0
0
0
0
0
0
0
0
0
0
0
0
0
0
0
0
0
0
0
0
0
0
0
0
0
0
0
0
0
0
0
0
0
0
0
0
0
0
0
0
0
0
0
0
0
0
0
0
0
0
0
0
0
0
0
0
0
0
0
0
0
0
0
0
0
0
0
0
0
0
0
0
0
0
0
0
0
0
0
0
0
0
0
0
0
0
0
0
0
0
0
0
0
0
0
0
0
0
0
0
0
0
0
0
0
0
0
0
0
0
0
0
0
0
0
0
0
0
0
0
0
0
0
0
0
0
0
0
0
0
0
0
0
0
0
0
0
0
0
0
0
0
0
0
0
0
0
0
0
0
0
0
0
0
0
0
0
0
0
0
0
0
0
0
0
0
0
0
0
0
0
0
0
0
0
0
0
0
0
0
0
0
0
0
0
0
0
0
0
0
0
0
0
0
0
0
0
0
0
0
0
0
0
0
0
0
0
0
0
0
0
0
0
0
0
0
0
0
0
0
0
0
0
0
0
0
0
0
0
0
0
0
0
0
0
0
0
0
0
0
0
0
0
0
0
0
0
0
0
0
0
0
0
0
0
0
0
0
0
0
0
0
0
0
0
0
0
0
0
0
0
0
0
0
0
0
0
0
0
0
0
0
0
0
0
0
0
0
0
0
0
0
0
0
0
0
0
0
0
0
0
0
0
0
0
0
0
0
0
0
0
0
0
0
0
0
0
0
0
0
0
0
0
0
0
0
0
0
0
0
0
0
0
0
0
0
0
0
0
0
0
0
0
0
0
0
0
0
0
0
0
0
0
0
0
0
0
0
0
0
0
0
0
0
0
0
0
0
0
0
0
0
0
0
0
0
0
0
0
0
0
0
0
0
0
0
0
0
0
0
0
0
0
0
0
0
0
0
0
0
0
0
0
0
0
0
0
0
0
0
0
0
0
0
0
0
0
0
0
0
0
0
0
0
0
0
0
0
0
0
0
0
0
0
0
0
0
0
0
0
0
0
0
0
0
0
0
0
0
0
0
0
0
0
0
0
0
0
0
0
0
0
0
0
0
0
0
0
0
0
0
0
0
0
0
0
0
0
0
0
0
0
0
0
0
0
0
0
0
0
0
0
0
0
0
0
0
0
0
0
0
0
0
0
0
0
0
0
0
0
0
0
0
0
0
0
0
0
0
0
0
0
0
0
0
0
0
0
0
0
0
0
0
0
0
0
0
0
0
0
0
0
0
0
0
0
0
0
0
0
0
0
0
0
0
0
0
0
0
0
0
0
0
0
0
0
0
0
0
0
0
0
0
0
0
0
0
0
0
0
0
0
0
0
0
0
0
0
0
0
0
0
0
0
0
0
0
0
0
0
0
0
0
0
0
0
0
0
0
0
0
0
0
0
0
0
0
0
0
0
0
0
0
0
0
0
0
0
0
0
0
0
0
0
0
0
0
0
0
0
0
0
0
0
0
0
0
0
0
0
0
0
0
0
0
0
0
0
0
0
0
0
0
0
0
0
0
0
0
0
0
0
0
0
0
0
0
0
0
0
0
0
0
0
0
0
0
0
0
0
0
0
0
0
0
0
0
0
0
0
0
0
0
0
0
0
0
0
0
0
0
0
0
0
0
0
0
0
0
0
0
0
0
0
0
0
0
0
0
0
0
0
0
0
0
0
0
0
0
0
0
0
0
0
0
0
0
0
0
0
0
0
0
0
0
0
0
0
0
0
0
0
0
0
0
0
0
0
0
0
0
0
0
0
0
0
0
0
0
0
0
0
0
0
0
0
0
0
0
0
0
0
0
0
0
0
0
0
0
0
0
0
0
0
0
0
0
0
0
0
0
0
0
0
0
0
0
0
0
0
0
0
0
0
0
0
0
0
0
0
0
0
0
0
0
0
0
0
0
0
0
0
0
0
0
0
0
0
0
0
0
0
0
0
0
0
0
0
0
0
0
0
0
0
0
0
0
0
0
0
0
0
0
0
0
0
0
0
0
0
0
0
0
0
0
0
0
0
0
0
0
0
0
0
0
0
0
0
0
0
0
0
0
0
0
0
0
0
0
0
0
0
0
0
0
0
0
0
0
0
0
0
0
0
0
0
0
0
0
0
0
0
0
0
0
0
0
0
0
0
0
0
0
0
0
0
0
0
0
0
0
0
0
0
0
0
0
0
0
0
0
0
0
0
0
0
0
0
0
0
0
0
0
0
0
0
0
0
0
0
0
0
0
0
0
0
0
0
0
0
0
0
0
0
0
0
0
0
0
0
0
0
0
0
0
0
0
0
0
0
0
0
0
0
0
0
0
0
0
0
0
0
0
0
0
0
0
0
0
0
0
0
0
0
0
0
0
0
0
0
0
0
0
0
0
0
0
0
0
0
0
0
0
0
0
0
0
0
0
0
0
0
0
0
0
0
0
0
0
0
0
0
0
0
0
0
0
0
0
0
0
0
0
0
0
0
0
0
0
0
0
0
0
0
0
0
0
0
0
0
0
0
0
0
0
0
0
0
0
0
0
0
0
0
0
0
0
0
0
0
0
0
0
0
0
0
0
0
0
0
0
0
0
0
0
0
0
0
0
0
0
0
0
0
0
0
0
0
0
0
0
0
0
0
0
0
0
0
0
0
0
0
0
0
0
0
0
0
0
0
0
0
0
0
0
0
0
0
0
0
0
0
0
0
0
0
0
0
0
0
0
0
0
0
0
0
0
0
0
0
0
0
0
0
0
0
0
0
0
0
0
0
0
0
0
0
0
0
0
0
0
0
0
0
0
0
0
0
0
0
0
0
0
0
0
0
0
0
0
0
0
0
0
0
0
0
0
0
0
0
0
0
0
0
0
0
0
0
0
0
0
0
0
0
0
0
0
0
0
0
0
0
0
0
0
0
0
0
0
0
0
0
0
0
0
0
0
0
0
0
0
0
0
0
0
0
0
0
0
0
0
0
0
0
0
0
0
0
0
0
0
0
0
0
0
0
0
0
0
0
0
0
0
0
0
0
0
0
0
0
0
0
0
0
0
0
0
0
0
0
0
0
0
0
0
0
0
0
0
0
0
0
0
0
0
0
0
0
0
0
0
0
0
0
0
0
0
0
0
0
0
0
0
0
0
0
0
0
0
0
0
0
0
0
0
0
0
0
0
0
0
0
0
0
0
0
0
0
0
0
0
0
0
0
0
0
0
0
0
0
0
0
0
0
0
0
0
0
0
0
0
0
0
0
0
0
0
0
0
0
0
0
0
0
0
0
0
0
0
0
0
0
0
0
0
0
0
0
0
0
