2.37052
2.63701
2.9138
3.19442
3.46964
3.72498
3.94721
4.1248
4.24976
4.31905
4.33475
4.30298
4.23189
4.12954
4.00241
3.85783
3.70044
3.53283
3.35698
3.1751
2.98984
2.80423
2.62163
2.44545
2.2788
2.12432
1.984
1.8591
1.75015
1.65713
1.58082
1.52068
1.47158
1.42769
1.38401
1.33785
1.28971
1.24293
1.20227
1.17199
1.15371
1.14535
1.14524
1.1509
1.15974
1.1695
1.17846
1.18538
1.18959
1.19102
1.19044
1.18952
1.19079
1.19707
1.21114
1.23652
1.27095
1.30515
1.32799
1.33187
1.3174
1.29501
1.28237
1.32459
1.45254
1.62493
1.76119
1.79032
1.6953
1.52313
1.35441
1.25514
1.24555
1.27352
1.31298
1.35625
1.3977
1.4322
1.45525
1.4642
1.4579
1.43725
1.40561
1.36877
1.334
1.30847
1.29732
1.30084
1.31767
1.34402
1.37488
1.40547
1.43281
1.45576
1.47512
1.49334
1.51377
1.53979
1.57396
1.61773
1.67123
1.7334
1.80193
1.87371
1.94518
2.01268
2.07177
2.1166
2.14267
2.14635
2.12547
2.08021
2.01353
1.93105
1.83991
1.7473
1.65885
1.57661
1.501
1.43125
1.36562
1.30167
1.23659
1.16724
1.09024
1.00257
0.901217
0.784011
0.649975
0.499099
0.334597
0.148656
0
0.359818
1.56933
3.7677
6.70416
9.70986
11.9016
12.5391
11.3589
8.70698
5.39425
2.34978
0.249643
-0.697034
-0.7201
-0.346012
-0.123879
0.0660868
0.215945
0.32503
0.413161
0.488413
0.554607
0.614931
0.671577
0.72553
0.77669
0.824112
0.866424
0.902278
0.930676
0.951253
0.964439
0.97148
0.974328
0.975425
0.977426
0.982843
0.99376
1.01184
1.03824
1.0737
1.11847
1.17252
1.23573
1.30791
1.38891
1.47861
1.57711
1.6846
1.80158
1.92891
2.06767
2.21878
2.3826
2.55836
2.74398
2.93586
3.12967
3.32054
3.50313
3.67181
3.82068
3.94326
4.03293
4.0858
4.09879
4.07077
4.00384
3.90372
3.77873
3.63729
3.48495
3.32258
3.14879
2.95914
2.75055
2.5238
2.2851
2.04581
1.82182
1.62923
1.48065
1.38242
1.33361
1.32677
1.35012
1.39028
1.43449
1.4738
1.502
1.51584
1.51478
1.50045
1.47613
1.44608
1.41479
1.38633
1.36367
1.34803
1.33874
1.33438
1.33278
1.33055
1.32416
1.31125
1.29173
1.26847
1.24738
1.23661
1.25687
1.35224
1.53506
1.75165
1.92946
2.01012
1.97067
1.82837
1.63344
1.45314
1.34841
1.32794
1.35374
1.39829
1.44902
1.49684
1.53456
1.55789
1.5657
1.5597
1.54371
1.52272
1.50196
1.48566
1.47694
1.47771
1.48857
1.50923
1.53789
1.57047
1.6017
1.6267
1.64204
1.64654
1.64144
1.63004
1.61681
1.60642
1.60252
1.60689
1.62022
1.64258
1.67336
1.71134
1.7542
1.79883
1.84193
1.88036
1.91131
1.93334
1.94641
1.95198
1.95266
1.95162
1.95175
1.95508
1.96166
1.96846
1.9706
1.96288
1.94136
1.9044
1.85285
1.78963
1.71902
1.64631
1.57546
1.50963
1.45156
1.40311
1.36328
1.32866
1.29361
1.25088
1.19262
1.11162
1.00249
0.862855
0.688532
0.486786
0.267343
-0.19866
0
1.32862
3.89603
7.27625
10.5721
12.7368
13.0214
11.328
8.26706
4.87025
2.11219
0.507075
-0.00776154
0.121038
0.240006
0.320427
0.391603
0.452344
0.501791
0.540229
0.568798
0.589694
0.606267
0.622826
0.644037
0.674205
0.719029
0.780209
0.849817
0.915188
0.963076
0.983989
0.975308
0.94231
0.896981
0.855138
0.832646
0.83771
0.870812
0.928697
1.0066
1.09939
1.20186
1.30894
1.416
1.51968
1.61863
1.71373
1.80779
1.9051
2.01054
2.12867
2.263
2.41536
2.58505
2.77048
2.96995
3.1824
3.40754
3.64514
3.89217
4.13521
4.34866
4.49986
4.55653
4.49738
4.32301
4.06282
3.77222
3.51552
3.33061
3.19129
3.0673
2.94522
2.81651
2.67512
2.51897
2.35055
2.17643
2.00596
1.84868
1.71218
1.60232
1.52285
1.4732
1.44888
1.44324
1.44823
1.45486
1.45501
1.44267
1.41462
1.37063
1.31345
1.24835
1.18228
1.12277
1.07629
1.04684
1.03682
1.04613
1.07229
1.11095
1.1567
1.20393
1.24756
1.28389
1.311
1.32884
1.339
1.34405
1.34684
1.34965
1.35373
1.35904
1.36457
1.36894
1.37103
1.37058
1.36825
1.36539
1.36348
1.36348
1.36538
1.36825
1.3705
1.37042
1.36682
1.35943
1.34907
1.33746
1.32686
1.31923
1.3158
1.31744
1.32352
1.33113
1.33625
1.33504
1.32522
1.30727
1.28488
1.26455
1.2544
1.26242
1.2927
1.3455
1.41978
1.51237
1.61958
1.7323
1.83845
1.92734
1.99161
2.0281
2.0375
2.02288
1.98802
1.93612
1.87092
1.79624
1.71486
1.63075
1.54899
1.47501
1.41344
1.36591
1.33359
1.31421
1.30196
1.28929
1.26815
1.23118
1.17261
1.08873
0.978193
0.842061
0.684275
0.511305
0.325144
-0.0534307
0
0.861206
2.68379
5.28351
8.13315
10.492
11.638
11.1355
9.03617
5.90418
2.62111
0.0418048
-1.33775
-1.53262
-0.970388
-0.489769
-0.09164
0.187034
0.358629
0.500104
0.61701
0.70824
0.767668
0.788896
0.770957
0.721901
0.658286
0.600683
0.567329
0.564994
0.586721
0.625923
0.679127
0.742566
0.812325
0.884866
0.957094
1.02612
1.08965
1.14613
1.19509
1.23748
1.2758
1.31402
1.35714
1.41048
1.47885
1.56535
1.67191
1.7996
1.94862
2.11831
2.30735
2.51383
2.73516
2.96794
3.2078
3.44952
3.68631
3.91055
4.11425
4.28865
4.42457
4.516
4.55973
4.55412
4.49906
4.39618
4.24908
4.06335
3.84635
3.60684
3.3556
3.10226
2.85419
2.61827
2.40052
2.20575
2.03775
1.89853
1.7859
1.69381
1.6146
1.54057
1.4656
1.38627
1.30229
1.21617
1.13224
1.05508
0.987897
0.932716
0.890538
0.860579
0.840944
0.82951
0.824624
0.825526
0.832384
0.845951
0.866989
0.895691
0.931104
0.971281
1.01378
1.0558
1.0947
1.12829
1.15525
1.17543
1.18983
1.20054
1.2106
1.22372
1.24394
1.27519
1.3208
1.38285
1.4626
1.5622
1.68369
1.82422
1.97059
2.10256
2.19908
2.24184
2.21867
2.12677
1.97506
1.78478
1.58703
1.41653
1.29556
1.23002
1.2452
1.33063
1.44811
1.55579
1.62039
1.62361
1.56289
1.44989
1.30903
1.17576
1.08821
1.06912
1.11994
1.22723
1.38141
1.57844
1.80315
2.03719
2.25889
2.44116
2.56933
2.63495
2.63063
2.55242
2.40607
2.2113
1.99892
1.80166
1.6441
1.52191
1.42355
1.34591
1.28925
1.25407
1.24404
1.26624
1.32059
1.38771
1.44088
1.4516
1.39613
1.26042
1.04194
0.748459
0.395245
0.00275919
-0.443604
-0.597646
0
1.62409
4.19745
7.23081
9.96428
11.6415
11.7804
10.3314
7.68853
4.56079
1.74039
-0.162548
-0.925951
-0.76087
-0.407009
-0.187346
0.000564146
0.16317
0.309427
0.497281
0.842702
1.27572
1.61167
1.67635
1.41516
0.928431
0.41874
0.0899447
0.0552116
0.127978
0.225079
0.332934
0.44429
0.553933
0.659553
0.760566
0.857122
0.949211
1.03542
1.11167
1.17151
1.20749
1.21511
1.19678
1.16366
1.13439
1.13076
1.17199
1.263
1.39314
1.55882
1.75463
1.97294
2.20411
2.43966
2.67211
2.89506
3.10403
3.29677
3.4732
3.63383
3.7757
3.89651
3.99425
4.06112
4.08716
4.06569
3.99698
3.88788
3.7482
3.58618
3.40843
3.22058
3.02534
2.82447
2.6206
2.41772
2.22101
2.03643
1.86953
1.7247
1.60521
1.51193
1.44224
1.39152
1.35399
1.32375
1.29552
1.26522
1.23035
1.19007
1.1455
1.09943
1.05642
1.02241
1.00343
1.0053
1.03875
1.0978
1.1694
1.23733
1.28696
1.30887
1.30004
1.26316
1.20537
1.13739
1.07187
1.01927
0.990018
1.01152
1.12814
1.31977
1.52667
1.68303
1.74416
1.702
1.58485
1.44492
1.33932
1.309
1.33739
1.39429
1.46423
1.53354
1.58979
1.62424
1.63314
1.61768
1.58271
1.53496
1.48139
1.42818
1.37931
1.33793
1.30705
1.28941
1.28771
1.30509
1.34514
1.40886
1.48513
1.55184
1.58567
1.56925
1.49769
1.38185
1.24629
1.12196
1.0362
0.997193
0.991245
1.01279
1.05676
1.11709
1.18761
1.26272
1.33882
1.41318
1.48367
1.54864
1.60688
1.65767
1.70066
1.73574
1.76289
1.78172
1.79145
1.79123
1.78004
1.75703
1.72193
1.67539
1.6191
1.55572
1.4885
1.42086
1.35566
1.2949
1.23964
1.18976
1.14405
1.10029
1.05544
1.00609
0.948771
0.880358
0.797829
0.697767
0.573856
0.419138
0.24079
0.0491184
-0.211012
0
1.16112
3.45833
6.53393
9.53914
11.4993
11.7771
10.3568
7.80112
4.94117
2.50228
0.861264
0.0191382
-0.259652
-0.205177
-0.149172
-0.0952121
-0.0454927
-0.0014729
0.0365966
0.0698202
0.100359
0.130701
0.163081
0.197835
0.230302
0.252893
0.258708
0.245615
0.218766
0.190165
0.175299
0.188173
0.233531
0.303592
0.393441
0.497441
0.607184
0.713234
0.80568
0.875984
0.919644
0.9361
0.92918
0.90727
0.882921
0.871645
0.889864
0.952366
1.06567
1.22524
1.4273
1.66788
1.93953
2.24072
2.55629
2.85285
3.09933
3.27481
3.37456
3.4113
3.41038
3.40048
3.40339
3.42606
3.4602
3.49468
3.5152
3.5077
3.4609
3.36799
3.22763
3.04451
2.83023
2.60036
2.37095
2.15569
1.96162
1.79149
1.64806
1.53013
1.43438
1.35662
1.29279
1.23965
1.19481
1.15685
1.12412
1.09422
1.06469
1.0337
1.00072
0.966871
0.934608
0.906859
0.886113
0.873046
0.867308
0.868608
0.87634
0.889763
0.90798
0.930088
0.954286
0.977931
0.998148
1.01246
1.01938
1.01867
1.01121
0.998539
0.982361
0.964502
0.946693
0.93096
0.919968
0.916715
0.924019
0.943695
0.975979
1.01939
1.06973
1.12183
1.17089
1.21358
1.24858
1.27624
1.29786
1.31468
1.32764
1.33664
1.3411
1.34034
1.33404
1.32244
1.30635
1.28691
1.26543
1.24303
1.22055
1.19856
1.17753
1.15799
1.1407
1.1267
1.11734
1.11407
1.11824
1.13073
1.1517
1.18065
1.21616
1.25508
1.29304
1.32601
1.35144
1.3691
1.38149
1.39349
1.4114
1.44167
1.48918
1.55523
1.64081
1.74853
1.88025
2.03049
2.1791
2.29999
2.36784
2.3642
2.2833
2.13497
1.94282
1.73766
1.54866
1.38911
1.25515
1.14173
1.04772
0.973674
0.919981
0.887289
0.87855
0.899899
0.952442
1.01835
1.07049
1.07961
1.02194
0.885677
0.673909
0.403439
0.0999867
-0.231821
0
1.0207
2.94875
5.6042
8.46191
10.7697
11.82
11.255
9.237
6.37745
3.4604
1.12163
-0.342207
-0.968974
-0.938487
-0.644996
-0.355341
-0.082845
0.157554
0.352608
0.492493
0.573086
0.598125
0.579878
0.537329
0.491757
0.461001
0.454681
0.46733
0.490134
0.517712
0.545466
0.570017
0.589857
0.605482
0.619056
0.633711
0.652587
0.678203
0.711891
0.753512
0.802021
0.855854
0.913648
0.975111
1.04151
1.11568
1.20153
1.30308
1.42344
1.56387
1.72272
1.89635
2.08045
2.27044
2.46225
2.65303
2.84149
3.02779
3.21302
3.39878
3.5862
3.76967
3.93423
4.0601
4.12947
4.13235
4.06872
3.94663
3.77828
3.57647
3.35543
3.12718
2.89878
2.67473
2.45838
2.25258
2.05984
1.882
1.72021
1.57497
1.44613
1.333
1.23456
1.14961
1.07619
1.01258
0.957717
0.911587
0.875234
0.850322
0.838458
0.844192
0.867695
0.901565
0.935884
0.961586
0.97356
0.97195
0.961126
0.947076
0.934712
0.925808
0.92008
0.917038
0.916051
0.916724
0.918984
0.923035
0.929278
0.938277
0.951322
0.970592
1.00501
1.10214
1.38147
1.79562
2.18795
2.3624
2.19619
1.7265
1.14907
0.722139
0.627924
0.731247
0.871586
1.02551
1.18041
1.3263
1.45281
1.55082
1.61439
1.63897
1.62319
1.57121
1.49379
1.407
1.32875
1.27445
1.24756
1.24315
1.26018
1.2958
1.34546
1.40397
1.46516
1.52331
1.57408
1.61526
1.6472
1.67281
1.69711
1.72631
1.76679
1.83222
1.94352
2.08545
2.2172
2.29085
2.27163
2.15461
1.96768
1.75808
1.57062
1.43192
1.32646
1.24071
1.17341
1.12507
1.09936
1.10356
1.14065
1.20054
1.26529
1.31351
1.32477
1.28353
1.18167
1.01961
0.806084
0.556466
0.0947154
0
0.817063
2.76196
5.58462
8.58963
10.891
11.77
10.9591
8.72722
5.75203
2.84847
0.673931
-0.472613
-0.685127
-0.343008
-0.142893
0.0343419
0.179038
0.289011
0.378337
0.453721
0.522546
0.591142
0.663276
0.73971
0.819628
0.901039
0.981822
1.06064
1.13742
1.21334
1.29028
1.37072
1.45482
1.53478
1.59742
1.62891
1.62075
1.5743
1.50201
1.42504
1.36839
1.35341
1.38124
1.44649
1.54851
1.68433
1.84784
2.03078
2.22407
2.41936
2.61068
2.79476
2.97121
3.14214
3.31145
3.48363
3.66264
3.85088
4.04956
4.25799
4.46858
4.66716
4.83843
4.96904
5.04952
5.07459
5.04244
4.95344
4.80947
4.61415
4.37836
4.11378
3.83125
3.54178
3.25566
2.98071
2.72378
2.49051
2.2848
2.1088
1.96292
1.84605
1.75606
1.69104
1.64801
1.62053
1.60174
1.58534
1.56637
1.54201
1.51196
1.47841
1.44556
1.41884
1.40284
1.4011
1.4162
1.45253
1.51203
1.58533
1.65805
1.71647
1.75198
1.76396
1.7598
1.75203
1.75378
1.77433
1.81265
1.86311
1.9211
1.98199
2.04024
2.09002
2.12698
2.14845
2.15363
2.14343
2.12012
2.08681
2.04691
2.00386
1.96109
1.92155
1.88865
1.86556
1.85485
1.85779
1.87574
1.90571
1.94134
1.97551
2.00255
2.02007
2.02977
2.03701
2.04935
2.07462
2.11733
2.17811
2.25731
2.35816
2.47977
2.6072
2.72098
2.80285
2.84021
2.82876
2.77222
2.67957
2.56183
2.42993
2.29518
2.16456
2.04297
1.93497
1.8443
1.77306
1.72151
1.68743
1.6662
1.65162
1.63651
1.61332
1.57457
1.51314
1.42258
1.29744
1.13479
0.931515
0.674118
0.372098
0
-0.416749
0.0326782
1.74328
4.63288
8.03897
10.935
12.3777
11.9342
9.85175
6.88987
3.94133
1.66632
0.314036
-0.230183
-0.261006
-0.0965895
0.0514868
0.189395
0.313814
0.422802
0.517818
0.600542
0.672246
0.734339
0.788157
0.834818
0.87517
0.909875
0.939589
0.965148
0.987697
1.0087
1.02984
1.05279
1.07895
1.10917
1.14358
1.18156
1.22155
1.26117
1.29799
1.33017
1.357
1.3794
1.40001
1.42294
1.4533
1.49623
1.55571
1.63472
1.73493
1.85644
1.99792
2.15715
2.33169
2.51898
2.71632
2.92049
3.12739
3.33094
3.5227
3.69344
3.83454
3.93944
4.00453
4.02914
4.01489
3.9646
3.88156
3.77217
3.64188
3.49515
3.33699
3.1732
3.00975
2.85201
2.70393
2.56714
2.44091
2.32261
2.20855
2.0952
1.98027
1.86339
1.74671
1.63593
1.53842
1.46126
1.40929
1.38391
1.38286
1.40107
1.43201
1.46911
1.50667
1.54096
1.56836
1.586
1.59198
1.5856
1.56784
1.54181
1.5127
1.48708
1.47172
1.47217
1.49017
1.52611
1.57796
1.64174
1.71228
1.78386
1.85104
1.90824
1.95065
1.97473
1.97827
1.96071
1.92352
1.87043
1.8074
1.74212
1.68322
1.63849
1.61313
1.61447
1.6562
1.74377
1.85487
1.95985
2.03101
2.05104
2.0179
1.94461
1.85447
1.77348
1.72277
1.70434
1.71125
1.73735
1.77844
1.83125
1.89242
1.95886
2.02698
2.09181
2.14823
2.1918
2.21972
2.23147
2.22875
2.21459
2.19191
2.16229
2.12598
2.08229
2.03093
1.9735
1.91401
1.85828
1.81247
1.78121
1.76414
1.75945
1.76372
1.77209
1.77923
1.78022
1.77109
1.749
1.71208
1.65912
1.58945
1.50197
1.3843
1.18741
0.850127
0.411689
-0.0638646
-0.395552
0
1.37052
3.69876
6.56547
9.25383
11.0145
11.3646
10.2689
8.12343
5.56234
3.19847
1.4239
0.34481
-0.155417
-0.160941
-0.0778613
0.0209492
0.13642
0.267956
0.413577
0.569452
0.731811
0.894186
1.0429
1.16094
1.23111
1.24131
1.19006
1.08957
0.964224
0.844185
0.756543
0.710714
0.696155
0.702655
0.725135
0.759528
0.801457
0.846671
0.892353
0.937549
0.983229
1.03191
1.08695
1.15156
1.22798
1.31673
1.4162
1.52465
1.64003
1.76089
1.88737
2.02151
2.16673
2.32675
2.50406
2.69856
2.90662
3.1214
3.33265
3.52894
3.69961
3.83632
3.93373
3.98941
4.00319
3.97629
3.91077
3.81168
3.68333
3.53031
3.35844
3.1745
2.98551
2.79782
2.61635
2.44424
2.28303
2.13326
1.9959
1.87449
1.77186
1.69147
1.63603
1.60588
1.59813
1.60676
1.62388
1.64147
1.65315
1.65492
1.64531
1.62494
1.59581
1.56126
1.52452
1.4886
1.45659
1.4314
1.41552
1.41146
1.42081
1.44011
1.46038
1.47167
1.46677
1.44435
1.41036
1.37683
1.35828
1.36699
1.40585
1.46755
1.54788
1.63689
1.72332
1.79698
1.85064
1.88106
1.88891
1.8781
1.85449
1.82466
1.79468
1.7689
1.74999
1.73931
1.73716
1.74319
1.75639
1.77521
1.79779
1.82176
1.84388
1.86096
1.87052
1.87156
1.86494
1.85351
1.84155
1.83393
1.83511
1.8473
1.87097
1.9065
1.95356
2.01116
2.07795
2.15258
2.23378
2.32046
2.41182
2.50727
2.60654
2.70923
2.81166
2.90403
2.97203
2.9999
2.97525
2.89376
2.76198
2.59709
2.42344
2.26664
2.1395
2.04272
1.98607
1.96417
1.96662
1.98205
2.00163
2.02066
2.03765
2.05159
2.05901
2.05369
2.00288
1.7092
1.17828
0.52128
-0.154417
0
1.20649
3.46735
6.39942
9.32419
11.5081
12.4423
12.0052
10.4397
8.19455
5.74577
3.48897
1.70272
0.542469
0.0365107
0.241065
0.469562
0.686131
0.872381
1.01451
1.10981
1.17577
1.2185
1.24119
1.24764
1.24213
1.22948
1.21498
1.20413
1.2021
1.21291
1.23844
1.2792
1.33361
1.39691
1.46003
1.51153
1.54117
1.54214
1.51291
1.45821
1.38878
1.3195
1.26639
1.24316
1.25289
1.29148
1.35686
1.44774
1.56233
1.69883
1.85522
2.03036
2.22295
2.43076
2.6501
2.87602
3.10175
3.31968
3.52225
3.70164
3.84978
3.96192
4.03809
4.08038
4.09209
4.07686
4.0376
3.97549
3.88925
3.77523
3.63113
3.45593
3.24874
3.01254
2.7546
2.48592
2.21965
1.96799
1.73982
1.54261
1.38052
1.25435
1.16203
1.09926
1.0604
1.0393
1.03009
1.02779
1.02859
1.03009
1.03105
1.0311
1.03033
1.0288
1.02625
1.02181
1.014
1.00087
0.980285
0.950446
0.91038
0.860281
0.800436
0.735166
0.673995
0.627493
0.604513
0.609728
0.642461
0.697245
0.765769
0.839195
0.909998
0.973919
1.0255
1.0608
1.07649
1.07055
1.04313
0.997244
0.938732
0.875232
0.814505
0.762437
0.720676
0.690044
0.669389
0.656838
0.650917
0.651334
0.659123
0.676092
0.70376
0.743133
0.793388
0.847343
0.895205
0.927273
0.936727
0.921497
0.884651
0.833382
0.777176
0.725914
0.686333
0.661659
0.654853
0.667833
0.700714
0.751696
0.817158
0.892011
0.970303
1.04596
1.1137
1.16925
1.20968
1.23359
1.24088
1.23254
1.21033
1.17653
1.13355
1.0836
1.02829
0.968397
0.903249
0.831592
0.75198
0.663648
0.567414
0.465876
0.364257
0.268928
0.1859
0.119377
0.0708715
0.039183
0.0211323
0.012701
0.00980682
0.00950267
0.0101846
0.0110333
0.0115014
0
0.329948
1.40363
3.41673
6.11383
8.77965
10.5191
10.6827
9.19006
6.55999
3.64164
1.21427
-0.314051
-0.968008
-1.04521
-0.865521
-0.692493
-0.535468
-0.404084
-0.307262
-0.250945
-0.235324
-0.252993
-0.289061
-0.323473
-0.333075
-0.237075
0.0307925
0.377832
0.667693
0.782067
0.67529
0.401229
0.0931308
-0.102304
-0.108209
-0.018078
0.0919562
0.205038
0.314823
0.419868
0.523085
0.629762
0.748568
0.88447
1.02327
1.14151
1.21921
1.25239
1.25844
1.27133
1.32893
1.45844
1.65321
1.88473
2.1368
2.39947
2.66316
2.91859
3.15526
3.36316
3.53663
3.67255
3.77024
3.83125
3.85863
3.85586
3.82568
3.76908
3.68665
3.57941
3.44628
3.28581
3.09809
2.88529
2.65182
2.4041
2.15005
1.89806
1.6566
1.43353
1.23565
1.06826
0.936529
0.847424
0.80748
0.814205
0.849759
0.892233
0.922012
0.926274
0.901553
0.853591
0.79463
0.739214
0.700087
0.682073
0.683497
0.702225
0.737845
0.793409
0.881339
1.03507
1.28131
1.56866
1.81552
1.94176
1.90484
1.72065
1.45867
1.21634
1.08619
1.09592
1.17738
1.28964
1.42251
1.56189
1.69087
1.79475
1.86366
1.89416
1.88893
1.85503
1.80135
1.73639
1.66774
1.60035
1.53784
1.48423
1.44381
1.4209
1.4206
1.45484
1.53624
1.65331
1.77611
1.87224
1.91821
1.90771
1.85356
1.78282
1.72707
1.71181
1.7386
1.79391
1.86731
1.95217
2.04291
2.13405
2.22106
2.30102
2.37289
2.43742
2.4967
2.55347
2.61025
2.66863
2.72779
2.78142
2.81811
2.82415
2.78735
2.70112
2.56723
2.39665
2.20782
2.023
1.86214
1.73204
1.64077
1.6065
1.64595
1.74969
1.87117
1.95877
1.96502
1.85463
1.61119
1.24117
0.772835
0.213649
0
0.761195
2.72376
5.6464
8.81725
11.3074
12.3591
11.7036
9.64937
6.90998
4.28031
2.32834
1.239
0.853202
0.845358
0.913434
0.983389
1.0541
1.12477
1.19399
1.26008
1.3215
1.3775
1.42848
1.47621
1.52345
1.5733
1.62896
1.69311
1.76334
1.83081
1.88469
1.91659
1.92441
1.91394
1.89737
1.88923
1.90155
1.938
1.99265
2.059
2.1322
2.20789
2.28205
2.35121
2.413
2.46688
2.51409
2.5576
2.60208
2.65353
2.71852
2.80319
2.91202
3.04616
3.20264
3.3769
3.56325
3.75512
3.9452
4.12686
4.29494
4.44593
4.57639
4.67894
4.74842
4.78166
4.77481
4.72497
4.63205
4.49966
4.33443
4.1441
3.93534
3.71532
3.48842
3.2568
3.02321
2.79168
2.56841
2.36166
2.17947
2.02872
1.91378
1.83568
1.79197
1.77734
1.78468
1.80633
1.83495
1.86474
1.8918
1.91365
1.92903
1.93777
1.94054
1.93865
1.9338
1.92788
1.92283
1.9205
1.92241
1.92981
1.94346
1.9635
1.98961
2.01968
2.04786
2.06665
2.06963
2.05426
2.02393
1.98807
1.95991
1.95243
1.97403
2.02099
2.08715
2.16407
2.24156
2.30989
2.36241
2.39456
2.40437
2.3921
2.35981
2.31227
2.25384
2.18975
2.12565
2.06695
2.0181
1.98198
1.95954
1.94983
1.95051
1.95832
1.96959
1.98055
1.98686
1.98455
1.97042
1.94259
1.9012
1.84868
1.78963
1.73011
1.67673
1.63476
1.60847
1.60084
1.61289
1.64346
1.69272
1.75428
1.81958
1.8809
1.9335
1.97696
2.01487
2.05305
2.09713
2.15037
2.21098
2.27581
2.34132
2.40277
2.4533
2.48561
2.4939
2.47415
2.42534
2.35015
2.25499
2.14872
2.04067
1.93843
1.84525
1.76264
1.69078
1.62956
1.57946
1.54162
1.51746
1.51151
1.5175
1.51729
1.48539
1.39489
1.13674
0.720961
0.211148
-0.323167
0
1.4413
3.88369
6.80974
9.48455
11.2197
11.5996
10.588
8.50435
5.90356
3.40192
1.50279
0.470082
0.283772
0.679961
0.957249
1.15428
1.23693
1.20508
1.0935
0.956451
0.845475
0.792525
0.78062
0.790662
0.81533
0.851498
0.894138
0.936523
0.972884
0.999434
1.01517
1.02205
1.02441
1.02758
1.03629
1.05306
1.07684
1.10598
1.13805
1.17019
1.20051
1.22895
1.25759
1.29037
1.33224
1.38812
1.46184
1.55551
1.66789
1.79666
1.94016
2.09692
2.26532
2.44358
2.62939
2.81965
3.0104
3.19691
3.37409
3.53722
3.68243
3.80696
3.90888
3.98549
4.03462
4.05548
4.04692
4.00768
3.93683
3.83436
3.70165
3.54172
3.35925
3.16101
2.95493
2.74819
2.54774
2.36
2.19038
2.0437
1.92331
1.82769
1.75202
1.69021
1.6366
1.58735
1.54124
1.4995
1.46494
1.4405
1.42705
1.42516
1.43284
1.4451
1.45617
1.46115
1.45743
1.44545
1.42868
1.41272
1.40405
1.40818
1.42738
1.46219
1.51454
1.5837
1.66163
1.73475
1.78916
1.81385
1.80362
1.76076
1.69496
1.62146
1.55787
1.51894
1.50949
1.52768
1.57
1.63585
1.72075
1.81441
1.90414
1.97834
2.02827
2.04917
2.04045
2.00536
1.95017
1.88325
1.81434
1.75233
1.70402
1.6744
1.66715
1.6911
1.75507
1.84848
1.94533
2.01798
2.04576
2.02131
1.95201
1.85649
1.7581
1.67842
1.62635
1.59869
1.59248
1.60699
1.64225
1.69622
1.76188
1.82867
1.88658
1.92843
1.95169
1.95905
1.95751
1.95634
1.96442
1.9876
2.02589
2.07603
2.1344
2.19737
2.26095
2.32115
2.3744
2.41765
2.44828
2.46351
2.46119
2.43995
2.39924
2.33964
2.26309
2.17289
2.0735
1.96999
1.86759
1.77074
1.68275
1.60624
1.54269
1.49184
1.45164
1.41868
1.38498
1.34011
1.27002
1.11232
0.862734
0.547732
-0.0662622
0
1.22519
3.61931
6.67449
9.55693
11.4528
11.8866
10.8644
8.80587
6.33342
4.03077
2.27287
1.17211
0.629868
0.44838
0.433294
0.432999
0.449392
0.488767
0.555039
0.648659
0.765878
0.902668
1.04411
1.16984
1.2612
1.30572
1.29984
1.24902
1.16533
1.06386
0.959424
0.863894
0.783023
0.724389
0.694362
0.697587
0.735601
0.805556
0.903643
1.01627
1.12864
1.22912
1.31259
1.38111
1.44176
1.50282
1.57041
1.64631
1.73132
1.82723
1.93867
2.07355
2.24142
2.45017
2.7022
3.0143
3.35494
3.67562
3.93055
4.09287
4.16178
4.15816
4.11226
4.0504
3.98702
3.92353
3.85764
3.78566
3.70325
3.60603
3.49003
3.35294
3.19464
3.01578
2.81922
2.61011
2.39542
2.18323
1.98144
1.7972
1.63604
1.50144
1.39472
1.31522
1.2611
1.22952
1.21548
1.21138
1.20807
1.19629
1.16768
1.11588
1.03764
0.924417
0.771634
0.608702
0.473415
0.400087
0.407799
0.493964
0.636496
0.80356
0.965713
1.10577
1.22757
1.33107
1.41354
1.47356
1.5096
1.52078
1.50807
1.47489
1.42702
1.37158
1.31563
1.26458
1.22103
1.18597
1.16043
1.14527
1.14121
1.14876
1.16823
1.19998
1.24238
1.29109
1.33966
1.3806
1.40669
1.41278
1.39703
1.36177
1.31376
1.26347
1.22333
1.20514
1.2173
1.2603
1.33013
1.41938
1.51793
1.61528
1.70276
1.77468
1.82851
1.86421
1.88209
1.88444
1.87417
1.85538
1.834
1.81795
1.81621
1.84455
1.93014
2.05812
2.19341
2.29511
2.33382
2.30209
2.21356
2.09326
1.96575
1.84711
1.73882
1.63875
1.54598
1.46038
1.38208
1.31107
1.24689
1.18829
1.13144
1.06921
0.992908
0.894057
0.760897
0.590435
0.387186
0.0288328
0
0.820084
2.66219
5.33282
8.26167
10.6732
11.8659
11.4748
9.59771
6.7432
3.64087
1.00083
-0.689593
-1.27839
-0.934017
-0.268125
0.298016
0.673166
0.813085
0.843335
0.809303
0.742501
0.674434
0.63155
0.62128
0.640435
0.706604
0.849815
1.05449
1.26336
1.41305
1.45734
1.38684
1.23481
1.06373
0.936973
0.890664
0.900101
0.934928
0.986943
1.05414
1.13649
1.23496
1.34973
1.48237
1.62547
1.7659
1.89114
1.99495
2.08106
2.16279
2.25874
2.38629
2.55563
2.75871
2.98363
3.22234
3.46801
3.71451
3.95635
4.18798
4.40331
4.59548
4.75679
4.87731
4.94481
4.94881
4.88449
4.75492
4.57078
4.34766
4.10217
3.84918
3.59708
3.34907
3.10675
2.87203
2.64702
2.43411
2.23592
2.05517
1.89447
1.75604
1.64139
1.55111
1.48463
1.44114
1.42034
1.41872
1.42545
1.42932
1.42145
1.39777
1.36031
1.31661
1.27718
1.25202
1.24742
1.26028
1.28796
1.32748
1.37538
1.42828
1.48368
1.5398
1.5946
1.64507
1.68773
1.71917
1.73733
1.74267
1.73857
1.73065
1.72519
1.72723
1.73838
1.75686
1.78054
1.80687
1.8333
1.85796
1.87988
1.89887
1.91502
1.92792
1.93576
1.93578
1.92456
1.89949
1.86037
1.81078
1.7583
1.71365
1.69329
1.74543
1.91017
2.13427
2.33296
2.43014
2.39133
2.23582
2.02434
1.83045
1.71199
1.67504
1.68499
1.72353
1.78492
1.86632
1.96459
2.07554
2.19076
2.30011
2.39401
2.46504
2.50907
2.52566
2.51759
2.48983
2.44831
2.39923
2.34746
2.29608
2.24674
2.19981
2.15446
2.10844
2.0583
2.00015
1.93057
1.84752
1.75092
1.64272
1.52636
1.4057
1.2838
1.16188
1.03912
0.912913
0.779422
0.631379
0.465434
0.281566
0.0183191
0
0.730695
2.44629
5.04903
8.03649
10.6209
12.0123
11.7453
9.88735
7.01654
3.97934
1.54834
0.147981
-0.233552
0.0656551
0.288632
0.489141
0.649903
0.762103
0.839608
0.89066
0.920818
0.936337
0.943268
0.946404
0.948557
0.9509
0.952761
0.951995
0.94616
0.933752
0.915127
0.892753
0.870722
0.853705
0.845804
0.848629
0.861935
0.885992
0.920691
0.965782
1.02127
1.08734
1.16395
1.25109
1.34931
1.45378
1.55489
1.6434
1.71443
1.77056
1.82226
1.88542
1.9765
2.10738
2.27427
2.46587
2.67414
2.89107
3.10667
3.31006
3.49178
3.6448
3.76471
3.84933
3.89776
3.90617
3.87353
3.7987
3.68155
3.52456
3.3341
3.12059
2.89722
2.67751
2.47263
2.29284
2.13695
1.99711
1.86287
1.7256
1.58131
1.43076
1.27748
1.12504
0.975042
0.827985
0.686445
0.55529
0.442887
0.359635
0.314102
0.30928
0.34085
0.398163
0.467293
0.534707
0.592563
0.638849
0.67246
0.693481
0.703495
0.705154
0.701677
0.696334
0.691972
0.690618
0.693325
0.700368
0.711315
0.725393
0.741815
0.759985
0.779545
0.800247
0.821761
0.843501
0.86459
0.883959
0.900563
0.913605
0.922688
0.927833
0.929382
0.927838
0.923723
0.917625
0.910237
0.902462
0.895432
0.890352
0.888202
0.889769
0.894262
0.898257
0.897249
0.88732
0.866772
0.836944
0.801727
0.766006
0.733799
0.706746
0.684198
0.665301
0.649387
0.636714
0.628613
0.626997
0.633473
0.648391
0.671737
0.700847
0.732819
0.766106
0.801664
0.843004
0.894916
0.961235
1.04834
1.14791
1.24396
1.31852
1.35823
1.35869
1.32425
1.264
1.18675
1.09798
1.00283
0.903768
0.802982
0.704061
0.611884
0.531895
0.4687
0.424179
0.401422
0.402916
0.423732
0.451816
0.474137
0.479652
0.461405
0.417184
0.348741
0.260156
0.156203
0.0425627
-0.0763636
-0.198052
-0.385692
0
1.3353
3.63887
6.47345
9.07738
10.6817
10.8373
9.58238
7.37701
4.86765
2.6204
0.953734
-0.0734674
-0.560336
-0.458474
-0.337579
-0.223764
-0.130253
-0.066535
-0.0345373
-0.0275698
-0.0328792
-0.0369113
-0.0308522
-0.014608
0.00615129
0.0249688
0.0362418
0.0372881
0.0287632
0.0135441
-0.00499811
-0.0242092
-0.0423706
-0.0577024
-0.0674906
-0.0678444
-0.0542778
-0.0229918
0.0276607
0.0951552
0.174768
0.260593
0.3462
0.426132
0.497091
0.558691
0.613638
0.667399
0.727438
0.802181
0.899814
1.02703
1.18787
1.38228
1.60525
1.84985
2.10969
2.37291
2.62054
2.83477
3.00213
3.11541
3.17416
3.18345
3.15161
3.0875
2.99845
2.89217
2.77324
2.64326
2.50246
2.35065
2.18792
2.01484
1.8326
1.64347
1.45101
1.26006
1.07659
0.907476
0.758901
0.635602
0.543364
0.485963
0.457911
0.450849
0.45583
0.46542
0.474858
0.48195
0.48603
0.486643
0.482994
0.47418
0.46023
0.443137
0.427097
0.417605
0.41972
0.436286
0.465126
0.502655
0.545379
0.589518
0.631821
0.669934
0.702428
0.728625
0.748403
0.761953
0.769769
0.77281
0.772675
0.771716
0.77298
0.779914
0.796071
0.825391
0.871548
0.937915
1.0269
1.13211
1.23061
1.29571
1.30425
1.24569
1.12985
0.988186
0.865307
0.802623
0.820565
0.885462
0.973266
1.07058
1.16389
1.24201
1.29771
1.32832
1.33531
1.32332
1.29905
1.27039
1.24485
1.23004
1.23259
1.2576
1.30769
1.38267
1.48348
1.59926
1.71597
1.81952
1.89868
1.94686
1.96231
1.94706
1.90544
1.84345
1.76858
1.68508
1.59611
1.50438
1.41219
1.32144
1.23367
1.15035
1.0726
1.00098
0.935191
0.873624
0.813314
0.750284
0.680099
0.598461
0.499197
0.376213
0.23164
0.0709785
-0.128462
0
0.795419
2.48025
4.98533
7.84372
10.2827
11.5132
11.0886
9.13049
6.27835
3.38431
1.13163
-0.200443
-0.717452
-0.681634
-0.419184
-0.168657
0.0534897
0.235217
0.372277
0.4808
0.572349
0.648524
0.709223
0.75447
0.78293
0.793957
0.789759
0.7765
0.763605
0.761344
0.777652
0.813809
0.865693
0.927715
0.992135
1.05079
1.09664
1.12492
1.1337
1.1241
1.1003
1.0695
1.04085
1.02496
1.03269
1.07357
1.15255
1.26942
1.4235
1.61101
1.82586
2.06057
2.30696
2.55817
2.80846
3.0527
3.28603
3.50474
3.70588
3.88598
4.03952
4.15922
4.24173
4.28498
4.28748
4.24936
4.17315
4.06358
3.92598
3.76394
3.57769
3.36923
3.14174
2.89658
2.63638
2.36705
2.09748
1.83867
1.60158
1.40162
1.25202
1.15071
1.08899
1.05521
1.03842
1.03045
1.02592
1.02074
1.01046
0.990312
0.956745
0.909668
0.85385
0.798294
0.753653
0.728804
0.724757
0.737873
0.765616
0.803882
0.847978
0.893413
0.93681
0.976002
1.01025
1.04025
1.06789
1.09578
1.12661
1.16226
1.20416
1.25052
1.29532
1.3308
1.3499
1.34855
1.32695
1.28948
1.24338
1.19698
1.15758
1.12896
1.11301
1.11141
1.12572
1.15799
1.21098
1.28313
1.36104
1.42781
1.46874
1.47672
1.45563
1.41984
1.3898
1.38538
1.41995
1.48701
1.57601
1.68472
1.81185
1.95028
2.08127
2.18178
2.22879
2.20585
2.11003
1.95498
1.76731
1.57788
1.41219
1.2749
1.15876
1.05997
0.977882
0.91148
0.859747
0.820648
0.79021
0.763919
0.737197
0.705969
0.667142
0.61888
0.560615
0.492848
0.417028
0.33409
0.0581177
0
0.703117
2.47982
5.16566
8.07823
10.2799
11.0016
9.99128
7.60845
4.63677
1.93413
0.101969
-0.6844
-0.639303
-0.315026
-0.124082
0.0392117
0.170412
0.270662
0.35075
0.414452
0.465515
0.507518
0.543568
0.575835
0.605712
0.634041
0.661351
0.688055
0.714578
0.74136
0.76877
0.796949
0.825689
0.854337
0.881867
0.90717
0.929417
0.948404
0.964771
0.980026
0.996394
1.01656
1.04341
1.07951
1.12721
1.18883
1.26639
1.36138
1.47453
1.60564
1.75349
1.91592
2.09019
2.2734
2.46298
2.65712
2.85497
3.05669
3.2636
3.47967
3.71604
3.98621
4.26592
4.50683
4.65383
4.67001
4.5546
4.34139
4.07842
3.80424
3.53907
3.28649
3.04532
2.81554
2.59846
2.39587
2.2087
2.03688
1.87967
1.73619
1.60587
1.48874
1.38549
1.29735
1.22568
1.17075
1.13191
1.10744
1.09464
1.09018
1.09066
1.09119
1.08734
1.0763
1.05767
1.03392
1.00998
0.992094
0.986249
0.996685
1.02261
1.06346
1.11703
1.17993
1.24809
1.31689
1.37963
1.42963
1.46157
1.473
1.46563
1.44547
1.42158
1.40361
1.39922
1.41052
1.43447
1.46827
1.5091
1.55355
1.59806
1.63846
1.67031
1.68978
1.69403
1.68193
1.6548
1.61666
1.57394
1.53426
1.50499
1.49061
1.49244
1.51036
1.54243
1.58337
1.62757
1.67064
1.71048
1.74744
1.78388
1.8231
1.8684
1.92195
1.98427
2.05577
2.1371
2.23016
2.3375
2.45303
2.55566
2.61683
2.6092
2.51768
2.3478
2.12663
1.89535
1.69554
1.54724
1.43588
1.35965
1.31065
1.27814
1.25133
1.22154
1.18291
1.1318
1.06538
0.980468
0.875122
0.744942
0.583199
0.394845
0.191165
0
0.588437
2.18053
4.61262
7.34057
9.63201
10.8533
10.7118
9.34406
7.21867
4.92435
2.95377
1.5742
0.813843
0.534543
0.629396
0.730525
0.832114
0.931069
1.02209
1.09921
1.15694
1.19182
1.2037
1.19618
1.1761
1.15201
1.13213
1.12179
1.12205
1.13268
1.14865
1.16363
1.17242
1.17297
1.1671
1.15968
1.15668
1.16305
1.1807
1.20797
1.24423
1.28916
1.34311
1.40722
1.48301
1.57163
1.67322
1.78583
1.90719
2.03506
2.16772
2.30481
2.44777
2.59966
2.7644
2.9456
3.14531
3.3688
3.61601
3.87036
4.10453
4.2924
4.41575
4.46758
4.45193
4.38091
4.27049
4.13622
3.99035
3.84059
3.69003
3.5397
3.39013
3.24197
3.09619
2.95403
2.8168
2.68564
2.56134
2.444
2.33293
2.22734
2.12711
2.03437
1.95257
1.88664
1.84168
1.82114
1.8252
1.85018
1.88892
1.93231
1.97107
1.99884
2.01149
2.00652
1.98343
1.94348
1.88949
1.82589
1.75791
1.69275
1.63948
1.60746
1.6049
1.63725
1.71887
1.86366
2.04121
2.20832
2.3253
2.36926
2.34137
2.26552
142
333
514
696
890
1085
1267
1441
1621
1803
1990
2170
2363
2559
2740
2924
3116
3296
3466
3641
3052
3195
3339
3485
3635
3706
0
0
0
0
0
0
0
0
0
0
0
0
0
0
0
0
0
0
0
0
0
0
0
0
0
0
0
0
0
0
0
0
0
0
0
0
0
0
0
0
0
0
0
0
0
0
0
0
0
0
0
0
0
0
0
0
0
0
0
0
0
0
0
0
0
0
0
0
0
0
0
0
0
0
0
0
0
0
0
0
0
0
0
0
0
0
0
0
0
0
0
0
0
0
0
0
0
0
0
0
0
0
0
0
0
0
0
0
0
0
0
0
0
0
0
0
0
0
0
0
0
0
0
0
0
0
0
0
0
0
0
0
0
0
0
0
0
0
0
0
0
0
0
0
0
0
0
0
0
0
0
0
0
0
0
0
0
0
0
0
0
0
0
0
0
0
0
0
0
0
0
0
0
0
0
0
0
0
0
0
0
0
0
0
0
0
0
0
0
0
0
0
0
0
0
0
0
0
0
0
0
0
0
0
0
0
0
0
0
0
0
0
0
0
0
0
0
0
0
0
0
0
0
0
0
0
0
0
0
0
0
0
0
0
0
0
0
0
0
0
0
0
0
0
0
0
0
0
0
0
0
0
0
0
0
0
0
0
0
0
0
0
0
0
0
0
0
0
0
0
0
0
0
0
0
0
0
0
0
0
0
0
0
0
0
0
0
0
0
0
0
0
0
0
0
0
0
0
0
0
0
0
0
0
0
0
0
0
0
0
0
0
0
0
0
0
0
0
0
0
0
0
0
0
0
0
0
0
0
0
0
0
0
0
0
0
0
0
0
0
0
0
0
0
0
0
0
0
0
0
0
0
0
0
0
0
0
0
0
0
0
0
0
0
0
0
0
0
0
0
0
0
0
0
0
0
0
0
0
0
0
0
0
0
0
0
0
0
0
0
0
0
0
0
0
0
0
0
0
0
0
0
0
0
0
0
0
0
0
0
0
0
0
0
0
0
0
0
0
0
0
0
0
0
0
0
0
0
0
0
0
0
0
0
0
0
0
0
0
0
0
0
0
0
0
0
0
0
0
0
0
0
0
0
0
0
0
0
0
0
0
0
0
0
0
0
0
0
0
0
0
0
0
0
0
0
0
0
0
0
0
0
0
0
0
0
0
0
0
0
0
0
0
0
0
0
0
0
0
0
0
0
0
0
0
0
0
0
0
0
0
0
0
0
0
0
0
0
0
0
0
0
0
0
0
0
0
0
0
0
0
0
0
0
0
0
0
0
0
0
0
0
0
0
0
0
0
0
0
0
0
0
0
0
0
0
0
0
0
0
0
0
0
0
0
0
0
0
0
0
0
0
0
0
0
0
0
0
0
0
0
0
0
0
0
0
0
0
0
0
0
0
0
0
0
0
0
0
0
0
0
0
0
0
0
0
0
0
0
0
0
0
0
0
0
0
0
0
0
0
0
0
0
0
0
0
0
0
0
0
0
0
0
0
0
0
0
0
0
0
0
0
0
0
0
0
0
0
0
0
0
0
0
0
0
0
0
0
0
0
0
0
0
0
0
0
0
0
0
0
0
0
0
0
0
0
0
0
0
0
0
0
0
0
0
0
0
0
0
0
0
0
0
0
0
0
0
0
0
0
0
0
0
0
0
0
0
0
0
0
0
0
0
0
0
0
0
0
0
0
0
0
0
0
0
0
0
0
0
0
0
0
0
0
0
0
0
0
0
0
0
0
0
0
0
0
0
0
0
0
0
0
0
0
0
0
0
0
0
0
0
0
0
0
0
0
0
0
0
0
0
0
0
0
0
0
0
0
0
0
0
0
0
0
0
0
0
0
0
0
0
0
0
0
0
0
0
0
0
0
0
0
0
0
0
0
0
0
0
0
0
0
0
0
0
0
0
0
0
0
0
0
0
0
0
0
0
0
0
0
0
0
0
0
0
0
0
0
0
0
0
0
0
0
0
0
0
0
0
0
0
0
0
0
0
0
0
0
0
0
0
0
0
0
0
0
0
0
0
0
0
0
0
0
0
0
0
0
0
0
0
0
0
0
0
0
0
0
0
0
0
0
0
0
0
0
0
0
0
0
0
0
0
0
0
0
0
0
0
0
0
0
0
0
0
0
0
0
0
0
0
0
0
0
0
0
0
0
0
0
0
0
0
0
0
0
0
0
0
0
0
0
0
0
0
0
0
0
0
0
0
0
0
0
0
0
0
0
0
0
0
0
0
0
0
0
0
0
0
0
0
0
0
0
0
0
0
0
0
0
0
0
0
0
0
0
0
0
0
0
0
0
0
0
0
0
0
0
0
0
0
0
0
0
0
0
0
0
0
0
0
0
0
0
0
0
0
0
0
0
0
0
0
0
0
0
0
0
0
0
0
0
0
0
0
0
0
0
0
0
0
0
0
0
0
0
0
0
0
0
0
0
0
0
0
0
0
0
0
0
0
0
0
0
0
0
0
0
0
0
0
0
0
0
0
0
0
0
0
0
0
0
0
0
0
0
0
0
0
0
0
0
0
0
0
0
0
0
0
0
0
0
0
0
0
0
0
0
0
0
0
0
0
0
0
0
0
0
0
0
0
0
0
0
0
0
0
0
0
0
0
0
0
0
0
0
0
0
0
0
0
0
0
0
0
0
0
0
0
0
0
0
0
0
0
0
0
0
0
0
0
0
0
0
0
0
0
0
0
0
0
0
0
0
0
0
0
0
0
0
0
0
0
0
0
0
0
0
0
0
0
0
0
0
0
0
0
0
0
0
0
0
0
0
0
0
0
0
0
0
0
0
0
0
0
0
0
0
0
0
0
0
0
0
0
0
0
0
0
0
0
0
0
0
0
0
0
0
0
0
0
0
0
0
0
0
0
0
0
0
0
0
0
0
0
0
0
0
0
0
0
0
0
0
0
0
0
0
0
0
0
0
0
0
0
0
0
0
0
0
0
0
0
0
0
0
0
0
0
0
0
0
0
0
0
0
0
0
0
0
0
0
0
0
0
0
0
0
0
0
0
0
0
0
0
0
0
0
0
0
0
0
0
0
0
0
0
0
0
0
0
0
0
0
0
0
0
0
0
0
0
0
0
0
0
0
0
0
0
0
0
0
0
0
0
0
0
0
0
0
0
0
0
0
0
0
0
0
0
0
0
0
0
0
0
0
0
0
0
0
0
0
0
0
0
0
0
0
0
0
0
0
0
0
0
0
0
0
0
0
0
0
0
0
0
0
0
0
0
0
0
0
0
0
0
0
0
0
0
0
0
0
0
0
0
0
0
0
0
0
0
0
0
0
0
0
0
0
0
0
0
0
0
0
0
0
0
0
0
0
0
0
0
0
0
0
0
0
0
0
0
0
0
0
0
0
0
0
0
0
0
0
0
0
0
0
0
0
0
0
0
0
0
0
0
0
0
0
0
0
0
0
0
0
0
0
0
0
0
0
0
0
0
0
0
0
0
0
0
0
0
0
0
0
0
0
0
0
0
0
0
0
0
0
0
0
0
0
0
0
0
0
0
0
0
0
0
0
0
0
0
0
0
0
0
0
0
0
0
0
0
0
0
0
0
0
0
0
0
0
0
0
0
0
0
0
0
0
0
0
0
0
0
0
0
0
0
0
0
0
0
0
0
0
0
0
0
0
0
0
0
0
0
0
0
0
0
0
0
0
0
0
0
0
0
0
0
0
0
0
0
0
0
0
0
0
0
0
0
0
0
0
0
0
0
0
0
0
0
0
0
0
0
0
0
0
0
0
0
0
0
0
0
0
0
0
0
0
0
0
0
0
0
0
0
0
0
0
0
0
0
0
0
0
0
0
0
0
0
0
0
0
0
0
0
0
0
0
0
0
0
0
0
0
0
0
0
0
0
0
0
0
0
0
0
0
0
0
0
0
0
0
0
0
0
0
0
0
0
0
0
0
0
0
0
0
0
0
0
0
0
0
0
0
0
0
0
0
0
0
0
0
0
0
0
0
0
0
0
0
0
0
0
0
0
0
0
0
0
0
0
0
0
0
0
0
0
0
0
0
0
0
0
0
0
0
0
0
0
0
0
0
0
0
0
0
0
0
0
0
0
0
0
0
0
0
0
0
0
0
0
0
0
0
0
0
0
0
0
0
0
0
0
0
0
0
0
0
0
0
0
0
0
0
0
0
0
0
0
0
0
0
0
0
0
0
0
0
0
0
0
0
0
0
0
0
0
0
0
0
0
0
0
0
0
0
0
0
0
0
0
0
0
0
0
0
0
0
0
0
0
0
0
0
0
0
0
0
0
0
0
0
0
0
0
0
0
0
0
0
0
0
0
0
0
0
0
0
0
0
0
0
0
0
0
0
0
0
0
0
0
0
0
0
0
0
0
0
0
0
0
0
0
0
0
0
0
0
0
0
0
0
0
0
0
0
0
0
0
0
0
0
0
0
0
0
0
0
0
0
0
0
0
0
0
0
0
0
0
0
0
0
0
0
0
0
0
0
0
0
0
0
0
0
0
0
0
0
0
0
0
0
0
0
0
0
0
0
0
0
0
0
0
0
0
0
0
0
0
0
0
0
0
0
0
0
0
0
0
0
0
0
0
0
0
0
0
0
0
0
0
0
0
0
0
0
0
0
0
0
0
0
0
0
0
0
0
0
0
0
0
0
0
0
0
0
0
0
0
0
0
0
0
0
0
0
0
0
0
0
0
0
0
0
0
0
0
0
0
0
0
0
0
0
0
0
0
0
0
0
0
0
0
0
0
0
0
0
0
0
0
0
0
0
0
0
0
0
0
0
0
0
0
0
0
0
0
0
0
0
0
0
0
0
0
0
0
0
0
0
0
0
0
0
0
0
0
0
0
0
0
0
0
0
0
0
0
0
0
0
0
0
0
0
0
0
0
0
0
0
0
0
0
0
0
0
0
0
0
0
0
0
0
0
0
0
0
0
0
0
0
0
0
0
0
0
0
0
0
0
0
0
0
0
0
0
0
0
0
0
0
0
0
0
0
0
0
0
0
0
0
0
0
0
0
0
0
0
0
0
0
0
0
0
0
0
0
0
0
0
0
0
0
0
0
0
0
0
0
0
0
0
0
0
0
0
0
0
0
0
0
0
0
0
0
0
0
0
0
0
0
0
0
0
0
0
0
0
0
0
0
0
0
0
0
0
0
0
0
0
0
0
0
0
0
0
0
0
0
0
0
0
0
0
0
0
0
0
0
0
0
0
0
0
0
0
0
0
0
0
0
0
0
0
0
0
0
0
0
0
0
0
0
0
0
0
0
0
0
0
0
0
0
0
0
0
0
0
0
0
0
0
0
0
0
0
0
0
0
0
0
0
0
0
0
0
0
0
0
0
0
0
0
0
0
0
0
0
0
0
0
0
0
0
0
0
0
0
0
0
0
0
0
0
0
0
0
0
0
0
0
0
0
0
0
0
0
0
0
0
0
0
0
0
0
0
0
0
0
0
0
0
0
0
0
0
0
0
0
0
0
0
0
0
0
0
0
0
0
0
0
0
0
0
0
0
0
0
0
0
0
0
0
0
0
0
0
0
0
0
0
0
0
0
0
0
0
0
0
0
0
0
0
0
0
0
0
0
0
0
0
0
0
0
0
0
0
0
0
0
0
0
0
0
0
0
0
0
0
0
0
0
0
0
0
0
0
0
0
0
0
0
0
0
0
0
0
0
0
0
0
0
0
0
0
0
0
0
0
0
0
0
0
0
0
0
0
0
0
0
0
0
0
0
0
0
0
0
0
0
0
0
0
0
0
0
0
0
0
0
0
0
0
0
0
0
0
0
0
0
0
0
0
0
0
0
0
0
0
0
0
0
0
0
0
0
0
0
0
0
0
0
0
0
0
0
0
0
0
0
0
0
0
0
0
0
0
0
0
0
0
0
0
0
0
0
0
0
0
0
0
0
0
0
0
0
0
0
0
0
0
0
0
0
0
0
0
0
0
0
0
0
0
0
0
0
0
0
0
0
0
0
0
0
0
0
0
0
0
0
0
0
0
0
0
0
0
0
0
0
0
0
0
0
0
0
0
0
0
0
0
0
0
0
0
0
0
0
0
0
0
0
0
0
0
0
0
0
0
0
0
0
0
0
0
0
0
0
0
0
0
0
0
0
0
0
0
0
0
0
0
0
0
0
0
0
0
0
0
0
0
0
0
0
0
0
0
0
0
0
0
0
0
0
0
0
0
0
0
0
0
0
0
0
0
0
0
0
0
0
0
0
0
0
0
0
0
0
0
0
0
0
0
0
0
0
0
0
0
0
0
0
0
0
0
0
0
0
0
0
0
0
0
0
0
0
0
0
0
0
0
0
0
0
0
0
0
0
0
0
0
0
0
0
0
0
0
0
0
0
0
0
0
0
0
0
0
0
0
0
0
0
0
0
0
0
0
0
0
0
0
0
0
0
0
0
0
0
0
0
0
0
0
0
0
0
0
0
0
0
0
0
0
0
0
0
0
0
0
0
0
0
0
0
0
0
0
0
0
0
0
0
0
0
0
0
0
0
0
0
0
0
0
0
0
0
0
0
0
0
0
0
0
0
0
0
0
0
0
0
0
0
0
0
0
0
0
0
0
0
0
0
0
0
0
0
0
0
0
0
0
0
0
0
0
0
0
0
0
0
0
0
0
0
0
0
0
0
0
0
0
0
0
0
0
0
0
0
0
0
0
0
0
0
0
0
0
0
0
0
0
0
0
0
0
0
0
0
0
0
0
0
0
0
0
0
0
0
0
0
0
0
0
0
0
0
0
0
0
0
0
0
0
0
0
0
0
0
0
0
0
0
0
0
0
0
0
0
0
0
0
0
0
0
0
0
0
0
0
0
0
0
0
0
0
0
0
0
0
0
0
0
0
0
0
0
0
0
0
0
0
0
0
0
0
0
0
0
0
0
0
0
0
0
0
0
0
0
0
0
0
0
0
0
0
0
0
0
0
0
0
0
0
0
0
0
0
0
0
0
0
0
0
0
0
0
0
0
0
0
0
0
0
0
0
0
0
0
0
0
0
0
0
0
0
0
0
0
0
0
0
0
0
0
0
0
0
0
0
0
0
0
0
0
0
0
0
0
0
0
0
0
0
0
0
0
0
0
0
0
0
0
0
0
0
0
0
0
0
0
0
0
0
0
0
0
0
0
0
0
0
0
0
0
0
0
0
0
0
0
0
0
0
0
0
0
0
0
0
0
0
0
0
0
0
0
0
0
0
0
0
0
0
0
0
0
0
0
0
0
0
0
0
0
0
0
0
0
0
0
0
0
0
0
0
0
0
0
0
0
0
0
0
0
0
0
0
0
0
0
0
0
0
0
0
0
0
0
0
0
0
0
0
0
0
0
0
0
0
0
0
0
0
0
0
0
0
0
0
0
0
0
0
0
0
0
0
0
0
0
0
0
0
0
0
0
0
0
0
0
0
0
0
0
0
0
0
0
0
0
0
0
0
0
0
0
0
0
0
0
0
0
0
0
0
0
0
0
0
0
0
0
0
0
0
0
0
0
0
0
0
0
0
0
0
0
0
0
0
0
0
0
0
0
0
0
0
0
0
0
0
0
0
0
0
0
0
0
0
0
0
0
0
0
0
0
0
0
0
0
0
0
0
0
0
0
0
0
0
0
0
0
0
0
0
0
0
0
0
0
0
0
0
0
0
0
0
0
0
0
0
0
0
0
0
0
0
0
0
0
0
0
0
0
0
0
0
0
0
0
0
0
0
0
0
0
0
0
0
0
0
0
0
0
0
0
0
0
0
0
0
0
0
0
0
0
0
0
0
0
0
0
0
0
0
0
0
0
0
0
0
0
0
0
0
0
0
0
0
0
0
0
0
0
0
0
0
0
0
0
0
0
0
0
0
0
0
0
0
0
0
0
0
0
0
0
0
0
0
0
0
0
0
0
0
0
0
0
0
0
0
0
0
0
0
0
0
0
0
0
0
0
0
0
0
0
0
0
0
0
0
0
0
0
0
0
0
0
0
0
0
0
0
0
0
0
0
0
0
0
0
0
0
0
0
0
0
0
0
0
0
0
0
0
0
0
0
0
0
0
0
0
0
0
0
0
0
0
0
0
0
0
0
0
0
0
0
0
0
0
0
0
0
0
0
0
0
0
0
0
0
0
0
0
0
0
0
0
0
0
0
0
0
0
0
0
0
0
0
0
0
0
0
0
0
0
0
0
0
0
0
0
0
0
0
0
0
0
0
0
0
0
0
0
0
0
0
0
0
0
0
0
0
0
0
0
0
0
0
0
0
0
0
0
0
0
0
0
0
0
0
0
0
0
0
0
0
0
0
0
0
0
0
0
0
0
0
0
0
0
0
0
0
0
0
0
0
0
0
0
0
0
0
0
0
0
0
0
0
0
0
0
0
0
0
0
0
0
0
0
0
0
0
0
0
0
0
0
0
0
0
0
0
0
0
0
0
0
0
0
0
0
0
0
0
0
0
0
0
0
0
0
0
0
0
0
0
