1.71544
1.72371
1.73767
1.75692
1.78061
1.80532
1.82632
1.83875
1.83918
1.82682
1.80385
1.7746
1.74404
1.71619
1.69252
1.67285
1.65691
1.64449
1.63573
1.63126
1.63212
1.6393
1.65383
1.67607
1.70341
1.73063
1.75181
1.76197
1.75857
1.74221
1.71646
1.68679
1.65904
1.63749
1.62347
1.6166
1.61629
1.62052
1.6264
1.63122
1.63311
1.63142
1.62669
1.62031
1.61395
1.60906
1.60643
1.60637
1.60897
1.61429
1.62247
1.63371
1.64816
1.66572
1.68585
1.70785
1.73103
1.75487
1.77928
1.80464
1.83184
1.86206
1.8965
1.93608
1.98128
2.03195
2.08578
2.13659
2.17637
2.19732
2.19368
2.16311
2.10679
2.02859
1.93343
1.82596
1.71113
1.59239
1.47185
1.35149
1.23376
1.12156
1.01824
0.927265
0.851586
0.794446
0.762496
0.759003
0.76573
0.756805
0.705381
0.591747
0.409944
0.170448
-0.101947
0
1.05847
3.16814
5.99501
8.84395
10.938
11.7604
11.2601
9.80234
7.918
6.04105
4.39463
3.05264
2.05965
1.47342
1.41993
1.36809
1.31592
1.2634
1.21175
1.16355
1.12224
1.09152
1.0758
1.07776
1.09414
1.11437
1.12658
1.12188
1.0977
1.059
1.01667
0.983539
0.969492
0.976535
0.999803
1.03197
1.06519
1.09473
1.12103
1.14968
1.18908
1.24722
1.3287
1.42918
1.54358
1.66865
1.80148
1.93939
2.08025
2.22254
2.36532
2.50826
2.65174
2.79689
2.94565
3.10061
3.2646
3.44019
3.62906
3.83141
4.04586
4.26953
4.49855
4.7266
4.94308
5.13542
5.29308
5.408
5.47547
5.4941
5.46517
5.39116
5.2744
5.11601
4.918
4.6853
4.42376
4.13898
3.83655
3.52242
3.20307
2.8853
2.57554
2.27919
2.00024
1.74125
1.50361
1.28793
1.09449
0.923451
0.774886
0.648695
0.544452
0.461309
0.398059
0.353351
0.325705
0.313399
0.314659
0.327531
0.350106
0.379898
0.413239
0.445923
0.4739
0.493863
0.503724
0.502859
0.49204
0.473103
0.448465
0.420702
0.392078
0.364366
0.33894
0.316931
0.299368
0.287159
0.280944
0.281139
0.287515
0.298022
0.308407
0.313691
0.309478
0.293303
0.265561
0.22965
0.191223
0.156747
0.131826
0.118577
0.11621
0.123664
0.138656
0.158334
0.17994
0.201333
0.221245
0.239222
0.255515
0.270886
0.286392
0.303183
0.322297
0.344471
0.369963
0.398543
0.429177
0.460154
0.489268
0.514027
0.531718
0.539333
0.534913
0.517512
0.487607
0.44741
0.400369
0.352431
0.310134
0.279262
0.263618
0.264381
0.280293
0.308556
0.346038
0.390234
0.438872
0.491032
0.545791
0.601611
0.655435
0.703465
0.742184
0.769524
0.785669
0.793167
0.796322
0.8001
0.808966
0.825217
0.849297
0.880929
0.919255
0.962784
1.0096
1.05757
1.10454
1.14847
1.18757
1.22043
1.24599
1.26349
1.27239
1.27216
1.26222
1.24197
1.2108
1.16825
1.11427
1.04942
0.975075
0.893495
0.807682
0.721111
0.637206
0.558815
0.487834
0.425103
0.368883
0.313086
0.249679
0.170456
0.0684193
-0.0622644
-0.220134
-0.399151
-0.596688
0
1.46702
3.70327
6.26568
8.51404
9.85852
10.0012
9.04734
7.4293
5.69015
4.24452
3.23967
2.57348
2.03237
1.53908
1.21873
0.929701
0.668638
0.439585
0.243933
0.0808942
-0.0456462
-0.135169
-0.190184
-0.212694
-0.205339
-0.171726
-0.117452
-0.0549924
0.00257034
0.0451628
0.0685127
0.0748255
0.0710883
0.0658611
0.0660237
0.0735299
0.0870588
0.105379
0.127571
0.153385
0.18372
0.22071
0.267407
0.327169
0.402941
0.496419
0.607771
0.735824
0.878307
1.03225
1.19459
1.36284
1.53552
1.71241
1.89432
2.08271
2.27894
2.48358
2.69582
2.91314
3.13142
3.34525
3.54799
3.73206
3.89036
4.01757
4.10997
4.16484
4.17998
4.15332
4.0828
3.96659
3.80376
3.59513
3.34422
3.05753
2.7447
2.41823
2.09091
1.77332
1.47446
1.20091
0.956322
0.740986
0.552446
0.38636
0.237559
0.101116
-0.0268261
-0.148493
-0.264264
-0.37297
-0.472425
-0.560092
-0.633647
-0.691463
-0.732869
-0.758199
-0.768686
-0.766258
-0.753303
-0.732512
-0.706691
-0.678581
-0.650788
-0.625909
-0.606669
-0.595405
-0.593938
-0.6033
-0.623441
-0.653035
-0.689439
-0.728888
-0.766918
-0.798982
-0.821651
-0.8328
-0.83168
-0.818758
-0.796296
-0.769448
-0.743913
-0.724633
-0.714715
-0.714888
-0.723643
-0.737972
-0.754414
-0.770088
-0.78355
-0.794617
-0.80383
-0.81223
-0.821005
-0.831149
-0.843252
-0.857445
-0.87348
-0.890897
-0.90918
-0.927862
-0.946433
-0.964172
-0.979898
-0.991791
-0.997431
-0.994152
-0.97969
-0.951009
-0.904206
-0.845903
-0.786291
-0.734914
-0.696536
-0.668911
-0.643759
-0.610675
-0.562218
-0.493944
-0.417379
-0.351153
-0.3121
-0.307148
-0.329935
-0.3635
-0.387558
-0.386945
-0.362144
-0.322271
-0.27519
-0.23061
-0.196899
-0.178762
-0.176182
-0.18489
-0.19816
-0.209257
-0.213679
-0.211393
-0.204201
-0.19563
-0.189591
-0.188961
-0.194545
-0.204745
-0.215985
-0.223737
-0.223785
-0.213446
-0.192463
-0.162278
-0.124454
-0.0803888
-0.031229
0.0223011
0.0797729
0.140703
0.204134
0.268312
0.330406
0.386411
0.431854
0.462191
0.473236
0.461447
0.424076
0.359278
0.266311
0.145886
0.000685883
-0.163335
-0.338367
-0.515515
-0.683164
-0.800734
-0.742659
-0.521686
-0.246685
-0.0461248
0
-0.103244
-0.294884
-0.50156
-0.69112
-0.879622
-1.07809
-1.28221
-1.48926
-1.70247
-1.24278
0.128829
2.41293
5.23359
7.93225
9.81262
10.4199
9.71111
8.03428
5.93488
3.91097
2.25063
1.01915
0.158999
-0.395495
-0.45332
-0.484061
-0.507735
-0.525294
-0.538739
-0.550578
-0.563196
-0.578265
-0.596264
-0.616205
-0.63562
-0.650766
-0.657367
-0.651559
-0.630913
-0.590819
-0.532561
-0.466151
-0.403145
-0.352209
-0.315543
-0.287715
-0.257465
-0.211818
-0.139931
-0.0235764
0.120665
0.259347
0.358553
0.399012
0.385031
0.34386
0.315817
0.339066
0.435614
0.582554
0.756718
0.947435
1.14928
1.35848
1.57292
1.79204
2.01634
2.24672
2.4838
2.72759
2.97734
3.232
3.49062
3.75256
4.01799
4.29072
4.56457
4.80638
4.96558
4.99763
4.88738
4.65744
4.35512
4.02608
3.69379
3.36213
3.03294
2.70718
2.38594
2.07109
1.76467
1.46882
1.18575
0.91791
0.668092
0.43949
0.23564
0.0599459
-0.0845955
-0.191576
-0.250596
-0.25844
-0.228236
-0.178726
-0.129276
-0.0963062
-0.090876
-0.117598
-0.174515
-0.253608
-0.342057
-0.425044
-0.490534
-0.531589
-0.547291
-0.539797
-0.51745
-0.490897
-0.469939
-0.460911
-0.465359
-0.480216
-0.49916
-0.514589
-0.520823
-0.515524
-0.498342
-0.469231
-0.42966
-0.384811
-0.340724
-0.302728
-0.274189
-0.255899
-0.246336
-0.242666
-0.242096
-0.243019
-0.245331
-0.250085
-0.258737
-0.272296
-0.290668
-0.312383
-0.334796
-0.354692
-0.369076
-0.376152
-0.375393
-0.367299
-0.353338
-0.335533
-0.316051
-0.296844
-0.279457
-0.265036
-0.254165
-0.246792
-0.242121
-0.238563
-0.233744
-0.224792
-0.208953
-0.184271
-0.149698
-0.105741
-0.056019
-0.00562744
0.0399261
0.0758167
0.0987387
0.10733
0.102199
0.0856598
0.0614125
0.0340718
0.00799236
-0.0127849
-0.0246749
-0.0250715
-0.0125829
0.013505
0.0529012
0.104423
0.166069
0.235503
0.310082
0.386976
0.463127
0.534115
0.59313
0.633739
0.649802
0.637222
0.595973
0.531426
0.454145
0.377882
0.316323
0.278194
0.264928
0.276253
0.30819
0.354415
0.407876
0.462105
0.512884
0.557585
0.594465
0.623411
0.645632
0.663562
0.680636
0.700866
0.728181
0.765651
0.81479
0.874835
0.943231
1.01663
1.09103
1.16248
1.22749
1.28295
1.32656
1.35676
1.37256
1.37346
1.35952
1.33131
1.28997
1.23712
1.1747
1.10499
1.03031
0.952881
0.874856
0.798407
0.725665
0.658609
0.598774
0.546558
0.500949
0.459436
0.417615
0.369687
0.309754
0.22845
0.124017
0
-0.13184
0.076082
1.19791
3.31955
6.11513
8.91711
10.9708
11.7564
11.2061
9.69449
7.8116
6.06472
4.69035
3.66492
2.85899
2.19426
1.93962
1.74629
1.5721
1.42012
1.29289
1.19158
1.1159
1.06448
1.035
1.02457
1.03041
1.04852
1.07342
1.10033
1.12608
1.14987
1.17354
1.20124
1.24049
1.31407
1.44751
1.61341
1.75867
1.83064
1.80709
1.71243
1.60865
1.56341
1.61333
1.72771
1.86194
2.00279
2.14469
2.28673
2.43258
2.589
2.76328
2.96074
3.1809
3.41912
3.67028
3.92873
4.189
4.44689
4.70031
4.9494
5.19625
5.44406
5.69708
5.96287
6.25023
6.55049
6.83033
7.05541
7.20194
7.26014
7.23221
7.12697
6.95354
6.71703
6.41887
6.07256
5.69895
5.31518
4.93216
4.55658
4.19398
3.85007
3.5297
3.23664
2.97335
2.74083
2.53861
2.36476
2.21656
2.09019
1.98042
1.88221
1.7915
1.7058
1.62455
1.5488
1.48068
1.42264
1.37667
1.34385
1.32419
1.31677
1.32004
1.33185
1.35086
1.37508
1.40275
1.43239
1.46277
1.4928
1.52108
1.54525
1.56265
1.57065
1.56782
1.55508
1.53601
1.51595
1.50015
1.49241
1.4916
1.49239
1.48756
1.47102
1.44046
1.39824
1.3505
1.30493
1.2681
1.24188
1.22572
1.21947
1.22269
1.23462
1.2544
1.28119
1.31435
1.35037
1.38202
1.40072
1.39885
1.37241
1.32275
1.25657
1.18417
1.11651
1.06171
1.02069
0.991899
0.974568
0.967014
0.966939
0.972029
0.980044
0.989166
0.998541
1.00856
1.02098
1.03875
1.06554
1.10491
1.16591
1.25825
1.3696
1.47681
1.55511
1.58716
1.56876
1.50873
1.42383
1.33201
1.2475
1.17468
1.1131
1.06316
1.02657
1.00484
0.999221
1.01058
1.03917
1.08562
1.15556
1.25118
1.35475
1.44344
1.49601
1.50056
1.45923
1.38662
1.30274
1.22494
1.16275
1.1132
1.07452
1.04777
1.03406
1.03426
1.04863
1.07643
1.11592
1.16463
1.21999
1.2796
1.34171
1.40543
1.47017
1.53531
1.59985
1.66214
1.72005
1.77131
1.8138
1.84574
1.86573
1.87237
1.86353
1.83777
1.79401
1.73224
1.65422
1.56375
1.46653
1.36928
1.27861
1.19855
1.131
1.07675
1.03519
1.00431
0.97724
0.943092
0.890115
0.807948
0.677613
0.500155
0.287309
0.0592603
0
0.655428
2.08617
4.23454
6.77025
9.1233
10.6668
10.9824
10.0561
8.27632
6.22988
4.43002
3.13682
2.3475
1.91203
1.67788
1.57462
1.48138
1.39642
1.32196
1.25936
1.20913
1.17099
1.14411
1.12757
1.12064
1.12299
1.13463
1.15571
1.18618
1.22547
1.27224
1.32458
1.38008
1.43632
1.49127
1.54364
1.59313
1.64037
1.68683
1.73454
1.78582
1.84295
1.90794
1.98221
2.06646
2.1606
2.26392
2.37536
2.49407
2.61979
2.75309
2.89545
3.04891
3.21557
3.39698
3.59352
3.80421
4.02682
4.25837
4.4958
4.7367
4.97966
5.22432
5.47134
5.7221
5.97412
6.21537
6.42791
6.59445
6.70314
6.7483
6.72786
6.64068
6.48569
6.26327
5.97734
5.63721
5.2591
4.86348
4.46609
4.07568
3.69938
3.34457
3.01798
2.72522
2.47039
2.25717
2.09013
1.97046
1.89099
1.83834
1.79803
1.75692
1.70552
1.6393
1.55901
1.46965
1.37864
1.29347
1.21888
1.15604
1.10529
1.06585
1.03619
1.01473
1.00039
0.992864
0.992544
1.00014
1.01601
1.03985
1.07079
1.10695
1.1454
1.18242
1.21419
1.23741
1.24984
1.2506
1.24024
1.22064
1.19462
1.16545
1.13627
1.10942
1.08607
1.06638
1.04981
1.03521
1.02144
1.00788
0.994819
0.983478
0.975726
0.973523
0.978276
0.990323
1.00908
1.03245
1.05768
1.0823
1.10478
1.12489
1.14348
1.16186
1.18113
1.20099
1.21873
1.23029
1.23211
1.22292
1.20438
1.18032
1.15481
1.13015
1.10584
1.07988
1.04993
1.0148
0.975437
0.935324
0.899822
0.87489
0.864983
0.871691
0.895138
0.9331
0.981588
1.03573
1.09066
1.14263
1.189
1.22801
1.25876
1.28101
1.295
1.30126
1.30051
1.29368
1.28191
1.26668
1.24985
1.23378
1.22126
1.21553
1.22001
1.23764
1.27051
1.31947
1.38377
1.46095
1.54708
1.6372
1.7259
1.80803
1.87907
1.93466
1.97117
1.98709
1.98213
1.95735
1.91524
1.85976
1.79601
1.72971
1.66626
1.60989
1.56219
1.52363
1.49309
1.46822
1.44583
1.42236
1.39431
1.35848
1.30759
1.21292
0.976294
0.593726
0.162068
-0.204006
-0.443445
0
1.246
3.31463
5.92094
8.50583
10.4213
11.1884
10.69
9.19162
7.18849
5.18481
3.52955
2.37011
1.69727
1.4128
1.39429
1.37167
1.34784
1.3231
1.29831
1.27481
1.25427
1.23842
1.22875
1.22632
1.23168
1.24482
1.26527
1.2921
1.32398
1.35953
1.39663
1.43276
1.46589
1.49508
1.52087
1.54529
1.57136
1.60232
1.64078
1.68793
1.74322
1.80597
1.87612
1.95414
2.04115
2.13889
2.24927
2.37391
2.51355
2.66777
2.83498
3.01275
3.1983
3.38929
3.58445
3.78397
3.98963
4.20445
4.43197
4.67538
4.93661
5.21556
5.51449
5.83283
6.14881
6.43249
6.65762
6.80857
6.8825
6.88631
6.83047
6.72316
6.56746
6.37091
6.14096
5.88116
5.59353
5.28175
4.95207
4.61108
4.26487
3.92041
3.58531
3.26725
2.97348
2.71008
2.48141
2.29017
2.13867
2.02774
1.95306
1.90348
1.8664
1.83068
1.78866
1.7376
1.67973
1.62117
1.56971
1.53228
1.51727
1.52453
1.54432
1.56352
1.57094
1.56175
1.53906
1.51213
1.49215
1.48727
1.49675
1.51676
1.53979
1.55771
1.56485
1.55988
1.54577
1.52782
1.51079
1.49652
1.48297
1.46689
1.44469
1.41395
1.37456
1.32917
1.28287
1.24221
1.21325
1.19957
1.20623
1.23996
1.30489
1.392
1.4791
1.54308
1.56594
1.53974
1.46886
1.36867
1.26079
1.16649
1.09889
1.05549
1.03021
1.01975
1.02269
1.03767
1.06307
1.09706
1.13774
1.18288
1.22968
1.27503
1.31569
1.34854
1.37023
1.37805
1.37083
1.34889
1.31431
1.27095
1.224
1.17915
1.14262
1.12157
1.11458
1.11536
1.11618
1.1118
1.10195
1.09078
1.08377
1.08384
1.08851
1.09175
1.08594
1.06518
1.02793
0.97822
0.924671
0.878077
0.847419
0.834705
0.840782
0.866016
0.902152
0.938717
0.966175
0.978728
0.975837
0.962001
0.945025
0.93353
0.934448
0.949077
0.97636
1.01546
1.06547
1.12507
1.19262
1.26639
1.34447
1.42476
1.50475
1.58106
1.64873
1.7018
1.7349
1.74356
1.72542
1.68122
1.61518
1.53443
1.44756
1.36277
1.28559
1.21735
1.15784
1.10681
1.06316
1.0252
0.990727
0.957056
0.920966
0.878685
0.824251
0.737559
0.573241
0.334582
0.0478809
-0.283387
0
1.24234
3.49344
6.35925
9.08928
10.8711
11.1911
10.0602
7.97848
5.66593
3.72569
2.42972
1.71926
1.36847
1.19057
1.10825
1.03305
0.964911
0.906965
0.861843
0.831514
0.817148
0.821499
0.843193
0.874409
0.905575
0.927732
0.934824
0.925145
0.901532
0.870382
0.840014
0.818529
0.810688
0.819012
0.845328
0.890865
0.955884
1.03946
1.13947
1.25279
1.37555
1.50354
1.63264
1.75931
1.88089
1.99585
2.10434
2.20804
2.3101
2.41471
2.52658
2.65028
2.78952
2.94651
3.12161
3.31303
3.51772
3.73159
3.94997
4.16805
4.38142
4.5864
4.78032
4.96159
5.12965
5.28457
5.42643
5.55424
5.66448
5.7498
5.80035
5.80171
5.73879
5.60089
5.38588
5.10186
4.7655
4.39804
4.02175
3.65121
3.29296
2.95394
2.64007
2.35604
2.10538
1.89112
1.71339
1.56882
1.45214
1.35707
1.27727
1.20721
1.1428
1.08158
1.02255
0.96579
0.911903
0.861758
0.816208
0.775947
0.741515
0.713397
0.692321
0.679222
0.674882
0.679902
0.694346
0.717683
0.748528
0.783509
0.818099
0.847843
0.869371
0.881151
0.883733
0.879372
0.871136
0.861804
0.852902
0.844297
0.834334
0.820582
0.800897
0.774407
0.742061
0.706544
0.671597
0.641051
0.617694
0.602583
0.59644
0.599447
0.611698
0.633476
0.665697
0.712623
0.777504
0.851912
0.920479
0.965814
0.97452
0.942002
0.873869
0.783818
0.68947
0.607958
0.546544
0.504704
0.480897
0.474245
0.483125
0.50471
0.535412
0.571354
0.608773
0.644403
0.675384
0.699561
0.715519
0.722596
0.720938
0.711538
0.696221
0.677542
0.658593
0.642734
0.633043
0.631998
0.641868
0.665951
0.70857
0.766287
0.824506
0.865921
0.876345
0.850193
0.792977
0.719489
0.648606
0.597233
0.571127
0.564384
0.57277
0.594143
0.626122
0.665006
0.705906
0.744224
0.776373
0.800354
0.81603
0.825005
0.83012
0.834694
0.841684
0.852842
0.868767
0.889261
0.913548
0.940569
0.969501
1.00015
1.03311
1.06969
1.11173
1.16212
1.22468
1.29879
1.37363
1.43402
1.46524
1.45822
1.41282
1.33779
1.24722
1.1549
1.06895
0.988304
0.909273
0.829146
0.746336
0.661357
0.577349
0.499765
0.438834
0.421311
0.464113
0.538134
0.592241
0.575592
0.459977
0.249872
-0.0248956
-0.328612
-0.638636
0
1.52068
3.84278
6.56419
9.05727
10.7051
11.1571
10.4507
8.93855
7.08914
5.29464
3.78629
2.65756
1.92094
1.54184
1.44161
1.34376
1.24841
1.15812
1.07572
1.00408
0.945724
0.90238
0.874713
0.862222
0.86336
0.875775
0.896603
0.922872
0.951582
0.979551
1.00433
1.02467
1.04086
1.05485
1.06993
1.09009
1.11911
1.15974
1.21206
1.27501
1.34738
1.42779
1.51483
1.60745
1.70512
1.80768
1.91513
2.02728
2.1436
2.26328
2.38555
2.51022
2.63827
2.77215
2.9157
3.07353
3.24997
3.44791
3.6676
3.90589
4.15652
4.41094
4.65804
4.88655
5.08669
5.25135
5.37627
5.45967
5.50127
5.50128
5.45967
5.37649
5.25141
5.08495
4.87937
4.63919
4.37115
4.08363
3.78581
3.48599
3.19055
2.90421
2.63004
2.36985
2.12482
1.89602
1.68489
1.49331
1.32333
1.17685
1.05541
0.959359
0.887861
0.839028
0.810076
0.797535
0.797967
0.807858
0.822066
0.834206
0.838638
0.831527
0.811791
0.781479
0.745269
0.709112
0.678442
0.656413
0.643039
0.636597
0.634179
0.63308
0.632084
0.6322
0.636627
0.649993
0.677074
0.728546
0.816335
0.92867
1.03875
1.11739
1.14392
1.11389
1.04049
0.949736
0.871318
0.828662
0.820683
0.835188
0.863137
0.89908
0.937407
0.972353
0.998477
1.01156
1.00875
0.988777
0.951957
0.90028
0.837315
0.767988
0.698118
0.634564
0.583752
0.550849
0.539187
0.550058
0.582901
0.635737
0.705622
0.788919
0.883076
0.982863
1.07763
1.1553
1.20474
1.21869
1.19608
1.14269
1.07004
0.993066
0.927192
0.8808
0.855492
0.860937
0.906141
0.974353
1.04151
1.08466
1.09051
1.06012
1.00727
0.951131
0.90724
0.881225
0.865531
0.855738
0.849256
0.845147
0.844329
0.848916
0.861174
0.882234
0.910889
0.946296
0.987241
1.03254
1.07886
1.12019
1.14977
1.1617
1.15297
1.12478
1.08276
1.03542
0.991861
0.95937
0.939152
0.930277
0.93283
0.946613
0.971133
1.00563
1.04892
1.09989
1.15623
1.21383
1.26862
1.3177
1.36047
1.39909
1.43823
1.48398
1.54872
1.64957
1.77983
1.90875
1.99951
2.02375
1.97138
1.85197
1.68816
1.50561
1.32576
1.16038
1.01135
0.879091
0.766313
0.685619
0.670185
0.763051
0.932285
1.10845
1.21797
1.20606
1.05173
0.772507
0.417848
0.048806
-0.293739
-0.621605
0
1.44009
3.65734
6.34555
8.96682
10.903
11.6843
11.189
9.69624
7.74224
5.86032
4.36388
3.29598
2.54199
1.98754
1.79757
1.63303
1.48183
1.34822
1.23536
1.14564
1.08322
1.06107
1.10823
1.24089
1.4134
1.56517
1.63891
1.60035
1.45071
1.22669
0.989199
0.806413
0.723128
0.710018
0.739183
0.807839
0.909053
1.0328
1.16771
1.30306
1.43163
1.55028
1.65723
1.75264
1.83804
1.91651
1.99253
2.0715
2.15944
2.26271
2.38734
2.53816
2.71783
2.92603
3.15842
3.40821
3.66783
3.92942
4.18594
4.43207
4.6646
4.88233
5.08528
5.27212
5.44009
5.58678
5.70905
5.80285
5.86443
5.89121
5.88195
5.83635
5.75426
5.63513
5.48092
5.29451
5.07793
4.83309
4.56299
4.27216
3.96611
3.65108
3.33413
3.02278
2.72461
2.44679
2.19598
1.97722
1.79367
1.64899
1.54494
1.4778
1.43939
1.42026
1.41136
1.40538
1.39764
1.38621
1.37142
1.35482
1.33802
1.32177
1.30557
1.28781
1.26663
1.24097
1.21134
1.17999
1.15025
1.12544
1.10782
1.09716
1.09287
1.0938
1.09906
1.10862
1.12347
1.14518
1.1763
1.22029
1.27337
1.32123
1.34571
1.33144
1.27232
1.175
1.05764
0.944348
0.857784
0.806204
0.78157
0.780908
0.802059
0.84115
0.895307
0.959117
1.0235
1.07877
1.11676
1.13241
1.1251
1.09902
1.06236
1.02527
0.997149
0.982988
0.981939
0.990791
1.00634
1.02505
1.04336
1.05828
1.06781
1.07106
1.06812
1.0599
1.04795
1.03411
1.02037
1.0088
1.00149
1.00038
1.00701
1.02245
1.04721
1.08117
1.12344
1.17126
1.21816
1.25533
1.27398
1.26748
1.23341
1.17479
1.10002
1.02142
0.952645
0.904924
0.880944
0.89115
0.952233
1.06657
1.20235
1.32046
1.38614
1.37773
1.29321
1.15284
0.99628
0.872755
0.824614
0.844331
0.902357
0.980968
1.07021
1.15983
1.24119
1.3088
1.36095
1.39959
1.42942
1.45655
1.48714
1.52557
1.57448
1.63539
1.70877
1.7946
1.89145
1.9938
2.09092
2.17087
2.22348
2.24273
2.22804
2.18407
2.11872
2.0404
1.95551
1.86786
1.7792
1.69062
1.60354
1.52014
1.44325
1.37576
1.32102
1.28296
1.25968
1.23636
1.19208
1.10469
0.93683
0.682185
0.354744
-0.0140418
0
1.02685
3.1918
6.14287
9.11729
11.2423
11.9228
11.0946
9.20502
6.9524
4.95647
3.54747
2.74994
2.40362
2.30645
2.20298
2.10287
2.00779
1.92163
1.84822
1.79091
1.75176
1.73107
1.72735
1.73774
1.75879
1.78721
1.81995
1.8551
1.89169
1.92926
1.96778
2.00759
2.04944
2.09447
2.14415
2.2001
2.26393
2.33698
2.42013
2.51375
2.61777
2.7316
2.85426
2.98442
3.12054
3.26094
3.40396
3.54818
3.6927
3.83743
3.9834
4.13289
4.28921
4.45626
4.63767
4.83594
5.05162
5.2829
5.52543
5.77353
6.02088
6.26158
6.49094
6.70572
6.90267
7.07702
7.2245
7.34467
7.43502
7.4908
7.50621
7.47568
7.39474
7.26052
7.07227
6.83227
6.55252
6.24508
5.91919
5.58246
5.24107
4.89926
4.56017
4.22651
3.9011
3.58737
3.28971
3.01333
2.76588
2.57034
2.48507
2.53422
2.65639
2.77
2.80544
2.73155
2.56473
2.35725
2.17228
2.05807
2.00404
1.97826
1.9704
1.97525
1.98603
1.99693
2.00411
2.00618
2.00393
1.99946
1.99491
1.99135
1.98816
1.98342
1.97462
1.95953
1.93708
1.90764
1.8728
1.83464
1.79473
1.75342
1.70978
1.66182
1.60718
1.5427
1.46371
1.3735
1.2891
1.23276
1.22439
1.27384
1.37637
1.51325
1.65745
1.78222
1.87387
1.93876
1.97877
1.99684
1.99792
1.988
1.97353
1.96008
1.95233
1.95392
1.96711
1.99242
2.02854
2.07251
2.12034
2.1678
2.21137
2.2489
2.27987
2.30518
2.32655
2.34574
2.36366
2.38
2.39296
2.3999
2.39831
2.38672
2.36523
2.3354
2.29973
2.26099
2.22166
2.18331
2.14688
2.11296
2.08191
2.05385
2.02879
2.00659
1.98711
1.97022
1.95573
1.94331
1.93231
1.92156
1.90905
1.89238
1.86951
1.8396
1.80366
1.76487
1.72953
1.70475
1.69643
1.70757
1.73745
1.78201
1.83516
1.89042
1.94261
1.98871
2.02692
2.05732
2.08166
2.10331
2.12704
2.15849
2.20331
2.26838
2.37081
2.51445
2.6724
2.80945
2.89538
2.91508
2.8707
2.77605
2.64786
2.50026
2.34605
2.19452
2.051
1.92013
1.80648
1.71356
1.64353
1.59808
1.57877
1.58903
1.63218
1.69999
1.77654
1.84478
1.88906
1.80799
1.35665
0.698943
0.0499305
-0.433263
0
1.48318
3.91677
6.82755
9.51391
11.3172
11.8726
11.2156
9.7031
7.81672
5.96807
4.39598
3.17769
2.30509
1.7488
1.5769
1.41597
1.26008
1.1125
0.978171
0.861433
0.766402
0.696048
0.651299
0.630535
0.629695
0.643014
0.664173
0.687492
0.709059
0.726908
0.740885
0.752241
0.763043
0.775593
0.791906
0.813389
0.841094
0.875648
0.917208
0.965453
1.01956
1.07825
1.13976
1.20216
1.26336
1.32112
1.37339
1.41943
1.46016
1.49882
1.54136
1.59631
1.67401
1.78498
1.93794
2.1369
2.37745
2.65358
2.95754
3.27953
3.6092
3.93795
4.25959
4.57081
4.86971
5.15381
5.42167
5.67306
5.90102
6.09003
6.22243
6.2851
6.27162
6.18088
6.01492
5.77846
5.4801
5.13799
4.77434
4.40579
4.04145
3.68586
3.34352
3.02066
2.72628
2.47069
2.26104
2.1005
1.99025
1.92888
1.91205
1.93262
1.9813
2.04771
2.12175
2.19494
2.26237
2.32222
2.37425
2.41887
2.45672
2.48859
2.51496
2.53599
2.55164
2.56168
2.56608
2.56529
2.56042
2.55323
2.54575
2.53994
2.53729
2.53842
2.54345
2.55199
2.56328
2.57624
2.5895
2.60134
2.6096
2.61192
2.60602
2.5901
2.56325
2.52575
2.4791
2.42578
2.36883
2.31124
2.25544
2.20296
2.15467
2.11069
2.0706
2.03364
1.99897
1.96584
1.93379
1.90272
1.87283
1.84444
1.81762
1.79187
1.7656
1.73548
1.69683
1.64444
1.57382
1.48254
1.37116
1.24344
1.1056
0.964912
0.827975
0.698233
0.576961
0.463714
0.356519
0.25273
0.150013
0.0472017
-0.0551744
-0.154654
-0.247097
-0.327731
-0.392237
-0.437819
-0.463628
-0.470213
-0.461324
-0.442477
-0.418863
-0.394073
-0.369396
-0.343861
-0.314944
-0.279634
-0.235473
-0.181645
-0.119054
-0.0490767
0.0269943
0.107835
0.192246
0.279161
0.367535
0.456121
0.543264
0.626748
0.703605
0.770327
0.824363
0.864239
0.890017
0.903558
0.908393
0.909171
0.910759
0.917225
0.931011
0.951778
0.977651
1.00637
1.0352
1.06103
1.08039
1.08972
1.08619
1.06783
1.03399
0.985829
0.92648
0.860958
0.795577
0.737043
0.691019
0.661605
0.65095
0.659298
0.685061
0.724152
0.769955
0.813297
0.84278
0.84744
0.817688
0.74672
0.632068
0.476864
0.290235
0.0864203
0
0.723559
2.53668
5.29527
8.38144
10.9178
12.1522
11.7991
10.1411
7.84408
5.61014
3.87849
2.72713
1.98734
1.45023
1.22087
1.06491
0.924532
0.801661
0.698148
0.616787
0.559849
0.527391
0.519231
0.534348
0.570157
0.622124
0.684056
0.749122
0.811278
0.866884
0.915469
0.957971
0.996772
1.03486
1.07504
1.11911
1.16805
1.2224
1.28236
1.34799
1.41924
1.49605
1.57824
1.66552
1.75745
1.85347
1.953
2.05552
2.16069
2.26842
2.37892
2.49282
2.61109
2.73506
2.86623
3.0061
3.15594
3.31648
3.48779
3.66914
3.85902
4.05519
4.2549
4.45504
4.65196
4.84087
5.01528
5.16731
5.28976
5.37643
5.42085
5.41653
5.35765
5.24004
5.0625
4.82814
4.5452
4.22832
3.89525
3.56066
3.23351
2.91913
2.62146
2.34214
2.08078
1.83555
1.604
1.38388
1.17381
0.973914
0.786554
0.616018
0.467165
0.344185
0.250237
0.18665
0.152491
0.144532
0.157619
0.185327
0.220784
0.257457
0.290248
0.315911
0.332421
0.338746
0.334913
0.321842
0.301171
0.275128
0.246283
0.217376
0.191175
0.170232
0.156562
0.151486
0.15582
0.169795
0.19227
0.219388
0.245281
0.264215
0.272123
0.267885
0.253933
0.235919
0.22145
0.218219
0.231554
0.269358
0.334735
0.411764
0.478353
0.513992
0.506833
0.457803
0.380118
0.294312
0.220838
0.173516
0.148757
0.138778
0.139174
0.1479
0.163111
0.183334
0.207424
0.234377
0.263149
0.29258
0.32148
0.348788
0.373754
0.396036
0.415662
0.432848
0.447757
0.460273
0.469722
0.474954
0.475153
0.47022
0.461448
0.451959
0.446678
0.451766
0.473582
0.517465
0.58605
0.678056
0.791562
0.925526
1.07903
1.23893
1.38307
1.49014
1.54472
1.54201
1.4898
1.40611
1.31333
1.23156
1.17101
1.12865
1.10062
1.08514
1.08106
1.08685
1.10039
1.11879
1.1385
1.1563
1.17007
1.1794
1.18575
1.19213
1.20221
1.21925
1.24496
1.27861
1.31754
1.35837
1.39719
1.43026
1.45452
1.46744
1.46777
1.45518
1.43022
1.39427
1.34949
1.29859
1.24461
1.19053
1.13896
1.09164
1.05009
1.01522
0.987156
0.965631
0.948361
0.928376
0.895855
0.83963
0.742687
0.565988
0.313683
0.00496712
-0.332647
0
1.21233
3.33176
6.08417
8.92086
11.1835
12.3456
12.212
10.9744
9.09849
7.11368
5.41724
4.17827
3.35902
2.8133
2.40969
2.1732
1.95711
1.76164
1.5957
1.46735
1.38083
1.33806
1.33835
1.37806
1.46816
1.59875
1.73772
1.85243
1.92038
1.93719
1.91755
1.88777
1.8736
1.88944
1.92739
1.97534
2.0278
2.08117
2.13353
2.18491
2.23695
2.29215
2.35306
2.42129
2.49763
2.58258
2.6765
2.77988
2.89367
3.01941
3.15914
3.31515
3.48958
3.68408
3.89939
4.13519
4.38992
4.66078
4.9438
5.23388
5.52501
5.81036
6.08126
6.32753
6.54144
6.71722
6.8513
6.9422
6.99
6.99558
6.95976
6.88292
6.76485
6.60823
6.41476
6.18526
5.92183
5.62816
5.31099
4.97806
4.63667
4.29484
3.96065
3.64159
3.34387
3.07187
2.82785
2.61196
2.42259
2.25695
2.11183
1.98424
1.87197
1.77428
1.69089
1.62202
1.56796
1.52987
1.50632
1.49487
1.49264
1.49695
1.50576
1.51772
1.53187
1.54733
1.56245
1.57515
1.5835
1.58644
1.58437
1.57923
1.57393
1.57152
1.57411
1.58205
1.59475
1.61135
1.63053
1.65074
1.67033
1.68742
1.69978
1.70526
1.70214
1.68962
1.66838
1.64094
1.6116
1.58578
1.56892
1.56518
1.57969
1.61287
1.65607
1.69769
1.72711
1.73807
1.73051
1.71012
1.68613
1.66811
1.66259
1.66978
1.68752
1.71373
1.74632
1.78305
1.82182
1.86082
1.8986
1.93384
1.96526
1.9914
2.01073
2.02188
2.02393
2.01684
2.00178
1.98132
1.9593
1.94044
1.9296
1.93122
1.95108
1.99427
2.06069
2.13869
2.20835
2.25026
2.25094
2.20724
2.12834
2.0341
1.94937
1.89593
1.88161
1.89552
1.92658
1.9699
2.02151
2.07783
2.13585
2.19303
2.24674
2.29452
2.33415
2.36404
2.38387
2.39499
2.40048
2.4047
2.41248
2.4279
2.45288
2.48927
2.53743
2.59319
2.64732
2.68917
2.70913
2.7007
2.66183
2.59523
2.5075
2.40755
2.30459
2.20596
2.11519
2.03355
1.96164
1.89989
1.8481
1.80549
1.77078
1.74159
1.71479
1.68677
1.65247
1.59188
1.38541
0.970945
0.448098
-0.0544772
-0.388172
0
1.39104
3.84921
6.99295
10.0745
12.2639
12.9953
12.1812
10.1955
7.67008
5.23517
3.32633
2.10859
1.50665
1.30515
1.22468
1.13857
1.0519
0.966132
0.883356
0.806084
0.736895
0.678035
0.631447
0.59871
0.579415
0.569128
0.562095
0.553496
0.541155
0.526426
0.513799
0.509279
0.518139
0.54294
0.580837
0.627855
0.680519
0.736087
0.793731
0.855078
0.923908
1.00509
1.10309
1.22007
1.35456
1.50312
1.66116
1.82296
1.98237
2.13512
2.2802
2.42027
2.56125
2.71097
2.87715
3.06536
3.27732
3.50907
3.7535
4.00214
4.24589
4.47657
4.68826
4.87808
5.04565
5.19172
5.31748
5.42422
5.51153
5.57435
5.60087
5.57575
5.48551
5.32335
5.0918
4.80204
4.47032
4.11286
3.74463
3.37378
3.00401
2.6385
2.2809
1.93548
1.60713
1.30127
1.0236
0.779997
0.575436
0.411712
0.287471
0.199694
0.144118
0.115661
0.10888
0.118492
0.139964
0.170048
0.206868
0.249817
0.299203
0.355759
0.419972
0.491394
0.56842
0.648346
0.727137
0.800574
0.865322
0.919743
0.964288
1.00134
1.03453
1.06771
1.10392
1.14524
1.19081
1.23535
1.27154
1.29278
1.29576
1.28184
1.25689
1.2296
1.2086
1.19976
1.20289
1.21361
1.22754
1.23974
1.24553
1.24133
1.22509
1.19634
1.15591
1.10564
1.04834
0.986845
0.923921
0.862377
0.805066
0.754703
0.713757
0.684172
0.66736
0.665067
0.677876
0.701207
0.726575
0.744883
0.748609
0.733597
0.699872
0.651227
0.593832
0.534429
0.4785
0.428849
0.386864
0.353644
0.330654
0.320032
0.323339
0.341606
0.377277
0.433063
0.499961
0.565777
0.618999
0.652673
0.666299
0.664886
0.655984
0.646559
0.640864
0.640039
0.645379
0.657836
0.678445
0.708437
0.745094
0.781809
0.809844
0.820513
0.80754
0.768705
0.706247
0.626063
0.536098
0.444567
0.357527
0.278195
0.207436
0.144966
0.0903986
0.0427055
0
-0.034943
-0.0714809
-0.120193
-0.246485
-0.53412
-0.954251
-1.42011
-1.60262
-0.955379
0.64907
3.05732
5.78344
8.16167
9.59557
9.78413
8.81056
7.06287
5.0499
3.21737
1.8402
1.00254
0.634551
0.57665
0.511829
0.444789
0.376765
0.308939
0.24371
0.184285
0.134119
0.0963684
0.073378
0.0661301
0.0742506
0.0961058
0.129071
0.169917
0.215262
0.261983
0.307516
0.350141
0.388849
0.422689
0.451652
0.476498
0.499012
0.522206
0.550281
0.588222
0.641028
0.712774
0.805763
0.918432
1.04862
1.19354
1.34983
1.51402
1.68353
1.85661
2.03227
2.21009
2.3899
2.57142
2.75413
2.93726
3.12
3.30179
3.48272
3.66385
3.84728
4.03607
4.23785
4.48805
4.8718
5.35347
5.80394
6.11759
6.25819
6.25729
6.17085
6.02827
5.81029
5.4686
5.01541
4.52267
4.05373
3.63519
3.25801
2.90885
2.5861
2.28844
2.0134
1.75825
1.52072
1.29963
1.09505
0.908121
0.74058
0.59414
0.469849
0.367709
0.28708
0.226578
0.182306
0.149969
0.125832
0.107342
0.0933373
0.0837557
0.0792665
0.0809137
0.0870026
0.0940621
0.0982623
0.0972878
0.0917624
0.0853623
0.0834083
0.0905094
0.109046
0.136336
0.16611
0.191044
0.205697
0.208523
0.202088
0.191549
0.182211
0.177214
0.175889
0.176391
0.176575
0.174228
0.167701
0.156311
0.140446
0.121382
0.100936
0.081042
0.0633544
0.0490753
0.0390386
0.0338945
0.0341703
0.0403567
0.0529529
0.0724374
0.0991476
0.133118
0.173934
0.220687
0.27176
0.324806
0.376697
0.423398
0.460448
0.484103
0.491873
0.483304
0.460538
0.428406
0.393865
0.364776
0.348253
0.348115
0.369075
0.410164
0.462129
0.513778
0.555778
0.58349
0.597818
0.603972
0.609022
0.619496
0.63857
0.666215
0.703212
0.74972
0.805377
0.870419
0.941091
1.01008
1.06959
1.1139
1.14158
1.15643
1.16627
1.18044
1.20668
1.24684
1.29767
1.35624
1.41865
1.47923
1.53082
1.56645
1.57991
1.56656
1.52416
1.45353
1.35891
1.24771
1.12956
1.01461
0.910472
0.820786
0.749811
0.696999
0.655323
0.614757
0.564525
0.495333
0.397638
0.261044
0.0902916
-0.104949
-0.312646
0
1.09224
3.13142
5.94688
8.98251
11.4666
12.7311
12.5026
10.9984
8.78448
6.49741
4.59616
3.25957
2.43704
1.97739
1.88294
1.81685
1.75498
1.69668
1.64159
1.59014
1.54379
1.50497
1.47672
1.46333
1.46984
1.49951
1.54953
1.60862
1.66223
1.69791
1.7094
1.69925
1.67912
1.66736
1.68428
1.74621
1.87222
2.07731
2.31345
2.51894
2.64496
2.67564
2.63341
2.56863
2.53943
2.59067
2.71628
2.88222
3.07216
3.27898
3.49693
3.72101
3.94768
4.17532
4.40434
4.63673
4.87534
5.12279
5.38057
5.64826
5.92337
6.20167
6.47754
6.74499
6.99807
7.23005
7.43183
7.59361
7.71162
7.77988
7.78883
7.72822
7.59118
7.37765
7.09576
6.76072
6.392
6.01275
5.63632
5.26966
4.91901
4.58923
4.28375
4.00464
3.75274
3.5279
3.3292
3.15528
3.00453
2.87531
2.76615
2.67572
2.60288
2.54667
2.50638
2.48145
2.47115
2.47482
2.49247
2.52206
2.55774
2.59264
2.62023
2.63568
2.63689
2.62475
2.60251
2.57469
2.54591
2.51959
2.49748
2.48053
2.46932
2.46416
2.46509
2.47187
2.48397
2.50064
2.52057
2.54155
2.56115
2.57716
2.58798
2.59288
2.59205
2.58647
2.57772
2.56774
2.55863
2.55252
2.55135
2.55654
2.56867
2.58746
2.61116
2.6371
2.66226
2.6839
2.70007
2.70985
2.71338
2.71164
2.70637
2.69945
2.69256
2.68712
2.68423
2.68408
2.68581
2.68798
2.68924
2.68904
2.68818
2.68897
2.69488
2.70975
2.73639
2.78189
2.85007
2.92684
2.9916
3.02431
3.01334
2.96077
2.88259
2.80353
2.74871
2.73404
2.76839
2.85247
2.9525
3.02712
3.04249
2.98565
2.87122
2.73764
2.63273
2.59408
2.61764
2.67249
2.74473
2.82724
2.91377
3.00003
3.08421
3.16635
3.2477
3.3303
3.4161
3.50477
3.59054
3.66269
3.70863
3.71716
3.68173
3.60276
3.4888
3.35561
3.22338
3.1123
3.03259
2.98228
2.95673
2.95667
2.98455
3.04168
104
324
555
797
1036
1258
1491
1727
1970
2207
2444
2677
2907
3133
3339
3549
2652
2816
2980
3143
3302
3457
3609
3672
3684
0
0
0
0
0
0
0
0
0
0
0
0
0
0
0
0
0
0
0
0
0
0
0
0
0
0
0
0
0
0
0
0
0
0
0
0
0
0
0
0
0
0
0
0
0
0
0
0
0
0
0
0
0
0
0
0
0
0
0
0
0
0
0
0
0
0
0
0
0
0
0
0
0
0
0
0
0
0
0
0
0
0
0
0
0
0
0
0
0
0
0
0
0
0
0
0
0
0
0
0
0
0
0
0
0
0
0
0
0
0
0
0
0
0
0
0
0
0
0
0
0
0
0
0
0
0
0
0
0
0
0
0
0
0
0
0
0
0
0
0
0
0
0
0
0
0
0
0
0
0
0
0
0
0
0
0
0
0
0
0
0
0
0
0
0
0
0
0
0
0
0
0
0
0
0
0
0
0
0
0
0
0
0
0
0
0
0
0
0
0
0
0
0
0
0
0
0
0
0
0
0
0
0
0
0
0
0
0
0
0
0
0
0
0
0
0
0
0
0
0
0
0
0
0
0
0
0
0
0
0
0
0
0
0
0
0
0
0
0
0
0
0
0
0
0
0
0
0
0
0
0
0
0
0
0
0
0
0
0
0
0
0
0
0
0
0
0
0
0
0
0
0
0
0
0
0
0
0
0
0
0
0
0
0
0
0
0
0
0
0
0
0
0
0
0
0
0
0
0
0
0
0
0
0
0
0
0
0
0
0
0
0
0
0
0
0
0
0
0
0
0
0
0
0
0
0
0
0
0
0
0
0
0
0
0
0
0
0
0
0
0
0
0
0
0
0
0
0
0
0
0
0
0
0
0
0
0
0
0
0
0
0
0
0
0
0
0
0
0
0
0
0
0
0
0
0
0
0
0
0
0
0
0
0
0
0
0
0
0
0
0
0
0
0
0
0
0
0
0
0
0
0
0
0
0
0
0
0
0
0
0
0
0
0
0
0
0
0
0
0
0
0
0
0
0
0
0
0
0
0
0
0
0
0
0
0
0
0
0
0
0
0
0
0
0
0
0
0
0
0
0
0
0
0
0
0
0
0
0
0
0
0
0
0
0
0
0
0
0
0
0
0
0
0
0
0
0
0
0
0
0
0
0
0
0
0
0
0
0
0
0
0
0
0
0
0
0
0
0
0
0
0
0
0
0
0
0
0
0
0
0
0
0
0
0
0
0
0
0
0
0
0
0
0
0
0
0
0
0
0
0
0
0
0
0
0
0
0
0
0
0
0
0
0
0
0
0
0
0
0
0
0
0
0
0
0
0
0
0
0
0
0
0
0
0
0
0
0
0
0
0
0
0
0
0
0
0
0
0
0
0
0
0
0
0
0
0
0
0
0
0
0
0
0
0
0
0
0
0
0
0
0
0
0
0
0
0
0
0
0
0
0
0
0
0
0
0
0
0
0
0
0
0
0
0
0
0
0
0
0
0
0
0
0
0
0
0
0
0
0
0
0
0
0
0
0
0
0
0
0
0
0
0
0
0
0
0
0
0
0
0
0
0
0
0
0
0
0
0
0
0
0
0
0
0
0
0
0
0
0
0
0
0
0
0
0
0
0
0
0
0
0
0
0
0
0
0
0
0
0
0
0
0
0
0
0
0
0
0
0
0
0
0
0
0
0
0
0
0
0
0
0
0
0
0
0
0
0
0
0
0
0
0
0
0
0
0
0
0
0
0
0
0
0
0
0
0
0
0
0
0
0
0
0
0
0
0
0
0
0
0
0
0
0
0
0
0
0
0
0
0
0
0
0
0
0
0
0
0
0
0
0
0
0
0
0
0
0
0
0
0
0
0
0
0
0
0
0
0
0
0
0
0
0
0
0
0
0
0
0
0
0
0
0
0
0
0
0
0
0
0
0
0
0
0
0
0
0
0
0
0
0
0
0
0
0
0
0
0
0
0
0
0
0
0
0
0
0
0
0
0
0
0
0
0
0
0
0
0
0
0
0
0
0
0
0
0
0
0
0
0
0
0
0
0
0
0
0
0
0
0
0
0
0
0
0
0
0
0
0
0
0
0
0
0
0
0
0
0
0
0
0
0
0
0
0
0
0
0
0
0
0
0
0
0
0
0
0
0
0
0
0
0
0
0
0
0
0
0
0
0
0
0
0
0
0
0
0
0
0
0
0
0
0
0
0
0
0
0
0
0
0
0
0
0
0
0
0
0
0
0
0
0
0
0
0
0
0
0
0
0
0
0
0
0
0
0
0
0
0
0
0
0
0
0
0
0
0
0
0
0
0
0
0
0
0
0
0
0
0
0
0
0
0
0
0
0
0
0
0
0
0
0
0
0
0
0
0
0
0
0
0
0
0
0
0
0
0
0
0
0
0
0
0
0
0
0
0
0
0
0
0
0
0
0
0
0
0
0
0
0
0
0
0
0
0
0
0
0
0
0
0
0
0
0
0
0
0
0
0
0
0
0
0
0
0
0
0
0
0
0
0
0
0
0
0
0
0
0
0
0
0
0
0
0
0
0
0
0
0
0
0
0
0
0
0
0
0
0
0
0
0
0
0
0
0
0
0
0
0
0
0
0
0
0
0
0
0
0
0
0
0
0
0
0
0
0
0
0
0
0
0
0
0
0
0
0
0
0
0
0
0
0
0
0
0
0
0
0
0
0
0
0
0
0
0
0
0
0
0
0
0
0
0
0
0
0
0
0
0
0
0
0
0
0
0
0
0
0
0
0
0
0
0
0
0
0
0
0
0
0
0
0
0
0
0
0
0
0
0
0
0
0
0
0
0
0
0
0
0
0
0
0
0
0
0
0
0
0
0
0
0
0
0
0
0
0
0
0
0
0
0
0
0
0
0
0
0
0
0
0
0
0
0
0
0
0
0
0
0
0
0
0
0
0
0
0
0
0
0
0
0
0
0
0
0
0
0
0
0
0
0
0
0
0
0
0
0
0
0
0
0
0
0
0
0
0
0
0
0
0
0
0
0
0
0
0
0
0
0
0
0
0
0
0
0
0
0
0
0
0
0
0
0
0
0
0
0
0
0
0
0
0
0
0
0
0
0
0
0
0
0
0
0
0
0
0
0
0
0
0
0
0
0
0
0
0
0
0
0
0
0
0
0
0
0
0
0
0
0
0
0
0
0
0
0
0
0
0
0
0
0
0
0
0
0
0
0
0
0
0
0
0
0
0
0
0
0
0
0
0
0
0
0
0
0
0
0
0
0
0
0
0
0
0
0
0
0
0
0
0
0
0
0
0
0
0
0
0
0
0
0
0
0
0
0
0
0
0
0
0
0
0
0
0
0
0
0
0
0
0
0
0
0
0
0
0
0
0
0
0
0
0
0
0
0
0
0
0
0
0
0
0
0
0
0
0
0
0
0
0
0
0
0
0
0
0
0
0
0
0
0
0
0
0
0
0
0
0
0
0
0
0
0
0
0
0
0
0
0
0
0
0
0
0
0
0
0
0
0
0
0
0
0
0
0
0
0
0
0
0
0
0
0
0
0
0
0
0
0
0
0
0
0
0
0
0
0
0
0
0
0
0
0
0
0
0
0
0
0
0
0
0
0
0
0
0
0
0
0
0
0
0
0
0
0
0
0
0
0
0
0
0
0
0
0
0
0
0
0
0
0
0
0
0
0
0
0
0
0
0
0
0
0
0
0
0
0
0
0
0
0
0
0
0
0
0
0
0
0
0
0
0
0
0
0
0
0
0
0
0
0
0
0
0
0
0
0
0
0
0
0
0
0
0
0
0
0
0
0
0
0
0
0
0
0
0
0
0
0
0
0
0
0
0
0
0
0
0
0
0
0
0
0
0
0
0
0
0
0
0
0
0
0
0
0
0
0
0
0
0
0
0
0
0
0
0
0
0
0
0
0
0
0
0
0
0
0
0
0
0
0
0
0
0
0
0
0
0
0
0
0
0
0
0
0
0
0
0
0
0
0
0
0
0
0
0
0
0
0
0
0
0
0
0
0
0
0
0
0
0
0
0
0
0
0
0
0
0
0
0
0
0
0
0
0
0
0
0
0
0
0
0
0
0
0
0
0
0
0
0
0
0
0
0
0
0
0
0
0
0
0
0
0
0
0
0
0
0
0
0
0
0
0
0
0
0
0
0
0
0
0
0
0
0
0
0
0
0
0
0
0
0
0
0
0
0
0
0
0
0
0
0
0
0
0
0
0
0
0
0
0
0
0
0
0
0
0
0
0
0
0
0
0
0
0
0
0
0
0
0
0
0
0
0
0
0
0
0
0
0
0
0
0
0
0
0
0
0
0
0
0
0
0
0
0
0
0
0
0
0
0
0
0
0
0
0
0
0
0
0
0
0
0
0
0
0
0
0
0
0
0
0
0
0
0
0
0
0
0
0
0
0
0
0
0
0
0
0
0
0
0
0
0
0
0
0
0
0
0
0
0
0
0
0
0
0
0
0
0
0
0
0
0
0
0
0
0
0
0
0
0
0
0
0
0
0
0
0
0
0
0
0
0
0
0
0
0
0
0
0
0
0
0
0
0
0
0
0
0
0
0
0
0
0
0
0
0
0
0
0
0
0
0
0
0
0
0
0
0
0
0
0
0
0
0
0
0
0
0
0
0
0
0
0
0
0
0
0
0
0
0
0
0
0
0
0
0
0
0
0
0
0
0
0
0
0
0
0
0
0
0
0
0
0
0
0
0
0
0
0
0
0
0
0
0
0
0
0
0
0
0
0
0
0
0
0
0
0
0
0
0
0
0
0
0
0
0
0
0
0
0
0
0
0
0
0
0
0
0
0
0
0
0
0
0
0
0
0
0
0
0
0
0
0
0
0
0
0
0
0
0
0
0
0
0
0
0
0
0
0
0
0
0
0
0
0
0
0
0
0
0
0
0
0
0
0
0
0
0
0
0
0
0
0
0
0
0
0
0
0
0
0
0
0
0
0
0
0
0
0
0
0
0
0
0
0
0
0
0
0
0
0
0
0
0
0
0
0
0
0
0
0
0
0
0
0
0
0
0
0
0
0
0
0
0
0
0
0
0
0
0
0
0
0
0
0
0
0
0
0
0
0
0
0
0
0
0
0
0
0
0
0
0
0
0
0
0
0
0
0
0
0
0
0
0
0
0
0
0
0
0
0
0
0
0
0
0
0
0
0
0
0
0
0
0
0
0
0
0
0
0
0
0
0
0
0
0
0
0
0
0
0
0
0
0
0
0
0
0
0
0
0
0
0
0
0
0
0
0
0
0
0
0
0
0
0
0
0
0
0
0
0
0
0
0
0
0
0
0
0
0
0
0
0
0
0
0
0
0
0
0
0
0
0
0
0
0
0
0
0
0
0
0
0
0
0
0
0
0
0
0
0
0
0
0
0
0
0
0
0
0
0
0
0
0
0
0
0
0
0
0
0
0
0
0
0
0
0
0
0
0
0
0
0
0
0
0
0
0
0
0
0
0
0
0
0
0
0
0
0
0
0
0
0
0
0
0
0
0
0
0
0
0
0
0
0
0
0
0
0
0
0
0
0
0
0
0
0
0
0
0
0
0
0
0
0
0
0
0
0
0
0
0
0
0
0
0
0
0
0
0
0
0
0
0
0
0
0
0
0
0
0
0
0
0
0
0
0
0
0
0
0
0
0
0
0
0
0
0
0
0
0
0
0
0
0
0
0
0
0
0
0
0
0
0
0
0
0
0
0
0
0
0
0
0
0
0
0
0
0
0
0
0
0
0
0
0
0
0
0
0
0
0
0
0
0
0
0
0
0
0
0
0
0
0
0
0
0
0
0
0
0
0
0
0
0
0
0
0
0
0
0
0
0
0
0
0
0
0
0
0
0
0
0
0
0
0
0
0
0
0
0
0
0
0
0
0
0
0
0
0
0
0
0
0
0
0
0
0
0
0
0
0
0
0
0
0
0
0
0
0
0
0
0
0
0
0
0
0
0
0
0
0
0
0
0
0
0
0
0
0
0
0
0
0
0
0
0
0
0
0
0
0
0
0
0
0
0
0
0
0
0
0
0
0
0
0
0
0
0
0
0
0
0
0
0
0
0
0
0
0
0
0
0
0
0
0
0
0
0
0
0
0
0
0
0
0
0
0
0
0
0
0
0
0
0
0
0
0
0
0
0
0
0
0
0
0
0
0
0
0
0
0
0
0
0
0
0
0
0
0
0
0
0
0
0
0
0
0
0
0
0
0
0
0
0
0
0
0
0
0
0
0
0
0
0
0
0
0
0
0
0
0
0
0
0
0
0
0
0
0
0
0
0
0
0
0
0
0
0
0
0
0
0
0
0
0
0
0
0
0
0
0
0
0
0
0
0
0
0
0
0
0
0
0
0
0
0
0
0
0
0
0
0
0
0
0
0
0
0
0
0
0
0
0
0
0
0
0
0
0
0
0
0
0
0
0
0
0
0
0
0
0
0
0
0
0
0
0
0
0
0
0
0
0
0
0
0
0
0
0
0
0
0
0
0
0
0
0
0
0
0
0
0
0
0
0
0
0
0
0
0
0
0
0
0
0
0
0
0
0
0
0
0
0
0
0
0
0
0
0
0
0
0
0
0
0
0
0
0
0
0
0
0
0
0
0
0
0
0
0
0
0
0
0
0
0
0
0
0
0
0
0
0
0
0
0
0
0
0
0
0
0
0
0
0
0
0
0
0
0
0
0
0
0
0
0
0
0
0
0
0
0
0
0
0
0
0
0
0
0
0
0
0
0
0
0
0
0
0
0
0
0
0
0
0
0
0
0
0
0
0
0
0
0
0
0
0
0
0
0
0
0
0
0
0
0
0
0
0
0
0
0
0
0
0
0
0
0
0
0
0
0
0
0
0
0
0
0
0
0
0
0
0
0
0
0
0
0
0
0
0
0
0
0
0
0
0
0
0
0
0
0
0
0
0
0
0
0
0
0
0
0
0
0
0
0
0
0
0
0
0
0
0
0
0
0
0
0
0
0
0
0
0
0
0
0
0
0
0
0
0
0
0
0
0
0
0
0
0
0
0
0
0
0
0
0
0
0
0
0
0
0
0
0
0
0
0
0
0
0
0
0
0
0
0
0
0
0
0
0
0
0
0
0
0
0
0
0
0
0
0
0
0
0
0
0
0
0
0
0
0
0
0
0
0
0
0
0
0
0
0
0
0
0
0
0
0
0
0
0
0
0
0
0
0
0
0
0
0
0
0
0
0
0
0
0
0
0
0
0
0
0
0
0
0
0
0
0
0
0
0
0
0
0
0
0
0
0
0
0
0
0
0
0
0
0
0
0
0
0
0
0
0
0
0
0
0
0
0
0
0
0
0
0
0
0
0
0
0
0
0
0
0
0
0
0
0
0
0
0
0
0
0
0
0
0
0
0
0
0
0
0
0
0
0
0
0
0
0
0
0
0
0
0
0
0
0
0
0
0
0
0
0
0
0
0
0
0
0
0
0
0
0
0
0
0
0
0
0
0
0
0
0
0
0
0
0
0
0
0
0
0
0
0
0
0
0
0
0
0
0
0
0
0
0
0
0
0
0
0
0
0
0
0
0
0
0
0
0
0
0
0
0
0
0
0
0
0
0
0
0
0
0
0
0
0
0
0
0
0
0
0
0
0
0
0
0
0
0
0
0
0
0
0
0
0
0
0
0
0
0
0
0
0
0
0
0
0
0
0
0
0
0
0
0
0
0
0
0
0
0
0
0
0
0
0
0
0
0
0
0
0
0
0
0
0
0
0
0
0
0
0
0
0
0
0
0
0
0
0
0
0
0
0
0
0
0
0
0
0
0
0
0
0
0
0
0
0
0
0
0
0
0
0
0
0
0
0
0
0
0
0
0
0
0
0
0
0
0
0
0
0
0
0
0
0
0
0
0
0
0
0
0
0
0
0
0
0
0
0
0
0
0
0
0
0
0
0
0
0
0
0
0
0
0
0
0
0
0
0
0
0
0
0
0
0
0
0
0
0
0
0
0
0
0
0
0
0
0
0
0
0
0
0
0
0
0
0
0
0
0
0
0
0
0
0
0
0
0
0
0
0
0
0
0
0
0
0
0
0
0
0
0
0
0
0
0
0
0
0
0
0
0
0
0
0
0
0
0
0
0
0
0
0
0
0
0
0
0
0
0
0
0
0
0
0
0
0
0
0
0
0
0
0
0
0
0
0
0
0
0
0
0
0
0
0
0
0
0
0
0
0
0
0
0
0
0
0
0
0
0
0
0
0
0
0
0
0
0
0
0
0
0
0
0
0
0
0
0
0
0
0
0
0
0
0
0
0
0
0
0
0
0
0
0
0
0
0
0
0
0
0
0
0
0
0
0
0
0
0
0
0
0
0
0
0
0
0
0
0
0
0
0
0
0
0
0
0
0
0
0
0
0
0
0
0
0
0
0
0
0
0
0
0
0
0
0
0
0
0
0
0
0
0
0
0
0
0
0
0
0
0
0
0
0
0
0
0
0
0
0
0
0
0
0
0
