1.88372
1.96367
2.01195
2.02372
1.9973
1.9338
1.83641
1.70987
1.56282
1.40347
1.23851
1.07421
0.91654
0.770492
0.639445
0.525274
0.428003
0.345811
0.27516
0.211186
0.147314
0.0755987
-0.0120565
-0.123081
-0.273429
-0.463289
-0.685214
-0.925045
-0.920328
0
2.10762
5.35771
9.24281
12.8886
15.323
15.8368
14.2754
11.117
7.28695
3.79073
1.33618
0.121133
-0.128564
0.00398388
0.000584793
-0.00927486
-0.0244631
-0.0436199
-0.065362
-0.0884729
-0.111966
-0.134977
-0.156476
-0.174959
-0.188297
-0.193868
-0.188978
-0.171465
-0.140276
-0.095838
-0.0398561
0.0250797
0.0961678
0.171044
0.248208
0.327123
0.408024
0.491581
0.578553
0.669483
0.764825
0.864897
0.969847
1.07962
1.1939
1.31199
1.43286
1.5551
1.67712
1.79725
1.91395
2.02586
2.13187
2.23096
2.32191
2.40263
2.46959
2.51882
2.54644
2.54859
2.52227
2.46605
2.3804
2.26761
2.13142
1.97661
1.80972
1.63704
1.46361
1.29396
1.13214
0.981207
0.842939
0.717508
0.603064
0.496514
0.394358
0.293622
0.192642
0.0914612
-0.00824528
-0.103703
-0.191842
-0.270402
-0.337797
-0.393102
-0.437032
-0.470668
-0.494492
-0.507737
-0.508318
-0.493464
-0.459358
-0.397699
-0.312882
-0.220866
-0.141716
-0.0931516
-0.0851038
-0.117632
-0.182471
-0.266612
-0.355785
-0.438117
-0.507409
-0.558764
-0.587389
-0.590168
-0.56608
-0.51638
-0.4444
-0.354909
-0.253187
-0.144209
-0.0317832
0.0818691
0.195548
0.30859
0.420238
0.529154
0.633241
0.729681
0.815208
0.886394
0.937239
0.962875
0.960109
0.926858
0.86285
0.770265
0.65394
0.520999
0.379981
0.239847
0.107888
-0.0108227
-0.110997
-0.187491
-0.230954
-0.223637
-0.154533
-0.0515508
0.0438662
0.0888021
0.0519645
-0.0775412
-0.288967
-0.555294
-0.841252
-0.823043
0
1.77161
4.52836
8.00603
11.598
14.4635
15.8002
15.1826
12.7871
9.34634
5.82397
2.99036
1.15414
0.186347
-0.232727
-0.204232
-0.170131
-0.131107
-0.086129
-0.0350813
0.021275
0.081409
0.143274
0.204911
0.264585
0.321095
0.373961
0.423378
0.469915
0.5138
0.554498
0.590965
0.621936
0.647368
0.66989
0.695397
0.732228
0.788988
0.871799
0.981764
1.11111
1.25177
1.3968
1.53932
1.67378
1.7969
1.90794
2.00842
2.10145
2.19084
2.2803
2.3728
2.47019
2.57308
2.68096
2.79232
2.90463
3.01345
3.1125
3.1949
3.25376
3.28309
3.27845
3.23706
3.15772
3.0405
2.8869
2.70286
2.49657
2.27591
2.04914
1.82528
1.61337
1.42128
1.25587
1.12094
1.01403
0.92931
0.859205
0.79638
0.735321
0.673278
0.610402
0.54917
0.493373
0.446325
0.410235
0.386561
0.375981
0.377923
0.389541
0.406902
0.426505
0.446208
0.465658
0.486047
0.509224
0.536699
0.568608
0.601777
0.631012
0.650899
0.657905
0.65188
0.63635
0.61756
0.60273
0.598013
0.606098
0.627616
0.662837
0.712254
0.776142
0.854564
0.947134
1.0526
1.16899
1.29266
1.41683
1.53318
1.63317
1.70921
1.75546
1.76827
1.74617
1.68978
1.60168
1.48784
1.35552
1.2122
1.0661
0.925832
0.799127
0.691664
0.607664
0.549118
0.515938
0.506041
0.51381
0.528168
0.534935
0.519976
0.471193
0.380229
0.233005
0.0101906
-0.270574
-0.584335
-0.904363
-0.843333
0
1.73635
4.41418
7.84094
11.4848
14.5138
16.0337
15.4658
12.8701
8.99467
4.97976
1.85922
0.144764
-0.28765
0.0103504
0.194478
0.377212
0.557943
0.734946
0.902386
1.05018
1.16352
1.22735
1.23411
1.19029
1.11774
1.04797
1.0117
1.02853
1.08514
1.16577
1.26395
1.37266
1.48537
1.59703
1.70425
1.80484
1.89761
1.98221
2.05909
2.12949
2.19557
2.26055
2.32864
2.4047
2.49372
2.60013
2.72713
2.87573
3.04496
3.23235
3.43454
3.64732
3.8595
4.05512
4.21868
4.33828
4.4083
4.43025
4.41153
4.36257
4.29343
4.21202
4.12356
4.02996
3.93155
3.82821
3.71993
3.60715
3.49079
3.37226
3.25341
3.13639
3.02354
2.91714
2.81914
2.73079
2.65241
2.58299
2.52018
2.46071
2.40106
2.33826
2.27083
2.19937
2.12696
2.05922
2.0038
1.96916
1.96359
2.01055
2.151
2.38983
2.66613
2.90963
3.06565
3.11022
3.05121
2.91789
2.74705
2.57408
2.42719
2.31417
2.23236
2.17806
2.14739
2.13653
2.14131
2.15693
2.17894
2.20404
2.23045
2.25805
2.2881
2.32291
2.36509
2.41795
2.48601
2.58002
2.72702
2.9666
3.27611
3.58017
3.79309
3.85017
3.73145
3.46788
3.1262
2.78024
2.4858
2.24552
2.03771
1.85095
1.68209
1.53048
1.3949
1.27367
1.16511
1.06728
0.977498
0.89268
0.809167
0.722596
0.625844
0.501656
0.328119
0.108037
-0.14046
-0.401645
0
1.35292
3.75009
6.9645
10.4207
13.3214
14.8981
14.6965
12.766
9.65481
6.19946
3.20361
1.15598
0.116806
-0.194161
-0.161309
-0.113338
-0.0563477
0.0133568
0.0996525
0.206812
0.337706
0.488044
0.641316
0.775863
0.872034
0.917821
0.912693
0.868274
0.805315
0.747791
0.716232
0.717906
0.747191
0.797343
0.864418
0.945808
1.03877
1.14046
1.24798
1.35844
1.469
1.57716
1.68111
1.78016
1.87506
1.9681
2.06292
2.16408
2.27643
2.40434
2.55109
2.72026
2.91723
3.14852
3.41228
3.68306
3.9232
4.09599
4.17325
4.14227
4.00947
3.79903
3.54724
3.29412
3.06824
2.87105
2.69375
2.52902
2.37193
2.21784
2.06302
1.9058
1.74734
1.5917
1.44515
1.31479
1.20998
1.14041
1.10708
1.10178
1.11129
1.1203
1.11458
1.08341
1.02131
0.929065
0.813998
0.687868
0.571365
0.485751
0.446908
0.46028
0.51898
0.6061
0.70042
0.78307
0.845677
0.887477
0.909886
0.917135
0.9145
0.907546
0.900054
0.894968
0.895075
0.903369
0.92375
0.959619
1.01365
1.08684
1.18217
1.29536
1.41522
1.52979
1.63048
1.71516
1.7887
1.86081
1.9418
2.04164
2.16134
2.28568
2.39195
2.45818
2.46995
2.42353
2.32505
2.18719
2.02491
1.85246
1.67936
1.50972
1.34508
1.18617
1.0336
0.888105
0.750665
0.621623
0.500225
0.384084
0.268744
0.147768
0.0116219
-0.164572
-0.391174
-0.663726
-0.96387
-0.997874
0
2.28094
5.72849
9.7792
13.5336
16.0109
16.4976
14.8461
11.5633
7.61142
4.00534
1.41866
-0.000764465
-0.536579
-0.592538
-0.53684
-0.473808
-0.40255
-0.324074
-0.241386
-0.158955
-0.0815849
-0.0131836
0.0447235
0.092794
0.132432
0.165636
0.19535
0.225018
0.257932
0.297652
0.34782
0.404116
0.453944
0.483554
0.485735
0.466
0.443302
0.44384
0.490163
0.590834
0.725356
0.876382
1.02753
1.16511
1.28197
1.37904
1.46393
1.54741
1.63899
1.74281
1.85756
1.97506
2.08317
2.17042
2.23006
2.26229
2.27426
2.27781
2.28584
2.30861
2.35183
2.41765
2.49422
2.56087
2.59612
2.58345
2.51503
2.39268
2.22645
2.03166
1.82552
1.62366
1.43439
1.26044
1.10293
0.963979
0.843523
0.739459
0.649332
0.571339
0.505533
0.453129
0.41647
0.398048
0.399493
0.42093
0.460858
0.516425
0.583841
0.659016
0.737062
0.808911
0.8639
0.892166
0.887876
0.852139
0.793808
0.72724
0.667624
0.625903
0.603135
0.594855
0.597322
0.607233
0.623711
0.649098
0.688317
0.747173
0.830302
0.936719
1.0622
1.2028
1.35342
1.50814
1.65868
1.79709
1.91781
2.01902
2.10322
2.17667
2.2473
2.32688
2.4216
2.51432
2.57278
2.56486
2.47417
2.30765
2.09236
1.86415
1.65515
1.4773
1.3247
1.19272
1.08044
0.986724
0.910055
0.847585
0.791486
0.729846
0.649606
0.538903
0.389576
0.188438
-0.057642
-0.333068
-0.616726
-0.697359
0
1.58232
4.18428
7.65019
11.4364
14.6769
16.4557
16.193
13.9417
10.3997
6.60137
3.45723
1.40858
0.38101
0.00254822
-0.0282223
-0.00598068
0.0282875
0.0757774
0.135124
0.202399
0.271867
0.337357
0.39402
0.440078
0.476613
0.505542
0.530022
0.553627
0.579546
0.609851
0.645528
0.686949
0.734107
0.786858
0.845177
0.909177
0.978932
1.05416
1.13437
1.21814
1.30266
1.38549
1.46594
1.54606
1.63059
1.72574
1.83692
1.96868
2.12197
2.27895
2.41507
2.50804
2.54638
2.53404
2.48947
2.44025
2.44398
2.67724
3.12028
3.59734
3.9318
4.01173
3.82689
3.4563
3.01792
2.62593
2.38883
2.29155
2.24811
2.21983
2.19083
2.14592
2.07461
1.97401
1.84921
1.71087
1.5708
1.43784
1.3136
1.19736
1.08834
0.985909
0.8903
0.802709
0.7247
0.657371
0.600334
0.552408
0.511666
0.476245
0.445225
0.419281
0.400883
0.393986
0.403337
0.441133
0.54133
0.773242
1.14452
1.54633
1.86419
1.99592
1.88263
1.54401
1.09079
0.694612
0.517308
0.558869
0.670599
0.799097
0.931023
1.05989
1.18255
1.29902
1.41148
1.52277
1.63493
1.74816
1.86029
1.9672
2.06357
2.14363
2.19944
2.22169
2.20411
2.14143
2.03058
1.87243
1.6732
1.44482
1.2037
0.968233
0.753235
0.564643
0.407665
0.28518
0.196668
0.13712
0.0939823
0.0498734
-0.0129272
-0.110031
-0.281399
-0.572445
-0.961246
-1.41157
-1.88906
-1.43405
0
2.43379
5.68391
9.32203
12.695
15.0321
15.6794
14.3818
11.4483
7.66707
3.98596
1.13298
-0.608625
-1.37582
-1.46957
-1.31121
-1.14849
-0.988218
-0.836521
-0.698024
-0.572309
-0.45697
-0.350004
-0.249947
-0.155705
-0.0665478
0.017205
0.0932493
0.157391
0.204928
0.231477
0.235583
0.221034
0.197664
0.179891
0.183183
0.219617
0.29085
0.388339
0.504807
0.632624
0.763811
0.891788
1.01234
1.12385
1.22703
1.32428
1.41873
1.51338
1.6104
1.71082
1.81456
1.92064
2.0276
2.13392
2.2384
2.34019
2.43851
2.532
2.61767
2.69003
2.74154
2.76271
2.744
2.67821
2.56277
2.40127
2.20371
1.98525
1.76357
1.55374
1.36382
1.20062
1.06519
0.952678
0.855396
0.765625
0.67814
0.591673
0.508883
0.434914
0.375076
0.332645
0.311075
0.302744
0.295414
0.276968
0.240284
0.186435
0.124839
0.0701756
0.037236
0.0356718
0.0596096
0.103747
0.160539
0.218788
0.268054
0.301217
0.316041
0.315394
0.306153
0.297197
0.297086
0.311482
0.341279
0.385063
0.440864
0.506271
0.578755
0.656268
0.737636
0.822633
0.911746
1.00569
1.10481
1.20875
1.31583
1.4221
1.52181
1.60807
1.67356
1.71037
1.7103
1.66766
1.57879
1.44311
1.26414
1.05025
0.814433
0.57317
0.344131
0.142147
-0.0234385
-0.138575
-0.185869
-0.14877
-0.0430349
0.0773213
0.158023
0.155192
0.045924
-0.164728
-0.446104
-0.754312
-1.04724
-0.946105
0
1.72821
4.27543
7.48438
10.8969
13.7625
15.2434
14.7703
12.3622
8.69794
4.84873
1.80256
0.0525975
-0.512034
-0.383508
-0.183773
0.0103601
0.192958
0.357611
0.500203
0.621602
0.721188
0.798155
0.853951
0.891588
0.914123
0.925735
0.931037
0.934392
0.939416
0.949226
0.96606
0.99212
1.03033
1.08474
1.16029
1.26179
1.39239
1.55218
1.73719
1.93801
2.14502
2.34759
2.53477
2.69563
2.82348
2.9181
2.98413
3.03036
3.06842
3.11101
3.16972
3.25266
3.36268
3.49449
3.63992
3.78908
3.93087
4.05463
4.15043
4.21111
4.23319
4.21588
4.16059
4.07039
3.94948
3.80273
3.63516
3.45173
3.25795
3.05924
2.86031
2.66598
2.48136
2.31137
2.16056
2.03302
1.9307
1.8511
1.78969
1.7413
1.70158
1.66791
1.63957
1.61705
1.60089
1.59111
1.58495
1.57768
1.56386
1.53892
1.50071
1.45033
1.392
1.33225
1.27845
1.23623
1.20866
1.19751
1.20308
1.22383
1.25667
1.29787
1.34324
1.38855
1.43097
1.46988
1.50687
1.54531
1.58931
1.64242
1.70658
1.78151
1.86445
1.95241
2.04281
2.1339
2.22489
2.31536
2.4038
2.48458
2.54672
2.5755
2.55685
2.48218
2.35135
2.17271
1.96061
1.73187
1.50301
1.28417
1.08093
0.899319
0.744876
0.621933
0.535093
0.488945
0.48646
0.526037
0.59416
0.663036
0.70519
0.699557
0.636563
0.520677
0.369051
0
0.265792
1.68599
4.38549
7.93892
11.4698
13.9921
14.8155
13.8034
11.3729
8.2714
5.26686
2.89718
1.36779
0.599416
0.369513
0.405394
0.436764
0.464031
0.4868
0.506082
0.524058
0.543538
0.567272
0.597316
0.634486
0.678659
0.7292
0.785351
0.846696
0.9135
0.986813
1.06815
1.15899
1.26018
1.37141
1.49115
1.61654
1.74229
1.86203
1.97054
2.06535
2.14769
2.22242
2.2969
2.37896
2.47475
2.58668
2.71227
2.84753
2.98834
3.13063
3.27124
3.40852
3.54229
3.6734
3.80294
3.93147
4.05761
4.17646
4.28003
4.35908
4.40531
4.41348
4.38265
4.31618
4.22057
4.10358
3.97222
3.8324
3.68753
3.53919
3.38818
3.23531
3.08186
2.92973
2.78137
2.63961
2.50737
2.38743
2.28222
2.19362
2.1228
2.07107
2.04039
2.02867
2.02693
2.02453
2.01194
1.98362
1.93985
1.88656
1.83316
1.78928
1.7609
1.74708
1.74573
1.75421
1.76884
1.78569
1.80114
1.81206
1.81662
1.81455
1.80756
1.79958
1.79684
1.80709
1.83831
1.89704
1.9868
2.10716
2.25358
2.41817
2.59094
2.76157
2.9214
3.06296
3.18032
3.26892
3.32426
3.343
3.32272
3.26173
3.15962
3.01809
2.8417
2.63825
2.41855
2.19551
1.9822
1.78981
1.62917
1.5083
1.42922
1.38787
1.37573
1.37953
1.3815
1.36389
1.3112
1.21158
1.05601
0.78858
0.410994
-0.0380522
-0.511717
-0.680531
0
1.7262
4.59133
8.34496
12.325
15.5819
17.1988
16.6782
14.1849
10.4964
6.67504
3.63895
1.84272
1.20831
1.28698
1.22451
1.10238
0.957229
0.810614
0.694875
0.64103
0.666052
0.765895
0.917787
1.09032
1.25562
1.40004
1.52723
1.63517
1.7212
1.78376
1.82128
1.83389
1.82527
1.80335
1.77953
1.76635
1.77479
1.8081
1.864
1.94063
2.03609
2.14723
2.27015
2.40063
2.53447
2.66767
2.79676
2.91891
3.03224
3.13614
3.23127
3.31946
3.40335
3.48584
3.56947
3.65592
3.74492
3.83269
3.91239
3.97557
4.01385
4.0205
3.99155
3.92621
3.82673
3.69773
3.54516
3.37588
3.19622
3.01142
2.8254
2.64134
2.4624
2.29207
2.13434
1.9933
1.87265
1.77522
1.7024
1.65376
1.62722
1.61953
1.62575
1.63923
1.65345
1.66305
1.66439
1.65557
1.63614
1.60647
1.5673
1.51962
1.46528
1.40671
1.34759
1.29384
1.25246
1.22988
1.23052
1.26068
1.31253
1.37324
1.4298
1.47392
1.50484
1.52876
1.55575
1.59552
1.65323
1.72655
1.81329
1.91251
2.02343
2.1454
2.27842
2.42348
2.5798
2.73856
2.88288
2.9933
3.05257
3.0498
2.98222
2.85458
2.67698
2.46286
2.22904
1.99306
1.76679
1.55821
1.37389
1.22488
1.12132
1.05591
1.01397
0.977757
0.931091
0.862734
0.767714
0.646425
0.5025
0.340652
0.166728
-0.0156997
-0.203322
-0.392848
0
1.22124
3.37928
6.37485
9.84268
13.1562
15.5438
16.3331
15.2417
12.5461
9.00212
5.53334
2.85615
1.25118
0.582093
0.534088
0.5681
0.599378
0.623874
0.639765
0.64802
0.652294
0.658145
0.671726
0.698283
0.740378
0.79859
0.871407
0.953501
1.03885
1.12259
1.20227
1.27825
1.35298
1.42954
1.5101
1.59467
1.68125
1.76692
1.84859
1.92413
1.99314
2.05729
2.11999
2.18567
2.25883
2.34294
2.43977
2.54965
2.67154
2.80295
2.9402
3.07888
3.21417
3.3415
3.45698
3.55773
3.642
3.70902
3.7585
3.7902
3.80437
3.80109
3.78032
3.742
3.68619
3.61314
3.52328
3.41715
3.29565
3.16022
3.01223
2.85363
2.68715
2.51634
2.34543
2.17898
2.0215
1.87697
1.74857
1.63842
1.54742
1.47557
1.42215
1.38601
1.36565
1.35922
1.36472
1.3791
1.39682
1.40991
1.40974
1.38851
1.34086
1.26523
1.16442
1.0454
0.918177
0.794313
0.685359
0.600838
0.547069
0.526611
0.5384
0.578502
0.641287
0.72074
0.811565
0.909361
1.01124
1.11551
1.22098
1.32644
1.43027
1.53031
1.6237
1.70677
1.77571
1.82754
1.85998
1.87164
1.862
1.83115
1.77933
1.70656
1.61242
1.49718
1.36238
1.20968
1.04121
0.860823
0.674078
0.487937
0.310026
0.148246
0.00926457
-0.102867
-0.1856
-0.233136
-0.256108
-0.276848
-0.319595
-0.403443
-0.536143
-0.71107
-0.908657
-0.922626
0
1.92403
4.71853
8.00934
11.2034
13.5895
14.5379
13.7451
11.3906
8.09538
4.68673
1.88307
0.0648542
-0.771448
-0.834263
-0.634035
-0.439298
-0.261864
-0.111154
0.00707436
0.0977314
0.167003
0.218469
0.25704
0.288234
0.317406
0.349063
0.386304
0.430665
0.482453
0.541138
0.605656
0.674701
0.746969
0.821296
0.896685
0.972284
1.04735
1.1212
1.19345
1.26432
1.33484
1.40686
1.48287
1.56535
1.65618
1.75601
1.86405
1.9782
2.09627
2.2163
2.33701
2.45769
2.57766
2.69563
2.80905
2.91411
3.00619
3.08061
3.13349
3.16225
3.16569
3.14364
3.09642
3.02453
2.92966
2.81364
2.67845
2.52708
2.364
2.19511
2.02718
1.86705
1.72083
1.59318
1.4866
1.40109
1.33456
1.28336
1.24303
1.2091
1.17775
1.14641
1.11407
1.08139
1.05045
1.02423
1.0059
0.998963
1.00692
1.0291
1.05757
1.08194
1.0929
1.08562
1.06153
1.02779
0.994515
0.971001
0.961952
0.964698
0.97552
0.990326
1.00517
1.01765
1.02788
1.03884
1.05606
1.0866
1.1369
1.21156
1.31272
1.44226
1.60102
1.77337
1.93934
2.0798
2.18073
2.2352
2.24276
2.20688
2.13206
2.02213
1.88613
1.72888
1.55316
1.36282
1.16293
0.959643
0.75961
0.568985
0.394032
0.240767
0.117595
0.0368711
0.00318089
-0.000284576
0.00137157
-0.0193352
-0.0855335
-0.210881
-0.397569
-0.637444
-0.914997
-1.21046
-1.03347
0
2.08108
5.11862
8.64022
11.8754
13.9925
14.4095
13.0369
10.3206
7.04735
4.00959
1.71764
0.298617
-0.40605
-0.504895
-0.45587
-0.398427
-0.336006
-0.273998
-0.218493
-0.174361
-0.143752
-0.125089
-0.113091
-0.100056
-0.0781801
-0.0367414
0.0252285
0.0938995
0.150183
0.180026
0.182817
0.173082
0.174305
0.208125
0.284748
0.389957
0.508466
0.631945
0.753838
0.86939
0.976043
1.07314
1.1612
1.24085
1.3125
1.37643
1.43285
1.48248
1.527
1.56914
1.61225
1.65952
1.71305
1.77297
1.83762
1.90331
1.96493
2.01694
2.05417
2.07251
2.06924
2.04312
1.99419
1.92349
1.83301
1.725
1.60148
1.46449
1.31632
1.15979
0.998048
0.83474
0.674155
0.520938
0.379588
0.253946
0.146673
0.0590467
-0.00899048
-0.0585705
-0.0915327
-0.110089
-0.116576
-0.113481
-0.103473
-0.0894934
-0.0748806
-0.0638203
-0.0607456
-0.0690556
-0.0902197
-0.122935
-0.163131
-0.203673
-0.236376
-0.254077
-0.252493
-0.231132
-0.19293
-0.142766
-0.0855312
-0.0247559
0.0382488
0.103784
0.172745
0.245726
0.322419
0.401877
0.482978
0.565177
0.649073
0.736506
0.830081
0.932259
1.04478
1.16856
1.30008
1.42763
1.53495
1.60606
1.62901
1.59824
1.51493
1.38556
1.21933
1.0259
0.815862
0.599198
0.382948
0.172864
-0.0252964
-0.205793
-0.363791
-0.495327
-0.597169
-0.669549
-0.719196
-0.756489
-0.792557
-0.836974
-0.895844
-0.970734
-1.05863
-1.15291
-0.947133
0
1.90639
4.74447
8.14417
11.4349
13.8254
14.6629
13.6839
11.1421
7.73152
4.31268
1.57497
-0.184307
-1.05073
-1.20956
-0.949223
-0.675772
-0.388011
-0.0877438
0.212341
0.484852
0.701575
0.837543
0.874032
0.80496
0.646189
0.440787
0.252264
0.144036
0.14383
0.213938
0.316961
0.435469
0.560266
0.683569
0.799926
0.906778
1.00441
1.09537
1.18349
1.27275
1.36633
1.46593
1.5715
1.68175
1.79472
1.90829
2.02064
2.13054
2.2374
2.34113
2.44186
2.53974
2.63469
2.72628
2.8136
2.89502
2.96819
3.03062
3.0795
3.11191
3.12505
3.1165
3.08442
3.02779
2.94663
2.84237
2.71881
2.58036
2.4318
2.27852
2.12598
1.97905
1.84171
1.71704
1.60721
1.51373
1.43808
1.3813
1.34365
1.3247
1.32293
1.33667
1.36178
1.39218
1.42154
1.44438
1.45703
1.4582
1.44901
1.43265
1.41366
1.3971
1.38717
1.38713
1.40081
1.43258
1.48012
1.53107
1.57046
1.58621
1.57476
1.54391
1.51163
1.50062
1.53096
1.60783
1.71963
1.85663
2.01243
2.17978
2.35193
2.52391
2.69267
2.85663
3.01538
3.16912
3.31727
3.45623
3.57655
3.66225
3.69425
3.65121
3.51408
3.27255
2.93143
2.51392
2.05931
1.61477
1.21607
0.868469
0.633403
0.62652
0.867862
1.20623
1.5031
1.66058
1.63589
1.44303
1.13598
0.780666
0.432595
0.121355
-0.1651
-0.429699
0
1.33122
3.76906
7.16639
10.9684
14.3317
16.3916
16.5766
14.8377
11.6777
7.9563
4.55403
2.06294
0.648329
0.119427
0.170291
0.277282
0.382257
0.480623
0.568946
0.645435
0.711406
0.768593
0.818689
0.863376
0.904185
0.942291
0.978433
1.01297
1.04604
1.07773
1.10824
1.13795
1.16738
1.19707
1.22749
1.25909
1.29243
1.32854
1.36925
1.41733
1.47634
1.55
1.64132
1.75166
1.88007
2.02262
2.17372
2.3272
2.47677
2.61682
2.74287
2.8516
2.9407
3.00933
3.05848
3.09021
3.10757
3.11455
3.11581
3.11602
3.11901
3.12756
3.14103
3.15163
3.14762
3.11705
3.0519
2.95113
2.82105
2.67301
2.51922
2.36852
2.22276
2.08026
1.93896
1.79696
1.6539
1.51181
1.37525
1.2507
1.14523
1.06868
1.03527
1.05724
1.12673
1.21183
1.27668
1.29208
1.2441
1.13857
0.999699
0.862431
0.760276
0.710453
0.700797
0.713868
0.741984
0.77814
0.817139
0.856442
0.896015
0.937448
0.982822
1.0335
1.08988
1.15217
1.22058
1.29533
1.37667
1.46464
1.55879
1.65792
1.75806
1.8524
1.93293
1.99188
2.02312
2.02292
1.99017
1.92595
1.83308
1.71637
1.58317
1.44026
1.29378
1.14958
1.0128
0.88685
0.773883
0.673058
0.580192
0.489545
0.395338
0.292901
0.179099
0.0550175
-0.0758734
-0.209246
-0.341171
-0.46845
-0.590747
-0.708924
-0.823721
-0.727367
0
1.58291
4.09982
7.35258
10.7941
13.5878
14.8641
14.1043
11.4383
7.64869
3.84035
0.957987
-0.572267
-0.897712
-0.530416
-0.338908
-0.168607
-0.0322138
0.0642288
0.132654
0.179738
0.208793
0.223396
0.226913
0.222531
0.213507
0.203422
0.196224
0.19595
0.206209
0.229555
0.266666
0.317067
0.379356
0.451587
0.531948
0.619219
0.713258
0.815142
0.927891
1.05771
1.20813
1.36104
1.48597
1.55195
1.54268
1.46837
1.36707
1.2926
1.29309
1.39023
1.5423
1.71534
1.89327
2.06231
2.21136
2.33316
2.42439
2.48495
2.51666
2.52204
2.50392
2.46414
2.40369
2.3236
2.22558
2.11264
1.98935
1.86176
1.73658
1.62038
1.52131
1.44922
1.40074
1.36212
1.316
1.24815
1.15297
1.03527
0.907549
0.784466
0.677526
0.587049
0.511523
0.451767
0.408894
0.384792
0.381875
0.402164
0.449051
0.527196
0.628492
0.732173
0.815622
0.861274
0.861869
0.822027
0.755842
0.681832
0.617579
0.573488
0.549958
0.545484
0.560224
0.593787
0.644792
0.711049
0.789838
0.878193
0.973709
1.07482
1.18105
1.29296
1.41243
1.54249
1.68606
1.84377
2.01073
2.17168
2.30225
2.3751
2.3625
2.24232
2.0077
1.67661
1.29472
0.926105
0.633126
0.424632
0.269994
0.158262
0.0824077
0.033316
-0.000508499
-0.032594
-0.0749713
-0.13665
-0.222847
-0.334796
-0.470704
-0.625421
-0.792285
-0.964281
-1.13475
-0.858831
0
1.59011
3.99811
7.0458
10.2361
12.8347
14.0924
13.5384
11.216
7.72854
4.03331
1.06027
-0.65312
-1.12116
-0.799529
-0.675041
-0.5632
-0.471591
-0.403793
-0.358994
-0.332916
-0.319614
-0.31343
-0.310125
-0.308002
-0.306876
-0.307262
-0.309375
-0.31236
-0.314006
-0.311045
-0.299876
-0.277424
-0.242204
-0.194537
-0.13505
-0.0648957
0.0145399
0.101857
0.1956
0.294021
0.394966
0.495338
0.591536
0.680368
0.760017
0.830809
0.895451
0.958592
1.0258
1.10227
1.19121
1.29314
1.40684
1.52982
1.65847
1.78826
1.9142
2.03115
2.13358
2.21519
2.27039
2.29533
2.28746
2.24625
2.17378
2.07465
1.95522
1.82241
1.68243
1.54027
1.39899
1.26067
1.12758
1.00234
0.888161
0.78886
0.708246
0.648832
0.611773
0.596521
0.600756
0.620623
0.651204
0.687136
0.72324
0.755105
0.779769
0.795455
0.800881
0.795757
0.780779
0.757662
0.728977
0.698183
0.669353
0.646405
0.632563
0.630137
0.640326
0.663627
0.700288
0.75062
0.814992
0.893481
0.98535
1.08865
1.20002
1.31559
1.43152
1.54461
1.65285
1.75524
1.8501
1.93468
2.0058
2.05841
2.08681
2.08678
2.05716
2.00008
1.91973
1.82064
1.70651
1.58245
1.45255
1.32001
1.18864
1.06286
0.94729
0.846723
0.763259
0.696376
0.643467
0.600567
0.563139
0.526616
0.486619
0.439026
0.380154
0.307836
0.220956
0.120569
0.0101975
-0.104491
0
0.974121
2.99731
5.99268
9.55253
13.0031
15.5712
16.6189
15.8604
13.4755
10.0591
6.42046
3.32037
1.25642
0.370077
0.498886
1.15454
1.73562
2.16564
2.39426
2.45818
2.4664
2.44019
2.40123
2.36832
2.35326
2.35832
2.3842
2.43157
2.49983
2.58795
2.69395
2.81168
2.92867
3.03093
3.10727
3.15265
3.17046
3.17266
3.17753
3.20526
3.27258
3.3832
3.52822
3.69723
3.88087
4.06942
4.25294
4.42306
4.57411
4.70377
4.81298
4.90539
4.98652
5.06264
5.13987
5.22349
5.31842
5.43
5.56209
5.70615
5.83757
5.92683
5.94811
5.88825
5.75223
5.56192
5.34779
5.13676
4.94077
4.75395
4.56963
4.38362
4.19282
3.99589
3.7938
3.58971
3.38842
3.19535
3.01553
2.85263
2.70833
2.5822
2.47191
2.37407
2.28513
2.20232
2.12435
2.05169
1.98636
1.93137
1.89026
1.86646
1.86184
1.87466
1.89798
1.92084
1.93166
1.92065
1.88181
1.81404
1.72139
1.61228
1.49811
1.39126
1.3015
1.23623
1.20161
1.20125
1.23634
1.30588
1.4071
1.53583
1.68613
1.85074
2.02318
2.1957
2.35815
2.49927
2.60796
2.67428
2.69003
2.64972
2.55165
2.39886
2.19974
1.96762
1.71911
1.47142
1.23807
1.02482
0.833138
0.663628
0.514414
0.381992
0.262171
0.150873
0.0448496
-0.0582838
-0.160021
-0.260928
-0.360746
-0.458555
-0.553221
-0.643557
-0.728502
-0.673838
0
1.57508
4.16875
7.52336
11.0067
13.7813
15.0935
14.566
12.3601
9.1184
5.70114
2.84238
0.904263
-0.151218
-0.591225
-0.479441
-0.367116
-0.256617
-0.151434
-0.0555767
0.0277891
0.0985846
0.15974
0.214618
0.267427
0.322953
0.385883
0.459814
0.547297
0.649897
0.767832
0.8998
1.04298
1.19331
1.34582
1.49532
1.63731
1.76879
1.8887
1.99803
2.09942
2.19652
2.2933
2.39334
2.49944
2.61359
2.73695
2.86994
3.01224
3.16271
3.31928
3.47887
3.63724
3.78883
3.92765
4.04798
4.14498
4.2152
4.25683
4.26969
4.25505
4.2154
4.1541
4.07542
3.98312
3.88052
3.77007
3.65312
3.53003
3.40028
3.26291
3.11728
2.96364
2.80353
2.63994
2.47718
2.32052
2.1756
2.04774
1.94162
1.86354
1.82069
1.80916
1.81279
1.81278
1.79335
1.74668
1.67504
1.58916
1.50374
1.43198
1.37861
1.34024
1.31364
1.29606
1.28419
1.2747
1.26475
1.25213
1.23522
1.21307
1.18521
1.15179
1.11366
1.07247
1.03092
0.993219
0.965242
0.953703
0.965664
1.00763
1.08448
1.19849
1.34858
1.53001
1.7411
1.97027
2.19498
2.39095
2.53759
2.62047
2.63214
2.57169
2.44383
2.25818
2.0288
1.7744
1.51517
1.26694
1.03894
0.835355
0.658975
0.511866
0.393622
0.301721
0.232203
0.180367
0.141417
0.110951
0.0852638
0.0614612
0.037466
0.0119626
-0.0156779
-0.0454779
-0.081244
0
0.643528
2.2082
4.80002
8.07653
11.2511
13.3542
13.652
12.0045
8.94847
5.44178
2.41624
0.39826
-0.595216
-0.877435
-0.694725
-0.521436
-0.361753
-0.226733
-0.125359
-0.0614638
-0.0318161
-0.0265044
-0.0318512
-0.0348697
-0.0274307
-0.00983396
0.0134731
0.0379289
0.0594635
0.0762711
0.089693
0.103971
0.125023
0.158705
0.208186
0.273536
0.352988
0.443776
0.542485
0.6455
0.749614
0.852381
0.952192
1.04815
1.13992
1.22754
1.31142
1.39227
1.4711
1.54909
1.62742
1.70697
1.78813
1.87052
1.95302
2.03362
2.10907
2.17497
2.22695
2.26097
2.27413
2.26534
2.23583
2.18916
2.13072
2.06681
2.00329
1.94377
1.88914
1.83825
1.78406
1.71373
1.61286
1.47016
1.2823
1.05687
0.812247
0.574143
0.376753
0.293622
0.363508
0.524697
0.686791
0.77202
0.740531
0.596918
0.384109
0.170268
0.0300027
0.00216608
0.0597552
0.197806
0.411217
0.649742
0.858357
0.993829
1.03577
0.989413
0.881073
0.749297
0.63442
0.565031
0.54129
0.552119
0.587515
0.640098
0.703931
0.773615
0.844136
0.911222
0.972324
1.027
1.07706
1.12642
1.18068
1.24634
1.33687
1.48041
1.70532
1.98578
2.25561
2.44946
2.52311
2.46191
2.28061
2.01758
1.72409
1.44909
1.21616
1.0186
0.845329
0.690679
0.553317
0.433297
0.330369
0.243346
0.16791
0.0966909
0.0209159
-0.06828
-0.178391
-0.319886
-0.50104
-0.716738
-0.957031
-1.2093
-0.981426
0
1.94625
4.8352
8.30965
11.7145
14.2605
15.272
14.4287
11.9026
8.31934
4.54309
1.37331
-0.7121
-1.65677
-1.71325
-1.32296
-0.920557
-0.528526
-0.180722
0.0742861
0.25176
0.379497
0.471234
0.527617
0.552946
0.554829
0.543363
0.529989
0.52551
0.537521
0.571096
0.629321
0.712328
0.81722
0.940012
1.07322
1.2096
1.34383
1.47354
1.59942
1.72426
1.85123
1.98217
2.11671
2.24992
2.37366
2.47946
2.56149
2.6186
2.65479
2.67786
2.69707
2.72051
2.75231
2.79266
2.84016
2.89254
2.94676
2.99942
3.04686
3.0851
3.11042
3.11952
3.1096
3.0786
3.02542
2.95015
2.85403
2.73943
2.60959
2.46903
2.32223
2.1732
2.02572
1.88325
1.74862
1.62413
1.51169
1.41302
1.32981
1.26356
1.2165
1.19199
1.19041
1.20398
1.2201
1.22532
1.20913
1.16732
1.10348
1.02826
0.956325
0.902054
0.872495
0.86843
0.889931
0.925946
0.962058
0.984946
0.986346
0.965242
0.927734
0.884949
0.849931
0.833833
0.840449
0.869796
0.92151
0.994415
1.08552
1.19134
1.30622
1.42253
1.53376
1.63612
1.72957
1.81783
1.90741
2.01026
2.14387
2.30506
2.46284
2.57505
2.60511
2.53486
2.36958
2.1354
1.87097
1.6156
1.39109
1.19504
1.0193
0.859007
0.712558
0.578962
0.458262
0.350969
0.257388
0.176883
0.108362
0.0468741
-0.0164475
-0.0912283
-0.185069
-0.300983
-0.436076
-0.582083
-0.714512
0
1.75194
4.49105
7.87405
11.3124
14.0759
15.4675
15.0519
12.8607
9.44663
5.71152
2.55181
0.500141
-0.434764
-0.644239
-0.5525
-0.457335
-0.358377
-0.255705
-0.153743
-0.0589194
0.0233835
0.0917205
0.150072
0.206998
0.277366
0.37719
0.49104
0.580357
0.604989
0.548282
0.42973
0.298149
0.210264
0.206635
0.269858
0.366366
0.481962
0.607798
0.734891
0.856939
0.971593
1.0809
1.19076
1.31714
1.51367
1.79341
2.08997
2.29989
2.34226
2.20848
1.97295
1.76045
1.68976
1.82125
2.04882
2.31811
2.6022
2.86136
3.06145
3.18031
3.21161
3.16536
3.06399
2.9345
2.7985
2.66457
2.5278
2.38256
2.22483
2.05156
1.86309
1.66343
1.45959
1.26039
1.07405
0.907809
0.769102
0.66287
0.591969
0.56012
0.582967
0.66632
0.779748
0.886375
0.954838
0.970815
0.941852
0.892139
0.849411
0.830798
0.832373
0.839696
0.839377
0.820553
0.778949
0.718173
0.648129
0.581499
0.529251
0.494877
0.477908
0.477777
0.493724
0.524568
0.569306
0.627414
0.69875
0.783156
0.879966
0.987622
1.1033
1.22366
1.34516
1.46418
1.57694
1.67951
1.768
1.83828
1.88544
1.90399
1.88896
1.83641
1.74451
1.61474
1.45244
1.26676
1.06969
0.874269
0.692093
0.529814
0.391904
0.280318
0.194248
0.130703
0.0851443
0.0519745
0.0248659
-0.00333023
-0.0410071
-0.0963538
-0.176258
-0.286509
-0.428104
-0.595741
-0.79121
-0.836276
0
1.97745
5.00716
8.59978
11.9611
14.2109
14.6721
13.1475
10.0545
6.30593
2.94213
0.689091
-0.302725
-0.39007
-0.231997
-0.189277
-0.155987
-0.131677
-0.114972
-0.103616
-0.0946579
-0.0847122
-0.0703517
-0.04839
-0.0160404
0.0288275
0.087432
0.159863
0.244935
0.340171
0.442083
0.546341
0.648102
0.743066
0.828171
0.902044
0.965075
1.01915
1.06715
1.11236
1.15812
1.20741
1.26306
1.32776
1.40395
1.49362
1.59785
1.71633
1.84715
1.98671
2.13054
2.27388
2.41258
2.54377
2.66626
2.78039
2.88689
2.98576
3.07497
3.14918
3.19933
3.21456
3.18606
3.11063
2.99244
2.84234
2.67524
2.50651
2.34727
2.20131
2.06998
1.95433
1.85393
1.76718
1.69132
1.62311
1.55952
1.49812
1.43755
1.37756
1.31898
1.26341
1.21287
1.16944
1.13549
1.11311
1.10355
1.10731
1.12383
1.15135
1.18686
1.22643
1.26565
1.30032
1.32731
1.34469
1.3517
1.34881
1.33758
1.32037
1.30012
1.28015
1.2641
1.25601
1.25964
1.2782
1.31376
1.36693
1.43657
1.52003
1.61358
1.71325
1.8155
1.91775
2.0185
2.1167
2.21117
2.29936
2.37613
2.43424
2.465
2.46015
2.41404
2.32521
2.19694
2.03668
1.85452
1.66148
1.468
1.28073
1.10374
0.940512
0.793435
0.663478
0.550028
0.450855
0.362026
0.277945
0.192271
0.0988317
-0.0093998
-0.13992
-0.291163
-0.456341
-0.62492
-0.682427
0
1.51914
3.93255
7.03912
10.3242
13.0299
14.3819
13.9061
11.6736
8.3128
4.75918
1.86943
0.110804
-0.52643
-0.394845
-0.299783
-0.212133
-0.137223
-0.0771418
-0.0304339
0.00714374
0.0411041
0.0764832
0.116082
0.160772
0.209008
0.25653
0.298155
0.329905
0.350558
0.362385
0.370818
0.383116
0.40642
0.445796
0.501936
0.571242
0.649388
0.732259
0.81571
0.896394
0.972266
1.04266
1.108
1.1693
1.22739
1.28307
1.33703
1.39009
1.44376
1.50064
1.56438
1.63911
1.72851
1.83489
1.95818
2.09912
2.25572
2.41624
2.55955
2.66391
2.71206
2.69665
2.62391
2.51277
2.38845
2.27233
2.1726
2.07844
1.97868
1.86375
1.72585
1.56171
1.37411
1.17056
0.967186
0.786172
0.647773
0.564949
0.539914
0.565426
0.623254
0.691609
0.751105
0.789204
0.801728
0.791331
0.764021
0.72553
0.679917
0.629446
0.574792
0.517343
0.46023
0.409374
0.372621
0.358159
0.372465
0.418449
0.494407
0.594119
0.708054
0.825285
0.935505
1.0324
1.11204
1.1713
1.21021
1.23099
1.23783
1.23674
1.2352
1.24146
1.2635
1.30773
1.37936
1.48598
1.62419
1.77481
1.91342
2.01747
2.07117
2.06772
2.00875
1.90154
1.75565
1.58007
1.3841
1.17589
0.962359
0.749552
0.54357
0.351446
0.179964
0.0347167
-0.0809477
-0.16665
-0.224775
-0.259681
-0.279002
-0.290694
-0.301523
-0.315989
-0.33592
-0.360829
-0.435456
0
1.30866
3.68001
6.95873
10.556
13.5611
15.0629
14.5492
12.1633
8.65013
5.01509
2.09765
0.293283
-0.463963
-0.522436
-0.453308
-0.384663
-0.316109
-0.246557
-0.174343
-0.0977112
-0.0149503
0.073013
0.159454
0.234064
0.286683
0.311278
0.308744
0.287369
0.26073
0.243889
0.249355
0.280382
0.333021
0.403042
0.487023
0.58114
0.681352
0.783951
0.885966
0.985418
1.08139
1.17391
1.26359
1.3512
1.43715
1.52093
1.60061
1.67319
1.73605
1.78843
1.83311
1.87708
1.93086
2.00635
2.11364
2.2789
2.50806
2.75736
2.96971
3.09809
3.12319
3.0575
2.93559
2.79714
2.6715
2.56437
2.46716
2.37338
2.27824
2.17759
2.06847
1.94991
1.82337
1.69262
1.5643
1.44685
1.34846
1.27543
1.23081
1.21389
1.22177
1.24761
1.28396
1.32441
1.36478
1.40318
1.43938
1.4736
1.50531
1.5326
1.55217
1.55995
1.55196
1.52515
1.47796
1.41058
1.32517
1.2262
1.11832
1.01326
0.927397
0.877943
0.879252
0.939107
1.05611
1.2192
1.40956
1.6047
1.78441
1.94014
2.06786
2.16705
2.24203
2.30067
2.35247
2.40655
2.46999
2.54885
2.6464
2.75699
2.85961
2.92684
2.93222
2.85768
2.70034
2.4756
2.21385
1.9511
1.7173
1.51713
1.34043
1.18218
1.04066
0.913841
0.799958
0.697476
0.604826
0.520095
0.440736
0.363467
0.284587
0.200083
0.105895
0.000602007
-0.115117
-0.282735
0
1.15809
3.44223
6.7864
10.6752
14.1849
16.2704
16.2129
13.993
10.347
6.43493
3.3011
1.44651
0.746055
0.703008
0.663465
0.601929
0.540895
0.488442
0.453987
0.446624
0.47311
0.536106
0.633168
0.756827
0.895754
1.03672
1.16736
1.27774
1.36174
1.41786
1.44904
1.46181
1.46473
1.46668
1.47536
1.49575
1.52931
1.57647
38
189
339
488
637
786
935
1082
1229
1376
1524
1670
1816
1962
2108
2252
2397
2543
2689
2836
2983
3131
3278
3424
3570
3717
3713
0
0
0
0
0
0
0
0
0
0
0
0
0
0
0
0
0
0
0
0
0
0
0
0
0
0
0
0
0
0
0
0
0
0
0
0
0
0
0
0
0
0
0
0
0
0
0
0
0
0
0
0
0
0
0
0
0
0
0
0
0
0
0
0
0
0
0
0
0
0
0
0
0
0
0
0
0
0
0
0
0
0
0
0
0
0
0
0
0
0
0
0
0
0
0
0
0
0
0
0
0
0
0
0
0
0
0
0
0
0
0
0
0
0
0
0
0
0
0
0
0
0
0
0
0
0
0
0
0
0
0
0
0
0
0
0
0
0
0
0
0
0
0
0
0
0
0
0
0
0
0
0
0
0
0
0
0
0
0
0
0
0
0
0
0
0
0
0
0
0
0
0
0
0
0
0
0
0
0
0
0
0
0
0
0
0
0
0
0
0
0
0
0
0
0
0
0
0
0
0
0
0
0
0
0
0
0
0
0
0
0
0
0
0
0
0
0
0
0
0
0
0
0
0
0
0
0
0
0
0
0
0
0
0
0
0
0
0
0
0
0
0
0
0
0
0
0
0
0
0
0
0
0
0
0
0
0
0
0
0
0
0
0
0
0
0
0
0
0
0
0
0
0
0
0
0
0
0
0
0
0
0
0
0
0
0
0
0
0
0
0
0
0
0
0
0
0
0
0
0
0
0
0
0
0
0
0
0
0
0
0
0
0
0
0
0
0
0
0
0
0
0
0
0
0
0
0
0
0
0
0
0
0
0
0
0
0
0
0
0
0
0
0
0
0
0
0
0
0
0
0
0
0
0
0
0
0
0
0
0
0
0
0
0
0
0
0
0
0
0
0
0
0
0
0
0
0
0
0
0
0
0
0
0
0
0
0
0
0
0
0
0
0
0
0
0
0
0
0
0
0
0
0
0
0
0
0
0
0
0
0
0
0
0
0
0
0
0
0
0
0
0
0
0
0
0
0
0
0
0
0
0
0
0
0
0
0
0
0
0
0
0
0
0
0
0
0
0
0
0
0
0
0
0
0
0
0
0
0
0
0
0
0
0
0
0
0
0
0
0
0
0
0
0
0
0
0
0
0
0
0
0
0
0
0
0
0
0
0
0
0
0
0
0
0
0
0
0
0
0
0
0
0
0
0
0
0
0
0
0
0
0
0
0
0
0
0
0
0
0
0
0
0
0
0
0
0
0
0
0
0
0
0
0
0
0
0
0
0
0
0
0
0
0
0
0
0
0
0
0
0
0
0
0
0
0
0
0
0
0
0
0
0
0
0
0
0
0
0
0
0
0
0
0
0
0
0
0
0
0
0
0
0
0
0
0
0
0
0
0
0
0
0
0
0
0
0
0
0
0
0
0
0
0
0
0
0
0
0
0
0
0
0
0
0
0
0
0
0
0
0
0
0
0
0
0
0
0
0
0
0
0
0
0
0
0
0
0
0
0
0
0
0
0
0
0
0
0
0
0
0
0
0
0
0
0
0
0
0
0
0
0
0
0
0
0
0
0
0
0
0
0
0
0
0
0
0
0
0
0
0
0
0
0
0
0
0
0
0
0
0
0
0
0
0
0
0
0
0
0
0
0
0
0
0
0
0
0
0
0
0
0
0
0
0
0
0
0
0
0
0
0
0
0
0
0
0
0
0
0
0
0
0
0
0
0
0
0
0
0
0
0
0
0
0
0
0
0
0
0
0
0
0
0
0
0
0
0
0
0
0
0
0
0
0
0
0
0
0
0
0
0
0
0
0
0
0
0
0
0
0
0
0
0
0
0
0
0
0
0
0
0
0
0
0
0
0
0
0
0
0
0
0
0
0
0
0
0
0
0
0
0
0
0
0
0
0
0
0
0
0
0
0
0
0
0
0
0
0
0
0
0
0
0
0
0
0
0
0
0
0
0
0
0
0
0
0
0
0
0
0
0
0
0
0
0
0
0
0
0
0
0
0
0
0
0
0
0
0
0
0
0
0
0
0
0
0
0
0
0
0
0
0
0
0
0
0
0
0
0
0
0
0
0
0
0
0
0
0
0
0
0
0
0
0
0
0
0
0
0
0
0
0
0
0
0
0
0
0
0
0
0
0
0
0
0
0
0
0
0
0
0
0
0
0
0
0
0
0
0
0
0
0
0
0
0
0
0
0
0
0
0
0
0
0
0
0
0
0
0
0
0
0
0
0
0
0
0
0
0
0
0
0
0
0
0
0
0
0
0
0
0
0
0
0
0
0
0
0
0
0
0
0
0
0
0
0
0
0
0
0
0
0
0
0
0
0
0
0
0
0
0
0
0
0
0
0
0
0
0
0
0
0
0
0
0
0
0
0
0
0
0
0
0
0
0
0
0
0
0
0
0
0
0
0
0
0
0
0
0
0
0
0
0
0
0
0
0
0
0
0
0
0
0
0
0
0
0
0
0
0
0
0
0
0
0
0
0
0
0
0
0
0
0
0
0
0
0
0
0
0
0
0
0
0
0
0
0
0
0
0
0
0
0
0
0
0
0
0
0
0
0
0
0
0
0
0
0
0
0
0
0
0
0
0
0
0
0
0
0
0
0
0
0
0
0
0
0
0
0
0
0
0
0
0
0
0
0
0
0
0
0
0
0
0
0
0
0
0
0
0
0
0
0
0
0
0
0
0
0
0
0
0
0
0
0
0
0
0
0
0
0
0
0
0
0
0
0
0
0
0
0
0
0
0
0
0
0
0
0
0
0
0
0
0
0
0
0
0
0
0
0
0
0
0
0
0
0
0
0
0
0
0
0
0
0
0
0
0
0
0
0
0
0
0
0
0
0
0
0
0
0
0
0
0
0
0
0
0
0
0
0
0
0
0
0
0
0
0
0
0
0
0
0
0
0
0
0
0
0
0
0
0
0
0
0
0
0
0
0
0
0
0
0
0
0
0
0
0
0
0
0
0
0
0
0
0
0
0
0
0
0
0
0
0
0
0
0
0
0
0
0
0
0
0
0
0
0
0
0
0
0
0
0
0
0
0
0
0
0
0
0
0
0
0
0
0
0
0
0
0
0
0
0
0
0
0
0
0
0
0
0
0
0
0
0
0
0
0
0
0
0
0
0
0
0
0
0
0
0
0
0
0
0
0
0
0
0
0
0
0
0
0
0
0
0
0
0
0
0
0
0
0
0
0
0
0
0
0
0
0
0
0
0
0
0
0
0
0
0
0
0
0
0
0
0
0
0
0
0
0
0
0
0
0
0
0
0
0
0
0
0
0
0
0
0
0
0
0
0
0
0
0
0
0
0
0
0
0
0
0
0
0
0
0
0
0
0
0
0
0
0
0
0
0
0
0
0
0
0
0
0
0
0
0
0
0
0
0
0
0
0
0
0
0
0
0
0
0
0
0
0
0
0
0
0
0
0
0
0
0
0
0
0
0
0
0
0
0
0
0
0
0
0
0
0
0
0
0
0
0
0
0
0
0
0
0
0
0
0
0
0
0
0
0
0
0
0
0
0
0
0
0
0
0
0
0
0
0
0
0
0
0
0
0
0
0
0
0
0
0
0
0
0
0
0
0
0
0
0
0
0
0
0
0
0
0
0
0
0
0
0
0
0
0
0
0
0
0
0
0
0
0
0
0
0
0
0
0
0
0
0
0
0
0
0
0
0
0
0
0
0
0
0
0
0
0
0
0
0
0
0
0
0
0
0
0
0
0
0
0
0
0
0
0
0
0
0
0
0
0
0
0
0
0
0
0
0
0
0
0
0
0
0
0
0
0
0
0
0
0
0
0
0
0
0
0
0
0
0
0
0
0
0
0
0
0
0
0
0
0
0
0
0
0
0
0
0
0
0
0
0
0
0
0
0
0
0
0
0
0
0
0
0
0
0
0
0
0
0
0
0
0
0
0
0
0
0
0
0
0
0
0
0
0
0
0
0
0
0
0
0
0
0
0
0
0
0
0
0
0
0
0
0
0
0
0
0
0
0
0
0
0
0
0
0
0
0
0
0
0
0
0
0
0
0
0
0
0
0
0
0
0
0
0
0
0
0
0
0
0
0
0
0
0
0
0
0
0
0
0
0
0
0
0
0
0
0
0
0
0
0
0
0
0
0
0
0
0
0
0
0
0
0
0
0
0
0
0
0
0
0
0
0
0
0
0
0
0
0
0
0
0
0
0
0
0
0
0
0
0
0
0
0
0
0
0
0
0
0
0
0
0
0
0
0
0
0
0
0
0
0
0
0
0
0
0
0
0
0
0
0
0
0
0
0
0
0
0
0
0
0
0
0
0
0
0
0
0
0
0
0
0
0
0
0
0
0
0
0
0
0
0
0
0
0
0
0
0
0
0
0
0
0
0
0
0
0
0
0
0
0
0
0
0
0
0
0
0
0
0
0
0
0
0
0
0
0
0
0
0
0
0
0
0
0
0
0
0
0
0
0
0
0
0
0
0
0
0
0
0
0
0
0
0
0
0
0
0
0
0
0
0
0
0
0
0
0
0
0
0
0
0
0
0
0
0
0
0
0
0
0
0
0
0
0
0
0
0
0
0
0
0
0
0
0
0
0
0
0
0
0
0
0
0
0
0
0
0
0
0
0
0
0
0
0
0
0
0
0
0
0
0
0
0
0
0
0
0
0
0
0
0
0
0
0
0
0
0
0
0
0
0
0
0
0
0
0
0
0
0
0
0
0
0
0
0
0
0
0
0
0
0
0
0
0
0
0
0
0
0
0
0
0
0
0
0
0
0
0
0
0
0
0
0
0
0
0
0
0
0
0
0
0
0
0
0
0
0
0
0
0
0
0
0
0
0
0
0
0
0
0
0
0
0
0
0
0
0
0
0
0
0
0
0
0
0
0
0
0
0
0
0
0
0
0
0
0
0
0
0
0
0
0
0
0
0
0
0
0
0
0
0
0
0
0
0
0
0
0
0
0
0
0
0
0
0
0
0
0
0
0
0
0
0
0
0
0
0
0
0
0
0
0
0
0
0
0
0
0
0
0
0
0
0
0
0
0
0
0
0
0
0
0
0
0
0
0
0
0
0
0
0
0
0
0
0
0
0
0
0
0
0
0
0
0
0
0
0
0
0
0
0
0
0
0
0
0
0
0
0
0
0
0
0
0
0
0
0
0
0
0
0
0
0
0
0
0
0
0
0
0
0
0
0
0
0
0
0
0
0
0
0
0
0
0
0
0
0
0
0
0
0
0
0
0
0
0
0
0
0
0
0
0
0
0
0
0
0
0
0
0
0
0
0
0
0
0
0
0
0
0
0
0
0
0
0
0
0
0
0
0
0
0
0
0
0
0
0
0
0
0
0
0
0
0
0
0
0
0
0
0
0
0
0
0
0
0
0
0
0
0
0
0
0
0
0
0
0
0
0
0
0
0
0
0
0
0
0
0
0
0
0
0
0
0
0
0
0
0
0
0
0
0
0
0
0
0
0
0
0
0
0
0
0
0
0
0
0
0
0
0
0
0
0
0
0
0
0
0
0
0
0
0
0
0
0
0
0
0
0
0
0
0
0
0
0
0
0
0
0
0
0
0
0
0
0
0
0
0
0
0
0
0
0
0
0
0
0
0
0
0
0
0
0
0
0
0
0
0
0
0
0
0
0
0
0
0
0
0
0
0
0
0
0
0
0
0
0
0
0
0
0
0
0
0
0
0
0
0
0
0
0
0
0
0
0
0
0
0
0
0
0
0
0
0
0
0
0
0
0
0
0
0
0
0
0
0
0
0
0
0
0
0
0
0
0
0
0
0
0
0
0
0
0
0
0
0
0
0
0
0
0
0
0
0
0
0
0
0
0
0
0
0
0
0
0
0
0
0
0
0
0
0
0
0
0
0
0
0
0
0
0
0
0
0
0
0
0
0
0
0
0
0
0
0
0
0
0
0
0
0
0
0
0
0
0
0
0
0
0
0
0
0
0
0
0
0
0
0
0
0
0
0
0
0
0
0
0
0
0
0
0
0
0
0
0
0
0
0
0
0
0
0
0
0
0
0
0
0
0
0
0
0
0
0
0
0
0
0
0
0
0
0
0
0
0
0
0
0
0
0
0
0
0
0
0
0
0
0
0
0
0
0
0
0
0
0
0
0
0
0
0
0
0
0
0
0
0
0
0
0
0
0
0
0
0
0
0
0
0
0
0
0
0
0
0
0
0
0
0
0
0
0
0
0
0
0
0
0
0
0
0
0
0
0
0
0
0
0
0
0
0
0
0
0
0
0
0
0
0
0
0
0
0
0
0
0
0
0
0
0
0
0
0
0
0
0
0
0
0
0
0
0
0
0
0
0
0
0
0
0
0
0
0
0
0
0
0
0
0
0
0
0
0
0
0
0
0
0
0
0
0
0
0
0
0
0
0
0
0
0
0
0
0
0
0
0
0
0
0
0
0
0
0
0
0
0
0
0
0
0
0
0
0
0
0
0
0
0
0
0
0
0
0
0
0
0
0
0
0
0
0
0
0
0
0
0
0
0
0
0
0
0
0
0
0
0
0
0
0
0
0
0
0
0
0
0
0
0
0
0
0
0
0
0
0
0
0
0
0
0
0
0
0
0
0
0
0
0
0
0
0
0
0
0
0
0
0
0
0
0
0
0
0
0
0
0
0
0
0
0
0
0
0
0
0
0
0
0
0
0
0
0
0
0
0
0
0
0
0
0
0
0
0
0
0
0
0
0
0
0
0
0
0
0
0
0
0
0
0
0
0
0
0
0
0
0
0
0
0
0
0
0
0
0
0
0
0
0
0
0
0
0
0
0
0
0
0
0
0
0
0
0
0
0
0
0
0
0
0
0
0
0
0
0
0
0
0
0
0
0
0
0
0
0
0
0
0
0
0
0
0
0
0
0
0
0
0
0
0
0
0
0
0
0
0
0
0
0
0
0
0
0
0
0
0
0
0
0
0
0
0
0
0
0
0
0
0
0
0
0
0
0
0
0
0
0
0
0
0
0
0
0
0
0
0
0
0
0
0
0
0
0
0
0
0
0
0
0
0
0
0
0
0
0
0
0
0
0
0
0
0
0
0
0
0
0
0
0
0
0
0
0
0
0
0
0
0
0
0
0
0
0
0
0
0
0
0
0
0
0
0
0
0
0
0
0
0
0
0
0
0
0
0
0
0
0
0
0
0
0
0
0
0
0
0
0
0
0
0
0
0
0
0
0
0
0
0
0
0
0
0
0
0
0
0
0
0
0
0
0
0
0
0
0
0
0
0
0
0
0
0
0
0
0
0
0
0
0
0
0
0
0
0
0
0
0
0
0
0
0
0
0
0
0
0
0
0
0
0
0
0
0
0
0
0
0
0
0
0
0
0
0
0
0
0
0
0
0
0
0
0
0
0
0
0
0
0
0
0
0
0
0
0
0
0
0
0
0
0
0
0
0
0
0
0
0
0
0
0
0
0
0
0
0
0
0
0
0
0
0
0
0
0
0
0
0
0
0
0
0
0
0
0
0
0
0
0
0
0
0
0
0
0
0
0
0
0
0
0
0
0
0
0
0
0
0
0
0
0
0
0
0
0
0
0
0
0
0
0
0
0
0
0
0
0
0
0
0
0
0
0
0
0
0
0
0
0
0
0
0
0
0
0
0
0
0
0
0
0
0
0
0
0
0
0
0
0
0
0
0
0
0
0
0
0
0
0
0
0
0
0
0
0
0
0
0
0
0
0
0
0
0
0
0
0
0
0
0
0
0
0
0
0
0
0
0
0
0
0
0
0
0
0
0
0
0
0
0
0
0
0
0
0
0
0
0
0
0
0
0
0
0
0
0
0
0
0
0
0
0
0
0
0
0
0
0
0
0
0
0
0
0
0
0
0
0
0
0
0
0
0
0
0
0
0
0
0
0
0
0
0
0
0
0
0
0
0
0
0
0
0
0
0
0
0
0
0
0
0
0
0
0
0
0
0
0
0
0
0
0
0
0
0
0
0
0
0
0
0
0
0
0
0
0
0
0
0
0
0
0
0
0
0
0
0
0
0
0
0
0
0
0
0
0
0
0
0
0
0
0
0
0
0
0
0
0
0
0
0
0
0
0
0
0
0
0
0
0
0
0
0
0
0
0
0
0
0
0
0
0
0
0
0
0
0
0
0
0
0
0
0
0
0
0
0
0
0
0
0
0
0
0
0
0
0
0
0
0
0
0
0
0
0
0
0
0
0
0
0
0
0
0
0
0
0
0
0
0
0
0
0
0
0
0
0
0
0
0
0
0
0
0
0
0
0
0
0
0
0
0
0
0
0
0
0
0
0
0
0
0
0
0
0
0
0
0
0
0
0
0
0
0
0
0
0
0
0
0
0
0
0
0
0
0
0
0
0
0
0
0
0
0
0
0
0
0
0
0
0
0
0
0
0
0
0
0
0
0
0
0
0
0
0
0
0
0
0
0
0
0
0
0
0
0
0
0
0
0
0
0
0
0
0
0
