0.307177
0.30699
0.290355
0.256547
0.208455
0.152158
0.0956029
0.0469491
0.0105843
-0.0109215
-0.014905
0
0.0294704
0.0769409
0.140398
0.217008
0.30335
0.404524
0.577406
0.889455
1.39825
2.13463
3.04369
3.95326
4.59371
4.67933
4.03212
2.68994
0.932134
-0.80736
-2.10669
-2.71542
-2.62603
-2.03179
-1.21862
-0.455781
0.072349
0.281816
0.226132
0.191807
0.167568
0.156473
0.15901
0.172338
0.191786
0.213894
0.235763
0.255704
0.273452
0.289938
0.306764
0.325594
0.347505
0.372866
0.401573
0.433091
0.466534
0.500827
0.534666
0.566749
0.59624
0.623195
0.648948
0.676285
0.709234
0.75245
0.810293
0.885837
0.978437
1.08591
1.20542
1.33312
1.46462
1.59567
1.72286
1.844
1.95828
2.06608
2.16854
2.26702
2.36254
2.45527
2.54443
2.6284
2.70488
2.77132
2.82468
2.86094
2.87728
2.87203
2.8443
2.79412
2.7226
2.63175
2.5241
2.40211
2.26763
2.12308
1.97027
1.80998
1.64357
1.47334
1.30255
1.13521
0.975526
0.827303
0.693309
0.57493
0.471852
0.382245
0.303294
0.231824
0.164915
0.100407
0.0372065
-0.0246136
-0.0838913
-0.138611
-0.18578
-0.222113
-0.244779
-0.251725
-0.240332
-0.20633
-0.152328
-0.0893744
-0.030463
0.0126832
0.0324385
0.0268533
-0.000311518
-0.0408863
-0.0844477
-0.120903
-0.144251
-0.15316
-0.149206
-0.134995
-0.113179
-0.086396
-0.0574157
-0.0287965
-0.00261874
0.0196435
0.0371676
0.0499055
0.0585484
0.0644274
0.0693882
0.0755763
0.0851131
0.100317
0.123808
0.155412
0.189756
0.219077
0.235434
0.233082
0.210158
0.169167
0.116311
0.0600054
0.00883508
-0.0321184
-0.061161
-0.078296
-0.0827275
-0.0761847
-0.0633894
-0.0496601
-0.0396665
-0.0364879
-0.0412482
-0.053353
-0.071106
-0.0923615
-0.114833
-0.136695
-0.156338
-0.172217
-0.182973
-0.18764
-0.185873
-0.178119
-0.165542
-0.149843
-0.132934
-0.116566
-0.102014
-0.0900608
-0.0809758
-0.0746203
-0.0705481
-0.0680705
-0.0663767
-0.0646048
-0.0619218
-0.0576265
-0.051235
-0.0424222
-0.0313087
-0.0181251
-0.00292263
0.014697
0.0356923
0.061441
0.0933574
0.132387
0.178536
0.230444
0.286327
0.343708
0.400017
0.452994
0.500877
0.541773
0.573029
0.593303
0.601238
0.59583
0.576997
0.545997
0.50539
0.458528
0.408799
0.358998
0.310654
0.264625
0.221483
0.181539
0.144884
0.111382
0.0806303
0.052035
0.0249636
0
-0.0103035
0.237535
0.900916
1.98201
3.28252
4.4626
5.17204
5.18033
4.44984
3.13501
1.52617
-0.0371675
-1.26108
-1.97463
-2.15658
-1.93648
-1.48275
-0.964372
-0.503594
-0.175794
-0.0428872
-0.01062
0.00572376
0.0173456
0.0269897
0.0368198
0.0490469
0.0656569
0.0881506
0.117461
0.153852
0.196869
0.245472
0.298232
0.353458
0.409372
0.464265
0.516694
0.565736
0.611149
0.653462
0.693944
0.734413
0.776901
0.823244
0.874701
0.931668
0.994114
1.06118
1.13168
1.20483
1.28056
1.35954
1.44285
1.53144
1.62555
1.72451
1.8267
1.93033
2.03379
2.13601
2.23651
2.3351
2.43108
2.52244
2.60606
2.67782
2.73385
2.77179
2.79155
2.79527
2.78627
2.76764
2.74104
2.70671
2.66304
2.60678
2.53444
2.44301
2.33062
2.19696
2.04338
1.87284
1.69
1.50069
1.31066
1.12597
0.952533
0.795624
0.660713
0.552571
0.470982
0.412024
0.369827
0.337875
0.310274
0.282672
0.25271
0.220041
0.186067
0.153406
0.125603
0.106245
0.0983255
0.103512
0.121598
0.150336
0.185754
0.22289
0.256739
0.283583
0.30101
0.307875
0.304457
0.292278
0.273982
0.252772
0.232031
0.215183
0.205293
0.204777
0.215232
0.237418
0.27135
0.316427
0.371762
0.438824
0.516719
0.593604
0.652089
0.674335
0.649229
0.57883
0.480143
0.380112
0.305297
0.270948
0.262034
0.270661
0.286589
0.30034
0.306149
0.303084
0.294126
0.283907
0.276299
0.272202
0.270672
0.270811
0.271543
0.272064
0.272127
0.272101
0.272854
0.275477
0.281046
0.290469
0.304356
0.322928
0.346049
0.373337
0.404016
0.43649
0.468233
0.496209
0.517295
0.528781
0.528893
0.517193
0.494751
0.464012
0.428358
0.391479
0.356596
0.325893
0.300246
0.279825
0.264584
0.254479
0.24982
0.25147
0.260786
0.279307
0.308563
0.352431
0.41391
0.486065
0.555391
0.607591
0.632189
0.626005
0.594183
0.548563
0.504272
0.475829
0.469098
0.482052
0.512816
0.565422
0.640654
0.727349
0.807379
0.863632
0.884893
0.869328
0.824991
0.766716
0.710339
0.666688
0.635648
0.610682
0.587015
0.560482
0.527206
0.48409
0.429094
0.361333
0.279432
0.185227
0.081951
-0.0300483
0
0.392864
1.15985
2.20093
3.34412
4.40028
5.18971
5.54614
5.32778
4.46411
3.02798
1.27949
-0.378537
-1.54539
-2.00017
-1.79798
-1.23153
-0.63599
-0.232276
-0.0559378
-0.000531328
0.0538853
0.106322
0.156959
0.205486
0.2516
0.295187
0.336314
0.375148
0.411921
0.446871
0.48024
0.512329
0.543585
0.574674
0.606495
0.640119
0.676619
0.716859
0.761286
0.809807
0.861785
0.916195
0.971883
1.02781
1.0833
1.1381
1.19245
1.247
1.30265
1.36046
1.4215
1.48682
1.55732
1.63369
1.71632
1.80529
1.90038
2.00103
2.10649
2.21587
2.32808
2.44182
2.55541
2.666
2.76853
2.85751
2.92732
2.97347
2.9937
2.98847
2.96064
2.91423
2.85302
2.77943
2.69551
2.60209
2.499
2.38582
2.26256
2.13002
1.98986
1.84432
1.69593
1.54713
1.40009
1.2566
1.11814
0.986092
0.861806
0.746702
0.642151
0.549283
0.468798
0.400861
0.344766
0.298814
0.260829
0.228542
0.199968
0.173666
0.148825
0.125153
0.102644
0.0812994
0.0609345
0.0410716
0.0210017
-5.90801e-005
-0.0227812
-0.0475645
-0.0744439
-0.103051
-0.1326
-0.161876
-0.189225
-0.21239
-0.228677
-0.235201
-0.229187
-0.208184
-0.163809
-0.0839694
0.022736
0.128764
0.203968
0.226832
0.193168
0.117982
0.0290874
-0.0447157
-0.0850995
-0.0995373
-0.101668
-0.098236
-0.0931546
-0.0898697
-0.0910465
-0.0983699
-0.112495
-0.133084
-0.158885
-0.187938
-0.217438
-0.243416
-0.261811
-0.269267
-0.263879
-0.245667
-0.216563
-0.179882
-0.139469
-0.0988761
-0.0607004
-0.0269641
-0.00130758
0.0127513
0.0115581
-0.00827274
-0.0481467
-0.105844
-0.174897
-0.245524
-0.306879
-0.34984
-0.374362
-0.380498
-0.366067
-0.333795
-0.295303
-0.262426
-0.243891
-0.242842
-0.256018
-0.275114
-0.290036
-0.292852
-0.280775
-0.259674
-0.235224
-0.211602
-0.19246
-0.18022
-0.175801
-0.178786
-0.187879
-0.201429
-0.217716
-0.235421
-0.253492
-0.270872
-0.286207
-0.297628
-0.303048
-0.300363
-0.287906
-0.264923
-0.231901
-0.190636
-0.144014
-0.0955567
-0.0488482
-0.00682354
0.0281812
0.0548764
0.0729832
0.0831073
0.086494
0.0846921
0.0791647
0.0709039
0.0601187
0.0459508
0.0266916
0
-0.0354548
-0.0827704
-0.142905
-0.216661
-0.302415
-0.396559
-0.494702
-0.59086
-0.407482
0.0894493
0.930698
2.04784
3.26573
4.33332
4.98529
5.01523
4.34398
3.06142
1.42016
-0.231366
-1.5604
-2.35822
-2.58952
-2.36781
-1.87132
-1.27359
-0.708363
-0.267905
-0.0325459
-0.014903
-0.0185258
-0.0253256
-0.0321922
-0.0366278
-0.0362692
-0.0293138
-0.0147277
0.00798512
0.0386886
0.0765608
0.120203
0.167863
0.217656
0.267842
0.317103
0.364696
0.410468
0.454749
0.498155
0.541387
0.585081
0.629753
0.675844
0.723839
0.774369
0.828277
0.8866
0.950481
1.02102
1.09908
1.18515
1.27917
1.38049
1.48792
1.59979
1.7142
1.82928
1.9434
2.05544
2.16489
2.27183
2.37679
2.48044
2.58329
2.68505
2.78275
2.8699
2.93749
2.97627
2.97946
2.94447
2.87321
2.77088
2.64412
2.49939
2.34445
2.18407
2.02067
1.85565
1.69001
1.52475
1.36094
1.19988
1.043
0.89178
0.747514
0.611111
0.482981
0.363039
0.25084
0.146026
0.0487799
-0.0388247
-0.114085
-0.173769
-0.21485
-0.224768
-0.200997
-0.157286
-0.112558
-0.0836926
-0.0791345
-0.0964761
-0.124763
-0.149777
-0.159474
-0.15276
-0.133775
-0.104912
-0.0678363
-0.0249943
0.0200874
0.0633915
0.101378
0.131611
0.153237
0.167202
0.176134
0.183859
0.194636
0.212281
0.238967
0.274792
0.318577
0.368772
0.422069
0.474212
0.521043
0.559131
0.586173
0.601162
0.604334
0.596996
0.581303
0.560214
0.53684
0.513927
0.493816
0.478075
0.467407
0.461243
0.457392
0.452773
0.444268
0.429568
0.407819
0.379889
0.348182
0.316069
0.287103
0.26393
0.247651
0.238348
0.235524
0.237892
0.243312
0.249184
0.253321
0.254426
0.252354
0.248083
0.243364
0.240166
0.240042
0.243549
0.250085
0.258219
0.265854
0.270652
0.27047
0.263736
0.2497
0.22856
0.201485
0.170552
0.138494
0.108854
0.0854428
0.0716487
0.0699119
0.0813067
0.105365
0.140211
0.182973
0.230339
0.279086
0.326545
0.370748
0.409699
0.442328
0.468235
0.487831
0.502464
0.514347
0.526193
0.540575
0.559179
0.582575
0.608954
0.634466
0.654127
0.662845
0.656421
0.632309
0.590053
0.531405
0.460137
0.38178
0.302313
0.227064
0.160347
0.105145
0.0626956
0.0324359
0.0122514
0
0.0156812
0.195675
0.642635
1.41495
2.4738
3.66928
4.76076
5.46407
5.5244
4.80258
3.35171
1.44611
-0.472444
-1.93613
-2.63136
-2.5272
-1.87263
-1.05469
-0.397151
-0.0228041
0.141264
0.225849
0.271205
0.307453
0.336868
0.359878
0.378245
0.394772
0.412706
0.434963
0.463101
0.497197
0.537011
0.579965
0.622178
0.659958
0.690916
0.714742
0.733396
0.750685
0.771372
0.800064
0.839029
0.888385
0.947661
1.01684
1.09339
1.17155
1.24587
1.31293
1.3725
1.42773
1.48406
1.54734
1.62178
1.70787
1.80217
1.90142
2.00268
2.10322
2.201
2.29481
2.38413
2.46884
2.54887
2.62393
2.69345
2.75658
2.8123
2.8594
2.89628
2.92157
2.93404
2.93238
2.91518
2.88085
2.82755
2.75305
2.65478
2.53003
2.37764
2.19812
1.99275
1.76528
1.52239
1.27332
1.02902
0.803791
0.6243
0.518465
0.474616
0.465222
0.458917
0.432493
0.377894
0.302254
0.222195
0.155664
0.113135
0.0894724
0.078528
0.0775998
0.0843354
0.09612
0.110432
0.124938
0.137702
0.147394
0.1534
0.155856
0.155598
0.154
0.15272
0.153402
0.157328
0.165171
0.17718
0.193109
0.212347
0.233835
0.255908
0.276758
0.294936
0.309707
0.321241
0.330548
0.33915
0.348625
0.360193
0.374394
0.391284
0.411013
0.433907
0.460604
0.491953
0.529557
0.575686
0.629078
0.681023
0.719483
0.733032
0.715261
0.66774
0.600159
0.527536
0.465525
0.4242
0.400901
0.393437
0.398871
0.409668
0.417449
0.415006
0.397976
0.365786
0.321685
0.271902
0.224199
0.185932
0.160702
0.149345
0.152711
0.169839
0.198192
0.234141
0.273612
0.312796
0.348868
0.380376
0.407113
0.430098
0.45127
0.473074
0.498003
0.528182
0.565222
0.610183
0.66369
0.726351
0.799362
0.883102
0.971047
1.04953
1.1028
1.11742
1.08693
1.01469
0.913146
0.79975
0.69115
0.596045
0.512217
0.436089
0.365561
0.299157
0.235993
0.175713
0.118844
0.0668665
0.0218484
0
0.193577
0.579851
1.05849
1.6573
2.41187
3.273
4.04852
4.44405
4.19233
3.20043
1.62883
-0.147097
-1.67797
-2.61544
-2.83718
-2.46359
-1.76838
-1.04088
-0.474254
-0.128217
0.0330157
0.080531
0.115649
0.146124
0.172422
0.193817
0.209892
0.22066
0.226617
0.228733
0.228356
0.227077
0.226553
0.228372
0.233912
0.244316
0.260578
0.283581
0.314063
0.352562
0.399324
0.454185
0.516463
0.58489
0.657596
0.732257
0.80589
0.874675
0.935431
0.986299
1.02747
1.0616
1.09363
1.13005
1.17752
1.24134
1.32345
1.42103
1.53004
1.6461
1.76406
1.87856
1.98526
2.08144
2.16624
2.24046
2.30596
2.36454
2.41809
2.46778
2.5133
2.55229
2.57922
2.58663
2.56677
2.51216
2.41756
2.28208
2.11048
1.91289
1.70283
1.49401
1.29502
1.10747
0.93331
0.773738
0.629027
0.498926
0.382972
0.280642
0.191684
0.116199
0.0532724
0.00158219
-0.0402458
-0.0734058
-0.0987576
-0.116853
-0.128168
-0.132841
-0.132091
-0.128488
-0.125413
-0.126228
-0.133392
-0.147719
-0.168082
-0.191685
-0.214869
-0.234222
-0.247731
-0.25511
-0.258205
-0.260148
-0.264165
-0.272313
-0.284609
-0.298841
-0.311125
-0.316991
-0.312765
-0.297788
-0.273143
-0.240604
-0.202534
-0.162094
-0.122883
-0.0881544
-0.0602684
-0.0403587
-0.0282331
-0.0225153
-0.0209904
-0.0210773
-0.0203332
-0.0169431
-0.0100068
0.00057888
0.0139725
0.0283218
0.0407421
0.0481165
0.0478454
0.0384653
0.0200635
-0.00563917
-0.0355853
-0.0659781
-0.0929921
-0.113442
-0.125985
-0.130351
-0.126161
-0.113701
-0.0939062
-0.0683353
-0.0390256
-0.00842218
0.0210451
0.0473671
0.0693207
0.0866807
0.100215
0.111464
0.122373
0.13487
0.150443
0.170058
0.194127
0.222525
0.254707
0.289886
0.327206
0.365914
0.405437
0.445414
0.485608
0.525731
0.565052
0.601427
0.630278
0.645553
0.640626
0.610435
0.553573
0.473385
0.377567
0.276463
0.18089
0.0984123
0.0364765
0
-0.0106171
0.00796528
0.0542713
0.124379
0.212085
0.309507
0.424849
0.65091
1.17243
2.0772
3.27762
4.52195
5.48492
5.88493
5.56627
4.53064
2.93519
1.07186
-0.679183
-1.94077
-2.46196
-2.22018
-1.43466
-0.470251
0.321754
0.738928
0.73996
0.63695
0.549332
0.493608
0.480023
0.510675
0.568332
0.641311
0.723294
0.809318
0.89551
0.979626
1.06113
1.14092
1.2207
1.3023
1.38696
1.47491
1.5652
1.65598
1.74494
1.82985
1.90905
1.98172
2.04797
2.10866
2.16518
2.21919
2.2724
2.3265
2.38319
2.44423
2.51142
2.58649
2.67098
2.76587
2.87134
2.9866
3.10988
3.23869
3.37016
3.50143
3.63003
3.75361
3.86899
3.97117
4.05458
4.11126
4.13066
4.10458
4.03258
3.92452
3.79775
3.67022
3.55273
3.4426
3.33373
3.22215
3.1044
2.97835
2.84369
2.70199
2.55633
2.41068
2.26877
2.1339
2.00851
1.89405
1.79094
1.69881
1.61674
1.5435
1.47773
1.41805
1.36301
1.31109
1.26061
1.20989
1.15748
1.10252
1.04511
0.986593
0.92976
0.878925
0.838983
0.814437
0.810407
0.837209
0.893725
0.962388
1.02212
1.05543
1.05397
1.02042
0.966348
0.907367
0.85778
0.824256
0.804412
0.795053
0.794134
0.800023
0.810712
0.823847
0.837346
0.849644
0.859817
0.867571
0.873101
0.87685
0.879272
0.880667
0.881137
0.880568
0.87877
0.875577
0.87092
0.864865
0.857609
0.849467
0.840815
0.832026
0.82338
0.814929
0.806355
0.796833
0.784957
0.768918
0.746828
0.717171
0.679276
0.633686
0.58229
0.528119
0.474865
0.426183
0.384943
0.353481
0.332513
0.320228
0.313305
0.308186
0.302034
0.293313
0.281841
0.268403
0.254157
0.240182
0.227295
0.21637
0.208652
0.205922
0.210283
0.223552
0.247444
0.282327
0.32313
0.362542
0.393253
0.410398
0.413223
0.405428
0.394248
0.388747
0.408991
0.518058
0.715351
0.934743
1.08375
1.08286
0.908941
0.614396
0.305714
0.0913254
0.0246296
0.00714436
0
-0.000675583
-0.00854092
-0.0284046
-0.0615664
-0.106087
-0.157598
-0.210867
-0.100824
0.296372
0.963559
1.87453
2.94038
4.01149
4.88207
5.31326
5.09157
4.12181
2.51814
0.624559
-1.08284
-2.18611
-2.50511
-2.17871
-1.53496
-0.919638
-0.529689
-0.376931
-0.333539
-0.290528
-0.248337
-0.207077
-0.166954
-0.12799
-0.0899073
-0.0521456
-0.0139471
0.0255053
0.0669317
0.110831
0.157432
0.20674
0.258609
0.312884
0.369487
0.428403
0.489559
0.552636
0.616938
0.681143
0.7433
0.801339
0.853609
0.899434
0.939445
0.975582
1.01074
1.04817
1.09083
1.14067
1.19838
1.26389
1.33697
1.41732
1.5048
1.59953
1.7019
1.81237
1.9317
2.06155
2.20484
2.36536
2.54248
2.72128
2.87786
2.98619
3.02393
2.98179
2.87163
2.72718
2.59253
2.49988
2.4391
2.38112
2.31428
2.22997
2.12275
1.99167
1.84019
1.67493
1.50364
1.33321
1.16728
1.00812
0.856793
0.713543
0.578362
0.451389
0.333102
0.224285
0.125848
0.0386095
-0.036858
-0.100287
-0.151643
-0.191133
-0.219216
-0.236574
-0.243964
-0.242698
-0.234658
-0.222067
-0.207319
-0.192765
-0.1805
-0.172162
-0.16882
-0.170962
-0.178562
-0.191245
-0.208484
-0.229819
-0.255009
-0.284033
-0.316964
-0.353913
-0.394748
-0.438847
-0.484995
-0.531445
-0.576163
-0.617223
-0.653143
-0.682888
-0.70627
-0.72521
-0.7423
-0.759725
-0.778234
-0.796528
-0.811357
-0.81753
-0.801842
-0.757982
-0.703202
-0.667298
-0.679716
-0.75568
-0.888781
-1.05348
-1.21542
-1.34397
-1.43705
-1.50737
-1.55783
-1.58968
-1.60475
-1.60554
-1.59595
-1.57988
-1.5605
-1.53976
-1.51823
-1.49516
-1.46875
-1.43669
-1.39666
-1.34732
-1.28713
-1.21239
-1.11785
-1.00709
-0.898382
-0.814122
-0.773577
-0.784327
-0.836646
-0.904404
-0.953197
-0.952972
-0.898423
-0.812988
-0.712847
-0.605061
-0.49841
-0.400548
-0.316708
-0.24895
-0.196103
-0.154347
-0.118237
-0.0818617
-0.0400514
0.0102244
0.0742157
0.16011
0.271749
0.394605
0.505362
0.57999
0.600796
0.561897
0.471292
0.349249
0.223533
0.122032
0.0547714
0.014866
-0.00599298
-0.00986004
0
0.0229205
0.0524611
0.0856453
0.120591
0.156385
0.193038
0.302326
0.611273
1.26055
2.29312
3.57372
4.7939
5.57163
5.60027
4.78274
3.28956
1.50781
-0.104535
-1.19449
-1.63197
-1.50916
-1.0588
-0.495073
0.0405159
0.487594
0.788809
0.892719
0.967356
1.0353
1.10047
1.16515
1.23112
1.29826
1.3627
1.41863
1.46094
1.48767
1.50109
1.50692
1.51209
1.52214
1.5389
1.56061
1.5862
1.61458
1.64529
1.67871
1.71583
1.75783
1.80548
1.85863
1.91654
1.97875
2.04496
2.11516
2.18963
2.26876
2.35282
2.44177
2.53518
2.63251
2.73324
2.83712
2.94421
3.05469
3.16853
3.28528
3.40322
3.51722
3.62045
3.70614
3.7694
3.80848
3.82467
3.82126
3.80171
3.76817
3.72312
3.66699
3.59807
3.51428
3.41392
3.29613
3.16139
3.01124
2.84804
2.67496
2.49559
2.31376
2.13322
1.95749
1.78972
1.63251
1.48769
1.35622
1.23815
1.13255
1.0376
0.951174
0.871423
0.797262
0.728671
0.666696
0.613139
0.570043
0.538958
0.520725
0.515193
0.521481
0.537648
0.558765
0.577553
0.587301
0.583392
0.564542
0.533337
0.495741
0.459592
0.432449
0.418743
0.417321
0.428136
0.44724
0.46923
0.48877
0.501902
0.506841
0.504076
0.495811
0.484981
0.474184
0.464763
0.456782
0.449535
0.441949
0.433184
0.423121
0.41258
0.403162
0.39679
0.395073
0.398465
0.406384
0.417138
0.427456
0.432935
0.428856
0.410917
0.375934
0.322404
0.250857
0.163912
0.0660271
-0.0370495
-0.139113
-0.235077
-0.320983
-0.393828
-0.45198
-0.495149
-0.524159
-0.540604
-0.546463
-0.54377
-0.534438
-0.52004
-0.501739
-0.480365
-0.456424
-0.430102
-0.401333
-0.36992
-0.335732
-0.298829
-0.25968
-0.219928
-0.182406
-0.150185
-0.125657
-0.109715
-0.101372
-0.0980286
-0.0963015
-0.0931145
-0.0866167
-0.0769697
-0.0651593
-0.0525594
-0.0406672
-0.0307876
-0.0239287
-0.0209833
-0.0228862
-0.0303469
-0.0439108
-0.0637329
-0.0894158
-0.120072
-0.154643
-0.192348
-0.233023
-0.276909
-0.325449
-0.379507
-0.43813
-0.498524
-0.555399
-0.443382
0
0.662945
1.48591
2.39826
3.29386
4.00381
4.31489
4.04214
3.12583
1.69292
0.0374459
-1.47423
-2.52845
-2.96102
-2.78835
-2.17646
-1.37015
-0.612415
-0.077423
0.166479
0.158658
0.176928
0.202676
0.235812
0.276794
0.324406
0.375751
0.426735
0.473153
0.511621
0.540273
0.559107
0.569928
0.575957
0.581216
0.589747
0.60481
0.628457
0.661416
0.70326
0.752834
0.808706
0.869533
0.934427
1.00321
1.07646
1.15531
1.24113
1.33507
1.43764
1.54844
1.66599
1.78777
1.91053
2.03036
2.14297
2.24493
2.33454
2.41213
2.48013
2.54268
2.60481
2.67132
2.74565
2.82907
2.92061
3.01645
3.11104
3.19812
3.26998
3.31828
3.33777
3.32457
3.27632
3.19243
3.07452
2.92665
2.75492
2.56655
2.36934
2.16942
1.97005
1.77325
1.58026
1.39189
1.20884
1.03207
0.862942
0.703311
0.555354
0.42139
0.30364
0.204005
0.123882
0.0642938
0.0274097
0.0189233
0.04597
0.099905
0.156111
0.187551
0.172874
0.104295
-0.00833917
-0.139809
-0.257929
-0.334876
-0.369271
-0.374114
-0.353131
-0.313007
-0.261764
-0.207209
-0.155171
-0.108526
-0.0691098
-0.0374183
-0.0127834
0.00629425
0.02171
0.0352953
0.0484258
0.0617907
0.0753773
0.088658
0.100965
0.111894
0.121612
0.130949
0.141256
0.154059
0.170632
0.191481
0.216436
0.24443
0.273421
0.300855
0.324046
0.340561
0.348234
0.346093
0.334351
0.314582
0.289747
0.264023
0.24234
0.229664
0.234417
0.267563
0.330703
0.408313
0.479473
0.524872
0.532341
0.499686
0.434797
0.353488
0.275277
0.217474
0.184476
0.169672
0.167342
0.168806
0.165465
0.15192
0.127927
0.0983646
0.0712631
0.0547647
0.0540564
0.0666385
0.0888641
0.118586
0.153589
0.191722
0.231295
0.271137
0.3105
0.34887
0.385747
0.420495
0.452232
0.479802
0.501743
0.516225
0.521268
0.515344
0.497381
0.467042
0.424952
0.372798
0.313231
0.249592
0.185509
0.124417
0.069009
0.0218112
-0.0157468
-0.043115
-0.060602
-0.0693008
-0.0709475
-0.0677038
-0.0616794
-0.0536645
0
0.329873
1.03719
2.0761
3.25234
4.28292
4.87512
4.80342
3.98109
2.51708
0.724576
-0.95666
-2.12028
-2.56256
-2.35907
-1.79828
-1.20172
-0.772599
-0.541308
-0.42961
-0.362972
-0.311476
-0.268405
-0.232853
-0.204039
-0.179739
-0.156514
-0.130255
-0.0969485
-0.0535529
0.000865603
0.065318
0.137983
0.215419
0.292603
0.364755
0.428373
0.481921
0.525974
0.562835
0.595783
0.62823
0.663
0.701782
0.745607
0.795348
0.851861
0.91611
0.989145
1.07191
1.16493
1.26795
1.37978
1.4982
1.62024
1.74258
1.86207
1.97618
2.08343
2.18345
2.27693
2.36529
2.45019
2.53315
2.61522
2.69637
2.77455
2.8445
2.89812
2.92657
2.92144
2.87663
2.79008
2.66455
2.50708
2.3271
2.13412
1.93681
1.74012
1.54645
1.35793
1.17639
1.00332
0.83982
0.686489
0.543433
0.41033
0.286581
0.171487
0.0644097
-0.035117
-0.127315
-0.212132
-0.289231
-0.358029
-0.417792
-0.467831
-0.50753
-0.536059
-0.553292
-0.56206
-0.567222
-0.573861
-0.585889
-0.604849
-0.629408
-0.655737
-0.678731
-0.693643
-0.698603
-0.6936
-0.679801
-0.661629
-0.644353
-0.632575
-0.629006
-0.633888
-0.64517
-0.659263
-0.672062
-0.679993
-0.681307
-0.675314
-0.661426
-0.639436
-0.609329
-0.571675
-0.52815
-0.482161
-0.439119
-0.404959
-0.384715
-0.381249
-0.394333
-0.420461
-0.453556
-0.486449
-0.512691
-0.528573
-0.534532
-0.532485
-0.523543
-0.508759
-0.48888
-0.464186
-0.434621
-0.399315
-0.357651
-0.312647
-0.272377
-0.246927
-0.245161
-0.271291
-0.322744
-0.390287
-0.460497
-0.519724
-0.559638
-0.582427
-0.590969
-0.587005
-0.575546
-0.562236
-0.551866
-0.54738
-0.549459
-0.556757
-0.566625
-0.576019
-0.582261
-0.583931
-0.580511
-0.571362
-0.555776
-0.533089
-0.502803
-0.464823
-0.41854
-0.364488
-0.307828
-0.255996
-0.21585
-0.191291
-0.18172
-0.182048
-0.18428
-0.179951
-0.162349
-0.13072
-0.0871647
-0.0327236
0.0322436
0.108574
0.198834
0.303623
0.413209
0.510777
0.578345
0.602692
0.5801
0.517568
0.430145
0.33599
0.251513
0.183893
0.130887
0.0889542
0.055567
0.0286439
0.00224705
-0.0308091
-0.0773272
-0.142032
-0.226185
-0.326963
-0.447258
-0.422062
0
0.777556
1.82059
3.01555
4.21309
5.18592
5.63567
5.2915
4.06645
2.16939
0.0752461
-1.65866
-2.63712
-2.78724
-2.33787
-1.64718
-1.00392
-0.527512
-0.200887
0.0195459
0.109373
0.1692
0.216414
0.253716
0.281891
0.302838
0.31923
0.334037
0.350036
0.369391
0.39331
0.422143
0.455703
0.493436
0.534525
0.578041
0.623083
0.668898
0.714983
0.761155
0.807581
0.854746
0.903355
0.954206
1.00806
1.06554
1.12716
1.19329
1.26434
1.34074
1.42299
1.51163
1.60706
1.70944
1.81851
1.93361
2.05365
2.17726
2.30302
2.42964
2.55614
2.68196
2.80679
2.9302
3.05064
3.16307
3.25792
3.32246
3.34591
3.3248
3.26508
3.17925
3.07978
2.97299
2.85864
2.73624
2.60549
2.46537
2.31585
2.15834
1.99545
1.83059
1.66729
1.5088
1.35779
1.21615
1.08498
0.964723
0.855304
0.756326
0.667169
0.587027
0.514892
0.449677
0.390071
0.334172
0.280187
0.226825
0.173644
0.121207
0.07096
0.024843
-0.0152111
-0.0478131
-0.0722569
-0.0883295
-0.0962027
-0.0962086
-0.0888635
-0.0747107
-0.0539215
-0.0274993
0.00124764
0.0278163
0.0479087
0.0586955
0.0596674
0.0526524
0.0409578
0.0280141
0.0161353
0.00576835
-0.00367074
-0.0130959
-0.0230662
-0.0333031
-0.0426567
-0.0494854
-0.0522283
-0.0500833
-0.0433578
-0.0324663
-0.0178209
7.31468e-005
0.0206483
0.0432669
0.0669005
0.0893585
0.107376
0.117279
0.115937
0.101841
0.0758926
0.0415788
0.0044096
-0.0292559
-0.0537311
-0.0670209
-0.0652418
-0.0474288
-0.0229828
-0.0044816
-0.00381794
-0.0283521
-0.0784025
-0.146992
-0.221929
-0.289399
-0.338031
-0.367521
-0.379786
-0.374883
-0.354269
-0.32031
-0.275844
-0.224108
-0.16801
-0.110719
-0.0568553
-0.0115025
0.0204598
0.0352786
0.0313913
0.0102466
-0.0234863
-0.0625257
-0.0983672
-0.123178
-0.133471
-0.129807
-0.110699
-0.0798304
-0.0425094
-0.00366666
0.033736
0.0694644
0.105662
0.145556
0.191774
0.245814
0.305086
0.364121
0.416103
0.454327
0.474153
0.473744
0.454365
0.420194
0.377604
0.333853
0.295286
0.265496
0.244867
0.228747
0.210203
0.18312
0.144938
0.0977307
0.0472213
0.000357199
-0.0372347
-0.0647586
0
0.264543
0.747567
1.53399
2.60635
3.79654
4.80614
5.29596
5.0198
3.94865
2.31661
0.548695
-0.905235
-1.74917
-1.93271
-1.64643
-1.16147
-0.706483
-0.390229
-0.209347
-0.118608
-0.0575971
-0.000845885
0.0567221
0.118128
0.190446
0.290712
0.423967
0.563287
0.667126
0.699238
0.648933
0.539343
0.418472
0.338026
0.331816
0.378966
0.449874
0.533057
0.623375
0.716562
0.807827
0.892134
0.966083
1.02824
1.07948
1.12287
1.16308
1.20519
1.25346
1.31045
1.37588
1.44831
1.52748
1.61363
1.70779
1.81159
1.93261
2.08866
2.27729
2.46288
2.60133
2.66063
2.63717
2.55978
2.47896
2.44582
2.49082
2.59296
2.75089
2.93152
3.09358
3.21003
3.26852
3.26438
3.19537
3.06243
2.87501
2.65518
2.43409
2.2357
2.05999
1.89723
1.74142
1.59051
1.44376
1.30124
1.16389
1.03334
0.911573
0.800541
0.701842
0.616494
0.544843
0.486554
0.440797
0.406384
0.381428
0.363187
0.348721
0.335227
0.320385
0.302668
0.281528
0.257415
0.231609
0.20589
0.182041
0.161374
0.144661
0.132051
0.122375
0.113376
0.102869
0.0897296
0.0746782
0.0605421
0.0518222
0.0536129
0.0718572
0.117591
0.189188
0.269619
0.337592
0.375317
0.374286
0.336961
0.274444
0.201921
0.134148
0.0800545
0.0408094
0.015654
0.00426534
0.0066212
0.0226763
0.0531504
0.0969711
0.147557
0.195335
0.231195
0.248823
0.246436
0.227238
0.19837
0.168711
0.146263
0.134656
0.132599
0.137691
0.147493
0.158199
0.165188
0.164203
0.152215
0.128121
0.0931826
0.0510529
0.00727241
-0.031316
-0.0580963
-0.068017
-0.0586197
-0.0304952
0.0129354
0.0662314
0.123109
0.177859
0.226747
0.267475
0.299514
0.323959
0.343094
0.359761
0.376675
0.395818
0.417942
0.442545
0.468311
0.493133
0.5145
0.529874
0.536996
0.534108
0.520081
0.494504
0.45773
0.410901
0.355811
0.29451
0.230464
0.167993
0.111204
0.0633191
0.0261766
0
-0.018725
0.0140497
0.254328
0.722275
1.44059
2.35236
3.33577
4.22831
4.83779
4.95447
4.40735
3.17129
1.45965
-0.296317
-1.61588
-2.19979
-2.0686
-1.51444
-0.894782
-0.438113
-0.176871
-0.0284332
0.0702569
0.157192
0.238386
0.31417
0.383556
0.444885
0.497027
0.539339
0.571907
0.595663
0.612334
0.624206
0.6338
0.643558
0.655523
0.671186
0.691812
0.718483
0.752031
0.792958
0.841324
0.896645
0.957868
1.02351
1.09191
1.16151
1.2313
1.301
1.37118
1.44318
1.5188
1.59998
1.68841
1.78516
1.89056
2.00405
2.12419
2.24879
2.37508
2.50007
2.62084
2.73492
2.84048
2.93639
3.02173
3.09574
3.15788
3.20751
3.24333
3.26337
3.26541
3.24734
3.20772
3.14631
3.06411
2.96312
2.84584
2.71453
2.57128
2.41829
2.25739
2.08989
1.91789
1.74458
1.57418
1.41152
1.26131
1.1274
1.01247
0.918138
0.843659
0.78466
0.735629
0.691086
0.646611
0.59951
0.549005
0.49597
0.442381
0.390617
0.342578
0.299706
0.263119
0.233467
0.211096
0.195928
0.187551
0.185323
0.188581
0.196583
0.208674
0.224615
0.244757
0.270062
0.30226
0.345908
0.407806
0.486324
0.565643
0.624801
0.646206
0.623785
0.566859
0.497719
0.443556
0.425888
0.445477
0.486206
0.536603
0.590508
0.641851
0.685507
0.717623
0.736218
0.740965
0.732943
0.714332
0.688072
0.657539
0.626178
0.597134
0.572838
0.554374
0.541771
0.534756
0.532334
0.532574
0.533217
0.532319
0.528709
0.522259
0.513889
0.505287
0.498424
0.49501
0.495855
0.500779
0.509025
0.519364
0.530207
0.539821
0.546549
0.549201
0.547264
0.541104
0.532091
0.522599
0.515822
0.515402
0.524884
0.547032
0.583246
0.634145
0.700869
0.77893
0.858142
0.927601
0.977987
1.00326
1.00137
0.973932
0.925373
0.861809
0.790386
0.717329
0.646344
0.579331
0.516915
0.457982
0.400267
0.341152
0.278087
0.210003
0.138635
0.0674063
0
-0.0491835
0.275104
0.785185
1.45858
2.30944
3.30554
4.31325
5.09571
5.38371
4.98592
3.88467
2.27179
0.503213
-1.01397
-1.96078
-2.21122
-1.87726
-1.21187
-0.504865
0.0344443
0.310727
0.301651
0.27999
0.262054
0.253413
0.258008
0.277222
0.308276
0.347011
0.390092
0.434384
0.477497
0.51816
0.55626
0.592595
0.62847
0.665275
0.70411
0.745711
0.79051
0.838664
0.890104
0.944576
1.00162
1.0606
1.12072
1.18116
1.24124
1.30081
1.36049
1.42184
1.48717
1.5592
1.64043
1.73254
1.83589
1.94904
2.06927
2.19335
2.3177
2.43892
2.55411
2.66111
2.75864
2.84644
2.92502
2.99548
3.05914
3.11677
3.16787
3.20994
3.23859
3.24749
3.22947
3.17863
3.09219
2.97157
2.82222
2.65248
2.47181
2.28939
2.11041
1.93815
1.77485
1.62159
1.47839
1.34441
1.21834
1.09881
0.984819
0.875992
0.772738
0.676149
0.587747
0.509048
0.441318
0.385237
0.340923
0.307794
0.284123
0.267563
0.255563
0.245721
0.236085
0.225362
0.213009
0.19921
0.184754
0.170829
0.158728
0.149633
0.144407
0.143432
0.146523
0.152716
0.16016
0.166497
0.169386
0.166998
0.158441
0.144003
0.125144
0.104232
0.0841012
0.0674636
0.0563111
0.051843
0.0546569
0.0646106
0.0809119
0.102197
0.126698
0.151938
0.173464
0.18609
0.185049
0.167464
0.133661
0.0876637
0.0364671
-0.0117927
-0.0500947
-0.0758831
-0.0901021
-0.0939148
-0.0896903
-0.0802174
-0.0682325
-0.0557143
-0.0440754
-0.0344086
-0.027638
-0.0246017
-0.0260202
-0.0323694
-0.0437219
-0.0596378
-0.0791689
-0.100996
-0.12367
-0.145878
-0.16664
-0.18536
-0.20176
-0.215629
-0.22656
-0.233701
-0.23592
-0.231987
-0.220965
-0.202605
-0.177578
-0.147442
-0.114329
-0.0804487
-0.0475279
-0.0163564
0.0131947
0.0421466
0.072136
0.104988
0.142434
0.186313
0.237626
0.292728
0.343698
0.382101
0.402175
0.403296
0.390467
0.372364
0.357655
0.351254
0.351284
0.352991
0.350678
0.339022
0.314721
0.277358
0.229385
0.175465
0.121505
0.0728577
0.0343046
0.00940933
0
0.0090126
0.0311853
0.0628391
0.119276
0.234276
0.593044
1.34931
2.50121
3.85274
5.07211
5.80915
5.80796
4.98315
3.45629
1.54846
-0.291555
-1.63076
-2.22072
-2.09403
-1.53651
-0.892508
-0.407847
-0.149369
-0.0653934
-0.0176398
0.0321991
0.0844676
0.139538
0.19756
0.258125
0.320293
0.382761
0.444104
0.503032
0.5586
0.610382
0.658487
0.703466
0.746117
0.787212
0.827198
0.865966
0.902676
0.936042
0.964878
0.988877
1.00925
1.02894
1.05234
1.08441
1.12966
1.19051
1.26616
1.35462
1.45367
1.56073
1.67296
1.7878
1.90328
2.01824
2.13223
2.24538
2.35795
2.47004
2.58127
2.69072
2.79699
2.89847
2.99362
3.08117
3.15998
3.22878
3.2859
3.32902
3.35519
3.36106
3.3429
3.29749
3.22299
3.11961
2.98997
2.83881
2.6724
2.49791
2.32171
2.14822
1.98067
1.8211
1.67043
1.52876
1.39565
1.27063
1.15346
1.04439
0.944174
0.85385
0.774912
0.709574
0.658211
0.617842
0.584423
0.554133
0.52465
0.495805
0.469234
0.447107
0.431779
0.421064
0.407683
0.382388
0.338269
0.274684
0.198867
0.124329
0.0667228
0.0389628
0.0378017
0.0676712
0.134542
0.238221
0.362429
0.480106
0.567441
0.605106
0.581574
0.498108
0.371981
0.234457
0.12264
0.067082
0.108674
0.262477
0.461172
0.619464
0.670397
0.593921
0.425029
0.236317
0.102762
0.0656698
0.0806605
0.11088
0.145586
0.180639
0.213246
0.241928
0.266358
0.286955
0.304337
0.318679
0.329342
0.335147
0.334554
0.326398
0.310632
0.288798
0.263984
0.240252
0.221664
0.211675
0.212705
0.222976
0.23751
0.249917
0.2542
0.246365
0.225461
0.193857
0.156785
0.121252
0.0940278
0.0795436
0.0793937
0.0933924
0.121664
0.159553
0.200007
0.236281
0.263738
0.280966
0.289905
0.295008
0.30182
0.315473
0.338502
0.370879
0.411974
0.460921
0.516435
0.576732
0.639042
0.699605
0.754113
0.798348
0.82865
0.842408
0.838476
0.817422
0.781525
0.734485
0.680837
0.625137
0.570999
0.520116
0.472326
0.426332
0.379755
0.329616
0.272323
0.203583
0.122879
0.0323262
-0.0681053
0
0.428637
1.20455
2.22706
3.34018
4.38174
5.19665
5.62431
5.50176
4.72139
3.32615
1.56844
-0.139459
-1.38493
-1.93824
-1.84029
-1.34421
-0.750413
-0.260199
0.074255
0.29855
0.449454
0.551251
0.632519
0.69829
0.746193
0.775922
0.789416
0.790655
0.785062
0.778646
0.777045
0.784162
0.801501
0.829038
0.866033
0.911149
0.962462
1.01769
1.07445
1.13043
1.18332
1.23123
1.27336
1.30998
1.34257
1.37371
1.4067
1.44496
1.49135
1.54764
1.61353
1.68755
1.76829
1.85443
1.94481
2.0387
2.13585
2.23637
2.34047
2.44818
2.55912
2.6723
2.78616
2.89852
3.00674
3.10793
3.19879
3.27497
3.33152
3.36559
3.37474
3.35731
3.31287
3.24254
3.1489
3.0354
2.90558
2.7629
2.61149
2.45397
2.29172
2.1262
1.95918
1.79274
1.62924
1.47115
1.32097
1.18109
1.05362
0.940246
0.842043
0.759603
0.69289
0.640362
0.59905
0.565499
0.536341
0.508834
0.481229
0.452857
0.423966
0.395371
0.368041
0.342756
0.320074
0.300466
0.28434
0.272131
0.264295
0.261198
0.263205
0.270519
0.281888
0.294445
0.304801
0.309931
0.308074
0.299318
0.285671
0.270605
0.258231
0.251915
0.253091
0.262521
0.280962
0.306641
0.334504
0.358673
0.373898
0.376898
0.36719
0.347154
0.32132
0.295137
0.273584
0.259081
0.251693
0.250752
0.255253
0.263038
0.271445
0.278241
0.282138
0.283005
0.281692
0.279517
0.277579
0.276243
0.274535
0.270517
0.26216
0.248353
0.22958
0.207978
0.186737
0.16913
0.157326
0.15137
0.150503
0.153772
0.159662
0.166278
0.171458
0.172707
0.167874
0.155474
0.135191
0.107295
0.075088
0.0459758
0.0283125
0.0288938
0.0507015
0.0918479
0.1462
0.205454
0.261845
0.311459
0.35467
0.392107
0.425568
0.457244
0.488893
0.521247
0.552114
0.576542
0.588649
0.583801
0.560263
0.519612
0.465752
0.40302
0.334345
0.261073
0.183521
0.101218
0.0135794
-0.0787595
-0.176415
-0.257133
0
0.663562
1.67792
2.86628
3.98318
4.77519
5.03412
4.63957
3.60048
2.08355
0.397914
-1.08475
-2.05739
-2.38832
-2.1568
-1.58359
-0.91804
-0.340697
0.0681981
0.272207
0.302559
0.324579
0.347373
0.374484
0.412087
0.473691
0.573893
0.694106
0.801609
0.862153
0.855214
0.785187
0.682827
0.594855
0.564638
0.610979
0.695065
0.791795
0.888841
0.975675
1.04595
1.09867
1.13788
1.17092
1.20596
1.24966
1.30394
1.36783
1.44024
1.52015
1.60686
1.70049
1.80222
1.91406
2.03831
2.17678
2.33023
2.50366
2.69739
2.88994
3.056
3.17553
3.24129
3.26173
3.25787
3.25528
3.27435
3.33034
3.41202
3.49445
3.55136
3.56553
3.53243
3.45746
3.34966
3.21591
3.06058
2.88905
2.70616
2.51642
2.32455
2.13562
1.95511
1.78911
1.64728
1.54161
1.46797
1.41403
1.36427
1.30528
1.23013
1.1401
1.04322
0.950523
0.871889
0.807833
0.755985
0.716151
0.687421
0.668626
0.65876
0.657197
0.663673
0.678061
0.70005
0.729052
0.763947
0.802479
0.840739
0.874256
0.899339
0.914003
0.918458
0.914972
0.907102
0.898562
0.892165
0.889089
0.888941
0.891097
0.894745
0.899201
0.903992
0.908776
0.913254
0.917241
0.920886
0.924926
0.930742
0.940087
0.95451
0.974685
0.999798
1.02759
1.05561
1.08116
1.10178
1.11568
1.12186
1.12008
1.11065
1.09432
1.07212
1.0451
1.01423
0.980594
0.945375
0.909879
0.875509
0.843747
0.816138
0.794239
0.779508
0.77319
0.776669
0.791868
0.819077
0.852586
0.883448
0.902506
0.903105
0.883173
0.845866
0.798547
0.750618
0.711052
0.684005
0.669222
0.665992
0.674015
0.692385
0.719616
0.753874
0.793198
0.835681
0.879609
0.923569
0.966459
1.00767
1.04723
1.08594
1.12534
1.16759
1.21628
1.27955
1.36264
1.45186
28
246
467
690
909
1109
1307
1511
1720
1921
2126
2343
2556
2754
2951
3159
3369
3569
3651
3021
3173
3325
3486
3637
3739
3623
3533
3665
0
0
0
0
0
0
0
0
0
0
0
0
0
0
0
0
0
0
0
0
0
0
0
0
0
0
0
0
0
0
0
0
0
0
0
0
0
0
0
0
0
0
0
0
0
0
0
0
0
0
0
0
0
0
0
0
0
0
0
0
0
0
0
0
0
0
0
0
0
0
0
0
0
0
0
0
0
0
0
0
0
0
0
0
0
0
0
0
0
0
0
0
0
0
0
0
0
0
0
0
0
0
0
0
0
0
0
0
0
0
0
0
0
0
0
0
0
0
0
0
0
0
0
0
0
0
0
0
0
0
0
0
0
0
0
0
0
0
0
0
0
0
0
0
0
0
0
0
0
0
0
0
0
0
0
0
0
0
0
0
0
0
0
0
0
0
0
0
0
0
0
0
0
0
0
0
0
0
0
0
0
0
0
0
0
0
0
0
0
0
0
0
0
0
0
0
0
0
0
0
0
0
0
0
0
0
0
0
0
0
0
0
0
0
0
0
0
0
0
0
0
0
0
0
0
0
0
0
0
0
0
0
0
0
0
0
0
0
0
0
0
0
0
0
0
0
0
0
0
0
0
0
0
0
0
0
0
0
0
0
0
0
0
0
0
0
0
0
0
0
0
0
0
0
0
0
0
0
0
0
0
0
0
0
0
0
0
0
0
0
0
0
0
0
0
0
0
0
0
0
0
0
0
0
0
0
0
0
0
0
0
0
0
0
0
0
0
0
0
0
0
0
0
0
0
0
0
0
0
0
0
0
0
0
0
0
0
0
0
0
0
0
0
0
0
0
0
0
0
0
0
0
0
0
0
0
0
0
0
0
0
0
0
0
0
0
0
0
0
0
0
0
0
0
0
0
0
0
0
0
0
0
0
0
0
0
0
0
0
0
0
0
0
0
0
0
0
0
0
0
0
0
0
0
0
0
0
0
0
0
0
0
0
0
0
0
0
0
0
0
0
0
0
0
0
0
0
0
0
0
0
0
0
0
0
0
0
0
0
0
0
0
0
0
0
0
0
0
0
0
0
0
0
0
0
0
0
0
0
0
0
0
0
0
0
0
0
0
0
0
0
0
0
0
0
0
0
0
0
0
0
0
0
0
0
0
0
0
0
0
0
0
0
0
0
0
0
0
0
0
0
0
0
0
0
0
0
0
0
0
0
0
0
0
0
0
0
0
0
0
0
0
0
0
0
0
0
0
0
0
0
0
0
0
0
0
0
0
0
0
0
0
0
0
0
0
0
0
0
0
0
0
0
0
0
0
0
0
0
0
0
0
0
0
0
0
0
0
0
0
0
0
0
0
0
0
0
0
0
0
0
0
0
0
0
0
0
0
0
0
0
0
0
0
0
0
0
0
0
0
0
0
0
0
0
0
0
0
0
0
0
0
0
0
0
0
0
0
0
0
0
0
0
0
0
0
0
0
0
0
0
0
0
0
0
0
0
0
0
0
0
0
0
0
0
0
0
0
0
0
0
0
0
0
0
0
0
0
0
0
0
0
0
0
0
0
0
0
0
0
0
0
0
0
0
0
0
0
0
0
0
0
0
0
0
0
0
0
0
0
0
0
0
0
0
0
0
0
0
0
0
0
0
0
0
0
0
0
0
0
0
0
0
0
0
0
0
0
0
0
0
0
0
0
0
0
0
0
0
0
0
0
0
0
0
0
0
0
0
0
0
0
0
0
0
0
0
0
0
0
0
0
0
0
0
0
0
0
0
0
0
0
0
0
0
0
0
0
0
0
0
0
0
0
0
0
0
0
0
0
0
0
0
0
0
0
0
0
0
0
0
0
0
0
0
0
0
0
0
0
0
0
0
0
0
0
0
0
0
0
0
0
0
0
0
0
0
0
0
0
0
0
0
0
0
0
0
0
0
0
0
0
0
0
0
0
0
0
0
0
0
0
0
0
0
0
0
0
0
0
0
0
0
0
0
0
0
0
0
0
0
0
0
0
0
0
0
0
0
0
0
0
0
0
0
0
0
0
0
0
0
0
0
0
0
0
0
0
0
0
0
0
0
0
0
0
0
0
0
0
0
0
0
0
0
0
0
0
0
0
0
0
0
0
0
0
0
0
0
0
0
0
0
0
0
0
0
0
0
0
0
0
0
0
0
0
0
0
0
0
0
0
0
0
0
0
0
0
0
0
0
0
0
0
0
0
0
0
0
0
0
0
0
0
0
0
0
0
0
0
0
0
0
0
0
0
0
0
0
0
0
0
0
0
0
0
0
0
0
0
0
0
0
0
0
0
0
0
0
0
0
0
0
0
0
0
0
0
0
0
0
0
0
0
0
0
0
0
0
0
0
0
0
0
0
0
0
0
0
0
0
0
0
0
0
0
0
0
0
0
0
0
0
0
0
0
0
0
0
0
0
0
0
0
0
0
0
0
0
0
0
0
0
0
0
0
0
0
0
0
0
0
0
0
0
0
0
0
0
0
0
0
0
0
0
0
0
0
0
0
0
0
0
0
0
0
0
0
0
0
0
0
0
0
0
0
0
0
0
0
0
0
0
0
0
0
0
0
0
0
0
0
0
0
0
0
0
0
0
0
0
0
0
0
0
0
0
0
0
0
0
0
0
0
0
0
0
0
0
0
0
0
0
0
0
0
0
0
0
0
0
0
0
0
0
0
0
0
0
0
0
0
0
0
0
0
0
0
0
0
0
0
0
0
0
0
0
0
0
0
0
0
0
0
0
0
0
0
0
0
0
0
0
0
0
0
0
0
0
0
0
0
0
0
0
0
0
0
0
0
0
0
0
0
0
0
0
0
0
0
0
0
0
0
0
0
0
0
0
0
0
0
0
0
0
0
0
0
0
0
0
0
0
0
0
0
0
0
0
0
0
0
0
0
0
0
0
0
0
0
0
0
0
0
0
0
0
0
0
0
0
0
0
0
0
0
0
0
0
0
0
0
0
0
0
0
0
0
0
0
0
0
0
0
0
0
0
0
0
0
0
0
0
0
0
0
0
0
0
0
0
0
0
0
0
0
0
0
0
0
0
0
0
0
0
0
0
0
0
0
0
0
0
0
0
0
0
0
0
0
0
0
0
0
0
0
0
0
0
0
0
0
0
0
0
0
0
0
0
0
0
0
0
0
0
0
0
0
0
0
0
0
0
0
0
0
0
0
0
0
0
0
0
0
0
0
0
0
0
0
0
0
0
0
0
0
0
0
0
0
0
0
0
0
0
0
0
0
0
0
0
0
0
0
0
0
0
0
0
0
0
0
0
0
0
0
0
0
0
0
0
0
0
0
0
0
0
0
0
0
0
0
0
0
0
0
0
0
0
0
0
0
0
0
0
0
0
0
0
0
0
0
0
0
0
0
0
0
0
0
0
0
0
0
0
0
0
0
0
0
0
0
0
0
0
0
0
0
0
0
0
0
0
0
0
0
0
0
0
0
0
0
0
0
0
0
0
0
0
0
0
0
0
0
0
0
0
0
0
0
0
0
0
0
0
0
0
0
0
0
0
0
0
0
0
0
0
0
0
0
0
0
0
0
0
0
0
0
0
0
0
0
0
0
0
0
0
0
0
0
0
0
0
0
0
0
0
0
0
0
0
0
0
0
0
0
0
0
0
0
0
0
0
0
0
0
0
0
0
0
0
0
0
0
0
0
0
0
0
0
0
0
0
0
0
0
0
0
0
0
0
0
0
0
0
0
0
0
0
0
0
0
0
0
0
0
0
0
0
0
0
0
0
0
0
0
0
0
0
0
0
0
0
0
0
0
0
0
0
0
0
0
0
0
0
0
0
0
0
0
0
0
0
0
0
0
0
0
0
0
0
0
0
0
0
0
0
0
0
0
0
0
0
0
0
0
0
0
0
0
0
0
0
0
0
0
0
0
0
0
0
0
0
0
0
0
0
0
0
0
0
0
0
0
0
0
0
0
0
0
0
0
0
0
0
0
0
0
0
0
0
0
0
0
0
0
0
0
0
0
0
0
0
0
0
0
0
0
0
0
0
0
0
0
0
0
0
0
0
0
0
0
0
0
0
0
0
0
0
0
0
0
0
0
0
0
0
0
0
0
0
0
0
0
0
0
0
0
0
0
0
0
0
0
0
0
0
0
0
0
0
0
0
0
0
0
0
0
0
0
0
0
0
0
0
0
0
0
0
0
0
0
0
0
0
0
0
0
0
0
0
0
0
0
0
0
0
0
0
0
0
0
0
0
0
0
0
0
0
0
0
0
0
0
0
0
0
0
0
0
0
0
0
0
0
0
0
0
0
0
0
0
0
0
0
0
0
0
0
0
0
0
0
0
0
0
0
0
0
0
0
0
0
0
0
0
0
0
0
0
0
0
0
0
0
0
0
0
0
0
0
0
0
0
0
0
0
0
0
0
0
0
0
0
0
0
0
0
0
0
0
0
0
0
0
0
0
0
0
0
0
0
0
0
0
0
0
0
0
0
0
0
0
0
0
0
0
0
0
0
0
0
0
0
0
0
0
0
0
0
0
0
0
0
0
0
0
0
0
0
0
0
0
0
0
0
0
0
0
0
0
0
0
0
0
0
0
0
0
0
0
0
0
0
0
0
0
0
0
0
0
0
0
0
0
0
0
0
0
0
0
0
0
0
0
0
0
0
0
0
0
0
0
0
0
0
0
0
0
0
0
0
0
0
0
0
0
0
0
0
0
0
0
0
0
0
0
0
0
0
0
0
0
0
0
0
0
0
0
0
0
0
0
0
0
0
0
0
0
0
0
0
0
0
0
0
0
0
0
0
0
0
0
0
0
0
0
0
0
0
0
0
0
0
0
0
0
0
0
0
0
0
0
0
0
0
0
0
0
0
0
0
0
0
0
0
0
0
0
0
0
0
0
0
0
0
0
0
0
0
0
0
0
0
0
0
0
0
0
0
0
0
0
0
0
0
0
0
0
0
0
0
0
0
0
0
0
0
0
0
0
0
0
0
0
0
0
0
0
0
0
0
0
0
0
0
0
0
0
0
0
0
0
0
0
0
0
0
0
0
0
0
0
0
0
0
0
0
0
0
0
0
0
0
0
0
0
0
0
0
0
0
0
0
0
0
0
0
0
0
0
0
0
0
0
0
0
0
0
0
0
0
0
0
0
0
0
0
0
0
0
0
0
0
0
0
0
0
0
0
0
0
0
0
0
0
0
0
0
0
0
0
0
0
0
0
0
0
0
0
0
0
0
0
0
0
0
0
0
0
0
0
0
0
0
0
0
0
0
0
0
0
0
0
0
0
0
0
0
0
0
0
0
0
0
0
0
0
0
0
0
0
0
0
0
0
0
0
0
0
0
0
0
0
0
0
0
0
0
0
0
0
0
0
0
0
0
0
0
0
0
0
0
0
0
0
0
0
0
0
0
0
0
0
0
0
0
0
0
0
0
0
0
0
0
0
0
0
0
0
0
0
0
0
0
0
0
0
0
0
0
0
0
0
0
0
0
0
0
0
0
0
0
0
0
0
0
0
0
0
0
0
0
0
0
0
0
0
0
0
0
0
0
0
0
0
0
0
0
0
0
0
0
0
0
0
0
0
0
0
0
0
0
0
0
0
0
0
0
0
0
0
0
0
0
0
0
0
0
0
0
0
0
0
0
0
0
0
0
0
0
0
0
0
0
0
0
0
0
0
0
0
0
0
0
0
0
0
0
0
0
0
0
0
0
0
0
0
0
0
0
0
0
0
0
0
0
0
0
0
0
0
0
0
0
0
0
0
0
0
0
0
0
0
0
0
0
0
0
0
0
0
0
0
0
0
0
0
0
0
0
0
0
0
0
0
0
0
0
0
0
0
0
0
0
0
0
0
0
0
0
0
0
0
0
0
0
0
0
0
0
0
0
0
0
0
0
0
0
0
0
0
0
0
0
0
0
0
0
0
0
0
0
0
0
0
0
0
0
0
0
0
0
0
0
0
0
0
0
0
0
0
0
0
0
0
0
0
0
0
0
0
0
0
0
0
0
0
0
0
0
0
0
0
0
0
0
0
0
0
0
0
0
0
0
0
0
0
0
0
0
0
0
0
0
0
0
0
0
0
0
0
0
0
0
0
0
0
0
0
0
0
0
0
0
0
0
0
0
0
0
0
0
0
0
0
0
0
0
0
0
0
0
0
0
0
0
0
0
0
0
0
0
0
0
0
0
0
0
0
0
0
0
0
0
0
0
0
0
0
0
0
0
0
0
0
0
0
0
0
0
0
0
0
0
0
0
0
0
0
0
0
0
0
0
0
0
0
0
0
0
0
0
0
0
0
0
0
0
0
0
0
0
0
0
0
0
0
0
0
0
0
0
0
0
0
0
0
0
0
0
0
0
0
0
0
0
0
0
0
0
0
0
0
0
0
0
0
0
0
0
0
0
0
0
0
0
0
0
0
0
0
0
0
0
0
0
0
0
0
0
0
0
0
0
0
0
0
0
0
0
0
0
0
0
0
0
0
0
0
0
0
0
0
0
0
0
0
0
0
0
0
0
0
0
0
0
0
0
0
0
0
0
0
0
0
0
0
0
0
0
0
0
0
0
0
0
0
0
0
0
0
0
0
0
0
0
0
0
0
0
0
0
0
0
0
0
0
0
0
0
0
0
0
0
0
0
0
0
0
0
0
0
0
0
0
0
0
0
0
0
0
0
0
0
0
0
0
0
0
0
0
0
0
0
0
0
0
0
0
0
0
0
0
0
0
0
0
0
0
0
0
0
0
0
0
0
0
0
0
0
0
0
0
0
0
0
0
0
0
0
0
0
0
0
0
0
0
0
0
0
0
0
0
0
0
0
0
0
0
0
0
0
0
0
0
0
0
0
0
0
0
0
0
0
0
0
0
0
0
0
0
0
0
0
0
0
0
0
0
0
0
0
0
0
0
0
0
0
0
0
0
0
0
0
0
0
0
0
0
0
0
0
0
0
0
0
0
0
0
0
0
0
0
0
0
0
0
0
0
0
0
0
0
0
0
0
0
0
0
0
0
0
0
0
0
0
0
0
0
0
0
0
0
0
0
0
0
0
0
0
0
0
0
0
0
0
0
0
0
0
0
0
0
0
0
0
0
0
0
0
0
0
0
0
0
0
0
0
0
0
0
0
0
0
0
0
0
0
0
0
0
0
0
0
0
0
0
0
0
0
0
0
0
0
0
0
0
0
0
0
0
0
0
0
0
0
0
0
0
0
0
0
0
0
0
0
0
0
0
0
0
0
0
0
0
0
0
0
0
0
0
0
0
0
0
0
0
0
0
0
0
0
0
0
0
0
0
0
0
0
0
0
0
0
0
0
0
0
0
0
0
0
0
0
0
0
0
0
0
0
0
0
0
0
0
0
0
0
0
0
0
0
0
0
0
0
0
0
0
0
0
0
0
0
0
0
0
0
0
0
0
0
0
0
0
0
0
0
0
0
0
0
0
0
0
0
0
0
0
0
0
0
0
0
0
0
0
0
0
0
0
0
0
0
0
0
0
0
0
0
0
0
0
0
0
0
0
0
0
0
0
0
0
0
0
0
0
0
0
0
0
0
0
0
0
0
0
0
0
0
0
0
0
0
0
0
0
0
0
0
0
0
0
0
0
0
0
0
0
0
0
0
0
0
0
0
0
0
0
0
0
0
0
0
0
0
0
0
0
0
0
0
0
0
0
0
0
0
0
0
0
0
0
0
0
0
0
0
0
0
0
0
0
0
0
0
0
0
0
0
0
0
0
0
0
0
0
0
0
0
0
0
0
0
0
0
0
0
0
0
0
0
0
0
0
0
0
0
0
0
0
0
0
0
0
0
0
0
0
0
0
0
0
0
0
0
0
0
0
0
0
0
0
0
0
0
0
0
0
0
0
0
0
0
0
0
0
0
0
0
0
0
0
0
0
0
0
0
0
0
0
0
0
0
0
0
0
0
0
0
0
0
0
0
0
0
0
0
0
0
0
0
0
0
0
0
0
0
0
0
0
0
0
0
0
0
0
0
0
0
0
0
0
0
0
0
0
0
0
0
0
0
0
0
0
0
0
0
0
0
0
0
0
0
0
0
0
0
0
0
0
0
0
0
0
0
0
0
0
0
0
0
0
0
0
0
0
0
0
0
0
0
0
0
0
0
0
0
0
0
0
0
0
0
0
0
0
0
0
0
0
0
0
0
0
0
0
0
0
0
0
0
0
0
0
0
0
0
0
0
0
0
0
0
0
0
0
0
0
0
0
0
0
0
0
0
0
0
0
0
0
0
0
0
0
0
0
0
0
0
0
0
0
0
0
0
0
0
0
0
0
0
0
0
0
0
0
0
0
0
0
0
0
0
0
0
0
0
0
0
0
0
0
0
0
0
0
0
0
0
0
0
0
0
0
0
0
0
0
0
0
0
0
0
0
0
0
0
0
0
0
0
0
0
0
0
0
0
0
0
0
0
0
0
0
0
0
0
0
0
0
0
0
0
