-1.06589
-0.997061
-0.849313
-0.685787
-0.527923
-0.391647
-0.287455
-0.219738
-0.188078
-0.189611
-0.221171
-0.278791
-0.356176
-0.450495
-0.557483
-0.671475
-0.786234
-0.896351
-0.997749
-1.09078
-1.17937
-1.26939
-1.36614
-1.47603
-1.59447
-1.7057
-1.79105
-1.8371
-1.84134
-1.81275
-1.76748
-1.722
-1.68685
-1.66047
-1.64034
-1.18772
0
2.03841
4.78066
7.81666
10.5651
12.4282
12.964
12.0252
9.8233
6.88522
3.89228
1.44752
-0.1302
-0.879584
-1.09491
-1.11747
-1.13846
-1.15662
-1.17114
-1.18207
-1.19044
-1.1979
-1.20633
-1.21732
-1.23176
-1.24947
-1.26914
-1.28845
-1.30439
-1.3139
-1.31422
-1.30321
-1.27969
-1.24346
-1.19521
-1.13615
-1.06767
-0.991045
-0.907064
-0.816098
-0.718338
-0.613072
-0.499403
-0.383228
-0.275803
-0.188339
-0.126741
-0.0876572
-0.0581097
-0.0191963
0.0477228
0.155086
0.295878
0.457771
0.634044
0.819291
1.00763
1.19313
1.36992
1.53359
1.68145
1.81283
1.92904
2.03304
2.12873
2.21999
2.31045
2.40303
2.49883
2.59374
2.67589
2.72929
2.73681
2.68433
2.56588
2.38701
2.16407
1.91846
1.66876
1.42349
1.18264
0.945944
0.714152
0.488494
0.2709
0.0639179
-0.129625
-0.307114
-0.46665
-0.607401
-0.72973
-0.835053
-0.925503
-1.00348
-1.07122
-1.13049
-1.18244
-1.22763
-1.26619
-1.29798
-1.32276
-1.34029
-1.35037
-1.35284
-1.34765
-1.33487
-1.31488
-1.28838
-1.25658
-1.22109
-1.18383
-1.14687
-1.11209
-1.08103
-1.05475
-1.03389
-1.01875
-1.00947
-1.00629
-1.0092
-1.01785
-1.03128
-1.04766
-1.06424
-1.07726
-1.08285
-1.07677
-1.0522
-1.01343
-0.969749
-0.931501
-0.90575
-0.893424
-0.889459
-0.885846
-0.875978
-0.858191
-0.836943
-0.820973
-0.819915
-0.840409
-0.883288
-0.942891
-1.0088
-1.06946
-1.11633
-1.14889
-1.16942
-1.18301
-1.19457
-1.20609
-1.21548
-1.21755
-1.20687
-1.1808
-1.14179
-1.09584
-1.05081
-1.0137
-0.988459
-0.975624
-0.973485
-0.980211
-0.995639
-1.02008
-1.05605
-1.10555
-1.16856
-1.2449
-1.32628
-1.39909
-1.44959
-1.46808
-1.45199
-1.40664
-1.34349
-1.2766
-1.21851
-1.17452
-1.14529
-1.13063
-1.12881
-1.13769
-1.15539
-1.1796
-1.20866
-1.24012
-1.27049
-1.2955
-1.3109
-1.31231
-1.29402
-1.25913
-1.21841
-1.18424
-1.16583
-1.1658
-1.17955
-1.1976
-1.20994
-1.21034
-1.20072
-1.18551
-1.17181
-1.16674
-1.17507
-1.1975
-1.23035
-1.26634
-1.29646
-1.31346
-1.31448
-1.29708
-1.25979
-1.21172
-1.16493
-1.1305
-1.11513
-1.11953
-1.13908
-1.16624
-1.19343
-1.21537
-1.23094
-1.24006
-1.24229
-1.2377
-1.22545
-1.20626
-1.18597
-1.17212
-1.1716
-1.18761
-1.21784
-1.25472
-1.28794
-1.3082
-1.31121
-1.30135
-1.28165
-1.25399
-1.2201
-1.18124
-1.13757
-1.08844
-1.03285
-0.969847
-0.899028
-0.820801
-0.736368
-0.64761
-0.556865
-0.466695
-0.379917
-0.299619
-0.228664
-0.169426
-0.12403
-0.094348
-0.0819492
-0.0880655
-0.113577
-0.159045
-0.224755
-0.310582
-0.415944
-0.539686
-0.679179
-0.82997
-0.987015
-1.14365
-1.28821
-1.40861
-1.49499
-1.54227
-1.55045
-1.52604
-1.47836
-1.41601
-1.344
-1.26286
-1.17017
-1.06357
-0.943679
-0.815574
0
1.11669
2.6165
4.58756
6.98593
9.53537
11.7321
12.9852
12.8489
11.238
8.51082
5.35403
2.51123
0.49593
-0.566425
-0.896792
-0.950011
-1.00286
-1.05351
-1.09787
-1.13007
-1.14426
-1.13667
-1.10703
-1.05864
-0.997093
-0.928398
-0.85758
-0.787681
-0.720642
-0.659631
-0.608825
-0.572722
-0.555507
-0.559004
-0.580781
-0.613359
-0.645151
-0.662932
-0.655009
-0.618407
-0.557307
-0.472455
-0.366656
-0.244035
-0.109896
0.030892
0.174905
0.319501
0.462904
0.60421
0.743247
0.880342
1.01605
1.15091
1.28535
1.41971
1.55436
1.68987
1.82712
1.9672
2.11122
2.26028
2.41568
2.57834
2.74579
2.90651
3.04421
3.14249
3.18813
3.17444
3.1034
2.98532
2.83572
2.67056
2.5013
2.33124
2.15923
1.98367
1.80302
1.61571
1.42081
1.21839
1.0096
0.79656
0.582134
0.369607
0.162426
-0.0360184
-0.222535
-0.394236
-0.548642
-0.683819
-0.79857
-0.892636
-0.966805
-1.0225
-1.06127
-1.0863
-1.10308
-1.11639
-1.12921
-1.1421
-1.1533
-1.15957
-1.15767
-1.14234
-1.11562
-1.08397
-1.05527
-1.03515
-1.02447
-1.01913
-1.01234
-0.997863
-0.972738
-0.940833
-0.905219
-0.869338
-0.837603
-0.81355
-0.799056
-0.793929
-0.795863
-0.800893
-0.804423
-0.802658
-0.793949
-0.779449
-0.762788
-0.748373
-0.740097
-0.740216
-0.749084
-0.765724
-0.788788
-0.817315
-0.85006
-0.886508
-0.925924
-0.96681
-1.00685
-1.04319
-1.07296
-1.09442
-1.10697
-1.11048
-1.10543
-1.09359
-1.07819
-1.06272
-1.05016
-1.0424
-1.03996
-1.04203
-1.0469
-1.05266
-1.05781
-1.06189
-1.06534
-1.06949
-1.07591
-1.08586
-1.09979
-1.1171
-1.13641
-1.15597
-1.17434
-1.19081
-1.20539
-1.21855
-1.23083
-1.24239
-1.25271
-1.26062
-1.26455
-1.26311
-1.25535
-1.24128
-1.22282
-1.20302
-1.1854
-1.1733
-1.16928
-1.17481
-1.18994
-1.21317
-1.2412
-1.26962
-1.29247
-1.30378
-1.2989
-1.27585
-1.23607
-1.18419
-1.12698
-1.07168
-1.02378
-0.986548
-0.96121
-0.947202
-0.943065
-0.947432
-0.95944
-0.979101
-1.00737
-1.04514
-1.09238
-1.1479
-1.20883
-1.26708
-1.31254
-1.33512
-1.30438
-1.18782
-1.0239
-0.872551
-0.786107
-0.784197
-0.84579
-0.921735
-0.960139
-0.930588
-0.854252
-0.760673
-0.660442
-0.558829
-0.459618
-0.364802
-0.274556
-0.187922
-0.103071
-0.0171236
0.0703096
0.150908
0.209889
0.231093
0.202899
0.122707
-0.0014185
-0.152403
-0.30858
-0.449747
-0.569321
-0.670633
-0.756734
-0.828287
-0.886644
-0.933739
-0.971556
-1.00171
-1.02509
-1.04123
-1.04786
-1.04214
-1.02136
-0.983688
-0.929342
-0.861323
-0.783177
0
1.16238
2.7207
4.63962
6.78686
8.90329
10.6168
11.5237
11.3196
9.93441
7.60139
4.81311
2.16403
0.143032
-1.0267
-1.41916
-1.25048
-1.09717
-0.97343
-0.89007
-0.851744
-0.854881
-0.887824
-0.933526
-0.973839
-0.993733
-0.990635
-0.968994
-0.932363
-0.882774
-0.821585
-0.75306
-0.684361
-0.622417
-0.572494
-0.536935
-0.514511
-0.500596
-0.48816
-0.469308
-0.437143
-0.388788
-0.323972
-0.243401
-0.148272
-0.0402149
0.0787807
0.206615
0.341264
0.480873
0.623782
0.768557
0.91403
1.05935
1.20402
1.34787
1.49095
1.63338
1.77514
1.91588
2.05481
2.19064
2.32166
2.44554
2.55992
2.66304
2.75389
2.83233
2.89897
2.95472
2.99815
3.02451
3.02923
3.00481
2.94312
2.83835
2.68926
2.49962
2.27662
2.02834
1.76275
1.48903
1.21152
0.934322
0.662396
0.401469
0.157785
-0.0619881
-0.254123
-0.417521
-0.553745
-0.666485
-0.760598
-0.841026
-0.911871
-0.975787
-1.03376
-1.08558
-1.12988
-1.16464
-1.18789
-1.19743
-1.18964
-1.16081
-1.11624
-1.06931
-1.03383
-1.01942
-1.02791
-1.05261
-1.08084
-1.09858
-1.09524
-1.07154
-1.03443
-0.988356
-0.936385
-0.88201
-0.828978
-0.780616
-0.739556
-0.707595
-0.685658
-0.673856
-0.671592
-0.677682
-0.690483
-0.707956
-0.728135
-0.7492
-0.769697
-0.788603
-0.805626
-0.82095
-0.834813
-0.847045
-0.856744
-0.862251
-0.861481
-0.852513
-0.833308
-0.802011
-0.760847
-0.719445
-0.690149
-0.684669
-0.710982
-0.771198
-0.861023
-0.97083
-1.08773
-1.19771
-1.28746
-1.34497
-1.36066
-1.32908
-1.25103
-1.13522
-0.997858
-0.859688
-0.740917
-0.653059
-0.593512
-0.563067
-0.559643
-0.579871
-0.620571
-0.677702
-0.747959
-0.82981
-0.923935
-1.03201
-1.14969
-1.26135
-1.34853
-1.39497
-1.39163
-1.33992
-1.2516
-1.14553
-1.04243
-0.959557
-0.898784
-0.857312
-0.835651
-0.832484
-0.845012
-0.869339
-0.900832
-0.934968
-0.967868
-0.996675
-1.02014
-1.03915
-1.05555
-1.07072
-1.0844
-1.09406
-1.09537
-1.08338
-1.05425
-1.00904
-0.950806
-0.880851
-0.804249
-0.729548
-0.665009
-0.616796
-0.587642
-0.576243
-0.577517
-0.583591
-0.58532
-0.574079
-0.54592
-0.500612
-0.439126
-0.358949
-0.264552
-0.168367
-0.083276
-0.0191557
0.0193703
0.0330067
0.0256992
0.00145702
-0.0383121
-0.0931412
-0.163134
-0.250683
-0.356548
-0.478942
-0.613338
-0.753038
-0.890403
-1.01964
-1.13641
-1.23694
-1.31867
-1.38369
-1.43857
-1.49133
-1.54942
-1.61962
-1.70916
-1.80273
-1.87415
-1.89649
-1.85321
-1.74576
-1.59435
-0.921659
0
1.24736
2.97698
5.23645
7.82769
10.2848
12.001
12.4553
11.4312
9.12772
6.10145
3.06248
0.609568
-0.966413
-1.7194
-1.91339
-1.91433
-1.91689
-1.92347
-1.93589
-1.95511
-1.98116
-2.01326
-2.05001
-2.08982
-2.13131
-2.17377
-2.21721
-2.26232
-2.30995
-2.36031
-2.41265
-2.46366
-2.50853
-2.54222
-2.56072
-2.56186
-2.54524
-2.51177
-2.463
-2.40186
-2.33248
-2.2558
-2.17603
-2.0983
-2.02724
-1.96546
-1.91276
-1.86611
-1.82058
-1.77069
-1.71159
-1.642
-1.56159
-1.46947
-1.36549
-1.2503
-1.12538
-0.992901
-0.855656
-0.716485
-0.57799
-0.442465
-0.312303
-0.190861
-0.0829948
0.00631027
0.0703102
0.101321
0.0939272
0.0477673
-0.0319111
-0.13651
-0.258067
-0.392791
-0.539045
-0.695746
-0.86297
-1.04183
-1.23275
-1.43495
-1.64642
-1.86404
-2.08379
-2.30105
-2.51088
-2.70805
-2.888
-3.04706
-3.18276
-3.29409
-3.38146
-3.44641
-3.49136
-3.51932
-3.53335
-3.53629
-3.53055
-3.51799
-3.49986
-3.4769
-3.44942
-3.41762
-3.38186
-3.34255
-3.30105
-3.25998
-3.22205
-3.18916
-3.16161
-3.13779
-3.11465
-3.0888
-3.05786
-3.02097
-2.98055
-2.9417
-2.9101
-2.88991
-2.88228
-2.88506
-2.8938
-2.9036
-2.911
-2.91573
-2.91932
-2.92477
-2.93554
-2.95428
-2.98184
-3.01671
-3.05508
-3.0916
-3.12045
-3.13719
-3.13407
-3.10312
-3.05277
-3.00166
-2.96919
-2.96828
-3.00057
-3.05653
-3.12054
-3.17859
-3.22425
-3.26249
-3.29842
-3.33426
-3.37068
-3.40611
-3.43669
-3.45641
-3.4589
-3.43874
-3.39301
-3.31844
-3.21115
-3.08964
-2.97681
-2.89276
-2.84881
-2.84482
-2.87089
-2.91201
-2.95316
-2.98399
-3.00335
-3.01214
-3.01025
-2.99629
-2.96946
-2.93618
-2.90759
-2.89437
-2.90208
-2.92754
-2.9582
-2.9758
-2.96337
-2.91253
-2.82209
-2.71362
-2.61564
-2.5508
-2.52621
-2.531
-2.54161
-2.51504
-2.39025
-2.20544
-2.04357
-1.98336
-2.06204
-2.26003
-2.50748
-2.70817
-2.77633
-2.73431
-2.65315
-2.55572
-2.45146
-2.34902
-2.25462
-2.17104
-2.09705
-2.02763
-1.95493
-1.86973
-1.75088
-1.51925
-1.20681
-0.898567
-0.685398
-0.618939
-0.688587
-0.832724
-0.975526
-1.06656
-1.10265
-1.13215
-1.17003
-1.22757
-1.31336
-1.43192
-1.58302
-1.76182
-1.95974
-2.16588
-2.36231
-2.35694
-2.03636
-1.56853
-1.13464
-0.916635
-1.01654
-1.3995
-1.9078
-2.33833
-2.50503
-2.30651
-2.00192
-1.67369
-1.33372
-0.985403
-0.598136
0
0.972463
2.51996
4.71191
7.37962
10.0875
12.2183
13.1658
12.5659
10.4716
7.38011
4.07071
1.31121
-0.430943
-1.12501
-1.09703
-1.07197
-1.05585
-1.05437
-1.06804
-1.09246
-1.12037
-1.14462
-1.16105
-1.17082
-1.1748
-1.17478
-1.17265
-1.16983
-1.16695
-1.16385
-1.15985
-1.15394
-1.145
-1.13152
-1.11168
-1.08334
-1.04419
-0.992168
-0.925865
-0.845048
-0.75125
-0.647313
-0.536586
-0.423739
-0.315603
-0.218325
-0.135561
-0.0673943
-0.00999565
0.0437063
0.102375
0.174061
0.264203
0.374056
0.499291
0.63645
0.783812
0.940701
1.10777
1.28658
1.48416
1.71856
1.96783
2.19375
2.3584
2.44291
2.45673
2.43182
2.40529
2.40044
2.41568
2.43022
2.42239
2.37321
2.27236
2.12047
1.92767
1.70925
1.48061
1.25141
1.02426
0.799389
0.576445
0.354708
0.133594
-0.08696
-0.306294
-0.522978
-0.734655
-0.935829
-1.1166
-1.2692
-1.38567
-1.45971
-1.48884
-1.476
-1.42978
-1.36309
-1.29065
-1.2259
-1.17467
-1.14133
-1.12694
-1.12963
-1.14554
-1.17017
-1.1996
-1.23125
-1.26401
-1.29778
-1.33277
-1.369
-1.40586
-1.44199
-1.47531
-1.50301
-1.51648
-1.47336
-1.26005
-0.926953
-0.579978
-0.351378
-0.343792
-0.568762
-0.93066
-1.27413
-1.4626
-1.43103
-1.33364
-1.22265
-1.10258
-0.977275
-0.85469
-0.748322
-0.683381
-0.692545
-0.797994
-0.990529
-1.22082
-1.41286
-1.49852
-1.48556
-1.43617
-1.36818
-1.2956
-1.23045
-1.17946
-1.14241
-1.12014
-1.11221
-1.11745
-1.13385
-1.15948
-1.19245
-1.2303
-1.27008
-1.30853
-1.34258
-1.36878
-1.38396
-1.38979
-1.38999
-1.38835
-1.38672
-1.3838
-1.37544
-1.3564
-1.31923
-1.25944
-1.18954
-1.12906
-1.09609
-1.09952
-1.1358
-1.19133
-1.24887
-1.29422
-1.32326
-1.34097
-1.3511
-1.35566
-1.35671
-1.35657
-1.35765
-1.36186
-1.3702
-1.38243
-1.39699
-1.41124
-1.4221
-1.4264
-1.42059
-1.40706
-1.39671
-1.40409
-1.44237
-1.51813
-1.63255
-1.77099
-1.90338
-1.99871
-2.03543
-2.00805
-1.92787
-1.81802
-1.70562
-1.61409
-1.54661
-1.50096
-1.47726
-1.47277
-1.48273
-1.50125
-1.52234
-1.54072
-1.55303
-1.55803
-1.5552
-1.54435
-1.52539
-1.49883
-1.4653
-1.4248
-1.37632
-1.31769
-1.24582
-1.15724
-1.04125
-0.860833
-0.606756
-0.340029
-0.131937
-0.0344608
-0.0606361
-0.182143
-0.345549
-0.498999
-0.61371
-0.700235
-0.776204
-0.848032
-0.918393
-0.9892
-1.06184
-1.13697
-1.21437
-1.29283
-1.3703
-1.44409
-1.51138
-1.56907
-1.61395
-1.64517
-1.66561
-1.6793
-1.68972
-1.69826
-1.70353
-1.7018
-1.68851
-1.66025
-1.61747
-1.56475
-1.50703
-0.982589
0
1.62868
3.91427
6.59804
9.18842
11.1231
11.9717
11.5791
10.0933
7.88928
5.43753
3.16977
1.37604
0.158317
-0.551021
-0.860986
-0.94779
-1.02527
-1.08982
-1.13853
-1.16815
-1.17087
-1.1338
-1.06301
-0.983608
-0.922855
-0.899763
-0.916278
-0.955108
-0.986448
-0.981094
-0.923639
-0.832621
-0.728078
-0.619706
-0.518369
-0.431996
-0.363795
-0.311718
-0.269307
-0.227664
-0.177933
-0.113457
-0.0320715
0.0633175
0.169787
0.285524
0.408733
0.53773
0.671026
0.807308
0.945442
1.08454
1.22409
1.36404
1.50477
1.6469
1.79091
1.93682
2.08378
2.23004
2.37304
2.5096
2.63642
2.75069
2.8502
2.9335
2.99901
3.04418
3.06755
3.06817
3.04488
2.9965
2.92209
2.82104
2.693
2.53762
2.35451
2.1461
1.91491
1.66198
1.38975
1.1025
0.806485
0.509759
0.223917
-0.0345449
-0.252619
-0.421362
-0.537724
-0.605121
-0.632453
-0.631827
-0.615752
-0.594777
-0.575996
-0.563704
-0.560824
-0.569758
-0.592794
-0.631978
-0.68837
-0.767569
-0.869095
-0.976593
-1.06525
-1.1105
-1.09432
-1.00966
-0.862676
-0.669162
-0.457449
-0.265216
-0.124182
-0.0520481
-0.0489664
-0.0989422
-0.174941
-0.246041
-0.285237
-0.283616
-0.212965
-0.101448
0.00191288
0.0483141
0.0120506
-0.0960205
-0.232299
-0.340591
-0.378311
-0.350584
-0.282198
-0.186153
-0.0875261
-0.0112965
0.024085
0.0077261
-0.0609627
-0.168232
-0.285638
-0.378192
-0.420114
-0.418209
-0.392416
-0.372853
-0.388227
-0.452056
-0.555384
-0.669653
-0.757964
-0.77252
-0.63679
-0.411986
-0.201674
-0.0954132
-0.127663
-0.268541
-0.446328
-0.58482
-0.634944
-0.622219
-0.588722
-0.545425
-0.502709
-0.470199
-0.454915
-0.459861
-0.48352
-0.52049
-0.563116
-0.603539
-0.635769
-0.658603
-0.673285
-0.68119
-0.683636
-0.682905
-0.682718
-0.687045
-0.698862
-0.719066
-0.745644
-0.773466
-0.794905
-0.800501
-0.752905
-0.621932
-0.44748
-0.295042
-0.221324
-0.245494
-0.342639
-0.46192
-0.556383
-0.604256
-0.624752
-0.63406
-0.635664
-0.63007
-0.616665
-0.594019
-0.560401
-0.514529
-0.456488
-0.38637
-0.304082
-0.209627
-0.102952
0.0160872
0.151089
0.315526
0.515278
0.720305
0.888728
0.983348
0.988383
0.91612
0.799181
0.672947
0.558718
0.455302
0.354093
0.251979
0.147824
0.0414681
-0.066128
-0.173098
-0.277061
-0.375522
-0.466158
-0.54694
-0.616099
-0.671958
-0.713022
-0.735662
-0.728504
-0.675098
-0.586008
-0.490411
-0.421109
-0.401056
-0.432956
-0.497717
-0.56334
-0.600767
-0.598891
-0.578446
0
0.952254
2.3712
4.32219
6.72009
9.26113
11.462
12.8037
12.9185
11.733
9.50367
6.72785
3.97233
1.69268
0.123202
-0.727927
-0.925267
-0.781559
-0.636467
-0.515568
-0.444547
-0.440293
-0.502743
-0.612576
-0.735954
-0.834388
-0.876973
-0.875217
-0.847727
-0.801331
-0.742191
-0.676965
-0.611424
-0.549401
-0.492387
-0.439813
-0.389848
-0.340358
-0.289694
-0.237118
-0.182126
-0.124317
-0.0630489
0.00273991
0.0744692
0.153619
0.241297
0.337852
0.442686
0.554366
0.670971
0.790968
0.913587
1.03908
1.16866
1.30409
1.44699
1.59809
1.75665
1.9202
2.08479
2.24487
2.39471
2.52942
2.64575
2.74227
2.81915
2.87513
2.91062
2.92644
2.92253
2.89816
2.8524
2.78451
2.6941
2.58097
2.445
2.28837
2.11375
1.92243
1.71602
1.49723
1.26987
1.03863
0.808586
0.584638
0.370911
0.170356
-0.0154078
-0.185965
-0.341749
-0.483581
-0.612243
-0.728187
-0.831452
-0.921734
-0.998649
-1.06204
-1.11213
-1.14956
-1.17528
-1.19055
-1.19664
-1.19453
-1.18498
-1.16859
-1.14572
-1.11639
-1.08248
-1.04779
-1.01611
-0.98988
-0.968986
-0.95054
-0.929795
-0.901982
-0.862911
-0.812127
-0.757745
-0.711393
-0.683517
-0.679065
-0.695343
-0.722852
-0.748794
-0.762001
-0.755095
-0.732741
-0.711683
-0.712085
-0.747486
-0.81679
-0.902449
-0.976113
-1.00924
-0.95197
-0.805772
-0.627768
-0.485373
-0.424809
-0.455915
-0.555869
-0.684969
-0.805095
-0.894232
-0.963868
-1.02728
-1.09081
-1.15824
-1.23258
-1.31556
-1.40898
-1.51259
-1.62171
-1.73034
-1.83248
-1.89367
-1.64498
-1.13024
-0.522741
-0.00332775
0.256419
0.170181
-0.21474
-0.734925
-1.19365
-1.45472
-1.47986
-1.42669
-1.36793
-1.31298
-1.27049
-1.24858
-1.25246
-1.28202
-1.33045
-1.38471
-1.42391
-1.37188
-1.21602
-1.02146
-0.885731
-0.883342
-1.02542
-1.25377
-1.4688
-1.57582
-1.53204
-1.43762
-1.33242
-1.22746
-1.13161
-1.05119
-0.989379
-0.946454
-0.920657
-0.909421
-0.910596
-0.922809
-0.946572
-0.983377
-1.03489
-1.10195
-1.18379
-1.27757
-1.37853
-1.48055
-1.57569
-1.62831
-1.47
-1.09744
-0.659818
-0.300294
-0.149532
-0.269406
-0.614483
-1.04603
-1.39207
-1.50248
-1.41597
-1.16988
-0.835651
-0.520824
-0.319814
-0.300018
-0.483108
-0.827564
-1.22986
-1.54785
-1.61414
-1.50842
-1.36436
-1.20723
-1.05598
-0.928844
-0.838414
-0.787419
-0.767209
-0.759667
-0.74204
-0.693047
-0.58977
-0.358214
-0.0577257
0.219474
0.390483
0.416517
0.318879
0.168383
0.0508562
0.0236921
0.0768566
0.149215
0.196939
0.182506
0.0882761
-0.078088
-0.287988
-0.503119
-0.688318
-0.838937
-0.965902
-1.05603
-1.05817
-0.912568
-0.686238
-0.47041
-0.363973
-0.433508
-0.67321
-0.996548
-1.26977
-1.36997
-1.29077
-1.15499
-0.995376
-0.817957
-0.628821
-0.434388
0
0.896848
2.44161
4.67113
7.38379
10.1245
12.2837
13.2968
12.8555
11.0375
8.28781
5.25837
2.58236
0.677711
-0.342231
-0.630347
-0.620903
-0.629019
-0.668521
-0.746646
-0.895914
-1.08183
-1.25094
-1.35118
-1.35158
-1.22556
-1.02383
-0.821377
-0.683935
-0.642779
-0.687749
-0.778356
-0.86445
-0.906096
-0.895989
-0.858288
-0.804974
-0.740316
-0.666368
-0.58436
-0.494615
-0.396873
-0.286982
-0.159152
-0.0247164
0.0963806
0.18396
0.227975
0.235571
0.230568
0.245135
0.307469
0.43097
0.589073
0.763043
0.943825
1.12084
1.28337
1.42411
1.5406
1.63582
1.7177
1.79781
1.8892
2.04008
2.32345
2.66871
2.9628
3.11313
3.09138
2.94105
2.74832
2.59226
2.49686
2.40895
2.30555
2.17907
2.02313
1.83773
1.62874
1.40564
1.17811
0.952553
0.73119
0.512679
0.293751
0.071674
-0.153382
-0.377045
-0.591026
-0.78497
-0.946027
-1.04802
-1.09557
-1.10587
-1.10117
-1.10004
-1.11113
-1.13192
-1.15203
-1.15886
-1.14291
-1.09031
-1.00361
-0.90975
-0.840032
-0.819309
-0.857651
-0.946771
-1.06296
-1.17623
-1.2619
-1.31471
-1.34606
-1.36373
-1.36944
-1.3629
-1.34352
-1.31085
-1.2603
-1.19046
-1.11259
-1.04159
-0.990882
-0.967361
-0.968996
-0.98637
-1.00743
-1.02311
-1.03176
-1.03758
-1.04603
-1.0624
-1.08946
-1.12646
-1.16958
-1.21373
-1.25453
-1.29015
-1.32085
-1.3467
-1.36763
-1.38295
-1.39143
-1.3919
-1.38146
-1.36174
-1.33895
-1.32077
-1.3132
-1.3179
-1.33148
-1.34694
-1.35685
-1.35646
-1.34757
-1.33368
-1.31817
-1.3047
-1.2963
-1.29476
-1.3003
-1.31167
-1.32642
-1.3414
-1.35358
-1.36065
-1.36066
-1.35098
-1.33265
-1.30909
-1.28368
-1.25782
-1.22975
-1.19477
-1.14708
-1.07669
-0.978663
-0.870626
-0.778831
-0.726077
-0.721324
-0.756763
-0.813612
-0.873072
-0.926134
-0.977228
-1.03169
-1.09388
-1.17061
-1.25555
-1.33044
-1.37319
-1.3667
-1.30614
-1.20157
-1.07498
-0.95304
-0.858367
-0.796591
-0.767732
-0.76335
-0.770546
-0.777171
-0.776306
-0.769139
-0.761119
-0.76022
-0.773565
-0.804474
-0.850966
-0.906235
-0.960875
-1.00595
-1.03703
-1.0555
-1.06336
-1.06242
-1.05487
-1.04271
-1.02748
-1.01019
-0.991552
-0.972163
-0.952369
-0.932092
-0.91068
-0.886977
-0.859678
-0.827886
-0.791529
-0.751774
-0.711358
-0.674566
-0.645376
-0.625799
-0.614585
-0.606693
-0.593894
-0.566649
-0.516899
-0.440946
-0.3425
-0.230878
-0.116477
-0.0106524
0.0765283
0.137845
0.169405
0.170181
0.141096
0.0842634
0.00503492
-0.0905136
-0.198253
-0.313392
-0.430713
-0.545233
-0.653166
-0.75141
-0.839524
-0.918787
-0.991303
-1.05816
-1.11846
-1.16925
-1.20537
-1.22185
-1.21645
-1.19096
-1.1507
-1.10236
-1.05134
-0.999807
-0.947064
-0.89104
-0.829369
-0.728985
0
1.31359
3.31114
5.90785
8.7623
11.3213
12.9837
13.3187
12.2359
10.0219
7.23086
4.4811
2.24958
0.746558
-0.0878267
-0.475424
-0.518988
-0.560911
-0.599909
-0.635427
-0.66753
-0.696553
-0.722655
-0.745439
-0.763828
-0.776233
-0.780971
-0.776737
-0.763137
-0.74045
-0.709629
-0.671944
-0.628705
-0.580798
-0.528439
-0.471297
-0.408784
-0.340371
-0.265909
-0.185886
-0.101504
-0.0146387
0.0717562
0.153351
0.226416
0.288924
0.341593
0.388444
0.436536
0.494757
0.571919
0.674676
0.805324
0.958103
1.12675
1.3063
1.49147
1.6769
1.85767
2.0297
2.18997
2.33659
2.46875
2.58627
2.68947
2.77934
2.85695
2.92272
2.97571
3.01325
3.03202
3.02837
2.99832
2.93855
2.84738
2.7253
2.57512
2.40135
2.20933
2.00562
1.79554
1.58226
1.3683
1.15613
0.948357
0.747791
0.557376
0.379924
0.217776
0.0724828
-0.055377
-0.166205
-0.261224
-0.342237
-0.411365
-0.470835
-0.522742
-0.569096
-0.611841
-0.652467
-0.691787
-0.729738
-0.765252
-0.79658
-0.821712
-0.838974
-0.847512
-0.847474
-0.839802
-0.82574
-0.806224
-0.781709
-0.751704
-0.714898
-0.669728
-0.614713
-0.546639
-0.462012
-0.364778
-0.268762
-0.189784
-0.140996
-0.129004
-0.15223
-0.201973
-0.265479
-0.329636
-0.384713
-0.42848
-0.462011
-0.486488
-0.502958
-0.51254
-0.516435
-0.515877
-0.511888
-0.50521
-0.496228
-0.484918
-0.470957
-0.45397
-0.433647
-0.409858
-0.385291
-0.366189
-0.360038
-0.372826
-0.406255
-0.456319
-0.514093
-0.568544
-0.610122
-0.636193
-0.650627
-0.655176
-0.652312
-0.644883
-0.635753
-0.627383
-0.621112
-0.616997
-0.613922
-0.609984
-0.603133
-0.591375
-0.573277
-0.551721
-0.531445
-0.516751
-0.50914
-0.50619
-0.502425
-0.491891
-0.46985
-0.438282
-0.404601
-0.378578
-0.368216
-0.376569
-0.400813
-0.433655
-0.466183
-0.491089
-0.506796
-0.514471
-0.514988
-0.509855
-0.500786
-0.489221
-0.476099
-0.461929
-0.447016
-0.431851
-0.417332
-0.404456
-0.393798
-0.385008
-0.376688
-0.366809
-0.353568
-0.335911
-0.314902
-0.294175
-0.278112
-0.269825
-0.269422
-0.273321
-0.274931
-0.266445
-0.241031
-0.196547
-0.135817
-0.0619274
0.0228954
0.116404
0.21635
0.320779
0.42821
0.537439
0.646444
0.750182
0.84084
0.908763
0.945087
0.944713
0.908059
0.840672
0.751037
0.647882
0.538736
0.428865
0.320804
0.216147
0.116307
0.0225437
-0.0642159
-0.143509
-0.215445
-0.280705
-0.340238
-0.394324
-0.442814
-0.485423
-0.520999
-0.547835
-0.564079
-0.568004
-0.558051
-0.532695
-0.490323
-0.429804
-0.350489
0
1.00297
2.40147
4.14469
6.19637
8.47107
10.7322
12.5586
13.4441
13.0099
11.2181
8.45443
5.40916
2.79929
1.07343
0.263853
0.0597439
-0.0569878
-0.168461
-0.269045
-0.352932
-0.414936
-0.451581
-0.461858
-0.447244
-0.410986
-0.357046
-0.289351
-0.212939
-0.131415
-0.0469824
0.0365322
0.112931
0.175536
0.218625
0.239341
0.239238
0.224802
0.206496
0.19647
0.205559
0.238667
0.292402
0.361788
0.44327
0.534035
0.631476
0.733568
0.839059
0.947353
1.05819
1.17126
1.28595
1.40122
1.51575
1.62882
1.74097
1.85449
1.97315
2.10142
2.24306
2.39974
2.57174
2.75596
2.93882
3.10519
3.2432
3.34741
3.41915
3.464
3.48783
3.49366
3.4803
3.44331
3.3774
3.2787
3.14598
2.98074
2.78651
2.57124
2.34393
2.10941
1.87137
1.63334
1.39858
1.16988
0.949521
0.739349
0.540915
0.355628
0.184835
0.029788
-0.10846
-0.22901
-0.33171
-0.417302
-0.487194
-0.54332
-0.587964
-0.623624
-0.652677
-0.677719
-0.701642
-0.72704
-0.75582
-0.788751
-0.825091
-0.862527
-0.896656
-0.921882
-0.932276
-0.914439
-0.816592
-0.603058
-0.343149
-0.126148
-0.0259542
-0.0702309
-0.229125
-0.431476
-0.598749
-0.67641
-0.680868
-0.657175
-0.621806
-0.579769
-0.535892
-0.495391
-0.462657
-0.440646
-0.430474
-0.431322
-0.440749
-0.455349
-0.471609
-0.48678
-0.499687
-0.510517
-0.520275
-0.530793
-0.544217
-0.562484
-0.586854
-0.617582
-0.653787
-0.69355
-0.73422
-0.772893
-0.807094
-0.835072
-0.855485
-0.86803
-0.874363
-0.877002
-0.878677
-0.881661
-0.887262
-0.895626
-0.905859
-0.91643
-0.925691
-0.932541
-0.93653
-0.937497
-0.935863
-0.932279
-0.927076
-0.9199
-0.90963
-0.894645
-0.873417
-0.845028
-0.808526
-0.767805
-0.728838
-0.697982
-0.680109
-0.677362
-0.689009
-0.712291
-0.743699
-0.77996
-0.817982
-0.855824
-0.891685
-0.923534
-0.949172
-0.966514
-0.97332
-0.967733
-0.949297
-0.920376
-0.887666
-0.860377
-0.846701
-0.851408
-0.874048
-0.908304
-0.942929
-0.964273
-0.942695
-0.844321
-0.700833
-0.572687
-0.516846
-0.556348
-0.669794
-0.805863
-0.911771
-0.956373
-0.957332
-0.938461
-0.90707
-0.86482
-0.812477
-0.750495
-0.679156
-0.598774
-0.509916
-0.413545
-0.311131
-0.204706
-0.0967856
0.00920448
0.108246
0.194838
0.264124
0.312229
0.336789
0.337194
0.314454
0.270762
0.208923
0.131893
0.0435942
-0.0523574
-0.153309
-0.257094
-0.361656
-0.464977
-0.565114
-0.660233
-0.748593
-0.828486
-0.898449
-0.957322
-1.00423
-1.03862
-1.06032
-1.06945
-1.0664
-1.05173
-1.02604
-0.990035
-0.944554
-0.890696
-0.82996
-0.764182
-0.695594
0
1.16132
2.81959
4.94255
7.38411
9.82801
11.7942
12.7602
12.3743
10.6506
8.01708
5.15557
2.71068
1.03077
0.0893055
-0.386846
-0.504319
-0.615149
-0.712653
-0.789261
-0.843467
-0.878531
-0.899799
-0.9127
-0.921247
-0.927544
-0.932263
-0.935597
-0.938049
-0.94049
-0.943493
-0.94637
-0.9465
-0.939414
-0.919678
-0.882298
-0.825728
-0.752918
-0.666463
-0.56903
-0.463916
-0.35514
-0.246627
-0.14109
-0.0394758
0.059148
0.157203
0.258733
0.371956
0.495083
0.610156
0.693317
0.728828
0.720738
0.695249
0.691798
0.746909
0.878848
1.0569
1.25431
1.45932
1.66332
1.85824
2.03755
2.19692
2.33414
2.44886
2.54057
2.6078
2.65163
2.67322
2.67286
2.65003
2.60371
2.53256
2.43515
2.31015
2.15678
1.97856
1.77982
1.56397
1.33512
1.09841
0.859355
0.623193
0.394252
0.17564
-0.0306903
-0.223555
-0.401996
-0.564829
-0.710469
-0.836935
-0.940883
-1.01648
-1.05798
-1.07047
-1.06824
-1.06634
-1.07569
-1.09937
-1.13182
-1.16114
-1.17391
-1.1604
-1.11854
-1.0526
-0.975336
-0.901922
-0.846068
-0.816786
-0.817453
-0.84583
-0.894481
-0.951737
-1.00378
-1.03794
-1.0462
-1.03074
-1.0007
-0.962737
-0.921017
-0.879813
-0.84432
-0.82053
-0.812914
-0.824599
-0.856311
-0.905259
-0.964634
-1.02428
-1.07221
-1.07922
-1.0195
-0.919489
-0.826751
-0.786539
-0.821613
-0.923317
-1.05639
-1.17525
-1.24516
-1.26842
-1.27089
-1.26386
-1.25219
-1.23914
-1.22604
-1.21281
-1.19904
-1.18535
-1.17462
-1.17099
-1.17768
-1.19473
-1.2181
-1.24068
-1.25488
-1.25557
-1.244
-1.22445
-1.19996
-1.17364
-1.14762
-1.12254
-1.09761
-1.07129
-1.04167
-1.00797
-0.973826
-0.945542
-0.929601
-0.929902
-0.946052
-0.973578
-1.00593
-1.03724
-1.06449
-1.08869
-1.11139
-1.13356
-1.15504
-1.17408
-1.1875
-1.1915
-1.18285
-1.16112
-1.12579
-1.07817
-1.02512
-0.975018
-0.935293
-0.910562
-0.901663
-0.905909
-0.918358
-0.933561
-0.947085
-0.956909
-0.962847
-0.964908
-0.963292
-0.958224
-0.949863
-0.938371
-0.924068
-0.907626
-0.88996
-0.872172
-0.855414
-0.84063
-0.828372
-0.81875
-0.811508
-0.806219
-0.802547
-0.800376
-0.799794
-0.800971
-0.803866
-0.807908
-0.811789
-0.813463
-0.810345
-0.799662
-0.779128
-0.747412
-0.703648
-0.647318
-0.578537
-0.498057
-0.407207
-0.307884
-0.202562
-0.0939951
0.0136979
0.114373
0.201808
0.27047
0.316272
0.33692
0.331703
0.300905
0.245288
0.166065
0.0678839
-0.0436131
-0.16394
-0.287257
-0.407006
-0.516975
-0.611039
-0.684694
-0.739486
-0.781001
-0.816511
-0.852616
-0.893252
-0.938641
-0.985384
-1.0275
-1.05801
-1.07208
-1.06823
-1.04444
-1.0003
-0.937114
-0.857871
-0.767365
-0.670976
0
1.09901
2.68951
4.79014
7.30033
9.92311
12.1615
13.4411
13.3366
11.7888
9.17561
6.17338
3.47738
1.5336
0.424392
-0.0602952
-0.208068
-0.342795
-0.465737
-0.572047
-0.658099
-0.7218
-0.762628
-0.781383
-0.77981
-0.760287
-0.72569
-0.68065
-0.628633
-0.57317
-0.517447
-0.463693
-0.412659
-0.363455
-0.31389
-0.261236
-0.203204
-0.138916
-0.0687111
0.00492644
0.0772506
0.141903
0.193655
0.229938
0.252075
0.265828
0.280964
0.309588
0.36331
0.449876
0.569888
0.713509
0.872596
1.03312
1.18301
1.31625
1.4349
1.54827
1.66955
1.81092
1.97916
2.16861
2.37063
2.57743
2.77591
2.95091
3.09101
3.18957
3.24501
3.26002
3.24012
3.19176
3.12054
3.03004
2.92248
2.80011
2.66427
2.51498
2.35167
2.17426
1.98318
1.77951
1.56485
1.34146
1.11232
0.881114
0.652193
0.430354
0.220537
0.0274612
-0.144743
-0.292864
-0.414737
-0.507972
-0.567525
-0.58609
-0.563203
-0.516027
-0.467539
-0.438876
-0.444354
-0.48788
-0.561869
-0.649124
-0.727408
-0.77561
-0.787826
-0.771693
-0.735184
-0.681844
-0.615611
-0.54237
-0.470577
-0.408302
-0.361549
-0.333378
-0.323583
-0.329017
-0.344518
-0.364242
-0.383054
-0.397909
-0.408329
-0.414815
-0.418636
-0.421467
-0.424896
-0.430104
-0.437741
-0.447977
-0.460637
-0.475317
-0.491355
-0.508022
-0.524446
-0.539713
-0.553057
-0.564072
-0.572807
-0.579921
-0.586426
-0.593174
-0.600369
-0.607222
-0.611961
-0.612221
-0.605049
-0.585905
-0.555025
-0.521607
-0.498754
-0.498778
-0.528236
-0.584802
-0.657281
-0.72887
-0.782485
-0.809209
-0.813151
-0.797838
-0.766242
-0.722542
-0.671043
-0.615596
-0.558949
-0.503069
-0.450312
-0.403798
-0.367173
-0.344471
-0.339072
-0.352449
-0.383217
-0.426838
-0.476154
-0.522638
-0.558431
-0.579516
-0.585486
-0.576145
-0.553427
-0.520849
-0.483055
-0.444702
-0.409615
-0.380245
-0.35755
-0.341261
-0.330405
-0.323854
-0.320564
-0.31995
-0.321799
-0.325955
-0.332087
-0.339496
-0.347014
-0.352999
-0.355469
-0.352279
-0.341302
-0.319733
-0.281681
-0.215718
-0.119966
-0.018068
0.057598
0.0775074
0.0283806
-0.0784654
-0.209203
-0.320288
-0.376186
-0.376807
-0.348564
-0.302149
-0.240691
-0.166619
-0.0816589
0.0135451
0.119413
0.23624
0.363543
0.499928
0.642774
0.787138
0.925871
1.04977
1.14874
1.21503
1.24226
1.2253
1.16094
1.04932
0.895553
0.710777
0.51156
0.317385
0.143983
-0.00332271
-0.119259
-0.202832
-0.257031
-0.287542
-0.301169
-0.304418
-0.302882
-0.300133
-0.298344
-0.298298
-0.299456
-0.300015
-0.297039
-0.2868
-0.265358
-0.229318
-0.177257
0
0.87182
2.23137
4.05357
6.22183
8.53079
10.6777
12.2737
12.9183
12.346
10.5832
8.00682
5.2338
2.87893
1.31081
0.546927
0.332293
0.243594
0.154477
0.0659116
-0.017341
-0.087281
-0.134994
-0.15371
-0.141243
-0.100885
-0.0405729
0.0292429
0.0983037
0.160024
0.21315
0.258941
0.299135
0.335337
0.36905
0.401355
0.43265
0.462225
0.48857
0.510398
0.527859
0.543375
0.561729
0.589332
0.632938
0.69829
0.786376
0.894901
1.0222
1.16682
1.32642
1.49768
1.67645
1.85796
2.03711
2.20886
2.36915
2.51541
2.64697
2.76511
2.87277
2.97394
3.07296
3.17383
3.27975
3.39422
3.52274
3.67468
3.85639
4.05047
4.22319
4.33399
4.34784
4.25102
4.06083
3.82059
3.57873
3.36203
3.15651
2.94971
2.73856
2.52118
2.29566
2.06098
1.81717
1.5656
1.3091
1.0521
0.800624
0.56321
0.348168
0.162912
0.0126781
-0.100438
-0.177851
-0.224173
-0.246324
-0.251949
-0.249044
-0.244333
-0.242548
-0.246162
-0.255478
-0.268998
-0.283956
-0.296896
-0.304394
-0.303956
-0.294012
-0.271644
-0.23313
-0.181644
-0.127956
-0.0838842
-0.0578792
-0.051368
-0.0576611
-0.0641898
-0.0572413
-0.0271536
0.0243096
0.0967512
0.179758
0.256948
0.312771
0.336037
0.322045
0.27345
0.199826
0.115599
0.0362899
-0.0262399
-0.0701021
-0.100556
-0.122206
-0.137378
-0.14806
-0.155464
-0.160005
-0.161629
-0.160313
-0.156575
-0.151469
-0.146346
-0.142729
-0.142026
-0.145294
-0.15313
-0.165674
-0.182697
-0.203644
-0.227793
-0.254362
-0.282537
-0.311477
-0.340327
-0.368207
-0.394184
-0.417209
-0.435935
-0.448752
-0.454091
-0.4506
-0.437534
-0.414728
-0.382381
-0.343787
-0.305004
-0.272396
-0.251004
-0.243231
-0.248259
-0.262383
-0.280136
-0.295838
-0.30547
-0.308313
-0.305205
-0.297722
-0.290285
-0.288755
-0.298239
-0.321317
-0.356774
-0.400048
-0.441993
-0.472732
-0.484845
-0.475736
-0.448174
-0.408789
-0.365223
-0.323244
-0.28433
-0.248023
-0.212517
-0.175942
-0.137439
-0.0985355
-0.063696
-0.0391209
-0.0308997
-0.0430736
-0.0760361
-0.125626
-0.183197
-0.236832
-0.273571
-0.282454
-0.261238
-0.211337
-0.134791
-0.036651
0.0761387
0.196015
0.316081
0.431734
0.539188
0.634598
0.714514
0.777559
0.82291
0.850191
0.859456
0.851129
0.825864
0.784377
0.72739
0.656195
0.573604
0.482143
0.384421
0.283786
0.18401
0.0887881
0.000994754
-0.0773901
-0.145345
-0.203369
-0.253159
-0.296537
-0.334245
-0.365088
-0.386374
-0.393658
-0.381996
-0.347492
-0.288678
-0.207325
-0.108518
0
0.534909
1.5438
3.12277
5.24104
7.72167
10.2347
12.32
13.4801
13.3519
11.8866
9.42428
6.58455
4.01567
2.14076
1.04509
0.543807
0.374872
0.209292
0.0486576
-0.098886
-0.224474
-0.318554
-0.373607
-0.387037
-0.362772
-0.31058
-0.243155
-0.172213
-0.105395
-0.0435572
0.0145232
0.0693706
0.121218
0.169917
0.214804
0.255048
0.29012
0.320152
0.346075
0.369537
0.392711
0.418084
0.448239
0.485974
0.534106
0.595217
0.671267
0.763209
0.870733
0.991741
1.12344
1.26314
1.40827
1.5566
1.70635
1.85605
2.00439
2.15002
2.29157
2.42784
2.55803
2.68189
2.79975
2.91165
3.01635
3.1118
3.19487
3.26086
3.30538
3.32635
3.32515
3.3062
3.27506
3.23575
3.18888
3.13211
3.06041
2.96706
2.84599
2.69348
2.50935
2.29734
2.06457
1.82011
1.57358
1.33179
1.09982
0.880922
0.676574
0.486895
0.311148
0.148789
-0.000529265
-0.137202
-0.261056
-0.370539
-0.461852
-0.529773
-0.571615
-0.58474
-0.567883
-0.522754
-0.455155
-0.374787
-0.293427
-0.221974
-0.166667
-0.12483
-0.094146
-0.0714464
-0.0527807
-0.034525
-0.0143963
0.00862875
0.0327076
0.0527688
0.0628285
0.0582913
0.037992
0.00526412
-0.0324166
-0.0651709
-0.0832765
-0.0805899
-0.0590829
-0.0204499
0.0326485
0.0971208
0.167928
0.236445
0.292793
0.328243
0.336423
0.314682
0.265153
0.194881
0.114593
0.0362905
-0.0296252
-0.0799746
-0.117039
-0.142966
-0.159365
-0.168544
-0.173799
-0.178652
-0.185718
-0.196139
-0.209283
-0.222775
-0.232939
-0.235562
-0.226597
-0.198569
-0.144194
-0.0693012
0.00638244
0.0611037
0.0784836
0.0532529
-0.00668814
-0.0830067
-0.153885
-0.202531
-0.227558
-0.239407
-0.244975
-0.248739
-0.254262
-0.263264
-0.275242
-0.287711
-0.296955
-0.299075
-0.291625
-0.274059
-0.245918
-0.208822
-0.166122
-0.122966
-0.086605
-0.0636667
-0.0586671
-0.0726673
-0.102379
-0.14029
-0.176235
-0.20023
-0.205637
-0.192469
-0.167438
-0.136068
-0.10482
-0.0798156
-0.0660679
-0.0674101
-0.0862169
-0.12345
-0.178277
-0.247516
-0.325256
-0.403046
-0.453748
-0.359522
-0.117291
0.166288
0.363902
0.394276
0.253708
0.00781288
-0.240248
-0.384001
-0.350156
-0.245483
-0.127942
-0.0139434
0.0829982
0.154983
0.201803
0.230813
0.254534
0.286895
0.33944
0.413857
0.507963
0.631672
0.795186
0.979829
1.14814
1.26187
1.29331
1.2374
1.11744
0.979047
0.874131
0.887198
1.0569
1.29759
1.47402
1.46417
1.22156
0.805211
0.358255
0.0442803
-0.0358705
-0.0471101
-0.0246552
-0.00197668
-0.008727
-0.060696
-0.154477
-0.269108
-0.373894
-0.439241
-0.458365
-0.444847
-0.400252
-0.327768
-0.232516
-0.12067
0
0.411153
1.23142
2.52826
4.33363
6.602
9.16724
11.6879
13.6496
14.4833
13.7988
11.623
8.47705
5.19783
2.57546
1.02149
0.468181
0.52485
0.45948
0.383937
0.282064
0.127797
-0.0527796
-0.214031
-0.31132
-0.320305
-0.246759
-0.12318
0.00585272
0.102601
0.154593
0.185687
0.204901
0.219057
0.234477
0.255545
0.283419
0.317874
0.358122
0.402943
0.451078
0.501659
0.554476
0.610052
0.669524
0.734394
0.806196
0.886188
0.975129
45
331
591
843
1089
1354
1603
1881
2159
2412
2670
2940
3198
3448
3710
3682
2971
3148
3323
3501
3679
0
0
0
0
0
0
0
0
0
0
0
0
0
0
0
0
0
0
0
0
0
0
0
0
0
0
0
0
0
0
0
0
0
0
0
0
0
0
0
0
0
0
0
0
0
0
0
0
0
0
0
0
0
0
0
0
0
0
0
0
0
0
0
0
0
0
0
0
0
0
0
0
0
0
0
0
0
0
0
0
0
0
0
0
0
0
0
0
0
0
0
0
0
0
0
0
0
0
0
0
0
0
0
0
0
0
0
0
0
0
0
0
0
0
0
0
0
0
0
0
0
0
0
0
0
0
0
0
0
0
0
0
0
0
0
0
0
0
0
0
0
0
0
0
0
0
0
0
0
0
0
0
0
0
0
0
0
0
0
0
0
0
0
0
0
0
0
0
0
0
0
0
0
0
0
0
0
0
0
0
0
0
0
0
0
0
0
0
0
0
0
0
0
0
0
0
0
0
0
0
0
0
0
0
0
0
0
0
0
0
0
0
0
0
0
0
0
0
0
0
0
0
0
0
0
0
0
0
0
0
0
0
0
0
0
0
0
0
0
0
0
0
0
0
0
0
0
0
0
0
0
0
0
0
0
0
0
0
0
0
0
0
0
0
0
0
0
0
0
0
0
0
0
0
0
0
0
0
0
0
0
0
0
0
0
0
0
0
0
0
0
0
0
0
0
0
0
0
0
0
0
0
0
0
0
0
0
0
0
0
0
0
0
0
0
0
0
0
0
0
0
0
0
0
0
0
0
0
0
0
0
0
0
0
0
0
0
0
0
0
0
0
0
0
0
0
0
0
0
0
0
0
0
0
0
0
0
0
0
0
0
0
0
0
0
0
0
0
0
0
0
0
0
0
0
0
0
0
0
0
0
0
0
0
0
0
0
0
0
0
0
0
0
0
0
0
0
0
0
0
0
0
0
0
0
0
0
0
0
0
0
0
0
0
0
0
0
0
0
0
0
0
0
0
0
0
0
0
0
0
0
0
0
0
0
0
0
0
0
0
0
0
0
0
0
0
0
0
0
0
0
0
0
0
0
0
0
0
0
0
0
0
0
0
0
0
0
0
0
0
0
0
0
0
0
0
0
0
0
0
0
0
0
0
0
0
0
0
0
0
0
0
0
0
0
0
0
0
0
0
0
0
0
0
0
0
0
0
0
0
0
0
0
0
0
0
0
0
0
0
0
0
0
0
0
0
0
0
0
0
0
0
0
0
0
0
0
0
0
0
0
0
0
0
0
0
0
0
0
0
0
0
0
0
0
0
0
0
0
0
0
0
0
0
0
0
0
0
0
0
0
0
0
0
0
0
0
0
0
0
0
0
0
0
0
0
0
0
0
0
0
0
0
0
0
0
0
0
0
0
0
0
0
0
0
0
0
0
0
0
0
0
0
0
0
0
0
0
0
0
0
0
0
0
0
0
0
0
0
0
0
0
0
0
0
0
0
0
0
0
0
0
0
0
0
0
0
0
0
0
0
0
0
0
0
0
0
0
0
0
0
0
0
0
0
0
0
0
0
0
0
0
0
0
0
0
0
0
0
0
0
0
0
0
0
0
0
0
0
0
0
0
0
0
0
0
0
0
0
0
0
0
0
0
0
0
0
0
0
0
0
0
0
0
0
0
0
0
0
0
0
0
0
0
0
0
0
0
0
0
0
0
0
0
0
0
0
0
0
0
0
0
0
0
0
0
0
0
0
0
0
0
0
0
0
0
0
0
0
0
0
0
0
0
0
0
0
0
0
0
0
0
0
0
0
0
0
0
0
0
0
0
0
0
0
0
0
0
0
0
0
0
0
0
0
0
0
0
0
0
0
0
0
0
0
0
0
0
0
0
0
0
0
0
0
0
0
0
0
0
0
0
0
0
0
0
0
0
0
0
0
0
0
0
0
0
0
0
0
0
0
0
0
0
0
0
0
0
0
0
0
0
0
0
0
0
0
0
0
0
0
0
0
0
0
0
0
0
0
0
0
0
0
0
0
0
0
0
0
0
0
0
0
0
0
0
0
0
0
0
0
0
0
0
0
0
0
0
0
0
0
0
0
0
0
0
0
0
0
0
0
0
0
0
0
0
0
0
0
0
0
0
0
0
0
0
0
0
0
0
0
0
0
0
0
0
0
0
0
0
0
0
0
0
0
0
0
0
0
0
0
0
0
0
0
0
0
0
0
0
0
0
0
0
0
0
0
0
0
0
0
0
0
0
0
0
0
0
0
0
0
0
0
0
0
0
0
0
0
0
0
0
0
0
0
0
0
0
0
0
0
0
0
0
0
0
0
0
0
0
0
0
0
0
0
0
0
0
0
0
0
0
0
0
0
0
0
0
0
0
0
0
0
0
0
0
0
0
0
0
0
0
0
0
0
0
0
0
0
0
0
0
0
0
0
0
0
0
0
0
0
0
0
0
0
0
0
0
0
0
0
0
0
0
0
0
0
0
0
0
0
0
0
0
0
0
0
0
0
0
0
0
0
0
0
0
0
0
0
0
0
0
0
0
0
0
0
0
0
0
0
0
0
0
0
0
0
0
0
0
0
0
0
0
0
0
0
0
0
0
0
0
0
0
0
0
0
0
0
0
0
0
0
0
0
0
0
0
0
0
0
0
0
0
0
0
0
0
0
0
0
0
0
0
0
0
0
0
0
0
0
0
0
0
0
0
0
0
0
0
0
0
0
0
0
0
0
0
0
0
0
0
0
0
0
0
0
0
0
0
0
0
0
0
0
0
0
0
0
0
0
0
0
0
0
0
0
0
0
0
0
0
0
0
0
0
0
0
0
0
0
0
0
0
0
0
0
0
0
0
0
0
0
0
0
0
0
0
0
0
0
0
0
0
0
0
0
0
0
0
0
0
0
0
0
0
0
0
0
0
0
0
0
0
0
0
0
0
0
0
0
0
0
0
0
0
0
0
0
0
0
0
0
0
0
0
0
0
0
0
0
0
0
0
0
0
0
0
0
0
0
0
0
0
0
0
0
0
0
0
0
0
0
0
0
0
0
0
0
0
0
0
0
0
0
0
0
0
0
0
0
0
0
0
0
0
0
0
0
0
0
0
0
0
0
0
0
0
0
0
0
0
0
0
0
0
0
0
0
0
0
0
0
0
0
0
0
0
0
0
0
0
0
0
0
0
0
0
0
0
0
0
0
0
0
0
0
0
0
0
0
0
0
0
0
0
0
0
0
0
0
0
0
0
0
0
0
0
0
0
0
0
0
0
0
0
0
0
0
0
0
0
0
0
0
0
0
0
0
0
0
0
0
0
0
0
0
0
0
0
0
0
0
0
0
0
0
0
0
0
0
0
0
0
0
0
0
0
0
0
0
0
0
0
0
0
0
0
0
0
0
0
0
0
0
0
0
0
0
0
0
0
0
0
0
0
0
0
0
0
0
0
0
0
0
0
0
0
0
0
0
0
0
0
0
0
0
0
0
0
0
0
0
0
0
0
0
0
0
0
0
0
0
0
0
0
0
0
0
0
0
0
0
0
0
0
0
0
0
0
0
0
0
0
0
0
0
0
0
0
0
0
0
0
0
0
0
0
0
0
0
0
0
0
0
0
0
0
0
0
0
0
0
0
0
0
0
0
0
0
0
0
0
0
0
0
0
0
0
0
0
0
0
0
0
0
0
0
0
0
0
0
0
0
0
0
0
0
0
0
0
0
0
0
0
0
0
0
0
0
0
0
0
0
0
0
0
0
0
0
0
0
0
0
0
0
0
0
0
0
0
0
0
0
0
0
0
0
0
0
0
0
0
0
0
0
0
0
0
0
0
0
0
0
0
0
0
0
0
0
0
0
0
0
0
0
0
0
0
0
0
0
0
0
0
0
0
0
0
0
0
0
0
0
0
0
0
0
0
0
0
0
0
0
0
0
0
0
0
0
0
0
0
0
0
0
0
0
0
0
0
0
0
0
0
0
0
0
0
0
0
0
0
0
0
0
0
0
0
0
0
0
0
0
0
0
0
0
0
0
0
0
0
0
0
0
0
0
0
0
0
0
0
0
0
0
0
0
0
0
0
0
0
0
0
0
0
0
0
0
0
0
0
0
0
0
0
0
0
0
0
0
0
0
0
0
0
0
0
0
0
0
0
0
0
0
0
0
0
0
0
0
0
0
0
0
0
0
0
0
0
0
0
0
0
0
0
0
0
0
0
0
0
0
0
0
0
0
0
0
0
0
0
0
0
0
0
0
0
0
0
0
0
0
0
0
0
0
0
0
0
0
0
0
0
0
0
0
0
0
0
0
0
0
0
0
0
0
0
0
0
0
0
0
0
0
0
0
0
0
0
0
0
0
0
0
0
0
0
0
0
0
0
0
0
0
0
0
0
0
0
0
0
0
0
0
0
0
0
0
0
0
0
0
0
0
0
0
0
0
0
0
0
0
0
0
0
0
0
0
0
0
0
0
0
0
0
0
0
0
0
0
0
0
0
0
0
0
0
0
0
0
0
0
0
0
0
0
0
0
0
0
0
0
0
0
0
0
0
0
0
0
0
0
0
0
0
0
0
0
0
0
0
0
0
0
0
0
0
0
0
0
0
0
0
0
0
0
0
0
0
0
0
0
0
0
0
0
0
0
0
0
0
0
0
0
0
0
0
0
0
0
0
0
0
0
0
0
0
0
0
0
0
0
0
0
0
0
0
0
0
0
0
0
0
0
0
0
0
0
0
0
0
0
0
0
0
0
0
0
0
0
0
0
0
0
0
0
0
0
0
0
0
0
0
0
0
0
0
0
0
0
0
0
0
0
0
0
0
0
0
0
0
0
0
0
0
0
0
0
0
0
0
0
0
0
0
0
0
0
0
0
0
0
0
0
0
0
0
0
0
0
0
0
0
0
0
0
0
0
0
0
0
0
0
0
0
0
0
0
0
0
0
0
0
0
0
0
0
0
0
0
0
0
0
0
0
0
0
0
0
0
0
0
0
0
0
0
0
0
0
0
0
0
0
0
0
0
0
0
0
0
0
0
0
0
0
0
0
0
0
0
0
0
0
0
0
0
0
0
0
0
0
0
0
0
0
0
0
0
0
0
0
0
0
0
0
0
0
0
0
0
0
0
0
0
0
0
0
0
0
0
0
0
0
0
0
0
0
0
0
0
0
0
0
0
0
0
0
0
0
0
0
0
0
0
0
0
0
0
0
0
0
0
0
0
0
0
0
0
0
0
0
0
0
0
0
0
0
0
0
0
0
0
0
0
0
0
0
0
0
0
0
0
0
0
0
0
0
0
0
0
0
0
0
0
0
0
0
0
0
0
0
0
0
0
0
0
0
0
0
0
0
0
0
0
0
0
0
0
0
0
0
0
0
0
0
0
0
0
0
0
0
0
0
0
0
0
0
0
0
0
0
0
0
0
0
0
0
0
0
0
0
0
0
0
0
0
0
0
0
0
0
0
0
0
0
0
0
0
0
0
0
0
0
0
0
0
0
0
0
0
0
0
0
0
0
0
0
0
0
0
0
0
0
0
0
0
0
0
0
0
0
0
0
0
0
0
0
0
0
0
0
0
0
0
0
0
0
0
0
0
0
0
0
0
0
0
0
0
0
0
0
0
0
0
0
0
0
0
0
0
0
0
0
0
0
0
0
0
0
0
0
0
0
0
0
0
0
0
0
0
0
0
0
0
0
0
0
0
0
0
0
0
0
0
0
0
0
0
0
0
0
0
0
0
0
0
0
0
0
0
0
0
0
0
0
0
0
0
0
0
0
0
0
0
0
0
0
0
0
0
0
0
0
0
0
0
0
0
0
0
0
0
0
0
0
0
0
0
0
0
0
0
0
0
0
0
0
0
0
0
0
0
0
0
0
0
0
0
0
0
0
0
0
0
0
0
0
0
0
0
0
0
0
0
0
0
0
0
0
0
0
0
0
0
0
0
0
0
0
0
0
0
0
0
0
0
0
0
0
0
0
0
0
0
0
0
0
0
0
0
0
0
0
0
0
0
0
0
0
0
0
0
0
0
0
0
0
0
0
0
0
0
0
0
0
0
0
0
0
0
0
0
0
0
0
0
0
0
0
0
0
0
0
0
0
0
0
0
0
0
0
0
0
0
0
0
0
0
0
0
0
0
0
0
0
0
0
0
0
0
0
0
0
0
0
0
0
0
0
0
0
0
0
0
0
0
0
0
0
0
0
0
0
0
0
0
0
0
0
0
0
0
0
0
0
0
0
0
0
0
0
0
0
0
0
0
0
0
0
0
0
0
0
0
0
0
0
0
0
0
0
0
0
0
0
0
0
0
0
0
0
0
0
0
0
0
0
0
0
0
0
0
0
0
0
0
0
0
0
0
0
0
0
0
0
0
0
0
0
0
0
0
0
0
0
0
0
0
0
0
0
0
0
0
0
0
0
0
0
0
0
0
0
0
0
0
0
0
0
0
0
0
0
0
0
0
0
0
0
0
0
0
0
0
0
0
0
0
0
0
0
0
0
0
0
0
0
0
0
0
0
0
0
0
0
0
0
0
0
0
0
0
0
0
0
0
0
0
0
0
0
0
0
0
0
0
0
0
0
0
0
0
0
0
0
0
0
0
0
0
0
0
0
0
0
0
0
0
0
0
0
0
0
0
0
0
0
0
0
0
0
0
0
0
0
0
0
0
0
0
0
0
0
0
0
0
0
0
0
0
0
0
0
0
0
0
0
0
0
0
0
0
0
0
0
0
0
0
0
0
0
0
0
0
0
0
0
0
0
0
0
0
0
0
0
0
0
0
0
0
0
0
0
0
0
0
0
0
0
0
0
0
0
0
0
0
0
0
0
0
0
0
0
0
0
0
0
0
0
0
0
0
0
0
0
0
0
0
0
0
0
0
0
0
0
0
0
0
0
0
0
0
0
0
0
0
0
0
0
0
0
0
0
0
0
0
0
0
0
0
0
0
0
0
0
0
0
0
0
0
0
0
0
0
0
0
0
0
0
0
0
0
0
0
0
0
0
0
0
0
0
0
0
0
0
0
0
0
0
0
0
0
0
0
0
0
0
0
0
0
0
0
0
0
0
0
0
0
0
0
0
0
0
0
0
0
0
0
0
0
0
0
0
0
0
0
0
0
0
0
0
0
0
0
0
0
0
0
0
0
0
0
0
0
0
0
0
0
0
0
0
0
0
0
0
0
0
0
0
0
0
0
0
0
0
0
0
0
0
0
0
0
0
0
0
0
0
0
0
0
0
0
0
0
0
0
0
0
0
0
0
0
0
0
0
0
0
0
0
0
0
0
0
0
0
0
0
0
0
0
0
0
0
0
0
0
0
0
0
0
0
0
0
0
0
0
0
0
0
0
0
0
0
0
0
0
0
0
0
0
0
0
0
0
0
0
0
0
0
0
0
0
0
0
0
0
0
0
0
0
0
0
0
0
0
0
0
0
0
0
0
0
0
0
0
0
0
0
0
0
0
0
0
0
0
0
0
0
0
0
0
0
0
0
0
0
0
0
0
0
0
0
0
0
0
0
0
0
0
0
0
0
0
0
0
0
0
0
0
0
0
0
0
0
0
0
0
0
0
0
0
0
0
0
0
0
0
0
0
0
0
0
0
0
0
0
0
0
0
0
0
0
0
0
0
0
0
0
0
0
0
0
0
0
0
0
0
0
0
0
0
0
0
0
0
0
0
0
0
0
0
0
0
0
0
0
0
0
0
0
0
0
0
0
0
0
0
0
0
0
0
0
0
0
0
0
0
0
0
0
0
0
0
0
0
0
0
0
0
0
0
0
0
0
0
0
0
0
0
0
0
0
0
0
0
0
0
0
0
0
0
0
0
0
0
0
0
0
0
0
0
0
0
0
0
0
0
0
0
0
0
0
0
0
0
0
0
0
0
0
0
0
0
0
0
0
0
0
0
0
0
0
0
0
0
0
0
0
0
0
0
0
0
0
0
0
0
0
0
0
0
0
0
0
0
0
0
0
0
0
0
0
0
0
0
0
0
0
0
0
0
0
0
0
0
0
0
0
0
0
0
0
0
0
0
0
0
0
0
0
0
0
0
0
0
0
0
0
0
0
0
0
0
0
0
0
0
0
0
0
0
0
0
0
0
0
0
0
0
0
0
0
0
0
0
0
0
0
0
0
0
0
0
0
0
0
0
0
0
0
0
0
0
0
0
0
0
0
0
0
0
0
0
0
0
0
0
0
0
0
0
0
0
0
0
0
0
0
0
0
0
0
0
0
0
0
0
0
0
0
0
0
0
0
0
0
0
0
0
0
0
0
0
0
0
0
0
0
0
0
0
0
0
0
0
0
0
0
0
0
0
0
0
0
0
0
0
0
0
0
0
0
0
0
0
0
0
0
0
0
0
0
0
0
0
0
0
0
0
0
0
0
0
0
0
0
0
0
0
0
0
0
0
0
0
0
0
0
0
0
0
0
0
0
0
0
0
0
0
0
0
0
0
0
0
0
0
0
0
0
