1.21459
1.18575
1.16159
1.1403
1.12015
1.09954
1.07695
1.05103
1.02091
0.986584
0.9492
0.911192
0.876001
0.847466
0.828998
0.82286
0.830747
0.851514
0.880186
0.909256
0.930943
0.9388
0.928974
0.900893
0.857262
0.803413
0.746108
0.692024
0.645834
0.609289
0.582372
0.564095
0.552537
0.545551
0.541393
0.539095
0.538487
0.53993
0.54391
0.550612
0.559699
0.570556
0.582433
0.594545
0.606237
0.617093
0.626971
0.635993
0.644486
0.652896
0.661658
0.671031
0.680899
0.690582
0.698615
0.702625
0.699749
0.687052
0.66218
0.624009
0.573146
0.512108
0.44511
0.377491
0.314857
0.26162
0.220672
0.193881
0.181597
0.182114
0.191532
0.204116
0.214062
0.216763
0.209677
0.192756
0.153998
0
0.22747
1.1382
2.77694
4.78793
6.50562
7.25753
6.71094
5.05281
2.89244
0.950046
-0.278394
-0.689894
-0.51045
-0.274325
-0.0658863
0.106234
0.231678
0.306598
0.333231
0.31845
0.271894
0.204289
0.126412
0.0481907
-0.0235452
-0.0844519
-0.130601
-0.159548
-0.170519
-0.164372
-0.143287
-0.110267
-0.0686007
-0.021576
0.027879
0.0775087
0.125113
0.168484
0.206158
0.237772
0.264657
0.290206
0.319723
0.35964
0.416243
0.494284
0.595145
0.715735
0.852372
1.00191
1.16099
1.32665
1.4967
1.66985
1.84556
2.02367
2.20406
2.38626
2.56923
2.75056
2.92527
3.08526
3.22093
3.32324
3.38405
3.39693
3.35787
3.26581
3.12313
2.93591
2.71393
2.47098
2.2215
1.97604
1.74102
1.52108
1.32053
1.14244
0.988525
0.859495
0.757144
0.683317
0.632938
0.598589
0.572717
0.549094
0.523876
0.495886
0.466072
0.436477
0.409211
0.385218
0.364822
0.348452
0.336374
0.328781
0.325828
0.327617
0.334077
0.345196
0.360918
0.38114
0.405687
0.434269
0.466447
0.501584
0.538868
0.577273
0.615451
0.651468
0.682005
0.702211
0.707117
0.692117
0.654406
0.593503
0.509885
0.415119
0.324006
0.25081
0.205877
0.193817
0.213531
0.259548
0.323761
0.396449
0.469049
0.53594
0.593155
0.638047
0.669462
0.687925
0.695397
0.694792
0.689367
0.68216
0.67544
0.670561
0.668247
0.668762
0.672201
0.678817
0.689243
0.704547
0.726066
0.755041
0.793195
0.842471
0.900735
0.958803
1.00535
1.03038
1.02862
1.00116
0.954697
0.898601
0.841136
0.786427
0.733536
0.680238
0.624231
0.563415
0.49608
0.421475
0.339972
0.253367
0.164714
0.0769953
-0.00726861
0
0.368859
1.21094
2.55306
4.22975
5.89035
7.08632
7.42404
6.739
5.20754
3.31336
1.65198
0.659858
0.425792
0.69562
0.712551
0.708947
0.684102
0.641242
0.590404
0.543383
0.508796
0.486477
0.473355
0.468483
0.470992
0.480474
0.496838
0.519794
0.548289
0.579942
0.61204
0.64162
0.665992
0.683297
0.692898
0.695509
0.693065
0.688358
0.684534
0.684565
0.690816
0.704773
0.727573
0.759429
0.800579
0.851878
0.915173
0.993291
1.08958
1.20714
1.34793
1.51182
1.69513
1.89351
2.1015
2.31264
2.51985
2.71619
2.896
3.05549
3.19294
3.3085
3.4019
3.47118
3.5154
3.53312
3.52064
3.47332
3.38737
3.26156
3.09811
2.90261
2.68305
2.44947
2.21096
1.97378
1.74275
1.52207
1.31533
1.12554
0.955065
0.805547
0.677798
0.571965
0.48731
0.422103
0.374046
0.34053
0.318891
0.306648
0.301677
0.302303
0.307268
0.315569
0.326322
0.338343
0.349762
0.357757
0.35873
0.349065
0.325828
0.287619
0.235224
0.171871
0.102952
0.0352596
-0.024107
-0.0694562
-0.0971343
-0.105292
-0.0945924
-0.0681076
-0.0290765
0.0152719
0.0564264
0.0871906
0.103142
0.103402
0.090435
0.0689133
0.0440544
0.0200461
-0.00121441
-0.0198186
-0.0362786
-0.0512848
-0.0652354
-0.077855
-0.0880353
-0.0939178
-0.0933169
-0.0842474
-0.0632302
-0.0243224
0.0328255
0.0936943
0.139166
0.152986
0.129342
0.0763731
0.0131607
-0.0385586
-0.0633938
-0.061488
-0.0448179
-0.0191751
0.0117119
0.0445002
0.0764715
0.105281
0.129046
0.146223
0.155747
0.157328
0.15167
0.140454
0.125969
0.110494
0.0955822
0.0815086
0.0673826
0.051082
0.0296797
0
-0.0433668
-0.0999243
-0.170697
-0.256346
-0.359113
-0.479014
-0.611949
-0.753229
-0.898602
-0.75795
-0.155935
0.962957
2.49883
4.16621
5.54919
6.23962
6.01278
4.94605
3.39767
1.84385
0.665461
0.0103125
-0.200073
-0.156444
-0.155679
-0.160948
-0.172104
-0.188714
-0.208464
-0.227708
-0.242513
-0.249628
-0.246318
-0.234578
-0.218913
-0.204505
-0.195093
-0.191404
-0.190744
-0.187865
-0.176728
-0.152528
-0.114973
-0.065818
-0.0072691
0.0572353
0.1237
0.187987
0.245093
0.291353
0.325646
0.349421
0.367098
0.385928
0.414911
0.462805
0.535952
0.63692
0.759937
0.899128
1.05264
1.21925
1.3985
1.59044
1.79496
2.01107
2.23645
2.46786
2.70083
2.92923
3.14276
3.32662
3.47248
3.57088
3.6102
3.58155
3.48494
3.3317
3.14094
2.93213
2.71866
2.50624
2.2962
2.08948
1.88784
1.69362
1.50945
1.33787
1.18093
1.0399
0.91528
0.806888
0.714116
0.636147
0.57208
0.520905
0.481549
0.452843
0.433172
0.420161
0.411522
0.40544
0.40086
0.397526
0.395773
0.396139
0.399047
0.404508
0.412276
0.4222
0.434649
0.45075
0.472237
0.501264
0.541924
0.595488
0.650175
0.68772
0.689876
0.646358
0.560656
0.450554
0.342412
0.261338
0.221788
0.21006
0.217342
0.235985
0.25846
0.279268
0.296506
0.310048
0.321307
0.332544
0.345975
0.36341
0.385941
0.414218
0.446717
0.477364
0.497195
0.496988
0.47023
0.415749
0.338974
0.251184
0.166891
0.100217
0.0577232
0.0421961
0.0533697
0.0870668
0.136432
0.193507
0.250774
0.30331
0.348449
0.384759
0.412215
0.431913
0.445609
0.455213
0.462321
0.467807
0.4715
0.471993
0.466888
0.453363
0.428877
0.392023
0.343217
0.284995
0.221794
0.159226
0.102994
0.0568745
0.0235218
0.00521564
0
0.00120068
-0.00342617
-0.0243303
-0.0695862
-0.143356
-0.245389
-0.371521
-0.51479
-0.670233
-0.53542
0.0410927
1.19111
2.88917
4.86793
6.64828
7.70001
7.67051
6.56229
4.74996
2.81148
1.2624
0.347198
0.000683594
-0.0206789
-0.000102425
0.0156631
0.0273008
0.0330343
0.031592
0.0224415
0.00604515
-0.0161341
-0.041543
-0.0653349
-0.081707
-0.0855238
-0.0737062
-0.0461937
-0.00608368
0.0411627
0.0892244
0.132636
0.168896
0.197744
0.220714
0.240884
0.262042
0.28745
0.319797
0.362617
0.415915
0.471932
0.52087
0.555138
0.573344
0.582155
0.594973
0.627906
0.69482
0.799389
0.932133
1.08654
1.25902
1.44562
1.64178
1.84254
2.04266
2.23657
2.41765
2.58009
2.71907
2.83105
2.91382
2.96637
2.98833
2.97944
2.93908
2.8663
2.76197
2.62599
2.45965
2.26611
2.05042
1.8191
1.57962
1.33913
1.10377
0.878718
0.668147
0.47527
0.302505
0.151587
0.0235888
-0.0811594
-0.163166
-0.223803
-0.265232
-0.290395
-0.303205
-0.308289
-0.309614
-0.309868
-0.310096
-0.309718
-0.306997
-0.299847
-0.285987
-0.264348
-0.238488
-0.215715
-0.204476
-0.211451
-0.238946
-0.283548
-0.336598
-0.386409
-0.4216
-0.43663
-0.433092
-0.411489
-0.376946
-0.336265
-0.296006
-0.26091
-0.233188
-0.212799
-0.198472
-0.188942
-0.183654
-0.18312
-0.188688
-0.201719
-0.222896
-0.251719
-0.28634
-0.323769
-0.360429
-0.393162
-0.419315
-0.437132
-0.44584
-0.445463
-0.436472
-0.419397
-0.394607
-0.362346
-0.322891
-0.276923
-0.225897
-0.171989
-0.117782
-0.0662373
-0.0202335
0.017766
0.0459057
0.0629627
0.0682672
0.0616076
0.0432261
0.0139463
-0.0257013
-0.0743662
-0.126134
-0.172796
-0.206031
-0.219384
-0.209841
-0.178366
-0.12927
-0.0688137
-0.00372562
0.0599752
0.118483
0.167734
0.203428
0.221962
0.220378
0.197012
0.15223
0.0889904
0.0129581
-0.067952
-0.1446
-0.208149
-0.247347
-0.242895
-0.184506
-0.099169
-0.0251783
0
-0.0472246
-0.175119
-0.369713
-0.600963
-0.793115
-0.507924
0.407688
1.94201
3.8342
5.60518
6.71108
6.77143
5.7579
4.02621
2.15753
0.689821
-0.108712
-0.301897
-0.174906
-0.178479
-0.186685
-0.198475
-0.213921
-0.23219
-0.251679
-0.270295
-0.285972
-0.296964
-0.301933
-0.300239
-0.291514
-0.276438
-0.257009
-0.235337
-0.212984
-0.190506
-0.167384
-0.142404
-0.114296
-0.0823732
-0.047023
-0.00949078
0.0290375
0.0675732
0.105724
0.143955
0.183632
0.226849
0.276049
0.333732
0.402054
0.48256
0.576065
0.68268
0.801809
0.932579
1.07396
1.22475
1.38355
1.5487
1.71817
1.88967
2.06062
2.22828
2.38984
2.54154
2.67886
2.79833
2.89656
2.97035
3.0167
3.03286
3.01624
2.96439
2.87524
2.74826
2.58686
2.39321
2.17155
1.92819
1.67097
1.40872
1.14948
0.900404
0.667629
0.456132
0.269678
0.110833
-0.0189213
-0.116336
-0.169913
-0.168174
-0.133627
-0.0953323
-0.0801832
-0.102737
-0.158777
-0.226953
-0.278895
-0.293186
-0.267468
-0.218508
-0.165719
-0.127258
-0.112634
-0.120139
-0.139913
-0.160415
-0.1745
-0.183197
-0.189607
-0.196358
-0.204503
-0.212748
-0.218084
-0.217357
-0.207775
-0.192958
-0.180491
-0.178432
-0.191054
-0.215985
-0.244153
-0.262585
-0.258845
-0.227955
-0.17618
-0.107656
-0.0259232
0.0591852
0.136914
0.198586
0.239408
0.25905
0.260829
0.249889
0.231179
0.208109
0.182828
0.156335
0.12977
0.10512
0.0852867
0.0736206
0.0730963
0.0847849
0.108321
0.142141
0.183386
0.228465
0.273725
0.316182
0.353696
0.384974
0.409646
0.428101
0.441305
0.450606
0.457523
0.463535
0.469831
0.477074
0.485184
0.493259
0.499431
0.501094
0.495698
0.481538
0.458596
0.429137
0.397832
0.371286
0.35702
0.373635
0.456694
0.608893
0.784974
0.92915
0.998397
0.976904
0.876856
0.728143
0.564593
0.414037
0.287121
0.17903
0.0844016
0
-0.0479672
0.364081
1.14067
2.29985
3.75742
5.27934
6.49692
7.02267
6.63426
5.41883
3.76554
2.18853
1.08343
0.570412
0.510591
0.570249
0.61982
0.665191
0.706106
0.7431
0.777417
0.810384
0.843271
0.877079
0.912418
0.949501
0.988192
1.02807
1.06847
1.10844
1.14658
1.18105
1.21022
1.23316
1.25048
1.26499
1.28194
1.30858
1.35302
1.42247
1.53147
1.70587
1.91644
2.11832
2.26968
2.34966
2.36732
2.3574
2.36545
2.42912
2.56186
2.73171
2.91912
3.11474
3.31117
3.50223
3.68345
3.85226
4.00776
4.1504
4.28161
4.40338
4.51795
4.62734
4.73286
4.83494
4.93218
5.0203
5.09206
5.13797
5.14746
5.11029
5.01828
4.86708
4.658
4.39906
4.10481
3.79443
3.48827
3.19986
2.93466
2.69886
2.49652
2.32952
2.19798
2.10044
2.03499
2.00103
1.99773
2.02065
2.05952
2.10143
2.13479
2.15148
2.14842
2.12783
2.09606
2.06126
2.03059
2.00756
1.99104
1.97815
1.96605
1.95211
1.93488
1.91469
1.89375
1.87568
1.8648
1.86438
1.878
1.91005
1.96191
2.02627
2.0872
2.12715
2.13176
2.09424
2.01807
1.9169
1.81091
1.72056
1.65883
1.62324
1.60957
1.6092
1.613
1.61476
1.61281
1.60917
1.60677
1.6066
1.60628
1.6015
1.58798
1.56403
1.53226
1.49969
1.47607
1.47462
1.51938
1.60062
1.68808
1.74549
1.74735
1.69052
1.59499
1.49389
1.41879
1.38793
1.38575
1.39894
1.42206
1.45186
1.48525
1.51949
1.55198
1.57995
1.60036
1.61027
1.60687
1.58794
1.55231
1.50036
1.43418
1.35741
1.27487
1.19169
1.11203
1.03888
0.974094
0.916342
0.860382
0.798981
0.724653
0.630717
0.509103
0.362003
0.196374
0
0.207631
0.936159
2.26266
4.0773
6.03015
7.59746
8.27644
7.82414
6.39826
4.49751
2.7243
1.50863
0.954437
0.879761
0.931919
0.932694
0.931001
0.928922
0.928169
0.930168
0.935905
0.94583
0.95999
0.978132
0.999869
1.0248
1.0526
1.08295
1.11551
1.14969
1.18463
1.21909
1.25175
1.28159
1.30826
1.33233
1.35536
1.37959
1.40743
1.44082
1.48061
1.52643
1.57707
1.63024
1.68377
1.73654
1.7892
1.84447
1.90687
1.98201
2.07543
2.19137
2.33057
2.49158
2.67178
2.86727
3.07314
3.28431
3.49621
3.70525
3.90858
4.10288
4.28291
4.44202
4.56885
4.64462
4.65077
4.57911
4.43781
4.24889
4.03807
3.8232
3.60874
3.39351
3.17696
2.95933
2.74243
2.52968
2.32561
2.13492
1.96164
1.80897
1.67759
1.56501
1.46739
1.38092
1.30404
1.23748
1.18386
1.1473
1.13136
1.13712
1.16245
1.20244
1.25088
1.30174
1.35065
1.39528
1.43355
1.46407
1.48592
1.49851
1.50178
1.49645
1.48397
1.46624
1.44508
1.42165
1.39626
1.36844
1.33758
1.30374
1.26835
1.2346
1.20728
1.19518
1.2222
1.31184
1.43737
1.54881
1.5951
1.54886
1.42056
1.25442
1.1079
1.02513
1.0013
1.00261
1.01774
1.03885
1.05951
1.07582
1.08684
1.09402
1.09999
1.10709
1.11596
1.12512
1.13083
1.12778
1.11055
1.07516
1.02039
0.948591
0.865537
0.779538
0.699883
0.635096
0.591457
0.572121
0.576999
0.603288
0.646377
0.700778
0.760343
0.819953
0.874598
0.91905
0.94829
0.958054
0.945236
0.908592
0.849356
0.771515
0.681518
0.587363
0.497203
0.417277
0.350183
0.297627
0.258039
0.226511
0.196594
0.161864
0.117305
0.0602493
-0.00932865
-0.0891588
-0.209312
0
0.775758
2.14611
3.87373
5.51629
6.60405
6.83649
6.19058
4.89803
3.33069
1.86554
0.780364
0.19496
0.0629423
0.107593
0.131734
0.144287
0.1431
0.128276
0.102044
0.0682322
0.0314896
-0.00363674
-0.0338348
-0.0566404
-0.0707014
-0.0757462
-0.0723955
-0.0618954
-0.0458315
-0.0259195
-0.00372829
0.0194744
0.042761
0.0655603
0.0876522
0.109139
0.130408
0.152074
0.174906
0.199756
0.227488
0.258926
0.294841
0.335972
0.383017
0.43668
0.497581
0.566133
0.642406
0.726062
0.81642
0.912638
1.01403
1.12032
1.23167
1.34859
1.47144
1.59997
1.73333
1.86861
2.00052
2.12279
2.22928
2.31467
2.37478
2.40236
2.3941
2.34704
2.25914
2.1305
1.96448
1.76813
1.55146
1.32575
1.10143
0.884398
0.678412
0.486295
0.30972
0.149578
0.00631676
-0.119822
-0.22868
-0.320105
-0.394222
-0.45139
-0.492278
-0.51792
-0.529767
-0.529729
-0.519954
-0.50272
-0.481076
-0.458812
-0.439174
-0.424212
-0.414325
-0.40817
-0.403063
-0.395813
-0.38376
-0.365712
-0.34243
-0.316752
-0.293172
-0.276996
-0.272924
-0.28397
-0.310584
-0.350213
-0.397381
-0.444372
-0.482465
-0.50352
-0.502307
-0.47644
-0.420605
-0.335434
-0.234752
-0.140769
-0.0737587
-0.0473267
-0.0653591
-0.12113
-0.198909
-0.27799
-0.338256
-0.367975
-0.37093
-0.355251
-0.326842
-0.289676
-0.2483
-0.206929
-0.168863
-0.13616
-0.109601
-0.0888979
-0.0730778
-0.060853
-0.0506733
-0.0409975
-0.0303352
-0.0173048
-0.000787544
0.0198191
0.0445372
0.0723925
0.101228
0.128481
0.151849
0.169836
0.181931
0.188428
0.190032
0.187561
0.181975
0.174452
0.166744
0.161237
0.160599
0.167242
0.1838
0.208967
0.236831
0.259117
0.26745
0.255594
0.220876
0.164418
0.0903172
0.00423069
-0.087727
-0.180884
-0.267993
0
0.727977
2.01492
3.76212
5.61974
7.07014
7.6369
7.11914
5.70937
3.90995
2.28962
1.22018
0.747285
0.656085
0.652173
0.665291
0.682513
0.704529
0.731812
0.762427
0.793069
0.820318
0.841867
0.857307
0.868122
0.876889
0.886032
0.896741
0.908233
0.918162
0.923987
0.924641
0.921806
0.92024
0.92696
0.949549
0.994156
1.06068
1.14588
1.24644
1.35823
1.47606
1.5943
1.70742
1.81069
1.90116
1.97834
2.0442
2.10318
2.16185
2.2283
2.31111
2.41822
2.55557
2.72519
2.92485
3.14989
3.39373
3.64837
3.90437
4.15135
4.37748
4.5695
4.71815
4.81904
4.8697
4.86913
4.81795
4.71886
4.57704
4.40006
4.19726
3.98008
3.75809
3.53745
3.32248
3.11689
2.92381
2.74613
2.58736
2.45009
2.33616
2.2465
2.18077
2.13722
2.11278
2.10347
2.10488
2.11272
2.12312
2.13311
2.14044
2.14361
2.14196
2.13564
2.12572
2.11407
2.1031
2.09528
2.0929
2.09791
2.10942
2.123
2.13273
2.13315
2.12101
2.0963
2.06221
2.02415
1.9883
1.95967
1.94045
1.93162
1.93409
1.94801
1.97266
2.00661
2.04792
2.09401
2.14188
2.18839
2.23034
2.26405
2.28529
2.29071
2.27736
2.24314
2.1873
2.1109
2.01542
1.90326
1.78404
1.67817
1.60775
1.59135
1.63864
1.7458
1.89418
2.05408
2.19337
2.28766
2.34279
2.36247
2.35328
2.32472
2.28658
2.24703
2.21041
2.17859
2.15237
2.13177
2.11622
2.10464
2.09546
2.08643
2.07506
2.05904
2.03672
2.00749
1.97209
1.93255
1.89199
1.85407
1.82206
1.7981
1.78408
1.78104
1.78454
1.78647
1.77615
1.71183
1.40192
0.87837
0.26103
-0.270016
0
1.1372
3.00166
5.19475
7.20506
8.5687
8.99672
8.44152
7.09228
5.30616
3.49851
2.02409
1.08577
0.698606
0.720935
0.80786
0.886896
0.959218
1.02285
1.07686
1.12048
1.15364
1.177
1.19195
1.20068
1.2062
1.21198
1.22135
1.23659
1.25954
1.28826
1.31642
1.33639
1.34194
1.3307
1.30529
1.27289
1.24342
1.22709
1.23026
1.25325
1.29485
1.35396
1.42872
1.51623
1.61281
1.71451
1.81754
1.91869
2.01589
2.10848
2.19715
2.28358
2.36986
2.45784
2.54854
2.64187
2.73657
2.83066
2.92173
3.00731
3.08513
3.15306
3.20872
3.24918
3.27102
3.27074
3.24415
3.18685
3.095
2.96618
2.80025
2.59986
2.3706
2.12078
1.86065
1.59978
1.34605
1.10604
0.884521
0.684337
0.506694
0.35234
0.222551
0.117971
0.0370342
-0.0214846
-0.0588566
-0.0769909
-0.0788687
-0.0685539
-0.0507177
-0.0298475
-0.00944576
0.00871944
0.0242725
0.0373845
0.0485814
0.058461
0.0674831
0.0758842
0.0837413
0.0910902
0.0980268
0.10474
0.11146
0.118356
0.125435
0.132488
0.139144
0.145007
0.149804
0.153475
0.156152
0.15804
0.159238
0.15958
0.158573
0.155442
0.14929
0.139262
0.12501
0.106839
0.0858375
0.0638332
0.0431657
0.0262967
0.0153465
0.0116784
0.0155943
0.0261642
0.0420809
0.0616572
0.0830881
0.104635
0.12454
0.1409
0.152179
0.157248
0.155753
0.148493
0.137612
0.12641
0.118768
0.118311
0.127547
0.146462
0.173661
0.207405
0.244972
0.282946
0.317256
0.343154
0.356295
0.353527
0.333227
0.295888
0.2445
0.184446
0.12278
0.0669112
0.023009
-0.00673227
-0.0227668
-0.0263349
-0.0231901
-0.0214435
-0.0288665
-0.0509704
-0.0897413
-0.143368
-0.20701
-0.298867
0
0.803939
2.14456
3.86673
5.62303
6.94679
7.41409
6.83358
5.35948
3.44903
1.66975
0.456905
-0.0477801
0.00327617
0.146435
0.257571
0.355805
0.440343
0.513455
0.579171
0.640153
0.698088
0.753308
0.803779
0.845372
0.873645
0.88611
0.883837
0.871676
0.856973
0.847249
0.847789
0.858576
0.877076
0.900195
0.924371
0.946815
0.966428
0.984142
1.0026
1.02535
1.05591
1.09698
1.14934
1.21291
1.28797
1.37496
1.47443
1.58694
1.71267
1.85101
2.0002
2.15724
2.31838
2.47963
2.63732
2.78853
2.93133
3.0647
3.18824
3.30127
3.4027
3.49171
3.56704
3.6271
3.67007
3.69388
3.69406
3.66807
3.61344
3.5283
3.41193
3.26535
3.09147
2.89489
2.68138
2.45773
2.23091
2.00642
1.78966
1.58581
1.39956
1.23534
1.09977
0.997399
0.923418
0.870033
0.828698
0.792536
0.758064
0.725601
0.698346
0.680592
0.675268
0.681433
0.69727
0.720965
0.749914
0.780865
0.810357
0.835174
0.85277
0.861493
0.860737
0.850989
0.833777
0.811489
0.787051
0.763482
0.743364
0.728287
0.719225
0.715401
0.713846
0.710738
0.702457
0.686599
0.662594
0.63173
0.596579
0.560043
0.524338
0.490223
0.457321
0.424659
0.391196
0.356495
0.32119
0.287503
0.258857
0.238887
0.230287
0.233882
0.248261
0.270132
0.295269
0.319705
0.340949
0.358169
0.371884
0.383522
0.39465
0.40623
0.418165
0.42908
0.436524
0.437551
0.429427
0.410307
0.379707
0.338696
0.289793
0.236594
0.183226
0.133568
0.0904703
0.0556523
0.029967
0.01326
0.00416737
0
-0.00405407
-0.0103824
-0.0220829
-0.0412461
-0.0686812
-0.103893
-0.145296
-0.190887
-0.244019
-0.127038
0.304597
1.20712
2.58898
4.20559
5.59138
6.24815
5.88958
4.5929
2.76533
0.951597
-0.399198
-1.08587
-1.17057
-0.922671
-0.706916
-0.547571
-0.463227
-0.458547
-0.52133
-0.624454
-0.732398
-0.810843
-0.842965
-0.83747
-0.807166
-0.760421
-0.702026
-0.635386
-0.563654
-0.489592
-0.418088
-0.357861
-0.319696
-0.314459
-0.348767
-0.420746
-0.518424
-0.622162
-0.71042
-0.766346
-0.789565
-0.780066
-0.742324
-0.68234
-0.604871
-0.514378
-0.413295
-0.301975
-0.180215
-0.0486456
0.0909624
0.235811
0.382507
0.527691
0.668671
0.803877
0.932995
1.05674
1.17627
1.29273
1.4066
1.51631
1.61632
1.69798
1.75097
1.76536
1.73364
1.65216
1.52139
1.3454
1.13079
0.885847
0.623546
0.354424
0.0851578
-0.179012
-0.433005
-0.672038
-0.891766
-1.08767
-1.25611
-1.39502
-1.50367
-1.58288
-1.63516
-1.66404
-1.67455
-1.67289
-1.66542
-1.65785
-1.65465
-1.65864
-1.67083
-1.69039
-1.71497
-1.74113
-1.765
-1.78304
-1.79267
-1.79212
-1.78178
-1.76359
-1.74048
-1.71585
-1.69307
-1.67602
-1.66719
-1.66752
-1.67588
-1.68877
-1.70056
-1.70462
-1.69519
-1.66906
-1.62623
-1.57267
-1.51733
-1.46956
-1.43661
-1.42224
-1.42651
-1.44634
-1.47637
-1.50928
-1.53884
-1.55917
-1.56514
-1.553
-1.51625
-1.45016
-1.35864
-1.25956
-1.17579
-1.12781
-1.12935
-1.18438
-1.28558
-1.41465
-1.54497
-1.64698
-1.70257
-1.71478
-1.69257
-1.623
-1.5145
-1.39538
-1.29526
-1.23561
-1.22311
-1.24816
-1.28872
-1.31776
-1.31126
-1.2637
-1.18463
-1.08156
-0.959271
-0.822944
-0.678933
-0.534216
-0.396317
-0.271474
-0.163662
-0.073896
0
0.0434196
0.0517187
0.519425
1.59341
3.19202
4.97922
6.46086
7.17261
6.8773
5.67488
3.96466
2.27298
1.03063
0.413804
0.325847
0.47937
0.550862
0.616312
0.676348
0.73051
0.778489
0.819412
0.851736
0.873783
0.884167
0.882133
0.868374
0.845571
0.818359
0.7926
0.774142
0.767472
0.774085
0.79352
0.823133
0.858823
0.895883
0.929747
0.955265
0.969021
0.969546
0.957859
0.938013
0.917123
0.904436
0.909432
0.939477
0.997921
1.08037
1.18282
1.30002
1.42729
1.56091
1.6999
1.8447
1.99615
2.15457
2.3191
2.48746
2.65644
2.82224
2.98089
3.12805
3.25813
3.36439
3.44133
3.48418
3.48791
3.44828
3.36327
3.23423
3.06644
2.86876
2.6525
2.43043
2.21211
2.00354
1.80953
1.63314
1.47543
1.33564
1.21148
1.09957
0.996249
0.898306
0.803651
0.711784
0.623924
0.542793
0.471961
0.415071
0.37512
0.354279
0.35338
0.371855
0.406397
0.448441
0.487029
0.513175
0.522072
0.514375
0.496031
0.476419
0.46528
0.469476
0.48934
0.51996
0.556456
0.592628
0.62208
0.638169
0.636419
0.614364
0.571826
0.511067
0.436668
0.354951
0.272957
0.197221
0.131847
0.07728
0.0337853
0.00141735
-0.020422
-0.0326897
-0.0364361
-0.0326113
-0.0219772
-0.00513306
0.0173416
0.0447329
0.0761961
0.10985
0.142771
0.171702
0.193669
0.206652
0.210083
0.205043
0.19413
0.181055
0.170018
0.164578
0.167309
0.179844
0.202626
0.234904
0.27456
0.317472
0.358899
0.394313
0.420118
0.434101
0.435545
0.42506
0.40428
0.375611
0.342133
0.306644
0.271727
0.239587
0.211658
0.188423
0.169067
0.151371
0.132399
0.109243
0.0797714
0.0431492
0
-0.0554373
0.143906
0.807851
2.02082
3.66293
5.38002
6.68561
7.16387
6.66888
5.39884
3.79447
2.31962
1.25689
0.634728
0.308626
0.217007
0.184042
0.164541
0.161262
0.177369
0.214271
0.267286
0.323462
0.368737
0.391574
0.386093
0.353733
0.302753
0.24565
0.19527
0.160932
0.142239
0.134896
0.136807
0.145364
0.158383
0.174965
0.195944
0.223785
0.261928
0.313739
0.38139
0.465015
0.561576
0.667418
0.778293
0.890364
1.00118
1.11021
1.2188
1.32957
1.44534
1.56816
1.69839
1.83459
1.97422
2.114
2.25108
2.38399
2.51313
2.64067
2.77071
2.91214
3.07777
3.26879
3.46276
3.62837
3.73897
3.77624
3.72876
3.59084
3.3651
3.06718
2.72803
2.38878
2.07559
1.78943
1.52373
1.27671
1.04811
0.836879
0.641887
0.462648
0.301665
0.163841
0.052706
-0.0281422
-0.0766035
-0.0933935
-0.0826116
-0.0513263
-0.00829411
0.0377654
0.0798817
0.114375
0.1397
0.156462
0.166795
0.173625
0.17989
0.18771
0.198382
0.212504
0.229437
0.247117
0.262998
0.274836
0.281399
0.282829
0.280534
0.276653
0.273313
0.271962
0.27289
0.275928
0.280604
0.286486
0.293397
0.301393
0.310478
0.320212
0.329351
0.335486
0.33552
0.326438
0.306307
0.275114
0.235156
0.190805
0.147726
0.111781
0.0870539
0.0752131
0.0775193
0.0936115
0.122756
0.162493
0.208027
0.253937
0.295241
0.328177
0.350816
0.363384
0.368256
0.369577
0.372553
0.382184
0.402169
0.434616
0.48126
0.540592
0.606525
0.670948
0.725162
0.761322
0.773611
0.75906
0.718055
0.65455
0.575955
0.492439
0.415816
0.364794
0.39052
0.530403
0.730075
0.908892
0.996309
0.957654
0.801767
0.571767
0.325583
0.113944
-0.0488644
-0.185721
-0.249565
0
0.647443
1.91405
3.8159
6.01761
7.87602
8.71337
8.17226
6.41957
4.06417
1.84975
0.320754
-0.352371
-0.337197
-0.0737206
0.0777246
0.202795
0.295803
0.356514
0.395124
0.415194
0.421112
0.417226
0.407365
0.394041
0.378663
0.361912
0.344163
0.325955
0.308348
0.293058
0.282362
0.278808
0.284829
0.302017
0.33147
0.374851
0.43509
0.513635
0.600059
0.675322
0.720262
0.723179
0.686779
0.630487
0.58565
0.584862
0.650143
0.770374
0.921672
1.09148
1.27311
1.46096
1.65046
1.83837
2.02277
2.20281
2.37829
2.54913
2.71484
2.87449
3.02633
3.16712
3.29067
3.38722
3.44768
3.46027
3.41254
3.2958
3.11022
2.86808
2.59261
2.3122
2.05104
1.8128
1.5913
1.38383
1.18824
1.00139
0.820153
0.642339
0.467869
0.300458
0.146738
0.0151738
-0.0868567
-0.155799
-0.193407
-0.206376
-0.204288
-0.196699
-0.190457
-0.188071
-0.188937
-0.1903
-0.188811
-0.182246
-0.170618
-0.154835
-0.137425
-0.122297
-0.113372
-0.113496
-0.123703
-0.142973
-0.16855
-0.19674
-0.223929
-0.247533
-0.26682
-0.282555
-0.295897
-0.308184
-0.320336
-0.332447
-0.343692
-0.352603
-0.357621
-0.357249
-0.35066
-0.340272
-0.331147
-0.328507
-0.335414
-0.351098
-0.370799
-0.387377
-0.394102
-0.387454
-0.369337
-0.344662
-0.320165
-0.301816
-0.292731
-0.29249
-0.298055
-0.305713
-0.31298
-0.319575
-0.326523
-0.335063
-0.345499
-0.356459
-0.364892
-0.366798
-0.358397
-0.338214
-0.30739
-0.267574
-0.220649
-0.170624
-0.122518
-0.0805334
-0.0470789
-0.0223433
-0.00458412
0.00890541
0.0202517
0.0300362
0.0360744
0.0341572
0.0204559
-0.00587921
-0.0411984
-0.0777199
-0.105762
-0.115917
-0.094487
-0.0515802
-0.0108885
0
-0.0380974
-0.131615
-0.269487
-0.429906
-0.589753
-0.733479
-0.864046
-0.974519
-0.797963
-0.255961
0.852458
2.55423
4.58707
6.43327
7.51106
7.43581
6.21165
4.23947
2.13066
0.433007
-0.579444
-0.94796
-0.911108
-0.832033
-0.758096
-0.690629
-0.631711
-0.582097
-0.54103
-0.508163
-0.48367
-0.468062
-0.46224
-0.46705
-0.483104
-0.510389
-0.547844
-0.594231
-0.645493
-0.695767
-0.738922
-0.769659
-0.784326
-0.781241
-0.760504
-0.723496
-0.672343
-0.610411
-0.540942
-0.466289
-0.38824
-0.308174
-0.226825
-0.144154
-0.0593979
0.0286589
0.121283
0.219384
0.323269
0.432578
0.546718
0.665252
0.788221
0.91628
1.05055
1.19218
1.34176
1.49929
1.66353
1.82989
1.98941
2.13088
2.24382
2.3196
2.35195
2.33684
2.27217
2.15765
1.99518
1.78947
1.54985
1.28868
1.01767
0.745924
0.479632
0.223209
-0.0197443
-0.246397
-0.454236
-0.639044
-0.797567
-0.926937
-1.02443
-1.07657
-1.07862
-1.0479
-1.00685
-0.975865
-0.966837
-0.980317
-1.00736
-1.03473
-1.05063
-1.05087
-1.03895
-1.01778
-0.989012
-0.954724
-0.917222
-0.880077
-0.847814
-0.824753
-0.813962
-0.816089
-0.828637
-0.846169
-0.861596
-0.868206
-0.861722
-0.841498
-0.810618
-0.774486
-0.738758
-0.707453
-0.682008
-0.661579
-0.644297
-0.628769
-0.614988
-0.604364
-0.599163
-0.601556
-0.612731
-0.632263
-0.657835
-0.685314
-0.709328
-0.724141
-0.724074
-0.704515
-0.662867
-0.595277
-0.500358
-0.388575
-0.277696
-0.185353
-0.12463
-0.101227
-0.112811
-0.150409
-0.201139
-0.251435
-0.290749
-0.315155
-0.325291
-0.323244
-0.310852
-0.29039
-0.265112
-0.238412
-0.212751
-0.189047
-0.166399
-0.142266
-0.113153
-0.0756762
-0.0241877
0.0441252
0.119308
0.186374
0.231249
0.246738
0.235489
0.208371
0.179105
0.157939
0.146603
0.139681
0.133123
0.123205
0.107877
0.087389
0.0639162
0.040386
0.0190128
0
-0.0113325
-0.0254534
-0.0463978
-0.0775869
-0.120789
-0.175623
-0.239708
-0.325277
-0.121718
0.552449
1.82516
3.63181
5.62789
7.24718
7.92464
7.38292
5.80464
3.76106
1.92693
0.757109
0.323214
0.386126
0.440342
0.459448
0.46738
0.46395
0.450929
0.431562
0.4098
0.389476
0.373332
0.362912
0.359211
0.362597
0.373071
0.39047
0.414548
0.444897
0.48078
0.521243
0.564539
0.608137
0.649519
0.686842
0.719551
0.748735
0.777077
0.808377
0.846777
0.895789
0.956928
1.03023
1.11478
1.20879
1.30991
1.41576
1.52446
1.63493
1.74699
1.86119
1.97838
2.09928
2.22405
2.35209
2.48211
2.61234
2.74102
2.86678
2.98887
3.10673
3.21902
3.32251
3.41132
3.47544
3.50165
3.47671
3.39073
3.23976
3.02685
2.76187
2.46041
2.1451
1.83221
1.53186
1.25291
1.00258
0.785688
0.604308
0.458169
0.345509
0.26209
0.200475
0.152837
0.112087
0.0727966
0.0317764
-0.0118351
-0.0569539
-0.101302
-0.142343
-0.17836
-0.208267
-0.231914
-0.250024
-0.263517
-0.272912
-0.277925
-0.277401
-0.269708
-0.253386
-0.227383
-0.191303
-0.148487
-0.104053
-0.0632339
-0.0298006
-0.00501814
0.0124982
0.0260165
0.0393611
0.0555332
0.0752421
0.0974927
0.120391
0.140869
0.154691
0.157831
0.147163
0.121357
0.0816345
0.032046
-0.0207623
-0.0672393
-0.0974974
-0.103281
-0.0795718
-0.0254008
0.0562655
0.161102
0.284925
0.416131
0.53639
0.627959
0.676065
0.672499
0.619522
0.531415
0.431563
0.345168
0.290473
0.264546
0.255923
0.259053
0.270439
0.287811
0.310752
0.340536
0.379228
0.429294
0.49334
0.567739
0.642034
0.703816
0.742752
0.753888
0.738961
0.705282
0.662727
0.620101
0.582121
0.5486
0.517867
0.488883
0.461406
0.436396
0.416017
0.4031
0.401105
0.413825
0.441314
0.476484
0.506958
0.518838
0.500176
0.443969
0.349911
0.224543
0.0797798
-0.141543
0
0.739461
2.1242
3.95624
5.80528
7.14145
7.53671
6.84881
5.29585
3.37277
1.63962
0.48904
0.0168987
0.0569863
0.232477
0.372311
0.485116
0.564028
0.607699
0.620624
0.612159
0.594338
0.578956
0.574433
0.582722
0.601345
0.627079
0.657226
0.689139
0.720893
0.751651
0.781677
0.81204
0.844137
0.879197
0.91785
0.960193
1.00595
1.05462
1.10564
1.15864
1.21348
1.27032
1.32963
1.39205
1.45851
1.53014
1.6084
1.69506
1.79212
1.9016
2.02517
2.16376
2.31714
2.48374
2.66061
2.84379
3.02881
3.21117
3.38699
3.55331
3.70756
3.84541
3.95958
4.04371
4.09041
4.09083
4.03753
3.92762
3.7648
3.55927
3.32552
3.07899
2.8328
2.59295
2.36345
2.14733
1.94653
1.76223
1.59495
1.44468
1.31086
1.19244
1.08794
0.995705
0.914093
0.841789
0.777986
0.722466
0.675564
0.63795
0.610321
0.59313
0.586551
0.589914
0.601728
0.619913
0.642041
0.665664
0.688459
0.708623
0.725209
0.738242
0.748662
0.758044
0.768118
0.780246
0.79513
0.811736
0.827789
0.840479
0.847348
0.846993
0.839309
0.825218
0.806108
0.783327
0.75825
0.732122
0.706457
0.683582
0.666774
0.661257
0.682239
0.76023
0.884518
1.01569
1.10365
1.11222
1.03849
0.914896
0.792299
0.714635
0.7009
0.719354
0.751803
0.793518
0.841282
0.892691
0.946161
0.999039
1.04672
1.08326
1.10285
1.10196
1.0812
1.04581
1.00477
0.968742
0.947529
0.944056
0.959118
0.999691
1.07123
1.16732
1.27015
1.35979
1.41865
1.43528
1.4067
1.33917
1.24733
1.15121
1.07082
1.01664
0.986181
0.974147
0.965352
0.940435
0.881377
0.776468
0.610939
0.387513
0.130061
-0.135749
-0.369547
0
0.915083
2.35719
4.13656
5.91879
7.30137
7.93096
7.62891
6.47348
4.79171
3.04408
1.64628
0.81813
0.53425
0.595599
0.636247
0.674421
0.710235
0.74337
0.773922
0.8021
0.827883
0.851096
0.871417
0.888498
0.902168
0.91256
0.92011
0.925422
0.929035
0.9314
0.932911
0.934124
0.936087
0.940604
0.950247
0.968063
0.997011
1.0393
1.09513
1.16314
1.24139
1.32717
1.41726
1.50847
1.5981
1.68434
1.76652
1.84521
1.92206
1.99966
2.08129
2.17059
2.27129
2.38693
2.52048
2.67394
2.84799
3.04656
3.27707
3.53251
3.786
4.00895
4.17992
4.28806
4.33134
4.31159
4.23086
4.09141
3.89905
3.66875
3.41651
3.15797
2.90309
2.65333
2.40741
2.16529
1.92802
1.69782
1.4781
1.27323
1.08857
0.929083
0.798008
0.696539
0.626266
0.587463
0.572713
0.572347
0.577268
0.580784
0.579602
0.573681
0.565051
0.556151
0.548419
0.541511
0.533747
0.523332
0.509638
0.493824
0.478472
0.46646
0.459686
0.457841
0.459077
0.46184
0.464774
0.467078
0.468715
0.470324
0.472878
0.477191
0.483525
0.49139
0.499129
0.50411
0.503621
0.495763
0.480207
0.458542
0.43403
0.410823
0.392856
0.382803
0.38075
0.385275
0.394285
0.40504
0.414681
0.420642
0.420745
0.413556
0.398348
0.375169
0.344935
0.309472
0.27144
0.234079
0.200806
0.174701
0.15808
0.152297
0.157595
0.173189
0.197471
0.228184
0.262852
0.29902
0.334311
0.366224
0.39183
0.408457
0.414173
0.407894
0.389783
0.361488
0.326065
0.287529
0.250131
0.217582
0.19178
0.17293
0.160732
0.154066
0.151044
0.148752
0.143427
0.13114
0.108351
0.0724977
0.0225065
-0.0409111
-0.115259
-0.196582
-0.28005
-0.330007
0
0.830086
2.22472
3.98871
5.67095
6.73762
6.83069
5.94898
4.4342
2.78081
1.40148
0.487648
0.0161435
-0.135226
-0.0661275
0.000577259
0.0629246
0.117626
0.161867
0.193758
0.212787
0.220023
0.217969
0.210099
0.200229
0.191931
0.187913
0.189901
0.199238
0.217177
0.244771
0.282789
0.331492
0.39032
0.457845
0.531763
0.607397
0.678494
0.738982
0.784268
0.81231
0.824176
0.823977
0.818247
0.814971
0.822339
0.846468
0.891414
0.960134
1.05459
1.17537
1.32146
1.49038
1.67849
1.88132
2.09414
2.3124
2.53203
2.74893
2.95772
3.1508
3.31913
3.45376
3.54255
3.57314
3.53712
3.43332
3.26893
3.05816
2.81879
2.56847
2.31973
2.07735
1.84262
1.61682
1.40168
1.19862
1.00876
0.832887
0.671522
0.524859
0.392834
0.275042
0.170895
0.0798196
0.000554371
-0.0681889
-0.127406
-0.17697
-0.216984
-0.24709
-0.266833
-0.276097
-0.275439
-0.266191
-0.250326
-0.230206
-0.208382
-0.187298
-0.169636
-0.157988
-0.154436
-0.160136
-0.174757
-0.196083
-0.220063
-0.241392
-0.254525
-0.254869
-0.241172
-0.213535
-0.172418
-0.120456
-0.0643809
-0.0137897
0.022807
0.0400349
0.0371591
0.0185201
-0.00746865
-0.0306879
-0.0424114
-0.0381824
-0.0181124
0.0108455
0.0375476
0.0510399
0.0444063
0.0172618
-0.0239218
-0.0677768
-0.101641
-0.115521
-0.107646
-0.0830372
-0.0471979
-0.00385113
0.0438176
0.093156
0.142272
0.18995
0.235303
0.277358
0.31514
0.347702
0.374437
0.39552
0.412211
0.426822
0.442311
0.461565
0.486602
0.517627
0.553771
0.592254
0.628805
0.658922
0.678877
0.686469
0.681322
0.664676
0.638777
0.60605
0.568464
0.526993
0.481391
0.430445
0.372254
0.303633
0.21919
0.116473
-0.00226121
-0.132511
-0.27683
0
0.784503
2.10583
3.84703
5.71486
7.26738
8.04328
7.76708
6.51405
4.70623
2.91432
1.5837
0.859168
0.603375
0.556382
0.508842
0.467035
0.432385
0.407542
0.394166
0.392737
0.402516
0.421638
0.447318
0.476095
0.504098
0.527184
0.541148
0.542036
0.526403
0.491686
0.436598
0.358829
0.252746
0.120625
-0.0171548
-0.134314
-0.206073
-0.215025
-0.155078
-0.0324543
0.13614
0.327197
0.514914
0.681564
0.823283
0.934041
1.01273
1.06355
1.0955
1.12082
1.15274
1.20303
1.27882
1.3794
1.50175
1.64338
1.80131
1.97179
2.15102
2.33528
2.52059
2.70239
2.87484
3.03016
3.15791
3.24679
3.28038
3.23875
3.10357
2.86607
2.53505
2.14047
1.72809
1.34464
1.00458
0.695519
0.413576
0.157881
-0.0716797
-0.271405
-0.438787
-0.57139
-0.665789
-0.719812
-0.734663
-0.716042
-0.673674
-0.620143
-0.568265
-0.528735
-0.508507
-0.510295
-0.533138
-0.573665
-0.627534
-0.690112
-0.757392
-0.826638
-0.8957
-0.962056
-1.02226
-1.07254
-1.1093
-1.12972
-1.13248
-1.11826
-1.08966
-1.05066
-1.00576
-0.959162
-0.914195
-0.873004
-0.83849
-0.814423
-0.804061
-0.81037
-0.834983
-0.877113
-0.932995
-0.996248
-1.05916
-1.11454
-1.15821
-1.19066
-1.21243
-1.2259
-1.23455
-1.24204
-1.25139
-1.26451
-1.2821
-1.3038
-1.32854
-1.355
-1.38181
-1.40784
-1.43208
-1.45354
-1.47115
86
257
430
609
795
979
1158
1337
1513
1688
1861
2031
2198
2368
2543
2722
2908
3089
3265
3442
3616
0
0
0
0
0
0
0
0
0
0
0
0
0
0
0
0
0
0
0
0
0
0
0
0
0
0
0
0
0
0
0
0
0
0
0
0
0
0
0
0
0
0
0
0
0
0
0
0
0
0
0
0
0
0
0
0
0
0
0
0
0
0
0
0
0
0
0
0
0
0
0
0
0
0
0
0
0
0
0
0
0
0
0
0
0
0
0
0
0
0
0
0
0
0
0
0
0
0
0
0
0
0
0
0
0
0
0
0
0
0
0
0
0
0
0
0
0
0
0
0
0
0
0
0
0
0
0
0
0
0
0
0
0
0
0
0
0
0
0
0
0
0
0
0
0
0
0
0
0
0
0
0
0
0
0
0
0
0
0
0
0
0
0
0
0
0
0
0
0
0
0
0
0
0
0
0
0
0
0
0
0
0
0
0
0
0
0
0
0
0
0
0
0
0
0
0
0
0
0
0
0
0
0
0
0
0
0
0
0
0
0
0
0
0
0
0
0
0
0
0
0
0
0
0
0
0
0
0
0
0
0
0
0
0
0
0
0
0
0
0
0
0
0
0
0
0
0
0
0
0
0
0
0
0
0
0
0
0
0
0
0
0
0
0
0
0
0
0
0
0
0
0
0
0
0
0
0
0
0
0
0
0
0
0
0
0
0
0
0
0
0
0
0
0
0
0
0
0
0
0
0
0
0
0
0
0
0
0
0
0
0
0
0
0
0
0
0
0
0
0
0
0
0
0
0
0
0
0
0
0
0
0
0
0
0
0
0
0
0
0
0
0
0
0
0
0
0
0
0
0
0
0
0
0
0
0
0
0
0
0
0
0
0
0
0
0
0
0
0
0
0
0
0
0
0
0
0
0
0
0
0
0
0
0
0
0
0
0
0
0
0
0
0
0
0
0
0
0
0
0
0
0
0
0
0
0
0
0
0
0
0
0
0
0
0
0
0
0
0
0
0
0
0
0
0
0
0
0
0
0
0
0
0
0
0
0
0
0
0
0
0
0
0
0
0
0
0
0
0
0
0
0
0
0
0
0
0
0
0
0
0
0
0
0
0
0
0
0
0
0
0
0
0
0
0
0
0
0
0
0
0
0
0
0
0
0
0
0
0
0
0
0
0
0
0
0
0
0
0
0
0
0
0
0
0
0
0
0
0
0
0
0
0
0
0
0
0
0
0
0
0
0
0
0
0
0
0
0
0
0
0
0
0
0
0
0
0
0
0
0
0
0
0
0
0
0
0
0
0
0
0
0
0
0
0
0
0
0
0
0
0
0
0
0
0
0
0
0
0
0
0
0
0
0
0
0
0
0
0
0
0
0
0
0
0
0
0
0
0
0
0
0
0
0
0
0
0
0
0
0
0
0
0
0
0
0
0
0
0
0
0
0
0
0
0
0
0
0
0
0
0
0
0
0
0
0
0
0
0
0
0
0
0
0
0
0
0
0
0
0
0
0
0
0
0
0
0
0
0
0
0
0
0
0
0
0
0
0
0
0
0
0
0
0
0
0
0
0
0
0
0
0
0
0
0
0
0
0
0
0
0
0
0
0
0
0
0
0
0
0
0
0
0
0
0
0
0
0
0
0
0
0
0
0
0
0
0
0
0
0
0
0
0
0
0
0
0
0
0
0
0
0
0
0
0
0
0
0
0
0
0
0
0
0
0
0
0
0
0
0
0
0
0
0
0
0
0
0
0
0
0
0
0
0
0
0
0
0
0
0
0
0
0
0
0
0
0
0
0
0
0
0
0
0
0
0
0
0
0
0
0
0
0
0
0
0
0
0
0
0
0
0
0
0
0
0
0
0
0
0
0
0
0
0
0
0
0
0
0
0
0
0
0
0
0
0
0
0
0
0
0
0
0
0
0
0
0
0
0
0
0
0
0
0
0
0
0
0
0
0
0
0
0
0
0
0
0
0
0
0
0
0
0
0
0
0
0
0
0
0
0
0
0
0
0
0
0
0
0
0
0
0
0
0
0
0
0
0
0
0
0
0
0
0
0
0
0
0
0
0
0
0
0
0
0
0
0
0
0
0
0
0
0
0
0
0
0
0
0
0
0
0
0
0
0
0
0
0
0
0
0
0
0
0
0
0
0
0
0
0
0
0
0
0
0
0
0
0
0
0
0
0
0
0
0
0
0
0
0
0
0
0
0
0
0
0
0
0
0
0
0
0
0
0
0
0
0
0
0
0
0
0
0
0
0
0
0
0
0
0
0
0
0
0
0
0
0
0
0
0
0
0
0
0
0
0
0
0
0
0
0
0
0
0
0
0
0
0
0
0
0
0
0
0
0
0
0
0
0
0
0
0
0
0
0
0
0
0
0
0
0
0
0
0
0
0
0
0
0
0
0
0
0
0
0
0
0
0
0
0
0
0
0
0
0
0
0
0
0
0
0
0
0
0
0
0
0
0
0
0
0
0
0
0
0
0
0
0
0
0
0
0
0
0
0
0
0
0
0
0
0
0
0
0
0
0
0
0
0
0
0
0
0
0
0
0
0
0
0
0
0
0
0
0
0
0
0
0
0
0
0
0
0
0
0
0
0
0
0
0
0
0
0
0
0
0
0
0
0
0
0
0
0
0
0
0
0
0
0
0
0
0
0
0
0
0
0
0
0
0
0
0
0
0
0
0
0
0
0
0
0
0
0
0
0
0
0
0
0
0
0
0
0
0
0
0
0
0
0
0
0
0
0
0
0
0
0
0
0
0
0
0
0
0
0
0
0
0
0
0
0
0
0
0
0
0
0
0
0
0
0
0
0
0
0
0
0
0
0
0
0
0
0
0
0
0
0
0
0
0
0
0
0
0
0
0
0
0
0
0
0
0
0
0
0
0
0
0
0
0
0
0
0
0
0
0
0
0
0
0
0
0
0
0
0
0
0
0
0
0
0
0
0
0
0
0
0
0
0
0
0
0
0
0
0
0
0
0
0
0
0
0
0
0
0
0
0
0
0
0
0
0
0
0
0
0
0
0
0
0
0
0
0
0
0
0
0
0
0
0
0
0
0
0
0
0
0
0
0
0
0
0
0
0
0
0
0
0
0
0
0
0
0
0
0
0
0
0
0
0
0
0
0
0
0
0
0
0
0
0
0
0
0
0
0
0
0
0
0
0
0
0
0
0
0
0
0
0
0
0
0
0
0
0
0
0
0
0
0
0
0
0
0
0
0
0
0
0
0
0
0
0
0
0
0
0
0
0
0
0
0
0
0
0
0
0
0
0
0
0
0
0
0
0
0
0
0
0
0
0
0
0
0
0
0
0
0
0
0
0
0
0
0
0
0
0
0
0
0
0
0
0
0
0
0
0
0
0
0
0
0
0
0
0
0
0
0
0
0
0
0
0
0
0
0
0
0
0
0
0
0
0
0
0
0
0
0
0
0
0
0
0
0
0
0
0
0
0
0
0
0
0
0
0
0
0
0
0
0
0
0
0
0
0
0
0
0
0
0
0
0
0
0
0
0
0
0
0
0
0
0
0
0
0
0
0
0
0
0
0
0
0
0
0
0
0
0
0
0
0
0
0
0
0
0
0
0
0
0
0
0
0
0
0
0
0
0
0
0
0
0
0
0
0
0
0
0
0
0
0
0
0
0
0
0
0
0
0
0
0
0
0
0
0
0
0
0
0
0
0
0
0
0
0
0
0
0
0
0
0
0
0
0
0
0
0
0
0
0
0
0
0
0
0
0
0
0
0
0
0
0
0
0
0
0
0
0
0
0
0
0
0
0
0
0
0
0
0
0
0
0
0
0
0
0
0
0
0
0
0
0
0
0
0
0
0
0
0
0
0
0
0
0
0
0
0
0
0
0
0
0
0
0
0
0
0
0
0
0
0
0
0
0
0
0
0
0
0
0
0
0
0
0
0
0
0
0
0
0
0
0
0
0
0
0
0
0
0
0
0
0
0
0
0
0
0
0
0
0
0
0
0
0
0
0
0
0
0
0
0
0
0
0
0
0
0
0
0
0
0
0
0
0
0
0
0
0
0
0
0
0
0
0
0
0
0
0
0
0
0
0
0
0
0
0
0
0
0
0
0
0
0
0
0
0
0
0
0
0
0
0
0
0
0
0
0
0
0
0
0
0
0
0
0
0
0
0
0
0
0
0
0
0
0
0
0
0
0
0
0
0
0
0
0
0
0
0
0
0
0
0
0
0
0
0
0
0
0
0
0
0
0
0
0
0
0
0
0
0
0
0
0
0
0
0
0
0
0
0
0
0
0
0
0
0
0
0
0
0
0
0
0
0
0
0
0
0
0
0
0
0
0
0
0
0
0
0
0
0
0
0
0
0
0
0
0
0
0
0
0
0
0
0
0
0
0
0
0
0
0
0
0
0
0
0
0
0
0
0
0
0
0
0
0
0
0
0
0
0
0
0
0
0
0
0
0
0
0
0
0
0
0
0
0
0
0
0
0
0
0
0
0
0
0
0
0
0
0
0
0
0
0
0
0
0
0
0
0
0
0
0
0
0
0
0
0
0
0
0
0
0
0
0
0
0
0
0
0
0
0
0
0
0
0
0
0
0
0
0
0
0
0
0
0
0
0
0
0
0
0
0
0
0
0
0
0
0
0
0
0
0
0
0
0
0
0
0
0
0
0
0
0
0
0
0
0
0
0
0
0
0
0
0
0
0
0
0
0
0
0
0
0
0
0
0
0
0
0
0
0
0
0
0
0
0
0
0
0
0
0
0
0
0
0
0
0
0
0
0
0
0
0
0
0
0
0
0
0
0
0
0
0
0
0
0
0
0
0
0
0
0
0
0
0
0
0
0
0
0
0
0
0
0
0
0
0
0
0
0
0
0
0
0
0
0
0
0
0
0
0
0
0
0
0
0
0
0
0
0
0
0
0
0
0
0
0
0
0
0
0
0
0
0
0
0
0
0
0
0
0
0
0
0
0
0
0
0
0
0
0
0
0
0
0
0
0
0
0
0
0
0
0
0
0
0
0
0
0
0
0
0
0
0
0
0
0
0
0
0
0
0
0
0
0
0
0
0
0
0
0
0
0
0
0
0
0
0
0
0
0
0
0
0
0
0
0
0
0
0
0
0
0
0
0
0
0
0
0
0
0
0
0
0
0
0
0
0
0
0
0
0
0
0
0
0
0
0
0
0
0
0
0
0
0
0
0
0
0
0
0
0
0
0
0
0
0
0
0
0
0
0
0
0
0
0
0
0
0
0
0
0
0
0
0
0
0
0
0
0
0
0
0
0
0
0
0
0
0
0
0
0
0
0
0
0
0
0
0
0
0
0
0
0
0
0
0
0
0
0
0
0
0
0
0
0
0
0
0
0
0
0
0
0
0
0
0
0
0
0
0
0
0
0
0
0
0
0
0
0
0
0
0
0
0
0
0
0
0
0
0
0
0
0
0
0
0
0
0
0
0
0
0
0
0
0
0
0
0
0
0
0
0
0
0
0
0
0
0
0
0
0
0
0
0
0
0
0
0
0
0
0
0
0
0
0
0
0
0
0
0
0
0
0
0
0
0
0
0
0
0
0
0
0
0
0
0
0
0
0
0
0
0
0
0
0
0
0
0
0
0
0
0
0
0
0
0
0
0
0
0
0
0
0
0
0
0
0
0
0
0
0
0
0
0
0
0
0
0
0
0
0
0
0
0
0
0
0
0
0
0
0
0
0
0
0
0
0
0
0
0
0
0
0
0
0
0
0
0
0
0
0
0
0
0
0
0
0
0
0
0
0
0
0
0
0
0
0
0
0
0
0
0
0
0
0
0
0
0
0
0
0
0
0
0
0
0
0
0
0
0
0
0
0
0
0
0
0
0
0
0
0
0
0
0
0
0
0
0
0
0
0
0
0
0
0
0
0
0
0
0
0
0
0
0
0
0
0
0
0
0
0
0
0
0
0
0
0
0
0
0
0
0
0
0
0
0
0
0
0
0
0
0
0
0
0
0
0
0
0
0
0
0
0
0
0
0
0
0
0
0
0
0
0
0
0
0
0
0
0
0
0
0
0
0
0
0
0
0
0
0
0
0
0
0
0
0
0
0
0
0
0
0
0
0
0
0
0
0
0
0
0
0
0
0
0
0
0
0
0
0
0
0
0
0
0
0
0
0
0
0
0
0
0
0
0
0
0
0
0
0
0
0
0
0
0
0
0
0
0
0
0
0
0
0
0
0
0
0
0
0
0
0
0
0
0
0
0
0
0
0
0
0
0
0
0
0
0
0
0
0
0
0
0
0
0
0
0
0
0
0
0
0
0
0
0
0
0
0
0
0
0
0
0
0
0
0
0
0
0
0
0
0
0
0
0
0
0
0
0
0
0
0
0
0
0
0
0
0
0
0
0
0
0
0
0
0
0
0
0
0
0
0
0
0
0
0
0
0
0
0
0
0
0
0
0
0
0
0
0
0
0
0
0
0
0
0
0
0
0
0
0
0
0
0
0
0
0
0
0
0
0
0
0
0
0
0
0
0
0
0
0
0
0
0
0
0
0
0
0
0
0
0
0
0
0
0
0
0
0
0
0
0
0
0
0
0
0
0
0
0
0
0
0
0
0
0
0
0
0
0
0
0
0
0
0
0
0
0
0
0
0
0
0
0
0
0
0
0
0
0
0
0
0
0
0
0
0
0
0
0
0
0
0
0
0
0
0
0
0
0
0
0
0
0
0
0
0
0
0
0
0
0
0
0
0
0
0
0
0
0
0
0
0
0
0
0
0
0
0
0
0
0
0
0
0
0
0
0
0
0
0
0
0
0
0
0
0
0
0
0
0
0
0
0
0
0
0
0
0
0
0
0
0
0
0
0
0
0
0
0
0
0
0
0
0
0
0
0
0
0
0
0
0
0
0
0
0
0
0
0
0
0
0
0
0
0
0
0
0
0
0
0
0
0
0
0
0
0
0
0
0
0
0
0
0
0
0
0
0
0
0
0
0
0
0
0
0
0
0
0
0
0
0
0
0
0
0
0
0
0
0
0
0
0
0
0
0
0
0
0
0
0
0
0
0
0
0
0
0
0
0
0
0
0
0
0
0
0
0
0
0
0
0
0
0
0
0
0
0
0
0
0
0
0
0
0
0
0
0
0
0
0
0
0
0
0
0
0
0
0
0
0
0
0
0
0
0
0
0
0
0
0
0
0
0
0
0
0
0
0
0
0
0
0
0
0
0
0
0
0
0
0
0
0
0
0
0
0
0
0
0
0
0
0
0
0
0
0
0
0
0
0
0
0
0
0
0
0
0
0
0
0
0
0
0
0
0
0
0
0
0
0
0
0
0
0
0
0
0
0
0
0
0
0
0
0
0
0
0
0
0
0
0
0
0
0
0
0
0
0
0
0
0
0
0
0
0
0
0
0
0
0
0
0
0
0
0
0
0
0
0
0
0
0
0
0
0
0
0
0
0
0
0
0
0
0
0
0
0
0
0
0
0
0
0
0
0
0
0
0
0
0
0
0
0
0
0
0
0
0
0
0
0
0
0
0
0
0
0
0
0
0
0
0
0
0
0
0
0
0
0
0
0
0
0
0
0
0
0
0
0
0
0
0
0
0
0
0
0
0
0
0
0
0
0
0
0
0
0
0
0
0
0
0
0
0
0
0
0
0
0
0
0
0
0
0
0
0
0
0
0
0
0
0
0
0
0
0
0
0
0
0
0
0
0
0
0
0
0
0
0
0
0
0
0
0
0
0
0
0
0
0
0
0
0
0
0
0
0
0
0
0
0
0
0
0
0
0
0
0
0
0
0
0
0
0
0
0
0
0
0
0
0
0
0
0
0
0
0
0
0
0
0
0
0
0
0
0
0
0
0
0
0
0
0
0
0
0
0
0
0
0
0
0
0
0
0
0
0
0
0
0
0
0
0
0
0
0
0
0
0
0
0
0
0
0
0
0
0
0
0
0
0
0
0
0
0
0
0
0
0
0
0
0
0
0
0
0
0
0
0
0
0
0
0
0
0
0
0
0
0
0
0
0
0
0
0
0
0
0
0
0
0
0
0
0
0
0
0
0
0
0
0
0
0
0
0
0
0
0
0
0
0
0
0
0
0
0
0
0
0
0
0
0
0
0
0
0
0
0
0
0
0
0
0
0
0
0
0
0
0
0
0
0
0
0
0
0
0
0
0
0
0
0
0
0
0
0
0
0
0
0
0
0
0
0
0
0
0
0
0
0
0
0
0
0
0
0
0
0
0
0
0
0
0
0
0
0
0
0
0
0
0
0
0
0
0
0
0
0
0
0
0
0
0
0
0
0
0
0
0
0
0
0
0
0
0
0
0
0
0
0
0
0
0
0
0
0
0
0
0
0
0
0
0
0
0
0
0
0
0
0
0
0
0
0
0
0
0
0
0
0
0
0
0
0
0
0
0
0
0
0
0
0
0
0
0
0
0
0
0
0
0
0
0
0
0
0
0
0
0
0
0
0
0
0
0
0
0
0
0
0
