0.412974
0.364038
0.309063
0.248625
0.1837
0.115135
0.043239
-0.0318013
-0.109643
-0.189819
-0.274923
0
1.06059
3.03852
5.72572
8.55841
10.8265
11.9376
11.6257
10.0454
7.71574
5.3068
3.35083
2.0488
1.30116
0.912541
0.988165
1.07702
1.16989
1.26299
1.34933
1.42064
1.46967
1.49236
1.48943
1.46682
1.43468
1.40509
1.38906
1.39337
1.41608
1.45366
1.50197
1.556
1.61122
1.6647
1.71551
1.7645
1.8136
1.8648
1.91948
1.97825
2.04083
2.10699
2.17757
2.25503
2.34336
2.44717
2.5702
2.71391
2.87545
3.04914
3.22939
3.40991
3.58539
3.75258
3.9109
4.06234
4.21075
4.36093
4.51752
4.68506
4.86987
5.07977
5.31986
5.58006
5.82814
6.02602
6.13601
6.13001
6.00188
5.77461
5.49205
5.19395
4.889
4.5619
4.21309
3.84612
3.46202
3.06445
2.66098
2.26225
1.88047
1.5277
1.21404
0.946392
0.727685
0.556798
0.429027
0.337841
0.276213
0.233435
0.197327
0.157867
0.108577
0.0473545
-0.0235168
-0.0982906
-0.169456
-0.229767
-0.27572
-0.305679
-0.318824
-0.317848
-0.306697
-0.288869
-0.26609
-0.237617
-0.200379
-0.149957
-0.0813572
0.0193359
0.155074
0.303559
0.435188
0.526004
0.568887
0.577042
0.577765
0.599585
0.659196
0.758443
0.872886
0.967794
1.01316
0.99521
0.920176
0.809804
0.692087
0.59224
0.520715
0.473734
0.448025
0.443608
0.462972
0.512761
0.605511
0.738306
0.879464
0.98963
1.03371
0.99344
0.874615
0.705532
0.527757
0.383716
0.292731
0.248504
0.289562
0.420453
0.593521
0.750011
0.840867
0.843199
0.765717
0.641994
0.515603
0.423287
0.372977
0.349631
0.34145
0.342183
0.348434
0.357319
0.366687
0.375126
0.381831
0.386478
0.389141
0.390202
0.390399
0.390845
0.392942
0.398206
0.408049
0.423727
0.446162
0.475858
0.513234
0.558804
0.613186
0.67742
0.75528
0.8473
0.938881
1.00787
1.03108
0.993346
0.894701
0.751781
0.592392
0.445475
0.328561
0.234473
0.156459
0.0889839
0.0246033
-0.0445725
-0.125738
-0.231319
-0.383398
-0.585052
-0.80654
-1.01335
-1.17736
-1.05275
0
1.91064
4.58821
7.62481
10.3448
12.0521
12.3484
11.3074
9.38919
7.18664
5.18976
3.67423
2.69088
2.10831
1.72712
1.55015
1.38607
1.23123
1.08755
0.957671
0.847482
0.762361
0.707549
0.689465
0.713283
0.780068
0.884841
1.01656
1.16015
1.2998
1.42504
1.532
1.61811
1.68436
1.73476
1.77539
1.81314
1.85431
1.90339
1.9625
2.03187
2.10945
2.19161
2.27514
2.3585
2.44232
2.52912
2.62232
2.72505
2.83938
2.96497
3.1009
3.24722
3.40477
3.57515
3.76055
3.96321
4.1847
4.42518
4.68342
4.95807
5.24404
5.52706
5.78502
5.99798
6.1509
6.23489
6.24673
6.18729
6.05944
5.86615
5.6095
5.29504
4.93371
4.5382
4.12149
3.69491
3.26802
2.85037
2.4513
2.07896
1.7395
1.43664
1.17153
0.943128
0.748684
0.584406
0.446101
0.329397
0.229863
0.143279
0.0657921
-0.00583801
-0.0738983
-0.13937
-0.201688
-0.25861
-0.3068
-0.342558
-0.35966
-0.348158
-0.312735
-0.267375
-0.227823
-0.204312
-0.196346
-0.192486
-0.171387
-0.100603
0.0053566
0.0942535
0.107371
0.0175789
-0.152007
-0.339917
-0.479163
-0.529672
-0.524605
-0.497082
-0.456379
-0.408698
-0.358675
-0.308865
-0.259904
-0.211143
-0.161443
-0.109943
-0.0565979
-0.00349884
0.0448364
0.0826675
0.104487
0.106569
0.0881454
0.0518684
0.00337143
-0.0500244
-0.101128
-0.145342
-0.179799
-0.205389
-0.225583
-0.244957
-0.26747
-0.295078
-0.327137
-0.36069
-0.391409
-0.414976
-0.429159
-0.433182
-0.426951
-0.410891
-0.386185
-0.355689
-0.322615
-0.290028
-0.260439
-0.235606
-0.216548
-0.203752
-0.197034
-0.195674
-0.198347
-0.203107
-0.207549
-0.209209
-0.20613
-0.197347
-0.18335
-0.165236
-0.144382
-0.121661
-0.0967278
-0.06763
-0.0309372
0.0176186
0.083223
0.179929
0.318823
0.47878
0.627083
0.730711
0.767647
0.732783
0.636423
0.49772
0.337703
0.175241
0.0219009
-0.118599
-0.24495
-0.356329
-0.451187
-0.532497
-0.60511
-0.674588
-0.745854
-0.822115
-0.904376
-0.991663
-1.08176
-1.17212
-1.26071
-1.34629
-1.42846
-1.06932
0
1.94046
4.67879
7.77219
10.4966
12.1459
12.361
11.2615
9.31069
7.05797
4.94056
3.2118
1.94866
1.09163
0.524626
0.46419
0.436253
0.427223
0.440456
0.473077
0.51639
0.558278
0.587996
0.599239
0.59196
0.572488
0.551869
0.542654
0.555029
0.593117
0.65254
0.725323
0.798912
0.861394
0.905434
0.930518
0.942808
0.952887
0.972508
1.01169
1.072
1.15172
1.25062
1.36811
1.50252
1.65121
1.81076
1.97729
2.14693
2.31632
2.48322
2.64679
2.8077
2.96782
3.12967
3.29563
3.4673
3.64498
3.82759
4.01286
4.19792
4.37979
4.55608
4.72539
4.88705
5.0397
5.17929
5.29648
5.37007
5.36635
5.25036
5.00166
4.6264
4.15897
3.65215
3.16065
2.70554
2.27935
1.88443
1.52235
1.19217
0.891233
0.616132
0.36356
0.130943
-0.0832756
-0.27961
-0.457835
-0.617282
-0.757154
-0.876571
-0.975146
-1.05317
-1.1113
-1.14999
-1.17171
-1.18045
-1.18023
-1.17429
-1.16449
-1.15116
-1.13355
-1.11071
-1.08184
-1.04851
-1.01498
-0.987251
-0.971685
-0.973311
-0.99441
-1.03368
-1.08621
-1.14428
-1.1989
-1.24177
-1.26782
-1.27673
-1.26919
-1.24856
-1.22
-1.18918
-1.16112
-1.13949
-1.12635
-1.12239
-1.12725
-1.13992
-1.15861
-1.18153
-1.20661
-1.23169
-1.25474
-1.27415
-1.28891
-1.29857
-1.3031
-1.30271
-1.29791
-1.28971
-1.27971
-1.27098
-1.26751
-1.27309
-1.28998
-1.31766
-1.35243
-1.38804
-1.41737
-1.43463
-1.43457
-1.4196
-1.39744
-1.3777
-1.36809
-1.37155
-1.38536
-1.40244
-1.41413
-1.41318
-1.39827
-1.37157
-1.33555
-1.29266
-1.24558
-1.19704
-1.14931
-1.10404
-1.06222
-1.02422
-0.989222
-0.955369
-0.919759
-0.878569
-0.827491
-0.762479
-0.677431
-0.561117
-0.418974
-0.276958
-0.165924
-0.109489
-0.114372
-0.168176
-0.245726
-0.32066
-0.376219
-0.414779
-0.44515
-0.471657
-0.497559
-0.524591
-0.552857
-0.581489
-0.609601
-0.637468
-0.666837
-0.700189
-0.739395
-0.784518
-0.833373
-0.882029
-0.926011
-0.961999
-0.989762
-1.00949
-1.02177
-0.822994
0
1.61455
3.99698
6.73559
9.14227
10.5642
10.6873
9.63339
7.83172
5.8005
3.97282
2.60086
1.72192
1.19668
0.877062
0.736867
0.615302
0.509378
0.423309
0.359904
0.320043
0.302792
0.307593
0.33193
0.3682
0.407307
0.441239
0.464868
0.477131
0.481113
0.482947
0.489854
0.508018
0.539766
0.584016
0.639792
0.705278
0.778811
0.8596
0.947949
1.04491
1.15153
1.26803
1.39324
1.52432
1.65779
1.79053
1.92025
2.04614
2.16925
2.2925
2.42031
2.55788
2.71033
2.8817
3.0741
3.28709
3.5176
3.76019
4.00777
4.25258
4.48679
4.70161
4.88743
5.03815
5.15044
5.22176
5.24975
5.23188
5.16539
5.04763
4.87654
4.65146
4.37738
4.06247
3.71501
3.34343
2.95699
2.56558
2.17874
1.80563
1.45437
1.13145
0.841202
0.585506
0.363897
0.173421
0.00951462
-0.132413
-0.253229
-0.353047
-0.431995
-0.487519
-0.516644
-0.518443
-0.495657
-0.45478
-0.404598
-0.353867
-0.308552
-0.269977
-0.237937
-0.211028
-0.187144
-0.164434
-0.141973
-0.120619
-0.102935
-0.091745
-0.0883347
-0.091111
-0.0953598
-0.094281
-0.0809616
-0.0505531
-0.00417023
0.0537804
0.120199
0.189365
0.25458
0.310014
0.35183
0.378781
0.39221
0.395371
0.392349
0.386811
0.381039
0.375517
0.369222
0.360384
0.347522
0.330396
0.310474
0.290745
0.274876
0.266049
0.266142
0.274639
0.288925
0.305248
0.319923
0.330319
0.335249
0.334733
0.329362
0.3197
0.306355
0.289703
0.270698
0.25132
0.23466
0.224448
0.224119
0.236862
0.264774
0.303301
0.344334
0.379725
0.404408
0.418268
0.42597
0.434901
0.452234
0.482502
0.524473
0.574861
0.63139
0.692178
0.755725
0.82102
0.887389
0.954169
1.02035
1.08431
1.14369
1.19514
1.23488
1.25978
1.26741
1.25641
1.22665
1.17919
1.11616
1.04055
0.956054
0.867184
0.778422
0.693777
0.616968
0.551114
0.49958
0.465102
0.441832
0.417068
0.375774
0.304619
0.195715
0.0488266
-0.128494
-0.322563
0
1.10394
3.14599
5.95236
8.9445
11.3302
12.4676
12.1474
10.6143
8.37833
5.99385
3.91632
2.42835
1.60007
1.30323
1.34521
1.3792
1.40936
1.43402
1.45212
1.46349
1.46886
1.46974
1.46823
1.46668
1.46746
1.47263
1.48391
1.5027
1.52997
1.56621
1.61137
1.66471
1.72475
1.78935
1.85585
1.92134
1.98302
2.03918
2.08959
2.13582
2.18113
2.22995
2.28701
2.35639
2.44059
2.53989
2.65179
2.77267
2.89864
3.02603
3.15214
3.27587
3.39808
3.52149
3.65018
3.7889
3.94217
4.11345
4.30452
4.51521
4.74326
4.9866
5.24264
5.50807
5.77843
6.04845
6.32155
6.5886
6.80252
6.88608
6.76998
6.43423
5.92277
5.32499
4.73982
4.22419
3.75088
3.29978
2.86806
2.46003
2.08036
1.73367
1.42384
1.15336
0.92274
0.730549
0.573023
0.444458
0.338021
0.246474
0.162849
0.0810509
-0.00371017
-0.0944458
-0.192064
-0.295188
-0.400183
-0.501485
-0.5917
-0.655177
-0.646593
-0.498476
-0.264508
-0.0366375
0.0919189
0.0651073
-0.109496
-0.360185
-0.57956
-0.669296
-0.589379
-0.340924
-0.0180851
0.249162
0.352666
0.26022
0.035009
-0.197784
-0.323413
-0.306088
-0.237534
-0.16681
-0.113855
-0.0904926
-0.0992317
-0.135674
-0.192901
-0.265367
-0.34883
-0.439449
-0.535333
-0.632772
-0.72584
-0.806903
-0.867882
-0.899057
-0.876134
-0.778807
-0.63369
-0.486751
-0.382748
-0.35143
-0.399845
-0.511911
-0.654141
-0.786089
-0.874016
-0.915737
-0.927052
-0.922313
-0.90987
-0.895535
-0.883847
-0.877644
-0.878098
-0.885018
-0.897167
-0.912307
-0.927832
-0.940697
-0.947821
-0.946716
-0.934864
-0.911599
-0.881184
-0.849556
-0.821947
-0.80057
-0.783424
-0.764792
-0.73721
-0.694046
-0.632566
-0.555784
-0.467682
-0.371944
-0.27278
-0.175296
-0.085836
-0.0101437
0.0469685
0.0820709
0.0934143
0.0809174
0.0458084
-0.00990372
-0.0838501
-0.171775
-0.269592
-0.373857
-0.480803
-0.586042
-0.684964
-0.773462
-0.848037
-0.905807
-0.946218
-0.973213
-0.992483
-1.01
-1.03057
-1.05679
-1.08878
-1.12435
-1.15975
-1.19046
-0.917681
0
1.65984
3.96529
6.49235
8.66232
9.99376
10.2555
9.47494
7.88099
5.84262
3.78906
2.08661
0.921794
0.282169
0.112506
0.101099
0.096418
0.0975941
0.104673
0.117617
0.136473
0.160613
0.187394
0.213137
0.233852
0.246269
0.248833
0.242352
0.230066
0.21715
0.209703
0.212683
0.229329
0.261139
0.308702
0.371991
0.445785
0.524613
0.604834
0.686126
0.77169
0.866977
0.977323
1.10537
1.24862
1.40244
1.55509
1.69328
1.80722
1.89426
1.96044
2.01925
2.08811
2.18364
2.31726
2.48684
2.68382
2.90105
3.13235
3.37137
3.61213
3.84657
4.06593
4.26281
4.4303
4.56155
4.64603
4.67818
4.65291
4.56576
4.41381
4.19731
3.92095
3.59398
3.22891
2.8414
2.44632
2.05234
1.66599
1.29369
0.941793
0.61645
0.323302
0.0669369
-0.149733
-0.325399
-0.458229
-0.546266
-0.595581
-0.624141
-0.650476
-0.689702
-0.750291
-0.832679
-0.930257
-1.03239
-1.1282
-1.2104
-1.27897
-1.33425
-1.37626
-1.40534
-1.42171
-1.42539
-1.41627
-1.39469
-1.36107
-1.31628
-1.26163
-1.19893
-1.13001
-1.05686
-0.983288
-0.915063
-0.85842
-0.81864
-0.798341
-0.796124
-0.806278
-0.819909
-0.827294
-0.82079
-0.798749
-0.761748
-0.716646
-0.67296
-0.639733
-0.622663
-0.622505
-0.635282
-0.654149
-0.672136
-0.684845
-0.692294
-0.696593
-0.701239
-0.709795
-0.724397
-0.744684
-0.767488
-0.787358
-0.797791
-0.793015
-0.770326
-0.73041
-0.67456
-0.605912
-0.532704
-0.464041
-0.407953
-0.36982
-0.351577
-0.351868
-0.367042
-0.392629
-0.424841
-0.461135
-0.501129
-0.546001
-0.597895
-0.65957
-0.735249
-0.832323
-0.954589
-1.0808
-1.17895
-1.21643
-1.1724
-1.04761
-0.866233
-0.668099
-0.493847
-0.369736
-0.279052
-0.207806
-0.148991
-0.095192
-0.0406826
0.0170296
0.0767887
0.133596
0.180216
0.209024
0.213658
0.190065
0.136861
0.0551937
-0.051495
-0.177515
-0.313966
-0.451638
-0.575719
-0.670766
-0.724093
-0.72944
-0.672628
-0.574608
-0.466703
-0.37934
-0.331445
-0.325199
-0.348136
-0.381039
-0.407576
-0.421727
-0.429896
0
0.978764
2.79535
5.38311
8.21793
10.5236
11.6322
11.2676
9.6295
7.2864
4.94219
3.15749
2.13926
1.72756
1.58968
1.45133
1.3217
1.20036
1.09094
0.996137
0.919102
0.86283
0.82411
0.79791
0.779179
0.764636
0.753926
0.749643
0.756204
0.778046
0.81794
0.873155
0.940953
1.01917
1.10547
1.19784
1.29476
1.3951
1.49768
1.60101
1.70293
1.80097
1.89309
1.9785
2.05831
2.13563
2.21528
2.30295
2.40423
2.52288
2.66035
2.81703
2.99167
3.18128
3.38146
3.58712
3.7933
3.996
4.19321
4.38531
4.575
4.76685
4.97084
5.20495
5.4679
5.72702
5.94116
6.07946
6.12996
6.09519
5.98116
5.78895
5.51503
5.1658
4.76295
4.3297
3.88594
3.44688
3.02127
2.61479
2.23507
1.88897
1.58489
1.3404
1.17586
1.08042
1.0265
0.982885
0.924287
0.838554
0.728249
0.606403
0.489064
0.388693
0.305658
0.23656
0.182051
0.142659
0.118845
0.115118
0.135151
0.169702
0.202379
0.215873
0.198956
0.151846
0.0869877
0.0245552
-0.0153854
-0.0204266
0.00142441
0.0391346
0.0877804
0.142576
0.200245
0.259764
0.322301
0.39088
0.470954
0.567772
0.679422
0.789841
0.875631
0.914825
0.894238
0.814641
0.692393
0.556392
0.440222
0.371574
0.352334
0.365091
0.3963
0.438753
0.485051
0.528255
0.5627
0.584566
0.591993
0.584895
0.564598
0.533404
0.494198
0.450114
0.404262
0.359463
0.317887
0.281176
0.250438
0.225731
0.20631
0.191127
0.179323
0.170595
0.165305
0.164233
0.168068
0.177537
0.191693
0.207584
0.221739
0.231587
0.236664
0.238988
0.242388
0.251049
0.267976
0.293468
0.326834
0.366765
0.412598
0.465257
0.527387
0.602626
0.694711
0.810156
0.953772
1.12058
1.28712
1.42412
1.50598
1.51433
1.44145
1.29317
1.0891
0.858741
0.634309
0.438844
0.275058
0.136969
0.0197523
-0.0782394
-0.1569
-0.217843
-0.266548
-0.309185
-0.351472
-0.397588
-0.44952
-0.507084
-0.568593
-0.631861
-0.694992
0
1.30823
3.22632
5.57628
8.00771
10.0117
11.0261
10.6755
9.03255
6.66719
4.3705
2.72039
1.82226
1.40238
1.13242
1.01468
0.916991
0.851847
0.859444
0.958172
1.09729
1.20525
1.21721
1.1011
0.872018
0.589089
0.335401
0.187364
0.147335
0.161791
0.215575
0.295765
0.388485
0.482215
0.570834
0.653859
0.732726
0.81054
0.890765
0.976013
1.06712
1.16361
1.26399
1.3663
1.46888
1.57091
1.67283
1.77633
1.88401
1.99878
2.12319
2.25889
2.40632
2.56503
2.73378
2.91135
3.09708
3.29108
3.49393
3.70584
3.9285
4.15785
4.37808
4.56859
4.70979
4.78886
4.80258
4.75647
4.66072
4.52513
4.35592
4.15893
3.93698
3.69116
3.42158
3.12859
2.81432
2.48286
2.13986
1.79191
1.44586
1.10818
0.784555
0.479729
0.197487
-0.0593057
-0.288678
-0.489081
-0.658863
-0.798354
-0.909845
-0.996085
-1.05961
-1.10215
-1.12442
-1.12468
-1.09552
-1.02606
-0.909368
-0.765259
-0.635328
-0.561228
-0.57282
-0.677493
-0.853735
-1.05473
-1.22386
-1.31603
-1.33353
-1.3109
-1.26695
-1.20899
-1.1414
-1.06744
-0.988925
-0.906193
-0.81849
-0.724615
-0.623421
-0.513648
-0.396122
-0.278908
-0.175335
-0.099414
-0.0619384
-0.0674813
-0.113209
-0.18969
-0.283176
-0.378508
-0.463125
-0.531271
-0.580869
-0.611389
-0.623583
-0.618674
-0.598651
-0.565998
-0.523547
-0.477165
-0.437893
-0.416969
-0.42244
-0.455587
-0.508876
-0.567158
-0.612401
-0.630158
-0.614766
-0.57864
-0.531737
-0.480762
-0.43194
-0.389942
-0.357529
-0.335751
-0.324617
-0.32252
-0.326935
-0.334388
-0.340384
-0.339587
-0.326452
-0.296304
-0.246616
-0.177715
-0.0906315
0.00467825
0.0962245
0.17354
0.23101
0.269884
0.298387
0.33002
0.39427
0.627866
1.03671
1.48552
1.79604
1.84044
1.61666
1.24938
0.909459
0.711102
0.66422
0.656255
0.656901
0.659962
0.662629
0.66352
0.662404
0.659716
0.65597
0.651221
0.644624
0.634
0.61543
0.58433
0.536035
0.466917
0.375565
0.263479
0.135689
0
-0.0878476
0.583375
2.28353
4.9532
8.07153
10.8386
12.5418
12.8488
11.8565
9.94579
7.60929
5.34012
3.54618
2.44665
2.00482
1.97821
1.92804
1.87686
1.82632
1.77835
1.73542
1.70003
1.67412
1.6587
1.65386
1.65919
1.6744
1.69989
1.73649
1.78624
1.85162
1.93972
2.06681
2.24117
2.43071
2.59132
2.68279
2.6857
2.61149
2.50079
2.40872
2.38245
2.43613
2.53267
2.64578
2.76433
2.88043
2.99055
3.09617
3.20293
3.31886
3.45214
3.6076
3.78594
3.98649
4.20681
4.44242
4.68723
4.9342
5.17607
5.40607
5.61863
5.80998
5.97834
6.12379
6.24756
6.3497
6.42652
6.47089
6.4754
6.4288
6.31939
6.13934
5.88842
5.57563
5.21793
4.83655
4.45237
4.0775
3.71813
3.37843
3.06003
2.76282
2.48575
2.22759
1.98723
1.76375
1.55638
1.36414
1.18589
1.02047
0.866903
0.724698
0.593916
0.475105
0.369144
0.276717
0.197973
0.132434
0.0790466
0.0364204
0.003162
-0.0217623
-0.0387367
-0.0473322
-0.0459917
-0.0328133
-0.0057375
0.0368544
0.0954929
0.169109
0.255408
0.349834
0.445416
0.533488
0.604842
0.651307
0.666976
0.648722
0.596802
0.515268
0.411996
0.298157
0.18705
0.0924297
0.0464838
0.129108
0.353774
0.626082
0.831196
0.877336
0.736728
0.465179
0.179485
-0.00298233
-0.0284447
0.0184706
0.0808895
0.143869
0.198989
0.240549
0.265874
0.275029
0.270094
0.254284
0.231272
0.204564
0.176898
0.150396
0.126713
0.107024
0.0919453
0.0815325
0.0751789
0.0712534
0.06735
0.0608479
0.0494509
0.0316813
0.00717449
-0.0233044
-0.0580902
-0.0949713
-0.131497
-0.165281
-0.193899
-0.214085
-0.222035
-0.214083
-0.186918
-0.138413
-0.0684853
0.0203272
0.122838
0.231824
0.339166
0.4373
0.520318
0.58474
0.629651
0.656251
0.667013
0.664727
0.652164
0.631001
0.601789
0.564389
0.518503
0.464166
0.402167
0.334315
0.263499
0.193522
0.12869
0.0733191
0.0311531
0.00527153
0
0.0259535
0.067017
0.103408
0.112876
0.0766802
-0.0152361
-0.161699
-0.350917
-0.563382
-0.214125
0.984288
3.16854
6.08901
9.06064
11.2225
11.9638
11.2115
9.39176
7.15042
5.06252
3.47597
2.48686
1.98855
1.77539
1.63339
1.49345
1.35575
1.22212
1.09563
0.979921
0.878775
0.795713
0.7335
0.693787
0.676959
0.682181
0.707525
0.750142
0.80655
0.87415
0.948283
1.02502
1.10212
1.17956
1.25922
1.34376
1.43502
1.53364
1.63545
1.734
1.82345
1.90175
1.97231
2.04343
2.12566
2.22821
2.35357
2.49723
2.65496
2.82301
2.99781
3.17686
3.35951
3.54713
3.74259
3.94921
4.16946
4.40385
4.65007
4.90323
5.15509
5.39404
5.60832
5.78765
5.92427
6.01306
6.051
6.03624
5.96729
5.84285
5.66252
5.42985
5.15062
4.83222
4.48349
4.11419
3.73415
3.3522
2.97558
2.60992
2.25949
1.92783
1.61838
1.33486
1.08124
0.861327
0.680132
0.545094
0.460136
0.41749
0.400872
0.392666
0.378112
0.348715
0.303864
0.250204
0.199004
0.162356
0.147841
0.159245
0.20051
0.258501
0.312217
0.341564
0.334353
0.290709
0.223171
0.152383
0.100153
0.082873
0.0974339
0.134809
0.191426
0.264528
0.351226
0.449615
0.554357
0.653933
0.735735
0.788719
0.806779
0.791225
0.750934
0.699868
0.652889
0.621471
0.605651
0.601956
0.608457
0.621333
0.636093
0.648529
0.65554
0.655683
0.649372
0.638692
0.626874
0.61752
0.613626
0.61672
0.62709
0.643701
0.661876
0.675272
0.67809
0.667012
0.642481
0.608767
0.572684
0.541318
0.519605
0.510629
0.510232
0.511118
0.506765
0.494999
0.479467
0.468277
0.470526
0.492519
0.533091
0.586286
0.648563
0.716104
0.785614
0.854906
0.922528
0.987337
1.04811
1.10336
1.15138
1.19056
1.21961
1.23766
1.24428
1.23926
1.22257
1.19487
1.15645
1.10805
1.05121
0.988368
0.922883
0.858717
0.799878
0.750282
0.714591
0.694926
0.688601
0.690347
0.693487
0.691188
0.677343
0.646943
0.596123
0.522224
0.426651
0.309359
0.173178
0.0232309
-0.133433
0
0.827244
2.60057
5.25516
8.26936
10.8461
12.2796
12.2478
10.8784
8.63528
6.14139
3.98965
2.55682
1.88524
1.72472
1.67183
1.62098
1.57229
1.52761
1.48868
1.45688
1.43324
1.41835
1.41289
1.41737
1.43186
1.45619
1.48983
1.53178
1.58053
1.63431
1.69131
1.75
1.80921
1.8683
1.92703
1.9857
2.04527
2.10741
2.17442
2.24876
2.33231
2.42559
2.52728
2.63416
2.74254
2.84965
2.95386
3.0552
3.15537
3.25729
3.36431
3.47928
3.60392
3.7387
3.88286
4.03493
4.19327
4.35677
4.52536
4.70019
4.88564
5.10063
5.39711
5.79247
6.20352
6.52942
6.70631
6.72636
6.62006
6.42569
6.16794
5.85203
5.4829
5.08306
4.67155
4.25807
3.84698
3.44049
3.04084
2.65085
2.27384
1.91373
1.57483
1.26157
0.977989
0.727208
0.511076
0.32997
0.182848
0.0677613
-0.0183568
-0.0791259
-0.118357
-0.139237
-0.145044
-0.138746
-0.122512
-0.0976069
-0.064463
-0.0229517
0.0271712
0.0858956
0.152353
0.224416
0.298845
0.371389
0.435944
0.485519
0.514604
0.519643
0.500184
0.459713
0.405707
0.348528
0.299251
0.267018
0.254583
0.260424
0.281735
0.313648
0.350684
0.388178
0.423535
0.456039
0.48667
0.517583
0.551353
0.590163
0.63512
0.6858
0.740283
0.794703
0.843064
0.878622
0.894941
0.887015
0.852295
0.791447
0.708652
0.611287
0.508956
0.411922
0.32847
0.263213
0.218016
0.193853
0.190851
0.20421
0.226657
0.251231
0.272782
0.288795
0.299353
0.306298
0.311963
0.317955
0.324383
0.330209
0.333697
0.333136
0.327588
0.317416
0.30445
0.291745
0.283011
0.281619
0.289965
0.309363
0.339894
0.38059
0.429618
0.484567
0.542642
0.600715
0.654776
0.698592
0.724073
0.723606
0.690877
0.623034
0.522417
0.396952
0.258705
0.120846
-0.0060503
-0.119146
-0.218745
-0.310943
-0.404887
-0.50988
-0.639466
-0.800916
-0.982738
-1.16799
-1.34294
-1.50189
-1.08058
0
1.85424
4.39413
7.18673
9.60397
11.0867
11.3443
10.4132
8.60483
6.39263
4.26025
2.55254
1.40111
0.766854
0.592427
0.601571
0.606918
0.602904
0.586301
0.557401
0.519409
0.479169
0.444734
0.423483
0.420511
0.437711
0.473668
0.524255
0.583661
0.645514
0.704175
0.755443
0.797192
0.829807
0.856283
0.881885
0.913336
0.957623
1.02064
1.10412
1.20682
1.32661
1.45969
1.60086
1.74425
1.88396
2.01544
2.13645
2.24748
2.35163
2.45408
2.56109
2.67898
2.81307
2.96681
3.14082
3.33442
3.54575
3.77174
4.00942
4.25495
4.50282
4.74778
4.98425
5.20308
5.39782
5.57458
5.71368
5.7681
5.69038
5.46406
5.1141
4.69081
4.24301
3.80125
3.37118
2.95173
2.54497
2.15567
1.78887
1.44933
1.14094
0.866117
0.625416
0.417691
0.240531
0.0908697
-0.0344374
-0.138251
-0.222591
-0.288745
-0.338921
-0.376027
-0.403182
-0.423386
-0.439091
-0.451886
-0.46247
-0.470965
-0.477476
-0.482624
-0.488051
-0.496511
-0.510966
-0.533426
-0.563857
-0.599632
-0.635843
-0.666389
-0.685489
-0.689904
-0.678411
-0.651209
-0.609776
-0.556027
-0.491648
-0.418269
-0.335247
-0.242033
-0.143218
-0.0523556
0.0134436
0.0392157
0.0182875
-0.0442127
-0.132431
-0.225206
-0.303439
-0.357203
-0.392865
-0.417845
-0.435914
-0.450896
-0.465951
-0.482983
-0.502421
-0.52335
-0.543938
-0.56199
-0.575503
-0.583079
-0.58377
-0.57709
-0.562832
-0.540948
-0.511604
-0.475422
-0.433282
-0.387618
-0.342513
-0.302589
-0.271928
-0.252966
-0.24577
-0.247986
-0.255491
-0.263531
-0.268122
-0.267339
-0.260982
-0.249974
-0.237467
-0.227681
-0.223766
-0.226152
-0.231495
-0.232703
-0.220236
-0.184471
-0.118487
-0.0226089
0.09585
0.230204
0.371223
0.508633
0.63277
0.735686
0.811826
0.858103
0.873555
0.858867
0.816006
0.748249
0.659829
0.556169
0.443746
0.32965
0.220855
0.123332
0.0406635
-0.0256113
-0.0761025
-0.112438
-0.142941
-0.180073
-0.235994
-0.319326
-0.432473
-0.570435
-0.721712
-0.797164
0
1.81286
4.46886
7.4393
10.0584
11.7604
12.2126
11.352
9.40402
6.88036
4.45958
2.71751
1.85645
1.65078
1.64735
1.51468
1.39175
1.28136
1.18801
1.11638
1.0671
1.03738
1.02341
1.02165
1.02982
1.04682
1.07463
1.11266
1.15176
1.17829
1.17951
1.15056
1.09904
1.04437
1.01182
1.02382
1.08818
1.19083
1.31852
1.4644
1.62214
1.78542
1.94876
2.10756
2.25824
2.39794
2.52496
2.63948
2.7434
2.84042
2.93578
3.03565
3.1463
3.27312
3.41981
3.58739
3.77463
3.97922
4.1978
4.42642
4.661
4.89768
5.13232
5.35961
5.57088
5.752
5.8914
5.97696
5.99747
5.94498
5.81648
5.61379
5.34202
5.00822
4.62151
4.20485
3.77526
3.34286
2.91572
2.50147
2.10693
1.73768
1.3979
1.09038
0.816634
0.577051
0.37114
0.197702
0.0548001
-0.0601327
-0.149814
-0.216802
-0.263295
-0.291145
-0.30136
-0.291701
-0.261578
-0.221401
-0.184617
-0.163646
-0.16506
-0.186131
-0.21472
-0.233099
-0.224454
-0.179549
-0.108456
-0.0207988
0.0716336
0.156253
0.22283
0.265781
0.284962
0.284901
0.272905
0.256801
0.242737
0.233568
0.230269
0.232731
0.239203
0.245372
0.246227
0.237716
0.21795
0.18781
0.150663
0.111258
0.0742418
0.0429187
0.0177628
-0.00146637
-0.0151581
-0.0237516
-0.0275343
-0.0267646
-0.0219601
-0.0140731
-0.00488539
0.00370378
0.0104705
0.0156315
0.0212248
0.0308939
0.0490959
0.0799639
0.124927
0.186537
0.266043
0.35752
0.445113
0.510951
0.540613
0.527713
0.476433
0.400894
0.321282
0.258049
0.226353
0.225
0.245615
0.282853
0.333431
0.394096
0.461755
0.533725
0.607761
0.681933
0.754441
0.823433
0.887106
0.943777
0.992045
1.03091
1.05977
1.07797
1.08459
1.07918
1.06107
1.02943
0.983553
0.92311
0.848499
0.761076
0.663331
0.559133
0.453075
0.350438
0.256665
0.176367
0.112452
0.0655172
0.0337532
0.0134516
0
-0.0125778
-0.0256424
-0.0403284
-0.0564783
0.414884
1.62931
3.7109
6.52015
9.54881
12.0112
13.1739
12.7385
10.9909
8.60169
6.24858
4.3408
2.98401
2.1039
1.57364
1.46175
1.378
1.30631
1.24907
1.20706
1.17961
1.16499
1.15985
1.15984
1.16134
1.16226
1.16235
1.16308
1.16702
1.17684
1.19447
1.22019
1.25383
1.29415
1.34029
1.39276
1.45393
1.52765
1.61806
1.72791
1.85704
2.00267
2.15744
2.30753
2.43927
2.54322
2.6171
2.66662
2.70375
2.74332
2.79874
2.87852
2.98101
3.10241
3.23947
3.38895
3.54892
3.71911
3.90035
4.09328
4.29698
4.50805
4.72042
4.92714
5.11933
5.28657
5.41941
5.51151
5.55805
5.55533
5.50041
5.39099
5.22555
5.00379
4.72712
4.40065
4.03483
3.64123
3.23027
2.81191
2.39669
1.99514
1.6171
1.27093
0.962958
0.697159
0.475057
0.295895
0.156983
0.0541073
-0.0180023
-0.0650295
-0.0922897
-0.10523
-0.11016
-0.112163
-0.114565
-0.118583
-0.12332
-0.12619
-0.123758
-0.112797
-0.0913246
-0.0600613
-0.0204487
0.0245674
0.0711365
0.115631
0.155532
0.190027
0.22016
0.248539
0.278711
0.314353
0.358323
0.412254
0.477275
0.554053
0.639949
0.72346
0.789272
0.822987
0.81579
0.768113
0.690297
0.599418
0.513359
0.444881
0.393486
0.353817
0.323782
0.301922
0.287923
0.283055
0.289983
0.311997
0.351926
0.413185
0.501015
0.612168
0.728922
0.830123
0.896548
0.915467
0.883304
0.805988
0.69725
0.575501
0.459933
0.362957
0.288143
0.234676
0.200858
0.185804
0.187653
0.20444
0.234551
0.276773
0.329936
0.393053
0.464104
0.538121
0.609449
0.673301
0.727287
0.772183
0.811557
0.85037
0.893147
0.941884
0.995833
1.05315
1.11086
1.16521
1.21161
1.24462
1.26008
1.25492
1.22774
1.17945
1.11356
1.03605
0.954539
0.876896
0.809626
0.755074
0.714092
0.684854
0.662131
0.637316
0.601639
0.548144
0.473157
0.375761
0.260061
0.132529
0
-0.130205
0.656784
2.25651
4.67141
7.52617
10.1109
11.6928
11.8866
10.8151
8.97784
6.97544
5.27414
4.08759
3.36348
2.86976
2.46259
2.2348
2.04087
1.87963
1.75508
1.66777
1.61567
1.59267
1.59137
1.60505
1.62878
1.65978
1.69696
1.74012
1.78899
1.84275
1.89972
1.95816
2.01639
2.07312
2.12754
2.17911
2.22738
2.27191
2.31245
2.34921
2.38339
2.4174
2.45497
2.50088
2.5604
2.63765
2.73564
2.85674
3.00167
3.16918
3.35613
3.55786
3.76897
3.984
4.19834
4.40896
4.61467
4.81592
5.0139
5.20982
5.40342
5.58827
5.75103
5.87547
5.94821
5.96294
5.92137
5.83074
5.69974
5.53456
5.33985
5.12104
4.88112
4.62082
4.34035
4.04097
3.72518
3.39684
3.0616
2.72654
2.3996
2.08873
1.80098
1.54173
1.31414
1.11901
0.95493
0.818818
0.706522
0.613474
0.535216
0.467769
0.407833
0.352828
0.300971
0.251318
0.203804
0.159324
0.119645
0.0869225
0.0633764
0.0508244
0.0503204
0.061993
0.0850895
0.118155
0.159248
0.205971
0.255797
0.30638
0.355461
0.401056
0.441605
0.476024
0.503587
0.523665
0.535318
0.536926
0.526609
0.502307
0.462393
0.406063
0.331277
0.239758
0.145598
0.0698055
0.0324516
0.0462439
0.111883
0.217165
0.34047
0.45735
0.547589
0.608175
0.645847
0.661417
0.657581
0.638066
0.60728
0.569118
0.526524
0.481624
0.435844
0.390117
0.345115
0.301555
0.260481
0.223309
0.191756
0.167593
0.152358
0.147147
0.15255
0.168708
0.1954
0.231943
0.277004
0.329626
0.38815
0.449133
0.509024
0.565048
0.615977
0.662374
0.706157
0.74958
0.794051
0.83925
0.882967
0.921507
0.95058
0.96634
0.966308
0.949989
0.919084
0.877307
0.830016
0.782412
0.738868
0.702135
0.672798
0.645776
0.61204
0.562308
0.490815
0.397101
0.289357
0.182124
0.0912085
0.0287392
0
-0.00923405
0.00659943
0.0388796
0.0794825
0.137011
0.679556
1.93007
3.97466
6.57435
9.13223
10.9171
11.4271
10.6223
8.86114
6.65321
4.44976
2.57778
1.24158
0.496986
0.249854
0.334292
0.42066
0.505939
0.583772
0.645359
0.681832
0.687766
0.6642
0.619675
0.56853
0.526839
0.507569
0.514027
0.540212
0.579626
0.627658
0.680822
0.736568
0.793669
0.852304
0.913672
0.97933
1.05045
1.1272
1.20859
1.29241
1.37558
1.45519
1.52926
1.59738
1.6608
1.72225
1.78546
1.85461
1.93379
2.02652
2.13635
2.26634
2.41872
2.59456
2.79334
3.01275
3.24853
3.49519
3.74645
3.99514
4.2311
4.43983
4.61
4.73355
4.80425
4.81836
4.77528
4.6776
4.53035
4.33969
4.11151
3.85504
3.57736
3.28235
2.97263
2.65067
2.31885
1.98055
1.64055
1.30495
0.980767
0.675268
0.395252
0.146804
-0.0664593
-0.243478
-0.385559
-0.496019
-0.579578
-0.641642
-0.687596
-0.722219
-0.749293
-0.771494
-0.790192
-0.805642
-0.817177
-0.823394
-0.822428
-0.81232
-0.791452
-0.758994
-0.715244
-0.661744
-0.601132
-0.536655
-0.471539
-0.408496
-0.349359
-0.294966
-0.245314
-0.199849
-0.157777
-0.118331
-0.0808704
-0.0448586
-0.0096859
0.0255753
0.0622032
0.101777
0.14594
0.196018
0.252612
0.315316
0.382737
0.452697
0.522771
0.590784
0.655066
0.714018
0.763835
0.798729
0.812214
0.797035
0.749127
0.671531
0.575695
0.478681
0.397246
0.341616
0.306513
0.285331
0.270987
0.256592
0.237688
0.213506
0.186997
0.163869
0.151038
0.153652
0.173717
0.212106
0.268098
0.341207
0.42584
0.512769
0.592786
0.658759
0.707001
0.737489
0.752921
0.757101
0.753375
0.744379
0.731071
0.713719
0.692804
0.669577
0.646315
0.626236
0.613168
0.610401
0.620744
0.647219
0.694242
0.770316
0.89007
1.06065
1.25488
1.42897
1.53924
1.55277
1.45472
1.25102
0.969091
0.657969
0.382483
0.185749
0.06092
0
-0.000487518
0.0326149
0.0565567
0.0314438
-0.0690926
-0.251218
-0.499638
-0.781963
-0.945187
-0.249421
1.45358
4.05513
7.14652
10.0912
12.1676
12.8008
11.8153
9.55332
6.73988
4.15925
2.34248
1.42939
1.22144
1.32066
1.15737
0.99847
0.85238
0.728428
0.635184
0.578131
0.557883
0.569939
0.606097
0.656915
0.713775
0.771524
0.828259
0.883653
0.938129
0.992245
1.04631
1.10014
1.15298
1.20359
1.25052
1.2924
1.32856
1.35963
1.38768
1.41626
1.45018
1.49482
1.55536
1.63584
1.73832
1.86212
2.00394
2.15983
2.3257
2.4976
2.67229
2.84748
3.02166
3.19374
3.36245
3.52558
3.67892
3.81808
3.93929
4.04072
4.12371
4.19332
4.25768
4.32826
4.42746
4.57026
4.73611
4.88119
4.96064
4.9403
4.80054
4.53839
4.17078
3.73511
3.28172
2.85477
2.4642
2.1009
1.76133
1.44696
1.15812
0.894247
0.654264
0.436495
0.239033
0.0601837
-0.100129
-0.240354
-0.359618
-0.456429
-0.529568
-0.579058
-0.606848
-0.616914
-0.614716
-0.606178
-0.596538
-0.589198
-0.585807
-0.586467
-0.590226
-0.595764
-0.602023
-0.608668
-0.616143
-0.625416
-0.637448
-0.652559
-0.669894
-0.687162
-0.700774
-0.706383
-0.699731
-0.67801
-0.639515
-0.582829
-0.51078
-0.433187
-0.363211
-0.313124
-0.291409
-0.300916
-0.338487
-0.395965
-0.462166
-0.525256
-0.576197
-0.611724
-0.629816
-0.62716
-0.607465
-0.581861
-0.563187
-0.562309
-0.584861
-0.629601
-0.68904
-0.75221
-0.808464
-0.85155
-0.882034
-0.902765
-0.91591
-0.923836
-0.928308
-0.930137
-0.929291
-0.925361
-0.918081
-0.907849
-0.895454
-0.881899
-0.868169
-0.85494
-0.84238
-0.830101
-0.81721
-0.802416
-0.784193
-0.760775
-0.730291
-0.690932
-0.641216
-0.580324
-0.508452
-0.427098
-0.338874
-0.247867
-0.160362
-0.0830193
-0.0214485
0.0208588
0.043129
0.0473061
0.0374771
0.0189568
-0.00271912
-0.0227905
-0.0383652
-0.047509
-0.0495148
-0.0447517
-0.0347649
-0.0220268
-0.00943985
8.39233e-005
0.0039444
0
0.00486069
-0.00119247
-0.0198112
-0.0613861
-0.172572
-0.460701
-0.879185
-1.33341
-1.75354
-1.54478
-0.420985
1.751
4.72803
7.84337
10.251
11.3182
10.9015
9.34061
7.23033
5.15506
3.50934
2.42937
1.82042
1.47106
1.251
1.02967
0.80817
0.587551
0.373499
0.181959
0.0364433
-0.0376213
-0.0228996
0.0809677
0.254053
0.460455
0.658709
0.814094
0.908739
0.944106
0.938467
0.919021
0.91209
0.934956
0.983605
1.04881
1.12608
1.21181
1.30347
1.40025
1.50312
1.61422
1.73591
1.86979
2.01595
2.1723
2.3362
2.50492
2.67581
2.84685
3.01679
3.18526
3.35249
3.5191
3.68574
3.85295
4.02096
4.18969
4.35879
4.52757
4.69497
4.8591
5.01674
5.16357
5.29409
5.40078
5.47407
5.50469
5.48354
5.4028
5.25734
5.0461
4.773
4.44711
4.08168
3.69354
3.29936
2.91045
2.53592
2.18325
1.858
1.56358
1.30151
1.07168
0.871033
0.69505
0.538664
0.397266
0.267558
0.148009
0.0387825
-0.0587372
-0.142588
-0.2114
-0.264682
-0.30292
-0.327341
-0.339533
-0.341063
-0.333239
-0.317023
-0.293281
-0.26222
-0.223729
-0.177335
-0.122302
-0.057914
0.0175873
0.106823
0.205597
0.29749
0.361543
0.379864
0.346069
0.270235
0.177129
0.0977184
0.0574875
0.0601921
0.0946541
0.150282
0.212829
0.26844
0.30695
0.323642
0.31926
0.298615
0.268423
0.235141
0.203239
0.174397
0.148504
0.125031
0.103491
0.0836163
0.0654617
0.0493023
0.0353691
0.0235626
0.013134
0.00261192
-0.00954018
-0.0240311
-0.0398335
-0.0536438
-0.0600193
-0.0462093
0.0234379
0.154545
0.312734
0.443055
0.498579
0.465991
0.371967
0.268203
0.206001
0.214626
0.264054
0.332338
0.411134
0.494682
0.578347
0.659257
0.736467
0.810677
0.883585
0.95707
1.03243
1.10981
1.18754
1.26165
1.32653
1.37626
1.40583
1.41216
1.39461
1.35489
1.2965
1.22392
1.14196
1.05582
0.969289
0.885053
0.804956
0.729689
0.658585
0.589321
0.518316
0.441022
0.34993
0.243237
0.124066
0
-0.031671
0.700006
2.25851
4.54713
7.24815
9.85181
11.7451
12.42
11.7252
9.96851
7.7514
5.64583
3.96948
2.79383
2.08588
1.80696
1.91972
2.02348
2.11862
2.20136
2.26948
2.32292
2.36389
2.39663
2.42659
2.45935
2.49946
2.54903
2.60767
2.67485
2.74821
2.82279
2.89364
2.95728
3.01308
3.06388
3.11577
3.1769
3.25552
3.35779
3.49679
3.67706
3.87272
4.05038
4.18203
4.25631
4.28372
4.29286
4.31848
4.38644
4.50122
4.64065
4.79242
4.94791
5.10465
5.26714
5.44433
5.64522
5.87477
6.12701
6.39398
6.67123
6.95557
7.2456
7.5429
7.85216
8.15036
8.38124
8.48462
8.43596
8.26236
8.0223
7.76386
7.49286
7.19411
6.87474
6.54127
6.19811
5.85137
5.50936
5.18125
4.87564
4.59859
4.35301
4.13871
3.95315
3.79266
3.65353
3.53291
3.42905
3.34109
3.26898
3.21274
3.17224
3.14717
3.13704
3.14125
3.15895
3.19021
3.23562
3.29047
3.34538
20
225
432
639
840
1048
1254
1457
1662
1868
2070
2268
2469
2668
2866
3062
3262
3460
3655
3678
3624
3512
3699
3512
3660
3631
0
0
0
0
0
0
0
0
0
0
0
0
0
0
0
0
0
0
0
0
0
0
0
0
0
0
0
0
0
0
0
0
0
0
0
0
0
0
0
0
0
0
0
0
0
0
0
0
0
0
0
0
0
0
0
0
0
0
0
0
0
0
0
0
0
0
0
0
0
0
0
0
0
0
0
0
0
0
0
0
0
0
0
0
0
0
0
0
0
0
0
0
0
0
0
0
0
0
0
0
0
0
0
0
0
0
0
0
0
0
0
0
0
0
0
0
0
0
0
0
0
0
0
0
0
0
0
0
0
0
0
0
0
0
0
0
0
0
0
0
0
0
0
0
0
0
0
0
0
0
0
0
0
0
0
0
0
0
0
0
0
0
0
0
0
0
0
0
0
0
0
0
0
0
0
0
0
0
0
0
0
0
0
0
0
0
0
0
0
0
0
0
0
0
0
0
0
0
0
0
0
0
0
0
0
0
0
0
0
0
0
0
0
0
0
0
0
0
0
0
0
0
0
0
0
0
0
0
0
0
0
0
0
0
0
0
0
0
0
0
0
0
0
0
0
0
0
0
0
0
0
0
0
0
0
0
0
0
0
0
0
0
0
0
0
0
0
0
0
0
0
0
0
0
0
0
0
0
0
0
0
0
0
0
0
0
0
0
0
0
0
0
0
0
0
0
0
0
0
0
0
0
0
0
0
0
0
0
0
0
0
0
0
0
0
0
0
0
0
0
0
0
0
0
0
0
0
0
0
0
0
0
0
0
0
0
0
0
0
0
0
0
0
0
0
0
0
0
0
0
0
0
0
0
0
0
0
0
0
0
0
0
0
0
0
0
0
0
0
0
0
0
0
0
0
0
0
0
0
0
0
0
0
0
0
0
0
0
0
0
0
0
0
0
0
0
0
0
0
0
0
0
0
0
0
0
0
0
0
0
0
0
0
0
0
0
0
0
0
0
0
0
0
0
0
0
0
0
0
0
0
0
0
0
0
0
0
0
0
0
0
0
0
0
0
0
0
0
0
0
0
0
0
0
0
0
0
0
0
0
0
0
0
0
0
0
0
0
0
0
0
0
0
0
0
0
0
0
0
0
0
0
0
0
0
0
0
0
0
0
0
0
0
0
0
0
0
0
0
0
0
0
0
0
0
0
0
0
0
0
0
0
0
0
0
0
0
0
0
0
0
0
0
0
0
0
0
0
0
0
0
0
0
0
0
0
0
0
0
0
0
0
0
0
0
0
0
0
0
0
0
0
0
0
0
0
0
0
0
0
0
0
0
0
0
0
0
0
0
0
0
0
0
0
0
0
0
0
0
0
0
0
0
0
0
0
0
0
0
0
0
0
0
0
0
0
0
0
0
0
0
0
0
0
0
0
0
0
0
0
0
0
0
0
0
0
0
0
0
0
0
0
0
0
0
0
0
0
0
0
0
0
0
0
0
0
0
0
0
0
0
0
0
0
0
0
0
0
0
0
0
0
0
0
0
0
0
0
0
0
0
0
0
0
0
0
0
0
0
0
0
0
0
0
0
0
0
0
0
0
0
0
0
0
0
0
0
0
0
0
0
0
0
0
0
0
0
0
0
0
0
0
0
0
0
0
0
0
0
0
0
0
0
0
0
0
0
0
0
0
0
0
0
0
0
0
0
0
0
0
0
0
0
0
0
0
0
0
0
0
0
0
0
0
0
0
0
0
0
0
0
0
0
0
0
0
0
0
0
0
0
0
0
0
0
0
0
0
0
0
0
0
0
0
0
0
0
0
0
0
0
0
0
0
0
0
0
0
0
0
0
0
0
0
0
0
0
0
0
0
0
0
0
0
0
0
0
0
0
0
0
0
0
0
0
0
0
0
0
0
0
0
0
0
0
0
0
0
0
0
0
0
0
0
0
0
0
0
0
0
0
0
0
0
0
0
0
0
0
0
0
0
0
0
0
0
0
0
0
0
0
0
0
0
0
0
0
0
0
0
0
0
0
0
0
0
0
0
0
0
0
0
0
0
0
0
0
0
0
0
0
0
0
0
0
0
0
0
0
0
0
0
0
0
0
0
0
0
0
0
0
0
0
0
0
0
0
0
0
0
0
0
0
0
0
0
0
0
0
0
0
0
0
0
0
0
0
0
0
0
0
0
0
0
0
0
0
0
0
0
0
0
0
0
0
0
0
0
0
0
0
0
0
0
0
0
0
0
0
0
0
0
0
0
0
0
0
0
0
0
0
0
0
0
0
0
0
0
0
0
0
0
0
0
0
0
0
0
0
0
0
0
0
0
0
0
0
0
0
0
0
0
0
0
0
0
0
0
0
0
0
0
0
0
0
0
0
0
0
0
0
0
0
0
0
0
0
0
0
0
0
0
0
0
0
0
0
0
0
0
0
0
0
0
0
0
0
0
0
0
0
0
0
0
0
0
0
0
0
0
0
0
0
0
0
0
0
0
0
0
0
0
0
0
0
0
0
0
0
0
0
0
0
0
0
0
0
0
0
0
0
0
0
0
0
0
0
0
0
0
0
0
0
0
0
0
0
0
0
0
0
0
0
0
0
0
0
0
0
0
0
0
0
0
0
0
0
0
0
0
0
0
0
0
0
0
0
0
0
0
0
0
0
0
0
0
0
0
0
0
0
0
0
0
0
0
0
0
0
0
0
0
0
0
0
0
0
0
0
0
0
0
0
0
0
0
0
0
0
0
0
0
0
0
0
0
0
0
0
0
0
0
0
0
0
0
0
0
0
0
0
0
0
0
0
0
0
0
0
0
0
0
0
0
0
0
0
0
0
0
0
0
0
0
0
0
0
0
0
0
0
0
0
0
0
0
0
0
0
0
0
0
0
0
0
0
0
0
0
0
0
0
0
0
0
0
0
0
0
0
0
0
0
0
0
0
0
0
0
0
0
0
0
0
0
0
0
0
0
0
0
0
0
0
0
0
0
0
0
0
0
0
0
0
0
0
0
0
0
0
0
0
0
0
0
0
0
0
0
0
0
0
0
0
0
0
0
0
0
0
0
0
0
0
0
0
0
0
0
0
0
0
0
0
0
0
0
0
0
0
0
0
0
0
0
0
0
0
0
0
0
0
0
0
0
0
0
0
0
0
0
0
0
0
0
0
0
0
0
0
0
0
0
0
0
0
0
0
0
0
0
0
0
0
0
0
0
0
0
0
0
0
0
0
0
0
0
0
0
0
0
0
0
0
0
0
0
0
0
0
0
0
0
0
0
0
0
0
0
0
0
0
0
0
0
0
0
0
0
0
0
0
0
0
0
0
0
0
0
0
0
0
0
0
0
0
0
0
0
0
0
0
0
0
0
0
0
0
0
0
0
0
0
0
0
0
0
0
0
0
0
0
0
0
0
0
0
0
0
0
0
0
0
0
0
0
0
0
0
0
0
0
0
0
0
0
0
0
0
0
0
0
0
0
0
0
0
0
0
0
0
0
0
0
0
0
0
0
0
0
0
0
0
0
0
0
0
0
0
0
0
0
0
0
0
0
0
0
0
0
0
0
0
0
0
0
0
0
0
0
0
0
0
0
0
0
0
0
0
0
0
0
0
0
0
0
0
0
0
0
0
0
0
0
0
0
0
0
0
0
0
0
0
0
0
0
0
0
0
0
0
0
0
0
0
0
0
0
0
0
0
0
0
0
0
0
0
0
0
0
0
0
0
0
0
0
0
0
0
0
0
0
0
0
0
0
0
0
0
0
0
0
0
0
0
0
0
0
0
0
0
0
0
0
0
0
0
0
0
0
0
0
0
0
0
0
0
0
0
0
0
0
0
0
0
0
0
0
0
0
0
0
0
0
0
0
0
0
0
0
0
0
0
0
0
0
0
0
0
0
0
0
0
0
0
0
0
0
0
0
0
0
0
0
0
0
0
0
0
0
0
0
0
0
0
0
0
0
0
0
0
0
0
0
0
0
0
0
0
0
0
0
0
0
0
0
0
0
0
0
0
0
0
0
0
0
0
0
0
0
0
0
0
0
0
0
0
0
0
0
0
0
0
0
0
0
0
0
0
0
0
0
0
0
0
0
0
0
0
0
0
0
0
0
0
0
0
0
0
0
0
0
0
0
0
0
0
0
0
0
0
0
0
0
0
0
0
0
0
0
0
0
0
0
0
0
0
0
0
0
0
0
0
0
0
0
0
0
0
0
0
0
0
0
0
0
0
0
0
0
0
0
0
0
0
0
0
0
0
0
0
0
0
0
0
0
0
0
0
0
0
0
0
0
0
0
0
0
0
0
0
0
0
0
0
0
0
0
0
0
0
0
0
0
0
0
0
0
0
0
0
0
0
0
0
0
0
0
0
0
0
0
0
0
0
0
0
0
0
0
0
0
0
0
0
0
0
0
0
0
0
0
0
0
0
0
0
0
0
0
0
0
0
0
0
0
0
0
0
0
0
0
0
0
0
0
0
0
0
0
0
0
0
0
0
0
0
0
0
0
0
0
0
0
0
0
0
0
0
0
0
0
0
0
0
0
0
0
0
0
0
0
0
0
0
0
0
0
0
0
0
0
0
0
0
0
0
0
0
0
0
0
0
0
0
0
0
0
0
0
0
0
0
0
0
0
0
0
0
0
0
0
0
0
0
0
0
0
0
0
0
0
0
0
0
0
0
0
0
0
0
0
0
0
0
0
0
0
0
0
0
0
0
0
0
0
0
0
0
0
0
0
0
0
0
0
0
0
0
0
0
0
0
0
0
0
0
0
0
0
0
0
0
0
0
0
0
0
0
0
0
0
0
0
0
0
0
0
0
0
0
0
0
0
0
0
0
0
0
0
0
0
0
0
0
0
0
0
0
0
0
0
0
0
0
0
0
0
0
0
0
0
0
0
0
0
0
0
0
0
0
0
0
0
0
0
0
0
0
0
0
0
0
0
0
0
0
0
0
0
0
0
0
0
0
0
0
0
0
0
0
0
0
0
0
0
0
0
0
0
0
0
0
0
0
0
0
0
0
0
0
0
0
0
0
0
0
0
0
0
0
0
0
0
0
0
0
0
0
0
0
0
0
0
0
0
0
0
0
0
0
0
0
0
0
0
0
0
0
0
0
0
0
0
0
0
0
0
0
0
0
0
0
0
0
0
0
0
0
0
0
0
0
0
0
0
0
0
0
0
0
0
0
0
0
0
0
0
0
0
0
0
0
0
0
0
0
0
0
0
0
0
0
0
0
0
0
0
0
0
0
0
0
0
0
0
0
0
0
0
0
0
0
0
0
0
0
0
0
0
0
0
0
0
0
0
0
0
0
0
0
0
0
0
0
0
0
0
0
0
0
0
0
0
0
0
0
0
0
0
0
0
0
0
0
0
0
0
0
0
0
0
0
0
0
0
0
0
0
0
0
0
0
0
0
0
0
0
0
0
0
0
0
0
0
0
0
0
0
0
0
0
0
0
0
0
0
0
0
0
0
0
0
0
0
0
0
0
0
0
0
0
0
0
0
0
0
0
0
0
0
0
0
0
0
0
0
0
0
0
0
0
0
0
0
0
0
0
0
0
0
0
0
0
0
0
0
0
0
0
0
0
0
0
0
0
0
0
0
0
0
0
0
0
0
0
0
0
0
0
0
0
0
0
0
0
0
0
0
0
0
0
0
0
0
0
0
0
0
0
0
0
0
0
0
0
0
0
0
0
0
0
0
0
0
0
0
0
0
0
0
0
0
0
0
0
0
0
0
0
0
0
0
0
0
0
0
0
0
0
0
0
0
0
0
0
0
0
0
0
0
0
0
0
0
0
0
0
0
0
0
0
0
0
0
0
0
0
0
0
0
0
0
0
0
0
0
0
0
0
0
0
0
0
0
0
0
0
0
0
0
0
0
0
0
0
0
0
0
0
0
0
0
0
0
0
0
0
0
0
0
0
0
0
0
0
0
0
0
0
0
0
0
0
0
0
0
0
0
0
0
0
0
0
0
0
0
0
0
0
0
0
0
0
0
0
0
0
0
0
0
0
0
0
0
0
0
0
0
0
0
0
0
0
0
0
0
0
0
0
0
0
0
0
0
0
0
0
0
0
0
0
0
0
0
0
0
0
0
0
0
0
0
0
0
0
0
0
0
0
0
0
0
0
0
0
0
0
0
0
0
0
0
0
0
0
0
0
0
0
0
0
0
0
0
0
0
0
0
0
0
0
0
0
0
0
0
0
0
0
0
0
0
0
0
0
0
0
0
0
0
0
0
0
0
0
0
0
0
0
0
0
0
0
0
0
0
0
0
0
0
0
0
0
0
0
0
0
0
0
0
0
0
0
0
0
0
0
0
0
0
0
0
0
0
0
0
0
0
0
0
0
0
0
0
0
0
0
0
0
0
0
0
0
0
0
0
0
0
0
0
0
0
0
0
0
0
0
0
0
0
0
0
0
0
0
0
0
0
0
0
0
0
0
0
0
0
0
0
0
0
0
0
0
0
0
0
0
0
0
0
0
0
0
0
0
0
0
0
0
0
0
0
0
0
0
0
0
0
0
0
0
0
0
0
0
0
0
0
0
0
0
0
0
0
0
0
0
0
0
0
0
0
0
0
0
0
0
0
0
0
0
0
0
0
0
0
0
0
0
0
0
0
0
0
0
0
0
0
0
0
0
0
0
0
0
0
0
0
0
0
0
0
0
0
0
0
0
0
0
0
0
0
0
0
0
0
0
0
0
0
0
0
0
0
0
0
0
0
0
0
0
0
0
0
0
0
0
0
0
0
0
0
0
0
0
0
0
0
0
0
0
0
0
0
0
0
0
0
0
0
0
0
0
0
0
0
0
0
0
0
0
0
0
0
0
0
0
0
0
0
0
0
0
0
0
0
0
0
0
0
0
0
0
0
0
0
0
0
0
0
0
0
0
0
0
0
0
0
0
0
0
0
0
0
0
0
0
0
0
0
0
0
0
0
0
0
0
0
0
0
0
0
0
0
0
0
0
0
0
0
0
0
0
0
0
0
0
0
0
0
0
0
0
0
0
0
0
0
0
0
0
0
0
0
0
0
0
0
0
0
0
0
0
0
0
0
0
0
0
0
0
0
0
0
0
0
0
0
0
0
0
0
0
0
0
0
0
0
0
0
0
0
0
0
0
0
0
0
0
0
0
0
0
0
0
0
0
0
0
0
0
0
0
0
0
0
0
0
0
0
0
0
0
0
0
0
0
0
0
0
0
0
0
0
0
0
0
0
0
0
0
0
0
0
0
0
0
0
0
0
0
0
0
0
0
0
0
0
0
0
0
0
0
0
0
0
0
0
0
0
0
0
0
0
0
0
0
0
0
0
0
0
0
0
0
0
0
0
0
0
0
0
0
0
0
0
0
0
0
0
0
0
0
0
0
0
0
0
0
0
0
0
0
0
0
0
0
0
0
0
0
0
0
0
0
0
0
0
0
0
0
0
0
0
0
0
0
0
0
0
0
0
0
0
0
0
0
0
0
0
0
0
0
0
0
0
0
0
0
0
0
0
0
0
0
0
0
0
0
0
0
0
0
0
0
0
0
0
0
0
0
0
0
0
0
0
0
0
0
0
0
0
0
0
0
0
0
0
0
0
0
0
0
0
0
0
0
0
0
0
0
0
0
0
0
0
0
0
0
0
0
0
0
0
0
0
0
0
0
0
0
0
0
0
0
0
0
0
0
0
0
0
0
0
0
0
0
0
0
0
0
0
0
0
0
0
0
0
0
0
0
0
0
0
0
0
0
0
0
0
0
0
0
0
0
0
0
0
0
0
0
0
0
0
0
0
0
0
0
0
0
0
0
0
0
0
0
0
0
0
0
0
0
0
0
0
0
0
0
0
0
0
0
0
0
0
0
0
0
0
0
0
0
0
0
0
0
0
0
0
0
0
0
0
0
0
0
0
0
0
0
0
0
0
0
0
0
0
0
0
0
0
0
0
0
0
0
0
0
0
0
0
0
0
0
0
0
0
0
0
0
0
0
0
0
0
0
0
0
0
0
0
0
0
0
0
0
0
0
0
0
0
0
0
0
0
0
0
0
0
0
0
0
0
0
0
0
0
0
0
0
0
0
0
0
0
0
0
0
0
0
0
0
0
0
0
0
0
0
0
0
0
0
0
0
0
0
0
0
0
0
0
0
0
0
0
0
0
0
0
0
0
0
0
0
0
0
0
0
0
0
0
0
0
0
0
0
0
0
0
0
0
0
0
0
0
0
0
0
0
0
0
0
0
0
0
0
0
0
0
0
0
0
0
0
0
0
0
0
0
0
0
0
0
0
0
0
0
0
0
0
0
0
0
0
0
0
0
0
0
0
0
0
0
0
0
0
0
0
0
0
0
0
0
0
0
0
0
0
0
0
0
0
0
0
0
0
0
0
0
0
0
0
0
0
0
0
0
0
0
0
0
0
0
0
0
0
0
0
0
0
0
0
0
0
0
0
0
0
0
0
0
0
0
0
0
