0.151196
0.226793
0.299882
0.362426
0.40664
0.426649
0.419894
0.38791
0.336213
0.273232
0.208439
0.149978
0.101568
0.0628933
0.032386
0.00860195
-0.0104231
-0.0266289
-0.0415302
-0.0560488
-0.0705881
-0.0852846
-0.100318
-0.116136
-0.133545
-0.15373
-0.178082
-0.207939
-0.24467
-0.29041
-0.346827
-0.408113
-0.463497
-0.501746
-0.514806
-0.499802
0
1.04306
2.44817
4.06955
5.68414
7.02606
7.84736
7.99229
7.45801
6.40928
5.12986
3.92631
3.02682
2.51949
2.35461
2.37992
2.34469
2.3029
2.2557
2.20338
2.14738
2.09058
2.03687
1.99033
1.95456
1.93215
1.92447
1.93158
1.95238
1.98495
2.02678
2.07512
2.12716
2.18026
2.23211
2.28032
2.32218
2.35524
2.37774
2.38879
2.38885
2.37997
2.36574
2.35078
2.33988
2.33713
2.34441
2.36131
2.38686
2.4196
2.45765
2.49897
2.54185
2.58505
2.62778
2.66958
2.71019
2.74927
2.7862
2.81993
2.84922
2.87267
2.88885
2.89644
2.89419
2.88084
2.85492
2.81472
2.75869
2.68607
2.59621
2.48958
2.36801
2.23464
2.09346
1.94872
1.80428
1.66298
1.52667
1.39624
1.2719
1.15359
1.04135
0.935533
0.836932
0.746581
0.665533
0.594564
0.533952
0.483384
0.441982
0.408493
0.381584
0.360147
0.34358
0.331779
0.325059
0.323976
0.329016
0.340257
0.357143
0.378401
0.4022
0.426305
0.448525
0.467095
0.480946
0.489803
0.494076
0.494589
0.492223
0.487578
0.480797
0.471432
0.458698
0.441737
0.419975
0.393406
0.362733
0.329317
0.294951
0.261543
0.230737
0.203647
0.180945
0.162797
0.148954
0.138896
0.131975
0.12755
0.125089
0.124256
0.124961
0.127354
0.131754
0.13852
0.14788
0.15982
0.173816
0.188547
0.202082
0.212392
0.217863
0.217767
0.212538
0.203746
0.193778
0.185295
0.180547
0.18064
0.185594
0.194753
0.206354
0.217715
0.225863
0.228259
0.223395
0.211209
0.193217
0.172288
0.152084
0.13627
0.127652
0.127147
0.134111
0.147056
0.16358
0.180908
0.196445
0.208204
0.215053
0.216747
0.213825
0.207399
0.198968
0.190139
0.182486
0.177381
0.175834
0.178372
0.184997
0.19526
0.208436
0.223779
0.240781
0.259318
0.27973
0.302714
0.329098
0.35957
0.39454
0.433851
0.476432
0.519888
0.560236
0.592352
0.610984
0.61144
0.590451
0.54697
0.482735
0.402398
0.313068
0.223242
0.141
0.0713142
0.0156444
-0.0248089
-0.0506051
-0.0647599
-0.0715208
-0.075582
-0.0813805
-0.0925989
-0.111928
-0.141048
-0.180732
-0.230889
-0.291097
-0.361903
-0.443038
-0.528052
-0.602588
-0.650683
-0.659805
-0.625934
-0.555541
0
0.944792
2.13974
3.49352
4.87556
6.10308
6.95293
7.22174
6.81483
5.81075
4.45146
3.05461
1.8921
1.10168
0.67058
0.580359
0.532792
0.490987
0.455036
0.424607
0.399105
0.377897
0.360553
0.347023
0.337625
0.332951
0.333699
0.3404
0.353158
0.371496
0.39436
0.420281
0.447668
0.475136
0.501816
0.527483
0.552544
0.577926
0.604843
0.634507
0.667812
0.705116
0.746114
0.789908
0.834988
0.879458
0.921635
0.960519
0.996156
1.02978
1.06367
1.10075
1.14405
1.19601
1.25764
1.32872
1.40791
1.4927
1.57974
1.66496
1.74419
1.81365
1.87036
1.91221
1.93797
1.94706
1.93925
1.91439
1.87221
1.81256
1.73527
1.64031
1.52811
1.39986
1.25777
1.10508
0.945886
0.784915
0.627061
0.476893
0.338181
0.213533
0.10423
0.0102644
-0.0694086
-0.136495
-0.192941
-0.240554
-0.280731
-0.314404
-0.342058
-0.363868
-0.379884
-0.390191
-0.395029
-0.394847
-0.390328
-0.382337
-0.371928
-0.360324
-0.348831
-0.338645
-0.330653
-0.325252
-0.322237
-0.320817
-0.319794
-0.31787
-0.31403
-0.307607
-0.298921
-0.289553
-0.28154
-0.276605
-0.275485
-0.277662
-0.281633
-0.285635
-0.288514
-0.290323
-0.292588
-0.297747
-0.308189
-0.325296
-0.348859
-0.377111
-0.407292
-0.436469
-0.462453
-0.484443
-0.502174
-0.515565
-0.52483
-0.53035
-0.532594
-0.532079
-0.529365
-0.524988
-0.519429
-0.513078
-0.506222
-0.499073
-0.491837
-0.484786
-0.478309
-0.472942
-0.469352
-0.468277
-0.470421
-0.476361
-0.486431
-0.500633
-0.518568
-0.539429
-0.56202
-0.584813
-0.606049
-0.623878
-0.636655
-0.643087
-0.642357
-0.634188
-0.618824
-0.596945
-0.569537
-0.537745
-0.502741
-0.465689
-0.427538
-0.388919
-0.350119
-0.310936
-0.270584
-0.227689
-0.180344
-0.125193
-0.0556747
0.0377447
0.15536
0.276579
0.374235
0.423248
0.408096
0.327203
0.19376
0.0329857
-0.123973
-0.249717
-0.341399
-0.40921
-0.460743
-0.498711
-0.524903
-0.541291
-0.549797
-0.552211
-0.55022
-0.545534
-0.540105
-0.53617
-0.536163
-0.542347
-0.556432
-0.579123
-0.609747
-0.646938
-0.686765
-0.722609
-0.748225
-0.759819
-0.757566
-0.740558
0
1.14219
2.60216
4.18618
5.6258
6.64811
7.05854
6.80554
5.99855
4.8673
3.67623
2.63363
1.83806
1.28449
0.922802
0.801614
0.696428
0.600268
0.515251
0.442432
0.38186
0.332788
0.293986
0.264041
0.24161
0.225638
0.215454
0.210765
0.211547
0.217882
0.2298
0.247133
0.269437
0.296005
0.325962
0.358444
0.3928
0.428765
0.466562
0.506897
0.550819
0.599498
0.653957
0.714838
0.78224
0.855697
0.934276
1.01679
1.10205
1.18911
1.27737
1.36665
1.45703
1.54862
1.64127
1.73435
1.82653
1.91561
1.99858
2.07229
2.13385
2.18099
2.21236
2.22747
2.2264
2.20937
2.17632
2.12709
2.06158
1.97905
1.8786
1.75995
1.62378
1.47188
1.3072
1.13359
0.955356
0.776965
0.602576
0.435718
0.279073
0.134427
0.00276299
-0.115533
-0.220278
-0.311299
-0.388534
-0.452168
-0.502485
-0.53995
-0.565311
-0.579662
-0.584413
-0.581186
-0.571654
-0.55734
-0.539495
-0.518909
-0.495892
-0.470356
-0.442004
-0.410564
-0.376049
-0.338904
-0.300216
-0.261952
-0.226613
-0.196768
-0.174591
-0.161478
-0.157815
-0.162943
-0.175286
-0.192602
-0.212254
-0.231731
-0.249015
-0.262671
-0.271792
-0.276191
-0.276633
-0.27425
-0.270111
-0.26486
-0.258568
-0.250856
-0.241233
-0.229524
-0.216209
-0.202436
-0.189841
-0.180176
-0.174864
-0.174662
-0.179516
-0.188642
-0.200759
-0.214371
-0.228001
-0.240409
-0.250518
-0.25733
-0.259914
-0.257412
-0.249107
-0.234534
-0.213544
-0.186414
-0.154028
-0.118572
-0.0844416
-0.0571036
-0.0415456
-0.0408767
-0.0551587
-0.080934
-0.111755
-0.139687
-0.157383
-0.160724
-0.151084
-0.131541
-0.104257
-0.072007
-0.0372669
-0.00152979
0.0350918
0.0738992
0.117288
0.168267
0.232909
0.322282
0.447713
0.600709
0.750551
0.866267
0.924371
0.912821
0.832348
0.696145
0.528238
0.36001
0.22248
0.123622
0.0535468
0.00234737
-0.0354009
-0.0621678
-0.0804478
-0.0927136
-0.10113
-0.107395
-0.112722
-0.11796
-0.123767
-0.130775
-0.13971
-0.151409
-0.166679
-0.186139
-0.210262
-0.239135
-0.27144
-0.305031
-0.337133
-0.364616
0
0.886494
2.20947
3.82455
5.47503
6.84696
7.65322
7.72614
7.08245
5.92494
4.56761
3.31437
2.35268
1.71766
1.33512
1.20202
1.11295
1.03098
0.956089
0.888133
0.826656
0.771065
0.720827
0.675551
0.635065
0.599416
0.568847
0.543789
0.524911
0.513009
0.508872
0.513273
0.526826
0.549823
0.582096
0.622942
0.671144
0.725078
0.782863
0.842624
0.902795
0.962228
1.02032
1.0771
1.13315
1.18953
1.24749
1.30831
1.37297
1.44206
1.51566
1.59347
1.67488
1.75909
1.84521
1.93226
2.0191
2.10438
2.18647
2.2635
2.33356
2.39482
2.44567
2.48474
2.51074
2.52226
2.51803
2.49662
2.45651
2.39632
2.31516
2.21292
2.09057
1.95021
1.79494
1.62873
1.45544
1.27854
1.10109
0.925605
0.754165
0.588682
0.431156
0.284278
0.151803
0.037049
-0.0573276
-0.129728
-0.180131
-0.210307
-0.223614
-0.224425
-0.217329
-0.206342
-0.194395
-0.183015
-0.17265
-0.163027
-0.153624
-0.144083
-0.134461
-0.125256
-0.117352
-0.111871
-0.109812
-0.111821
-0.11797
-0.127658
-0.139658
-0.152308
-0.163826
-0.172645
-0.177712
-0.178719
-0.175836
-0.169662
-0.16102
-0.150768
-0.139624
-0.128119
-0.116651
-0.105563
-0.0952297
-0.0861165
-0.0787737
-0.0737587
-0.0715438
-0.0723985
-0.0762931
-0.0828589
-0.0914177
-0.10108
-0.110884
-0.119945
-0.127584
-0.133365
-0.137072
-0.138669
-0.138239
-0.135916
-0.131844
-0.126145
-0.118915
-0.11023
-0.100158
-0.0887754
-0.0762
-0.0626342
-0.0484016
-0.0340092
-0.0201469
-0.00759168
0.00293908
0.0109675
0.0164246
0.019751
0.0218936
0.0241813
0.028104
0.0350201
0.0459225
0.0613344
0.0813015
0.105511
0.133554
0.165086
0.199965
0.238256
0.28009
0.325637
0.374665
0.425707
0.475345
0.518783
0.550843
0.567002
0.56433
0.542109
0.502009
0.447824
0.384857
0.319066
0.255843
0.198648
0.149119
0.107718
0.0744482
0.0483926
0.0280717
0.0117721
-0.00216708
-0.0151759
-0.0284086
-0.0428098
-0.0592327
-0.0785106
-0.101467
-0.128875
-0.1616
-0.200922
-0.247571
-0.299996
-0.355983
-0.413145
-0.469269
0
0.95078
2.3169
3.92351
5.50338
6.76238
7.45726
7.46294
6.80952
5.67414
4.32616
3.04367
2.03265
1.37951
1.05464
1.00498
0.964791
0.928154
0.896731
0.87197
0.854979
0.846394
0.846168
0.853458
0.866688
0.883804
0.902695
0.921653
0.93977
0.957007
0.974094
0.992206
1.01253
1.03579
1.06198
1.09055
1.12027
1.14977
1.17794
1.20438
1.2296
1.25502
1.28274
1.31518
1.35464
1.40262
1.45987
1.52647
1.60172
1.68417
1.7719
1.86281
1.95489
2.0465
2.13648
2.22408
2.3088
2.39012
2.4671
2.53863
2.60347
2.66048
2.70881
2.74809
2.77823
2.79915
2.80979
2.80842
2.79268
2.75969
2.70664
2.63171
2.53462
2.41703
2.28237
2.13539
1.98181
1.82683
1.67455
1.52836
1.39087
1.26394
1.14867
1.04557
0.954604
0.875392
0.807283
0.74957
0.701738
0.663685
0.635744
0.618383
0.612086
0.617179
0.633448
0.659811
0.694175
0.73355
0.77442
0.813282
0.847306
0.87461
0.894468
0.907218
0.913936
0.916034
0.914888
0.911709
0.907328
0.902338
0.897229
0.892452
0.888404
0.885361
0.883385
0.882262
0.881545
0.880616
0.878807
0.875512
0.870257
0.862745
0.852858
0.84068
0.826541
0.811046
0.795095
0.779885
0.766816
0.757307
0.752536
0.753189
0.759444
0.770688
0.785153
0.800173
0.812863
0.820653
0.821759
0.815509
0.802466
0.784333
0.763685
0.743557
0.726776
0.715546
0.711468
0.715264
0.726744
0.744969
0.768565
0.796119
0.826524
0.859242
0.894472
0.933024
0.976081
1.02504
1.08186
1.14893
1.22653
1.30811
1.3819
1.43511
1.45726
1.443
1.39344
1.31581
1.2216
1.12366
1.03269
0.9529
0.8839
0.824156
0.772441
0.727707
0.688737
0.65439
0.623767
0.596246
0.571388
0.548763
0.527747
0.507344
0.486098
0.462233
0.433926
0.399681
0.35777
0.306383
0.246772
0.183149
0.119609
0.0585432
0
0.510301
1.441
2.75241
4.30106
5.84811
7.10536
7.80874
7.80259
7.10149
5.89548
4.48627
3.17943
2.18365
1.56513
1.26897
1.249
1.23518
1.22246
1.21044
1.19863
1.1867
1.17462
1.16276
1.15194
1.14338
1.13856
1.13893
1.14568
1.1595
1.18042
1.20778
1.24036
1.27661
1.315
1.35433
1.39391
1.43364
1.47385
1.51512
1.55803
1.60295
1.64998
1.69894
1.74953
1.80147
1.85469
1.90938
1.96592
2.0248
2.08641
2.15095
2.21832
2.28816
2.35992
2.43292
2.50645
2.5797
2.65172
2.72133
2.78703
2.84701
2.8992
2.94146
2.97199
2.98923
2.99202
2.97954
2.95123
2.90671
2.84558
2.76745
2.67204
2.55975
2.43165
2.28925
2.13468
1.97103
1.80237
1.63356
1.46978
1.31601
1.17641
1.05391
0.950082
0.864912
0.796498
0.741715
0.697077
0.65945
0.62661
0.59753
0.572335
0.551979
0.537709
0.530484
0.530562
0.537329
0.549341
0.564273
0.579684
0.59359
0.604922
0.613737
0.621122
0.628831
0.638731
0.652208
0.669725
0.690898
0.713679
0.734883
0.751162
0.759855
0.759649
0.750873
0.735347
0.715863
0.695456
0.676623
0.660648
0.647759
0.637626
0.629428
0.622195
0.61515
0.607986
0.600977
0.594926
0.590938
0.590088
0.593026
0.599814
0.609881
0.621525
0.631964
0.638309
0.638404
0.631535
0.618798
0.602946
0.587725
0.576869
0.573075
0.576604
0.586612
0.601289
0.618336
0.635745
0.652453
0.668688
0.685911
0.706385
0.732512
0.766044
0.807307
0.855446
0.908866
0.964593
1.01849
1.06585
1.10226
1.12404
1.1286
1.1147
1.08255
1.03385
0.971664
0.90007
0.823741
0.747277
0.674263
0.606935
0.546639
0.493675
0.447463
0.406867
0.370554
0.337301
0.306153
0.276427
0.247603
0.219173
0.190563
0.161169
0.130522
0.0984798
0.0655176
0.0337956
0.00703592
-0.0108661
-0.0174223
-0.0127909
0
0.621102
1.59683
2.87037
4.33895
5.81798
7.05373
7.78526
7.83866
7.2068
6.06465
4.70513
3.42705
2.43408
1.7914
1.45139
1.40319
1.36171
1.32098
1.28008
1.23816
1.19478
1.15012
1.1054
1.06283
1.02521
0.995312
0.975366
0.96666
0.969356
0.982571
1.00467
1.03365
1.06753
1.10469
1.144
1.18476
1.2265
1.26886
1.31142
1.35367
1.3952
1.43594
1.47637
1.5177
1.56174
1.61064
1.66639
1.73034
1.80277
1.88264
1.96797
2.05641
2.14565
2.23394
2.32039
2.40504
2.48859
2.57228
2.65735
2.74116
2.81466
2.8656
2.88388
2.86684
2.82161
2.76296
2.70738
2.66572
2.63611
2.60912
2.57694
2.53128
2.46478
2.3724
2.25236
2.10638
1.93935
1.75884
1.57362
1.39069
1.21553
1.0525
0.904477
0.772849
0.657753
0.558519
0.474482
0.40552
0.351519
0.312459
0.288434
0.279158
0.283484
0.299717
0.325008
0.35444
0.382989
0.406575
0.422847
0.431491
0.433971
0.432797
0.430601
0.429323
0.429654
0.431381
0.433911
0.43657
0.438941
0.440998
0.443022
0.445362
0.448149
0.451107
0.45357
0.454602
0.453213
0.448602
0.440319
0.428323
0.412942
0.394772
0.374593
0.3533
0.331833
0.311159
0.292268
0.276088
0.263371
0.25455
0.24957
0.247795
0.248072
0.248897
0.248684
0.246101
0.240364
0.231454
0.220214
0.208291
0.197944
0.191713
0.192028
0.200676
0.218646
0.245987
0.281713
0.323965
0.370404
0.418514
0.466172
0.512102
0.556135
0.599231
0.643251
0.690519
0.743816
0.806512
0.881759
0.969245
1.05964
1.13712
1.1855
1.19248
1.15338
1.07335
0.966928
0.854486
0.756648
0.685781
0.638749
0.608977
0.593156
0.589567
0.596053
0.609961
0.627607
0.645468
0.660556
0.670644
0.674275
0.670544
0.658721
0.6379
0.606837
0.564816
0.505315
0.414893
0.29696
0.175393
0.0775384
0.0200446
0
0.633931
1.76076
3.23957
4.89423
6.48979
7.7725
8.51797
8.58755
7.9801
6.8516
5.47841
4.16644
3.1424
2.48444
2.12597
1.97393
1.84492
1.72332
1.61146
1.51094
1.42246
1.34593
1.28076
1.2265
1.18303
1.15052
1.12926
1.11987
1.12291
1.13838
1.16536
1.20189
1.24507
1.29146
1.33763
1.38087
1.41939
1.45248
1.48057
1.50516
1.52854
1.55337
1.5822
1.61712
1.65941
1.70929
1.76617
1.82906
1.89683
1.96844
2.04316
2.12064
2.20083
2.28378
2.36933
2.45691
2.54528
2.63247
2.71561
2.79169
2.85805
2.9129
2.95566
2.98683
3.00759
3.01903
3.02146
3.01346
2.99236
2.9543
2.89508
2.81125
2.70115
2.56563
2.4082
2.23466
2.0524
1.86874
1.68935
1.51853
1.35911
1.21242
1.07865
0.957575
0.849356
0.754654
0.674421
0.609405
0.560536
0.528377
0.512646
0.511961
0.523881
0.545192
0.572379
0.6021
0.631709
0.659648
0.685219
0.708291
0.729176
0.748432
0.766641
0.784228
0.80138
0.818072
0.834158
0.84951
0.864101
0.878013
0.891344
0.904037
0.915688
0.9254
0.931867
0.933585
0.929197
0.917869
0.899574
0.875195
0.846408
0.815403
0.784505
0.755733
0.730468
0.709552
0.693391
0.681922
0.674751
0.67129
0.670854
0.672826
0.676753
0.682364
0.689525
0.698129
0.707987
0.718709
0.729598
0.739797
0.748542
0.755403
0.760443
0.764196
0.767461
0.770965
0.775016
0.77927
0.782726
0.78389
0.781118
0.773129
0.759427
0.740631
0.718571
0.696141
0.676892
0.664463
0.661972
0.671464
0.693821
0.728748
0.775043
0.830968
0.894365
0.963432
1.03664
1.11104
1.18122
1.24036
1.28136
1.29834
1.28823
1.25164
1.19281
1.11872
1.03749
0.956691
0.880894
0.811628
0.749001
0.692685
0.642246
0.597111
0.556798
0.521084
0.490002
0.46368
0.442141
0.425048
0.411149
0.397652
0.380807
0.356888
0.323184
0.278818
0.224044
0.162897
0.101077
0.0448324
0
0.249649
0.99344
2.1119
3.54854
5.13519
6.59671
7.6176
7.95241
7.52766
6.4792
5.10073
3.72779
2.6175
1.87824
1.47481
1.30712
1.26978
1.23784
1.21025
1.18729
1.16822
1.15096
1.13297
1.11188
1.0862
1.0558
1.02194
0.987034
0.954063
0.925987
0.90468
0.891507
0.887303
0.892293
0.906229
0.928317
0.95765
0.993222
1.03396
1.07883
1.12696
1.17771
1.23064
1.28547
1.34189
1.39943
1.45736
1.51479
1.57077
1.62454
1.67578
1.7247
1.77207
1.81906
1.86698
1.9169
1.96939
2.02428
2.08061
2.13673
2.19051
2.2397
2.28218
2.31621
2.34033
2.35335
2.35402
2.34073
2.31171
2.26501
2.19881
2.11183
2.00376
1.87553
1.72935
1.56852
1.39712
1.21951
1.03971
0.861394
0.687888
0.522276
0.368329
0.230366
0.111718
0.014821
-0.0589984
-0.109926
-0.139826
-0.152059
-0.15098
-0.141262
-0.127218
-0.112348
-0.0988304
-0.0878484
-0.0800209
-0.0754762
-0.0739851
-0.075035
-0.0778609
-0.0814679
-0.0846851
-0.0862796
-0.085138
-0.080473
-0.0720056
-0.0600135
-0.0453998
-0.0295999
-0.0142685
-0.000981641
0.00902886
0.0150445
0.0168967
0.0148701
0.00950656
0.00137069
-0.00914657
-0.0219692
-0.0373204
-0.0556007
-0.0771599
-0.10206
-0.12989
-0.159696
-0.190052
-0.219248
-0.24556
-0.267527
-0.284023
-0.294327
-0.298063
-0.29508
-0.285343
-0.268886
-0.245888
-0.216738
-0.182118
-0.143175
-0.101798
-0.0605351
-0.0222944
0.0101303
0.0345383
0.0496657
0.0554182
0.0529339
0.0444594
0.0330435
0.0220796
0.0147594
0.0134252
0.0190713
0.0314261
0.0496779
0.0721602
0.0968519
0.12205
0.146868
0.171529
0.197358
0.226482
0.261304
0.303871
0.355073
0.41448
0.481338
0.55308
0.624237
0.688281
0.739782
0.775907
0.797359
0.808414
0.815945
0.827631
0.849971
0.891915
0.951548
1.01509
1.06492
1.08617
1.07167
1.02339
0.950359
0.8646
0.776915
0.693371
0.614601
0.5396
0.467242
0.396408
0.325855
0.254227
0.180299
0.106503
0.0426131
0.00278177
0
0.0424947
0.158564
0.915627
1.99245
3.30455
4.71823
6.05364
7.10133
7.66588
7.62711
6.9918
5.9041
4.6021
3.33881
2.30569
1.59112
1.18688
1.13362
1.10039
1.07168
1.04779
1.02858
1.0136
1.00215
0.993303
0.985876
0.978422
0.969614
0.958566
0.945149
0.930165
0.915288
0.902735
0.894749
0.893017
0.898098
0.910025
0.927586
0.948855
0.972095
0.996421
1.0222
1.05106
1.08541
1.12777
1.17987
1.24182
1.3119
1.38752
1.46571
1.54337
1.61799
1.68816
1.75377
1.8159
1.8764
1.93724
1.99995
2.06505
2.13199
2.19865
2.26172
2.31765
2.36343
2.39721
2.41851
2.42791
2.42644
2.41481
2.39274
2.35929
2.31279
2.25062
2.1705
2.0712
1.953
1.81782
1.66905
1.51099
1.34858
1.18613
1.0274
0.875501
0.732874
0.601361
0.482306
0.376657
0.285053
0.207867
0.145302
0.0973149
0.063334
0.0422987
0.0335269
0.0353746
0.0444664
0.0572591
0.0706415
0.082489
0.0919678
0.0994692
0.106194
0.113549
0.122576
0.133502
0.146131
0.160052
0.174934
0.190786
0.208049
0.227427
0.24953
0.274835
0.302487
0.329132
0.349832
0.359301
0.353369
0.330234
0.291073
0.239854
0.182427
0.125212
0.07319
0.0286833
-0.00741
-0.0345853
-0.0533547
-0.0649491
-0.070911
-0.0727377
-0.0716176
-0.0683149
-0.0632045
-0.0564233
-0.0480634
-0.038314
-0.0275744
-0.0163784
-0.00524616
0.00549326
0.0158358
0.0261344
0.0370102
0.0491616
0.0631235
0.0790032
0.096483
0.114764
0.132508
0.148231
0.160802
0.169882
0.176197
0.181515
0.188288
0.199028
0.215602
0.238482
0.267184
0.299828
0.333847
0.366943
0.397897
0.427066
0.456397
0.488973
0.528285
0.580165
0.651216
0.741615
0.838172
0.921498
0.972947
0.979375
0.936297
0.849333
0.733661
0.610995
0.503916
0.424193
0.368082
0.327669
0.299283
0.279138
0.263368
0.248936
0.234231
0.219215
0.205078
0.193525
0.185885
0.182555
0.182682
0.183408
0.18111
0.172575
0.156113
0.13217
0.103174
0.0726352
0.0438394
0.0186016
0
0.694342
1.82893
3.3112
4.93909
6.44501
7.56083
8.08543
7.93786
7.18197
6.0117
4.6945
3.48894
2.56987
1.99196
1.70728
1.64523
1.58697
1.53051
1.47673
1.4265
1.38067
1.33995
1.30492
1.27593
1.25313
1.23655
1.22615
1.22172
1.22301
1.22963
1.24103
1.2565
1.27519
1.29631
1.31921
1.34357
1.36946
1.3973
1.42772
1.46138
1.49876
1.54002
1.58497
1.63314
1.68387
1.73655
1.79082
1.84674
1.90486
1.96617
2.03191
2.10329
2.18112
2.2656
2.3561
2.4512
2.54875
2.64612
2.74035
2.82825
2.90673
2.97345
3.02677
3.06576
3.09011
3.09977
3.09468
3.07433
3.03762
2.98307
2.90947
2.81529
2.69991
2.5641
2.41024
2.24239
2.06592
1.88708
1.71184
1.54565
1.39282
1.25613
1.13677
1.03427
0.946619
0.870981
0.804326
0.74408
0.688755
0.638273
0.593637
0.556605
0.529052
0.512205
0.506118
0.50954
0.52019
0.535336
0.552451
0.56974
0.586423
0.602449
0.618211
0.634181
0.650573
0.667144
0.683176
0.697634
0.709432
0.71772
0.722088
0.722648
0.719981
0.714973
0.708611
0.701786
0.695112
0.688887
0.683103
0.677504
0.671725
0.665469
0.658664
0.651551
0.644668
0.638727
0.634431
0.632259
0.632287
0.634229
0.637473
0.641215
0.644655
0.647139
0.648232
0.647701
0.64544
0.641377
0.635474
0.627759
0.618431
0.607992
0.597327
0.587679
0.580509
0.57726
0.579069
0.586549
0.599775
0.618267
0.641126
0.667241
0.695474
0.724851
0.754651
0.784408
0.813885
0.843043
0.872008
0.901044
0.930513
0.960799
0.992189
1.0247
1.05787
1.09031
1.11913
1.14016
1.14874
1.14062
1.11303
1.06562
1.00097
0.924307
0.842619
0.763265
0.691786
0.630353
0.580294
0.541618
0.512733
0.491287
0.474818
0.461244
0.449081
0.43736
0.425331
0.412102
0.39645
0.376822
0.351428
0.318714
0.27767
0.226183
0.164241
0.101084
0.04778
0.0127806
-0.0021163
0
0.81166
2.0458
3.57983
5.21482
6.70874
7.81804
8.34995
8.21751
7.47551
6.31186
4.98911
3.75745
2.78028
2.1046
1.68634
1.56216
1.46092
1.36702
1.2819
1.20634
1.14078
1.08552
1.04075
1.00656
0.983009
0.970173
0.967889
0.975578
0.99213
1.01593
1.04506
1.07757
1.11179
1.14661
1.1816
1.21687
1.25291
1.2903
1.32949
1.37057
1.41323
1.45676
1.50026
1.54297
1.58469
1.62602
1.6684
1.714
1.76524
1.82432
1.89266
1.97041
2.05648
2.14898
2.24542
2.34309
2.43953
2.53275
2.62148
2.705
2.78294
2.85473
2.91904
2.97329
3.01409
3.03734
3.03853
3.01382
2.96098
2.87983
2.77227
2.64161
2.49174
2.32777
2.15434
1.97458
1.79061
1.60473
1.41976
1.23917
1.06686
0.906925
0.763049
0.638323
0.535627
0.456029
0.396916
0.354188
0.323172
0.299572
0.280189
0.263248
0.248288
0.235734
0.226321
0.220399
0.217871
0.218322
0.221083
0.225311
0.230142
0.234829
0.238866
0.24208
0.244673
0.247223
0.250609
0.25587
0.26398
0.275595
0.290834
0.309263
0.329537
0.349466
0.366643
0.379007
0.385304
0.385344
0.379966
0.370751
0.359582
0.348209
0.337872
0.329173
0.322307
0.317175
0.313492
0.310915
0.309161
0.308094
0.307817
0.308718
0.311442
0.316801
0.325583
0.338326
0.3551
0.375386
0.398064
0.421438
0.443542
0.462457
0.476614
0.48502
0.487375
0.484078
0.476123
0.464935
0.452154
0.439414
0.428155
0.419503
0.414201
0.412671
0.415149
0.421726
0.432395
0.447084
0.465679
0.488044
0.514058
0.543662
0.576906
0.613933
0.654901
0.699932
0.749026
0.8015
0.855184
0.906042
0.948602
0.977096
0.986411
0.973139
0.936433
0.878455
0.804295
0.721258
0.637628
0.56095
0.495524
0.442015
0.400045
0.369246
0.348127
0.334416
0.325701
0.319804
0.314978
0.309931
0.303699
0.295456
0.284359
0.269532
0.250098
0.225403
0.195174
0.15939
0.119461
0.077627
0.0367442
0
0.270485
1.0408
2.26546
3.83843
5.5228
6.99535
7.93196
8.11231
7.50577
6.29323
4.80291
3.38554
2.29133
1.60899
1.28674
1.24765
1.21369
1.17986
1.1459
1.112
1.07908
1.04859
1.02231
1.00184
0.988217
0.981651
0.98146
0.986271
0.994392
1.00425
1.01479
1.02572
1.03752
1.05122
1.06805
1.08894
1.11426
1.14381
1.17587
1.20781
1.23724
1.26295
1.28553
1.30742
1.33239
1.36456
1.40738
1.46205
1.52762
1.6026
1.68535
1.77391
1.86619
1.96017
2.05395
2.14581
2.23422
2.31791
2.39601
2.46819
2.53474
2.59646
2.6544
2.70928
2.76084
2.80656
2.84116
2.85669
2.84459
2.79822
2.71515
2.59817
2.45457
2.29404
2.12583
1.95662
1.78871
1.62272
1.45873
1.29686
1.13782
0.983356
0.836304
0.700372
0.579338
0.476372
0.393531
0.332572
0.29336
0.271926
0.262277
0.25848
0.255882
0.251902
0.246205
0.24026
0.236452
0.237056
0.243064
0.253971
0.268495
0.284945
0.301386
0.316077
0.327803
0.336024
0.340824
0.342714
0.342349
0.340302
0.336879
0.332147
0.32604
0.318539
0.309841
0.30043
0.291037
0.28247
0.275387
0.270095
0.266407
0.263623
0.26069
0.256447
0.24991
0.240506
0.22823
0.213669
0.197903
0.182296
0.168225
0.156789
0.148604
0.143897
0.142294
0.142947
0.14494
0.147627
0.150872
0.155115
0.161213
0.170112
0.182435
0.198094
0.216387
0.235563
0.253218
0.267015
0.275305
0.277587
0.274651
0.268379
0.261268
0.255829
0.253985
0.256571
0.26365
0.274969
0.290169
0.308976
0.331429
0.358005
0.389612
0.427449
0.472911
0.527983
0.5956
0.678808
0.776507
0.878171
0.967426
1.02775
1.04605
1.0155
0.937374
0.821518
0.685254
0.550262
0.43601
0.348785
0.284887
0.239424
0.210849
0.197249
0.195812
0.203141
0.2156
0.229445
0.240768
0.246114
0.242842
0.229481
0.206012
0.17397
0.136297
0.0968401
0.0601279
0.0302403
0.00992601
0
8.20518e-005
0.0109266
0.431565
1.19427
2.34382
3.80883
5.37035
6.70001
7.46754
7.47029
6.71848
5.43083
3.94648
2.60045
1.61986
1.07646
0.902028
0.929103
0.944991
0.956824
0.963693
0.965322
0.962087
0.954906
0.945055
0.933942
0.92288
0.912917
0.90484
0.89922
0.89648
0.896984
0.901102
0.909243
0.921834
0.939248
0.961714
0.989229
1.02152
1.05812
1.0984
1.14179
1.18788
1.23658
1.28806
1.34262
1.4005
1.46166
1.52569
1.59184
1.65917
1.72683
1.79425
1.86129
1.92825
1.99572
2.06437
2.13473
2.20693
2.28071
2.35533
2.42968
2.50236
2.57166
2.63562
2.69194
2.73807
2.77127
2.78893
2.7885
2.76771
2.72485
2.65906
2.57047
2.46034
2.33099
2.18596
2.03005
1.86803
1.70404
1.54188
1.385
1.2362
1.0975
0.970065
0.854286
0.750004
0.656767
0.574178
0.502084
0.44048
0.389412
0.348932
0.318916
0.298922
0.28815
0.285486
0.289638
0.2993
0.313297
0.330672
0.350744
0.373058
0.397273
0.423022
0.449785
0.476755
0.50276
0.526327
0.54588
0.559966
0.567508
0.568028
0.561775
0.549725
0.533445
0.514846
0.495889
0.478289
0.463282
0.45157
0.443485
0.439016
0.437869
0.439521
0.443292
0.448284
0.453432
0.457595
0.459662
0.458677
0.453961
0.445193
0.432457
0.416231
0.397346
0.376907
0.356161
0.336399
0.318865
0.304622
0.294453
0.288776
0.287607
0.290582
0.297026
0.30608
0.316825
0.32841
0.34014
0.351522
0.362262
0.372262
0.381629
0.390667
0.399867
0.409873
0.421377
0.434977
0.450987
0.469356
0.489531
0.510374
0.530471
0.548648
0.564442
0.578439
0.592356
0.608808
0.630811
0.661126
0.703043
0.759987
0.832251
0.912824
0.988091
1.04332
1.06575
1.04709
0.985604
0.887373
0.766222
0.641464
0.533288
0.452302
0.39588
0.357403
0.334606
0.323525
0.319682
0.319058
0.318782
0.317363
0.314457
0.310304
0.30508
0.29847
0.289441
0.276519
0.25823
0.233643
0.201894
0.163808
0.12204
0.0794894
0.0384084
0
0.60945
1.66624
3.07167
4.65364
6.17541
7.38181
8.05464
8.071
7.44787
6.34787
5.0319
3.77234
2.76558
2.08702
1.70079
1.58325
1.48925
1.40322
1.32771
1.26448
1.21436
1.17732
1.15258
1.13883
1.13456
1.13828
1.14874
1.16499
1.1863
1.21204
1.24149
1.27376
1.30782
1.34267
1.37747
1.41174
1.44544
1.47897
1.51301
1.54832
1.58553
1.62496
1.66663
1.71037
1.75597
1.80341
1.85303
1.90551
1.96179
2.02278
2.08914
2.16103
2.23803
2.31919
2.40326
2.48881
2.57449
2.65901
2.7412
2.81987
2.89362
2.96087
3.01996
3.06915
3.10673
3.13106
3.14059
3.13385
3.10943
3.066
3.00263
2.91904
2.81557
2.6935
2.55523
2.40424
2.24486
2.08186
1.91994
1.76341
1.61584
1.47985
1.35697
1.24771
1.1517
1.06797
0.995281
0.932478
0.878757
0.833813
0.797702
0.770657
0.752813
0.743895
0.743326
0.749843
0.761169
0.774691
0.788152
0.800132
0.810321
0.819457
0.828952
0.840317
0.854554
0.871631
0.890693
0.91002
0.927581
0.941599
0.951024
0.95575
0.956531
0.954642
0.951418
0.947826
0.944183
0.940194
0.93509
0.927888
0.917701
0.904027
0.886946
0.867173
0.845948
0.824785
0.805156
0.78817
0.774503
0.76416
0.756643
0.751265
0.747454
0.744986
0.744029
0.745011
0.748353
0.754179
0.762142
0.771368
0.780642
0.788705
0.794549
0.797631
0.79791
0.795747
0.791708
0.786372
0.780211
0.773498
0.766385
0.758988
0.751475
0.744123
0.737347
0.731677
0.727719
0.726091
0.727366
0.732035
0.740495
0.753052
0.769903
0.791082
0.816385
0.845518
0.877503
0.909827
0.939066
0.962028
0.97688
0.984076
0.986679
0.989842
0.999538
1.0209
1.06079
1.1221
1.19323
1.2575
1.29886
1.30698
1.27999
1.22423
1.15159
1.07565
1.00806
0.952687
0.908075
0.872018
0.842535
0.817712
0.795421
0.773572
0.750441
0.724928
0.696692
0.666135
0.634228
0.602189
0.571073
0.541423
0.51301
0.484282
0.452498
0.414453
0.367351
0.308016
0.237184
0.158257
0.0768605
0
0.316079
1.19424
2.51102
4.13188
5.82403
7.29863
8.27868
8.57793
8.16275
7.16821
5.85383
4.51229
3.37183
2.53918
2.00341
1.69324
1.62326
1.56313
1.508
1.45904
1.41704
1.38251
1.35564
1.33639
1.32457
1.31979
1.32139
1.32838
1.33951
1.35334
1.36853
1.38399
1.39921
1.41425
1.42979
1.44697
1.46715
1.49165
1.52146
1.55704
1.59822
1.64431
1.69421
1.74667
1.80053
1.85492
1.90936
1.96378
2.01838
2.07348
2.12934
2.18602
2.24329
2.30072
2.35778
2.41402
2.46921
2.5235
2.57731
2.63123
2.68568
2.74071
2.79527
2.84645
2.88993
2.92078
2.93451
2.92797
2.89976
2.85014
2.78055
2.69291
2.58985
2.47485
2.35059
2.21882
2.0809
1.93812
1.79186
1.64367
1.49528
1.34868
1.20601
1.06956
0.941557
0.824014
0.718527
0.626137
0.547238
0.481546
0.428397
0.386734
0.354829
0.330967
0.313753
0.302332
0.296438
0.296253
0.302093
0.314022
0.331533
0.353331
0.377631
0.402359
0.425562
0.445776
0.462252
0.474962
0.484414
0.491342
0.496389
0.499839
0.501527
0.500955
0.497493
0.490672
0.480441
0.467313
0.452337
0.436888
0.422326
0.409612
0.399006
0.389969
0.381007
0.370084
0.355219
0.335076
0.309433
0.279351
0.247002
0.215179
0.186628
0.163198
0.146114
0.13533
0.129299
0.125973
0.123594
0.121342
0.119603
0.119777
0.123672
0.132723
0.147187
0.1661
0.187217
0.207514
0.224033
0.234657
0.238615
0.236564
0.230234
0.221794
0.213147
0.205365
0.198599
0.192353
0.185832
0.178405
0.169986
0.161209
0.153347
0.148018
0.146788
0.150622
0.159759
0.173948
0.192556
0.214602
0.23891
0.264264
0.289476
0.313404
0.335031
0.353674
0.369104
0.381704
0.392574
0.403508
0.416806
0.434927
0.460058
0.49363
0.535849
0.586305
0.643732
0.70584
0.769261
0.829043
0.878517
0.911412
0.92209
0.906548
0.863609
0.795875
0.709907
0.615314
0.522816
0.441643
0.374965
0.321583
0.280633
0.25085
0.230149
0.216073
0.206153
0.198141
0.190104
0.180452
0.167968
0.151816
0.131646
0.107728
0.0809288
0.0530435
0.0274005
0.00825963
0
0.00583649
0.0287881
0.069827
0.408202
1.24024
2.40462
3.81363
5.29931
6.63731
7.58958
7.96235
7.66827
6.77068
5.48037
4.09105
2.87567
1.99635
1.47377
1.24516
1.198
1.15391
1.11221
1.07331
1.03792
1.0069
0.981208
0.96175
0.94921
0.943863
0.945431
0.953057
0.965401
0.980846
0.997776
1.01485
1.03129
1.04692
1.06218
1.07802
1.09574
1.11673
1.1422
1.17292
1.20906
1.25024
1.2956
1.34394
1.39425
1.44594
1.49904
1.55414
1.61214
1.67397
1.74034
1.81149
1.8873
1.96748
2.05154
2.13882
2.22839
2.31894
2.40869
2.4952
2.57557
2.64696
2.70691
2.75372
2.78657
2.80541
2.81064
2.80261
2.78116
2.74574
2.69542
2.62845
2.54309
2.43815
2.31347
2.17025
2.01108
1.83996
1.66169
1.48146
1.3044
1.13515
0.977544
0.834448
0.70772
0.598298
0.506316
0.43123
0.372169
0.328076
0.297068
0.276116
0.262139
0.252454
0.245218
0.239722
0.236441
0.236803
0.242732
0.256062
0.277638
0.307309
0.344124
0.386393
0.431812
0.477505
0.520398
0.557748
0.587472
0.608356
0.620114
0.623305
0.619143
0.609229
0.595281
0.578933
0.561451
0.543624
0.525795
0.507916
0.489678
0.470707
0.450789
0.430059
0.409094
0.388863
0.370547
0.35526
0.343749
0.336317
0.332579
0.331609
0.332254
0.333466
0.334589
0.33551
0.336647
0.338769
0.342727
0.349129
0.358137
0.369471
0.382344
0.395561
0.407777
0.417785
0.424763
0.428455
0.429245
0.428106
0.426434
0.425798
0.427639
0.43298
0.442237
0.455174
0.471007
0.488487
0.506101
0.522367
0.536084
0.546494
0.553319
0.556694
0.557001
0.554691
0.550139
0.543619
0.535332
0.525575
0.514931
0.504413
0.495603
0.490453
0.490989
0.498918
0.515276
0.540221
0.573036
0.612344
0.656458
0.703737
0.752853
0.803023
0.853894
0.905347
0.957281
1.00939
1.06096
1.11061
1.15603
1.19402
1.22126
1.23461
1.23171
1.21153
1.17484
1.12425
1.06402
0.999417
0.935976
0.87819
0.828631
0.788763
0.759498
0.740762
0.731555
0.73009
0.73389
0.739769
0.743909
0.742351
0.731384
0.707897
0.669702
0.61579
0.541782
0.440318
0.310456
0.176096
0.0650726
0
-0.0124453
0.0122761
0.66427
1.72214
3.10469
4.65681
6.15222
7.33102
7.96302
7.92304
7.24408
6.11485
4.81389
3.60999
2.67686
2.06152
1.7111
1.61599
1.53856
1.46873
1.40877
1.36017
1.32365
1.29924
1.28639
1.2841
1.2911
1.30597
1.32722
1.3533
1.38256
1.41336
1.44371
1.47122
1.49377
1.50995
1.51963
1.52433
1.52716
1.53235
1.54431
1.56656
1.60036
1.64437
1.69654
1.75466
1.81645
1.88014
1.94488
2.01076
2.0785
2.14896
2.22257
2.29893
2.37679
2.45418
2.52892
2.59923
2.66414
2.72372
2.77896
2.83135
2.88234
2.9328
2.98265
3.03064
3.0744
3.11089
3.13682
3.14907
3.14492
3.12224
3.07946
3.01559
2.93022
2.82379
2.69806
2.55594
2.40102
2.2375
2.06992
1.90296
1.741
1.58772
1.44572
1.3164
1.20005
1.09613
1.00369
0.921969
0.850655
0.789864
0.739939
0.701404
0.674739
0.660023
0.656697
0.663497
0.678557
0.699633
0.724359
0.750432
0.775923
0.799303
0.819304
0.835038
0.846049
0.852371
0.854559
0.853664
0.851103
0.84842
0.846981
0.847676
0.850819
0.855849
0.861423
0.865899
0.867847
0.866525
0.862165
0.855975
0.849836
0.845751
0.845204
0.848634
0.855392
0.862677
0.866301
0.862027
0.846885
0.820239
0.784255
0.743571
0.704231
0.672192
0.651108
0.641796
0.643784
0.654766
0.67134
0.689934
0.707674
0.722962
0.735275
0.744981
0.752941
0.760062
0.766966
0.77383
0.780458
0.78641
0.791171
0.794281
0.795426
0.794463
0.791469
0.786782
0.781064
0.775362
0.771139
0.770186
0.774445
0.785774
0.805696
0.835216
0.874706
0.923886
0.981853
1.04745
1.11943
1.19493
1.26874
1.3343
1.3848
1.41414
1.41793
1.39435
1.34466
1.2734
1.1879
1.0973
1.01083
0.93514
0.872824
0.823509
0.786527
0.760845
0.744681
0.735945
0.732606
0.732933
0.735512
0.7391
0.742358
0.743424
0.739588
0.727655
0.70421
0.666253
0.606758
0.516031
0.401344
0.273967
0.145131
0.0231817
0.39051
1.25517
2.53343
4.07981
46
273
484
691
896
1090
1284
1477
1678
1879
2081
2281
2484
2686
2891
3103
3325
3548
3625
3372
3548
3722
0
0
0
0
0
0
0
0
0
0
0
0
0
0
0
0
0
0
0
0
0
0
0
0
0
0
0
0
0
0
0
0
0
0
0
0
0
0
0
0
0
0
0
0
0
0
0
0
0
0
0
0
0
0
0
0
0
0
0
0
0
0
0
0
0
0
0
0
0
0
0
0
0
0
0
0
0
0
0
0
0
0
0
0
0
0
0
0
0
0
0
0
0
0
0
0
0
0
0
0
0
0
0
0
0
0
0
0
0
0
0
0
0
0
0
0
0
0
0
0
0
0
0
0
0
0
0
0
0
0
0
0
0
0
0
0
0
0
0
0
0
0
0
0
0
0
0
0
0
0
0
0
0
0
0
0
0
0
0
0
0
0
0
0
0
0
0
0
0
0
0
0
0
0
0
0
0
0
0
0
0
0
0
0
0
0
0
0
0
0
0
0
0
0
0
0
0
0
0
0
0
0
0
0
0
0
0
0
0
0
0
0
0
0
0
0
0
0
0
0
0
0
0
0
0
0
0
0
0
0
0
0
0
0
0
0
0
0
0
0
0
0
0
0
0
0
0
0
0
0
0
0
0
0
0
0
0
0
0
0
0
0
0
0
0
0
0
0
0
0
0
0
0
0
0
0
0
0
0
0
0
0
0
0
0
0
0
0
0
0
0
0
0
0
0
0
0
0
0
0
0
0
0
0
0
0
0
0
0
0
0
0
0
0
0
0
0
0
0
0
0
0
0
0
0
0
0
0
0
0
0
0
0
0
0
0
0
0
0
0
0
0
0
0
0
0
0
0
0
0
0
0
0
0
0
0
0
0
0
0
0
0
0
0
0
0
0
0
0
0
0
0
0
0
0
0
0
0
0
0
0
0
0
0
0
0
0
0
0
0
0
0
0
0
0
0
0
0
0
0
0
0
0
0
0
0
0
0
0
0
0
0
0
0
0
0
0
0
0
0
0
0
0
0
0
0
0
0
0
0
0
0
0
0
0
0
0
0
0
0
0
0
0
0
0
0
0
0
0
0
0
0
0
0
0
0
0
0
0
0
0
0
0
0
0
0
0
0
0
0
0
0
0
0
0
0
0
0
0
0
0
0
0
0
0
0
0
0
0
0
0
0
0
0
0
0
0
0
0
0
0
0
0
0
0
0
0
0
0
0
0
0
0
0
0
0
0
0
0
0
0
0
0
0
0
0
0
0
0
0
0
0
0
0
0
0
0
0
0
0
0
0
0
0
0
0
0
0
0
0
0
0
0
0
0
0
0
0
0
0
0
0
0
0
0
0
0
0
0
0
0
0
0
0
0
0
0
0
0
0
0
0
0
0
0
0
0
0
0
0
0
0
0
0
0
0
0
0
0
0
0
0
0
0
0
0
0
0
0
0
0
0
0
0
0
0
0
0
0
0
0
0
0
0
0
0
0
0
0
0
0
0
0
0
0
0
0
0
0
0
0
0
0
0
0
0
0
0
0
0
0
0
0
0
0
0
0
0
0
0
0
0
0
0
0
0
0
0
0
0
0
0
0
0
0
0
0
0
0
0
0
0
0
0
0
0
0
0
0
0
0
0
0
0
0
0
0
0
0
0
0
0
0
0
0
0
0
0
0
0
0
0
0
0
0
0
0
0
0
0
0
0
0
0
0
0
0
0
0
0
0
0
0
0
0
0
0
0
0
0
0
0
0
0
0
0
0
0
0
0
0
0
0
0
0
0
0
0
0
0
0
0
0
0
0
0
0
0
0
0
0
0
0
0
0
0
0
0
0
0
0
0
0
0
0
0
0
0
0
0
0
0
0
0
0
0
0
0
0
0
0
0
0
0
0
0
0
0
0
0
0
0
0
0
0
0
0
0
0
0
0
0
0
0
0
0
0
0
0
0
0
0
0
0
0
0
0
0
0
0
0
0
0
0
0
0
0
0
0
0
0
0
0
0
0
0
0
0
0
0
0
0
0
0
0
0
0
0
0
0
0
0
0
0
0
0
0
0
0
0
0
0
0
0
0
0
0
0
0
0
0
0
0
0
0
0
0
0
0
0
0
0
0
0
0
0
0
0
0
0
0
0
0
0
0
0
0
0
0
0
0
0
0
0
0
0
0
0
0
0
0
0
0
0
0
0
0
0
0
0
0
0
0
0
0
0
0
0
0
0
0
0
0
0
0
0
0
0
0
0
0
0
0
0
0
0
0
0
0
0
0
0
0
0
0
0
0
0
0
0
0
0
0
0
0
0
0
0
0
0
0
0
0
0
0
0
0
0
0
0
0
0
0
0
0
0
0
0
0
0
0
0
0
0
0
0
0
0
0
0
0
0
0
0
0
0
0
0
0
0
0
0
0
0
0
0
0
0
0
0
0
0
0
0
0
0
0
0
0
0
0
0
0
0
0
0
0
0
0
0
0
0
0
0
0
0
0
0
0
0
0
0
0
0
0
0
0
0
0
0
0
0
0
0
0
0
0
0
0
0
0
0
0
0
0
0
0
0
0
0
0
0
0
0
0
0
0
0
0
0
0
0
0
0
0
0
0
0
0
0
0
0
0
0
0
0
0
0
0
0
0
0
0
0
0
0
0
0
0
0
0
0
0
0
0
0
0
0
0
0
0
0
0
0
0
0
0
0
0
0
0
0
0
0
0
0
0
0
0
0
0
0
0
0
0
0
0
0
0
0
0
0
0
0
0
0
0
0
0
0
0
0
0
0
0
0
0
0
0
0
0
0
0
0
0
0
0
0
0
0
0
0
0
0
0
0
0
0
0
0
0
0
0
0
0
0
0
0
0
0
0
0
0
0
0
0
0
0
0
0
0
0
0
0
0
0
0
0
0
0
0
0
0
0
0
0
0
0
0
0
0
0
0
0
0
0
0
0
0
0
0
0
0
0
0
0
0
0
0
0
0
0
0
0
0
0
0
0
0
0
0
0
0
0
0
0
0
0
0
0
0
0
0
0
0
0
0
0
0
0
0
0
0
0
0
0
0
0
0
0
0
0
0
0
0
0
0
0
0
0
0
0
0
0
0
0
0
0
0
0
0
0
0
0
0
0
0
0
0
0
0
0
0
0
0
0
0
0
0
0
0
0
0
0
0
0
0
0
0
0
0
0
0
0
0
0
0
0
0
0
0
0
0
0
0
0
0
0
0
0
0
0
0
0
0
0
0
0
0
0
0
0
0
0
0
0
0
0
0
0
0
0
0
0
0
0
0
0
0
0
0
0
0
0
0
0
0
0
0
0
0
0
0
0
0
0
0
0
0
0
0
0
0
0
0
0
0
0
0
0
0
0
0
0
0
0
0
0
0
0
0
0
0
0
0
0
0
0
0
0
0
0
0
0
0
0
0
0
0
0
0
0
0
0
0
0
0
0
0
0
0
0
0
0
0
0
0
0
0
0
0
0
0
0
0
0
0
0
0
0
0
0
0
0
0
0
0
0
0
0
0
0
0
0
0
0
0
0
0
0
0
0
0
0
0
0
0
0
0
0
0
0
0
0
0
0
0
0
0
0
0
0
0
0
0
0
0
0
0
0
0
0
0
0
0
0
0
0
0
0
0
0
0
0
0
0
0
0
0
0
0
0
0
0
0
0
0
0
0
0
0
0
0
0
0
0
0
0
0
0
0
0
0
0
0
0
0
0
0
0
0
0
0
0
0
0
0
0
0
0
0
0
0
0
0
0
0
0
0
0
0
0
0
0
0
0
0
0
0
0
0
0
0
0
0
0
0
0
0
0
0
0
0
0
0
0
0
0
0
0
0
0
0
0
0
0
0
0
0
0
0
0
0
0
0
0
0
0
0
0
0
0
0
0
0
0
0
0
0
0
0
0
0
0
0
0
0
0
0
0
0
0
0
0
0
0
0
0
0
0
0
0
0
0
0
0
0
0
0
0
0
0
0
0
0
0
0
0
0
0
0
0
0
0
0
0
0
0
0
0
0
0
0
0
0
0
0
0
0
0
0
0
0
0
0
0
0
0
0
0
0
0
0
0
0
0
0
0
0
0
0
0
0
0
0
0
0
0
0
0
0
0
0
0
0
0
0
0
0
0
0
0
0
0
0
0
0
0
0
0
0
0
0
0
0
0
0
0
0
0
0
0
0
0
0
0
0
0
0
0
0
0
0
0
0
0
0
0
0
0
0
0
0
0
0
0
0
0
0
0
0
0
0
0
0
0
0
0
0
0
0
0
0
0
0
0
0
0
0
0
0
0
0
0
0
0
0
0
0
0
0
0
0
0
0
0
0
0
0
0
0
0
0
0
0
0
0
0
0
0
0
0
0
0
0
0
0
0
0
0
0
0
0
0
0
0
0
0
0
0
0
0
0
0
0
0
0
0
0
0
0
0
0
0
0
0
0
0
0
0
0
0
0
0
0
0
0
0
0
0
0
0
0
0
0
0
0
0
0
0
0
0
0
0
0
0
0
0
0
0
0
0
0
0
0
0
0
0
0
0
0
0
0
0
0
0
0
0
0
0
0
0
0
0
0
0
0
0
0
0
0
0
0
0
0
0
0
0
0
0
0
0
0
0
0
0
0
0
0
0
0
0
0
0
0
0
0
0
0
0
0
0
0
0
0
0
0
0
0
0
0
0
0
0
0
0
0
0
0
0
0
0
0
0
0
0
0
0
0
0
0
0
0
0
0
0
0
0
0
0
0
0
0
0
0
0
0
0
0
0
0
0
0
0
0
0
0
0
0
0
0
0
0
0
0
0
0
0
0
0
0
0
0
0
0
0
0
0
0
0
0
0
0
0
0
0
0
0
0
0
0
0
0
0
0
0
0
0
0
0
0
0
0
0
0
0
0
0
0
0
0
0
0
0
0
0
0
0
0
0
0
0
0
0
0
0
0
0
0
0
0
0
0
0
0
0
0
0
0
0
0
0
0
0
0
0
0
0
0
0
0
0
0
0
0
0
0
0
0
0
0
0
0
0
0
0
0
0
0
0
0
0
0
0
0
0
0
0
0
0
0
0
0
0
0
0
0
0
0
0
0
0
0
0
0
0
0
0
0
0
0
0
0
0
0
0
0
0
0
0
0
0
0
0
0
0
0
0
0
0
0
0
0
0
0
0
0
0
0
0
0
0
0
0
0
0
0
0
0
0
0
0
0
0
0
0
0
0
0
0
0
0
0
0
0
0
0
0
0
0
0
0
0
0
0
0
0
0
0
0
0
0
0
0
0
0
0
0
0
0
0
0
0
0
0
0
0
0
0
0
0
0
0
0
0
0
0
0
0
0
0
0
0
0
0
0
0
0
0
0
0
0
0
0
0
0
0
0
0
0
0
0
0
0
0
0
0
0
0
0
0
0
0
0
0
0
0
0
0
0
0
0
0
0
0
0
0
0
0
0
0
0
0
0
0
0
0
0
0
0
0
0
0
0
0
0
0
0
0
0
0
0
0
0
0
0
0
0
0
0
0
0
0
0
0
0
0
0
0
0
0
0
0
0
0
0
0
0
0
0
0
0
0
0
0
0
0
0
0
0
0
0
0
0
0
0
0
0
0
0
0
0
0
0
0
0
0
0
0
0
0
0
0
0
0
0
0
0
0
0
0
0
0
0
0
0
0
0
0
0
0
0
0
0
0
0
0
0
0
0
0
0
0
0
0
0
0
0
0
0
0
0
0
0
0
0
0
0
0
0
0
0
0
0
0
0
0
0
0
0
0
0
0
0
0
0
0
0
0
0
0
0
0
0
0
0
0
0
0
0
0
0
0
0
0
0
0
0
0
0
0
0
0
0
0
0
0
0
0
0
0
0
0
0
0
0
0
0
0
0
0
0
0
0
0
0
0
0
0
0
0
0
0
0
0
0
0
0
0
0
0
0
0
0
0
0
0
0
0
0
0
0
0
0
0
0
0
0
0
0
0
0
0
0
0
0
0
0
0
0
0
0
0
0
0
0
0
0
0
0
0
0
0
0
0
0
0
0
0
0
0
0
0
0
0
0
0
0
0
0
0
0
0
0
0
0
0
0
0
0
0
0
0
0
0
0
0
0
0
0
0
0
0
0
0
0
0
0
0
0
0
0
0
0
0
0
0
0
0
0
0
0
0
0
0
0
0
0
0
0
0
0
0
0
0
0
0
0
0
0
0
0
0
0
0
0
0
0
0
0
0
0
0
0
0
0
0
0
0
0
0
0
0
0
0
0
0
0
0
0
0
0
0
0
0
0
0
0
0
0
0
0
0
0
0
0
0
0
0
0
0
0
0
0
0
0
0
0
0
0
0
0
0
0
0
0
0
0
0
0
0
0
0
0
0
0
0
0
0
0
0
0
0
0
0
0
0
0
0
0
0
0
0
0
0
0
0
0
0
0
0
0
0
0
0
0
0
0
0
0
0
0
0
0
0
0
0
0
0
0
0
0
0
0
0
0
0
0
0
0
0
0
0
0
0
0
0
0
0
0
0
0
0
0
0
0
0
0
0
0
0
0
0
0
0
0
0
0
0
0
0
0
0
0
0
0
0
0
0
0
0
0
0
0
0
0
0
0
0
0
0
0
0
0
0
0
0
0
0
0
0
0
0
0
0
0
0
0
0
0
0
0
0
0
0
0
0
0
0
0
0
0
0
0
0
0
0
0
0
0
0
0
0
0
0
0
0
0
0
0
0
0
0
0
0
0
0
0
0
0
0
0
0
0
0
0
0
0
0
0
0
0
0
0
0
0
0
0
0
0
0
0
0
0
0
0
0
0
0
0
0
0
0
0
0
0
0
0
0
0
0
0
0
0
0
0
0
0
0
0
0
0
0
0
0
0
0
0
0
0
0
0
0
0
0
0
0
0
0
0
0
0
0
0
0
0
0
0
0
0
0
0
0
0
0
0
0
0
0
0
0
0
0
0
0
0
0
0
0
0
0
0
0
0
0
0
0
0
0
0
0
0
0
0
0
0
0
0
0
0
0
0
0
0
0
0
0
0
0
0
0
0
0
0
0
0
0
0
0
0
0
0
0
0
0
0
0
0
0
0
0
0
0
0
0
0
0
0
0
0
0
0
0
0
0
0
0
0
0
0
0
0
0
0
0
0
0
0
0
0
0
0
0
0
0
0
0
0
0
0
0
0
0
0
0
0
0
0
0
0
0
0
0
0
0
0
0
0
0
0
0
0
0
0
0
0
0
0
0
0
0
0
0
0
0
0
0
0
0
0
0
0
0
0
0
0
0
0
0
0
0
0
0
0
0
0
0
0
0
0
0
0
0
0
0
0
0
0
0
0
0
0
0
0
0
0
0
0
0
0
0
0
0
0
0
0
0
0
0
0
0
0
0
0
0
0
0
0
0
0
0
0
0
0
0
0
0
0
0
0
0
0
0
0
0
0
0
0
0
0
0
0
0
0
0
0
0
0
0
0
0
0
0
0
0
0
0
0
0
0
0
0
0
0
0
0
0
0
0
0
0
0
0
0
0
0
0
0
0
0
0
0
0
0
0
0
0
0
0
0
0
0
0
0
0
0
0
0
0
0
0
0
0
0
0
0
0
0
0
0
0
0
0
0
0
0
0
0
0
0
0
0
0
0
0
0
0
0
0
0
0
0
0
0
0
0
0
0
0
0
0
0
0
0
0
0
0
0
0
0
0
0
0
0
0
0
0
0
0
0
0
0
0
0
0
0
0
0
0
0
0
0
0
0
0
0
0
0
0
0
0
0
0
0
0
0
0
0
0
0
0
0
0
0
0
0
0
0
0
0
0
0
0
0
0
0
0
0
0
0
0
0
0
0
0
0
0
0
0
0
0
0
0
0
0
0
0
0
0
0
0
0
0
0
0
0
0
0
0
0
0
0
0
0
0
0
0
0
0
0
0
0
0
0
0
0
0
0
0
0
0
0
0
0
0
0
0
0
0
0
0
0
0
0
0
0
0
0
0
0
0
0
0
0
0
0
0
0
0
0
0
0
0
0
0
0
0
0
0
0
0
0
0
0
0
0
0
0
0
0
0
0
0
0
0
0
0
0
0
0
0
0
0
0
0
0
0
0
0
0
0
0
0
0
0
0
0
0
0
0
0
0
0
0
0
0
0
0
0
0
0
0
0
0
0
0
0
0
0
0
0
0
0
0
0
0
0
0
0
0
0
0
0
0
0
0
0
0
0
0
0
0
0
0
0
0
0
0
0
0
0
0
0
0
0
0
0
0
0
0
0
0
0
0
0
0
0
0
0
0
0
0
0
0
0
0
0
0
0
0
0
0
0
0
0
0
0
0
0
0
0
0
0
0
0
0
0
0
0
0
0
0
0
0
0
0
0
0
0
0
0
0
0
0
0
0
0
0
0
0
0
0
0
0
0
0
0
0
0
0
0
0
0
0
0
0
0
0
0
0
0
0
0
0
0
0
0
0
0
0
0
0
0
0
0
0
0
0
0
0
0
0
0
0
0
0
0
0
0
0
0
0
0
0
0
0
0
0
0
0
0
