3.05179
3.04168
2.98186
2.87644
2.73356
2.56395
2.38025
2.19333
2.01131
1.83929
1.67997
1.53538
1.40698
1.29507
1.19862
1.11479
1.03851
0.963004
0.880895
0.785261
0.667607
0.522481
0.350822
0
-0.157618
0.794405
3.26667
6.95493
10.9392
14.2246
16.2063
16.6722
15.534
12.765
8.67737
4.14563
0.345265
-1.88283
-2.47755
-2.02047
-1.59018
-1.22066
-0.957802
-0.822244
-0.757703
-0.732742
-0.737321
-0.76087
-0.793556
-0.827102
-0.855772
-0.876006
-0.885557
-0.883351
-0.869477
-0.84506
-0.812096
-0.773203
-0.7312
-0.688699
-0.647651
-0.608967
-0.572316
-0.536126
-0.497762
-0.453806
-0.400387
-0.333457
-0.249052
-0.143623
-0.0141403
0.141644
0.324815
0.535024
0.770387
1.0276
1.30232
1.58969
1.88495
2.18383
2.48277
2.77841
3.06687
3.34253
3.59554
3.80998
3.97021
4.0578
4.05531
3.95201
3.74952
3.46412
3.12325
2.75662
2.38606
2.01864
1.65315
1.28822
0.923473
0.560025
0.201048
-0.148355
-0.481799
-0.792685
-1.07538
-1.32577
-1.54136
-1.72359
-1.87666
-2.00599
-2.11692
-2.2137
-2.29886
-2.37315
-2.43606
-2.48651
-2.52372
-2.54743
-2.55825
-2.55763
-2.54765
-2.53073
-2.50923
-2.48541
-2.46151
-2.43988
-2.42295
-2.41293
-2.41154
-2.41971
-2.43735
-2.46334
-2.49579
-2.53245
-2.57118
-2.61026
-2.64849
-2.68494
-2.71863
-2.74828
-2.77225
-2.78848
-2.79473
-2.78869
-2.76829
-2.73178
-2.67798
-2.60644
-2.51775
-2.41328
-2.29522
-2.16641
-2.02983
-1.88815
-1.74353
-1.5974
-1.45048
-1.3029
-1.15438
-1.00449
-0.852847
-0.699374
-0.544563
-0.389925
-0.238794
-0.0968674
0.0279716
0.127342
0.194209
0.224291
0.217533
0.178885
0.11813
0.0485695
-0.0153519
-0.0610596
-0.0823257
-0.071759
-0.0357353
0
-0.000736237
-0.0650208
-0.212434
-0.445567
-0.748477
-1.09005
-1.42364
-0.780898
1.21605
4.42776
8.106
11.2892
13.3489
14.1746
13.8738
12.4139
9.69234
5.96946
2.09926
-0.831873
-2.18707
-2.14509
-1.62465
-1.16075
-0.795654
-0.549476
-0.413178
-0.319505
-0.249571
-0.197305
-0.156069
-0.119115
-0.0802628
-0.0346786
0.0204422
0.0854523
0.158257
0.235478
0.313382
0.388474
0.458135
0.521403
0.579104
0.633658
0.688613
0.748035
0.815895
0.895588
0.989725
1.10017
1.22786
1.37393
1.53977
1.727
1.93717
2.17135
2.42957
2.71016
3.00955
3.32221
3.64088
3.9572
4.26237
4.54858
4.80981
5.0424
5.2449
5.41473
5.54668
5.63587
5.67863
5.66869
5.59919
5.46564
5.26825
5.01295
4.71028
4.37298
4.01451
3.64584
3.2731
2.90033
2.53155
2.17178
1.82746
1.50638
1.2179
0.978306
0.810819
0.720308
0.683939
0.669623
0.64644
0.594296
0.509004
0.401215
0.290247
0.195702
0.127128
0.0809982
0.0511986
0.033783
0.0243996
0.0189491
0.0142563
0.00830383
0.000106812
-0.0106133
-0.0236916
-0.0387276
-0.0552277
-0.0725182
-0.0897835
-0.106201
-0.121201
-0.134751
-0.147568
-0.161128
-0.177498
-0.198816
-0.226675
-0.261522
-0.302399
-0.346655
-0.390314
-0.428811
-0.457737
-0.473493
-0.473685
-0.457164
-0.423827
-0.374248
-0.309602
-0.231074
-0.139602
-0.0360741
0.078611
0.203711
0.337298
0.472774
0.597272
0.695719
0.754614
0.766119
0.73089
0.65825
0.563487
0.463317
0.371486
0.293752
0.229221
0.176094
0.13334
0.0994888
0.0725624
0.0497841
0.0272263
0
-0.036515
-0.0890579
-0.162845
-0.261753
-0.38859
-0.545902
-0.729121
-0.986089
-1.21716
-0.494814
1.58557
4.78295
8.27983
11.1709
12.9176
13.379
12.535
10.3483
6.97785
3.05353
-0.42653
-2.61056
-3.28022
-2.86313
-2.33787
-1.88842
-1.56958
-1.39743
-1.30024
-1.23268
-1.18339
-1.14831
-1.12447
-1.10919
-1.09957
-1.0923
-1.08337
-1.06804
-1.04118
-0.997732
-0.927237
-0.818712
-0.685249
-0.554543
-0.45659
-0.411442
-0.420373
-0.464869
-0.513915
-0.535758
-0.508185
-0.436906
-0.333828
-0.203126
-0.0447945
0.142007
0.358698
0.606321
0.88431
1.18946
1.51486
1.85186
2.19098
2.52299
2.84029
3.13783
3.41323
3.66498
3.89041
4.08507
4.24311
4.35581
4.40884
4.38696
4.27963
4.08537
3.81325
3.48116
3.1118
2.72902
2.3497
1.98167
1.6306
1.30132
0.997408
0.721368
0.474786
0.258331
0.0716965
-0.0864777
-0.218604
-0.327961
-0.418462
-0.494429
-0.559981
-0.618626
-0.673043
-0.725088
-0.776038
-0.826923
-0.878906
-0.933286
-0.991203
-1.05306
-1.11794
-1.18324
-1.24494
-1.29827
-1.3389
-1.3641
-1.3724
-1.36563
-1.34747
-1.32236
-1.29437
-1.26664
-1.24123
-1.2197
-1.20344
-1.19359
-1.19091
-1.19495
-1.20327
-1.21114
-1.21197
-1.19836
-1.16356
-1.10461
-1.0217
-0.915416
-0.787392
-0.640741
-0.479814
-0.309767
-0.136294
0.0336784
0.192182
0.331763
0.446011
0.530144
0.581373
0.598968
0.584142
0.539915
0.471094
0.384982
0.290096
0.194896
0.107906
0.0387375
0.000819397
-0.0050209
0
-0.0243149
-0.103315
-0.26162
-0.508239
-0.835088
-1.22033
-1.63447
-2.03462
-1.69766
-0.284928
2.33653
5.7616
9.17005
11.7689
13.1491
13.2534
12.1024
9.69532
6.24088
2.39837
-0.874859
-2.83864
-3.39536
-2.97033
-2.47013
-2.02485
-1.69674
-1.48482
-1.33228
-1.2082
-1.10349
-1.015
-0.940273
-0.876755
-0.821069
-0.770084
-0.722125
-0.678362
-0.644467
-0.628469
-0.636185
-0.666857
-0.711103
-0.752367
-0.771309
-0.751265
-0.688975
-0.592744
-0.468187
-0.319032
-0.149981
0.0342636
0.229968
0.434657
0.647213
0.867636
1.0966
1.3349
1.58301
1.84074
2.10722
2.38111
2.66085
2.94507
3.23271
3.52322
3.81642
4.11133
4.40104
4.66682
4.88151
5.01621
5.0494
4.97332
4.79434
4.52808
4.19318
3.80828
3.39865
2.98466
2.5785
2.18857
1.82203
1.48609
1.18731
0.930264
0.716725
0.545968
0.414936
0.318622
0.25063
0.203838
0.171035
0.145444
0.121056
0.0928284
0.0567032
0.00984726
-0.0491379
-0.119914
-0.201271
-0.288087
-0.369686
-0.433028
-0.465851
-0.459932
-0.413716
-0.333404
-0.231857
-0.126319
-0.0342026
0.030825
0.0615967
0.058316
0.027401
-0.0211281
-0.0767441
-0.130976
-0.17953
-0.221014
-0.254724
-0.280141
-0.296608
-0.303093
-0.298264
-0.280857
-0.250132
-0.206393
-0.151025
-0.086277
-0.0150879
0.0593239
0.133865
0.205806
0.272852
0.332965
0.383889
0.42262
0.445996
0.451729
0.438454
0.406535
0.358649
0.299783
0.236534
0.175821
0.123413
0.0820633
0.0518082
0.0307861
0.0151947
0
-0.0151184
-0.0411682
-0.0831558
-0.145941
-0.255755
-0.535761
-1.0979
-1.83541
-2.62139
-3.04009
-2.28479
-0.00762634
3.44881
7.05635
9.73794
11.0588
11.2965
10.8562
9.71493
7.54494
4.35567
0.875987
-1.81824
-3.07731
-3.08361
-2.83681
-2.60161
-2.38897
-2.21154
-2.07502
-1.98034
-1.92332
-1.89471
-1.88116
-1.86723
-1.83845
-1.78457
-1.70318
-1.60185
-1.48878
-1.37153
-1.25829
-1.15564
-1.06733
-0.99352
-0.930798
-0.872769
-0.811055
-0.736496
-0.640479
-0.517402
-0.364325
-0.180364
0.0324242
0.270278
0.528011
0.79508
1.06206
1.32309
1.57741
1.82927
2.08637
2.35719
2.64816
2.96072
3.29032
3.63203
3.97874
4.31276
4.60906
4.84446
5.00047
5.06721
5.04579
4.94686
4.78556
4.57519
4.32362
4.04338
3.74391
3.42997
3.10556
2.7759
2.44749
2.12752
1.82307
1.54034
1.28402
1.05693
0.859938
0.692117
0.551015
0.433232
0.33501
0.252756
0.183422
0.124705
0.0751221
0.0338364
0.000482178
-0.0249031
-0.0419861
-0.050267
-0.0493057
-0.039035
-0.0196976
0.00728149
0.0382233
0.0673424
0.0881493
0.094751
0.0831764
0.0523621
0.0045227
-0.0551338
-0.119225
-0.17934
-0.228162
-0.260509
-0.272057
-0.260818
-0.226784
-0.170259
-0.097879
-0.0207634
0.0501595
0.106826
0.14588
0.168987
0.181544
0.190379
0.201463
0.218146
0.241478
0.272604
0.313166
0.365955
0.434838
0.523888
0.636288
0.780257
0.956635
1.14421
1.31137
1.42792
1.47439
1.44722
1.358
1.22728
1.07617
0.92001
0.766447
0.6179
0.476241
0.344735
0.227632
0.129442
0.0553864
0.0104584
-0.00402679
0
-0.00152054
-0.0409149
-0.141847
-0.313989
-0.548636
-0.819904
-1.31503
-0.54577
1.96962
5.76376
9.59584
12.2778
13.412
13.3514
12.5217
10.9169
8.31872
4.9154
1.52518
-0.885384
-1.88746
-1.76228
-1.41212
-1.07873
-0.782436
-0.539464
-0.35508
-0.210363
-0.101125
-0.0239456
0.0277435
0.0633781
0.094368
0.132668
0.189006
0.269675
0.376143
0.506815
0.657839
0.823824
0.997843
1.17301
1.34349
1.50516
1.65568
1.79353
1.91803
2.03096
2.13559
2.23714
2.34334
2.46442
2.6122
2.79817
3.03101
3.31438
3.6415
4.00176
4.38362
4.77401
5.15952
5.52793
5.86887
6.17422
6.43938
6.66257
6.84324
6.9797
7.06756
7.10037
7.07338
6.98121
6.8199
6.58945
6.2958
5.95158
5.57507
5.18751
4.80913
4.45209
4.12378
3.82796
3.56406
3.32827
3.11515
2.91935
2.73687
2.56589
2.40678
2.26142
2.13248
2.02375
1.93796
1.87086
1.81526
1.76369
1.71125
1.6575
1.60664
1.56578
1.54189
1.53877
1.55454
1.58342
1.61668
1.64533
1.66275
1.66651
1.65872
1.6452
1.63356
1.63072
1.6403
1.66343
1.69978
1.74465
1.78961
1.82563
1.84546
1.8456
1.82755
1.79791
1.76717
1.74761
1.75049
1.78123
1.83906
1.91989
2.01916
2.13028
2.24512
2.35649
2.45944
2.55186
2.63408
2.70788
2.77366
2.82972
2.87125
2.8896
2.87518
2.82119
2.72675
2.59818
2.44779
2.29068
2.14042
2.00285
1.87727
1.76144
1.64951
1.53344
1.40453
1.25507
1.07745
0.861304
0.610236
0.332972
0
0.0521721
0.999917
3.11258
6.13654
9.32793
11.9024
13.4578
13.9368
13.2603
11.1968
7.73992
3.56417
-0.0902504
-2.15982
-2.46521
-1.69539
-0.967249
-0.46181
-0.208666
-0.0861549
0.0223618
0.127734
0.230849
0.331155
0.427568
0.518823
0.603687
0.680986
0.749683
0.809034
0.858802
0.899451
0.932259
0.959459
0.984285
1.01086
1.0439
1.0882
1.1481
1.22683
1.32596
1.44557
1.58457
1.74112
1.91342
2.10026
2.30173
2.51939
2.75597
3.01458
3.29766
3.6059
3.93744
4.28745
4.6485
5.0112
5.36466
5.69502
5.987
6.23045
6.41844
6.54737
6.61667
6.62797
6.58411
6.48816
6.34296
6.15159
5.92158
5.66081
5.37645
5.07605
4.76847
4.46325
4.16934
3.89455
3.64476
3.42351
3.2319
3.06881
2.93131
2.81533
2.7162
2.62923
2.55025
2.47598
2.40443
2.33506
2.269
2.20895
2.15882
2.12335
2.10953
2.12976
2.194
2.28644
2.37799
2.43748
2.44301
2.39034
2.29479
2.18572
2.09594
2.04985
2.04365
2.06279
2.09831
2.14082
2.18152
2.21412
2.23585
2.24742
2.25199
2.25388
2.25739
2.26562
2.28104
2.30551
2.34019
2.38516
2.44051
2.50305
2.56464
2.61541
2.64622
2.65134
2.62994
2.58597
2.52636
2.45833
2.387
2.31399
2.23826
2.15722
2.06748
1.96565
1.84902
1.71521
1.5621
1.38879
1.19702
0.991583
0.779565
0.569883
0.368703
0.178528
0
-0.0347504
0.583514
2.16814
4.7013
7.67963
10.3689
12.2082
12.9847
12.6761
11.2402
8.67217
5.27447
1.76421
-1.01038
-2.53701
-2.8064
-2.2713
-1.68773
-1.0933
-0.567188
-0.207297
0.0236229
0.163651
0.213551
0.188087
0.113113
0.0190987
-0.0665092
-0.126907
-0.161464
-0.174532
-0.168131
-0.14239
-0.0975403
-0.0339424
0.0476074
0.145485
0.256728
0.377463
0.503599
0.631221
0.757285
0.880362
1.00127
1.12329
1.25194
1.39437
1.55826
1.75055
1.97613
2.23675
2.53046
2.85172
3.19271
3.54448
3.89817
4.24577
4.57919
4.88848
5.16175
5.38846
5.55824
5.65721
5.6722
5.59619
5.43203
5.19275
4.89834
4.57068
4.23027
3.88958
3.55337
3.22391
2.90281
2.59094
2.28888
1.99737
1.71788
1.45285
1.20576
0.980729
0.781834
0.613047
0.47773
0.375813
0.300824
0.243672
0.194944
0.147181
0.0965683
0.043438
-0.00852203
-0.0541313
-0.0889748
-0.1109
-0.120676
-0.124645
-0.130785
-0.145416
-0.170454
-0.202377
-0.233385
-0.254298
-0.257958
-0.243372
-0.215013
-0.177299
-0.136048
-0.0970848
-0.0648529
-0.0422272
-0.0302536
-0.0282906
-0.0340416
-0.0443855
-0.0555817
-0.0633995
-0.0633003
-0.0510071
-0.0229904
0.0230728
0.0879288
0.170564
0.268334
0.377132
0.491874
0.606933
0.715836
0.810193
0.881003
0.920969
0.924315
0.888174
0.814002
0.708353
0.582486
0.450638
0.327338
0.222523
0.138393
0.074884
0.0307243
0
-0.0278168
-0.0731926
-0.153871
-0.284673
-0.515299
-0.838504
-1.22661
-1.83322
-1.72897
-0.371283
2.38476
6.14525
10.0683
13.224
14.9533
14.9792
13.3043
10.142
6.0061
1.77083
-1.55322
-3.2916
-3.46804
-2.87462
-2.37194
-1.98299
-1.72903
-1.60367
-1.52541
-1.47276
-1.44117
-1.42819
-1.43264
-1.45433
-1.4929
-1.54666
-1.61382
-1.68699
-1.75554
-1.80848
-1.83672
-1.83476
-1.80107
-1.73738
-1.64731
-1.53502
-1.40642
-1.26637
-1.11782
-0.96308
-0.804166
-0.642503
-0.478541
-0.311491
-0.139326
0.0408653
0.232204
0.437218
0.657131
0.891471
1.13818
1.39418
1.65633
1.92232
2.19153
2.46655
2.7602
3.11256
3.54671
3.99011
4.34079
4.51797
4.49171
4.28409
3.94897
3.54647
3.12712
2.72598
2.34999
1.99415
1.65443
1.32949
1.02026
0.728997
0.458002
0.209502
-0.0146927
-0.213541
-0.387056
-0.536443
-0.663975
-0.772627
-0.865543
-0.94546
-1.01425
-1.07261
-1.1203
-1.15649
-1.18038
-1.19173
-1.19105
-1.18009
-1.1621
-1.14103
-1.12051
-1.10303
-1.0894
-1.07871
-1.06867
-1.05647
-1.03963
-1.01698
-0.988944
-0.9574
-0.925902
-0.898841
-0.879953
-0.871077
-0.871253
-0.87647
-0.880199
-0.874663
-0.852563
-0.808802
-0.743246
-0.659416
-0.561769
-0.455979
-0.348177
-0.243887
-0.147006
-0.0592834
0.0196754
0.0919167
0.160307
0.227569
0.295437
0.364084
0.431702
0.494875
0.549297
0.590588
0.615078
0.620354
0.605558
0.571439
0.520316
0.455878
0.382211
0.303617
0.224014
0.146307
0.0717697
0
-0.0684113
-0.139716
-0.219634
-0.322645
-0.505302
-0.8672
-1.38175
-1.97647
-2.37707
-1.80186
0.274704
3.85698
8.20864
12.22
15.038
16.3484
16.1125
14.2385
10.7186
6.09535
1.58958
-1.4816
-2.54655
-2.07485
-1.79131
-1.54698
-1.36216
-1.24462
-1.18606
-1.16772
-1.16832
-1.17089
-1.16772
-1.15695
-1.13769
-1.1097
-1.07273
-1.02644
-0.97081
-0.906725
-0.836662
-0.76369
-0.691345
-0.622794
-0.559862
-0.502356
-0.447847
-0.391953
-0.329047
-0.253159
-0.158784
-0.0415169
0.101157
0.270613
0.468365
0.695286
0.951506
1.23619
1.54733
1.88166
2.23479
2.60176
2.9775
3.35719
3.73634
4.10963
4.47071
4.81145
5.11915
5.37547
5.56791
5.68549
5.71741
5.65627
5.50265
5.26779
4.97186
4.63868
4.29053
3.94488
3.60864
3.28478
2.97669
2.68756
2.41951
2.17368
1.95035
1.74936
1.57045
1.41389
1.28044
1.17077
1.08529
1.02367
0.984491
0.965227
0.962066
0.970551
0.98618
1.00497
1.02382
1.04074
1.05472
1.06577
1.07471
1.08314
1.09329
1.10778
1.12916
1.15927
1.19965
1.24991
1.30353
1.34891
1.37432
1.3724
1.34367
1.29746
1.24935
1.21635
1.21141
1.23609
1.28249
1.34637
1.42322
1.5088
1.59985
1.69465
1.79254
1.89345
1.99739
2.10422
2.21371
2.32549
2.43916
2.55434
2.67059
2.78736
2.90386
3.01887
3.13066
3.23664
3.33282
3.41293
3.46905
3.49398
3.48137
3.42745
3.33261
3.20209
3.04537
2.87435
2.70062
2.53242
2.37216
2.21935
2.07155
1.92441
1.77224
1.60703
1.41236
1.15145
0.816726
0.424069
0
-0.0607925
0.871088
3.15255
6.59816
10.4864
13.9252
16.242
17.0839
16.294
13.8715
10.1386
5.86869
2.07604
-0.468397
-1.59317
-1.64604
-1.26494
-0.90834
-0.600456
-0.35783
-0.186251
-0.0580956
0.0437996
0.126028
0.193699
0.250298
0.29694
0.333043
0.357045
0.367576
0.364992
0.352421
0.335652
0.323124
0.323451
0.343266
0.385696
0.450031
0.532661
0.628839
0.734446
0.846675
0.964999
1.09012
1.22331
1.3657
1.51784
1.68141
1.85861
2.05225
2.26545
2.50125
2.76193
3.04793
3.35846
3.69121
4.04394
4.41373
4.7918
5.15807
5.48462
5.7458
5.92117
5.99842
5.97486
5.85712
5.659
5.39829
5.09334
4.76361
4.42438
4.08441
3.74881
3.42181
3.10799
2.81197
2.53818
2.29048
2.07163
1.88291
1.72414
1.59331
1.48526
1.39332
1.31062
1.23121
1.15107
1.06874
0.985322
0.904105
0.829807
0.767132
0.720371
0.693065
0.68837
0.710151
0.758666
0.822075
0.883009
0.924565
0.935283
0.912696
0.86389
0.802688
0.744535
0.701217
0.674186
0.65908
0.652761
0.651516
0.652036
0.652322
0.65212
0.652873
0.657338
0.668821
0.690552
0.725616
0.776787
0.846149
0.934872
1.04306
1.16965
1.31276
1.46962
1.6357
1.8038
1.96294
2.0992
2.19926
2.2517
2.24906
2.19004
2.08081
1.93507
1.77217
1.61357
1.47717
1.36973
1.29053
1.23935
1.21119
1.19751
1.18767
1.16888
1.12869
1.05677
0.94627
0.79158
0.595379
0.365249
0
0.0370243
1.09884
3.42736
6.89433
10.9516
14.707
17.148
17.4746
15.4308
11.4668
6.61036
2.07769
-1.19117
-2.83212
-3.06182
-2.36163
-1.60949
-0.939873
-0.485137
-0.310184
-0.23183
-0.181131
-0.143776
-0.114885
-0.0897514
-0.0635479
-0.0317848
0.00919609
0.0617394
0.126735
0.203767
0.291304
0.387005
0.488233
0.592608
0.698546
0.805576
0.914403
1.02667
1.14448
1.26987
1.40432
1.54845
1.70212
1.86482
2.03613
2.21641
2.40723
2.61145
2.833
3.07613
3.3444
3.63967
3.96117
4.30517
4.66571
5.03407
5.39789
5.74014
6.03941
6.27652
6.43905
6.51686
6.50206
6.39031
6.18314
5.89008
5.52926
5.12589
4.70938
4.30276
3.91701
3.55752
3.22941
2.93476
2.67286
2.44091
2.23476
2.04977
1.88145
1.72602
1.58069
1.44375
1.31451
1.19311
1.08037
0.977581
0.886406
0.808716
0.746356
0.700959
0.673649
0.664723
0.673368
0.697967
0.735984
0.782866
0.831273
0.873444
0.903288
0.917938
0.918683
0.910841
0.902413
0.901814
0.915311
0.944544
0.988601
1.03941
1.08653
1.1207
1.13714
1.13722
1.12814
1.12056
1.12529
1.14987
1.19442
1.25525
1.32907
1.41267
1.50316
1.59842
1.69704
1.79783
1.8991
1.99774
2.08908
2.16747
2.22717
2.26332
2.27278
2.25445
2.20928
2.13999
2.05091
1.94775
1.83634
1.72188
1.60848
1.49857
1.39257
1.28793
1.17888
1.05763
0.916101
0.745678
0.539187
0.300112
0
-0.184262
0.549987
2.60732
6.04607
10.427
14.8354
18.1187
19.2799
17.8794
14.2522
9.4019
4.59996
0.887396
-1.26232
-1.96993
-1.70094
-1.05626
-0.445486
0.0581755
0.391866
0.587743
0.724895
0.829726
0.905755
0.953597
0.975881
0.977495
0.965463
0.948393
0.935523
0.935507
0.954379
0.99478
1.05703
1.1398
1.23983
1.35276
1.47401
1.59972
1.72752
1.85677
1.98853
2.12524
2.27025
2.42725
2.59992
2.79163
3.00531
3.24348
3.50819
3.80061
4.12063
4.46632
4.8336
5.21619
5.60626
5.9933
6.36448
6.70437
6.99485
7.22176
7.37908
7.46408
7.47713
7.42183
7.30475
7.13421
6.91837
6.66378
6.3788
6.07368
5.75601
5.43145
5.1061
4.78667
4.47973
4.1909
3.92435
3.68273
3.46748
3.2794
3.11931
2.98788
2.88553
2.81365
2.77339
2.76177
2.7709
2.79113
2.81268
2.82744
2.83032
2.81983
2.7978
2.76843
2.73687
2.70761
2.68331
2.6646
2.65033
2.63817
2.62508
2.60804
2.58491
2.55503
2.5195
2.48108
2.44365
2.41138
2.38774
2.37521
2.37426
2.38291
2.39783
2.41526
2.43201
2.44598
2.45634
2.46319
2.46718
2.46928
2.47042
2.4717
2.47461
2.48122
2.4942
2.51628
2.54979
2.59612
2.65607
2.72736
2.80556
2.88491
2.95913
3.02119
3.0651
3.08707
3.08541
3.0605
3.01454
2.95102
2.87399
2.78744
2.695
2.60025
2.50606
2.41504
2.32959
2.25128
2.18032
2.11438
2.04683
1.96743
1.8638
1.71432
1.45058
1.07928
0.637967
0
0.17113
1.69856
4.79548
9.18741
14.1056
18.448
21.0739
21.1781
18.6277
14.0916
8.83993
4.25039
1.25291
0.013155
0.0177636
0.246753
0.355118
0.450334
0.537811
0.623129
0.710171
0.80035
0.892335
0.982356
1.06523
1.13577
1.19038
1.22755
1.24826
1.25558
1.25395
1.24832
1.24349
1.2434
1.25144
1.27074
1.30403
1.35351
1.42068
1.5061
1.60943
1.72964
1.8652
2.0144
2.17592
2.34915
2.53434
2.73256
2.94558
3.1755
3.42438
3.69379
3.98449
4.29611
4.62702
4.97434
5.33562
5.70611
6.07175
6.40754
6.68744
6.88861
6.99597
7.00485
6.92065
6.75606
6.52743
6.25214
5.9501
5.63736
5.32243
5.00915
4.69887
4.39161
4.08682
3.78393
3.48319
3.1864
2.8973
2.62187
2.36846
2.14527
1.95929
1.81519
1.71436
1.65467
1.63075
1.63485
1.65801
1.69124
1.72648
1.75767
1.78067
1.79326
1.79501
1.78685
1.77061
1.74855
1.72288
1.6954
1.66735
1.63944
1.61204
1.58561
1.56102
1.53996
1.52526
1.52046
1.5289
1.55294
1.59308
1.64737
1.71152
1.77966
1.84547
1.90359
1.95118
1.98723
2.01285
2.03095
2.04562
2.06163
2.08375
2.11687
2.16576
2.2347
2.32711
2.44508
2.58874
2.75671
2.94716
3.15653
3.37628
3.58976
3.77717
3.92068
4.00725
4.03123
3.99574
3.91225
3.7981
3.67222
3.55057
3.44061
3.34149
3.24933
3.15967
3.06748
2.9669
2.85161
2.71519
2.55143
2.35495
2.1094
1.76263
1.30024
0.74978
0.151295
0
0.963284
3.47591
7.57709
12.7148
17.7969
21.4977
22.7189
21.0222
16.8405
11.3433
5.98383
1.92323
-0.37443
-1.17482
-1.14708
-1.01694
-0.886332
-0.755391
-0.625077
-0.497746
-0.377389
-0.269577
-0.181305
-0.119507
-0.0893226
-0.0930576
-0.128974
-0.190687
-0.267522
-0.34603
-0.41246
-0.455607
-0.471149
-0.458926
-0.422709
-0.369125
-0.305383
-0.237104
-0.166958
-0.0943146
-0.0159931
0.0730955
0.179113
0.307999
0.465374
0.656217
0.884163
1.15107
1.45674
1.79869
2.17217
2.57024
2.9841
3.40387
3.81745
4.21017
4.56593
4.8693
5.11055
5.28527
5.39328
5.43802
5.42574
5.36419
5.26117
5.12272
4.9517
4.74973
4.51805
4.25762
3.96952
3.65607
3.32265
2.97836
2.63535
2.30726
2.00764
1.75094
1.5528
1.41953
1.3403
1.29915
1.28055
1.27404
1.27634
1.29022
1.32092
1.38038
1.4602
1.53596
1.57739
1.56213
1.4869
1.37013
1.24467
1.14413
1.08939
1.06751
1.06582
1.07508
1.08563
1.08995
1.08414
1.06837
1.04606
1.02243
1.00263
0.98978
0.984774
0.986996
0.994614
1.00432
1.01242
1.01606
1.01413
1.00771
0.999951
0.995339
0.998545
1.01327
1.04091
1.08133
1.13268
1.19214
1.25674
1.32397
1.39247
1.46194
1.53297
1.60668
1.6844
1.76727
1.85592
1.95023
2.04878
2.1475
2.23869
2.31249
2.35837
2.36718
2.33325
2.25599
2.14048
1.99674
1.83763
1.67599
1.52084
1.37523
1.23797
1.10595
0.973938
0.83581
0.685972
0.51861
0.3299
0.123455
-0.0931412
-0.331839
0
1.36785
4.05833
7.92849
12.2924
16.0526
18.0652
17.5962
14.6539
10.0226
4.95764
0.682056
-2.06628
-3.21879
-3.22831
-2.82763
-2.45038
-2.11859
-1.85035
-1.65829
-1.51387
-1.40184
-1.31887
-1.26008
-1.21917
-1.18938
-1.16444
-1.13941
-1.11132
-1.07892
-1.04172
-0.999583
-0.952445
-0.900013
-0.841703
-0.776677
-0.703999
-0.62275
-0.532135
-0.431545
-0.320551
-0.19882
-0.065966
0.0786434
0.236068
0.407915
0.596327
0.803799
1.03283
1.28542
1.56257
1.86378
2.18671
2.52717
2.87967
3.23738
3.59042
3.9272
4.23555
4.50138
4.70847
4.8479
4.91298
4.89725
4.79732
4.6169
4.36908
4.07464
3.75668
3.43454
3.11888
2.81203
2.51576
2.23348
1.96904
1.7265
1.50955
1.32084
1.16107
1.02811
0.916886
0.820753
0.732864
0.647513
0.561153
0.472821
0.38392
0.297484
0.217183
0.146157
0.0868492
0.0406769
0.00816002
-0.0107834
-0.0165466
-0.00972061
0.00879593
0.0376942
0.0750545
0.117494
0.159552
0.194769
0.217213
0.222839
0.210525
0.182492
0.143933
0.102002
0.0644745
0.038142
0.0268116
0.0322605
0.0557285
0.0974762
0.156458
0.230451
0.316401
0.410836
0.510071
0.61101
0.711813
0.812217
0.913448
1.0177
1.12729
1.24375
1.36715
1.49569
1.62614
1.75433
1.87573
1.98597
2.08094
2.15575
2.20504
2.22523
2.21343
2.16828
2.09103
1.98635
1.8624
1.72984
1.60005
1.48277
1.38267
1.30172
1.23694
1.17948
1.11594
1.03274
0.919333
0.767626
0.579933
0.365389
-0.157362
0
1.48254
4.46201
8.54311
12.8488
16.3045
17.9836
17.4003
14.6704
10.49
5.91556
2.00051
-0.566025
-1.64423
-1.56718
-0.890422
-0.260745
0.245578
0.559638
0.686217
0.753778
0.798352
0.828374
0.847603
0.859707
0.868233
0.876819
0.88923
0.909083
0.939243
0.98108
1.03464
1.09715
1.1625
1.22365
1.2747
1.31267
1.33861
1.35766
1.37816
1.41004
1.462
1.53897
1.64388
1.77807
1.94056
2.12837
2.33725
2.56208
2.79814
3.04162
3.2897
3.54006
3.79017
4.0367
4.27505
4.49979
4.70525
4.88634
5.03912
5.16087
5.24925
5.30145
5.31475
5.28575
5.21044
5.0852
4.90828
4.68113
4.40942
4.10307
3.77549
3.44193
3.11642
2.80999
2.53023
2.28053
2.06011
1.86426
1.68616
1.51869
1.35623
1.19587
1.0387
0.89056
0.760152
0.65639
0.585954
0.551777
0.552684
0.583982
0.638602
0.708162
0.784112
0.859822
0.930429
0.992632
1.04473
1.08639
1.1179
1.14016
1.15445
1.16207
1.16407
1.16151
1.15565
1.14813
1.14125
1.13802
1.14183
1.15582
1.18223
1.22183
1.2738
1.33598
1.40555
1.47983
1.55676
1.6354
1.71575
1.79834
1.88386
1.97273
2.06489
2.15967
2.25574
2.35114
2.44303
2.52784
2.60149
2.65943
2.69674
2.70774
2.68824
2.6355
2.54925
2.43244
2.29172
2.13717
1.98111
1.83606
1.713
1.62801
1.58321
1.55131
1.49332
1.37202
1.16541
0.874698
0.523406
-0.111436
0
1.39805
4.2546
8.27378
12.7132
16.5433
18.7321
18.5815
16.0061
11.6197
6.54342
1.99473
-1.15823
-2.65466
-2.7974
-2.19762
-1.65277
-1.21853
-0.934213
-0.805661
-0.735509
-0.691824
-0.671828
-0.673028
-0.693793
-0.732412
-0.786035
-0.849973
-0.917701
-0.981583
-1.03406
-1.06947
-1.08462
-1.07748
-1.04777
-0.996376
-0.925207
-0.836791
-0.733328
-0.616674
-0.488536
-0.350512
-0.20395
-0.0496792
0.112302
0.28309
0.464958
0.661192
0.875601
1.11177
1.37212
1.65704
1.96419
2.28825
2.62117
2.9528
3.27088
3.56268
3.8168
4.02387
4.17636
4.26858
4.29778
4.26277
4.16389
4.00362
3.78727
3.52352
3.22419
2.90333
2.5754
2.25303
1.94406
1.65359
1.38389
1.13466
0.9039
0.688956
0.487601
0.298893
0.125014
-0.0296452
-0.160145
-0.26118
-0.328708
-0.361357
-0.36124
-0.333992
-0.28809
-0.233215
-0.180766
-0.14175
-0.124426
-0.13312
-0.167575
-0.223048
-0.291372
-0.36288
-0.428707
-0.482998
-0.524816
-0.554292
-0.571877
-0.577472
-0.569462
-0.544563
-0.498673
-0.424212
-0.305685
-0.152779
0.00223198
0.121469
0.176564
0.160335
0.0893908
-0.00309925
-0.0804874
-0.115425
-0.11043
-0.079039
-0.0297287
0.031554
0.0988958
0.166541
0.229961
0.286359
0.334812
0.376102
0.412318
0.446316
0.481156
0.519626
0.563773
0.614898
0.673726
0.740445
0.814935
0.896902
0.986043
1.08202
1.18462
1.29351
1.40591
1.51248
1.59826
1.64574
1.63966
1.57206
1.44588
1.27525
1.08207
0.889824
0.715083
0.560222
0.420542
0.290488
0.161381
0.0232288
-0.134113
-0.329132
-0.58206
-0.883078
-1.212
-1.57346
-1.33145
0
2.76656
6.86563
11.6355
15.9564
18.6006
18.7053
16.1607
11.6978
6.59691
2.14449
-0.866985
-2.33533
-2.67751
-2.38622
-2.09728
-1.81814
-1.56503
-1.35489
-1.204
-1.1236
-1.11541
-1.16898
-1.26232
-1.36639
-1.45233
-1.5004
-1.51212
-1.49819
-1.46689
-1.42489
-1.37942
-1.33677
-1.30088
-1.27252
-1.24906
-1.22481
-1.1921
-1.14259
-1.0689
-0.965848
-0.832307
-0.670757
-0.484594
-0.276727
-0.0498339
0.194005
0.453358
0.727077
1.01372
1.31103
1.61565
1.92328
2.22916
2.52876
2.81833
3.09501
3.35601
3.59778
3.81558
4.00375
4.15673
4.26683
4.32568
4.32589
4.26253
4.13398
3.94228
3.69326
3.39677
3.06919
2.72726
2.38511
2.05396
1.74312
1.46062
1.21188
0.999356
0.823305
0.680898
0.564127
0.463696
0.370885
0.279227
0.185559
0.0902256
-0.00360336
-0.091198
-0.167697
-0.230333
-0.277
-0.30691
-0.320162
-0.318121
-0.302875
-0.27689
-0.243168
-0.205861
-0.169376
-0.137931
-0.115114
-0.103603
-0.105099
-0.1204
-0.149451
-0.190688
-0.241637
-0.298948
-0.357841
-0.411929
-0.453285
-0.474428
-0.46959
-0.436071
-0.374358
-0.284784
-0.180636
-0.0779701
0.00849686
0.0691093
0.101315
0.109373
0.102091
0.0897415
0.0814499
0.0820713
0.0943272
0.121341
0.165811
0.229949
0.315056
0.4209
0.545179
0.682886
0.827849
0.972367
1.10824
1.22768
1.32398
1.39173
1.42622
1.42432
1.38501
1.30933
1.20102
1.06686
0.916631
0.762164
0.615637
0.487271
0.389459
0.328289
0.286111
0.235602
0.149527
0.0109097
-0.1803
-0.423251
-0.768093
0
2.36675
6.35532
11.3869
16.3567
19.9386
21.0457
19.2688
15.0855
9.70643
4.59631
0.897456
-0.95849
-1.26968
-0.75668
-0.531007
-0.32543
-0.154012
-0.0240116
0.0750156
0.147803
0.202149
0.247387
0.292798
0.346233
0.413501
0.497854
0.600099
0.720731
0.859915
1.01724
1.19139
1.37962
1.57775
1.77925
1.97487
2.15555
2.31469
2.44997
2.56439
2.66591
2.766
2.87753
3.01209
3.17646
3.37489
3.61043
3.88446
4.19662
4.54505
4.92649
5.33616
5.76765
6.21287
6.66245
7.10331
7.51807
7.88658
8.18984
8.41664
8.56018
8.61747
8.58878
8.47765
8.29132
8.04096
7.74113
7.40819
7.05946
6.7078
6.36055
6.02222
5.69672
5.38735
5.09701
4.82821
4.58293
4.36272
4.16722
3.99398
3.83953
3.7003
3.57366
3.45866
3.35629
3.26898
3.19977
3.15096
3.12355
3.11658
3.12704
3.15055
3.18208
3.21662
3.25052
3.28222
3.31237
3.34359
3.37944
3.42374
3.48112
3.5518
3.6252
3.68598
3.71944
3.71714
3.6804
3.61981
3.551
3.48838
3.4396
3.40137
3.36882
3.3374
3.30459
3.27174
3.24416
3.22961
3.23548
3.2659
3.31723
3.38434
3.45964
3.53471
3.60229
3.65786
3.70031
3.73152
3.75514
3.77508
3.79391
3.81198
3.8269
3.83415
3.82831
3.80451
3.75951
3.6925
3.60511
3.50099
3.38516
3.26268
3.1368
3.00837
2.87521
2.73206
2.57082
2.38173
2.15505
1.86685
1.46541
0.969606
0.419621
-0.173365
0
1.37458
4.26013
8.52666
13.4578
17.8551
20.4181
20.2515
17.2671
12.2709
6.66301
1.87767
-1.16356
-2.31856
-2.10113
-1.58945
-1.14484
-0.812549
-0.602103
-0.463547
-0.344553
-0.229715
-0.100284
0.0677185
0.270944
0.468899
0.610307
0.653758
0.584005
0.419188
0.20683
0.00984001
-0.112852
-0.143447
-0.108776
-0.0324215
0.0740864
0.204621
0.353919
0.517466
0.692141
0.876319
1.0696
1.2722
1.48424
1.70511
1.93321
2.16618
2.40142
2.63698
2.87232
3.10867
3.34891
3.59691
3.85652
4.13055
4.42077
4.72937
5.05528
5.38232
5.67883
5.9118
6.05446
6.09302
6.03011
5.88285
5.67545
5.42928
5.15559
4.86112
4.55117
4.23011
3.90222
3.57301
3.24982
2.94118
2.65547
2.3995
2.17792
1.99412
1.84761
1.72932
1.62839
1.53508
1.44326
1.35156
1.26287
1.18249
1.11548
1.06604
1.0327
1.01031
0.992245
0.973013
0.95005
0.924112
0.898256
0.876105
0.859855
0.849355
0.84368
0.841036
0.838763
0.833485
0.820761
0.796791
0.759113
0.707798
0.646375
0.581888
0.523764
0.481546
0.467836
0.490017
0.536904
0.589474
0.629431
0.647552
0.647854
0.645678
0.66081
0.708889
0.790183
0.892492
1.00622
1.12049
1.22372
1.30518
1.35472
1.36609
1.33624
1.26558
1.15803
1.02098
0.864709
0.701157
0.542187
0.397573
0.271339
0.164471
0.0754166
-9.15527e-005
-0.0679962
-0.134706
-0.205942
-0.285838
-0.376559
-0.477802
-0.610541
-0.685631
0
1.89629
5.10696
9.20168
13.2558
16.1263
16.8707
15.1357
11.3374
6.5264
1.98019
-1.29817
-2.92601
-3.16527
-2.63383
-2.13129
-1.68839
-1.33278
-1.08845
-0.90881
-0.773208
-0.682932
-0.634646
-0.619849
-0.625761
-0.637653
-0.641979
-0.62926
-0.598231
-0.552116
-0.493477
-0.425303
-0.349913
-0.268338
-0.180457
-0.0857784
0.0155422
0.121923
0.230274
0.336618
0.43755
0.531892
0.622074
0.714755
0.820416
0.951934
1.12235
1.34129
1.61216
1.93291
2.29676
2.69226
3.10408
3.51469
3.90614
4.26278
4.57271
4.82851
5.02671
5.16415
5.24198
5.26348
5.23218
5.15162
5.02564
4.85866
4.65599
4.42382
4.169
3.8996
3.62289
3.34527
3.07283
2.81121
2.5653
2.33907
2.1352
1.95495
1.79799
1.66248
1.54537
1.44257
1.34948
1.26171
1.17572
1.08935
1.00217
0.915526
0.832402
0.756757
0.692717
0.643784
0.612208
0.598642
0.602121
0.620335
0.650079
0.687759
0.729802
0.77292
0.814251
0.851009
0.880402
0.900488
0.910262
0.910151
0.902357
0.8908
0.880584
0.87707
0.884932
0.907031
0.944285
0.99761
1.06753
1.15451
1.25869
1.38002
1.51739
1.66801
1.8271
1.98809
2.14253
2.28177
2.39807
2.48547
2.54021
2.56071
2.54727
2.50181
2.42772
2.33088
2.21807
2.09688
1.97578
1.86314
1.7666
1.69468
1.65199
1.62633
1.59356
1.52483
1.39362
1.1765
0.826978
0.371379
-0.139458
-0.533757
0
1.78459
4.94756
9.20149
13.7927
17.6367
19.6448
19.1377
16.1616
11.531
6.53458
2.42368
-0.0595417
-0.880951
-0.56423
-0.134554
0.236972
0.511499
0.678314
0.78078
0.85571
0.913451
0.9592
0.997417
1.03183
1.06551
1.10094
1.13994
1.18352
1.23171
1.2836
1.33749
1.39127
1.44306
1.49183
1.53774
1.5823
1.62819
1.67889
1.73822
1.80978
1.89658
2.00127
2.12603
2.27235
2.44111
2.63252
2.84629
3.0816
3.33708
3.6107
3.89949
4.19924
4.50445
4.80832
5.10313
5.3809
5.63417
5.85649
6.04188
6.1845
6.27963
6.32511
6.31924
6.26085
6.14984
5.98773
5.77823
5.5275
5.24383
4.93741
4.61937
4.29911
3.98459
3.68242
3.39761
3.13349
2.89196
2.67371
2.47866
2.30624
2.15575
2.02636
1.91718
1.82711
1.75473
1.69822
1.65521
1.62305
1.59902
1.58062
1.5658
1.55311
1.54166
1.53105
1.52118
1.51208
1.50373
1.496
1.48861
1.48121
1.47342
1.46494
1.45559
1.44529
1.43406
1.42199
1.40935
1.39679
1.38554
1.37766
1.37634
1.3852
1.40772
1.44637
1.50174
1.57212
1.65362
1.74098
1.82873
1.91246
1.98996
2.06083
2.1265
2.18964
2.25331
2.32005
2.39142
2.46741
2.54546
2.61998
2.68374
2.72955
2.75188
2.74805
2.71892
2.66863
2.60377
2.53197
2.46051
2.39447
2.33599
2.28503
2.23992
2.19673
2.14929
2.08861
1.97583
1.64781
1.09437
0.396398
-0.311047
0
1.95868
5.73154
10.8059
16.0639
20.1328
21.8755
20.8118
17.2924
12.3523
7.30314
3.24958
0.745165
-0.269854
-0.262834
0.00953903
0.259235
0.474989
0.647956
0.776452
0.875225
0.951527
1.01124
1.05935
1.09884
1.13092
1.15494
1.16919
1.17227
1.16428
1.14738
1.1256
1.10406
1.08792
1.08126
1.08627
1.10457
1.13785
1.18771
1.25582
1.34389
1.45343
1.58551
1.74024
1.91698
2.11471
2.332
2.56714
2.81836
3.08385
3.36179
3.65018
3.94662
4.24803
4.55041
4.84831
5.13343
5.39596
5.62646
5.81637
5.95896
6.04988
6.08717
6.07088
6.00276
5.88593
5.72678
5.53269
5.31
5.06591
4.80805
4.54441
4.28155
4.0247
3.7781
3.54471
3.32619
3.1229
2.93429
2.75945
2.59775
2.45021
2.3204
2.2123
2.13003
2.07678
2.0533
2.05703
2.08228
2.1214
2.16659
2.21154
2.25268
2.28879
2.32029
2.34817
2.37296
2.39439
2.41131
2.42245
2.42708
2.42563
2.41995
2.41321
2.40942
2.41283
2.4269
2.45425
2.49668
2.55454
2.62656
2.71023
2.80161
2.89555
2.98711
3.0727
3.15089
3.22278
3.29153
3.36157
3.43733
3.52217
3.61746
3.72249
3.83553
3.95424
4.07615
4.19903
4.3208
4.43916
4.55137
4.65407
4.74333
4.81453
4.86331
4.88708
4.88523
4.85963
4.81466
4.75694
4.69438
4.635
4.58531
4.54834
4.52359
4.50741
4.49056
4.45993
4.40076
4.29894
4.11186
3.78303
3.33588
2.82176
2.45703
3.16013
5.44641
9.39257
14.4463
19.4926
23.1947
24.4741
22.9277
34
196
356
509
661
819
973
1120
1271
1425
1582
1734
1884
2043
2201
2359
2514
2665
2830
2989
3143
3293
3441
3593
3136
3258
3380
3500
3620
3741
0
0
0
0
0
0
0
0
0
0
0
0
0
0
0
0
0
0
0
0
0
0
0
0
0
0
0
0
0
0
0
0
0
0
0
0
0
0
0
0
0
0
0
0
0
0
0
0
0
0
0
0
0
0
0
0
0
0
0
0
0
0
0
0
0
0
0
0
0
0
0
0
0
0
0
0
0
0
0
0
0
0
0
0
0
0
0
0
0
0
0
0
0
0
0
0
0
0
0
0
0
0
0
0
0
0
0
0
0
0
0
0
0
0
0
0
0
0
0
0
0
0
0
0
0
0
0
0
0
0
0
0
0
0
0
0
0
0
0
0
0
0
0
0
0
0
0
0
0
0
0
0
0
0
0
0
0
0
0
0
0
0
0
0
0
0
0
0
0
0
0
0
0
0
0
0
0
0
0
0
0
0
0
0
0
0
0
0
0
0
0
0
0
0
0
0
0
0
0
0
0
0
0
0
0
0
0
0
0
0
0
0
0
0
0
0
0
0
0
0
0
0
0
0
0
0
0
0
0
0
0
0
0
0
0
0
0
0
0
0
0
0
0
0
0
0
0
0
0
0
0
0
0
0
0
0
0
0
0
0
0
0
0
0
0
0
0
0
0
0
0
0
0
0
0
0
0
0
0
0
0
0
0
0
0
0
0
0
0
0
0
0
0
0
0
0
0
0
0
0
0
0
0
0
0
0
0
0
0
0
0
0
0
0
0
0
0
0
0
0
0
0
0
0
0
0
0
0
0
0
0
0
0
0
0
0
0
0
0
0
0
0
0
0
0
0
0
0
0
0
0
0
0
0
0
0
0
0
0
0
0
0
0
0
0
0
0
0
0
0
0
0
0
0
0
0
0
0
0
0
0
0
0
0
0
0
0
0
0
0
0
0
0
0
0
0
0
0
0
0
0
0
0
0
0
0
0
0
0
0
0
0
0
0
0
0
0
0
0
0
0
0
0
0
0
0
0
0
0
0
0
0
0
0
0
0
0
0
0
0
0
0
0
0
0
0
0
0
0
0
0
0
0
0
0
0
0
0
0
0
0
0
0
0
0
0
0
0
0
0
0
0
0
0
0
0
0
0
0
0
0
0
0
0
0
0
0
0
0
0
0
0
0
0
0
0
0
0
0
0
0
0
0
0
0
0
0
0
0
0
0
0
0
0
0
0
0
0
0
0
0
0
0
0
0
0
0
0
0
0
0
0
0
0
0
0
0
0
0
0
0
0
0
0
0
0
0
0
0
0
0
0
0
0
0
0
0
0
0
0
0
0
0
0
0
0
0
0
0
0
0
0
0
0
0
0
0
0
0
0
0
0
0
0
0
0
0
0
0
0
0
0
0
0
0
0
0
0
0
0
0
0
0
0
0
0
0
0
0
0
0
0
0
0
0
0
0
0
0
0
0
0
0
0
0
0
0
0
0
0
0
0
0
0
0
0
0
0
0
0
0
0
0
0
0
0
0
0
0
0
0
0
0
0
0
0
0
0
0
0
0
0
0
0
0
0
0
0
0
0
0
0
0
0
0
0
0
0
0
0
0
0
0
0
0
0
0
0
0
0
0
0
0
0
0
0
0
0
0
0
0
0
0
0
0
0
0
0
0
0
0
0
0
0
0
0
0
0
0
0
0
0
0
0
0
0
0
0
0
0
0
0
0
0
0
0
0
0
0
0
0
0
0
0
0
0
0
0
0
0
0
0
0
0
0
0
0
0
0
0
0
0
0
0
0
0
0
0
0
0
0
0
0
0
0
0
0
0
0
0
0
0
0
0
0
0
0
0
0
0
0
0
0
0
0
0
0
0
0
0
0
0
0
0
0
0
0
0
0
0
0
0
0
0
0
0
0
0
0
0
0
0
0
0
0
0
0
0
0
0
0
0
0
0
0
0
0
0
0
0
0
0
0
0
0
0
0
0
0
0
0
0
0
0
0
0
0
0
0
0
0
0
0
0
0
0
0
0
0
0
0
0
0
0
0
0
0
0
0
0
0
0
0
0
0
0
0
0
0
0
0
0
0
0
0
0
0
0
0
0
0
0
0
0
0
0
0
0
0
0
0
0
0
0
0
0
0
0
0
0
0
0
0
0
0
0
0
0
0
0
0
0
0
0
0
0
0
0
0
0
0
0
0
0
0
0
0
0
0
0
0
0
0
0
0
0
0
0
0
0
0
0
0
0
0
0
0
0
0
0
0
0
0
0
0
0
0
0
0
0
0
0
0
0
0
0
0
0
0
0
0
0
0
0
0
0
0
0
0
0
0
0
0
0
0
0
0
0
0
0
0
0
0
0
0
0
0
0
0
0
0
0
0
0
0
0
0
0
0
0
0
0
0
0
0
0
0
0
0
0
0
0
0
0
0
0
0
0
0
0
0
0
0
0
0
0
0
0
0
0
0
0
0
0
0
0
0
0
0
0
0
0
0
0
0
0
0
0
0
0
0
0
0
0
0
0
0
0
0
0
0
0
0
0
0
0
0
0
0
0
0
0
0
0
0
0
0
0
0
0
0
0
0
0
0
0
0
0
0
0
0
0
0
0
0
0
0
0
0
0
0
0
0
0
0
0
0
0
0
0
0
0
0
0
0
0
0
0
0
0
0
0
0
0
0
0
0
0
0
0
0
0
0
0
0
0
0
0
0
0
0
0
0
0
0
0
0
0
0
0
0
0
0
0
0
0
0
0
0
0
0
0
0
0
0
0
0
0
0
0
0
0
0
0
0
0
0
0
0
0
0
0
0
0
0
0
0
0
0
0
0
0
0
0
0
0
0
0
0
0
0
0
0
0
0
0
0
0
0
0
0
0
0
0
0
0
0
0
0
0
0
0
0
0
0
0
0
0
0
0
0
0
0
0
0
0
0
0
0
0
0
0
0
0
0
0
0
0
0
0
0
0
0
0
0
0
0
0
0
0
0
0
0
0
0
0
0
0
0
0
0
0
0
0
0
0
0
0
0
0
0
0
0
0
0
0
0
0
0
0
0
0
0
0
0
0
0
0
0
0
0
0
0
0
0
0
0
0
0
0
0
0
0
0
0
0
0
0
0
0
0
0
0
0
0
0
0
0
0
0
0
0
0
0
0
0
0
0
0
0
0
0
0
0
0
0
0
0
0
0
0
0
0
0
0
0
0
0
0
0
0
0
0
0
0
0
0
0
0
0
0
0
0
0
0
0
0
0
0
0
0
0
0
0
0
0
0
0
0
0
0
0
0
0
0
0
0
0
0
0
0
0
0
0
0
0
0
0
0
0
0
0
0
0
0
0
0
0
0
0
0
0
0
0
0
0
0
0
0
0
0
0
0
0
0
0
0
0
0
0
0
0
0
0
0
0
0
0
0
0
0
0
0
0
0
0
0
0
0
0
0
0
0
0
0
0
0
0
0
0
0
0
0
0
0
0
0
0
0
0
0
0
0
0
0
0
0
0
0
0
0
0
0
0
0
0
0
0
0
0
0
0
0
0
0
0
0
0
0
0
0
0
0
0
0
0
0
0
0
0
0
0
0
0
0
0
0
0
0
0
0
0
0
0
0
0
0
0
0
0
0
0
0
0
0
0
0
0
0
0
0
0
0
0
0
0
0
0
0
0
0
0
0
0
0
0
0
0
0
0
0
0
0
0
0
0
0
0
0
0
0
0
0
0
0
0
0
0
0
0
0
0
0
0
0
0
0
0
0
0
0
0
0
0
0
0
0
0
0
0
0
0
0
0
0
0
0
0
0
0
0
0
0
0
0
0
0
0
0
0
0
0
0
0
0
0
0
0
0
0
0
0
0
0
0
0
0
0
0
0
0
0
0
0
0
0
0
0
0
0
0
0
0
0
0
0
0
0
0
0
0
0
0
0
0
0
0
0
0
0
0
0
0
0
0
0
0
0
0
0
0
0
0
0
0
0
0
0
0
0
0
0
0
0
0
0
0
0
0
0
0
0
0
0
0
0
0
0
0
0
0
0
0
0
0
0
0
0
0
0
0
0
0
0
0
0
0
0
0
0
0
0
0
0
0
0
0
0
0
0
0
0
0
0
0
0
0
0
0
0
0
0
0
0
0
0
0
0
0
0
0
0
0
0
0
0
0
0
0
0
0
0
0
0
0
0
0
0
0
0
0
0
0
0
0
0
0
0
0
0
0
0
0
0
0
0
0
0
0
0
0
0
0
0
0
0
0
0
0
0
0
0
0
0
0
0
0
0
0
0
0
0
0
0
0
0
0
0
0
0
0
0
0
0
0
0
0
0
0
0
0
0
0
0
0
0
0
0
0
0
0
0
0
0
0
0
0
0
0
0
0
0
0
0
0
0
0
0
0
0
0
0
0
0
0
0
0
0
0
0
0
0
0
0
0
0
0
0
0
0
0
0
0
0
0
0
0
0
0
0
0
0
0
0
0
0
0
0
0
0
0
0
0
0
0
0
0
0
0
0
0
0
0
0
0
0
0
0
0
0
0
0
0
0
0
0
0
0
0
0
0
0
0
0
0
0
0
0
0
0
0
0
0
0
0
0
0
0
0
0
0
0
0
0
0
0
0
0
0
0
0
0
0
0
0
0
0
0
0
0
0
0
0
0
0
0
0
0
0
0
0
0
0
0
0
0
0
0
0
0
0
0
0
0
0
0
0
0
0
0
0
0
0
0
0
0
0
0
0
0
0
0
0
0
0
0
0
0
0
0
0
0
0
0
0
0
0
0
0
0
0
0
0
0
0
0
0
0
0
0
0
0
0
0
0
0
0
0
0
0
0
0
0
0
0
0
0
0
0
0
0
0
0
0
0
0
0
0
0
0
0
0
0
0
0
0
0
0
0
0
0
0
0
0
0
0
0
0
0
0
0
0
0
0
0
0
0
0
0
0
0
0
0
0
0
0
0
0
0
0
0
0
0
0
0
0
0
0
0
0
0
0
0
0
0
0
0
0
0
0
0
0
0
0
0
0
0
0
0
0
0
0
0
0
0
0
0
0
0
0
0
0
0
0
0
0
0
0
0
0
0
0
0
0
0
0
0
0
0
0
0
0
0
0
0
0
0
0
0
0
0
0
0
0
0
0
0
0
0
0
0
0
0
0
0
0
0
0
0
0
0
0
0
0
0
0
0
0
0
0
0
0
0
0
0
0
0
0
0
0
0
0
0
0
0
0
0
0
0
0
0
0
0
0
0
0
0
0
0
0
0
0
0
0
0
0
0
0
0
0
0
0
0
0
0
0
0
0
0
0
0
0
0
0
0
0
0
0
0
0
0
0
0
0
0
0
0
0
0
0
0
0
0
0
0
0
0
0
0
0
0
0
0
0
0
0
0
0
0
0
0
0
0
0
0
0
0
0
0
0
0
0
0
0
0
0
0
0
0
0
0
0
0
0
0
0
0
0
0
0
0
0
0
0
0
0
0
0
0
0
0
0
0
0
0
0
0
0
0
0
0
0
0
0
0
0
0
0
0
0
0
0
0
0
0
0
0
0
0
0
0
0
0
0
0
0
0
0
0
0
0
0
0
0
0
0
0
0
0
0
0
0
0
0
0
0
0
0
0
0
0
0
0
0
0
0
0
0
0
0
0
0
0
0
0
0
0
0
0
0
0
0
0
0
0
0
0
0
0
0
0
0
0
0
0
0
0
0
0
0
0
0
0
0
0
0
0
0
0
0
0
0
0
0
0
0
0
0
0
0
0
0
0
0
0
0
0
0
0
0
0
0
0
0
0
0
0
0
0
0
0
0
0
0
0
0
0
0
0
0
0
0
0
0
0
0
0
0
0
0
0
0
0
0
0
0
0
0
0
0
0
0
0
0
0
0
0
0
0
0
0
0
0
0
0
0
0
0
0
0
0
0
0
0
0
0
0
0
0
0
0
0
0
0
0
0
0
0
0
0
0
0
0
0
0
0
0
0
0
0
0
0
0
0
0
0
0
0
0
0
0
0
0
0
0
0
0
0
0
0
0
0
0
0
0
0
0
0
0
0
0
0
0
0
0
0
0
0
0
0
0
0
0
0
0
0
0
0
0
0
0
0
0
0
0
0
0
0
0
0
0
0
0
0
0
0
0
0
0
0
0
0
0
0
0
0
0
0
0
0
0
0
0
0
0
0
0
0
0
0
0
0
0
0
0
0
0
0
0
0
0
0
0
0
0
0
0
0
0
0
0
0
0
0
0
0
0
0
0
0
0
0
0
0
0
0
0
0
0
0
0
0
0
0
0
0
0
0
0
0
0
0
0
0
0
0
0
0
0
0
0
0
0
0
0
0
0
0
0
0
0
0
0
0
0
0
0
0
0
0
0
0
0
0
0
0
0
0
0
0
0
0
0
0
0
0
0
0
0
0
0
0
0
0
0
0
0
0
0
0
0
0
0
0
0
0
0
0
0
0
0
0
0
0
0
0
0
0
0
0
0
0
0
0
0
0
0
0
0
0
0
0
0
0
0
0
0
0
0
0
0
0
0
0
0
0
0
0
0
0
0
0
0
0
0
0
0
0
0
0
0
0
0
0
0
0
0
0
0
0
0
0
0
0
0
0
0
0
0
0
0
0
0
0
0
0
0
0
0
0
0
0
0
0
0
0
0
0
0
0
0
0
0
0
0
0
0
0
0
0
0
0
0
0
0
0
0
0
0
0
0
0
0
0
0
0
0
0
0
0
0
0
0
0
0
0
0
0
0
0
0
0
0
0
0
0
0
0
0
0
0
0
0
0
0
0
0
0
0
0
0
0
0
0
0
0
0
0
0
0
0
0
0
0
0
0
0
0
0
0
0
0
0
0
0
0
0
0
0
0
0
0
0
0
0
0
0
0
0
0
0
0
0
0
0
0
0
0
0
0
0
0
0
0
0
0
0
0
0
0
0
0
0
0
0
0
0
0
0
0
0
0
0
0
0
0
0
0
0
0
0
0
0
0
0
0
0
0
0
0
0
0
0
0
0
0
0
0
0
0
0
0
0
0
0
0
0
0
0
0
0
0
0
0
0
0
0
0
0
0
0
0
0
0
0
0
0
0
0
0
0
0
0
0
0
0
0
0
0
0
0
0
0
0
0
0
0
0
0
0
0
0
0
0
0
0
0
0
0
0
0
0
0
0
0
0
0
0
0
0
0
0
0
0
0
0
0
0
0
0
0
0
0
0
0
0
0
0
0
0
0
0
0
0
0
0
0
0
0
0
0
0
0
0
0
0
0
0
0
0
0
0
0
0
0
0
0
0
0
0
0
0
0
0
0
0
0
0
0
0
0
0
0
0
0
0
0
0
0
0
0
0
0
0
0
0
0
0
0
0
0
0
0
0
0
0
0
0
0
0
0
0
0
0
0
0
0
0
0
0
0
0
0
0
0
0
0
0
0
0
0
0
0
0
0
0
0
0
0
0
0
0
0
0
0
0
0
0
0
0
0
0
0
0
0
0
0
0
0
0
0
0
0
0
0
0
0
0
0
0
0
0
0
0
0
0
0
0
0
0
0
0
0
0
0
0
0
0
0
0
0
0
0
0
0
0
0
0
0
0
0
0
0
0
0
0
0
0
0
0
0
0
0
0
0
0
0
0
0
0
0
0
0
0
0
0
0
0
0
0
0
0
0
0
0
0
0
0
0
0
0
0
0
0
0
0
0
0
0
0
0
0
0
0
0
0
0
0
0
0
0
0
0
0
0
0
0
0
0
0
0
0
0
0
0
0
0
0
0
0
0
0
0
0
0
0
0
0
0
0
0
0
0
0
0
0
0
0
0
0
0
0
0
0
0
0
0
0
0
0
0
0
0
0
0
0
0
0
0
0
0
0
0
0
0
0
0
0
0
0
0
0
0
0
0
0
0
0
0
0
0
0
0
0
0
0
0
0
0
0
0
0
0
0
0
0
0
0
0
0
0
0
0
0
0
0
0
0
0
0
0
0
0
0
0
0
0
0
0
0
0
0
0
0
0
0
0
0
0
0
0
0
0
0
0
0
0
0
0
0
0
0
0
0
0
0
0
0
0
0
0
0
0
0
0
0
0
0
0
0
0
0
0
0
0
0
0
0
0
0
0
0
0
0
0
0
0
0
0
0
0
0
0
0
0
0
0
0
0
0
0
0
0
0
0
0
0
0
0
0
0
0
0
0
0
0
0
0
0
0
0
0
0
0
0
0
0
0
0
0
0
0
0
0
0
0
0
0
0
0
0
0
0
0
0
0
0
0
0
0
0
0
0
0
0
0
0
0
0
0
0
0
0
0
0
0
0
0
0
0
0
0
0
0
0
0
0
0
0
0
0
0
0
0
0
0
0
0
0
0
0
0
0
0
0
0
0
0
0
0
0
0
0
0
0
0
0
0
0
0
0
0
0
0
0
0
0
0
0
0
0
0
0
0
0
0
0
0
0
0
0
0
0
0
0
0
0
0
0
0
0
0
0
0
0
0
0
0
0
0
0
0
0
