-1.32632
-0.997902
-0.657179
-0.345057
-0.101341
0.0794353
0.213023
0.312796
0.385402
0.435292
0.465971
0.480411
0.479976
0.465055
0.436235
0.395526
0.347114
0.297371
0.254152
0.225468
0.216228
0.230655
0.271605
0.33995
0.434857
0.554296
0.695633
0.856092
1.03276
1.22255
1.42294
1.63157
1.84594
2.06398
2.28468
2.50846
2.73695
2.97227
3.21588
3.46746
3.72408
3.98027
4.22905
4.46282
4.67444
4.85801
5.00905
5.12243
5.19126
5.20956
5.17277
5.07669
4.9192
4.70216
4.43271
4.12333
3.79041
3.45175
3.12289
2.81378
2.53173
2.28055
2.0612
1.87277
1.71348
1.5812
1.47404
1.38957
1.32423
1.27341
1.23146
1.19207
1.14873
1.09575
1.02908
0.947101
0.851051
0.744835
0.635143
0.531275
0.443322
0.380812
0.351564
0.360906
0.411335
0.508109
0.680511
0.96433
1.31041
1.63167
1.836
1.86098
1.70529
1.43467
1.15339
0.954678
0.878991
0.863271
0.86782
0.881203
0.89823
0.917576
0.942032
0.977781
1.03287
1.11495
1.22799
1.37367
1.56334
1.79568
2.03579
2.24331
2.38541
2.44752
2.43742
2.38055
2.30899
2.24907
2.21132
2.18732
2.16949
2.15146
2.12687
2.09068
2.03993
1.97409
1.89501
1.8066
1.71306
1.61797
1.52326
1.42822
1.32901
1.21852
1.07285
0.83357
0.496768
0.0964415
-0.408477
0
1.82979
5.2061
9.72169
14.4632
18.2368
19.9472
19.0147
15.6399
10.7621
5.69204
1.58761
-0.956645
-2.00523
-2.05693
-1.76169
-1.47233
-1.19383
-0.928894
-0.680899
-0.449785
-0.241729
-0.0660776
0.0679855
0.154142
0.191536
0.186299
0.151338
0.104225
0.0635883
0.0445583
0.0519428
0.0827683
0.132109
0.193923
0.260844
0.3262
0.38565
0.438157
0.486102
0.534624
0.590505
0.661003
0.751568
0.866271
1.00878
1.18198
1.38731
1.62432
1.89028
2.1799
2.48548
2.79745
3.10542
3.3994
3.67104
3.91444
4.12628
4.30627
4.45633
4.57932
4.67739
4.74943
4.79029
4.79463
4.75543
4.66565
4.52101
4.32235
4.07665
3.79631
3.49687
3.19382
2.89836
2.61606
2.35082
2.10431
1.87684
1.6681
1.47778
1.30578
1.15222
1.01721
0.900211
0.800001
0.715239
0.645
0.589299
0.549341
0.527345
0.525924
0.549591
0.603676
0.692258
0.811246
0.939077
1.04606
1.10567
1.10278
1.03997
0.939185
0.837005
0.773661
0.779321
0.850194
0.99014
1.16271
1.32042
1.42108
1.44189
1.38633
1.28188
1.16971
1.09043
1.07122
1.10303
1.16929
1.26113
1.37412
1.50468
1.65042
1.80797
1.96792
2.1154
2.23394
2.30853
2.32891
2.2916
2.20001
2.06318
1.89417
1.70922
1.52511
1.35344
1.20218
1.07799
0.990941
0.944668
0.92693
0.918797
0.898842
0.847715
0.751729
0.604666
0.407762
0.168441
-0.101477
-0.395272
-0.566129
0
1.80161
5.02605
9.27865
13.5887
16.7188
17.6551
16.044
12.3579
7.70173
3.35255
0.249657
-1.31116
-1.64787
-1.39643
-1.22937
-1.07362
-0.920937
-0.754976
-0.574473
-0.387098
-0.200621
-0.0241112
0.13415
0.271972
0.391899
0.495688
0.582831
0.653212
0.706703
0.743123
0.762722
0.766816
0.758367
0.742221
0.724841
0.713564
0.71558
0.736954
0.781674
0.851368
0.947449
1.07078
1.22208
1.40188
1.61003
1.84494
2.10292
2.37774
2.66127
2.94531
3.22202
3.48485
3.72917
3.95258
4.15461
4.33621
4.49874
4.64277
4.76731
4.8698
4.94717
4.99526
5.00951
4.98624
4.92359
4.82201
4.68403
4.51364
4.31555
4.09631
3.86252
3.61969
3.37263
3.12639
2.88628
2.65747
2.44452
2.25083
2.07824
1.92722
1.79726
1.68561
1.58924
1.50574
1.43584
1.38099
1.34378
1.32692
1.33141
1.3553
1.39355
1.43902
1.48418
1.52261
1.55013
1.56433
1.56415
1.54929
1.52036
1.4791
1.42926
1.3771
1.33083
1.29932
1.2901
1.30638
1.34844
1.41256
1.49191
1.57796
1.6621
1.737
1.79612
1.83623
1.85704
1.86133
1.85475
1.84524
1.84182
1.85282
1.88399
1.93796
2.01421
2.10274
2.18846
2.25585
2.29266
2.29247
2.2557
2.18898
2.10333
2.01168
1.92568
1.85204
1.79237
1.74538
1.70585
1.66209
1.59894
1.50022
1.33392
1.02999
0.605419
0.110718
-0.403366
0
1.73575
4.88314
9.03508
13.3415
16.7126
18.1517
17.1289
13.8488
9.24678
4.64698
1.20547
-0.567511
-0.926765
-0.604599
-0.440079
-0.276475
-0.111112
0.0567003
0.22345
0.385051
0.535843
0.668703
0.775587
0.8518
0.895919
0.91059
0.902579
0.881896
0.860009
0.847472
0.85162
0.87465
0.912451
0.959909
1.01298
1.06823
1.12379
1.1797
1.23779
1.3011
1.37329
1.45779
1.55774
1.67613
1.81581
1.9793
2.16855
2.38441
2.62616
2.89103
3.17411
3.46866
3.76679
4.06042
4.34206
4.60527
4.84479
5.05638
5.23619
5.37999
5.48388
5.54592
5.5639
5.5363
5.46344
5.34791
5.19424
5.00777
4.79335
4.5555
4.30015
4.03248
3.75663
3.47781
3.20281
2.93939
2.69522
2.47675
2.2892
2.1361
2.01467
1.91533
1.827
1.74027
1.65018
1.55782
1.47024
1.39884
1.36139
1.41555
1.64136
1.9691
2.28364
2.47207
2.4671
2.2733
1.96658
1.66503
1.48129
1.47453
1.55425
1.67973
1.81204
1.91308
1.95531
1.92855
1.84207
1.72189
1.60379
1.52326
1.49861
1.52329
1.58206
1.66215
1.75482
1.85207
1.94756
2.03766
2.12187
2.20239
2.28308
2.36793
2.4596
2.55899
2.66323
2.76497
2.85488
2.92397
2.96546
2.97575
2.95446
2.90352
2.82625
2.72776
2.61377
2.48829
2.35435
2.21466
2.0713
1.92531
1.77642
1.62297
1.46215
1.28955
1.09662
0.871529
0.616042
0.337578
0
0.182392
1.3474
3.76546
7.35327
11.6078
15.6741
18.5503
19.3917
17.8358
14.2059
9.45242
4.80472
1.28691
-0.64536
-1.15868
-0.792238
-0.463746
-0.177381
0.0338513
0.152291
0.178753
0.131365
0.0406955
-0.0576996
-0.131864
-0.16664
-0.165172
-0.136575
-0.0885699
-0.0260151
0.0468596
0.126535
0.210268
0.295941
0.380043
0.456537
0.518032
0.558071
0.574523
0.572223
0.563288
0.564599
0.593381
0.662737
0.770521
0.909476
1.07692
1.27013
1.48591
1.72196
1.97698
2.25043
2.54217
2.8519
3.17869
3.52187
3.88146
4.25186
4.61313
4.93484
5.18671
5.3455
5.40056
5.35624
5.22999
5.04651
4.82988
4.59687
4.35617
4.1106
3.86115
3.6084
3.35321
3.09725
2.84307
2.59404
2.35404
2.12705
1.91672
1.72587
1.55619
1.40787
1.27954
1.16877
1.07282
0.989303
0.916875
0.855491
0.806271
0.770956
0.751056
0.748068
0.762332
0.790649
0.825775
0.859075
0.882239
0.888937
0.875969
0.843648
0.795358
0.736494
0.673109
0.610394
0.551576
0.498288
0.451345
0.411201
0.378667
0.355547
0.344893
0.350762
0.379118
0.443099
0.560819
0.72842
0.907428
1.05059
1.11893
1.09653
0.996911
0.858414
0.730253
0.655015
0.645118
0.67928
0.739429
0.815902
0.901929
0.990829
1.0765
1.15431
1.22127
1.27588
1.31764
1.34645
1.36165
1.36225
1.34654
1.31246
1.25819
1.18289
1.08718
0.973259
0.844465
0.704552
0.557028
0.403789
0.244842
0.0781816
-0.102534
-0.312323
-0.555527
-0.830404
-1.20155
-1.14272
0
2.58626
6.59083
11.4648
16.1786
19.4728
20.2964
18.2722
13.9376
8.57076
3.6458
0.203835
-1.50123
-1.90956
-1.74147
-1.59526
-1.4441
-1.28389
-1.11043
-0.923272
-0.738175
-0.580427
-0.475682
-0.440398
-0.475004
-0.562927
-0.675886
-0.782961
-0.859421
-0.901569
-0.917036
-0.911355
-0.887677
-0.848964
-0.798373
-0.738902
-0.673118
-0.602931
-0.529412
-0.452593
-0.371313
-0.283126
-0.184359
-0.0703786
0.0638992
0.223301
0.411596
0.630758
0.880485
1.15803
1.45863
1.77619
2.10416
2.43644
2.76807
3.09554
3.41659
3.72857
4.02591
4.29881
4.53666
4.72546
4.85148
4.90544
4.88505
4.79512
4.64576
4.45
4.22199
3.97884
3.73189
3.48777
3.25016
3.02026
2.79751
2.58029
2.36643
2.15416
1.94304
1.73465
1.53291
1.34352
1.17275
1.02628
0.908035
0.819572
0.760119
0.72722
0.717748
0.728949
0.758667
0.806294
0.873033
0.964339
1.09602
1.29439
1.54933
1.8035
1.98681
2.0435
1.95678
1.75824
1.51686
1.3121
1.20343
1.18022
1.2009
1.24403
1.30016
1.3626
1.42611
1.48736
1.54505
1.59947
1.65193
1.70407
1.75753
1.81373
1.87413
1.94049
2.01509
2.10033
2.19798
2.31098
2.43855
2.56768
2.68082
2.7617
2.8012
2.80055
2.77012
2.72464
2.67699
2.63339
2.59223
2.55003
2.50257
2.44613
2.37835
2.29854
2.20709
2.10449
1.9905
1.86346
1.72026
1.55382
1.34179
1.05848
0.712742
0.330479
0
0.538379
2.37128
5.60479
9.86405
14.294
17.769
19.262
18.241
14.916
10.1978
5.35486
1.51297
-0.759311
-1.56689
-1.46258
-1.14428
-0.822987
-0.489949
-0.132024
0.246852
0.625019
0.975984
1.26787
1.47205
1.57119
1.56413
1.46712
1.31152
1.13813
0.987881
0.886345
0.831706
0.810158
0.810253
0.826281
0.854258
0.891497
0.936984
0.991245
1.0559
1.13315
1.22493
1.33296
1.45949
1.60703
1.77792
1.97386
2.19529
2.4408
2.70673
2.98734
3.27538
3.56315
3.84368
4.11181
4.36473
4.60191
4.82363
5.02798
5.21094
5.36835
5.49242
5.57393
5.60534
5.58286
5.50665
5.37943
5.20472
4.98629
4.73591
4.46405
4.17841
3.88631
3.59555
3.31338
3.04584
2.79614
2.56489
2.35094
2.15268
1.96942
1.80248
1.65533
1.53253
1.43858
1.37636
1.34579
1.3464
1.37269
1.41279
1.45422
1.48644
1.50274
1.501
1.48313
1.45375
1.41849
1.38268
1.35012
1.32308
1.30345
1.29259
1.29124
1.2995
1.31675
1.34166
1.37245
1.40723
1.44424
1.48209
1.51977
1.55653
1.59175
1.62484
1.65537
1.6832
1.70867
1.7327
1.75669
1.78234
1.81127
1.84479
1.8837
1.9283
1.97835
2.03299
2.09067
2.14833
2.19896
2.23291
2.23978
2.21142
2.14506
2.04501
1.92204
1.79049
1.66401
1.54994
1.44729
1.35312
1.26251
1.16809
1.06182
0.93661
0.786897
0.60964
0.408361
0.162928
0
0.629133
2.35513
5.2274
8.93805
12.8118
15.9222
17.3521
16.5312
13.513
9.0287
4.24682
0.327696
-2.00599
-2.67147
-2.09449
-1.11612
-0.247662
0.365
0.678116
0.899611
1.07128
1.1886
1.2368
1.20078
1.08126
0.90671
0.730577
0.611356
0.584916
0.627759
0.697274
0.775139
0.847126
0.905664
0.951316
0.9916
1.03793
1.102
1.18948
1.2998
1.43223
1.58508
1.75495
1.93822
2.12907
2.322
2.51399
2.7055
2.90037
3.10471
3.32481
3.56484
3.82525
4.10098
4.38519
4.67113
4.95259
5.22489
5.48478
5.72966
5.95635
6.16011
6.33327
6.4609
6.52489
6.51249
6.42284
6.26786
6.06671
5.83723
5.58986
5.33146
5.06712
4.80075
4.53689
4.28176
4.04271
3.82711
3.64105
3.48841
3.37055
3.28635
3.23166
3.19937
3.18157
3.17123
3.1633
3.15521
3.14686
3.13985
3.13638
3.13785
3.14468
3.15269
3.15265
3.13407
3.0892
3.01671
2.92317
2.82156
2.72739
2.65387
2.60498
2.57723
2.56778
2.57169
2.5833
2.59726
2.60966
2.61768
2.61979
2.61577
2.60677
2.59539
2.58556
2.58214
2.59008
2.61348
2.65422
2.71149
2.78276
2.86342
2.94734
3.02768
3.0976
3.1507
3.18057
3.18226
3.15258
3.0902
2.99614
2.87422
2.7312
2.57636
2.42043
2.27391
2.14433
2.03948
1.96411
1.90813
1.84726
1.75283
1.59953
1.3722
1.06971
0.704664
0.166256
0
0.884873
3.14197
6.74597
11.1973
15.5358
18.5656
19.276
17.2942
13.121
7.97351
3.27459
0.0607732
-1.36622
-1.38239
-0.697554
-0.0974598
0.390567
0.707902
0.827994
0.880025
0.901477
0.900637
0.886361
0.867252
0.850872
0.842723
0.845842
0.861466
0.889536
0.928833
0.977264
1.0323
1.09124
1.15184
1.21262
1.27306
1.33362
1.39547
1.4603
1.53003
1.60661
1.69191
1.78798
1.89711
2.02199
2.16573
2.33178
2.52361
2.74422
2.99551
3.2775
3.58772
3.92092
4.2692
4.62261
4.97005
5.29963
5.60034
5.86339
6.08189
6.2497
6.36182
6.41779
6.418
6.36364
6.25709
6.10236
5.90522
5.67288
5.41333
5.13455
4.84515
4.5517
4.25922
3.97257
3.69654
3.43583
3.19487
2.97759
2.78745
2.62811
2.50168
2.40846
2.34743
2.31606
2.31048
2.32528
2.35364
2.38817
2.42165
2.44749
2.46075
2.45848
2.43983
2.40585
2.35909
2.30309
2.24169
2.17853
2.11672
2.05853
2.00563
1.9599
1.92326
1.89752
1.88431
1.88466
1.8987
1.92533
1.96232
2.00651
2.05433
2.10231
2.14763
2.18835
2.22344
2.25282
2.27732
2.29862
2.31911
2.34172
2.36973
2.40632
2.45448
2.51758
2.5987
2.69372
2.785
2.8502
2.86891
2.82974
2.73495
2.60026
2.44926
2.30443
2.17829
2.06492
1.95478
1.83782
1.70432
1.54757
1.36547
1.1585
0.931567
0.693968
0.455676
0.222364
0
0.126019
0.939414
2.91645
6.28089
10.7362
15.3956
19.0095
20.426
19.0827
15.2836
10.1063
4.96636
1.05541
-1.07387
-1.58566
-1.11298
-0.789321
-0.502586
-0.281038
-0.139716
-0.0515031
-0.00648718
0.00281
-0.0143106
-0.0477158
-0.0870643
-0.123305
-0.148675
-0.157032
-0.144393
-0.109096
-0.0515289
0.0265102
0.121659
0.228136
0.33658
0.435626
0.515896
0.572205
0.604984
0.620446
0.629294
0.644283
0.677469
0.738121
0.828066
0.944847
1.08848
1.25936
1.45742
1.68195
1.93129
2.2026
2.49126
2.79202
3.09923
3.40673
3.70705
3.98998
4.24583
4.46535
4.64009
4.76317
4.82975
4.83724
4.78512
4.67473
4.50922
4.29553
4.03996
3.75032
3.43568
3.107
2.77403
2.4443
2.12438
1.81984
1.535
1.27278
1.0348
0.821534
0.632658
0.467379
0.324692
0.203502
0.102572
0.0205713
-0.0440252
-0.093626
-0.131346
-0.160436
-0.183851
-0.203823
-0.221614
-0.237526
-0.251198
-0.262122
-0.270273
-0.276461
-0.282623
-0.292086
-0.308686
-0.335733
-0.37492
-0.425541
-0.484307
-0.54584
-0.603715
-0.651723
-0.685804
-0.703231
-0.703345
-0.687344
-0.657781
-0.618282
-0.572247
-0.522481
-0.471234
-0.420238
-0.370969
-0.325208
-0.285472
-0.255045
-0.237426
-0.235649
-0.25112
-0.282523
-0.325199
-0.371314
-0.41086
-0.433278
-0.429589
-0.394568
-0.325156
-0.221502
-0.086438
0.0752689
0.256908
0.453453
0.65809
0.856816
1.03265
1.16899
1.25279
1.2774
1.24374
1.15945
1.03679
0.890328
0.73572
0.585138
0.446041
0.323116
0.218675
0.132219
0.061025
0
-0.0640022
-0.139904
-0.241298
-0.380002
-0.579505
-0.846094
-1.16692
-1.87216
-1.99293
-0.769345
2.01081
6.03054
10.5392
14.5837
17.246
17.8455
16.1198
12.3657
7.439
2.52248
-1.29882
-3.44843
-4.01572
-3.54441
-2.90569
-2.33237
-1.89365
-1.64565
-1.50973
-1.43167
-1.4079
-1.4291
-1.48106
-1.54688
-1.60976
-1.6556
-1.67859
-1.67807
-1.65347
-1.60416
-1.53132
-1.43695
-1.32379
-1.19969
-1.07832
-0.973624
-0.89629
-0.850822
-0.833998
-0.83525
-0.838822
-0.826975
-0.783294
-0.700783
-0.580052
-0.422385
-0.229075
-0.00347824
0.249091
0.522612
0.810522
1.10734
1.4095
1.71552
2.02562
2.3405
2.66133
2.98489
3.29639
3.57333
3.79229
3.93591
3.99701
3.9785
3.8901
3.7438
3.55017
3.32087
3.06562
2.7908
2.50137
2.20254
1.90049
1.60228
1.31601
1.05023
0.812645
0.609711
0.447411
0.327361
0.24373
0.187223
0.147218
0.113887
0.0799026
0.0413391
-0.00229073
-0.0487331
-0.0941166
-0.134434
-0.166717
-0.189258
-0.201598
-0.204462
-0.199541
-0.189226
-0.176123
-0.162603
-0.150453
-0.140681
-0.133497
-0.12842
-0.12446
-0.120298
-0.114421
-0.105152
-0.0906075
-0.0686272
-0.0367233
0.00787926
0.0680489
0.14756
0.253753
0.399452
0.591034
0.80263
0.991584
1.11457
1.14196
1.06803
0.91322
0.717592
0.52823
0.384532
0.291368
0.232697
0.195335
0.172979
0.158667
0.145762
0.128515
0.101931
0.0610458
0
-0.0823574
-0.201201
-0.365192
-0.581034
-0.851421
-1.17857
-1.55268
-2.08619
-2.29055
-1.44926
0.756791
4.30414
8.68719
12.9362
15.8575
16.4659
14.4273
10.2666
5.18608
0.559357
-2.6272
-4.08678
-4.16896
-3.49347
-2.83254
-2.2747
-1.88509
-1.68806
-1.56587
-1.47541
-1.40643
-1.35696
-1.32478
-1.3064
-1.2974
-1.29296
-1.28842
-1.27993
-1.26489
-1.24183
-1.21026
-1.17051
-1.12345
-1.07018
-1.01168
-0.948646
-0.88128
-0.8093
-0.731953
-0.648086
-0.556223
-0.454635
-0.341417
-0.21456
-0.0720694
0.0878941
0.266837
0.465747
0.684935
0.923954
1.18162
1.45614
1.74539
2.04715
2.35996
2.68448
3.02396
3.37783
3.72374
4.02013
4.21845
4.28256
4.20386
4.00293
3.71861
3.39343
3.06345
2.74842
2.45059
2.16855
1.90167
1.65049
1.41607
1.19931
1.00109
0.822289
0.663729
0.525972
0.40912
0.312629
0.235213
0.174932
0.129405
0.0960356
0.0724659
0.0570143
0.0488417
0.0477077
0.0539598
0.0681599
0.0906891
0.121438
0.159649
0.203909
0.252222
0.3021
0.35068
0.39464
0.430526
0.45525
0.466619
0.463968
0.44868
0.424364
0.396512
0.372156
0.358619
0.362456
0.388636
0.44008
0.517563
0.619785
0.747186
0.903008
1.07346
1.23177
1.35087
1.41427
1.42548
1.40925
1.40186
1.43433
1.51741
1.62702
1.74271
1.84363
1.91366
1.94589
1.94357
1.91744
1.88071
1.84332
1.80748
1.76884
1.71937
1.64896
1.543
1.36246
1.09816
0.79774
0.520407
0.308703
0.17196
0.0963087
0.0469297
0
-0.213324
0.217872
1.9255
5.1121
9.34632
13.6589
16.8961
18.1516
17.0831
14.0106
9.7724
5.41091
1.80994
-0.568313
-1.73378
-1.97511
-1.63295
-1.2864
-0.952853
-0.659188
-0.431245
-0.262355
-0.129594
-0.0187193
0.0769794
0.160606
0.234636
0.300148
0.356804
0.402849
0.435745
0.453782
0.456545
0.445734
0.425622
0.402978
0.386322
0.384613
0.405647
0.454618
0.533356
0.640444
0.772252
0.924524
1.0939
1.2778
1.47644
1.69178
1.92599
2.18024
2.45356
2.74221
3.0398
3.33761
3.62441
3.89003
4.12765
4.33537
4.51662
4.67917
4.8311
4.98395
5.14482
5.29456
5.39499
5.40598
5.30338
5.08961
4.79242
4.45319
4.11055
3.78356
3.46893
3.1614
2.8577
2.55475
2.25058
1.9452
1.64109
1.34314
1.05864
0.796592
0.565048
0.370284
0.2157
0.101328
0.0240293
-0.0216686
-0.0423805
-0.0446373
-0.0344243
-0.0159387
0.00824807
0.0364428
0.0672918
0.0993714
0.130589
0.158186
0.179392
0.192184
0.196015
0.192163
0.183495
0.173665
0.166034
0.16272
0.164174
0.169528
0.17745
0.187228
0.199595
0.216944
0.242842
0.281014
0.33415
0.401852
0.481824
0.570868
0.664342
0.756072
0.839204
0.90784
0.957889
0.987711
0.998397
0.993644
0.979203
0.962036
0.949301
0.946862
0.958299
0.985777
1.03041
1.09195
1.16917
1.26028
1.36334
1.47642
1.5982
1.72707
1.8586
1.98254
2.08492
2.15118
2.17047
2.13952
2.06439
1.95898
1.84104
1.72715
1.62728
1.54229
1.47
1.40875
1.35646
1.31028
1.26661
1.22097
1.16798
1.10183
1.01682
0.907763
0.763622
0.584242
0.375216
0.0288645
0
0.987388
3.4111
7.26527
11.9643
16.4403
19.4699
20.1144
18.0933
13.9285
8.76975
3.95221
0.482158
-1.29435
-1.67938
-1.30796
-1.01768
-0.756346
-0.540527
-0.377522
-0.249916
-0.144262
-0.0558198
0.0171556
0.0766465
0.123845
0.159506
0.184819
0.202144
0.215294
0.229232
0.249257
0.279962
0.323336
0.37931
0.44674
0.523627
0.60706
0.694105
0.782824
0.872887
0.965779
1.06454
1.17312
1.29555
1.43515
1.59388
1.7723
1.97035
2.18778
2.42413
2.67878
2.9505
3.23689
3.53389
3.83567
4.13097
4.4057
4.64581
4.83969
4.97988
5.06366
5.09239
5.0701
5.00182
4.89292
4.74954
4.57545
4.37235
4.14135
3.88445
3.60509
3.30765
2.99781
2.68288
2.37115
2.07091
1.78932
1.53147
1.29974
1.09388
0.911623
0.749641
0.604698
0.474928
0.359744
0.259773
0.176755
0.112818
0.0697289
0.0483066
0.0480867
0.0672545
0.102783
0.15065
0.206392
0.265254
0.322664
0.37459
0.417448
0.449022
0.469349
0.480652
0.487312
0.495414
0.511789
0.54268
0.592357
0.662104
0.748943
0.847842
0.953891
1.06233
1.1696
1.2739
1.37518
1.47485
1.575
1.67771
1.7844
1.89551
2.00973
2.12306
2.2291
2.31987
2.38691
2.42305
2.42325
2.3856
2.31187
2.20764
2.08172
1.94489
1.80811
1.68032
1.56564
1.46357
1.37176
1.28638
1.20191
1.11201
1.00993
0.883643
0.728875
0.547523
0.0724736
0
1.1487
3.94938
8.22385
13.1402
17.4593
19.9694
19.926
17.3194
12.8723
7.76805
3.22047
0.0648922
-1.45554
-1.6323
-0.934838
-0.226516
0.421942
0.902557
1.12515
1.25484
1.35358
1.4347
1.50423
1.56786
1.63022
1.69448
1.76211
1.83325
1.90712
1.98237
2.05742
2.13073
2.20102
2.26744
2.32981
2.38896
2.44695
2.50707
2.57371
2.65196
2.74692
2.86305
3.00351
3.16969
3.36101
3.57571
3.81097
4.06311
4.32787
4.60065
4.87672
5.15153
5.42102
5.68188
5.93104
6.16442
6.37622
6.55942
6.70575
6.80446
6.84258
6.80867
6.69693
6.50989
6.25883
5.96148
5.63787
5.30621
4.97735
4.65474
4.339
4.03056
3.72929
3.435
3.1477
2.86786
2.59642
2.33478
2.08472
1.84827
1.62759
1.42479
1.24183
1.08031
0.941394
0.825924
0.73428
0.666657
0.623203
0.604078
0.609806
0.643578
0.712389
0.821693
0.958725
1.09144
1.18414
1.20815
1.15149
1.02344
0.852032
0.674762
0.52579
0.420417
0.348866
0.298777
0.265058
0.244421
0.235354
0.238434
0.255637
0.288926
0.342831
0.415146
0.495012
0.567686
0.618414
0.636347
0.61717
0.563922
0.486131
0.397697
0.313752
0.24557
0.199923
0.179431
0.182257
0.205774
0.246811
0.302243
0.369643
0.44726
0.533409
0.625647
0.720197
0.811972
0.89519
0.964319
1.01495
1.04426
1.05089
1.03451
0.995334
0.934841
0.854821
0.757229
0.645482
0.524654
0.401125
0.28163
0.171972
0.0776798
0
-0.0616608
-0.1377
-0.249175
-0.412187
-0.632048
-0.90043
-1.19662
-1.60924
-1.18656
0.480492
3.51833
7.61803
12.0064
15.6053
17.3602
16.6405
13.527
8.82444
3.7626
-0.480514
-3.19006
-4.26677
-4.08704
-3.19502
-2.2581
-1.43927
-0.939947
-0.830872
-0.806419
-0.805459
-0.818022
-0.834416
-0.847055
-0.851671
-0.848308
-0.837499
-0.820104
-0.796543
-0.766481
-0.729119
-0.683825
-0.63069
-0.571091
-0.506504
-0.437826
-0.365086
-0.287167
-0.202004
-0.107221
-0.000978088
0.117155
0.247198
0.387557
0.535673
0.690548
0.854183
1.03198
1.23172
1.46122
1.72533
2.02336
2.34643
2.6819
3.01368
3.32534
3.60297
3.83717
4.02354
4.16175
4.25381
4.30226
4.30893
4.27455
4.19924
4.08356
3.92957
3.74158
3.52636
3.29321
3.0519
2.81011
2.57354
2.34571
2.12582
1.90895
1.68835
1.45827
1.21602
0.962858
0.716628
0.502234
0.343289
0.254099
0.235283
0.274535
0.351707
0.44571
0.54035
0.629104
0.710874
0.785438
0.853121
0.914033
0.96793
1.01415
1.05224
1.08293
1.10889
1.13489
1.16724
1.21256
1.27632
1.36066
1.46444
1.58543
1.72011
1.8645
2.01515
2.16958
2.32656
2.48536
2.64345
2.79322
2.92219
3.01614
3.0643
3.06409
3.02298
2.95661
2.88346
2.8184
2.76592
2.72166
2.6799
2.63489
2.58224
2.52059
2.45208
2.38141
2.31358
2.25179
2.19413
2.12664
2.02808
1.8768
1.65873
1.37034
1.02539
0.205177
0
1.21633
4.1114
8.3223
12.8982
16.6045
18.3778
17.7314
14.9364
10.8897
6.72924
3.38334
1.27329
0.296513
0.0480527
0.176801
0.330092
0.504254
0.702701
0.92144
1.14788
1.3653
1.55848
1.71804
1.84304
1.93629
1.99873
2.03399
2.04767
2.04668
2.0387
2.03115
2.03054
2.0427
2.07232
2.12258
2.19482
2.28852
2.40145
2.53014
2.67051
2.8184
2.97049
3.12458
3.27957
3.43539
3.59274
3.7528
3.91708
4.08717
4.26472
4.45131
4.64817
4.85585
5.07373
5.29964
5.52984
5.75822
5.97656
6.17574
6.34649
6.47897
6.56338
6.59243
6.55997
6.46137
6.29432
6.06003
5.76427
5.41794
5.03662
4.63914
4.24483
3.86831
3.52123
3.21174
2.94386
2.71776
2.53065
2.37782
2.2538
2.15305
2.07072
2.00261
1.94475
1.89369
1.84656
1.80113
1.75607
1.711
1.66659
1.62432
1.58614
1.5538
1.52845
1.51052
1.49935
1.49099
1.47876
1.45638
1.42068
1.37393
1.32449
1.28538
1.27072
1.29874
1.3906
1.5253
1.66424
1.76631
1.80351
1.76997
1.68177
1.56866
1.46228
1.38592
1.33969
1.31617
1.31055
1.32108
1.34616
1.38435
1.4342
1.49392
1.56097
1.63204
1.70329
1.77095
1.8321
1.88526
1.9308
1.97083
2.00874
2.04843
2.09351
2.14656
2.20875
2.28005
2.3595
2.44552
2.5361
2.62902
2.72167
2.81057
2.8898
2.94965
2.97961
2.96862
2.90779
2.79362
2.63048
2.43137
2.21635
2.00858
1.82894
1.6976
1.63548
1.61598
1.59245
1.51456
1.34533
1.07247
0.709906
0.135772
0
1.09179
3.74282
7.82506
12.6726
17.2036
20.2394
20.9086
18.9773
14.9544
9.90873
5.07396
1.41588
-0.64386
-1.24263
-0.860616
-0.312856
0.160941
0.500762
0.681175
0.773564
0.831891
0.870022
0.897063
0.920835
0.94716
0.979403
1.01909
1.06627
1.11964
1.17556
1.22875
1.2741
1.30808
1.32999
1.34258
1.35174
1.36533
1.39152
1.43653
1.50217
1.58781
1.69192
1.81228
1.94623
2.09135
2.24598
2.40939
2.58166
2.76335
2.95514
3.15759
3.371
3.59558
3.83152
4.07908
4.33837
4.61046
4.89709
5.1955
5.49025
5.75487
5.96099
6.08495
6.11246
6.04019
5.87464
5.62967
5.32379
4.97811
4.6172
4.25848
3.91082
3.57875
3.26568
2.97419
2.70522
2.45821
2.23164
2.02351
1.83192
1.65546
1.49347
1.34612
1.21423
1.09905
1.00169
0.922729
0.862035
0.818737
0.79042
0.773689
0.764796
0.760155
0.756745
0.752325
0.745483
0.735584
0.72271
0.707667
0.691901
0.677457
0.666748
0.662145
0.665475
0.677592
0.69817
0.725807
0.758407
0.793708
0.829751
0.86521
0.899354
0.931868
0.962589
0.991286
1.01761
1.04127
1.06245
1.08212
1.10242
1.12665
1.15894
1.20357
1.26399
1.34186
1.43603
1.54403
1.66016
1.77535
1.8808
1.9701
2.04065
2.09386
2.13406
2.16648
2.19498
2.22008
2.23825
2.24255
2.22481
2.17843
2.10085
1.99501
1.86901
1.73424
1.60205
1.4797
1.36978
1.26373
1.14452
0.990787
0.765352
0.426354
-0.0127243
-0.508614
-0.78446
0
2.12346
5.5879
10.0347
14.7485
18.7479
20.9876
20.689
17.6997
12.6802
6.94365
1.95819
-1.24419
-2.42153
-2.06361
-1.01195
-0.0268299
0.596462
0.825052
0.902641
0.956074
0.999514
1.03369
1.0581
1.07356
1.08238
1.08817
1.09535
1.10834
1.13063
1.16379
1.20762
1.26102
1.32119
1.38424
1.44668
1.50635
1.56316
1.61917
1.67828
1.74547
1.82593
1.92406
2.04251
2.18302
2.34678
2.53404
2.74392
2.97425
3.22146
3.48059
3.74558
4.00979
4.26679
4.51111
4.73898
4.9486
5.13999
5.31381
5.46899
5.60056
5.69992
5.75568
5.75244
5.67618
5.52017
5.2888
4.99742
4.66825
4.32425
3.98305
3.6509
3.33048
3.02337
2.72985
2.44962
2.18235
1.92814
1.68761
1.46197
1.2528
1.06187
0.890828
0.740974
0.613066
0.50724
0.423021
0.359395
0.314881
0.287555
0.275061
0.27457
0.282545
0.294235
0.303912
0.30611
0.296618
0.273403
0.237213
0.191645
0.14263
0.097444
0.0634878
0.046067
0.048447
0.0727114
0.118811
0.184631
0.266276
0.359026
0.45611
0.548371
0.626372
0.681989
0.709666
0.707476
0.677656
0.626457
0.563235
0.498993
0.444627
0.407786
0.392169
0.399263
0.429814
0.482351
0.553496
0.639264
0.733036
0.82547
0.907523
0.972453
1.01717
1.04279
1.05401
1.05736
1.05885
1.0617
1.06495
1.06302
1.04748
1.00975
0.943816
0.847853
0.724325
0.578568
0.41659
0.243714
0.063286
-0.124727
-0.323719
-0.538983
-0.770321
-1.01442
-1.29769
-1.124
0
2.45383
6.20367
10.6478
14.699
17.1552
17.1848
14.6855
10.3316
5.29408
0.784283
-2.35661
-3.86048
-3.98469
-3.23613
-2.43495
-1.74992
-1.29494
-1.0506
-0.861278
-0.694927
-0.55765
-0.457881
-0.402695
-0.395177
-0.432044
-0.502537
-0.589343
-0.671657
-0.729613
-0.751691
-0.738148
-0.693601
-0.620992
-0.525601
-0.414068
-0.292983
-0.169866
-0.0547319
0.0438924
0.120947
0.177024
0.219708
0.262932
0.324064
0.419565
0.560783
0.741946
0.953685
1.19002
1.44483
1.71142
1.98343
2.25562
2.52423
2.78706
3.04296
3.29067
3.528
3.75073
3.95153
4.12044
4.2452
4.31355
4.31532
4.24399
4.09766
3.87981
3.59972
3.27307
2.92089
2.56339
2.21597
1.88782
1.58559
1.31526
1.08038
0.882077
0.719274
0.588601
0.485123
0.403152
0.337016
0.281754
0.233621
0.190315
0.150898
0.115472
0.0846695
0.0592529
0.039724
0.0261013
0.0180321
0.0150425
0.0168547
0.023634
0.036064
0.0551901
0.0820656
0.117274
0.160519
0.210679
0.265399
0.321482
0.375442
0.424031
0.464664
0.495683
0.516463
0.527451
0.530216
0.527578
0.523503
0.523375
0.533438
0.55989
0.607741
0.679616
0.774857
0.889204
1.0161
1.14521
1.26545
1.36719
1.4438
1.49232
1.51325
1.50959
1.48561
1.44567
1.39439
1.33537
1.27121
1.20403
1.13568
1.06742
0.999482
0.930404
0.85662
0.772626
0.671667
0.546881
0.392637
0.195818
-0.0462646
-0.324874
-0.651243
-0.766944
0
2.07044
5.50446
9.8244
14.0627
17.0619
17.9065
16.2951
12.6758
8.07125
3.67299
0.398216
-1.38393
-1.85276
-1.49677
-1.15785
-0.848357
-0.591962
-0.402302
-0.263337
-0.165229
-0.0974302
-0.0469978
-0.00140533
0.0490704
0.111215
0.180451
0.245715
0.295647
0.324568
0.335298
0.337536
0.342904
0.359595
0.388531
0.42544
0.468439
0.517528
0.575927
0.64996
0.747498
0.875571
1.03647
1.22613
1.43903
1.66904
1.90915
2.15267
2.3944
2.63145
2.86337
3.09174
3.31914
3.54797
3.77923
4.01176
4.24191
4.4634
4.66856
4.84946
4.99891
5.11114
5.18192
5.20835
5.18848
5.12119
5.00696
4.84727
4.64572
4.40844
4.14395
3.86233
3.57416
3.28872
3.01314
2.75227
2.50884
2.28412
2.07881
1.89406
1.73152
1.59317
1.48084
1.39546
1.33638
1.30124
1.28571
1.2839
1.28894
1.29408
1.29376
1.2841
1.26313
1.23062
1.18761
1.136
1.07798
1.01585
0.951874
0.888198
0.827071
0.770971
0.72248
0.683969
0.657134
0.642868
0.641364
0.650572
0.66439
0.676216
0.681124
0.677715
0.668889
0.661039
0.661789
0.681458
0.723499
0.774481
0.812314
0.815693
0.773801
0.691721
0.589148
0.493187
0.42852
0.403254
0.408044
0.433594
0.47418
0.524086
0.578101
0.632359
0.684684
0.734367
0.781701
0.82737
0.871869
0.915157
0.956602
0.995281
1.03046
1.06204
1.0907
1.11764
1.14395
1.16981
1.19341
1.21066
1.21619
1.20506
1.17422
1.12305
1.05261
0.964087
0.857103
0.730824
0.584063
0.404442
0.172782
-0.108579
-0.428813
-0.770259
-0.770782
0
1.93383
5.2176
9.57609
14.1952
17.8909
19.5121
18.418
14.8006
9.67081
4.47031
0.480667
-1.66828
-2.14026
-1.63986
-1.50461
-1.37958
-1.27044
-1.17728
-1.09442
-1.01402
-0.928578
-0.83395
-0.731755
-0.626139
-0.523596
-0.431026
-0.353918
-0.295158
-0.254703
-0.230048
-0.217124
-0.211244
-0.207651
-0.202484
-0.192479
-0.175072
-0.148522
-0.112014
-0.0656422
-0.0103773
0.0528286
0.123583
0.202594
0.292052
0.395603
0.51789
0.663714
0.837037
1.04005
1.27223
1.53048
1.8095
2.10198
2.39921
2.69145
2.96714
3.21549
3.42782
3.59765
3.72068
3.79441
3.81737
3.78845
3.70653
3.57072
3.38162
3.14141
2.85512
2.53072
2.17854
1.80993
1.43623
1.06579
0.704912
0.358232
0.0290857
-0.279949
-0.566523
-0.828163
-1.06165
-1.26357
-1.43184
-1.56566
-1.66596
-1.73495
-1.77665
-1.79688
-1.80145
-1.79513
-1.78087
-1.75966
-1.73087
-1.69299
-1.6445
-1.58493
-1.51486
-1.43544
-1.34837
-1.25587
-1.16052
-1.06567
-0.976701
-0.900165
-0.842109
-0.80652
-0.793224
-0.796516
-0.805352
-0.805431
-0.782646
-0.72678
-0.639355
-0.527363
-0.39688
-0.253983
-0.105241
0.043644
0.188651
0.327648
0.459671
0.583202
0.69469
0.788947
0.858716
0.897784
0.906635
0.896488
0.888794
0.909367
0.979157
1.10572
1.27301
1.46189
1.64782
1.80735
1.92347
1.98827
2.00267
1.97429
1.91461
1.83755
1.7551
1.67525
1.60319
1.54133
1.48883
1.44291
1.39913
1.35198
1.29576
1.22525
1.13614
1.02528
0.887804
0.709672
0.478716
0.206017
-0.0903952
-0.412097
0
1.58262
4.51386
8.56349
13.0717
17.0644
19.4995
19.6034
17.1963
12.8407
7.68376
3.02221
-0.201621
-1.70292
-1.81317
-1.15585
-0.539828
-0.0265062
0.328353
0.497888
0.597271
0.666451
0.713862
0.743485
0.760147
0.769357
0.777015
0.789024
0.810857
0.846918
0.90012
0.972038
1.06309
1.17237
1.29766
1.43574
1.5818
1.72952
1.87159
2.00048
2.11014
2.19796
2.26537
2.31826
2.36688
2.42463
2.506
2.62396
2.78736
2.99709
3.24576
3.52442
3.82534
4.14077
4.46313
4.78543
5.09972
5.39571
5.66383
5.89477
6.07985
6.21197
6.28643
6.30103
6.25561
6.15144
5.99069
5.77894
5.52177
5.22479
4.896
4.54607
4.18541
3.82271
3.46585
3.1216
2.79487
2.48827
2.20212
1.93496
1.68439
1.44802
1.22431
1.01306
0.815419
0.633553
0.469999
0.327065
0.206102
0.107264
0.0294174
-0.0297518
-0.0735386
-0.105656
-0.130312
-0.152589
-0.177331
-0.208435
-0.248266
-0.297291
-0.354066
-0.415622
-0.478146
-0.537746
-0.591513
-0.637478
-0.674464
-0.702256
-0.721263
-0.732648
-0.738189
-0.739684
-0.738515
-0.735243
-0.729331
-0.719095
-0.701887
-0.674485
-0.633783
-0.577447
-0.503918
-0.412686
-0.304517
-0.180771
-0.0444584
0.0958916
0.226555
0.333893
0.407804
0.444854
0.449973
0.435977
0.420921
0.424124
0.471042
0.618529
0.896533
1.22433
1.49981
1.63135
1.56725
1.31923
0.967362
0.635843
0.442478
0.420609
0.475925
0.561243
0.652577
0.726813
0.764816
0.752988
0.683639
0.554952
0.37114
0.144392
-0.1501
-0.517121
0
1.9333
5.3655
9.74006
13.9969
16.9447
17.6979
15.9899
12.2555
7.47325
2.83211
-0.662766
-2.50449
-2.78849
-1.97665
-1.06542
-0.258687
0.281791
0.481956
0.578552
0.646202
0.69471
0.727473
0.749016
0.764685
0.780234
0.801416
0.833327
0.88005
0.945037
1.03061
1.13765
1.26534
1.41116
1.57102
1.73975
1.91176
2.08168
2.24508
2.39905
2.54256
2.67671
2.80468
2.93142
3.0631
3.20638
3.36747
3.55128
3.76054
3.99542
4.25331
4.52931
4.81682
5.10828
5.3956
5.66938
5.9178
6.1279
6.29177
6.40338
6.45926
6.45916
6.4062
6.30613
6.16592
5.99221
5.79052
5.56844
5.33235
5.08666
4.8351
4.58159
4.33
4.08371
3.84522
3.61596
3.39643
3.18664
2.98662
2.79685
2.61852
2.45347
2.30389
2.17191
2.05925
1.96694
1.89524
1.84383
1.81221
1.79997
1.80697
1.8335
1.88216
1.958
2.06027
2.16929
2.25715
2.29645
2.26988
2.17766
2.03922
1.8878
1.75983
1.68306
1.6534
1.65497
1.67812
1.71513
1.75765
1.79801
1.83012
1.84998
1.85598
1.84868
1.83057
1.8055
1.7782
1.75355
1.73593
1.72864
1.73337
1.75021
1.77824
1.81565
1.86003
1.90867
1.95895
2.00813
2.05379
2.09427
2.12902
2.15886
2.18596
2.21336
2.2443
2.28128
2.32513
2.37522
2.42825
2.47608
2.5071
2.50944
2.47393
2.39681
2.28127
2.13671
1.9758
1.81009
1.64591
1.4821
1.31454
1.13619
0.933204
0.688905
0.406529
0.0994328
-0.244683
0
1.24563
3.79308
7.56996
12.0028
16.1017
18.7549
19.1371
17.0538
13.0562
8.24666
3.84686
0.730946
-0.843074
-1.18414
-0.82937
-0.452001
-0.0991828
0.198718
0.414728
0.565774
0.675768
0.755761
0.811641
0.847931
0.868275
0.876453
0.876616
0.872866
0.86891
0.867757
0.871668
0.882198
0.900496
0.927262
0.962879
1.00774
1.06233
1.12709
1.2022
1.28734
1.38201
1.48486
1.59472
1.71124
1.83546
1.96988
2.118
2.28342
2.46876
2.67492
2.89961
3.13959
3.39091
3.6488
3.90795
4.15916
4.38726
4.57675
4.71267
4.7845
4.78933
4.73215
4.62253
4.46906
4.27476
4.0417
3.77524
3.47707
3.14609
2.78419
2.39644
1.99035
1.575
1.15902
0.750046
148
297
443
594
749
900
1049
1197
1346
1511
1655
1803
1969
2114
2276
2417
2582
2738
2894
3042
3205
3366
3523
3681
3136
3258
3380
3500
3620
3741
0
0
0
0
0
0
0
0
0
0
0
0
0
0
0
0
0
0
0
0
0
0
0
0
0
0
0
0
0
0
0
0
0
0
0
0
0
0
0
0
0
0
0
0
0
0
0
0
0
0
0
0
0
0
0
0
0
0
0
0
0
0
0
0
0
0
0
0
0
0
0
0
0
0
0
0
0
0
0
0
0
0
0
0
0
0
0
0
0
0
0
0
0
0
0
0
0
0
0
0
0
0
0
0
0
0
0
0
0
0
0
0
0
0
0
0
0
0
0
0
0
0
0
0
0
0
0
0
0
0
0
0
0
0
0
0
0
0
0
0
0
0
0
0
0
0
0
0
0
0
0
0
0
0
0
0
0
0
0
0
0
0
0
0
0
0
0
0
0
0
0
0
0
0
0
0
0
0
0
0
0
0
0
0
0
0
0
0
0
0
0
0
0
0
0
0
0
0
0
0
0
0
0
0
0
0
0
0
0
0
0
0
0
0
0
0
0
0
0
0
0
0
0
0
0
0
0
0
0
0
0
0
0
0
0
0
0
0
0
0
0
0
0
0
0
0
0
0
0
0
0
0
0
0
0
0
0
0
0
0
0
0
0
0
0
0
0
0
0
0
0
0
0
0
0
0
0
0
0
0
0
0
0
0
0
0
0
0
0
0
0
0
0
0
0
0
0
0
0
0
0
0
0
0
0
0
0
0
0
0
0
0
0
0
0
0
0
0
0
0
0
0
0
0
0
0
0
0
0
0
0
0
0
0
0
0
0
0
0
0
0
0
0
0
0
0
0
0
0
0
0
0
0
0
0
0
0
0
0
0
0
0
0
0
0
0
0
0
0
0
0
0
0
0
0
0
0
0
0
0
0
0
0
0
0
0
0
0
0
0
0
0
0
0
0
0
0
0
0
0
0
0
0
0
0
0
0
0
0
0
0
0
0
0
0
0
0
0
0
0
0
0
0
0
0
0
0
0
0
0
0
0
0
0
0
0
0
0
0
0
0
0
0
0
0
0
0
0
0
0
0
0
0
0
0
0
0
0
0
0
0
0
0
0
0
0
0
0
0
0
0
0
0
0
0
0
0
0
0
0
0
0
0
0
0
0
0
0
0
0
0
0
0
0
0
0
0
0
0
0
0
0
0
0
0
0
0
0
0
0
0
0
0
0
0
0
0
0
0
0
0
0
0
0
0
0
0
0
0
0
0
0
0
0
0
0
0
0
0
0
0
0
0
0
0
0
0
0
0
0
0
0
0
0
0
0
0
0
0
0
0
0
0
0
0
0
0
0
0
0
0
0
0
0
0
0
0
0
0
0
0
0
0
0
0
0
0
0
0
0
0
0
0
0
0
0
0
0
0
0
0
0
0
0
0
0
0
0
0
0
0
0
0
0
0
0
0
0
0
0
0
0
0
0
0
0
0
0
0
0
0
0
0
0
0
0
0
0
0
0
0
0
0
0
0
0
0
0
0
0
0
0
0
0
0
0
0
0
0
0
0
0
0
0
0
0
0
0
0
0
0
0
0
0
0
0
0
0
0
0
0
0
0
0
0
0
0
0
0
0
0
0
0
0
0
0
0
0
0
0
0
0
0
0
0
0
0
0
0
0
0
0
0
0
0
0
0
0
0
0
0
0
0
0
0
0
0
0
0
0
0
0
0
0
0
0
0
0
0
0
0
0
0
0
0
0
0
0
0
0
0
0
0
0
0
0
0
0
0
0
0
0
0
0
0
0
0
0
0
0
0
0
0
0
0
0
0
0
0
0
0
0
0
0
0
0
0
0
0
0
0
0
0
0
0
0
0
0
0
0
0
0
0
0
0
0
0
0
0
0
0
0
0
0
0
0
0
0
0
0
0
0
0
0
0
0
0
0
0
0
0
0
0
0
0
0
0
0
0
0
0
0
0
0
0
0
0
0
0
0
0
0
0
0
0
0
0
0
0
0
0
0
0
0
0
0
0
0
0
0
0
0
0
0
0
0
0
0
0
0
0
0
0
0
0
0
0
0
0
0
0
0
0
0
0
0
0
0
0
0
0
0
0
0
0
0
0
0
0
0
0
0
0
0
0
0
0
0
0
0
0
0
0
0
0
0
0
0
0
0
0
0
0
0
0
0
0
0
0
0
0
0
0
0
0
0
0
0
0
0
0
0
0
0
0
0
0
0
0
0
0
0
0
0
0
0
0
0
0
0
0
0
0
0
0
0
0
0
0
0
0
0
0
0
0
0
0
0
0
0
0
0
0
0
0
0
0
0
0
0
0
0
0
0
0
0
0
0
0
0
0
0
0
0
0
0
0
0
0
0
0
0
0
0
0
0
0
0
0
0
0
0
0
0
0
0
0
0
0
0
0
0
0
0
0
0
0
0
0
0
0
0
0
0
0
0
0
0
0
0
0
0
0
0
0
0
0
0
0
0
0
0
0
0
0
0
0
0
0
0
0
0
0
0
0
0
0
0
0
0
0
0
0
0
0
0
0
0
0
0
0
0
0
0
0
0
0
0
0
0
0
0
0
0
0
0
0
0
0
0
0
0
0
0
0
0
0
0
0
0
0
0
0
0
0
0
0
0
0
0
0
0
0
0
0
0
0
0
0
0
0
0
0
0
0
0
0
0
0
0
0
0
0
0
0
0
0
0
0
0
0
0
0
0
0
0
0
0
0
0
0
0
0
0
0
0
0
0
0
0
0
0
0
0
0
0
0
0
0
0
0
0
0
0
0
0
0
0
0
0
0
0
0
0
0
0
0
0
0
0
0
0
0
0
0
0
0
0
0
0
0
0
0
0
0
0
0
0
0
0
0
0
0
0
0
0
0
0
0
0
0
0
0
0
0
0
0
0
0
0
0
0
0
0
0
0
0
0
0
0
0
0
0
0
0
0
0
0
0
0
0
0
0
0
0
0
0
0
0
0
0
0
0
0
0
0
0
0
0
0
0
0
0
0
0
0
0
0
0
0
0
0
0
0
0
0
0
0
0
0
0
0
0
0
0
0
0
0
0
0
0
0
0
0
0
0
0
0
0
0
0
0
0
0
0
0
0
0
0
0
0
0
0
0
0
0
0
0
0
0
0
0
0
0
0
0
0
0
0
0
0
0
0
0
0
0
0
0
0
0
0
0
0
0
0
0
0
0
0
0
0
0
0
0
0
0
0
0
0
0
0
0
0
0
0
0
0
0
0
0
0
0
0
0
0
0
0
0
0
0
0
0
0
0
0
0
0
0
0
0
0
0
0
0
0
0
0
0
0
0
0
0
0
0
0
0
0
0
0
0
0
0
0
0
0
0
0
0
0
0
0
0
0
0
0
0
0
0
0
0
0
0
0
0
0
0
0
0
0
0
0
0
0
0
0
0
0
0
0
0
0
0
0
0
0
0
0
0
0
0
0
0
0
0
0
0
0
0
0
0
0
0
0
0
0
0
0
0
0
0
0
0
0
0
0
0
0
0
0
0
0
0
0
0
0
0
0
0
0
0
0
0
0
0
0
0
0
0
0
0
0
0
0
0
0
0
0
0
0
0
0
0
0
0
0
0
0
0
0
0
0
0
0
0
0
0
0
0
0
0
0
0
0
0
0
0
0
0
0
0
0
0
0
0
0
0
0
0
0
0
0
0
0
0
0
0
0
0
0
0
0
0
0
0
0
0
0
0
0
0
0
0
0
0
0
0
0
0
0
0
0
0
0
0
0
0
0
0
0
0
0
0
0
0
0
0
0
0
0
0
0
0
0
0
0
0
0
0
0
0
0
0
0
0
0
0
0
0
0
0
0
0
0
0
0
0
0
0
0
0
0
0
0
0
0
0
0
0
0
0
0
0
0
0
0
0
0
0
0
0
0
0
0
0
0
0
0
0
0
0
0
0
0
0
0
0
0
0
0
0
0
0
0
0
0
0
0
0
0
0
0
0
0
0
0
0
0
0
0
0
0
0
0
0
0
0
0
0
0
0
0
0
0
0
0
0
0
0
0
0
0
0
0
0
0
0
0
0
0
0
0
0
0
0
0
0
0
0
0
0
0
0
0
0
0
0
0
0
0
0
0
0
0
0
0
0
0
0
0
0
0
0
0
0
0
0
0
0
0
0
0
0
0
0
0
0
0
0
0
0
0
0
0
0
0
0
0
0
0
0
0
0
0
0
0
0
0
0
0
0
0
0
0
0
0
0
0
0
0
0
0
0
0
0
0
0
0
0
0
0
0
0
0
0
0
0
0
0
0
0
0
0
0
0
0
0
0
0
0
0
0
0
0
0
0
0
0
0
0
0
0
0
0
0
0
0
0
0
0
0
0
0
0
0
0
0
0
0
0
0
0
0
0
0
0
0
0
0
0
0
0
0
0
0
0
0
0
0
0
0
0
0
0
0
0
0
0
0
0
0
0
0
0
0
0
0
0
0
0
0
0
0
0
0
0
0
0
0
0
0
0
0
0
0
0
0
0
0
0
0
0
0
0
0
0
0
0
0
0
0
0
0
0
0
0
0
0
0
0
0
0
0
0
0
0
0
0
0
0
0
0
0
0
0
0
0
0
0
0
0
0
0
0
0
0
0
0
0
0
0
0
0
0
0
0
0
0
0
0
0
0
0
0
0
0
0
0
0
0
0
0
0
0
0
0
0
0
0
0
0
0
0
0
0
0
0
0
0
0
0
0
0
0
0
0
0
0
0
0
0
0
0
0
0
0
0
0
0
0
0
0
0
0
0
0
0
0
0
0
0
0
0
0
0
0
0
0
0
0
0
0
0
0
0
0
0
0
0
0
0
0
0
0
0
0
0
0
0
0
0
0
0
0
0
0
0
0
0
0
0
0
0
0
0
0
0
0
0
0
0
0
0
0
0
0
0
0
0
0
0
0
0
0
0
0
0
0
0
0
0
0
0
0
0
0
0
0
0
0
0
0
0
0
0
0
0
0
0
0
0
0
0
0
0
0
0
0
0
0
0
0
0
0
0
0
0
0
0
0
0
0
0
0
0
0
0
0
0
0
0
0
0
0
0
0
0
0
0
0
0
0
0
0
0
0
0
0
0
0
0
0
0
0
0
0
0
0
0
0
0
0
0
0
0
0
0
0
0
0
0
0
0
0
0
0
0
0
0
0
0
0
0
0
0
0
0
0
0
0
0
0
0
0
0
0
0
0
0
0
0
0
0
0
0
0
0
0
0
0
0
0
0
0
0
0
0
0
0
0
0
0
0
0
0
0
0
0
0
0
0
0
0
0
0
0
0
0
0
0
0
0
0
0
0
0
0
0
0
0
0
0
0
0
0
0
0
0
0
0
0
0
0
0
0
0
0
0
0
0
0
0
0
0
0
0
0
0
0
0
0
0
0
0
0
0
0
0
0
0
0
0
0
0
0
0
0
0
0
0
0
0
0
0
0
0
0
0
0
0
0
0
0
0
0
0
0
0
0
0
0
0
0
0
0
0
0
0
0
0
0
0
0
0
0
0
0
0
0
0
0
0
0
0
0
0
0
0
0
0
0
0
0
0
0
0
0
0
0
0
0
0
0
0
0
0
0
0
0
0
0
0
0
0
0
0
0
0
0
0
0
0
0
0
0
0
0
0
0
0
0
0
0
0
0
0
0
0
0
0
0
0
0
0
0
0
0
0
0
0
0
0
0
0
0
0
0
0
0
0
0
0
0
0
0
0
0
0
0
0
0
0
0
0
0
0
0
0
0
0
0
0
0
0
0
0
0
0
0
0
0
0
0
0
0
0
0
0
0
0
0
0
0
0
0
0
0
0
0
0
0
0
0
0
0
0
0
0
0
0
0
0
0
0
0
0
0
0
0
0
0
0
0
0
0
0
0
0
0
0
0
0
0
0
0
0
0
0
0
0
0
0
0
0
0
0
0
0
0
0
0
0
0
0
0
0
0
0
0
0
0
0
0
0
0
0
0
0
0
0
0
0
0
0
0
0
0
0
0
0
0
0
0
0
0
0
0
0
0
0
0
0
0
0
0
0
0
0
0
0
0
0
0
0
0
0
0
0
0
0
0
0
0
0
0
0
0
0
0
0
0
0
0
0
0
0
0
0
0
0
0
0
0
0
0
0
0
0
0
0
0
0
0
0
0
0
0
0
0
0
0
0
0
0
0
0
0
0
0
0
0
0
0
0
0
0
0
0
0
0
0
0
0
0
0
0
0
0
0
0
0
0
0
0
0
0
0
0
0
0
0
0
0
0
0
0
0
0
0
0
0
0
0
0
0
0
0
0
0
0
0
0
0
0
0
0
0
0
0
0
0
0
0
0
0
0
0
0
0
0
0
0
0
0
0
0
0
0
0
0
0
0
0
0
0
0
0
0
0
0
0
0
0
0
0
0
0
0
0
0
0
0
0
0
0
0
0
0
0
0
0
0
0
0
0
0
0
0
0
0
0
0
0
0
0
0
0
0
0
0
0
0
0
0
0
0
0
0
0
0
0
0
0
0
0
0
0
0
0
0
0
0
0
0
0
0
0
0
0
0
0
0
0
0
0
0
0
0
0
0
0
0
0
0
0
0
0
0
0
0
0
0
0
0
0
0
0
0
0
0
0
0
0
0
0
0
0
0
0
0
0
0
0
0
0
0
0
0
0
0
0
0
0
0
0
0
0
0
0
0
0
0
0
0
0
0
0
0
0
0
0
0
0
0
0
0
0
0
0
0
0
0
0
0
0
0
0
0
0
0
0
0
0
0
0
0
0
0
0
0
0
0
0
0
0
0
0
0
0
0
0
0
0
0
0
0
0
0
0
0
0
0
0
0
0
0
0
0
0
0
0
0
0
0
0
0
0
0
0
0
0
0
0
0
0
0
0
0
0
0
0
0
0
0
0
0
0
0
0
0
0
0
0
0
0
0
0
0
0
0
0
0
0
0
0
0
0
0
0
0
0
0
0
0
0
0
0
0
0
0
0
0
0
0
0
0
0
0
0
0
0
0
0
0
0
0
0
0
0
0
0
0
0
0
0
0
0
0
0
0
0
0
0
0
0
0
0
0
0
0
0
0
0
0
0
0
0
0
0
0
0
0
0
0
0
0
0
0
0
0
0
0
0
0
0
0
0
0
0
0
0
0
0
0
0
0
0
0
0
0
0
0
0
0
0
0
0
0
0
0
0
0
0
0
0
0
0
0
0
0
0
0
0
0
0
0
0
0
0
0
0
0
0
0
0
0
0
0
0
0
0
0
0
0
0
0
0
0
0
0
0
0
0
0
0
0
0
0
0
0
0
0
0
0
0
0
0
0
0
0
0
0
0
0
0
0
0
0
0
0
0
0
0
0
0
0
0
0
0
0
0
0
0
0
0
0
0
0
0
0
0
0
0
0
0
0
0
0
0
0
0
0
0
0
0
0
0
0
0
0
0
0
0
0
0
0
0
0
0
0
0
0
0
0
0
0
0
0
0
0
0
0
0
0
0
0
0
0
0
0
0
0
0
0
0
0
0
0
0
0
0
0
0
0
0
0
0
0
0
0
0
0
0
0
0
0
0
0
0
0
0
0
0
0
0
0
0
0
0
0
0
0
0
0
0
0
0
0
0
0
0
0
0
0
0
0
0
0
0
0
0
0
0
0
0
0
0
0
0
0
0
0
0
0
0
0
0
0
0
0
0
0
0
0
0
0
0
0
0
0
0
0
0
0
0
0
0
0
0
0
0
0
0
0
0
0
0
0
0
0
0
0
0
0
0
0
0
0
0
0
0
0
0
0
0
0
0
0
0
0
0
0
0
0
0
0
0
0
0
0
0
0
0
0
0
0
0
0
0
0
0
0
0
0
0
0
0
0
0
0
0
0
0
0
0
0
0
0
0
0
0
0
0
0
0
0
0
0
0
0
0
0
0
0
0
0
0
0
0
0
0
0
0
0
0
0
0
0
0
0
0
0
0
0
0
0
0
0
0
0
0
0
0
0
0
0
0
0
0
0
0
0
0
0
0
0
0
0
0
0
0
0
0
0
0
0
0
0
0
0
0
0
0
0
0
0
0
0
0
0
0
0
0
0
0
0
0
0
0
0
0
0
0
0
0
0
0
0
0
0
0
0
0
0
0
0
0
0
0
0
0
0
0
0
0
0
0
0
0
0
0
0
0
0
0
0
0
0
0
0
0
0
0
0
0
0
0
0
0
0
0
0
0
0
0
0
0
0
0
0
0
0
0
0
0
0
0
0
0
0
0
0
0
0
0
0
0
0
0
0
0
0
0
0
0
0
0
0
0
0
0
0
0
0
0
0
0
0
0
0
0
0
0
0
0
0
0
0
0
0
0
0
0
0
0
0
0
0
0
0
0
0
0
0
0
0
0
0
0
0
0
0
0
0
0
0
0
0
0
0
0
0
0
0
0
0
0
0
0
0
0
0
0
0
0
0
0
0
0
0
0
0
0
0
0
0
0
0
0
0
0
0
0
0
