21.3562
21.32
21.2814
21.2414
21.2014
21.163
21.1275
21.0964
21.0704
21.0501
21.0358
21.0274
21.0245
21.0265
21.0326
21.0419
21.0534
21.0664
21.0798
21.0932
21.1061
21.1182
21.1291
21.1387
21.1467
21.1531
21.1576
21.1604
21.1616
21.1615
21.1602
21.1577
21.1539
21.1482
21.1402
21.1297
21.1164
21.1006
21.0828
21.0636
21.0433
21.0222
20.9997
20.9752
20.9476
20.9157
20.879
20.8374
20.7915
20.7428
20.6934
20.6455
20.6013
20.5626
20.5307
20.5064
20.49
20.4815
20.4806
20.4875
20.5023
20.5254
20.5574
20.5993
20.6529
20.7211
20.8045
20.8924
20.9649
20.999
20.9744
20.8794
20.7141
20.491
20.2316
19.9617
19.7032
19.463
19.2422
19.0429
18.8659
18.7097
18.5707
18.4437
18.3227
18.2015
18.0742
17.9366
17.786
17.6216
17.4456
17.2553
17.0046
17.2248
18.0693
19.3492
20.6031
21.4175
21.7113
21.6839
21.479
20.9502
19.8259
18.1133
16.2795
14.9736
14.5528
14.9047
15.2581
15.5679
15.7957
15.935
16.0289
16.103
16.1599
16.1984
16.218
16.2193
16.2042
16.1761
16.1391
16.0981
16.0579
16.0225
15.9945
15.9754
15.9656
15.9644
15.9698
15.9795
15.9915
16.0047
16.0187
16.0342
16.0525
16.0749
16.1023
16.1352
16.1739
16.2184
16.2687
16.3248
16.3867
16.4541
16.5265
16.6026
16.6805
16.7572
16.8288
16.8901
16.9335
16.9516
16.9366
16.8807
16.7767
16.6195
16.4064
16.1385
15.8196
15.4568
15.0633
14.6516
14.2304
13.8074
13.3901
12.9854
12.5994
12.2369
11.9014
11.5952
11.3189
11.0719
10.8528
10.6589
10.4867
10.3324
10.1913
10.0588
9.93006
9.8011
9.66888
9.53177
9.38979
9.24454
9.09883
8.95615
8.81999
8.69309
8.57698
8.47166
8.37561
8.28619
8.20013
8.11417
8.02564
7.93277
7.83486
7.73215
7.62543
7.51567
7.40364
7.28968
7.17373
7.05544
6.93453
6.8111
6.68582
6.56
6.43541
6.31401
6.1976
6.08749
5.98438
5.88829
5.79867
5.71463
5.63504
5.55874
5.48466
5.41189
5.33978
5.26802
5.19671
5.12626
5.05727
4.99036
4.92583
4.86359
4.80305
4.74333
4.68351
4.62308
4.56226
4.50227
4.44532
4.39446
4.35309
4.32464
4.31237
4.3198
4.35199
4.4164
4.51594
4.63077
4.72701
4.76782
4.72218
4.57499
4.33441
4.03218
3.71474
3.42736
3.18212
2.96401
2.76506
2.58283
2.4135
2.25248
2.09496
1.93634
1.77264
1.6008
1.41887
1.22617
1.02286
0.810124
0.310694
0
0.505348
2.22879
5.25396
9.05856
12.5729
14.5823
14.2963
11.7588
7.84093
3.81589
0.771847
-0.801141
-1.06301
-0.566506
-0.166486
0.165617
0.389292
0.500197
0.572611
0.626816
0.66704
0.696402
0.717385
0.731461
0.73962
0.743122
0.743769
0.743987
0.746704
0.754845
0.770864
0.796366
0.831955
0.87733
0.93161
0.993773
1.06305
1.1391
1.22228
1.31354
1.414
1.52457
1.6456
1.77661
1.91624
2.06238
2.21252
2.36412
2.51496
2.6634
2.8084
2.94936
3.08571
3.21645
3.33972
3.45242
3.55053
3.62911
3.68263
3.70561
3.69309
3.64114
3.54726
3.41074
3.2329
3.01864
2.77553
2.51217
2.23684
1.95698
1.67995
1.41268
1.16122
0.930345
0.723353
0.541963
0.386448
0.255864
0.148361
0.0615026
-0.00745106
-0.0613314
-0.102914
-0.134822
-0.159463
-0.178963
-0.19513
-0.209403
-0.222852
-0.23619
-0.24982
-0.263878
-0.278265
-0.292642
-0.306397
-0.318617
-0.328084
-0.3333
-0.332746
-0.32516
-0.309816
-0.286645
-0.256362
-0.220811
-0.182372
-0.143468
-0.106053
-0.071209
-0.0389481
-0.00827713
0.0225153
0.0554085
0.0920538
0.133394
0.179508
0.229716
0.282403
0.335217
0.385704
0.431819
0.472327
0.507003
0.53657
0.562426
0.586235
0.609515
0.633285
0.657946
0.683376
0.709049
0.734221
0.758157
0.780339
0.800654
0.819519
0.837937
0.857477
0.880154
0.908185
0.943576
0.987726
1.04106
1.10283
1.17153
1.24432
1.31799
1.38987
1.45859
1.52446
1.58949
1.65692
1.73044
1.81344
1.90779
2.01556
2.1391
2.28053
2.43872
2.60218
2.74949
2.85638
2.89889
2.85902
2.73129
2.52727
2.2755
2.01585
1.78896
1.60632
1.45626
1.32944
1.2234
1.13561
1.06219
0.998276
0.938479
0.87731
0.809476
0.727828
0.619465
0.486152
0.336021
0.00354843
0
0.80612
2.88453
6.27445
10.3851
14.0711
16.0693
15.6002
12.7812
8.58872
4.38504
1.29429
-0.21707
-0.367537
0.234976
0.546081
0.812949
1.04102
1.22119
1.36483
1.47357
1.55175
1.6055
1.64186
1.66795
1.69027
1.71421
1.74365
1.78093
1.82676
1.88061
1.94096
2.00573
2.07265
2.1397
2.20542
2.26921
2.33155
2.39407
2.45943
2.53104
2.61245
2.70671
2.81568
2.93949
3.07633
3.22255
3.37329
3.52315
3.66711
3.8013
3.92351
4.03337
4.13223
4.22267
4.30758
4.38977
4.47194
4.55466
4.63205
4.69195
4.71989
4.70275
4.63124
4.50106
4.31282
4.07139
3.78514
3.46532
3.12799
2.78709
2.45142
2.12601
1.81499
1.52274
1.2528
1.00774
0.789437
0.599034
0.436237
0.299336
0.186017
0.0934967
0.0186226
-0.0419992
-0.0918163
-0.134071
-0.171512
-0.206193
-0.239277
-0.27103
-0.300998
-0.328202
-0.351365
-0.36916
-0.380475
-0.384648
-0.381647
-0.372143
-0.357433
-0.33923
-0.31937
-0.299487
-0.280777
-0.263884
-0.248927
-0.235649
-0.223598
-0.212293
-0.201334
-0.190442
-0.179462
-0.168343
-0.15713
-0.145948
-0.134989
-0.124472
-0.114589
-0.105444
-0.0970051
-0.0890968
-0.0814064
-0.0735172
-0.0649261
-0.0550339
-0.0431149
-0.0282959
-0.00958633
0.0140041
0.043248
0.0784264
0.119077
0.163861
0.210658
0.256757
0.299388
0.336343
0.366463
0.389882
0.407939
0.422804
0.436919
0.452427
0.470748
0.492372
0.517063
0.544147
0.572836
0.602553
0.633182
0.66518
0.699571
0.73784
0.781776
0.833284
0.894176
0.966664
1.0555
1.17089
1.32487
1.50687
1.67939
1.80048
1.83661
1.77319
1.61846
1.40022
1.15727
0.929436
0.742684
0.593084
0.468962
0.36297
0.271473
0.192246
0.122733
0.0598236
0
-0.0382408
-0.0802101
-0.128175
-0.183083
-0.244345
-0.319507
-0.555798
-0.383531
0.657073
2.89115
6.22098
9.96943
13.0184
14.2557
13.1199
9.92023
5.71653
1.81677
-0.810307
-1.8774
-1.72823
-1.0062
-0.388907
0.0938515
0.389655
0.559134
0.703731
0.834821
0.952916
1.05822
1.15022
1.22806
1.29199
1.34235
1.38
1.40677
1.42577
1.44138
1.45889
1.48382
1.52115
1.57343
1.6416
1.72643
1.82794
1.94532
2.07708
2.22122
2.37535
2.53661
2.70171
2.86712
3.02933
3.18525
3.33269
3.47059
3.59908
3.71924
3.83267
3.94085
4.04428
4.14255
4.23421
4.31675
4.38704
4.44181
4.47784
4.49191
4.48067
4.44047
4.36871
4.26412
4.12529
3.95108
3.74215
3.50135
3.23419
2.94808
2.65134
2.35298
2.06195
1.7863
1.53258
1.30548
1.10771
0.940188
0.802373
0.692638
0.608679
0.547728
0.506567
0.481792
0.469962
0.467757
0.472158
0.480599
0.491058
0.502079
0.512706
0.52237
0.530724
0.537516
0.542494
0.545375
0.545887
0.543857
0.539328
0.53266
0.524564
0.516051
0.508294
0.502418
0.499296
0.499359
0.502533
0.508301
0.51586
0.524336
0.532964
0.541202
0.548735
0.555421
0.561208
0.566086
0.570111
0.573504
0.576781
0.580843
0.586981
0.596736
0.611661
0.633023
0.661514
0.697004
0.738433
0.783917
0.831116
0.877652
0.921498
0.961245
0.996216
1.0264
1.0523
1.07468
1.09447
1.11266
1.13032
1.14876
1.16981
1.19587
1.22966
1.27407
1.33174
1.40471
1.49405
1.59973
1.72121
1.85822
2.00965
2.17076
2.32891
2.46664
2.56525
2.60845
2.58675
2.50097
2.36311
2.19371
2.01646
1.85076
1.7018
1.56782
1.44856
1.34358
1.25095
1.1674
1.08867
1.00991
0.926312
0.83376
0.729542
0.6129
0.485282
0.339384
-0.0630293
0
1.03795
3.33209
6.73302
10.507
13.4993
14.5962
13.2766
9.92527
5.68697
1.92021
-0.424275
-1.13984
-0.668336
0.272766
1.10575
1.62606
1.81014
1.90673
1.99257
2.07089
2.14147
2.20456
2.26115
2.31323
2.36361
2.41538
2.47117
2.53231
2.59849
2.66792
2.73797
2.80615
2.87101
2.93264
2.99267
3.05377
3.11891
3.19032
3.269
3.35537
3.44961
3.55167
3.66137
3.77852
3.90297
4.03448
4.17269
4.31703
4.46664
4.62046
4.77724
4.93565
5.09408
5.25036
5.40108
5.54031
5.65832
5.74447
5.78685
5.77463
5.70089
5.56504
5.37358
5.13869
4.8749
4.59568
4.31158
4.02712
3.7448
3.46672
3.19509
2.93255
2.68206
2.4466
2.22864
2.0297
1.85008
1.68886
1.54418
1.41368
1.29497
1.18604
1.08548
0.992552
0.907011
0.828863
0.758086
0.694423
0.637287
0.585823
0.539088
0.496288
0.457022
0.421434
0.390249
0.364664
0.346212
0.336397
0.336276
0.346242
0.365882
0.394082
0.428816
0.467615
0.5079
0.5473
0.583855
0.616109
0.643073
0.664142
0.679073
0.687883
0.690646
0.687612
0.679242
0.666241
0.649616
0.630721
0.611266
0.593321
0.579276
0.571623
0.572522
0.583476
0.605025
0.636546
0.676507
0.722224
0.770501
0.818271
0.863126
0.903667
0.9396
0.971552
1.00072
1.02846
1.05594
1.08389
1.11272
1.14265
1.17389
1.20687
1.24239
1.28161
1.32593
1.37676
1.43526
1.50212
1.57747
1.66086
1.75139
1.84785
1.94868
2.0502
2.14351
2.2163
2.2551
2.24921
2.19513
2.09921
1.97688
1.84825
1.73168
1.63486
1.55322
1.48373
1.42357
1.36905
1.31628
1.26153
1.20136
1.13252
1.05212
0.957743
0.841779
0.686578
0.497083
0.285809
-0.0554794
0
0.895052
2.97422
6.20834
10.0226
13.3774
15.1522
14.666
12.0375
8.15396
4.251
1.35027
-0.122355
-0.359568
0.102272
0.562552
0.942973
1.19329
1.30548
1.37746
1.43496
1.48286
1.52433
1.56162
1.59611
1.62856
1.65935
1.6889
1.71788
1.74734
1.77866
1.81333
1.85272
1.89783
1.94921
2.00701
2.0712
2.14178
2.21904
2.30364
2.39671
2.49968
2.614
2.7408
2.88038
3.03192
3.19318
3.36057
3.52941
3.69449
3.85073
3.99401
4.12166
4.23263
4.32733
4.40656
4.47163
4.52373
4.56301
4.58799
4.59555
4.5822
4.54413
4.47792
4.38127
4.25343
4.09523
3.90892
3.69761
3.46511
3.21679
2.95715
2.6898
2.41889
2.14924
1.88623
1.63544
1.40219
1.1908
1.00407
0.843039
0.707201
0.59391
0.498564
0.41598
0.341253
0.270473
0.201158
0.132327
0.0642624
-0.00191803
-0.0648117
-0.123152
-0.175767
-0.221637
-0.259906
-0.290125
-0.312108
-0.32598
-0.332258
-0.331866
-0.326042
-0.316132
-0.303329
-0.288453
-0.2719
-0.253607
-0.233274
-0.21059
-0.185432
-0.157961
-0.128556
-0.0977127
-0.0658821
-0.0333221
1.37329e-005
0.0345169
0.0708839
0.110003
0.152776
0.199892
0.251603
0.30753
0.366599
0.427139
0.487025
0.544112
0.596632
0.643507
0.684483
0.720041
0.751151
0.778934
0.804351
0.82803
0.850204
0.870862
0.89002
0.908076
0.926051
0.945731
0.969566
1.00035
1.04069
1.09236
1.15577
1.22962
1.31087
1.39555
1.47944
1.55871
1.63072
1.69442
1.75048
1.80109
1.84948
1.89946
1.95476
2.01923
2.09898
2.20579
2.35401
2.53641
2.71575
2.85012
2.90513
2.86304
2.72717
2.52149
2.28544
2.06422
1.89156
1.76306
1.66177
1.57711
1.50428
1.44045
1.38243
1.32673
1.26955
1.20686
1.13291
1.03093
0.853065
0.602937
0.3078
-0.0941048
0
1.1145
3.63282
7.4327
11.7293
15.2582
16.7909
15.728
12.4153
7.98259
3.79725
0.861668
-0.512199
-0.629591
-0.0765457
0.432453
0.854294
1.1222
1.20893
1.24903
1.26096
1.25649
1.24767
1.24504
1.25597
1.28177
1.32039
1.36901
1.42437
1.48294
1.54164
1.59831
1.65194
1.7026
1.75114
1.79887
1.84724
1.89766
1.95147
2.00996
2.07442
2.14614
2.22628
2.31574
2.41497
2.52383
2.64158
2.76689
2.89801
3.03289
3.16923
3.30461
3.43647
3.56223
3.6793
3.7854
3.87872
3.95794
4.0221
4.06967
4.0984
4.10589
4.08943
4.04532
3.96945
3.85818
3.70925
3.5227
3.30125
3.05026
2.77763
2.49258
2.20334
1.91659
1.63787
1.37155
1.12084
0.887993
0.674974
0.483191
0.313326
0.165659
0.0400219
-0.0642208
-0.147747
-0.212045
-0.25885
-0.289999
-0.30727
-0.312205
-0.305871
-0.288565
-0.259486
-0.216481
-0.156438
-0.0753796
0.031395
0.168182
0.337729
0.540234
0.772652
1.0285
1.29837
1.57093
1.8341
2.07671
2.2903
2.46993
2.61448
2.72613
2.80941
2.86993
2.91317
2.94331
2.96309
2.97384
2.9756
2.96757
2.9487
2.91806
2.87501
2.8194
2.75163
2.67312
2.58626
2.49399
2.39996
2.30821
2.22272
2.14818
2.08792
2.04022
2.00116
1.96677
1.93517
1.9079
1.8897
1.88686
1.90482
1.94448
2.00071
2.0691
2.14497
2.22302
2.29818
2.36637
2.42496
2.47301
2.51117
2.54134
2.56629
2.5891
2.61279
2.63989
2.67228
2.71123
2.75744
2.81126
2.87282
2.94231
3.02028
3.10858
3.2129
3.34797
3.5304
3.73336
3.90742
3.99414
3.94846
3.75998
3.46153
3.11888
2.80403
2.56363
2.36651
2.18744
2.01927
1.86026
1.70908
1.56467
1.42588
1.29105
1.15756
1.02206
0.880956
0.731132
0.570803
0.400089
0.199821
-0.154766
0
1.14009
3.54181
7.00071
10.7127
13.4935
14.2836
12.6798
9.16668
4.89118
1.11622
-1.3188
-2.23839
-2.00925
-1.21555
-0.386025
0.218197
0.489231
0.470774
0.438719
0.407666
0.381848
0.364909
0.359335
0.365041
0.380895
0.405753
0.438318
0.477272
0.521507
0.5702
0.622745
0.678752
0.737907
0.79977
0.864345
0.932487
1.00614
1.08822
1.18196
1.29001
1.41347
1.55114
1.69904
1.85268
2.0075
2.15932
2.30498
2.44246
2.57005
2.68519
2.78685
2.87435
2.9473
3.00629
3.05333
3.09159
3.12433
3.15338
3.17735
3.19119
3.18643
3.15305
3.08172
2.96575
2.80228
2.59249
2.34115
2.05774
1.75504
1.44326
1.13032
0.823914
0.53132
0.258936
0.0118469
-0.206511
-0.394513
-0.552319
-0.68167
-0.785558
-0.867845
-0.93286
-0.985041
-1.02862
-1.06737
-1.10442
-1.14209
-1.18187
-1.22437
-1.26943
-1.3162
-1.36332
-1.40911
-1.4517
-1.48921
-1.51976
-1.54195
-1.55497
-1.55855
-1.55268
-1.53897
-1.51968
-1.49709
-1.47297
-1.44824
-1.42305
-1.39706
-1.37003
-1.34216
-1.31437
-1.28789
-1.26401
-1.24362
-1.22688
-1.21314
-1.2011
-1.18916
-1.17592
-1.16051
-1.14278
-1.12311
-1.10225
-1.0811
-1.06035
-1.04035
-1.02101
-1.00193
-0.982603
-0.962608
-0.941806
-0.920378
-0.898744
-0.877414
-0.856797
-0.837036
-0.817905
-0.79879
-0.778736
-0.756541
-0.730884
-0.700433
-0.663961
-0.620435
-0.56909
-0.509445
-0.44127
-0.364494
-0.279079
-0.184906
-0.0815407
0.0334599
0.16838
0.343997
0.580554
0.841835
1.06819
1.19887
1.19359
1.04943
0.805966
0.535771
0.323351
0.236509
0.235787
0.269761
0.317302
0.370317
0.42169
0.464624
0.493261
0.503067
0.491319
0.457125
0.401501
0.327361
0.239364
0.14191
-0.131719
0
1.00968
3.28689
6.67362
10.3689
13.1641
13.9896
12.4684
9.13081
5.14296
1.72423
-0.386457
-1.12232
-0.902764
-0.293649
0.0836367
0.435725
0.746815
1.01995
1.25613
1.45492
1.61844
1.75082
1.8574
1.94406
2.0166
2.08032
2.13977
2.19857
2.25941
2.32399
2.3931
2.46676
2.54441
2.62517
2.70812
2.79259
2.8783
2.96548
3.05475
3.14704
3.24335
3.34453
3.45106
3.56297
3.67978
3.8005
3.92388
4.04854
4.17323
4.2971
4.41979
4.5415
4.66291
4.78493
4.90846
5.03415
5.16227
5.29087
5.41233
5.5128
5.57783
5.59481
5.55519
5.45526
5.29597
5.08239
4.82332
4.53063
4.2187
3.90166
3.58852
3.28338
2.98793
2.70559
2.44103
2.199
1.98322
1.79671
1.64206
1.52096
1.4337
1.3787
1.35212
1.34768
1.35699
1.37074
1.37795
1.37019
1.34394
1.30177
1.25178
1.20498
1.17183
1.15888
1.1646
1.18271
1.20831
1.23752
1.26706
1.29473
1.31956
1.3417
1.36214
1.38231
1.40378
1.42797
1.45594
1.48819
1.52444
1.56361
1.60375
1.64231
1.67643
1.70346
1.72148
1.72971
1.72867
1.72011
1.70661
1.69108
1.67609
1.66335
1.65337
1.64551
1.63793
1.62827
1.61439
1.59496
1.56978
1.53971
1.50638
1.47164
1.43724
1.40451
1.37435
1.34738
1.32402
1.30456
1.28905
1.27734
1.26902
1.26357
1.26066
1.26039
1.26351
1.27141
1.28602
1.3102
1.34848
1.40739
1.48931
1.57897
1.65043
1.67675
1.63809
1.52831
1.35724
1.14789
0.92955
0.729912
0.560408
0.415931
0.290562
0.181232
0.0856674
0
-0.0494522
-0.101425
-0.162765
-0.239372
-0.335319
-0.4522
-0.588905
-0.84641
-1.1861
-0.875195
0.571504
3.33895
7.06116
10.8085
13.392
13.8804
12.0578
8.54804
4.51902
1.13626
-0.913941
-1.58614
-1.30005
-0.686344
-0.311513
-0.00250778
0.217695
0.38046
0.511909
0.61786
0.704861
0.779071
0.845477
0.907916
0.968549
1.02859
1.08881
1.14976
1.21192
1.27563
1.34103
1.4079
1.47576
1.54406
1.61262
1.68199
1.7537
1.83018
1.91439
2.00916
2.1165
2.23695
2.36906
2.51022
2.65737
2.80728
2.95699
3.10419
3.24733
3.3855
3.51816
3.64494
3.76531
3.87838
3.98279
4.07649
4.15645
4.21916
4.2607
4.27684
4.26341
4.21675
4.13419
4.01444
3.85783
3.66642
3.44498
3.19925
2.93503
2.65885
2.37761
2.09823
1.82727
1.57054
1.33274
1.11721
0.925698
0.758445
0.614291
0.491031
0.385836
0.295714
0.217897
0.150122
0.0907349
0.0386623
-0.00673828
-0.0458698
-0.0790707
-0.106723
-0.12926
-0.147102
-0.160558
-0.169754
-0.174646
-0.175098
-0.171017
-0.162589
-0.150317
-0.135004
-0.117656
-0.0993588
-0.0811823
-0.0641424
-0.0492025
-0.0372601
-0.0290718
-0.0251955
-0.025802
-0.0305462
-0.0385269
-0.0483795
-0.0584956
-0.0673132
-0.0736013
-0.0766567
-0.076362
-0.073095
-0.0675109
-0.0602676
-0.0517817
-0.0420821
-0.0308142
-0.017402
-0.00131621
0.0176279
0.0390355
0.0618472
0.0844501
0.104969
0.121688
0.133491
0.140217
0.142819
0.143289
0.144341
0.148936
0.159774
0.178881
0.207254
0.24483
0.290732
0.343649
0.402278
0.465712
0.533705
0.60675
0.685984
0.772893
0.86905
0.976213
1.09655
1.23221
1.38165
1.53372
1.67095
1.77491
1.83075
1.83125
1.779
1.68571
1.56897
1.44742
1.33471
1.23416
1.14517
1.0679
1.00158
0.944069
0.892021
0.841118
0.786412
0.722807
0.645632
0.551237
0.437492
0.301693
0.145832
-0.142947
-0.408796
0
1.58286
4.49861
8.33423
12.0818
14.4904
14.6396
12.4179
8.60624
4.50097
1.29811
-0.400492
-0.705319
-0.187717
0.224896
0.570216
0.806477
0.927319
1.00855
1.06933
1.11702
1.15749
1.19473
1.23052
1.26516
1.29819
1.32891
1.35682
1.38192
1.40487
1.42696
1.44989
1.47559
1.50593
1.54255
1.58683
1.63957
1.70107
1.77107
1.8488
1.9331
2.02261
2.116
2.21224
2.31084
2.41178
2.51528
2.6214
2.72981
2.8391
2.94663
3.04892
3.14177
3.22083
3.2826
3.32448
3.34479
3.34268
3.31775
3.26976
3.19824
3.10232
2.98103
2.83502
2.66552
2.47332
2.25975
2.02735
1.77987
1.52193
1.25853
0.994601
0.73462
0.482333
0.240663
0.0117073
-0.203212
-0.403488
-0.589156
-0.76078
-0.91926
-1.06557
-1.20043
-1.32363
-1.43408
-1.53017
-1.61
-1.67166
-1.7137
-1.73551
-1.73751
-1.72121
-1.68904
-1.64415
-1.59018
-1.53096
-1.47029
-1.41157
-1.35766
-1.31045
-1.2708
-1.23847
-1.21242
-1.19119
-1.17337
-1.158
-1.14469
-1.13353
-1.12473
-1.11809
-1.11268
-1.10662
-1.09726
-1.08155
-1.05669
-1.02099
-0.974039
-0.91631
-0.849377
-0.775635
-0.697878
-0.61886
-0.540846
-0.465426
-0.393442
-0.325072
-0.260032
-0.197842
-0.138108
-0.0807426
-0.0260696
0.025264
0.0725166
0.115134
0.153052
0.186906
0.218045
0.248363
0.279954
0.314701
0.353888
0.397968
0.446666
0.499216
0.554582
0.611845
0.670474
0.730454
0.792249
0.856658
0.924662
0.997307
1.07564
1.16078
1.25384
1.35575
1.46723
1.59046
1.72544
1.8634
1.99
2.09019
2.15248
2.17194
2.15078
2.09668
2.01981
1.93005
1.83576
1.7417
1.65012
1.56229
1.47899
1.4006
1.327
1.25735
1.18991
1.122
1.05014
0.970582
0.878593
0.762354
0.620945
0.462491
0.0558601
0
0.840672
3.00336
6.47743
10.6165
14.253
16.154
15.6025
12.7698
8.64593
4.56159
1.59107
0.168994
0.0859917
0.777742
1.20289
1.59168
1.91571
2.15963
2.34796
2.48628
2.58414
2.65283
2.70322
2.74467
2.78362
2.82357
2.86628
2.91229
2.96137
3.01293
3.06635
3.12122
3.1775
3.23558
3.29628
3.36074
3.43029
3.50621
3.58956
3.68095
3.78032
3.88683
3.99889
4.11425
4.2304
4.34488
4.45587
4.5625
4.66513
4.76538
4.86594
4.9701
5.08193
5.20915
5.36707
5.56327
5.76743
5.93723
6.0332
6.03345
5.94135
5.78124
5.58353
5.36708
5.13085
4.87235
4.59475
4.30019
3.98972
3.66542
3.33138
2.99366
2.65979
2.33796
2.03606
1.76085
1.51714
1.30754
1.13196
0.987887
0.871096
0.776483
0.698867
0.633661
0.577271
0.527206
0.481938
0.440578
0.402577
0.367487
0.33479
0.303915
0.274352
0.24584
0.218533
0.193063
0.170478
0.152063
0.139074
0.132468
0.132697
0.139628
0.152579
0.170468
0.192017
0.215955
0.241277
0.267347
0.293896
0.320948
0.348685
0.377245
0.406537
0.436129
0.465211
0.492735
0.517677
0.539349
0.557663
0.573279
0.587581
0.602484
0.6201
0.642352
0.670543
0.705152
0.745773
0.791215
0.839634
0.888519
0.935332
0.978158
1.01612
1.04951
1.07964
1.10838
1.13755
1.16842
1.20131
1.2357
1.27077
1.30567
1.33999
1.37397
1.40855
1.44523
1.4857
1.53155
1.58385
1.64314
1.70943
1.7824
1.86169
1.94721
2.0393
2.13885
2.24777
2.37101
2.5181
2.69666
2.89218
3.07136
3.1996
3.25105
3.21407
3.0919
2.90007
2.66287
2.41066
2.17517
1.97129
1.79822
1.65181
1.53093
1.43734
1.36967
1.32003
1.27564
1.22274
1.14907
1.04606
0.910284
0.743803
0.553258
0.193437
0
0.513547
2.18142
5.13845
8.93886
12.5525
14.7307
14.5924
12.0916
8.06987
3.846
0.596711
-1.10746
-1.38755
-0.801302
-0.0310394
0.558461
0.83779
0.83123
0.819797
0.814502
0.820945
0.842418
0.878992
0.927267
0.983922
1.04548
1.10843
1.16974
1.22719
1.27957
1.32669
1.36925
1.40855
1.44631
1.48439
1.52469
1.56911
1.61954
1.67807
1.74702
1.82881
1.92568
2.03931
2.17033
2.318
2.48002
2.65289
2.83228
3.01362
3.19265
3.36597
3.53119
3.6867
3.83112
3.96233
4.077
4.17128
4.24108
4.28122
4.28692
4.25526
4.18606
4.08176
3.94629
3.78355
3.59774
3.39331
3.17309
2.93848
2.69038
2.43062
2.1626
1.89134
1.62309
1.36465
1.12244
0.901617
0.705357
0.534522
0.387727
0.26181
0.152558
0.0555038
-0.0333214
-0.116845
-0.196651
-0.272936
-0.344684
-0.409879
-0.46609
-0.51114
-0.543546
-0.562939
-0.569971
-0.566714
-0.556732
-0.544188
-0.533224
-0.527391
-0.529228
-0.540044
-0.559862
-0.587512
-0.620753
-0.656519
-0.691427
-0.722032
-0.74531
-0.759141
-0.762187
-0.75402
-0.736874
-0.713768
-0.6875
-0.659795
-0.630905
-0.599825
-0.564997
-0.525233
-0.480619
-0.432813
-0.383953
-0.336989
-0.295301
-0.261567
-0.237286
-0.222424
-0.215365
-0.213194
-0.212284
-0.209074
-0.200827
-0.186206
-0.165731
-0.140526
-0.111814
-0.0805649
-0.047049
-0.0106758
0.0298485
0.0761025
0.129464
0.19069
0.259739
0.336118
0.419423
0.509628
0.607381
0.71401
0.834333
0.981073
1.16564
1.36399
1.537
1.64545
1.66633
1.60213
1.47875
1.33349
1.19976
1.09596
1.0131
0.941602
0.877162
0.817543
0.760807
0.704932
0.647713
0.586706
0.519258
0.442679
0.354528
0.252856
0.134562
0
-0.264975
-0.541622
-0.143813
1.42356
4.31123
8.06891
11.6713
13.8923
13.8743
11.5731
7.79885
3.81789
0.755904
-0.846922
-1.11134
-0.563235
0.00602036
0.507715
0.8904
1.1302
1.3189
1.47843
1.61338
1.72869
1.82924
1.91945
2.00323
2.08398
2.16451
2.24719
2.33387
2.42575
2.5233
2.62608
2.73282
2.8416
2.95027
3.05692
3.16038
3.26058
3.35871
3.45704
3.55854
3.66637
3.78333
3.91137
4.05136
4.203
4.36508
4.53566
4.7123
4.89225
5.07254
5.25014
5.42185
5.58437
5.73446
5.86912
5.98547
6.08053
6.15135
6.19553
6.21082
6.19501
6.14628
6.06352
5.94671
5.79716
5.61756
5.4118
5.18568
4.94556
4.69686
4.44472
4.19434
3.95081
3.71885
3.50254
3.305
3.12812
2.97245
2.83735
2.7212
2.62188
2.53715
2.46498
2.40371
2.35202
2.30876
2.27277
2.24269
2.21705
2.19436
2.17335
2.15317
2.13352
2.11466
2.09734
2.08261
2.07161
2.06536
2.06457
2.0695
2.07989
2.09491
2.11321
2.133
2.1523
2.16928
2.18254
2.19136
2.19577
2.19652
2.1948
2.1919
2.18882
2.18599
2.18313
2.17929
2.17321
2.16368
2.14995
2.13195
2.11037
2.08641
2.06163
2.0376
2.01573
1.99742
1.98398
1.97647
1.97579
1.98251
1.99682
2.01842
2.04651
2.07983
2.11671
2.15516
2.19292
2.22743
2.2559
2.27578
2.28503
2.28267
2.26913
2.24656
2.21863
2.19059
2.16856
2.15855
2.16564
2.19339
2.24354
2.32153
2.44787
2.66018
2.96434
3.29222
3.57013
3.73094
3.7331
3.57172
3.27571
2.89863
2.51505
2.22069
2.02349
1.8735
1.74481
1.62871
1.52049
1.41505
1.30747
1.19358
1.07031
0.93591
0.790049
0.63197
0.464513
0.290309
-0.0660393
0
1.01662
3.36524
6.92848
10.9426
14.187
15.492
14.3118
11.0243
6.76295
2.8734
0.313181
-0.675582
-0.486203
0.211644
0.514146
0.777581
0.974514
1.11622
1.22224
1.29588
1.34291
1.37068
1.38732
1.40069
1.41751
1.44267
1.47832
1.52401
1.57829
1.63939
1.70547
1.77497
1.84701
1.92151
1.99914
2.08116
2.16909
2.26445
2.36847
2.48189
2.6049
2.73709
2.87759
3.02514
3.17831
3.33553
3.49522
3.65575
3.81538
3.97226
4.12443
4.26984
4.40646
4.53242
4.64605
4.74562
4.82881
4.89254
4.93369
4.94956
4.93698
4.8927
4.81414
4.69994
4.55056
4.36849
4.15821
3.92676
3.6826
3.43313
3.18462
2.94276
2.71241
2.49722
2.29945
2.12001
1.95859
1.81398
1.68451
1.56855
1.46507
1.37383
1.29517
1.22973
1.17832
1.14149
1.11906
1.10977
1.11126
1.12026
1.13313
1.1464
1.15751
1.16519
1.16939
1.17122
1.17256
1.17558
1.18214
1.19333
1.20932
1.22945
1.25247
1.27672
1.30049
1.32232
1.34123
1.35683
1.36937
1.37952
1.38822
1.39642
1.4048
1.41361
1.42261
1.43105
1.43781
1.4416
1.44119
1.43564
1.42443
1.40754
1.38548
1.35924
1.33012
1.29961
1.26913
1.23987
1.21265
1.18789
1.16556
1.14537
1.12693
1.10992
1.09427
1.08018
1.06811
1.05875
1.05293
1.05157
1.05568
1.06624
1.08404
1.10959
1.14293
1.18353
1.23041
1.2823
1.33794
1.39637
1.45724
1.521
1.58903
1.66461
1.75698
1.89176
2.10975
2.39043
2.66185
2.85411
2.91105
2.80244
2.53733
2.17178
1.80204
1.53584
1.39122
1.29526
1.21511
1.14185
1.07261
1.00503
0.937016
0.866254
0.789622
0.703475
0.603873
0.48746
0.348351
0.188293
-0.0108009
-0.314677
0
1.39006
4.07832
7.80582
11.7462
14.7202
15.6735
14.19
10.7339
6.45266
2.64234
0.186954
-0.72112
-0.479205
0.260607
0.525448
0.756762
0.933214
1.06815
1.17634
1.26148
1.32836
1.38191
1.42675
1.46645
1.50358
1.53999
1.57699
1.6155
1.65612
1.69922
1.74505
1.79378
1.84563
1.90096
1.96034
2.02459
2.09472
2.17191
2.25731
2.35191
2.45641
2.57099
2.69528
2.82822
2.96806
3.11254
3.259
3.40481
3.54768
3.68603
3.81928
3.94781
4.07286
4.196
4.31874
4.44202
4.56404
4.6775
4.77101
4.83162
4.84779
4.81163
4.71974
4.5729
4.37522
4.13326
3.85874
3.56524
3.26291
2.95861
2.65746
2.36404
2.08232
1.81554
1.56622
1.33622
1.12684
0.938909
0.772815
0.628411
0.50495
0.401258
0.315331
0.243596
0.181734
0.125537
0.0716377
0.0181198
-0.0351974
-0.0869408
-0.13478
-0.176324
-0.209233
-0.232598
-0.248753
-0.261636
-0.275459
-0.293273
-0.315949
-0.341956
-0.367931
-0.389813
-0.404227
-0.410199
-0.408207
-0.399029
-0.384164
-0.365607
-0.345551
-0.326116
-0.309238
-0.296511
-0.289055
-0.287387
-0.291314
-0.29986
-0.311424
-0.323685
-0.334042
-0.340128
-0.340222
-0.333537
-0.320272
-0.301453
-0.278638
-0.253574
-0.227952
-0.203152
-0.180318
-0.160341
-0.143886
-0.131384
-0.122997
-0.118568
-0.117606
-0.119268
-0.122384
-0.125488
-0.12691
-0.124837
-0.117496
-0.103355
-0.0813599
-0.0511459
-0.013166
0.0313271
0.0804619
0.132069
0.184113
0.235128
0.284537
0.332841
0.381631
0.433434
0.491379
0.558801
0.638783
0.735548
0.859339
1.02949
1.25466
1.49764
1.70788
1.84044
1.8683
1.7891
1.62419
1.41079
1.19122
1.00352
0.85713
0.74046
0.6436
0.561536
0.491972
0.432262
0.379264
0.329704
0.280507
0.229031
0.173184
0.111417
0.0422256
-0.0360039
-0.123373
-0.296953
-0.455202
0
1.57842
4.48584
8.31135
12.0382
14.4105
14.5115
12.2323
8.3428
4.11467
0.725654
-1.20494
-1.72269
-1.31144
-0.629859
-0.0420364
0.361797
0.531381
0.633786
0.719006
0.793427
0.861584
0.927061
0.992168
1.05787
1.124
1.18971
1.25391
1.3158
1.37519
1.43258
1.48905
1.546
1.60483
1.6667
1.73237
1.80236
1.87707
1.95708
2.04334
2.13722
2.24039
2.35461
2.48123
2.62086
2.77302
2.936
3.10698
3.28238
3.45831
3.63108
3.79768
3.95591
4.10443
4.24219
4.36762
4.47799
4.5695
4.63875
4.6818
4.69464
4.67393
4.61739
4.52395
4.39345
4.22645
4.02432
3.79276
3.53898
3.26958
2.99076
2.70906
2.4313
2.16406
1.91301
1.68233
1.47437
1.28957
1.12672
0.983334
0.856155
0.741847
0.637598
0.541742
0.453992
0.374865
0.305585
0.247483
0.201321
0.16681
0.142466
0.125823
0.113937
0.104005
0.0939262
0.0826691
0.070166
0.0571732
0.0449821
0.0350822
0.0287994
0.0270668
0.03032
0.0384354
0.0507317
0.0660507
0.0829163
0.099688
0.114822
0.127178
0.136243
0.142268
0.146246
0.149731
0.154541
0.162389
0.174555
0.19159
0.213324
0.238998
0.26743
0.297248
0.32716
0.356174
0.383743
0.409795
0.434645
0.45881
0.482775
0.506802
0.530828
0.554497
0.577396
0.599382
0.620848
0.642801
0.666676
0.693893
0.725319
0.760851
0.799326
0.837978
0.873289
0.902321
0.923907
0.939446
0.953072
0.971062
1.00065
1.04857
1.11936
1.21721
1.35284
1.53476
1.75308
1.97075
2.15115
2.2657
2.29136
2.21428
2.03806
1.7903
1.52106
1.28947
1.13074
1.02394
0.942189
0.872683
0.809686
0.748308
0.683757
0.61171
0.528636
0.432055
0.320825
0.193442
0.0504261
-0.104896
-0.306368
-0.415707
0
1.37432
3.9458
7.44093
10.9825
13.3679
13.6275
11.5468
7.81441
3.68918
0.392562
-1.40726
-1.74791
-1.15274
-0.367317
0.29516
0.734984
0.906118
1.02385
1.1228
1.20612
1.27676
1.33735
1.3899
1.43602
1.47709
1.51447
1.54974
1.58486
1.62219
1.6643
1.71362
1.77208
1.84078
1.91974
2.00814
2.10447
2.20681
2.31318
2.42198
2.5322
2.64367
2.75694
2.87311
2.99347
3.11917
3.25081
3.38828
3.53072
3.67653
3.82366
3.96978
4.11247
4.24939
4.37815
4.49581
4.59882
4.68376
4.7477
4.78755
4.8002
4.78254
4.73163
4.6449
4.52046
4.3577
4.15895
3.92958
3.67586
3.40452
3.12275
2.83769
2.55571
2.28205
2.02062
1.77404
1.54389
1.33116
1.13651
0.960569
0.804079
0.667697
0.551575
0.45542
0.378444
0.319414
0.276786
0.249017
0.234386
0.231212
0.23782
0.252455
0.273195
0.297917
0.324345
0.350157
0.373141
0.391388
0.403211
0.407189
0.402243
0.387711
0.363423
0.329838
0.288099
0.239925
0.188305
0.137197
0.0908287
0.0531071
0.0270969
0.0146305
0.0161343
0.030674
0.0561897
0.0898453
0.128375
0.168552
0.207508
0.242987
0.27319
0.296901
0.313614
0.323524
0.327498
0.326955
0.323654
0.319408
0.315797
0.313997
0.314747
0.318513
0.325783
0.337344
0.35441
0.378521
0.411226
0.453655
0.50615
0.567695
0.63663
0.711069
0.789024
0.868828
0.949487
1.03089
1.11389
1.20072
1.29883
1.43847
1.68388
1.99813
2.29399
2.47196
2.46722
2.27786
1.9611
1.60592
1.3038
1.12999
1.03812
0.981208
0.94277
0.917938
0.9033
0.894486
0.886082
0.87168
0.845143
0.801509
0.737912
0.654353
0.554047
0.431277
0.00240784
0
0.955786
3.24401
6.7272
10.6134
13.6627
14.7225
13.3125
9.90186
5.68376
1.98213
-0.346926
-1.17957
-0.966608
-0.361277
-0.0116852
0.303559
0.565301
0.785799
0.983352
1.15891
1.31361
1.44909
1.56727
1.6701
1.75946
1.83695
1.90399
1.96179
2.01146
2.05411
2.09095
2.12335
2.15286
2.18125
2.21049
2.24271
2.28017
2.32514
2.3798
2.4461
2.52562
2.61942
2.728
2.85121
2.9882
3.13734
3.29625
3.46185
3.63044
3.79795
3.96017
4.11309
4.25317
4.37752
4.48411
4.57169
4.6396
4.68742
4.71442
4.71906
4.69911
4.65211
4.57526
4.46606
4.32309
4.14661
3.93906
3.70504
3.45091
3.1844
2.91325
2.64429
2.38334
2.13487
1.90195
1.68635
1.48883
1.30935
1.14746
1.00247
0.873715
0.760604
0.662685
0.579558
0.51073
0.455482
0.412807
0.381273
0.358776
0.342563
0.329806
0.318196
0.306381
0.294226
0.282792
0.274009
0.270085
0.272818
0.282863
0.299412
0.320618
0.343666
0.365311
0.382482
0.392812
0.39495
0.388619
0.374461
0.353745
0.328103
0.299305
0.269037
0.238951
0.210788
0.186438
0.167981
0.15762
0.157331
0.168574
0.191913
0.226685
0.271482
0.323508
0.377473
0.427943
0.470502
0.502627
0.52396
0.535922
0.540832
0.540941
0.537812
0.532285
0.524367
0.513953
0.501196
0.486702
0.471514
0.456938
0.444266
0.434511
0.428495
0.426894
0.430253
0.439085
0.453955
0.475545
0.504655
0.542171
0.588946
0.645674
0.712757
0.790238
0.877804
0.974857
1.08077
1.19548
1.32011
1.45669
1.60364
1.7475
1.8658
1.93358
1.93162
1.85399
1.7114
1.52912
1.33977
1.17368
1.0418
0.93634
0.849094
0.776068
0.71511
0.663487
0.617869
0.574316
0.528317
0.475346
0.411431
0.333131
0.235662
0.121494
-0.013999
-0.271797
0
1.27638
3.83183
7.42434
11.2178
14.03
14.8453
13.3181
9.96247
5.90433
2.34643
0.0636095
-0.808259
-0.64065
-0.00776777
0.26464
0.505951
0.697311
0.846438
0.969099
1.06906
1.15117
1.2202
1.28009
1.33368
1.38247
1.42728
1.46881
1.50809
1.54687
1.58753
1.6329
1.68571
1.74813
1.82137
1.90542
1.9992
2.10103
2.20897
2.32122
2.43645
2.55387
2.67329
2.79489
2.91903
3.04601
3.17597
3.3087
3.44373
3.58041
3.71799
3.85584
3.99355
4.13103
4.26847
4.40631
4.54514
4.68558
4.82797
4.97088
5.10749
5.224
5.30176
5.3198
5.25985
5.11218
4.87981
4.57888
4.235
3.87744
3.53051
3.2013
2.89078
2.60294
2.34179
2.10995
1.90859
1.73744
1.59487
1.47822
1.38415
1.30905
1.24934
1.20179
1.1636
1.13248
1.10663
1.08464
1.06546
1.04824
1.03233
1.01722
1.00256
0.988209
0.974289
0.961237
0.94979
0.940891
0.93549
0.934292
0.937647
0.945252
0.955691
0.966414
0.974533
0.977625
0.974472
0.965523
0.952907
0.939948
0.930303
0.92698
0.931233
0.942413
0.958882
0.978377
0.99845
1.01707
1.03303
1.04605
1.05663
1.06573
1.07439
1.08341
1.0932
1.10377
1.11471
1.1252
1.13404
1.13984
1.14137
1.13788
1.12941
1.11703
1.1028
1.08947
1.08004
1.07721
1.08264
1.09678
1.11939
1.14969
1.18628
1.22742
1.27123
1.31593
1.3601
1.40285
1.44401
1.48419
1.52469
1.56732
1.61404
1.6666
1.72612
1.79281
1.86598
1.94391
2.02388
2.10219
2.17372
2.23169
2.26969
2.28231
2.26563
2.21811
2.14143
2.04069
1.92384
1.80028
1.67921
1.56671
1.46456
1.37312
1.29192
1.21893
1.15066
1.08219
1.00805
0.923053
0.823156
0.698738
0.548955
0.381132
0
-0.0902454
0.624288
2.57937
5.84495
9.87456
13.5565
15.6338
15.3055
12.6531
8.6121
4.50219
1.41216
-0.199427
-0.511905
276
460
645
823
1003
1190
1380
1559
1735
1916
2101
2287
2464
2645
2828
3016
3196
3371
3557
3742
3570
3738
3216
3353
3489
3623
3533
3665
0
0
0
0
0
0
0
0
0
0
0
0
0
0
0
0
0
0
0
0
0
0
0
0
0
0
0
0
0
0
0
0
0
0
0
0
0
0
0
0
0
0
0
0
0
0
0
0
0
0
0
0
0
0
0
0
0
0
0
0
0
0
0
0
0
0
0
0
0
0
0
0
0
0
0
0
0
0
0
0
0
0
0
0
0
0
0
0
0
0
0
0
0
0
0
0
0
0
0
0
0
0
0
0
0
0
0
0
0
0
0
0
0
0
0
0
0
0
0
0
0
0
0
0
0
0
0
0
0
0
0
0
0
0
0
0
0
0
0
0
0
0
0
0
0
0
0
0
0
0
0
0
0
0
0
0
0
0
0
0
0
0
0
0
0
0
0
0
0
0
0
0
0
0
0
0
0
0
0
0
0
0
0
0
0
0
0
0
0
0
0
0
0
0
0
0
0
0
0
0
0
0
0
0
0
0
0
0
0
0
0
0
0
0
0
0
0
0
0
0
0
0
0
0
0
0
0
0
0
0
0
0
0
0
0
0
0
0
0
0
0
0
0
0
0
0
0
0
0
0
0
0
0
0
0
0
0
0
0
0
0
0
0
0
0
0
0
0
0
0
0
0
0
0
0
0
0
0
0
0
0
0
0
0
0
0
0
0
0
0
0
0
0
0
0
0
0
0
0
0
0
0
0
0
0
0
0
0
0
0
0
0
0
0
0
0
0
0
0
0
0
0
0
0
0
0
0
0
0
0
0
0
0
0
0
0
0
0
0
0
0
0
0
0
0
0
0
0
0
0
0
0
0
0
0
0
0
0
0
0
0
0
0
0
0
0
0
0
0
0
0
0
0
0
0
0
0
0
0
0
0
0
0
0
0
0
0
0
0
0
0
0
0
0
0
0
0
0
0
0
0
0
0
0
0
0
0
0
0
0
0
0
0
0
0
0
0
0
0
0
0
0
0
0
0
0
0
0
0
0
0
0
0
0
0
0
0
0
0
0
0
0
0
0
0
0
0
0
0
0
0
0
0
0
0
0
0
0
0
0
0
0
0
0
0
0
0
0
0
0
0
0
0
0
0
0
0
0
0
0
0
0
0
0
0
0
0
0
0
0
0
0
0
0
0
0
0
0
0
0
0
0
0
0
0
0
0
0
0
0
0
0
0
0
0
0
0
0
0
0
0
0
0
0
0
0
0
0
0
0
0
0
0
0
0
0
0
0
0
0
0
0
0
0
0
0
0
0
0
0
0
0
0
0
0
0
0
0
0
0
0
0
0
0
0
0
0
0
0
0
0
0
0
0
0
0
0
0
0
0
0
0
0
0
0
0
0
0
0
0
0
0
0
0
0
0
0
0
0
0
0
0
0
0
0
0
0
0
0
0
0
0
0
0
0
0
0
0
0
0
0
0
0
0
0
0
0
0
0
0
0
0
0
0
0
0
0
0
0
0
0
0
0
0
0
0
0
0
0
0
0
0
0
0
0
0
0
0
0
0
0
0
0
0
0
0
0
0
0
0
0
0
0
0
0
0
0
0
0
0
0
0
0
0
0
0
0
0
0
0
0
0
0
0
0
0
0
0
0
0
0
0
0
0
0
0
0
0
0
0
0
0
0
0
0
0
0
0
0
0
0
0
0
0
0
0
0
0
0
0
0
0
0
0
0
0
0
0
0
0
0
0
0
0
0
0
0
0
0
0
0
0
0
0
0
0
0
0
0
0
0
0
0
0
0
0
0
0
0
0
0
0
0
0
0
0
0
0
0
0
0
0
0
0
0
0
0
0
0
0
0
0
0
0
0
0
0
0
0
0
0
0
0
0
0
0
0
0
0
0
0
0
0
0
0
0
0
0
0
0
0
0
0
0
0
0
0
0
0
0
0
0
0
0
0
0
0
0
0
0
0
0
0
0
0
0
0
0
0
0
0
0
0
0
0
0
0
0
0
0
0
0
0
0
0
0
0
0
0
0
0
0
0
0
0
0
0
0
0
0
0
0
0
0
0
0
0
0
0
0
0
0
0
0
0
0
0
0
0
0
0
0
0
0
0
0
0
0
0
0
0
0
0
0
0
0
0
0
0
0
0
0
0
0
0
0
0
0
0
0
0
0
0
0
0
0
0
0
0
0
0
0
0
0
0
0
0
0
0
0
0
0
0
0
0
0
0
0
0
0
0
0
0
0
0
0
0
0
0
0
0
0
0
0
0
0
0
0
0
0
0
0
0
0
0
0
0
0
0
0
0
0
0
0
0
0
0
0
0
0
0
0
0
0
0
0
0
0
0
0
0
0
0
0
0
0
0
0
0
0
0
0
0
0
0
0
0
0
0
0
0
0
0
0
0
0
0
0
0
0
0
0
0
0
0
0
0
0
0
0
0
0
0
0
0
0
0
0
0
0
0
0
0
0
0
0
0
0
0
0
0
0
0
0
0
0
0
0
0
0
0
0
0
0
0
0
0
0
0
0
0
0
0
0
0
0
0
0
0
0
0
0
0
0
0
0
0
0
0
0
0
0
0
0
0
0
0
0
0
0
0
0
0
0
0
0
0
0
0
0
0
0
0
0
0
0
0
0
0
0
0
0
0
0
0
0
0
0
0
0
0
0
0
0
0
0
0
0
0
0
0
0
0
0
0
0
0
0
0
0
0
0
0
0
0
0
0
0
0
0
0
0
0
0
0
0
0
0
0
0
0
0
0
0
0
0
0
0
0
0
0
0
0
0
0
0
0
0
0
0
0
0
0
0
0
0
0
0
0
0
0
0
0
0
0
0
0
0
0
0
0
0
0
0
0
0
0
0
0
0
0
0
0
0
0
0
0
0
0
0
0
0
0
0
0
0
0
0
0
0
0
0
0
0
0
0
0
0
0
0
0
0
0
0
0
0
0
0
0
0
0
0
0
0
0
0
0
0
0
0
0
0
0
0
0
0
0
0
0
0
0
0
0
0
0
0
0
0
0
0
0
0
0
0
0
0
0
0
0
0
0
0
0
0
0
0
0
0
0
0
0
0
0
0
0
0
0
0
0
0
0
0
0
0
0
0
0
0
0
0
0
0
0
0
0
0
0
0
0
0
0
0
0
0
0
0
0
0
0
0
0
0
0
0
0
0
0
0
0
0
0
0
0
0
0
0
0
0
0
0
0
0
0
0
0
0
0
0
0
0
0
0
0
0
0
0
0
0
0
0
0
0
0
0
0
0
0
0
0
0
0
0
0
0
0
0
0
0
0
0
0
0
0
0
0
0
0
0
0
0
0
0
0
0
0
0
0
0
0
0
0
0
0
0
0
0
0
0
0
0
0
0
0
0
0
0
0
0
0
0
0
0
0
0
0
0
0
0
0
0
0
0
0
0
0
0
0
0
0
0
0
0
0
0
0
0
0
0
0
0
0
0
0
0
0
0
0
0
0
0
0
0
0
0
0
0
0
0
0
0
0
0
0
0
0
0
0
0
0
0
0
0
0
0
0
0
0
0
0
0
0
0
0
0
0
0
0
0
0
0
0
0
0
0
0
0
0
0
0
0
0
0
0
0
0
0
0
0
0
0
0
0
0
0
0
0
0
0
0
0
0
0
0
0
0
0
0
0
0
0
0
0
0
0
0
0
0
0
0
0
0
0
0
0
0
0
0
0
0
0
0
0
0
0
0
0
0
0
0
0
0
0
0
0
0
0
0
0
0
0
0
0
0
0
0
0
0
0
0
0
0
0
0
0
0
0
0
0
0
0
0
0
0
0
0
0
0
0
0
0
0
0
0
0
0
0
0
0
0
0
0
0
0
0
0
0
0
0
0
0
0
0
0
0
0
0
0
0
0
0
0
0
0
0
0
0
0
0
0
0
0
0
0
0
0
0
0
0
0
0
0
0
0
0
0
0
0
0
0
0
0
0
0
0
0
0
0
0
0
0
0
0
0
0
0
0
0
0
0
0
0
0
0
0
0
0
0
0
0
0
0
0
0
0
0
0
0
0
0
0
0
0
0
0
0
0
0
0
0
0
0
0
0
0
0
0
0
0
0
0
0
0
0
0
0
0
0
0
0
0
0
0
0
0
0
0
0
0
0
0
0
0
0
0
0
0
0
0
0
0
0
0
0
0
0
0
0
0
0
0
0
0
0
0
0
0
0
0
0
0
0
0
0
0
0
0
0
0
0
0
0
0
0
0
0
0
0
0
0
0
0
0
0
0
0
0
0
0
0
0
0
0
0
0
0
0
0
0
0
0
0
0
0
0
0
0
0
0
0
0
0
0
0
0
0
0
0
0
0
0
0
0
0
0
0
0
0
0
0
0
0
0
0
0
0
0
0
0
0
0
0
0
0
0
0
0
0
0
0
0
0
0
0
0
0
0
0
0
0
0
0
0
0
0
0
0
0
0
0
0
0
0
0
0
0
0
0
0
0
0
0
0
0
0
0
0
0
0
0
0
0
0
0
0
0
0
0
0
0
0
0
0
0
0
0
0
0
0
0
0
0
0
0
0
0
0
0
0
0
0
0
0
0
0
0
0
0
0
0
0
0
0
0
0
0
0
0
0
0
0
0
0
0
0
0
0
0
0
0
0
0
0
0
0
0
0
0
0
0
0
0
0
0
0
0
0
0
0
0
0
0
0
0
0
0
0
0
0
0
0
0
0
0
0
0
0
0
0
0
0
0
0
0
0
0
0
0
0
0
0
0
0
0
0
0
0
0
0
0
0
0
0
0
0
0
0
0
0
0
0
0
0
0
0
0
0
0
0
0
0
0
0
0
0
0
0
0
0
0
0
0
0
0
0
0
0
0
0
0
0
0
0
0
0
0
0
0
0
0
0
0
0
0
0
0
0
0
0
0
0
0
0
0
0
0
0
0
0
0
0
0
0
0
0
0
0
0
0
0
0
0
0
0
0
0
0
0
0
0
0
0
0
0
0
0
0
0
0
0
0
0
0
0
0
0
0
0
0
0
0
0
0
0
0
0
0
0
0
0
0
0
0
0
0
0
0
0
0
0
0
0
0
0
0
0
0
0
0
0
0
0
0
0
0
0
0
0
0
0
0
0
0
0
0
0
0
0
0
0
0
0
0
0
0
0
0
0
0
0
0
0
0
0
0
0
0
0
0
0
0
0
0
0
0
0
0
0
0
0
0
0
0
0
0
0
0
0
0
0
0
0
0
0
0
0
0
0
0
0
0
0
0
0
0
0
0
0
0
0
0
0
0
0
0
0
0
0
0
0
0
0
0
0
0
0
0
0
0
0
0
0
0
0
0
0
0
0
0
0
0
0
0
0
0
0
0
0
0
0
0
0
0
0
0
0
0
0
0
0
0
0
0
0
0
0
0
0
0
0
0
0
0
0
0
0
0
0
0
0
0
0
0
0
0
0
0
0
0
0
0
0
0
0
0
0
0
0
0
0
0
0
0
0
0
0
0
0
0
0
0
0
0
0
0
0
0
0
0
0
0
0
0
0
0
0
0
0
0
0
0
0
0
0
0
0
0
0
0
0
0
0
0
0
0
0
0
0
0
0
0
0
0
0
0
0
0
0
0
0
0
0
0
0
0
0
0
0
0
0
0
0
0
0
0
0
0
0
0
0
0
0
0
0
0
0
0
0
0
0
0
0
0
0
0
0
0
0
0
0
0
0
0
0
0
0
0
0
0
0
0
0
0
0
0
0
0
0
0
0
0
0
0
0
0
0
0
0
0
0
0
0
0
0
0
0
0
0
0
0
0
0
0
0
0
0
0
0
0
0
0
0
0
0
0
0
0
0
0
0
0
0
0
0
0
0
0
0
0
0
0
0
0
0
0
0
0
0
0
0
0
0
0
0
0
0
0
0
0
0
0
0
0
0
0
0
0
0
0
0
0
0
0
0
0
0
0
0
0
0
0
0
0
0
0
0
0
0
0
0
0
0
0
0
0
0
0
0
0
0
0
0
0
0
0
0
0
0
0
0
0
0
0
0
0
0
0
0
0
0
0
0
0
0
0
0
0
0
0
0
0
0
0
0
0
0
0
0
0
0
0
0
0
0
0
0
0
0
0
0
0
0
0
0
0
0
0
0
0
0
0
0
0
0
0
0
0
0
0
0
0
0
0
0
0
0
0
0
0
0
0
0
0
0
0
0
0
0
0
0
0
0
0
0
0
0
0
0
0
0
0
0
0
0
0
0
0
0
0
0
0
0
0
0
0
0
0
0
0
0
0
0
0
0
0
0
0
0
0
0
0
0
0
0
0
0
0
0
0
0
0
0
0
0
0
0
0
0
0
0
0
0
0
0
0
0
0
0
0
0
0
0
0
0
0
0
0
0
0
0
0
0
0
0
0
0
0
0
0
0
0
0
0
0
0
0
0
0
0
0
0
0
0
0
0
0
0
0
0
0
0
0
0
0
0
0
0
0
0
0
0
0
0
0
0
0
0
0
0
0
0
0
0
0
0
0
0
0
0
0
0
0
0
0
0
0
0
0
0
0
0
0
0
0
0
0
0
0
0
0
0
0
0
0
0
0
0
0
0
0
0
0
0
0
0
0
0
0
0
0
0
0
0
0
0
0
0
0
0
0
0
0
0
0
0
0
0
0
0
0
0
0
0
0
0
0
0
0
0
0
0
0
0
0
0
0
0
0
0
0
0
0
0
0
0
0
0
0
0
0
0
0
0
0
0
0
0
0
0
0
0
0
0
0
0
0
0
0
0
0
0
0
0
0
0
0
0
0
0
0
0
0
0
0
0
0
0
0
0
0
0
0
0
0
0
0
0
0
0
0
0
0
0
0
0
0
0
0
0
0
0
0
0
0
0
0
0
0
0
0
0
0
0
0
0
0
0
0
0
0
0
0
0
0
0
0
0
0
0
0
0
0
0
0
0
0
0
0
0
0
0
0
0
0
0
0
0
0
0
0
0
0
0
0
0
0
0
0
0
0
0
0
0
0
0
0
0
0
0
0
0
0
0
0
0
0
0
0
0
0
0
0
0
0
0
0
0
0
0
0
0
0
0
0
0
0
0
0
0
0
0
0
0
0
0
0
0
0
0
0
0
0
0
0
0
0
0
0
0
0
0
0
0
0
0
0
0
0
0
0
0
0
0
0
0
0
0
0
0
0
0
0
0
0
0
0
0
0
0
0
0
0
0
0
0
0
0
0
0
0
0
0
0
0
0
0
0
0
0
0
0
0
0
0
0
0
0
0
0
0
0
0
0
0
0
0
0
0
0
0
0
0
0
0
0
0
0
0
0
0
0
0
0
0
0
0
0
0
0
0
0
0
0
0
0
0
0
0
0
0
0
0
0
0
0
0
0
0
0
0
0
0
0
0
0
0
0
0
0
0
0
0
0
0
0
0
0
0
0
0
0
0
0
0
0
0
0
0
0
0
0
0
0
0
0
0
0
0
0
0
0
0
0
0
0
0
0
0
0
0
0
0
0
0
0
0
0
0
0
0
0
0
0
0
0
0
0
0
0
0
0
0
0
0
0
0
0
0
0
0
0
0
0
0
0
0
0
0
0
0
0
0
0
0
0
0
0
0
0
0
0
0
0
0
0
0
0
0
0
0
0
0
0
0
0
0
0
0
0
0
0
0
0
0
0
0
0
0
0
0
0
0
0
0
0
0
0
0
0
0
0
0
0
0
0
0
0
0
0
0
0
0
0
0
0
0
0
0
0
0
0
0
0
0
0
0
0
0
0
0
0
0
0
0
0
0
0
0
0
0
0
0
0
0
0
0
0
0
0
0
0
0
0
0
0
0
0
0
0
0
0
0
0
0
0
0
0
0
0
0
0
0
0
0
0
0
0
0
0
0
0
0
0
0
0
0
0
0
0
0
0
0
0
0
0
0
0
0
0
0
0
0
0
0
0
0
0
0
0
0
0
0
0
0
0
0
0
0
0
0
0
0
0
0
0
0
0
0
0
0
0
0
0
0
0
0
0
0
0
0
0
0
0
0
0
0
0
0
0
0
0
0
0
0
0
0
0
0
0
0
0
0
0
0
0
0
0
0
0
0
0
0
0
0
0
0
0
0
0
0
0
0
0
0
0
0
0
0
0
0
0
0
0
0
0
0
0
0
0
0
0
0
0
0
0
0
0
0
0
0
0
0
0
0
0
0
0
0
0
0
0
0
0
0
0
0
0
0
0
0
0
0
0
0
0
0
0
0
0
0
0
0
0
0
0
0
0
0
0
0
0
0
0
0
0
0
0
0
0
0
0
0
0
0
0
0
0
0
0
0
0
0
0
0
0
0
0
0
0
0
0
0
0
0
0
0
0
0
0
0
0
0
0
0
0
0
0
0
0
0
0
0
0
0
0
0
0
0
0
0
0
0
0
0
0
0
0
0
0
0
0
0
0
0
0
0
0
0
0
0
0
0
0
0
0
0
0
0
0
0
0
0
0
0
0
0
0
0
0
0
0
0
0
0
0
0
