6.60241
6.76674
6.84909
6.83687
6.72825
6.53783
6.30133
6.07344
5.91343
5.83219
5.79872
5.7887
5.79394
5.80693
5.82045
5.82858
5.82716
5.81387
5.78796
5.74985
5.70122
5.64446
5.58148
5.46986
5.78753
6.81329
8.41764
10.1268
11.4463
12.1786
12.4277
12.3151
11.7552
10.5686
8.81569
6.96075
5.64059
5.23082
5.64788
6.2004
6.65036
6.91134
6.99505
7.03353
7.06147
7.08264
7.09902
7.11258
7.1256
7.14072
7.16097
7.18947
7.22909
7.28178
7.34808
7.42779
7.52005
7.62304
7.7342
7.85054
7.96905
8.08723
8.20354
8.31774
8.43089
8.54513
8.66316
8.78755
8.92015
9.0616
9.21124
9.36724
9.52698
9.68751
9.846
10.0001
10.148
10.2885
10.4205
10.5433
10.6557
10.7566
10.8444
10.9169
10.972
11.0073
11.0205
11.0091
10.9705
10.902
10.8011
10.666
10.4953
10.2892
10.0504
9.78367
9.49466
9.18969
8.87615
8.56212
8.25578
7.96481
7.69586
7.45406
7.24272
7.06339
6.91598
6.79819
6.706
6.6346
6.57918
6.53551
6.50047
6.47223
6.45021
6.43469
6.42632
6.42556
6.43272
6.44741
6.46789
6.49096
6.51261
6.52873
6.53575
6.53116
6.51395
6.48474
6.44567
6.40005
6.3519
6.30514
6.26292
6.22709
6.19809
6.17548
6.15786
6.14305
6.12854
6.11219
6.09262
6.06956
6.04383
6.01717
5.99176
5.96973
5.95258
5.941
5.93483
5.93319
5.93472
5.93789
5.94124
5.94355
5.94381
5.94121
5.93506
5.92478
5.90992
5.89026
5.86589
5.83728
5.80532
5.77132
5.73681
5.70343
5.67272
5.64591
5.62375
5.60649
5.5938
5.58493
5.57893
5.57489
5.57221
5.57067
5.57053
5.57242
5.57713
5.58548
5.59801
5.61496
5.63627
5.66165
5.69079
5.72355
5.76023
5.80171
5.84954
5.90579
5.97311
6.05777
6.1749
6.35362
6.61385
6.9103
7.17752
7.36491
7.43313
7.35765
7.14076
6.82202
6.47448
6.18105
5.9766
5.82324
5.69366
5.57851
5.47602
5.38583
5.30717
5.23793
5.17344
5.1073
5.03232
4.94165
4.81994
4.66097
4.46947
4.18615
4.11615
4.78867
6.36612
8.52291
10.5847
11.9703
12.5238
12.4203
11.8041
10.6169
8.81837
6.71092
4.92369
4.00334
4.01513
4.44883
4.61956
4.753
4.84386
4.89743
4.93795
4.97225
5.00623
5.0442
5.0888
5.14125
5.20161
5.26895
5.342
5.41942
5.49989
5.58216
5.66512
5.7478
5.82936
5.90918
5.98685
6.06232
6.13595
6.20858
6.28152
6.35646
6.43527
6.51978
6.61149
6.71144
6.82007
6.93732
7.06265
7.19528
7.33424
7.47851
7.62697
7.77845
7.93158
8.0848
8.23622
8.38333
8.52254
8.64889
8.75668
8.84099
8.89713
8.92103
8.90951
8.86041
8.77257
8.64564
8.48028
8.27895
8.04842
7.79686
7.53196
7.26078
6.99013
6.7264
6.47517
6.24057
6.02504
5.82941
5.65319
5.49517
5.35392
5.22845
5.11835
5.0235
4.94405
4.88012
4.83155
4.79777
4.77786
4.77068
4.77494
4.78921
4.81189
4.84151
4.87607
4.91239
4.94715
4.97752
5.00169
5.01925
5.03101
5.03849
5.04315
5.04587
5.04662
5.0448
5.03987
5.03216
5.02342
5.01698
5.01729
5.02908
5.0563
5.10005
5.15931
5.23248
5.31633
5.40654
5.49787
5.58393
5.6589
5.71835
5.75973
5.78261
5.78847
5.78007
5.76082
5.73413
5.70324
5.67077
5.63877
5.60937
5.58466
5.56661
5.55673
5.55581
5.56362
5.57894
5.59973
5.62347
5.64759
5.67004
5.68938
5.70476
5.71601
5.72349
5.72792
5.73026
5.73148
5.73248
5.73404
5.73683
5.74145
5.7485
5.75855
5.77217
5.78983
5.81189
5.83847
5.86957
5.90514
5.94515
5.98972
6.03926
6.0945
6.15656
6.22679
6.30696
6.40069
6.51382
6.6493
6.79627
6.93262
7.03485
7.08468
7.07353
7.00366
6.88632
6.73793
6.57588
6.41483
6.262
6.11873
5.98447
5.85861
5.74065
5.62962
5.5236
5.41981
5.31467
5.20422
5.08329
4.93952
4.77046
4.57888
4.2405
4.22396
5.0279
6.71458
8.85075
10.7763
12.0369
12.5527
12.3987
11.5372
9.87637
7.59635
5.30739
3.76062
3.34191
3.84156
4.58221
5.17911
5.52402
5.60138
5.62511
5.63831
5.64571
5.65177
5.6608
5.67648
5.70139
5.73692
5.78308
5.83842
5.90065
5.96663
6.03327
6.09835
6.1611
6.22243
6.28472
6.35124
6.42536
6.50975
6.60543
6.7119
6.8275
6.94966
7.07537
7.20168
7.32613
7.44706
7.5636
7.67569
7.78385
7.88906
7.99252
8.09558
8.19956
8.30563
8.41465
8.5271
8.64298
8.76103
8.87736
8.98498
9.07544
9.13992
9.17041
9.16063
9.1067
9.00749
8.86467
8.68255
8.46756
8.22887
7.97602
7.71693
7.45699
7.20015
6.95003
6.71005
6.48339
6.27298
6.0814
5.91059
5.76163
5.63465
5.52888
5.44211
5.37069
5.31047
5.25741
5.20813
5.16027
5.11258
5.06477
5.01712
4.9701
4.92402
4.879
4.83506
4.79233
4.75145
4.71395
4.68259
4.66056
4.65106
4.65631
4.67674
4.71053
4.7537
4.80081
4.8461
4.88468
4.9143
4.93446
4.94529
4.94799
4.94443
4.93675
4.92702
4.917
4.90808
4.90131
4.89739
4.89666
4.89918
4.90466
4.9124
4.92154
4.93126
4.94093
4.95017
4.95876
4.96651
4.97316
4.9785
4.98261
4.98615
4.9907
4.99863
5.01275
5.03558
5.06865
5.1114
5.16182
5.21779
5.27689
5.33678
5.39567
5.45252
5.50706
5.55972
5.61142
5.66337
5.71695
5.77348
5.83416
5.9
5.97181
6.05017
6.13475
6.22283
6.30723
6.37707
6.42009
6.42475
6.38268
6.29087
6.15296
5.97915
5.7846
5.58634
5.39785
5.22375
5.06403
4.9185
4.78561
4.66214
4.54373
4.42553
4.30283
4.17168
4.02939
3.87483
3.70802
3.53148
3.3464
2.92879
2.94245
3.82331
5.6508
8.0063
10.2066
11.7066
12.288
11.9267
10.6109
8.40508
5.68121
3.15499
1.5522
1.16641
1.72316
2.59396
3.32432
3.75035
3.82346
3.83859
3.84695
3.85247
3.85766
3.86483
3.8761
3.89352
3.9191
3.95475
4.00212
4.06231
4.1356
4.22102
4.31664
4.42018
4.52918
4.64125
4.75432
4.86693
4.97824
5.08803
5.19658
5.30452
5.41269
5.52205
5.63367
5.74869
5.86834
5.99388
6.12651
6.26712
6.41613
6.57327
6.73759
6.90755
7.08122
7.25658
7.43172
7.60472
7.7729
7.93164
8.07364
8.19061
8.27217
8.30817
8.29133
8.21901
8.09325
7.91937
7.70417
7.45576
7.18613
6.90458
6.61712
6.32814
6.04183
5.76249
5.49444
5.24177
5.0081
4.79643
4.60897
4.44696
4.31062
4.19902
4.11028
4.04216
3.99105
3.95041
3.91261
3.87036
3.81773
3.7509
3.6685
3.57146
3.46251
3.34548
3.22503
3.10516
2.98944
2.88112
2.78308
2.69746
2.62559
2.56775
2.5228
2.48763
2.45746
2.42706
2.3915
2.34691
2.29088
2.22257
2.14247
2.05197
1.95317
1.8485
1.74006
1.62967
1.51915
1.41036
1.30527
1.20589
1.11421
1.03202
0.960716
0.901105
0.853558
0.817629
0.791154
0.770857
0.753302
0.735568
0.715739
0.693078
0.667815
0.64067
0.612355
0.583282
0.553529
0.523084
0.492198
0.46165
0.432801
0.407403
0.387216
0.373531
0.366826
0.366901
0.372969
0.384047
0.399435
0.419125
0.444027
0.475921
0.517163
0.570206
0.637042
0.718673
0.816821
0.933006
1.06603
1.20749
1.34093
1.44852
1.51486
1.52945
1.48868
1.39664
1.26447
1.10833
0.946069
0.792432
0.652732
0.525914
0.409691
0.302011
0.200238
0.100874
0
-0.0932426
-0.195211
-0.308438
-0.434422
-0.575819
-0.734605
-0.907954
-1.23717
-1.41087
-0.810973
0.942817
3.74455
6.99952
9.91986
11.8262
12.2613
11.0242
8.29313
4.75121
1.43945
-0.728324
-1.45612
-1.13596
-0.493113
-0.2688
-0.0661003
0.105574
0.253653
0.382053
0.49119
0.583147
0.660652
0.726768
0.784601
0.836989
0.886047
0.932791
0.976994
1.01701
1.05035
1.07484
1.08972
1.09645
1.09885
1.10253
1.1138
1.13786
1.17716
1.23195
1.30118
1.38295
1.47485
1.57409
1.67797
1.78418
1.89096
1.99712
2.10197
2.20521
2.30684
2.40708
2.50633
2.60504
2.70352
2.80166
2.89846
2.99129
3.07598
3.14731
3.19968
3.22799
3.22827
3.19792
3.13572
3.0416
2.91638
2.76329
2.58636
2.38955
2.17695
1.95295
1.72183
1.488
1.25629
1.03169
0.818996
0.622425
0.445311
0.289871
0.157147
0.0470833
-0.041304
-0.109721
-0.160397
-0.195653
-0.217883
-0.230202
-0.236041
-0.238303
-0.238907
-0.238432
-0.236025
-0.22963
-0.216538
-0.194096
-0.160738
-0.116222
-0.0610085
0.00338058
0.0746597
0.150108
0.227024
0.303056
0.376279
0.445472
0.510289
0.571279
0.62982
0.687869
0.747554
0.810633
0.878202
0.950602
1.02541
1.09839
1.1654
1.22402
1.27454
1.31986
1.36422
1.41143
1.46331
1.51845
1.57412
1.62702
1.67375
1.71154
1.73867
1.7547
1.76049
1.7582
1.7506
1.74095
1.73255
1.72831
1.7304
1.73992
1.75738
1.78275
1.81567
1.85553
1.90173
1.9534
2.00801
2.06156
2.10953
2.14791
2.17437
2.18916
2.19549
2.19915
2.20755
2.22803
2.26558
2.32246
2.3987
2.49287
2.60319
2.72757
2.86444
3.01382
3.17646
3.34682
3.50627
3.62677
3.67788
3.63876
3.50822
3.30722
3.07276
2.84582
2.65342
2.48939
2.34311
2.21022
2.08781
1.97225
1.85964
1.74618
1.62835
1.503
1.36739
1.21926
1.05694
0.878793
0.685256
0.394862
0
0.282105
1.75067
4.59361
8.38962
12.1514
14.7089
15.2246
13.5478
10.2446
6.33064
2.86157
0.555435
-0.409406
-0.343773
0.198905
0.521743
0.809832
1.04047
1.20137
1.29195
1.32208
1.30936
1.27564
1.24292
1.22849
1.23797
1.26756
1.31162
1.36608
1.4285
1.49692
1.57006
1.64732
1.72868
1.81439
1.9047
1.9996
2.09883
2.20197
2.30848
2.41784
2.52958
2.64324
2.75837
2.87446
2.991
3.10749
3.22361
3.33924
3.45459
3.57013
3.68655
3.80458
3.92488
4.04782
4.17342
4.30112
4.42942
4.55506
4.67248
4.7751
4.8559
4.90839
4.92758
4.91049
4.85609
4.76484
4.63807
4.47807
4.29112
4.08421
3.86308
3.63278
3.39894
3.16807
2.9471
2.74282
2.5612
2.40689
2.28271
2.18952
2.12649
2.09139
2.08073
2.09022
2.11574
2.1537
2.20129
2.25643
2.31756
2.38329
2.45225
2.52278
2.59317
2.66206
2.72886
2.79417
2.85984
2.92888
3.00502
3.09218
3.19332
3.31041
3.44462
3.5961
3.76393
3.94647
4.14163
4.34732
4.56163
4.783
5.01008
5.24164
5.47629
5.71235
5.9478
6.18028
6.40709
6.62473
6.82835
7.01157
7.16756
7.29046
7.37341
7.40927
7.39238
7.32062
7.19753
7.03363
6.84622
6.6574
6.48766
6.36036
6.32409
6.35992
6.41809
6.43766
6.37062
6.1995
5.94129
5.6379
5.33942
5.08486
4.86576
4.67363
4.51008
4.37472
4.26569
4.17917
4.10786
4.04376
3.9797
3.91065
3.83472
3.75353
3.67193
3.59698
3.54094
3.53645
3.64588
3.87547
4.14049
4.35491
4.45268
4.39856
4.19324
3.87316
3.50382
3.16534
2.90726
2.7015
2.52015
2.35341
2.19799
2.0501
1.90578
1.76121
1.61306
1.45866
1.29612
1.12435
0.943125
0.752917
0.55522
0.339991
0
0.119516
1.26201
3.76963
7.43163
11.3743
14.3246
15.1702
13.5153
9.89647
5.52043
1.68298
-0.783202
-1.73899
-1.59052
-0.936346
-0.311274
0.160253
0.398287
0.44389
0.45322
0.446167
0.423901
0.3885
0.342802
0.290146
0.234125
0.17803
0.124486
0.0754917
0.0325444
-0.00324821
-0.0309504
-0.0496577
-0.0582879
-0.0554435
-0.0394034
-0.0082593
0.0398346
0.106361
0.192134
0.297195
0.420712
0.561007
0.715547
0.881295
1.05473
1.23198
1.40907
1.58216
1.74787
1.90356
2.04761
2.17949
2.2996
2.40879
2.50777
2.59646
2.6733
2.73512
2.77798
2.79704
2.78815
2.74915
2.68032
2.58378
2.46205
2.31667
2.14858
1.96053
1.75503
1.53357
1.29783
1.0509
0.797494
0.543585
0.29584
0.060939
-0.154968
-0.346951
-0.511816
-0.648199
-0.756542
-0.838892
-0.898557
-0.939481
-0.966019
-0.982607
-0.993442
-1.00194
-1.01002
-1.0179
-1.02406
-1.02562
-1.01901
-1.00086
-0.968949
-0.922938
-0.865131
-0.799368
-0.729942
-0.661351
-0.597563
-0.541524
-0.495066
-0.459483
-0.434791
-0.420023
-0.413748
-0.414154
-0.419098
-0.426235
-0.433276
-0.438317
-0.440108
-0.438271
-0.432895
-0.424241
-0.412494
-0.397617
-0.379441
-0.357964
-0.333635
-0.307634
-0.28225
-0.26003
-0.242899
-0.231287
-0.223635
-0.216485
-0.205173
-0.184917
-0.151947
-0.105508
-0.0467075
0.0226097
0.0999477
0.182463
0.26758
0.353528
0.439693
0.526695
0.616185
0.710427
0.812457
0.926707
1.05856
1.2101
1.36963
1.51201
1.61088
1.6441
1.59883
1.47623
1.29341
1.08039
0.871961
0.697279
0.557796
0.441301
0.339595
0.248653
0.16477
0.0834751
0
-0.0867889
-0.184324
-0.295502
-0.421838
-0.565295
-0.725846
-0.899583
-1.15821
-1.29514
-0.815235
0.774732
3.71913
7.69791
11.7386
14.5152
14.9438
12.7502
8.65551
4.04233
0.296216
-1.78388
-2.19702
-1.53116
-0.874201
-0.353362
-0.0517529
0.0292061
0.0669029
0.0799431
0.0846066
0.0926933
0.109644
0.135684
0.171153
0.216024
0.269884
0.332116
0.401972
0.478616
0.561058
0.648533
0.740449
0.836333
0.935718
1.038
1.14229
1.24747
1.35228
1.45565
1.55711
1.65706
1.75701
1.85949
1.96768
2.0849
2.21393
2.35641
2.51247
2.68059
2.85782
3.04027
3.22367
3.40396
3.57768
3.74208
3.89519
4.03593
4.16359
4.27693
4.37315
4.44712
4.49328
4.50535
4.47612
4.39912
4.27048
4.0905
3.86436
3.60184
3.31613
3.02324
2.73484
2.45918
2.20336
1.97254
1.76971
1.59561
1.44881
1.32624
1.22376
1.13683
1.06112
0.992985
0.929747
0.86983
0.812684
0.758628
0.70857
0.663684
0.625095
0.593631
0.569558
0.552483
0.541471
0.535224
0.532322
0.531452
0.531567
0.531968
0.532317
0.532603
0.533096
0.534306
0.536948
0.541903
0.550157
0.562684
0.580304
0.603496
0.63222
0.665804
0.702795
0.740373
0.774062
0.798955
0.810833
0.807339
0.788894
0.759022
0.723884
0.691117
0.668276
0.660073
0.668543
0.694634
0.737403
0.79461
0.863493
0.941303
1.02591
1.11609
1.21147
1.31218
1.41841
1.53018
1.64721
1.76866
1.8925
2.01402
2.12515
2.21671
2.27953
2.30611
2.29225
2.23808
2.14819
2.03071
1.89593
1.7548
1.61616
1.4847
1.36277
1.25199
1.15326
1.06609
0.988708
0.918077
0.850128
0.780371
0.704624
0.619735
0.524119
0.418241
0.285753
0
0.184564
1.32309
3.75055
7.33604
11.314
14.4579
15.5905
14.1792
10.6503
6.20527
2.23834
-0.290116
-1.17006
-0.830553
0.0056221
0.646835
1.10606
1.31673
1.43273
1.52813
1.60961
1.68141
1.74733
1.81041
1.87282
1.93573
1.99946
2.06356
2.12715
2.18934
2.24967
2.30841
2.36666
2.42621
2.48915
2.5575
2.63278
2.71567
2.80614
2.90387
3.00828
3.11879
3.23501
3.35679
3.48427
3.61778
3.75773
3.90442
4.05788
4.21771
4.38301
4.55239
4.72406
4.89604
5.06629
5.23273
5.39305
5.54414
5.6814
5.79862
5.88999
5.94862
5.96757
5.94133
5.86724
5.74622
5.58274
5.38413
5.15956
4.92126
4.67869
4.43757
4.20183
3.97445
3.75717
3.5506
3.35445
3.16802
2.99076
2.82279
2.66509
2.51941
2.38787
2.27266
2.17533
2.0958
2.03247
1.98277
1.94382
1.91301
1.88856
1.86959
1.85598
1.84799
1.84567
1.84863
1.85606
1.86663
1.87865
1.89034
1.9001
1.90676
1.9098
1.90944
1.90665
1.90303
1.9005
1.90087
1.9057
1.91591
1.93053
1.94675
1.96106
1.97032
1.97275
1.96844
1.9592
1.94789
1.93744
1.92985
1.92571
1.92493
1.9272
1.93226
1.94032
1.9523
1.96981
1.9949
2.02965
2.07568
2.13376
2.2038
2.2852
2.37686
2.47761
2.58679
2.70411
2.82546
2.93782
3.02255
3.05932
3.03258
2.93766
2.78346
2.59031
2.38404
2.18881
2.01347
1.85564
1.71421
1.58906
1.47857
1.37987
1.28912
1.20201
1.11408
1.02133
0.92065
0.810343
0.690377
0.562442
0.426568
0
-0.100758
0.616904
2.56044
5.73375
9.53321
12.8391
14.4481
13.6554
10.6485
6.44943
2.42072
-0.372346
-1.56829
-1.48881
-0.78508
-0.132233
0.396108
0.746512
0.924004
1.064
1.1834
1.28214
1.36188
1.42591
1.47865
1.52494
1.5693
1.6154
1.66548
1.72086
1.7822
1.84966
1.92309
2.00211
2.08629
2.17516
2.26826
2.3652
2.46568
2.56954
2.6768
2.78771
2.90271
3.0223
3.14693
3.27677
3.41149
3.55017
3.69132
3.83301
3.9732
4.1101
4.24252
4.3701
4.49332
4.6133
4.73149
4.84937
4.96778
5.08418
5.18943
5.26957
5.30945
5.29739
5.22895
5.10792
4.94428
4.74993
4.53466
4.30745
4.07363
3.83561
3.59472
3.3527
3.1118
2.87477
2.64458
2.42417
2.21614
2.02261
1.84513
1.68471
1.54197
1.41723
1.31064
1.22214
1.15143
1.09784
1.06023
1.03675
1.02471
1.02075
1.02121
1.02268
1.02254
1.01928
1.01275
1.00409
0.995485
0.989602
0.989015
0.995443
1.00992
1.03235
1.06047
1.08969
1.11521
1.13328
1.14229
1.14309
1.13858
1.13269
1.12915
1.13059
1.13751
1.15015
1.16868
1.19343
1.22494
1.26402
1.31239
1.36809
1.42379
1.47
1.49829
1.50449
1.49043
1.46343
1.43366
1.41071
1.39983
1.40015
1.40943
1.42628
1.44963
1.47857
1.5126
1.55158
1.59564
1.64499
1.69979
1.76033
1.82702
1.90053
1.98199
2.0735
2.178
2.2951
2.41287
2.51138
2.56892
2.56849
2.5035
2.38047
2.21755
2.03975
1.87243
1.7289
1.60707
1.50261
1.41361
1.33757
1.27025
1.20628
1.13987
1.06545
0.978409
0.875594
0.755154
0.612544
0.452562
0.282855
-0.0445532
0
0.90908
3.08185
6.4981
10.5062
13.9346
15.5589
14.7053
11.6267
7.39755
3.38118
0.598963
-0.630557
-0.630413
-0.0151266
0.425087
0.791319
1.03349
1.13801
1.20534
1.2503
1.28049
1.30281
1.32269
1.34358
1.36693
1.39311
1.42196
1.45338
1.48783
1.52638
1.57064
1.62224
1.68239
1.75118
1.82761
1.90997
1.99594
2.08295
2.16863
2.2513
2.33034
2.40636
2.48116
2.55742
2.63825
2.72667
2.82511
2.93501
3.0566
3.18916
3.33115
3.48037
3.63419
3.78977
3.94417
4.09418
4.23631
4.36656
4.48006
4.57146
4.63684
4.67276
4.67633
4.64544
4.57909
4.47744
4.34177
4.17431
3.97815
3.7596
3.52562
3.28193
3.03339
2.78493
2.54155
2.30788
2.08793
1.88478
1.70057
1.5366
1.39356
1.27179
1.17161
1.09341
1.03698
1.00156
0.987901
0.996812
1.0234
1.05738
1.08788
1.1059
1.10643
1.08953
1.05996
1.02552
0.994653
0.973568
0.963794
0.964366
0.973538
0.989243
1.00891
1.02996
1.05032
1.06876
1.08501
1.09962
1.1137
1.12854
1.14523
1.16436
1.18595
1.20943
1.23386
1.25809
1.28083
1.30085
1.31708
1.32878
1.33556
1.33741
1.3348
1.32862
1.32016
1.31103
1.30299
1.29774
1.29677
1.30117
1.3114
1.3273
1.34785
1.37089
1.3937
1.41364
1.42878
1.43831
1.44267
1.44337
1.4425
1.44225
1.44434
1.44987
1.45958
1.47409
1.49415
1.52084
1.55565
1.60026
1.65633
1.72519
1.80828
1.91412
2.07371
2.35215
2.74784
3.16376
3.48687
3.62657
3.5535
3.30441
2.95529
2.58764
2.27516
2.07211
1.94915
1.86216
1.79198
1.73075
1.67318
1.61277
1.54272
1.45676
1.35002
1.21967
1.06515
0.888152
0.690294
0.477297
0.178837
0
0.461182
2.04618
4.95679
8.83131
12.7081
15.3348
15.7217
13.6483
9.81008
5.4962
1.97853
-0.0283904
-0.546616
-0.119598
0.367019
0.637202
0.841558
0.975269
1.07651
1.15788
1.22587
1.28669
1.34546
1.40564
1.46892
1.53556
1.60465
1.67466
1.74388
1.81089
1.87484
1.93565
1.99398
2.05111
2.10868
2.16835
2.23156
2.29927
2.37183
2.44903
2.53022
2.61449
2.70095
2.78901
2.87856
2.97012
3.06486
3.16442
3.27064
3.38516
3.50907
3.64263
3.78515
3.93511
4.09039
4.24854
4.40698
4.56266
4.71131
4.84718
4.96372
5.0544
5.11248
5.1318
5.10766
5.03762
4.92213
4.76489
4.57284
4.35603
4.12651
3.89453
3.66674
3.44696
3.23797
3.04127
2.85735
2.68607
2.52714
2.38045
2.24626
2.12514
2.01772
1.92445
1.84533
1.77973
1.72647
1.68384
1.64987
1.6226
1.60044
1.58239
1.56809
1.55773
1.55189
1.55124
1.55627
1.56703
1.58298
1.60303
1.62558
1.64873
1.67044
1.68877
1.7021
1.70936
1.71016
1.70488
1.6947
1.68144
1.66731
1.65458
1.64517
1.64037
1.64063
1.64561
1.65419
1.66478
1.67553
1.6846
1.69041
1.69167
1.68749
1.67751
1.66187
1.64124
1.61672
1.58972
1.56161
1.53353
1.50604
1.47897
1.45147
1.42217
1.38955
1.35241
1.31026
1.26368
1.21435
1.16503
1.11947
1.08155
1.05457
1.04062
1.04008
1.0516
1.07229
1.09831
1.12558
1.15058
1.17087
1.18546
1.1949
1.2012
1.20748
1.21749
1.23506
1.26338
1.30457
1.35952
1.42813
1.50955
1.60244
1.70539
1.81744
1.93896
2.07299
2.22547
2.39421
2.55521
2.67167
2.70594
2.63541
2.46455
2.22692
1.97514
1.76129
1.60455
1.48061
1.37215
1.27292
1.17835
1.08452
0.98867
0.889387
0.786451
0.680419
0.572163
0.462294
0.351057
0.238435
0.116996
0
0.372244
1.75261
4.44196
8.18289
12.0583
14.7856
15.308
13.3539
9.60666
5.36628
1.90819
-0.0654651
-0.588034
-0.192444
0.26698
0.568456
0.790665
0.92572
1.02063
1.0928
1.14825
1.1926
1.23045
1.26538
1.29966
1.33487
1.37225
1.41289
1.45783
1.50794
1.56377
1.6254
1.69236
1.76379
1.83856
1.91562
1.99419
2.07405
2.15552
2.2395
2.32722
2.42
2.51898
2.62493
2.73809
2.85824
2.98478
3.11696
3.25405
3.39539
3.5404
3.68836
3.83816
3.98806
4.13547
4.27652
4.40651
4.52078
4.61511
4.68621
4.7319
4.75105
4.74317
4.70797
4.64505
4.55426
4.43636
4.29243
4.12403
3.93358
3.72472
3.50231
3.27214
3.04034
2.81298
2.59555
2.39263
2.2077
2.04302
1.89966
1.77759
1.67583
1.59267
1.5259
1.47302
1.43144
1.39885
1.37338
1.35373
1.33914
1.3293
1.32412
1.32352
1.32721
1.33459
1.34469
1.35618
1.36751
1.37704
1.3833
1.38535
1.38294
1.37681
1.36858
1.36064
1.3557
1.35619
1.36386
1.3798
1.40306
1.43005
1.45594
1.47599
1.4867
1.48655
1.47616
1.45784
1.43471
1.40971
1.38482
1.36074
1.33735
1.31416
1.29071
1.26681
1.24272
1.21913
1.19692
1.1769
1.15953
1.14479
1.1322
1.12092
1.11001
1.09862
1.08618
1.07247
1.05758
1.04187
1.02582
1.00983
0.994209
0.979061
0.964343
0.949978
0.936045
0.922977
0.911724
0.903807
0.901235
0.906257
0.921025
0.947232
0.985791
1.03666
1.09884
1.17065
1.25011
1.33543
1.42543
1.51995
1.62078
1.73526
1.88773
2.11702
2.39057
2.63975
2.79143
2.7958
2.64467
2.37402
2.05094
1.75108
1.53487
1.38215
1.26092
1.1582
1.07098
0.998528
0.939707
0.892663
0.853683
0.816953
0.776023
0.724988
0.659722
0.578914
0.484536
0.374888
0.00788956
0
0.874177
3.03699
6.41232
10.2453
13.292
14.3689
12.967
9.54598
5.30897
1.5975
-0.716366
-1.49775
-1.19321
-0.502497
0.0787693
0.512087
0.741408
0.873762
0.978135
1.06095
1.12546
1.17556
1.21547
1.24942
1.28139
1.31473
1.35202
1.39493
1.44428
1.50011
1.56185
1.6285
1.69885
1.7718
1.84649
1.92256
2.00016
2.0799
2.16259
2.24898
2.33944
2.43375
2.5311
2.63024
2.72977
2.82848
2.92563
3.0211
3.11547
3.20982
3.30553
3.40394
3.50599
3.61192
3.721
3.83151
3.94068
4.04474
4.1392
4.21959
4.28168
4.32173
4.33656
4.3235
4.28041
4.20567
4.0984
3.95882
3.78918
3.59349
3.37711
3.14658
2.90921
2.67232
2.44254
2.22533
2.02455
1.84246
1.67985
1.53647
1.41164
1.30517
1.21682
1.14599
1.09224
1.0551
1.03376
1.02696
1.0329
1.04924
1.07325
1.10176
1.13163
1.15899
1.1801
1.1919
1.19267
1.18248
1.1634
1.1392
1.11462
1.09438
1.082
1.07869
1.08448
1.09889
1.12062
1.14784
1.17839
1.20994
1.23987
1.26512
1.28234
1.2887
1.28208
1.2617
1.22845
1.18498
1.1353
1.08404
1.03556
0.992959
0.95736
0.929244
0.908391
0.894212
0.886086
0.883521
0.886113
0.893353
0.904392
0.918089
0.932898
0.947181
0.959537
0.969095
0.975672
0.979751
0.982293
0.984464
0.987389
0.991978
0.998924
1.00889
1.02265
1.04123
1.06596
1.09849
1.14063
1.19413
1.26037
1.34022
1.43372
1.54077
1.66099
1.79113
1.92332
2.04649
2.14942
2.22243
2.25851
2.25402
2.20907
2.1276
2.0172
1.88833
1.75274
1.62101
1.49931
1.38898
1.28921
1.19927
1.11784
1.04301
0.97258
0.904148
0.835095
0.762526
0.683472
0.595199
0.495689
0.384196
0.211952
-0.184444
0
1.34325
4.10087
7.94408
11.8982
14.6637
15.1951
13.2287
9.43743
5.108
1.5287
-0.552564
-1.1174
-0.678309
-0.0429216
0.494224
0.866055
1.05953
1.19871
1.32154
1.43258
1.53448
1.6289
1.71683
1.79874
1.87512
1.9468
2.01521
2.08234
2.15055
2.22218
2.29919
2.3829
2.47396
2.57251
2.67826
2.79065
2.90894
3.03228
3.1597
3.29015
3.4225
3.55571
3.68903
3.82217
3.95545
4.08983
4.22669
4.36752
4.51351
4.66509
4.82173
4.98182
5.14287
5.30181
5.45543
5.60063
5.73435
5.85334
5.95422
6.0341
6.09015
6.11924
6.11826
6.08445
6.01591
5.91197
5.77344
5.60266
5.40447
5.18528
4.95154
4.70918
4.46434
4.22315
3.99148
3.77449
3.5764
3.40013
3.24716
3.11745
3.00955
2.92082
2.84775
2.7865
2.73339
2.68544
2.64075
2.59867
2.55975
2.52543
2.49759
2.47798
2.46777
2.46724
2.47541
2.49012
2.5082
2.52611
2.54049
2.54863
2.54889
2.54091
2.52554
2.50464
2.48067
2.45617
2.43325
2.41333
2.39706
2.38444
2.37504
2.36837
2.36415
2.36248
2.36379
2.36859
2.37715
2.38914
2.40336
2.4175
2.42842
2.43274
2.42768
2.41164
2.38474
2.34886
2.3073
2.26409
2.22315
2.1873
2.15829
2.13661
2.12178
2.11277
2.1085
2.10818
2.11139
2.11796
2.12766
2.1399
2.15361
2.1671
2.17837
2.1854
2.18657
2.18093
2.16848
2.1501
2.12749
2.10285
2.07854
2.05675
2.0393
2.02757
2.02253
2.02479
2.03491
2.05348
2.08127
2.11932
2.16881
2.23105
2.30844
2.40617
2.53513
2.7105
2.92935
3.15343
3.33723
3.43725
3.42293
3.28608
3.04536
2.74411
2.4417
2.1959
2.00839
1.85478
1.72155
1.60465
1.50044
1.40452
1.31224
1.21931
1.12217
1.01828
0.906255
0.785851
0.6579
0.524108
0.383907
0.023584
0
0.825252
2.88768
6.14898
9.97568
13.26
14.8442
14.0653
11.115
6.98026
2.97777
0.152148
-1.11761
-1.11647
-0.472875
-0.0291115
0.327849
0.543367
0.607761
0.636707
0.643108
0.63671
0.626171
0.618058
0.615797
0.620166
0.630846
0.647494
0.669759
0.697596
0.731308
0.771359
0.81807
0.871315
0.930208
0.993577
1.0602
1.12892
1.19891
1.2698
1.34168
1.41509
1.49084
1.56986
1.65301
1.74094
1.83398
1.93203
2.0346
2.14085
2.2498
2.36047
2.47215
2.58458
2.69801
2.81319
2.93126
3.05369
3.18272
3.32156
3.46999
3.61507
3.73584
3.81001
3.82132
3.76501
3.64813
3.48473
3.28867
3.06883
2.8341
2.59141
2.34488
2.09763
1.85297
1.61455
1.38605
1.17081
0.971464
0.789832
0.626859
0.482822
0.35759
0.250849
0.162231
0.0912888
0.0374283
2.13623e-005
-0.0216965
-0.028846
-0.0231087
-0.00686111
0.0168335
0.0444626
0.072229
0.0965958
0.114746
0.124908
0.126474
0.11989
0.106358
0.0874527
0.0647942
0.0399109
0.0140244
-0.0118866
-0.0369598
-0.0603981
-0.0814796
-0.0995773
-0.114154
-0.124803
-0.131145
-0.132761
-0.1292
-0.120103
-0.105437
-0.0855728
-0.0616394
-0.0361977
-0.0126465
0.00549316
0.0153084
0.0151039
0.0046669
-0.0148224
-0.041214
-0.0719185
-0.104317
-0.136256
-0.166039
-0.192149
-0.213062
-0.22737
-0.233824
-0.231548
-0.220293
-0.20065
-0.174102
-0.142902
-0.1097
-0.0772545
-0.0477844
-0.0225273
-0.00151215
0.016404
0.0332367
0.0514282
0.0733414
0.100884
0.135114
0.176405
0.224797
0.280115
0.342011
0.410011
0.483501
0.561724
0.643837
0.729073
0.81699
0.907704
1.00204
1.10152
1.20899
1.33223
1.49374
1.73481
2.0451
2.35091
2.57995
2.67592
2.61215
2.40069
2.09118
1.75905
1.48914
1.3312
1.2421
1.18189
1.1348
1.09468
1.05627
1.01422
0.963611
0.900431
0.820479
0.716658
0.575702
0.388314
0.167899
-0.069474
-0.261569
0
1.18498
3.65717
7.30921
11.3923
14.6853
16.0068
14.8067
11.4782
7.1818
3.28017
0.725294
-0.259587
-0.0799267
0.600546
0.857521
1.07406
1.22445
1.32436
1.396
1.44683
1.48579
1.52172
1.5618
1.61031
1.66877
1.73693
1.81348
1.8966
1.98454
2.07619
2.17126
2.27025
2.37404
2.48339
2.59848
2.71867
2.84245
2.96781
3.09268
3.21551
3.33564
3.45344
3.57029
3.68826
3.80977
3.93717
4.07245
4.2169
4.37098
4.53406
4.70441
4.87912
5.0544
5.22588
5.38918
5.5405
5.67716
5.79777
5.90179
5.98863
6.05797
6.10974
6.14316
6.15581
6.14382
6.10265
6.02808
5.91736
5.77013
5.589
5.37954
5.14972
4.90884
4.66616
4.42858
4.20095
3.98705
3.7894
3.60946
3.44798
3.3051
3.18054
3.07375
2.98386
2.90928
2.84821
2.79889
2.75977
2.72968
2.70769
2.69296
2.6847
2.68144
2.68072
2.67936
2.67397
2.66149
2.63969
2.60749
2.56513
2.51396
2.45619
2.39456
2.33182
2.27035
2.21191
2.15764
2.10807
2.06308
2.02192
1.98337
1.94601
1.90855
1.87012
1.83053
1.79026
1.75043
1.71252
1.67808
1.64841
1.62436
1.60621
1.5938
1.58652
1.58354
1.58379
1.58612
1.58912
1.59107
1.5902
1.58511
1.5751
1.56042
1.54237
1.52306
1.50503
1.49081
1.48226
1.48037
1.48573
1.49858
1.51869
1.54532
1.57721
1.61266
1.64942
1.68469
1.71588
1.74124
1.76044
1.77494
1.7879
1.80374
1.82748
1.86383
1.9166
2.00091
2.16024
2.45148
2.82559
3.18852
3.45298
3.54789
3.44262
3.15904
2.763
2.34411
2.00426
1.80917
1.69851
1.6214
1.56037
1.50974
1.46542
1.4226
1.37604
1.32062
1.25198
1.16708
1.06466
0.945572
0.812677
0.670171
0.225877
0
0.505592
2.25696
5.376
9.33331
12.9812
14.9888
14.4909
11.5626
7.2088
2.86069
-0.302578
-1.8055
-1.89101
-1.19165
-0.504358
0.0544264
0.400557
0.513212
0.589368
0.649379
0.698311
0.740804
0.780689
0.820733
0.862522
0.90656
0.952525
0.999646
1.04711
1.09439
1.14147
1.18892
1.2378
1.28954
1.34571
1.40781
1.47705
1.5542
1.63944
1.73238
1.83206
1.93725
2.04672
2.15956
2.27551
2.39504
2.51928
2.64977
2.78804
2.93514
3.0913
3.25569
3.4265
3.60104
3.77611
3.94835
4.11454
4.27162
4.4163
4.54447
4.65061
4.72878
4.77539
4.78655
4.75855
4.6885
4.57493
4.41817
4.22059
3.98671
3.72368
3.44342
3.1572
2.8741
2.60232
2.34935
2.12111
1.92141
1.75283
1.61411
1.50217
1.41311
1.34317
1.28937
1.2497
1.22281
1.20743
1.20162
1.2033
1.20827
1.21113
1.20687
1.19196
1.16527
1.12819
1.08422
1.03792
0.993854
0.955375
0.923863
0.899532
0.882066
0.87068
0.864183
0.861096
0.859731
0.858004
0.853447
0.843652
0.826627
0.801203
0.76734
0.726192
0.679865
0.630918
0.581748
0.534005
0.488224
0.444062
0.400446
0.355966
0.309342
0.259839
0.20755
0.15348
0.099427
0.0477039
0.00075798
-0.0392647
-0.070845
-0.0931664
-0.105955
-0.109323
-0.103675
-0.0895439
-0.0674915
-0.0381039
-0.00212517
0.0393799
0.0849312
0.132762
0.180671
0.226736
0.27011
0.311622
0.354038
0.401794
0.460218
0.536485
0.649706
0.815096
1.00456
1.17255
1.27739
1.2954
1.22631
1.09014
0.919063
0.747276
0.601508
0.484843
0.38802
0.303275
0.225725
0.151722
0.0777019
0
-0.0946312
-0.199953
-0.318872
-0.454147
-0.612328
-0.803161
-1.01997
-1.25113
-1.57339
-1.45369
-0.392429
1.96817
5.50478
9.44939
12.5824
13.7557
12.4702
9.15481
4.96211
1.20081
-1.24621
-2.19435
-2.02911
-1.34783
-0.939822
-0.571452
-0.272134
-0.0328938
0.168599
0.334042
0.467392
0.574062
0.660105
0.731548
0.793909
0.852118
0.910451
0.972591
1.04166
1.12012
1.20956
1.3105
1.42226
1.54299
1.67006
1.80051
1.9316
2.06117
2.188
2.31182
2.43318
2.55316
2.67309
2.79425
2.91771
3.04424
3.17434
3.30828
3.44615
3.58787
3.73315
3.88131
4.03117
4.18089
4.32796
4.46902
4.5998
4.71593
4.81351
4.88913
4.94011
4.96418
4.95979
4.92569
4.8608
4.7643
4.63581
4.4758
4.28601
4.06973
3.83202
3.57995
3.32114
3.06286
2.81203
2.57479
2.35601
2.15892
1.98524
1.83467
1.70559
1.59554
1.5018
1.42178
1.35331
1.29474
1.24488
1.2028
1.16781
1.13944
1.1174
1.10157
1.09185
1.08801
1.08951
1.0954
1.10435
1.11491
1.1258
1.13624
1.14616
1.15617
1.1674
1.18112
1.19839
1.21976
1.24515
1.2739
1.30482
1.3364
1.36697
1.39492
1.41875
1.43713
1.44903
1.45389
1.45155
1.44243
1.42756
1.40854
1.38745
1.36652
1.34778
1.33267
1.32203
1.31571
1.31237
1.31045
1.30887
1.30768
1.3083
1.3132
1.3253
1.34713
1.37986
1.42259
1.4737
1.53137
1.59354
1.65818
1.72354
1.78832
1.85174
1.91348
1.97375
2.03326
2.09325
2.15548
2.22216
2.29575
2.37927
2.47857
2.60663
2.78374
3.0092
3.23992
3.42757
3.53222
3.53246
3.42903
3.24143
3.00024
2.74024
2.49627
2.28434
2.09973
1.93483
1.78488
1.6474
1.52014
1.39998
1.28331
1.16636
1.04573
0.918753
0.78358
0.637775
0.483246
0.323714
0
0.0673874
0.969138
3.03148
6.19254
9.8635
13.0348
14.6375
14.0248
11.3211
7.41268
3.54667
0.759182
-0.532746
-0.560644
0.0909157
0.63726
1.08425
1.36746
1.47103
1.53357
1.57155
1.59212
1.60246
1.60918
1.61781
1.63202
1.65393
1.68435
1.72297
1.76875
1.82038
1.87669
1.93686
2.00061
2.06823
2.14039
2.2179
2.30141
2.39107
2.48642
2.58637
2.68933
2.79348
2.89717
2.99921
3.09918
3.19749
3.29535
3.39446
3.49675
3.60395
3.71726
3.83714
3.96308
4.09368
4.22662
4.35836
4.48406
4.59813
4.69535
4.77107
4.82138
4.84328
4.83448
4.79323
4.71815
4.6082
4.46313
4.28562
4.0802
3.852
3.60634
3.34895
3.08607
2.82408
2.56898
2.32592
2.09885
1.89043
1.70208
1.53419
1.38641
1.25794
1.14771
1.05456
0.977157
0.914052
0.863661
0.823723
0.791428
0.764011
0.739231
0.715832
0.693803
0.674339
0.659461
0.651406
0.651736
0.661486
0.6803
0.706408
0.737128
0.769389
0.800296
0.827566
0.849788
0.866452
0.877812
0.884631
0.887901
0.888569
0.887389
0.884857
0.88125
0.876705
0.871325
0.865279
0.85887
0.852575
0.847053
0.843116
0.841646
0.843457
0.849165
0.859092
0.873049
0.890285
0.909776
0.930507
0.951741
0.973162
0.994841
1.01701
1.03975
1.06276
1.08527
1.10624
1.12472
1.1404
1.15403
1.16758
1.18417
1.20743
1.24057
1.28547
1.34367
1.41322
1.48813
1.56131
1.62664
1.6807
1.72374
1.75959
1.79465
1.83639
1.89122
1.96213
2.05248
2.17199
2.33556
2.54356
2.76125
2.94695
3.06272
3.08658
3.02057
2.88907
2.72652
2.56145
2.40721
2.26215
2.12353
1.99046
1.86305
1.74122
1.62393
1.50873
1.39192
1.26897
1.13531
0.987274
0.821265
0.633581
0.428472
0
-0.195333
0.408986
2.27784
5.52282
9.65793
13.6177
16.1212
16.2401
13.8673
9.80261
5.38364
1.87376
-0.0436445
-0.411487
0.220382
0.887067
1.43087
1.76706
1.87715
1.91473
1.90808
1.8863
1.87347
1.88324
1.91201
1.95499
2.00956
2.07374
2.14537
2.22254
2.30372
2.3878
2.47395
2.5615
2.64979
2.73824
2.8264
2.91421
3.00216
3.09141
3.18372
800
989
1175
1348
1514
1677
1850
2033
2226
2416
2601
2794
2987
3172
3349
3530
3716
3380
3571
3717
3570
3738
3216
3353
3489
3623
3533
3665
0
0
0
0
0
0
0
0
0
0
0
0
0
0
0
0
0
0
0
0
0
0
0
0
0
0
0
0
0
0
0
0
0
0
0
0
0
0
0
0
0
0
0
0
0
0
0
0
0
0
0
0
0
0
0
0
0
0
0
0
0
0
0
0
0
0
0
0
0
0
0
0
0
0
0
0
0
0
0
0
0
0
0
0
0
0
0
0
0
0
0
0
0
0
0
0
0
0
0
0
0
0
0
0
0
0
0
0
0
0
0
0
0
0
0
0
0
0
0
0
0
0
0
0
0
0
0
0
0
0
0
0
0
0
0
0
0
0
0
0
0
0
0
0
0
0
0
0
0
0
0
0
0
0
0
0
0
0
0
0
0
0
0
0
0
0
0
0
0
0
0
0
0
0
0
0
0
0
0
0
0
0
0
0
0
0
0
0
0
0
0
0
0
0
0
0
0
0
0
0
0
0
0
0
0
0
0
0
0
0
0
0
0
0
0
0
0
0
0
0
0
0
0
0
0
0
0
0
0
0
0
0
0
0
0
0
0
0
0
0
0
0
0
0
0
0
0
0
0
0
0
0
0
0
0
0
0
0
0
0
0
0
0
0
0
0
0
0
0
0
0
0
0
0
0
0
0
0
0
0
0
0
0
0
0
0
0
0
0
0
0
0
0
0
0
0
0
0
0
0
0
0
0
0
0
0
0
0
0
0
0
0
0
0
0
0
0
0
0
0
0
0
0
0
0
0
0
0
0
0
0
0
0
0
0
0
0
0
0
0
0
0
0
0
0
0
0
0
0
0
0
0
0
0
0
0
0
0
0
0
0
0
0
0
0
0
0
0
0
0
0
0
0
0
0
0
0
0
0
0
0
0
0
0
0
0
0
0
0
0
0
0
0
0
0
0
0
0
0
0
0
0
0
0
0
0
0
0
0
0
0
0
0
0
0
0
0
0
0
0
0
0
0
0
0
0
0
0
0
0
0
0
0
0
0
0
0
0
0
0
0
0
0
0
0
0
0
0
0
0
0
0
0
0
0
0
0
0
0
0
0
0
0
0
0
0
0
0
0
0
0
0
0
0
0
0
0
0
0
0
0
0
0
0
0
0
0
0
0
0
0
0
0
0
0
0
0
0
0
0
0
0
0
0
0
0
0
0
0
0
0
0
0
0
0
0
0
0
0
0
0
0
0
0
0
0
0
0
0
0
0
0
0
0
0
0
0
0
0
0
0
0
0
0
0
0
0
0
0
0
0
0
0
0
0
0
0
0
0
0
0
0
0
0
0
0
0
0
0
0
0
0
0
0
0
0
0
0
0
0
0
0
0
0
0
0
0
0
0
0
0
0
0
0
0
0
0
0
0
0
0
0
0
0
0
0
0
0
0
0
0
0
0
0
0
0
0
0
0
0
0
0
0
0
0
0
0
0
0
0
0
0
0
0
0
0
0
0
0
0
0
0
0
0
0
0
0
0
0
0
0
0
0
0
0
0
0
0
0
0
0
0
0
0
0
0
0
0
0
0
0
0
0
0
0
0
0
0
0
0
0
0
0
0
0
0
0
0
0
0
0
0
0
0
0
0
0
0
0
0
0
0
0
0
0
0
0
0
0
0
0
0
0
0
0
0
0
0
0
0
0
0
0
0
0
0
0
0
0
0
0
0
0
0
0
0
0
0
0
0
0
0
0
0
0
0
0
0
0
0
0
0
0
0
0
0
0
0
0
0
0
0
0
0
0
0
0
0
0
0
0
0
0
0
0
0
0
0
0
0
0
0
0
0
0
0
0
0
0
0
0
0
0
0
0
0
0
0
0
0
0
0
0
0
0
0
0
0
0
0
0
0
0
0
0
0
0
0
0
0
0
0
0
0
0
0
0
0
0
0
0
0
0
0
0
0
0
0
0
0
0
0
0
0
0
0
0
0
0
0
0
0
0
0
0
0
0
0
0
0
0
0
0
0
0
0
0
0
0
0
0
0
0
0
0
0
0
0
0
0
0
0
0
0
0
0
0
0
0
0
0
0
0
0
0
0
0
0
0
0
0
0
0
0
0
0
0
0
0
0
0
0
0
0
0
0
0
0
0
0
0
0
0
0
0
0
0
0
0
0
0
0
0
0
0
0
0
0
0
0
0
0
0
0
0
0
0
0
0
0
0
0
0
0
0
0
0
0
0
0
0
0
0
0
0
0
0
0
0
0
0
0
0
0
0
0
0
0
0
0
0
0
0
0
0
0
0
0
0
0
0
0
0
0
0
0
0
0
0
0
0
0
0
0
0
0
0
0
0
0
0
0
0
0
0
0
0
0
0
0
0
0
0
0
0
0
0
0
0
0
0
0
0
0
0
0
0
0
0
0
0
0
0
0
0
0
0
0
0
0
0
0
0
0
0
0
0
0
0
0
0
0
0
0
0
0
0
0
0
0
0
0
0
0
0
0
0
0
0
0
0
0
0
0
0
0
0
0
0
0
0
0
0
0
0
0
0
0
0
0
0
0
0
0
0
0
0
0
0
0
0
0
0
0
0
0
0
0
0
0
0
0
0
0
0
0
0
0
0
0
0
0
0
0
0
0
0
0
0
0
0
0
0
0
0
0
0
0
0
0
0
0
0
0
0
0
0
0
0
0
0
0
0
0
0
0
0
0
0
0
0
0
0
0
0
0
0
0
0
0
0
0
0
0
0
0
0
0
0
0
0
0
0
0
0
0
0
0
0
0
0
0
0
0
0
0
0
0
0
0
0
0
0
0
0
0
0
0
0
0
0
0
0
0
0
0
0
0
0
0
0
0
0
0
0
0
0
0
0
0
0
0
0
0
0
0
0
0
0
0
0
0
0
0
0
0
0
0
0
0
0
0
0
0
0
0
0
0
0
0
0
0
0
0
0
0
0
0
0
0
0
0
0
0
0
0
0
0
0
0
0
0
0
0
0
0
0
0
0
0
0
0
0
0
0
0
0
0
0
0
0
0
0
0
0
0
0
0
0
0
0
0
0
0
0
0
0
0
0
0
0
0
0
0
0
0
0
0
0
0
0
0
0
0
0
0
0
0
0
0
0
0
0
0
0
0
0
0
0
0
0
0
0
0
0
0
0
0
0
0
0
0
0
0
0
0
0
0
0
0
0
0
0
0
0
0
0
0
0
0
0
0
0
0
0
0
0
0
0
0
0
0
0
0
0
0
0
0
0
0
0
0
0
0
0
0
0
0
0
0
0
0
0
0
0
0
0
0
0
0
0
0
0
0
0
0
0
0
0
0
0
0
0
0
0
0
0
0
0
0
0
0
0
0
0
0
0
0
0
0
0
0
0
0
0
0
0
0
0
0
0
0
0
0
0
0
0
0
0
0
0
0
0
0
0
0
0
0
0
0
0
0
0
0
0
0
0
0
0
0
0
0
0
0
0
0
0
0
0
0
0
0
0
0
0
0
0
0
0
0
0
0
0
0
0
0
0
0
0
0
0
0
0
0
0
0
0
0
0
0
0
0
0
0
0
0
0
0
0
0
0
0
0
0
0
0
0
0
0
0
0
0
0
0
0
0
0
0
0
0
0
0
0
0
0
0
0
0
0
0
0
0
0
0
0
0
0
0
0
0
0
0
0
0
0
0
0
0
0
0
0
0
0
0
0
0
0
0
0
0
0
0
0
0
0
0
0
0
0
0
0
0
0
0
0
0
0
0
0
0
0
0
0
0
0
0
0
0
0
0
0
0
0
0
0
0
0
0
0
0
0
0
0
0
0
0
0
0
0
0
0
0
0
0
0
0
0
0
0
0
0
0
0
0
0
0
0
0
0
0
0
0
0
0
0
0
0
0
0
0
0
0
0
0
0
0
0
0
0
0
0
0
0
0
0
0
0
0
0
0
0
0
0
0
0
0
0
0
0
0
0
0
0
0
0
0
0
0
0
0
0
0
0
0
0
0
0
0
0
0
0
0
0
0
0
0
0
0
0
0
0
0
0
0
0
0
0
0
0
0
0
0
0
0
0
0
0
0
0
0
0
0
0
0
0
0
0
0
0
0
0
0
0
0
0
0
0
0
0
0
0
0
0
0
0
0
0
0
0
0
0
0
0
0
0
0
0
0
0
0
0
0
0
0
0
0
0
0
0
0
0
0
0
0
0
0
0
0
0
0
0
0
0
0
0
0
0
0
0
0
0
0
0
0
0
0
0
0
0
0
0
0
0
0
0
0
0
0
0
0
0
0
0
0
0
0
0
0
0
0
0
0
0
0
0
0
0
0
0
0
0
0
0
0
0
0
0
0
0
0
0
0
0
0
0
0
0
0
0
0
0
0
0
0
0
0
0
0
0
0
0
0
0
0
0
0
0
0
0
0
0
0
0
0
0
0
0
0
0
0
0
0
0
0
0
0
0
0
0
0
0
0
0
0
0
0
0
0
0
0
0
0
0
0
0
0
0
0
0
0
0
0
0
0
0
0
0
0
0
0
0
0
0
0
0
0
0
0
0
0
0
0
0
0
0
0
0
0
0
0
0
0
0
0
0
0
0
0
0
0
0
0
0
0
0
0
0
0
0
0
0
0
0
0
0
0
0
0
0
0
0
0
0
0
0
0
0
0
0
0
0
0
0
0
0
0
0
0
0
0
0
0
0
0
0
0
0
0
0
0
0
0
0
0
0
0
0
0
0
0
0
0
0
0
0
0
0
0
0
0
0
0
0
0
0
0
0
0
0
0
0
0
0
0
0
0
0
0
0
0
0
0
0
0
0
0
0
0
0
0
0
0
0
0
0
0
0
0
0
0
0
0
0
0
0
0
0
0
0
0
0
0
0
0
0
0
0
0
0
0
0
0
0
0
0
0
0
0
0
0
0
0
0
0
0
0
0
0
0
0
0
0
0
0
0
0
0
0
0
0
0
0
0
0
0
0
0
0
0
0
0
0
0
0
0
0
0
0
0
0
0
0
0
0
0
0
0
0
0
0
0
0
0
0
0
0
0
0
0
0
0
0
0
0
0
0
0
0
0
0
0
0
0
0
0
0
0
0
0
0
0
0
0
0
0
0
0
0
0
0
0
0
0
0
0
0
0
0
0
0
0
0
0
0
0
0
0
0
0
0
0
0
0
0
0
0
0
0
0
0
0
0
0
0
0
0
0
0
0
0
0
0
0
0
0
0
0
0
0
0
0
0
0
0
0
0
0
0
0
0
0
0
0
0
0
0
0
0
0
0
0
0
0
0
0
0
0
0
0
0
0
0
0
0
0
0
0
0
0
0
0
0
0
0
0
0
0
0
0
0
0
0
0
0
0
0
0
0
0
0
0
0
0
0
0
0
0
0
0
0
0
0
0
0
0
0
0
0
0
0
0
0
0
0
0
0
0
0
0
0
0
0
0
0
0
0
0
0
0
0
0
0
0
0
0
0
0
0
0
0
0
0
0
0
0
0
0
0
0
0
0
0
0
0
0
0
0
0
0
0
0
0
0
0
0
0
0
0
0
0
0
0
0
0
0
0
0
0
0
0
0
0
0
0
0
0
0
0
0
0
0
0
0
0
0
0
0
0
0
0
0
0
0
0
0
0
0
0
0
0
0
0
0
0
0
0
0
0
0
0
0
0
0
0
0
0
0
0
0
0
0
0
0
0
0
0
0
0
0
0
0
0
0
0
0
0
0
0
0
0
0
0
0
0
0
0
0
0
0
0
0
0
0
0
0
0
0
0
0
0
0
0
0
0
0
0
0
0
0
0
0
0
0
0
0
0
0
0
0
0
0
0
0
0
0
0
0
0
0
0
0
0
0
0
0
0
0
0
0
0
0
0
0
0
0
0
0
0
0
0
0
0
0
0
0
0
0
0
0
0
0
0
0
0
0
0
0
0
0
0
0
0
0
0
0
0
0
0
0
0
0
0
0
0
0
0
0
0
0
0
0
0
0
0
0
0
0
0
0
0
0
0
0
0
0
0
0
0
0
0
0
0
0
0
0
0
0
0
0
0
0
0
0
0
0
0
0
0
0
0
0
0
0
0
0
0
0
0
0
0
0
0
0
0
0
0
0
0
0
0
0
0
0
0
0
0
0
0
0
0
0
0
0
0
0
0
0
0
0
0
0
0
0
0
0
0
0
0
0
0
0
0
0
0
0
0
0
0
0
0
0
0
0
0
0
0
0
0
0
0
0
0
0
0
0
0
0
0
0
0
0
0
0
0
0
0
0
0
0
0
0
0
0
0
0
0
0
0
0
0
0
0
0
0
0
0
0
0
0
0
0
0
0
0
0
0
0
0
0
0
0
0
0
0
0
0
0
0
0
0
0
0
0
0
0
0
0
0
0
0
0
0
0
0
0
0
0
0
0
0
0
0
0
0
0
0
0
0
0
0
0
0
0
0
0
0
0
0
0
0
0
0
0
0
0
0
0
0
0
0
0
0
0
0
0
0
0
0
0
0
0
0
0
0
0
0
0
0
0
0
0
0
0
0
0
0
0
0
0
0
0
0
0
0
0
0
0
0
0
0
0
0
0
0
0
0
0
0
0
0
0
0
0
0
0
0
0
0
0
0
0
0
0
0
0
0
0
0
0
0
0
0
0
0
0
0
0
0
0
0
0
0
0
0
0
0
0
0
0
0
0
0
0
0
0
0
0
0
0
0
0
0
0
0
0
0
0
0
0
0
0
0
0
0
0
0
0
0
0
0
0
0
0
0
0
0
0
0
0
0
0
0
0
0
0
0
0
0
0
0
0
0
0
0
0
0
0
0
0
0
0
0
0
0
0
0
0
0
0
0
0
0
0
0
0
0
0
0
0
0
0
0
0
0
0
0
0
0
0
0
0
0
0
0
0
0
0
0
0
0
0
0
0
0
0
0
0
0
0
0
0
0
0
0
0
0
0
0
0
0
0
0
0
0
0
0
0
0
0
0
0
0
0
0
0
0
0
0
0
0
0
0
0
0
0
0
0
0
0
0
0
0
0
0
0
0
0
0
0
0
0
0
0
0
0
0
0
0
0
0
0
0
0
0
0
0
0
0
0
0
0
0
0
0
0
0
0
0
0
0
0
0
0
0
0
0
0
0
0
0
0
0
0
0
0
0
0
0
0
0
0
0
0
0
0
0
0
0
0
0
0
0
0
0
0
0
0
0
0
0
0
0
0
0
0
0
0
0
0
0
0
0
0
0
0
0
0
0
0
0
0
0
0
0
0
0
0
0
0
0
0
0
0
0
0
0
0
0
0
0
0
0
0
0
0
0
0
0
0
0
0
0
0
0
0
0
0
0
0
0
0
0
0
0
0
0
0
0
0
0
0
0
0
0
0
0
0
0
0
0
0
0
0
0
0
0
0
0
0
0
0
0
0
0
0
0
0
0
0
0
0
0
0
0
0
0
0
0
0
0
0
0
0
0
0
0
0
0
0
0
0
0
0
0
0
0
0
0
0
0
0
0
0
0
0
0
0
0
0
0
0
0
0
0
0
0
0
0
0
0
0
0
0
0
0
0
0
0
0
0
0
0
0
0
0
0
0
0
0
0
0
0
0
0
0
0
0
0
0
0
0
0
0
0
0
0
0
0
0
0
0
0
0
0
0
0
0
0
0
0
0
0
0
0
0
0
0
0
0
0
0
0
0
0
0
0
0
0
0
0
0
0
0
0
0
0
0
0
0
0
0
0
0
0
0
0
0
0
0
0
0
0
0
0
0
0
0
0
0
0
0
0
0
0
0
0
0
0
0
0
0
0
0
0
0
0
0
0
0
0
0
0
0
0
0
0
0
0
0
0
0
0
0
0
0
0
0
0
0
0
0
0
0
0
0
0
0
0
0
0
0
0
0
0
0
0
0
0
0
0
0
0
0
0
0
0
0
0
0
0
0
0
0
0
0
0
0
0
0
0
0
0
0
0
0
0
0
0
0
0
0
0
0
0
0
0
0
0
0
0
0
0
0
0
0
0
0
0
0
0
0
0
0
0
0
0
0
0
0
0
0
0
0
0
0
0
0
0
0
0
0
0
0
0
0
0
0
0
0
0
0
0
0
0
0
0
0
0
0
0
0
0
0
0
0
0
0
0
0
0
0
0
0
0
0
0
0
0
0
0
0
0
0
0
0
0
0
0
0
0
0
0
0
0
0
0
0
0
0
0
0
0
0
0
0
0
0
0
0
0
0
0
0
0
0
0
0
0
0
0
0
0
0
0
0
0
0
0
0
0
0
0
0
0
0
0
0
0
0
0
0
0
0
0
0
0
0
0
0
0
0
0
0
0
0
0
0
0
0
0
0
0
0
0
0
0
0
0
0
0
0
0
0
0
0
0
0
0
0
0
0
0
0
0
0
0
0
0
0
0
0
0
0
0
0
0
0
0
0
0
0
0
0
0
0
0
0
0
0
0
0
0
0
0
0
0
0
0
0
0
0
0
0
0
0
0
0
0
0
0
0
0
0
0
0
