0.431739
0.467749
0.502813
0.536525
0.569031
0.601071
0.633823
0.668577
0.706372
0.747729
0.792496
0.840234
0.890568
0.943461
0.99943
1.05953
1.12509
1.19723
1.27649
1.36248
1.45283
1.54255
1.62464
1.69192
1.73847
1.76091
1.75904
1.73572
1.69602
1.64579
1.59015
1.53242
1.47351
1.41258
1.34771
1.27637
1.19596
1.10414
0.999074
0.879533
0.742885
0.585678
0.410156
0.220248
0
0.0784516
0.883646
2.66403
5.36895
8.57454
11.5703
13.573
13.9874
12.6164
9.74973
6.08947
2.52331
-0.181553
-1.63428
-1.90467
-1.316
-0.649111
-0.0374782
0.380391
0.538272
0.60717
0.653858
0.690731
0.721187
0.747305
0.770681
0.792419
0.813179
0.833319
0.853043
0.872562
0.892234
0.912698
0.934958
0.960426
0.990874
1.02831
1.07475
1.13206
1.20164
1.28435
1.38073
1.49099
1.61527
1.75385
1.9073
2.07641
2.26204
2.46459
2.68354
2.91689
3.16078
3.40987
3.65606
3.8893
4.09962
4.27831
4.41868
4.51631
4.56871
4.57487
4.5347
4.44885
4.31932
4.1484
3.93945
3.69693
3.42635
3.13497
2.83104
2.52159
2.21381
1.91507
1.63258
1.37261
1.13988
0.936988
0.763965
0.618212
0.495134
0.388996
0.29391
0.204747
0.117807
0.0311418
-0.055438
-0.140632
-0.222093
-0.296911
-0.362002
-0.414757
-0.453484
-0.477513
-0.486781
-0.483503
-0.471964
-0.456918
-0.442567
-0.431689
-0.42516
-0.421987
-0.419752
-0.415242
-0.405212
-0.387055
-0.358317
-0.316525
-0.259498
-0.185521
-0.0936076
0.0161937
0.14251
0.282525
0.432366
0.587368
0.741957
0.889072
1.02076
1.13043
1.213
1.26549
1.28753
1.28144
1.25196
1.20554
1.14933
1.09032
1.03393
0.983402
0.940371
0.905121
0.876534
0.852059
0.827665
0.797825
0.75661
0.698745
0.620762
0.521974
0.404999
0.254833
0
0.427093
1.89451
4.44371
7.69505
10.9119
13.2275
13.9444
12.7899
10.0256
6.36495
2.7264
-0.0819353
-1.62049
-1.91637
-1.28191
-0.596899
-0.00711347
0.354015
0.482608
0.556256
0.6161
0.668289
0.713983
0.753978
0.789104
0.82044
0.849473
0.878298
0.909652
0.946814
0.99336
1.05272
1.12753
1.21897
1.32681
1.45016
1.58148
1.70853
1.81945
1.90639
1.96843
2.01282
2.0542
2.11173
2.20518
2.3469
2.53742
2.77294
3.04802
3.3546
3.68179
4.01703
4.34664
4.65608
4.93047
5.15703
5.32918
5.44434
5.50246
5.50538
5.45644
5.3602
5.22223
5.04866
4.84582
4.62116
4.38167
4.13278
3.87854
3.62238
3.36763
3.11751
2.87511
2.64329
2.42463
2.22126
2.03487
1.8666
1.71694
1.58578
1.47239
1.37547
1.29326
1.22364
1.16426
1.1127
1.06649
1.02336
0.981663
0.940677
0.90087
0.864109
0.833316
0.811822
0.802494
0.80689
0.824728
0.853848
0.890701
0.931208
0.971744
1.01003
1.04538
1.07828
1.11008
1.14237
1.1764
1.21264
1.2508
1.28995
1.32901
1.36727
1.40492
1.4433
1.48493
1.53315
1.59155
1.66355
1.75367
1.86653
2.00129
2.14437
2.27337
2.36518
2.4016
2.37381
2.28472
2.14852
1.98746
1.82594
1.68277
1.56216
1.4585
1.36479
1.27533
1.18373
1.0838
0.969381
0.832023
0.663329
0.467933
0.254325
0
0.151007
1.14611
3.25582
6.37562
9.95344
13.1147
14.9503
14.8537
12.7694
9.23683
5.19385
1.61574
-0.840059
-2.01119
-2.15958
-1.69657
-1.16438
-0.649415
-0.228326
0.0286129
0.173527
0.273728
0.350842
0.412035
0.459846
0.495944
0.522575
0.542646
0.559754
0.57805
0.601866
0.635153
0.680857
0.740438
0.813364
0.898149
0.992562
1.09434
1.20174
1.31414
1.43201
1.55675
1.69028
1.83472
1.9921
2.16427
2.35281
2.55906
2.78397
3.02792
3.29035
3.56954
3.86295
4.16722
4.47606
4.77631
5.04705
5.26959
5.42809
5.51175
5.51677
5.44702
5.31253
5.12594
4.89856
4.63945
4.35927
4.06668
3.768
3.4686
3.17398
2.88983
2.62135
2.37246
2.1453
1.94007
1.75541
1.58895
1.43804
1.3003
1.17397
1.05796
0.95173
0.855158
0.7683
0.691279
0.6242
0.56701
0.519509
0.481383
0.45193
0.430307
0.415657
0.407228
0.404425
0.406775
0.41383
0.425032
0.439687
0.457028
0.476374
0.497291
0.519725
0.544034
0.570926
0.601309
0.636053
0.675922
0.721399
0.772642
0.829697
0.892415
0.960842
1.03544
1.11709
1.20691
1.30571
1.41365
1.5302
1.65143
1.76965
1.87539
1.9594
2.0145
2.03684
2.02644
1.9869
1.92452
1.8473
1.7638
1.68146
1.60526
1.53749
1.478
1.42498
1.37389
1.31737
1.2467
1.15316
1.02678
0.844728
0.611181
0.339755
-0.0678586
0
1.02345
3.27379
6.61876
10.4569
13.8471
15.8219
15.7504
13.5906
9.91617
5.70282
1.97097
-0.561698
-1.67426
-1.61716
-1.04967
-0.553143
-0.183963
0.0328848
0.129895
0.193434
0.241508
0.287111
0.338049
0.395777
0.456971
0.515201
0.563853
0.598708
0.619491
0.629995
0.636879
0.647721
0.669069
0.703628
0.751441
0.811913
0.88415
0.967055
1.05976
1.16197
1.27417
1.39768
1.53454
1.68729
1.85849
2.05004
2.26243
2.494
2.74051
2.99531
3.24981
3.49435
3.72013
3.92046
4.09161
4.2327
4.34416
4.42524
4.47445
4.48927
4.46525
4.39584
4.27445
4.09689
3.86332
3.57912
3.25453
2.90307
2.54024
2.17891
1.82792
1.49443
1.18372
0.899388
0.64353
0.417029
0.21968
0.0505457
-0.0919347
-0.21082
-0.310265
-0.394616
-0.467831
-0.532987
-0.59201
-0.64569
-0.693942
-0.736178
-0.771816
-0.800388
-0.821451
-0.834802
-0.840553
-0.839267
-0.831719
-0.819567
-0.80589
-0.794216
-0.787495
-0.787138
-0.792387
-0.800296
-0.806385
-0.805771
-0.794368
-0.770623
-0.734998
-0.688485
-0.632204
-0.567238
-0.494277
-0.413471
-0.324592
-0.227428
-0.122304
-0.0102924
0.106183
0.222442
0.331775
0.426888
0.501018
0.548948
0.567756
0.557223
0.519908
0.460912
0.38736
0.307553
0.229776
0.16061
0.10375
0.0600634
0.0276371
0
-0.0314684
-0.0799473
-0.156222
-0.268162
-0.421326
-0.616306
-0.845201
-1.2275
-1.31079
-0.457185
1.66122
4.99487
9.02008
12.8269
15.3803
15.8822
14.0942
10.4694
6.00569
1.8621
-1.08329
-2.51788
-2.69117
-2.13333
-1.60165
-1.1546
-0.855054
-0.727214
-0.656443
-0.604432
-0.561345
-0.521883
-0.481837
-0.438494
-0.390864
-0.33941
-0.285583
-0.231476
-0.179328
-0.131113
-0.0882149
-0.0509972
-0.0183481
0.0123657
0.0453321
0.0861105
0.141176
0.217206
0.320224
0.454788
0.62294
0.823569
1.05467
1.31323
1.59504
1.8954
2.20921
2.5312
2.85614
3.17914
3.49592
3.80318
4.09849
4.37968
4.64342
4.88386
5.09265
5.26013
5.36919
5.40088
5.34249
5.19389
4.96858
4.68879
4.37762
4.05331
3.72721
3.4038
3.08593
2.77707
2.4809
2.20102
1.94044
1.7011
1.48368
1.28768
1.11184
0.954734
0.815445
0.693633
0.589445
0.503413
0.436068
0.387535
0.357257
0.343904
0.345453
0.359387
0.382926
0.413225
0.447582
0.483579
0.519162
0.552706
0.583092
0.609753
0.632692
0.652405
0.669723
0.685562
0.70063
0.71515
0.728674
0.740093
0.74801
0.751303
0.749806
0.744854
0.739491
0.738252
0.7465
0.769507
0.81083
0.872224
0.953966
1.0546
1.17105
1.29868
1.43112
1.55866
1.66879
1.75036
1.79456
1.79675
1.75778
1.6842
1.58675
1.47768
1.36793
1.26449
1.16927
1.08263
1.00503
0.936423
0.875829
0.821293
0.769455
0.715552
0.654255
0.580536
0.488363
0.375944
0.244337
0
0.0284842
0.940839
3.01904
6.15483
9.79412
13.0837
15.1552
15.4278
13.8066
10.7062
6.89934
3.25332
0.453271
-1.18213
-1.73032
-1.43472
-1.03859
-0.624027
-0.284498
-0.0340359
0.164038
0.327447
0.465605
0.582128
0.679246
0.760075
0.827736
0.886085
0.93931
0.991158
1.04442
1.10065
1.16068
1.22504
1.29428
1.36913
1.45053
1.53936
1.63624
1.74144
1.85493
1.97681
2.10768
2.24887
2.4025
2.5712
2.75751
2.96333
3.18924
3.43424
3.69585
3.97047
4.2537
4.54102
4.82749
5.1058
5.36391
5.58764
5.76339
5.87746
5.91929
5.8845
5.77593
5.60215
5.3744
5.10357
4.80315
4.48545
4.15836
3.82703
3.49575
3.16895
2.85126
2.54739
2.26184
1.99856
1.7606
1.54983
1.36666
1.21002
1.07745
0.965465
0.870015
0.787046
0.713067
0.64562
0.583681
0.527953
0.48056
0.44424
0.421743
0.41486
0.423656
0.446139
0.478451
0.515545
0.552133
0.58379
0.607794
0.622779
0.62904
0.628416
0.624023
0.619881
0.620412
0.629885
0.651798
0.688316
0.739906
0.805284
0.881711
0.965559
1.05297
1.14041
1.22508
1.30463
1.37699
1.44018
1.49195
1.52956
1.55006
1.55088
1.5303
1.48807
1.42584
1.34725
1.25762
1.16312
1.06972
0.981971
0.902057
0.83021
0.764664
0.702253
0.639217
0.572013
0.497931
0.415198
0.322518
0.220539
0.111887
0
-0.0908804
0.266975
1.38642
3.40632
6.14497
9.09309
11.5404
12.7938
12.4173
10.4133
7.2644
3.78876
0.838218
-1.02814
-1.7275
-1.56707
-1.20944
-0.888727
-0.632114
-0.426196
-0.244929
-0.0797619
0.0703404
0.203985
0.320128
0.420343
0.508092
0.586272
0.657155
0.722793
0.784763
0.84409
0.901383
0.957162
1.01215
1.06749
1.1248
1.18609
1.25357
1.32946
1.41577
1.51426
1.62646
1.75375
1.89746
2.05891
2.23928
2.43933
2.65901
2.89705
3.1507
3.41584
3.68714
3.95775
4.21949
4.46221
4.67329
4.84132
4.95911
5.02088
5.02278
4.96397
4.84739
4.67968
4.46986
4.2273
3.9617
3.68135
3.39102
3.093
2.7891
2.4819
2.17514
1.87387
1.58429
1.31319
1.06721
0.851908
0.671137
0.527995
0.424765
0.357868
0.315792
0.285548
0.255319
0.216788
0.166498
0.105938
0.0404549
-0.0225313
-0.0757927
-0.115305
-0.137575
-0.140502
-0.123631
-0.0880153
-0.0360231
0.0289032
0.102533
0.180196
0.257186
0.329312
0.393046
0.445979
0.487005
0.516414
0.53582
0.547943
0.556255
0.564559
0.576596
0.595613
0.624125
0.664122
0.717254
0.784715
0.867121
0.96499
1.07904
1.20875
1.34801
1.4829
1.59666
1.6738
1.70389
1.68419
1.62052
1.52581
1.41698
1.31069
1.21766
1.13969
1.07406
1.01682
0.963304
0.907687
0.843718
0.765114
0.662428
0.523336
0.350349
0.151434
-0.11938
0
0.975836
3.05388
6.10436
9.55224
12.5237
14.1619
13.9616
11.9647
8.73044
5.10913
1.92966
-0.263293
-1.32676
-1.46848
-1.04276
-0.60949
-0.216319
0.0958898
0.310821
0.464789
0.586435
0.686528
0.769558
0.838646
0.896653
0.946127
0.989935
1.03102
1.07221
1.1161
1.16484
1.22002
1.2825
1.35236
1.42896
1.51127
1.59838
1.68991
1.78631
1.88908
2.00068
2.1242
2.26289
2.41956
2.59611
2.79311
3.00974
3.24386
3.49231
3.75137
4.01707
4.28551
4.55262
4.81271
5.05748
5.27657
5.45925
5.59525
5.67569
5.69441
5.64901
5.5411
5.37595
5.16154
4.90707
4.62306
4.31978
4.00544
3.6857
3.36462
3.04627
2.73516
2.43611
2.15401
1.89332
1.65771
1.44956
1.26981
1.11785
0.991655
0.888093
0.803376
0.733508
0.674715
0.62392
0.579034
0.539038
0.503843
0.473927
0.449907
0.432277
0.420796
0.414515
0.412058
0.412003
0.413255
0.41526
0.417996
0.421749
0.426814
0.433215
0.440704
0.448836
0.457279
0.466153
0.476269
0.489125
0.506638
0.530651
0.562383
0.602609
0.650835
0.704883
0.762469
0.822201
0.884207
0.95005
1.0219
1.10127
1.18799
1.27911
1.36903
1.45055
1.51633
1.56019
1.57798
1.56804
1.53118
1.47048
1.39213
1.30235
1.20796
1.11573
1.03147
0.958347
0.89683
0.845981
0.802905
0.762187
0.716633
0.658883
0.582747
0.480827
0.352623
0.20157
-0.0635607
0
0.946765
3.02738
6.11593
9.6297
12.6693
14.3368
14.0943
11.9856
8.61463
4.89528
1.69712
-0.443069
-1.42763
-1.50787
-1.07112
-0.659707
-0.307279
-0.0461515
0.107691
0.209779
0.28792
0.351221
0.403239
0.446236
0.482223
0.513027
0.540532
0.5669
0.594682
0.626747
0.666044
0.715253
0.77634
0.850245
0.936957
1.03561
1.14466
1.26222
1.38648
1.51617
1.65087
1.79121
1.93887
2.09633
2.26654
2.45235
2.65603
2.87871
3.12007
3.37802
3.64877
3.92694
4.20599
4.47781
4.73329
4.96293
5.15709
5.30665
5.40527
5.448
5.43093
5.35145
5.2089
5.00534
4.74628
4.44091
4.10171
3.74475
3.38476
3.03274
2.69779
2.38671
2.10348
1.8492
1.62241
1.41974
1.23689
1.06961
0.914541
0.769848
0.635333
0.512231
0.402585
0.308581
0.231899
0.17328
0.13237
0.107824
0.0975758
0.0991549
0.109918
0.127225
0.148509
0.171132
0.192353
0.209661
0.221093
0.225563
0.223062
0.214654
0.202215
0.187973
0.174014
0.161869
0.152343
0.145855
0.142632
0.143003
0.147587
0.157291
0.173098
0.195705
0.225334
0.261765
0.303472
0.348293
0.394475
0.441475
0.490404
0.543836
0.605003
0.676553
0.759305
0.851464
0.948738
1.04353
1.12717
1.19174
1.23149
1.2437
1.22866
1.18912
1.12923
1.05368
0.967577
0.875206
0.779813
0.683986
0.589931
0.499545
0.414347
0.335319
0.262676
0.195879
0.133742
0.0746754
0.0171265
-0.040354
-0.0986767
-0.158052
-0.329221
0
1.33745
3.9251
7.51335
11.3327
14.3364
15.6012
14.7015
11.8808
7.95014
3.96072
0.806505
-1.0645
-1.71137
-1.51894
-1.04424
-0.600445
-0.240073
0.00660477
0.161977
0.279433
0.377896
0.463571
0.539236
0.606624
0.66692
0.721134
0.77037
0.815922
0.85941
0.90284
0.948511
0.998782
1.05577
1.12108
1.1956
1.27961
1.37319
1.47657
1.59034
1.71565
1.85417
2.00792
2.17895
2.36901
2.57927
2.81004
3.06065
3.3292
3.61236
3.90525
4.20154
4.4921
4.76515
5.00916
5.2141
5.37267
5.48089
5.5378
5.54445
5.50278
5.41463
5.28403
5.11518
4.91124
4.67526
4.41123
4.1245
3.82141
3.50823
3.19079
2.8744
2.56368
2.26254
1.97432
1.70192
1.44774
1.21357
1.00037
0.808114
0.635685
0.481176
0.342389
0.217435
0.106062
0.00906944
-0.0722786
-0.136196
-0.181266
-0.207253
-0.215541
-0.209105
-0.192067
-0.16905
-0.144609
-0.122464
-0.105679
-0.096603
-0.0968685
-0.107342
-0.128048
-0.158084
-0.195641
-0.237907
-0.281252
-0.321147
-0.351877
-0.367318
-0.36256
-0.334351
-0.281998
-0.207945
-0.117699
-0.0189003
0.0803268
0.1733
0.256736
0.330394
0.39682
0.459956
0.523368
0.588757
0.655173
0.719729
0.778329
0.826751
0.861525
0.880332
0.881909
0.865681
0.831494
0.780359
0.713936
0.635008
0.548322
0.460524
0.379413
0.314593
0.27985
0.281734
0.308828
0.340296
0.351971
0.322898
0.239915
0.0992596
-0.0944054
-0.330352
-0.593094
-0.903176
-0.853411
0
1.97111
5.04674
8.77861
12.3364
14.7551
15.2893
13.7226
10.4789
6.46307
2.69729
-0.0693066
-1.58134
-2.0353
-1.76851
-1.35315
-0.951881
-0.606164
-0.356977
-0.198553
-0.0911468
-0.0187687
0.0278278
0.0601948
0.090097
0.127286
0.176707
0.238446
0.310621
0.389874
0.47193
0.552692
0.629141
0.699876
0.765255
0.827228
0.889011
0.954771
1.02906
1.11698
1.22376
1.35438
1.51294
1.70208
1.92228
2.17113
2.44407
2.73454
3.03457
3.33568
3.62995
3.9109
4.17418
4.4176
4.64055
4.84235
5.02097
5.17291
5.29442
5.37903
5.41793
5.40274
5.32807
5.19291
5.00042
4.75666
4.46912
4.15035
3.81264
3.46481
3.11385
2.76713
2.43248
2.11758
1.82922
1.57254
1.35052
1.1637
1.01038
0.887077
0.789219
0.711856
0.650278
0.600447
0.5592
0.524262
0.4941
0.467695
0.444314
0.423346
0.40423
0.386502
0.370055
0.355394
0.343799
0.337281
0.338243
0.348872
0.371235
0.406549
0.452233
0.501624
0.546622
0.579784
0.596297
0.595223
0.579659
0.555867
0.531728
0.514793
0.509834
0.518884
0.542278
0.579092
0.627356
0.684206
0.745835
0.807698
0.865654
0.917008
0.961213
1.00024
1.03849
1.08213
1.13801
1.21235
1.30899
1.43481
1.59713
1.7899
1.98356
2.1435
2.24035
2.25793
2.19773
2.07813
1.92794
1.77654
1.64465
1.53344
1.43561
1.346
1.26169
1.18055
1.10093
1.02152
0.941141
0.858477
0.771812
0.678684
0.574311
0.450407
0.305436
0.141178
-0.115865
0
1.03085
3.25617
6.55889
10.3535
13.7186
15.6985
15.6627
13.5661
9.98354
5.88964
2.28345
-0.166575
-1.29756
-1.39243
-1.02143
-0.684643
-0.408358
-0.205008
-0.0732029
0.0248894
0.10526
0.173092
0.230901
0.280597
0.323941
0.362555
0.397753
0.430521
0.461629
0.491776
0.521763
0.552794
0.586642
0.625597
0.672136
0.728418
0.795836
0.874804
0.964563
1.06448
1.17479
1.29687
1.43356
1.58879
1.76695
1.97175
2.2052
2.46657
2.75252
3.05744
3.37408
3.69449
4.01088
4.31522
4.59823
4.84999
5.06244
5.23049
5.34934
5.41391
5.41973
5.36395
5.24628
5.06945
4.83917
4.56369
4.25456
3.92435
3.58396
3.24118
2.90157
2.57004
2.25084
1.94755
1.663
1.39934
1.1581
0.940344
0.746716
0.577538
0.432788
0.312032
0.21433
0.138146
0.0813309
0.0411339
0.0141903
-0.00337944
-0.0156712
-0.0266685
-0.0399265
-0.0582653
-0.0834797
-0.116128
-0.155421
-0.199366
-0.244728
-0.287294
-0.322678
-0.347007
-0.357543
-0.353085
-0.334122
-0.302701
-0.262095
-0.216339
-0.169764
-0.126503
-0.090197
-0.0631855
-0.046188
-0.0380783
-0.0359566
-0.0356121
-0.0323509
-0.0220192
-0.00192947
0.0283142
0.067429
0.113372
0.164083
0.218512
0.27732
0.343002
0.419334
0.510285
0.62043
0.758191
0.921841
1.08856
1.22951
1.31911
1.34323
1.30291
1.21269
1.09464
0.97128
0.859522
0.763802
0.682865
0.615398
0.560083
0.514845
0.476021
0.437768
0.392587
0.332307
0.24913
0.135615
-0.0254272
-0.23362
-0.479433
-0.770678
-0.807189
0
2.02448
5.32365
9.45066
13.4973
16.3653
17.1768
15.6357
12.164
7.74063
3.51367
0.372056
-1.32334
-1.74859
-1.39423
-0.980603
-0.636192
-0.399087
-0.257949
-0.148936
-0.0494003
0.0450939
0.134799
0.218482
0.294451
0.361444
0.419627
0.470362
0.516493
0.56195
0.611067
0.667804
0.734878
0.81358
0.903926
1.00491
1.11505
1.23302
1.35835
1.4918
1.63548
1.79257
1.96678
2.16162
2.37976
2.62245
2.88924
3.17797
3.48488
3.80494
4.13216
4.45991
4.78127
5.08931
5.37683
5.63609
5.86039
6.04507
6.18656
6.28221
6.33012
6.32888
6.27774
6.17683
6.02782
5.83473
5.6036
5.34263
5.06136
4.76946
4.47554
4.18563
3.90365
3.63193
3.37172
3.12402
2.89005
2.67147
2.47017
2.28794
2.12595
1.98417
1.86169
1.75706
1.6689
1.59633
1.53919
1.49778
1.47241
1.46315
1.46959
1.48917
1.51591
1.54206
1.5606
1.56694
1.55997
1.54204
1.51792
1.49304
1.4716
1.45506
1.44202
1.42998
1.41562
1.39585
1.36881
1.33458
1.29553
1.25606
1.2219
1.19898
1.19254
1.20603
1.24027
1.29402
1.36411
1.44634
1.53657
1.63149
1.72943
1.83031
1.93534
2.04681
2.16694
2.2934
2.41274
2.50323
2.54124
2.50858
2.39927
2.22361
2.00777
1.7882
1.60218
1.46867
1.37983
1.32936
1.31664
1.33355
1.36216
1.37849
1.35882
1.28293
1.13705
0.91636
0.622099
0.271627
-0.108632
-0.441671
0
1.56328
4.35751
8.05428
11.8932
14.8898
16.185
15.3763
12.6736
8.8088
4.74849
1.35266
-0.872581
-1.84746
-1.81076
-1.20795
-0.47037
0.181382
0.62408
0.806362
0.878483
0.928149
0.971048
1.01202
1.05434
1.10086
1.15365
1.21362
1.28036
1.3522
1.42662
1.50055
1.57122
1.63674
1.69659
1.75178
1.80464
1.85853
1.91738
1.98529
2.06615
2.16372
2.28188
2.42451
2.59528
2.79719
3.03195
3.29921
3.59593
3.91612
4.25092
4.58933
4.91928
5.22871
5.50727
5.74709
5.94322
6.09337
6.19671
6.25337
6.26429
6.23009
6.15089
6.02661
5.85759
5.64534
5.39302
5.10583
4.79087
4.45728
4.11472
3.77279
3.44078
3.12704
2.83837
2.57954
2.35338
2.16041
1.9976
1.85942
1.73927
1.63068
1.52862
1.43038
1.33609
1.24877
1.17314
1.11433
1.07626
1.06039
1.0651
1.08581
1.11586
1.14781
1.1749
1.19273
1.19864
1.19212
1.17462
1.14905
1.11929
1.08964
1.06427
1.04694
1.04073
1.04779
1.0691
1.10451
1.15281
1.21203
1.27976
1.35344
1.43061
1.50915
1.58719
1.66293
1.7346
1.80035
1.85816
1.9057
1.94058
1.96103
1.96577
1.95438
1.92749
1.88694
1.83568
1.77747
1.71624
1.65549
1.59755
1.54336
1.49267
1.44408
1.39533
1.34368
1.28627
1.22028
1.14301
1.05197
0.944934
0.817542
0.660623
0.475354
0.265952
-0.0345848
0
0.922387
2.96695
5.97664
9.37811
12.3269
13.9825
13.8083
11.7842
8.43165
4.62955
1.28716
-0.979296
-2.01418
-2.06654
-1.59229
-1.14935
-0.774731
-0.504644
-0.361686
-0.278021
-0.222419
-0.186927
-0.163393
-0.143572
-0.120195
-0.0878832
-0.044346
0.0103365
0.0749056
0.147151
0.224105
0.302499
0.379164
0.451498
0.517865
0.577887
0.632604
0.684479
0.737233
0.795566
0.864792
0.950388
1.05751
1.19073
1.3536
1.54808
1.77404
2.02892
2.30763
2.60279
2.90535
3.20537
3.49268
3.75727
3.98984
4.18272
4.33108
4.43265
4.48632
4.49167
4.44885
4.35873
4.22335
4.0464
3.83346
3.5924
3.33255
3.06303
2.79154
2.52384
2.26397
2.01422
1.77548
1.5478
1.33106
1.12549
0.932023
0.752186
0.587899
0.441121
0.313818
0.207984
0.124827
0.064035
0.0244579
0.00405655
-0.000128555
0.00811748
0.0244658
0.0445011
0.0642576
0.0807415
0.0923082
0.0982521
0.0988133
0.0949749
0.0882984
0.0807446
0.074563
0.0721987
0.0760832
0.0883287
0.110375
0.142686
0.184587
0.234392
0.289714
0.347968
0.406925
0.465221
0.522622
0.580043
0.639305
0.702658
0.772196
0.849279
0.934092
1.0255
1.12095
1.21656
1.30728
1.38715
1.45024
1.49184
1.50866
1.49924
1.46418
1.40622
1.32995
1.24138
1.14715
1.05369
0.965861
0.88647
0.816695
0.755945
0.701613
0.64858
0.589398
0.515774
0.420006
0.290041
0.11765
-0.0898317
-0.317006
-0.518118
0
1.48903
3.94384
7.03067
10.1312
12.5005
13.4932
12.787
10.5134
7.22896
3.72766
0.766401
-1.1736
-1.98984
-1.85315
-1.32863
-0.843474
-0.460572
-0.220628
-0.101741
-0.0219282
0.0427752
0.0987995
0.150362
0.199856
0.248126
0.29511
0.340627
0.385042
0.429578
0.476218
0.527268
0.584794
0.650185
0.723837
0.805649
0.895664
0.994351
1.10291
1.2233
1.35786
1.5088
1.67758
1.86435
2.0679
2.28591
2.51534
2.75297
2.99596
3.24213
3.49006
3.73883
3.98761
4.23513
4.47881
4.71338
4.93023
5.11955
5.27173
5.37838
5.43345
5.4338
5.37905
5.2712
5.11406
4.9128
4.67569
4.41142
4.12733
3.82956
3.52346
3.21367
2.90486
2.60229
2.3118
2.0395
1.79119
1.57171
1.38427
1.22985
1.10713
1.01274
0.941916
0.889013
0.848253
0.814648
0.784501
0.755592
0.727053
0.698985
0.671953
0.64654
0.622943
0.600893
0.5798
0.55903
0.538188
0.517269
0.496646
0.476904
0.458646
0.442308
0.428219
0.416675
0.40805
0.402861
0.401721
0.405197
0.413634
0.427063
0.445208
0.467704
0.49439
0.525594
0.56228
0.605966
0.658423
0.721197
0.795052
0.879442
0.973125
1.07305
1.17219
1.26082
1.32941
1.37074
1.38154
1.36319
1.32101
1.26256
1.19542
1.12548
1.05593
0.987702
0.920923
0.855407
0.790745
0.726183
0.66041
0.591356
0.51622
0.431831
0.333126
0.214478
0.077161
-0.0739155
-0.334329
0
1.33726
3.84221
7.29563
11.0849
14.3315
16.148
15.9486
13.6985
9.97238
5.75814
2.0774
-0.392499
-1.50216
-1.54957
-1.00284
-0.464566
-0.0119982
0.287336
0.408859
0.472159
0.515566
0.54853
0.574771
0.597114
0.618518
0.642256
0.671864
0.710986
0.763074
0.83096
0.916356
1.01942
1.13857
1.27049
1.41073
1.55446
1.6973
1.83603
1.96917
2.09724
2.22266
2.34942
2.48258
2.62761
2.78982
2.97373
3.18264
3.41824
3.68051
3.96761
4.27608
4.60099
4.93696
5.27722
5.60991
5.918
6.1827
6.38938
6.52784
6.59221
6.58079
6.49561
6.34179
6.12683
5.85971
5.54995
5.21005
4.85281
4.48817
4.12318
3.76391
3.41685
3.08858
2.78525
2.512
2.27261
2.07034
1.9057
1.77407
1.66883
1.58255
1.50828
1.44049
1.37553
1.31152
1.24779
1.18438
1.12149
1.05945
0.998799
0.940514
0.886196
0.83782
0.797399
0.766442
0.746323
0.736333
0.734058
0.736304
0.739929
0.742535
0.742746
0.740076
0.734554
0.7265
0.716543
0.705966
0.697146
0.693753
0.700471
0.722213
0.763063
0.824931
0.906101
1.00411
1.11596
1.23786
1.36556
1.4949
1.62166
1.74113
1.84837
1.93912
2.00987
2.05834
2.08388
2.08749
2.07152
2.03903
1.99298
1.93586
1.86975
1.79609
1.71603
1.63081
1.54219
1.45224
1.36299
1.27567
1.19015
1.10452
1.01507
0.916748
0.80348
0.663061
0.480455
0.26096
0.0188807
-0.303681
0
1.40585
4.16051
8.05778
12.3711
16.0223
17.953
17.5392
14.8565
10.6587
6.07588
2.17941
-0.378717
-1.49793
-1.5129
-0.979275
-0.493749
-0.103574
0.154313
0.266386
0.321315
0.348742
0.357015
0.354713
0.349882
0.349312
0.357784
0.378371
0.412872
0.46195
0.525198
0.601297
0.688249
0.783665
0.885078
0.990287
1.09768
1.20652
1.31709
1.43079
1.55002
1.67798
1.81831
1.97478
2.15086
2.34948
2.57267
2.82146
3.09565
3.39368
3.71242
4.04709
4.39113
4.73647
5.07052
5.3779
5.64462
5.8594
6.01512
6.10929
6.14331
6.12106
6.0472
5.92593
5.76308
5.56503
5.33736
5.08527
4.81413
4.52968
4.23783
3.94425
3.65405
3.37158
3.10036
2.84323
2.6025
2.38007
2.17745
1.99564
1.83503
1.69536
1.57584
1.47532
1.39251
1.3261
1.2747
1.23676
1.21051
1.19282
1.17811
1.15962
1.13116
1.08878
1.03217
0.965079
0.894624
0.82959
0.778159
0.744726
0.731105
0.735624
0.753953
0.780489
0.809813
0.837894
0.862584
0.882941
0.898975
0.911276
0.920723
0.928436
0.935844
0.944846
0.957911
0.978006
1.00832
1.05183
1.11079
1.1861
1.27744
1.38362
1.50295
1.63091
1.75636
1.8647
1.94158
1.97591
1.96264
1.90426
1.81041
1.69571
1.57642
1.46639
1.37155
1.29276
1.22945
1.18048
1.14272
1.11119
1.07971
1.04169
0.990882
0.922029
0.829579
0.704058
0.533125
0.318163
0.0751043
-0.177638
-0.377281
0
1.24716
3.60462
6.95806
10.7243
13.9736
15.7633
15.5254
13.2983
9.69077
5.62013
1.97616
-0.635327
-1.99489
-2.23161
-1.67796
-0.833608
-0.0074193
0.586353
0.843424
0.899779
0.928615
0.951412
0.97243
0.994107
1.0185
1.04722
1.08158
1.1224
1.17051
1.22706
1.29365
1.37212
1.46404
1.57003
1.68928
1.81937
1.95647
2.09685
2.23758
2.37744
2.51749
2.66101
2.81294
2.97893
3.16427
3.37246
3.60519
3.86222
4.14114
4.43753
4.74536
5.05749
5.36627
5.66369
5.94123
6.18893
6.39589
6.55517
6.66331
6.71823
6.7191
6.66652
6.56244
6.41018
6.21423
5.98036
5.71873
5.44051
5.15485
4.86977
4.5931
4.33202
4.09236
3.878
3.69056
3.5295
3.39254
3.27628
3.177
3.09125
3.01629
2.95033
2.8924
2.84208
2.79919
2.76354
2.73479
2.71222
2.69514
2.68315
2.6764
2.67552
2.68134
2.69444
2.71488
2.74126
2.77061
2.7988
2.82126
2.83376
2.83327
2.81855
2.79062
2.75269
2.70993
2.66879
2.63609
2.61803
2.61876
2.64043
2.68243
2.74145
2.81196
2.88718
2.95939
3.02153
3.06803
3.09538
3.10215
3.08866
3.05632
3.0069
2.94186
2.86263
2.77
2.6642
2.54532
2.41395
2.2716
2.12075
1.96472
1.80714
1.65134
1.49964
1.35278
1.20969
1.06767
0.922898
0.770441
0.603239
0.411825
0.194828
-0.0398176
-0.280188
-0.427589
0
1.24354
3.40053
6.27924
9.36569
11.9339
13.2635
12.8997
10.8509
7.62504
4.05816
0.997773
-1.01322
-1.89209
-1.91733
-1.66452
-1.41932
-1.19326
-0.994238
-0.826862
-0.682637
-0.556304
-0.446169
-0.351709
-0.272974
-0.209961
-0.162294
-0.129233
-0.109762
-0.102758
-0.10715
-0.122
-0.146403
-0.179086
-0.218258
-0.261712
-0.304703
-0.340752
-0.362826
-0.364465
-0.34068
-0.288284
-0.205597
-0.0917686
0.0538128
0.229245
0.431272
0.657669
0.906354
1.17377
1.45477
1.74281
2.03062
2.31028
2.57411
2.81524
3.02733
3.20378
3.33849
3.42862
3.47173
3.46569
3.4091
3.30194
3.14618
2.94617
2.70853
2.44159
2.15631
1.86233
1.56696
1.27644
0.996322
0.731384
0.48559
0.262004
0.0627378
-0.111089
-0.259532
-0.383587
-0.484957
-0.565642
-0.627996
-0.674428
-0.707129
-0.728224
-0.739994
-0.744392
-0.742821
-0.735964
-0.723772
-0.705662
-0.68088
-0.648944
-0.610056
-0.565292
-0.516701
-0.467201
-0.420593
-0.381217
-0.352855
-0.33795
-0.336779
-0.346923
-0.363287
-0.378801
-0.385688
-0.377028
-0.34909
-0.300396
-0.23259
-0.149952
-0.0583748
0.0358582
0.127493
0.213094
0.290676
0.359626
0.420209
0.472805
0.517213
0.552566
0.577473
0.590167
0.589122
0.573641
0.54416
0.502196
0.44996
0.38981
0.32388
0.253775
0.180278
0.103551
0.0233372
-0.0609028
-0.150031
-0.245281
-0.348763
-0.464884
-0.60043
-0.755809
-0.92855
-1.15676
-1.00023
0
2.07977
5.12603
8.62279
11.7534
13.6454
13.6819
11.7567
8.35765
4.40854
0.919497
-1.39817
-2.36058
-2.27604
-1.74476
-1.27143
-0.908192
-0.673465
-0.539264
-0.438017
-0.351611
-0.275322
-0.207127
-0.145516
-0.0891766
-0.0367138
0.0134197
0.0629974
0.114036
0.168717
0.229213
0.297457
0.374915
0.46242
0.559968
0.667078
0.7829
0.906299
1.03607
1.17143
1.31198
1.4582
1.61185
1.77601
1.95466
2.15192
2.37091
2.61284
2.87639
3.15702
3.44914
3.74694
4.04479
4.33729
4.61813
4.87874
5.1088
5.29753
5.42687
5.47688
5.43437
5.2997
5.08785
4.82345
4.53258
4.23626
3.94538
3.66266
3.38963
3.12889
2.88309
2.65444
2.4444
2.25345
2.0809
1.92495
1.78304
1.65231
1.53017
1.41485
1.30593
1.20483
1.11479
1.03968
0.983377
0.948715
0.93647
0.944797
0.969291
1.00367
1.04087
1.07431
1.0994
1.11373
1.11612
1.10694
1.08778
1.06121
1.03044
0.998777
0.969682
0.946248
0.930835
0.924781
0.92827
0.940437
0.959661
0.983989
1.01152
1.04063
1.07023
1.09964
1.12862
1.15737
1.18659
1.21742
1.25139
1.29017
1.33519
1.38735
1.44669
1.51225
1.58257
1.65585
1.72994
1.80235
1.87019
1.9302
1.97859
2.01115
2.02383
2.0129
1.97538
1.90961
1.81572
1.696
1.55505
1.39963
1.23822
1.0798
0.931941
0.800817
0.692369
0.611176
0.554329
0.507626
0.452472
0.370123
0.246107
0.0735661
-0.145448
-0.401051
-0.818458
-0.882418
0
2.17235
5.59518
9.6877
13.4397
15.7505
15.8651
13.6938
9.85523
5.41739
1.4685
-1.27095
-2.61893
-2.84767
-2.44407
-2.07691
-1.77546
-1.56121
-1.43843
-1.35955
-1.30015
-1.25177
-1.20841
-1.16554
-1.12052
-1.07258
-1.02222
-0.971109
-0.921434
-0.875006
-0.83262
-0.793733
-0.756526
-0.718297
-0.676044
-0.627001
-0.568917
-0.500643
-0.421013
-0.32823
-0.21997
-0.0933617
0.0547825
0.22753
0.4273
0.655214
0.911079
1.19322
1.49848
1.82254
2.1602
2.50592
2.85418
3.19977
3.53693
3.8579
4.15185
4.40613
4.61063
4.75509
4.82905
4.8247
4.73967
4.57848
4.35228
4.07676
3.76906
3.44656
3.1206
2.79666
2.4775
2.16572
1.86431
1.57673
1.30696
1.05937
0.838567
0.648281
0.490876
0.366892
0.274762
0.211698
0.172831
0.151289
0.139979
0.132531
0.124081
0.11178
0.0949696
0.0750423
0.0550373
0.0390186
0.0311287
0.034866
0.0526047
0.0850918
0.131306
0.189002
0.253457
0.318486
0.37848
0.429664
0.470858
0.503543
0.531249
0.558508
0.589749
0.62824
0.675366
0.731482
0.796417
0.8692
0.94814
1.03118
1.11543
1.19752
1.27478
1.34612
1.41264
1.4776
1.54567
1.62145
1.71046
1.81455
1.92352
2.02092
2.08944
2.1164
2.09732
2.03654
1.94491
1.83601
1.72216
1.61088
1.50389
1.40016
1.29734
1.19248
1.0823
0.963662
0.833879
0.690954
0.533601
0.361118
0.171962
-0.0379269
-0.272293
-0.526484
-0.794172
-1.08619
-0.935718
0
1.94604
4.86907
8.36024
11.6919
14.0102
14.6159
13.2345
10.1541
6.14801
2.19213
-0.898352
-2.73513
-3.40017
-3.16527
-2.77781
-2.37145
-1.9932
-1.6859
-1.46527
-1.29937
-1.17979
-1.11099
-1.09138
-1.1121
-1.15766
-1.20818
-1.2432
-1.24573
-1.21101
-1.14339
-1.0484
-0.930314
-0.793068
-0.640686
-0.476785
-0.30417
-0.124674
0.0608374
0.252353
0.450584
0.656832
0.872882
1.10087
1.34309
1.60169
1.87828
2.17342
2.4862
2.81387
3.15179
3.49366
3.83207
4.15928
4.46804
4.75207
5.00636
5.22761
5.41385
5.56351
5.67504
5.74852
5.78503
5.78519
5.7493
5.67762
5.5706
5.42915
5.25502
5.05123
4.82412
4.58217
4.3335
4.08766
3.85555
3.64762
3.47244
3.33554
3.23873
3.18006
3.15442
3.15447
3.17178
3.19776
3.22538
3.24943
3.267
3.27764
3.28316
3.28722
3.29453
3.31009
3.33837
3.38231
3.4432
3.52125
3.61592
3.72575
3.84859
3.98182
4.12252
4.26775
4.4147
4.56089
4.70426
4.84319
4.97651
5.10334
5.223
5.33489
5.43846
5.5332
5.61881
5.69531
5.76318
5.82332
5.87694
5.92531
5.96937
6.00941
6.04485
6.07405
6.09448
6.10306
6.09648
6.07165
6.02598
5.95759
5.86537
5.74898
5.60884
5.44608
5.2628
5.06149
4.84439
4.61292
4.3674
4.10685
3.82878
3.52933
3.20393
2.84826
2.4595
2.03739
1.58503
1.10892
0.612671
0
-0.0737693
0.718618
2.55565
5.29934
8.41192
11.0559
12.371
11.8154
9.39914
5.68955
1.58951
-1.99767
-4.46809
-5.66934
-5.68486
-5.71836
-5.76267
-5.82315
-5.90318
-6.00335
-6.12143
-6.25278
-6.3911
-6.52914
-6.65804
-6.76756
-6.84805
-6.8909
-6.88954
-6.84079
-6.74612
-6.61209
-6.44959
-6.27185
-6.09156
-5.91741
-5.75177
-5.59345
-5.44022
-5.28857
-5.13458
-4.97489
-4.80724
-4.63068
-4.44526
-4.25159
-4.05027
-3.84147
-3.62462
-3.39852
-3.16155
-2.91215
-2.64929
-2.37292
-2.08289
-1.77904
-1.46576
-1.15984
-0.88805
-0.67741
-0.549766
-0.516194
-0.573304
-0.703146
-0.877763
-1.06778
-1.25205
-1.42603
-1.59494
-1.76315
-1.93284
-2.10465
-2.27746
-2.44825
-2.61264
-2.76566
-2.9025
-3.01937
-3.115
-3.19014
-3.24717
-3.28935
-3.32016
-3.34284
-3.3602
-3.37473
-3.3888
-3.40469
-3.42449
-3.44972
-3.48076
-3.51651
-3.55291
-3.58002
-3.58438
-3.55194
-3.47162
-3.33859
-3.15586
-2.93391
-2.68822
-2.43595
-2.19149
-1.96185
-1.7533
-1.57078
-1.41628
-1.28989
-1.19016
-1.11436
-1.05879
-1.01908
-0.990568
-0.968571
-0.948585
-0.926603
-0.899009
-0.862498
-0.814088
-0.75122
-0.67195
-0.575389
-0.461731
-0.332589
-0.190409
-0.0397682
0.111941
0.255832
0.382654
0.483883
0.553406
0.587909
0.587317
0.554943
0.497348
0.423781
0.345136
0.272414
0.214704
0.177769
0.166859
0.178376
0.199432
0.213327
0.203515
0.157357
0.0688027
-0.0604502
-0.221374
-0.39935
-0.527113
0
1.55314
4.25546
7.80184
11.4651
14.301
15.485
14.6317
11.9528
8.18117
4.29445
1.16819
-0.687332
-1.21382
-0.683959
0.306991
1.24785
1.93351
2.19346
2.31285
2.40975
2.49835
2.58532
2.67584
2.77318
2.87836
2.991
3.10977
3.23293
3.35901
3.48719
3.61754
3.75099
3.88912
4.03382
4.18703
4.35051
4.52574
4.71396
4.91613
5.13308
5.36538
5.61335
5.87692
6.15546
6.44762
6.7512
7.06302
7.37888
7.69365
8.00141
8.29553
8.56885
8.81475
9.02765
9.20278
9.33607
9.4246
9.46718
9.46328
9.41304
9.31759
9.17938
9.00252
8.79283
8.55757
8.30523
8.04458
7.78298
7.52653
7.28036
7.04855
6.83415
6.63925
6.46494
6.31135
6.17758
6.06172
5.96108
5.87206
5.79076
5.71347
5.63713
5.55968
5.48011
5.39837
5.31513
5.23158
5.14924
5.06998
4.99606
4.93006
4.87468
4.83252
4.80652
4.79903
4.80805
4.82538
4.84077
4.8446
4.8304
4.7962
4.74443
4.68041
4.61034
4.53959
4.47144
4.40738
4.34852
4.29597
4.25067
4.21328
4.18413
4.16281
4.14825
4.13895
4.13331
4.12991
4.12768
4.12588
4.12393
4.12132
4.11745
4.11166
4.10333
4.09187
4.07672
4.05706
4.03155
3.99782
3.95269
3.89276
3.81505
3.71787
3.60156
3.46872
3.32374
3.17189
3.01804
2.86547
2.71533
2.56695
2.41799
2.26502
2.10405
1.93113
1.74279
1.53652
1.31077
1.06511
0.798042
0.508958
0.203891
55
196
339
483
627
773
915
1057
1204
1356
1507
1662
1817
1967
2113
2260
2407
2557
2708
2854
2999
3153
3304
3452
3603
3258
3380
3500
3620
3741
0
0
0
0
0
0
0
0
0
0
0
0
0
0
0
0
0
0
0
0
0
0
0
0
0
0
0
0
0
0
0
0
0
0
0
0
0
0
0
0
0
0
0
0
0
0
0
0
0
0
0
0
0
0
0
0
0
0
0
0
0
0
0
0
0
0
0
0
0
0
0
0
0
0
0
0
0
0
0
0
0
0
0
0
0
0
0
0
0
0
0
0
0
0
0
0
0
0
0
0
0
0
0
0
0
0
0
0
0
0
0
0
0
0
0
0
0
0
0
0
0
0
0
0
0
0
0
0
0
0
0
0
0
0
0
0
0
0
0
0
0
0
0
0
0
0
0
0
0
0
0
0
0
0
0
0
0
0
0
0
0
0
0
0
0
0
0
0
0
0
0
0
0
0
0
0
0
0
0
0
0
0
0
0
0
0
0
0
0
0
0
0
0
0
0
0
0
0
0
0
0
0
0
0
0
0
0
0
0
0
0
0
0
0
0
0
0
0
0
0
0
0
0
0
0
0
0
0
0
0
0
0
0
0
0
0
0
0
0
0
0
0
0
0
0
0
0
0
0
0
0
0
0
0
0
0
0
0
0
0
0
0
0
0
0
0
0
0
0
0
0
0
0
0
0
0
0
0
0
0
0
0
0
0
0
0
0
0
0
0
0
0
0
0
0
0
0
0
0
0
0
0
0
0
0
0
0
0
0
0
0
0
0
0
0
0
0
0
0
0
0
0
0
0
0
0
0
0
0
0
0
0
0
0
0
0
0
0
0
0
0
0
0
0
0
0
0
0
0
0
0
0
0
0
0
0
0
0
0
0
0
0
0
0
0
0
0
0
0
0
0
0
0
0
0
0
0
0
0
0
0
0
0
0
0
0
0
0
0
0
0
0
0
0
0
0
0
0
0
0
0
0
0
0
0
0
0
0
0
0
0
0
0
0
0
0
0
0
0
0
0
0
0
0
0
0
0
0
0
0
0
0
0
0
0
0
0
0
0
0
0
0
0
0
0
0
0
0
0
0
0
0
0
0
0
0
0
0
0
0
0
0
0
0
0
0
0
0
0
0
0
0
0
0
0
0
0
0
0
0
0
0
0
0
0
0
0
0
0
0
0
0
0
0
0
0
0
0
0
0
0
0
0
0
0
0
0
0
0
0
0
0
0
0
0
0
0
0
0
0
0
0
0
0
0
0
0
0
0
0
0
0
0
0
0
0
0
0
0
0
0
0
0
0
0
0
0
0
0
0
0
0
0
0
0
0
0
0
0
0
0
0
0
0
0
0
0
0
0
0
0
0
0
0
0
0
0
0
0
0
0
0
0
0
0
0
0
0
0
0
0
0
0
0
0
0
0
0
0
0
0
0
0
0
0
0
0
0
0
0
0
0
0
0
0
0
0
0
0
0
0
0
0
0
0
0
0
0
0
0
0
0
0
0
0
0
0
0
0
0
0
0
0
0
0
0
0
0
0
0
0
0
0
0
0
0
0
0
0
0
0
0
0
0
0
0
0
0
0
0
0
0
0
0
0
0
0
0
0
0
0
0
0
0
0
0
0
0
0
0
0
0
0
0
0
0
0
0
0
0
0
0
0
0
0
0
0
0
0
0
0
0
0
0
0
0
0
0
0
0
0
0
0
0
0
0
0
0
0
0
0
0
0
0
0
0
0
0
0
0
0
0
0
0
0
0
0
0
0
0
0
0
0
0
0
0
0
0
0
0
0
0
0
0
0
0
0
0
0
0
0
0
0
0
0
0
0
0
0
0
0
0
0
0
0
0
0
0
0
0
0
0
0
0
0
0
0
0
0
0
0
0
0
0
0
0
0
0
0
0
0
0
0
0
0
0
0
0
0
0
0
0
0
0
0
0
0
0
0
0
0
0
0
0
0
0
0
0
0
0
0
0
0
0
0
0
0
0
0
0
0
0
0
0
0
0
0
0
0
0
0
0
0
0
0
0
0
0
0
0
0
0
0
0
0
0
0
0
0
0
0
0
0
0
0
0
0
0
0
0
0
0
0
0
0
0
0
0
0
0
0
0
0
0
0
0
0
0
0
0
0
0
0
0
0
0
0
0
0
0
0
0
0
0
0
0
0
0
0
0
0
0
0
0
0
0
0
0
0
0
0
0
0
0
0
0
0
0
0
0
0
0
0
0
0
0
0
0
0
0
0
0
0
0
0
0
0
0
0
0
0
0
0
0
0
0
0
0
0
0
0
0
0
0
0
0
0
0
0
0
0
0
0
0
0
0
0
0
0
0
0
0
0
0
0
0
0
0
0
0
0
0
0
0
0
0
0
0
0
0
0
0
0
0
0
0
0
0
0
0
0
0
0
0
0
0
0
0
0
0
0
0
0
0
0
0
0
0
0
0
0
0
0
0
0
0
0
0
0
0
0
0
0
0
0
0
0
0
0
0
0
0
0
0
0
0
0
0
0
0
0
0
0
0
0
0
0
0
0
0
0
0
0
0
0
0
0
0
0
0
0
0
0
0
0
0
0
0
0
0
0
0
0
0
0
0
0
0
0
0
0
0
0
0
0
0
0
0
0
0
0
0
0
0
0
0
0
0
0
0
0
0
0
0
0
0
0
0
0
0
0
0
0
0
0
0
0
0
0
0
0
0
0
0
0
0
0
0
0
0
0
0
0
0
0
0
0
0
0
0
0
0
0
0
0
0
0
0
0
0
0
0
0
0
0
0
0
0
0
0
0
0
0
0
0
0
0
0
0
0
0
0
0
0
0
0
0
0
0
0
0
0
0
0
0
0
0
0
0
0
0
0
0
0
0
0
0
0
0
0
0
0
0
0
0
0
0
0
0
0
0
0
0
0
0
0
0
0
0
0
0
0
0
0
0
0
0
0
0
0
0
0
0
0
0
0
0
0
0
0
0
0
0
0
0
0
0
0
0
0
0
0
0
0
0
0
0
0
0
0
0
0
0
0
0
0
0
0
0
0
0
0
0
0
0
0
0
0
0
0
0
0
0
0
0
0
0
0
0
0
0
0
0
0
0
0
0
0
0
0
0
0
0
0
0
0
0
0
0
0
0
0
0
0
0
0
0
0
0
0
0
0
0
0
0
0
0
0
0
0
0
0
0
0
0
0
0
0
0
0
0
0
0
0
0
0
0
0
0
0
0
0
0
0
0
0
0
0
0
0
0
0
0
0
0
0
0
0
0
0
0
0
0
0
0
0
0
0
0
0
0
0
0
0
0
0
0
0
0
0
0
0
0
0
0
0
0
0
0
0
0
0
0
0
0
0
0
0
0
0
0
0
0
0
0
0
0
0
0
0
0
0
0
0
0
0
0
0
0
0
0
0
0
0
0
0
0
0
0
0
0
0
0
0
0
0
0
0
0
0
0
0
0
0
0
0
0
0
0
0
0
0
0
0
0
0
0
0
0
0
0
0
0
0
0
0
0
0
0
0
0
0
0
0
0
0
0
0
0
0
0
0
0
0
0
0
0
0
0
0
0
0
0
0
0
0
0
0
0
0
0
0
0
0
0
0
0
0
0
0
0
0
0
0
0
0
0
0
0
0
0
0
0
0
0
0
0
0
0
0
0
0
0
0
0
0
0
0
0
0
0
0
0
0
0
0
0
0
0
0
0
0
0
0
0
0
0
0
0
0
0
0
0
0
0
0
0
0
0
0
0
0
0
0
0
0
0
0
0
0
0
0
0
0
0
0
0
0
0
0
0
0
0
0
0
0
0
0
0
0
0
0
0
0
0
0
0
0
0
0
0
0
0
0
0
0
0
0
0
0
0
0
0
0
0
0
0
0
0
0
0
0
0
0
0
0
0
0
0
0
0
0
0
0
0
0
0
0
0
0
0
0
0
0
0
0
0
0
0
0
0
0
0
0
0
0
0
0
0
0
0
0
0
0
0
0
0
0
0
0
0
0
0
0
0
0
0
0
0
0
0
0
0
0
0
0
0
0
0
0
0
0
0
0
0
0
0
0
0
0
0
0
0
0
0
0
0
0
0
0
0
0
0
0
0
0
0
0
0
0
0
0
0
0
0
0
0
0
0
0
0
0
0
0
0
0
0
0
0
0
0
0
0
0
0
0
0
0
0
0
0
0
0
0
0
0
0
0
0
0
0
0
0
0
0
0
0
0
0
0
0
0
0
0
0
0
0
0
0
0
0
0
0
0
0
0
0
0
0
0
0
0
0
0
0
0
0
0
0
0
0
0
0
0
0
0
0
0
0
0
0
0
0
0
0
0
0
0
0
0
0
0
0
0
0
0
0
0
0
0
0
0
0
0
0
0
0
0
0
0
0
0
0
0
0
0
0
0
0
0
0
0
0
0
0
0
0
0
0
0
0
0
0
0
0
0
0
0
0
0
0
0
0
0
0
0
0
0
0
0
0
0
0
0
0
0
0
0
0
0
0
0
0
0
0
0
0
0
0
0
0
0
0
0
0
0
0
0
0
0
0
0
0
0
0
0
0
0
0
0
0
0
0
0
0
0
0
0
0
0
0
0
0
0
0
0
0
0
0
0
0
0
0
0
0
0
0
0
0
0
0
0
0
0
0
0
0
0
0
0
0
0
0
0
0
0
0
0
0
0
0
0
0
0
0
0
0
0
0
0
0
0
0
0
0
0
0
0
0
0
0
0
0
0
0
0
0
0
0
0
0
0
0
0
0
0
0
0
0
0
0
0
0
0
0
0
0
0
0
0
0
0
0
0
0
0
0
0
0
0
0
0
0
0
0
0
0
0
0
0
0
0
0
0
0
0
0
0
0
0
0
0
0
0
0
0
0
0
0
0
0
0
0
0
0
0
0
0
0
0
0
0
0
0
0
0
0
0
0
0
0
0
0
0
0
0
0
0
0
0
0
0
0
0
0
0
0
0
0
0
0
0
0
0
0
0
0
0
0
0
0
0
0
0
0
0
0
0
0
0
0
0
0
0
0
0
0
0
0
0
0
0
0
0
0
0
0
0
0
0
0
0
0
0
0
0
0
0
0
0
0
0
0
0
0
0
0
0
0
0
0
0
0
0
0
0
0
0
0
0
0
0
0
0
0
0
0
0
0
0
0
0
0
0
0
0
0
0
0
0
0
0
0
0
0
0
0
0
0
0
0
0
0
0
0
0
0
0
0
0
0
0
0
0
0
0
0
0
0
0
0
0
0
0
0
0
0
0
0
0
0
0
0
0
0
0
0
0
0
0
0
0
0
0
0
0
0
0
0
0
0
0
0
0
0
0
0
0
0
0
0
0
0
0
0
0
0
0
0
0
0
0
0
0
0
0
0
0
0
0
0
0
0
0
0
0
0
0
0
0
0
0
0
0
0
0
0
0
0
0
0
0
0
0
0
0
0
0
0
0
0
0
0
0
0
0
0
0
0
0
0
0
0
0
0
0
0
0
0
0
0
0
0
0
0
0
0
0
0
0
0
0
0
0
0
0
0
0
0
0
0
0
0
0
0
0
0
0
0
0
0
0
0
0
0
0
0
0
0
0
0
0
0
0
0
0
0
0
0
0
0
0
0
0
0
0
0
0
0
0
0
0
0
0
0
0
0
0
0
0
0
0
0
0
0
0
0
0
0
0
0
0
0
0
0
0
0
0
0
0
0
0
0
0
0
0
0
0
0
0
0
0
0
0
0
0
0
0
0
0
0
0
0
0
0
0
0
0
0
0
0
0
0
0
0
0
0
0
0
0
0
0
0
0
0
0
0
0
0
0
0
0
0
0
0
0
0
0
0
0
0
0
0
0
0
0
0
0
0
0
0
0
0
0
0
0
0
0
0
0
0
0
0
0
0
0
0
0
0
0
0
0
0
0
0
0
0
0
0
0
0
0
0
0
0
0
0
0
0
0
0
0
0
0
0
0
0
0
0
0
0
0
0
0
0
0
0
0
0
0
0
0
0
0
0
0
0
0
0
0
0
0
0
0
0
0
0
0
0
0
0
0
0
0
0
0
0
0
0
0
0
0
0
0
0
0
0
0
0
0
0
0
0
0
0
0
0
0
0
0
0
0
0
0
0
0
0
0
0
0
0
0
0
0
0
0
0
0
0
0
0
0
0
0
0
0
0
0
0
0
0
0
0
0
0
0
0
0
0
0
0
0
0
0
0
0
0
0
0
0
0
0
0
0
0
0
0
0
0
0
0
0
0
0
0
0
0
0
0
0
0
0
0
0
0
0
0
0
0
0
0
0
0
0
0
0
0
0
0
0
0
0
0
0
0
0
0
0
0
0
0
0
0
0
0
0
0
0
0
0
0
0
0
0
0
0
0
0
0
0
0
0
0
0
0
0
0
0
0
0
0
0
0
0
0
0
0
0
0
0
0
0
0
0
0
0
0
0
0
0
0
0
0
0
0
0
0
0
0
0
0
0
0
0
0
0
0
0
0
0
0
0
0
0
0
0
0
0
0
0
0
0
0
0
0
0
0
0
0
0
0
0
0
0
0
0
0
0
0
0
0
0
0
0
0
0
0
0
0
0
0
0
0
0
0
0
0
0
0
0
0
0
0
0
0
0
0
0
0
0
0
0
0
0
0
0
0
0
0
0
0
0
0
0
0
0
0
0
0
0
0
0
0
0
0
0
0
0
0
0
0
0
0
0
0
0
0
0
0
0
0
0
0
0
0
0
0
0
0
0
0
0
0
0
0
0
0
0
0
0
0
0
0
0
0
0
0
0
0
0
0
0
0
0
0
0
0
0
0
0
0
0
0
0
0
0
0
0
0
0
0
0
0
0
0
0
0
0
0
0
0
0
0
0
0
0
0
0
0
0
0
0
0
0
0
0
0
0
0
0
0
0
0
0
0
0
0
0
0
0
0
0
0
0
0
0
0
0
0
0
0
0
0
0
0
0
0
0
0
0
0
0
0
0
0
0
0
0
0
0
0
0
0
0
0
0
0
0
0
0
0
0
0
0
0
0
0
0
0
0
0
0
0
0
0
0
0
0
0
0
0
0
0
0
0
0
0
0
0
0
0
0
0
0
0
0
0
0
0
0
0
0
0
0
0
0
0
0
0
0
0
0
0
0
0
0
0
0
0
0
0
0
0
0
0
0
0
0
0
0
0
0
0
0
0
0
0
0
0
0
0
0
0
0
0
0
0
0
0
0
0
0
0
0
0
0
0
0
0
0
0
0
0
0
0
0
0
0
0
0
0
0
0
0
0
0
0
0
0
0
0
0
0
0
0
0
0
0
0
0
0
0
0
0
0
0
0
0
0
0
0
0
0
0
0
0
0
0
0
0
0
0
0
0
0
0
0
0
0
0
0
0
0
0
0
0
0
0
0
0
0
0
0
0
0
0
0
0
0
0
0
0
0
0
0
0
0
0
0
0
0
0
0
0
0
0
0
0
0
0
0
0
0
0
0
0
0
0
0
0
0
0
0
0
0
0
0
0
0
0
0
0
0
0
0
0
0
0
0
0
0
0
0
0
0
0
0
0
0
0
0
0
0
0
0
0
0
0
0
0
0
0
0
0
0
0
0
0
0
0
0
0
0
0
0
0
0
0
0
0
0
0
0
0
0
0
0
0
0
0
0
0
0
0
0
0
0
0
0
0
0
0
0
0
0
0
0
0
0
0
0
0
0
0
0
0
0
0
0
0
0
0
0
0
0
0
0
0
0
0
0
0
0
0
0
0
0
0
0
0
0
0
0
0
0
0
0
0
0
0
0
0
0
0
0
0
0
0
0
0
0
0
0
0
0
0
0
0
0
0
0
0
0
0
0
0
0
0
0
0
0
0
0
0
0
0
0
0
0
0
0
0
0
0
0
0
0
0
0
0
0
0
0
0
0
0
0
0
0
0
0
0
0
0
0
0
0
0
0
0
0
0
0
0
0
0
0
0
0
0
0
0
0
0
0
0
0
0
0
0
0
0
0
0
0
0
0
0
0
0
0
0
0
0
0
0
0
0
0
0
0
0
0
0
0
0
0
0
0
0
0
0
0
0
0
0
0
0
0
0
0
0
0
0
0
0
0
0
0
0
0
0
0
0
0
0
0
0
0
0
0
0
0
0
0
0
0
0
0
0
0
0
0
0
0
0
0
0
0
0
0
0
0
0
0
0
0
0
0
0
0
0
0
0
0
0
0
0
0
0
0
0
0
0
0
0
0
0
0
0
0
0
0
0
0
0
0
0
0
0
0
0
0
0
0
0
0
0
0
0
0
0
0
0
0
0
0
0
0
0
0
0
0
0
0
0
0
0
0
0
0
0
0
0
0
0
0
0
0
0
0
0
0
0
0
0
0
0
0
0
0
0
0
0
0
0
0
0
0
0
0
0
0
0
0
0
0
0
0
0
0
0
0
0
0
0
0
0
0
0
0
0
0
0
0
0
0
0
0
0
0
0
0
0
0
0
0
0
0
0
0
0
0
0
0
0
0
0
0
0
0
0
0
