-0.00973816
-0.200722
0
0.927995
2.78419
5.41936
8.33212
10.801
12.1162
11.8239
9.90116
6.78759
3.24627
0.0884552
-2.11969
-3.22451
-3.4139
-3.08563
-2.73875
-2.38832
-2.06974
-1.83366
-1.67593
-1.56756
-1.49409
-1.4488
-1.42149
-1.40081
-1.37679
-1.34275
-1.29804
-1.24438
-1.18364
-1.11807
-1.04998
-0.981483
-0.91431
-0.849777
-0.788712
-0.731277
-0.676754
-0.623308
-0.567894
-0.506351
-0.433733
-0.344817
-0.234761
-0.0998131
0.0621773
0.251386
0.465823
0.701408
0.952287
1.21136
1.47097
1.72357
1.96227
2.18112
2.37517
2.54049
2.67394
2.77272
2.8343
2.85739
2.84075
2.78366
2.68671
2.55235
2.38535
2.19258
1.98257
1.76466
1.54781
1.33865
1.14256
0.963505
0.804131
0.665746
0.547285
0.446554
0.36086
0.287672
0.225114
0.172175
0.128654
0.0948608
0.0712097
0.0577454
0.0543404
0.0604393
0.0751083
0.0969566
0.124561
0.15646
0.191128
0.226958
0.262212
0.294829
0.322337
0.342217
0.352126
0.350294
0.33602
0.310088
0.274927
0.234453
0.193578
0.157509
0.130678
0.116133
0.115646
0.129941
0.158481
0.19964
0.250925
0.309102
0.370673
0.4319
0.489043
0.538831
0.578788
0.607465
0.624471
0.63028
0.625915
0.612576
0.591383
0.563482
0.530198
0.493343
0.455398
0.419382
0.388321
0.364713
0.350347
0.342171
0.328028
0.290488
0.211248
0.0762596
-0.120039
-0.372948
-0.668697
-1.07301
-0.975346
0
1.96726
4.77462
7.94072
10.7455
12.4238
12.427
10.6526
7.52185
3.83694
0.47586
-1.92554
-3.14705
-3.35105
-2.94513
-2.5766
-2.27808
-2.07115
-1.96074
-1.90449
-1.8874
-1.89176
-1.90125
-1.90433
-1.8977
-1.88332
-1.86409
-1.8433
-1.82407
-1.80863
-1.79799
-1.79199
-1.78952
-1.78894
-1.78831
-1.78553
-1.77829
-1.76395
-1.73956
-1.70183
-1.64737
-1.57295
-1.47586
-1.35431
-1.20767
-1.03671
-0.843738
-0.632525
-0.408147
-0.176655
0.0553696
0.281314
0.494978
0.690682
0.863541
1.00974
1.12639
1.211
1.26093
1.27355
1.24658
1.17769
1.06513
0.908475
0.70936
0.471918
0.202787
-0.0894081
-0.39468
-0.703233
-1.00723
-1.30032
-1.57779
-1.83669
-2.07571
-2.29493
-2.49557
-2.67961
-2.84945
-3.00751
-3.15588
-3.29592
-3.42799
-3.55118
-3.66295
-3.76034
-3.84062
-3.90194
-3.94416
-3.96924
-3.98107
-3.98491
-3.98622
-3.98953
-3.99761
-4.01119
-4.02919
-4.04943
-4.06948
-4.08739
-4.10199
-4.11264
-4.11902
-4.12075
-4.11712
-4.10695
-4.08872
-4.0607
-4.02133
-3.96955
-3.90498
-3.8278
-3.73897
-3.64049
-3.53506
-3.42687
-3.32201
-3.22721
-3.149
-3.09295
-3.06303
-3.06128
-3.08761
-3.13966
-3.21258
-3.29823
-3.387
-3.46165
-3.50207
-3.48928
-3.4101
-3.26136
-3.05203
-2.80207
-2.53789
-2.28579
-2.06055
-1.86557
-1.70151
-1.56318
-1.54251
-1.12906
0
1.97726
4.75361
7.98835
11.0607
13.2057
13.7652
12.4613
9.55951
5.80946
2.16565
-0.585625
-2.10179
-2.5213
-2.22554
-1.90761
-1.61964
-1.39376
-1.25156
-1.16832
-1.11647
-1.08454
-1.06713
-1.05941
-1.05667
-1.05475
-1.05037
-1.04131
-1.02628
-1.00469
-0.976521
-0.942031
-0.901619
-0.855599
-0.804034
-0.746593
-0.682446
-0.610253
-0.528252
-0.434447
-0.326843
-0.203655
-0.0634613
0.0947411
0.271531
0.46702
0.680714
0.911269
1.15621
1.41173
1.67274
1.93321
2.18678
2.42757
2.65079
2.85311
3.0318
3.18387
3.3062
3.39633
3.45207
3.46955
3.44402
3.3712
3.2487
3.07713
2.86062
2.6067
2.32597
2.03127
1.73428
1.44417
1.16873
0.914686
0.687149
0.489345
0.322809
0.187451
0.0806095
-0.00321617
-0.0706856
-0.128744
-0.183775
-0.240931
-0.303757
-0.374102
-0.452285
-0.537387
-0.62753
-0.720457
-0.813791
-0.905112
-0.992038
-1.07222
-1.1435
-1.20427
-1.25363
-1.29158
-1.31912
-1.33811
-1.35128
-1.36173
-1.37242
-1.38576
-1.40333
-1.4257
-1.45241
-1.48203
-1.51225
-1.54003
-1.56168
-1.57356
-1.57254
-1.55645
-1.52405
-1.47544
-1.41134
-1.33261
-1.23987
-1.13366
-1.01503
-0.886242
-0.750707
-0.616055
-0.491636
-0.386755
-0.308753
-0.261581
-0.245261
-0.256239
-0.288345
-0.333799
-0.384484
-0.43421
-0.478463
-0.514573
-0.541952
-0.56214
-0.578759
-0.59694
-0.622316
-0.659904
-0.713202
-0.783597
-0.870204
-0.97014
-1.14214
-0.983017
0
2.06207
5.12963
8.68392
11.8828
13.8377
13.9464
12.1377
8.90593
5.11756
1.68018
-0.768057
-2.01338
-2.22531
-1.6874
-1.16176
-0.692394
-0.339659
-0.146904
-0.0305519
0.0523712
0.111578
0.152601
0.18082
0.200848
0.216121
0.228693
0.239383
0.248098
0.254528
0.258918
0.262678
0.268651
0.280836
0.303616
0.340733
0.394392
0.464918
0.550097
0.648226
0.758428
0.881154
1.01831
1.17269
1.34686
1.54198
1.75643
1.98597
2.22539
2.4687
2.70993
2.94404
3.16748
3.37827
3.57555
3.75896
3.92767
4.07917
4.20773
4.30442
4.35725
4.35248
4.27889
4.13214
3.91764
3.65045
3.35169
3.04248
2.73731
2.43983
2.14909
1.86452
1.58607
1.31494
1.05408
0.808125
0.582741
0.383382
0.214112
0.0772858
-0.0259312
-0.0980391
-0.146728
-0.180663
-0.207628
-0.233024
-0.259078
-0.284918
-0.307414
-0.322498
-0.326611
-0.318636
-0.299351
-0.270641
-0.235367
-0.197094
-0.159551
-0.126092
-0.0992848
-0.0806897
-0.0708156
-0.0692193
-0.0746898
-0.0854616
-0.0994178
-0.114261
-0.127664
-0.137406
-0.141547
-0.138591
-0.127649
-0.10853
-0.0817406
-0.0483694
-0.00989676
0.0320019
0.075573
0.118973
0.159963
0.195327
0.220877
0.232081
0.224328
0.19383
0.138599
0.0591821
-0.0410425
-0.156052
-0.278032
-0.39657
-0.497057
-0.56499
-0.586682
-0.550691
-0.449588
-0.281713
0
0.42142
0.869106
1.23185
1.42231
1.39969
1.1762
0.805743
0.353184
0.257621
1.00414
2.84808
5.74828
9.28436
12.6984
15.0864
15.6975
14.2389
11.0417
6.97037
3.08848
0.236044
-1.25771
-1.58395
-1.2255
-0.921344
-0.655901
-0.444888
-0.295785
-0.187391
-0.104093
-0.0421502
0.00159035
0.0301751
0.0465689
0.0538192
0.0551893
0.0541267
0.0540178
0.0577938
0.0675014
0.0838592
0.106913
0.136078
0.170493
0.20966
0.253903
0.304607
0.36418
0.435747
0.522677
0.628071
0.754253
0.902213
1.07206
1.26325
1.47451
1.70385
1.94872
2.20607
2.47249
2.74438
3.01808
3.28983
3.55511
3.80747
4.03764
4.23539
4.39137
4.4959
4.54084
4.52155
4.43806
4.29511
4.10096
3.86592
3.60326
3.3262
3.04377
2.76185
2.48504
2.21765
1.96361
1.72641
1.5089
1.31311
1.13995
0.989041
0.858878
0.7463
0.646828
0.555923
0.470004
0.387306
0.308541
0.236623
0.175935
0.131042
0.105358
0.100221
0.114583
0.145305
0.187861
0.237139
0.288
0.336166
0.378031
0.41084
0.432797
0.443176
0.442377
0.431894
0.414148
0.39221
0.369488
0.349265
0.334671
0.328606
0.333414
0.350563
0.380636
0.423191
0.476712
0.53868
0.605814
0.674445
0.740939
0.802185
0.855925
0.900418
0.934566
0.957782
0.969828
0.970671
0.960388
0.939143
0.907211
0.865084
0.813588
0.753723
0.686602
0.61334
0.534824
0.451442
0.362877
0.268018
0.165065
0.0518288
-0.0746494
-0.219962
-0.385061
-0.567952
-0.82605
-0.837106
0
2.04968
5.28266
9.19368
12.8616
15.2379
15.5489
13.6357
10.0504
5.83557
2.08485
-0.482492
-1.71314
-1.91196
-1.51313
-1.13178
-0.778767
-0.47151
-0.226378
-0.0306671
0.125386
0.240291
0.315315
0.354853
0.366437
0.360242
0.34804
0.341703
0.351038
0.381023
0.432502
0.504491
0.595534
0.702729
0.822392
0.950734
1.08453
1.22173
1.36173
1.50545
1.65533
1.81499
1.98882
2.18133
2.3965
2.6371
2.90417
3.19682
3.51226
3.84611
4.19297
4.54699
4.90253
5.25392
5.59481
5.91729
6.21122
6.46501
6.66924
6.81253
6.88267
6.87043
6.77378
6.60053
6.36781
6.09812
5.81324
5.52854
5.24881
4.97438
4.70556
4.4431
4.18825
3.94306
3.7105
3.49424
3.29819
3.12596
2.98014
2.86195
2.77084
2.70436
2.65804
2.62598
2.60177
2.57925
2.55336
2.52059
2.47931
2.42975
2.37366
2.31385
2.25364
2.19623
2.1444
2.10033
2.06552
2.04071
2.02581
2.02014
2.0224
2.02974
2.03765
2.04163
2.0384
2.02694
2.0091
1.98937
1.97391
1.96918
1.98011
2.00826
2.05486
2.11936
2.19976
2.29242
2.39406
2.49938
2.60077
2.69005
2.75948
2.80274
2.81556
2.79602
2.74429
2.66222
2.55292
2.42207
2.2757
2.11899
1.95632
1.79112
1.6254
1.45946
1.29173
1.11913
0.937943
0.744989
0.538217
0.318794
0.0813744
-0.292702
0
1.39184
4.081
7.83373
11.9197
15.2732
16.8532
16.0643
13.032
8.58369
3.92807
0.181998
-2.0274
-2.70302
-2.32716
-1.8941
-1.52041
-1.24832
-1.09211
-0.999771
-0.944469
-0.913025
-0.894257
-0.880902
-0.869778
-0.860955
-0.855787
-0.855505
-0.860175
-0.868292
-0.876995
-0.882666
-0.881839
-0.872145
-0.85169
-0.818691
-0.771645
-0.709245
-0.630254
-0.533443
-0.41762
-0.281708
-0.124936
0.0529251
0.251357
0.468991
0.703671
0.952724
1.21337
1.4832
1.7605
2.04433
2.33438
2.63128
2.93624
3.2472
3.55325
3.83326
4.06228
4.22057
4.2945
4.27657
4.16584
3.96957
3.70398
3.39165
3.05532
2.71261
2.37212
2.03669
1.7082
1.38988
1.08571
0.800016
0.536963
0.300007
0.0914116
-0.0880112
-0.238837
-0.362637
-0.461437
-0.537408
-0.592929
-0.630354
-0.651788
-0.659303
-0.65514
-0.641795
-0.621929
-0.598121
-0.572577
-0.546885
-0.521903
-0.497912
-0.474843
-0.452509
-0.430829
-0.409962
-0.39034
-0.372558
-0.357114
-0.344041
-0.332597
-0.321007
-0.306403
-0.285025
-0.252679
-0.20539
-0.140109
-0.0555817
0.0474701
0.167006
0.299651
0.440965
0.58596
0.72913
0.864219
0.984712
1.08487
1.15998
1.20659
1.22284
1.2089
1.16708
1.10174
1.01875
0.924571
0.825271
0.725191
0.62624
0.528046
0.428551
0.324458
0.21188
0.0869583
-0.0554085
-0.221826
-0.410522
-0.616614
-0.886063
-0.855527
0
2.07529
5.41131
9.54538
13.5608
16.373
17.1345
15.5708
12.0943
7.64479
3.33218
0.0436188
-1.81562
-2.35286
-1.99934
-1.47297
-1.01345
-0.679307
-0.502154
-0.414842
-0.363293
-0.33589
-0.323254
-0.316335
-0.307301
-0.290605
-0.263179
-0.223604
-0.171629
-0.108002
-0.0341576
0.0481178
0.137095
0.231374
0.330075
0.432925
0.540298
0.653298
0.773813
0.904575
1.04921
1.21204
1.39759
1.60977
1.85098
2.1212
2.41747
2.73374
3.06198
3.39318
3.71853
4.03062
4.3242
4.5963
4.84542
5.07066
5.27083
5.44382
5.58651
5.69528
5.7644
5.78742
5.75879
5.67516
5.53609
5.34414
5.10447
4.82476
4.51712
4.19356
3.86384
3.53599
3.2178
2.91666
2.63904
2.38995
2.17249
1.98757
1.834
1.70871
1.60728
1.52452
1.45522
1.39482
1.33987
1.28838
1.23971
1.19435
1.15345
1.11833
1.09014
1.06956
1.05679
1.05199
1.05571
1.06916
1.09419
1.13287
1.18678
1.2563
1.33987
1.43423
1.53468
1.63583
1.73252
1.82072
1.89778
1.96253
2.01492
2.0554
2.08452
2.1025
2.10898
2.1032
2.08423
2.05136
2.0045
1.9444
1.87275
1.79205
1.7051
1.61441
1.52157
1.42681
1.32866
1.22406
1.10882
0.976031
0.811719
0.601045
0.350806
0.0757851
-0.22878
0
1.07391
3.2119
6.30834
9.82811
12.9046
14.6281
14.4089
12.2344
8.68841
4.71833
1.265
-1.0646
-2.13276
-2.17847
-1.6141
-0.91507
-0.260912
0.211278
0.415044
0.522518
0.610658
0.692545
0.771638
0.849867
0.928883
1.00998
1.09381
1.18028
1.26834
1.35537
1.43825
1.51469
1.58452
1.6505
1.71817
1.7948
1.88765
2.00222
2.13878
2.29493
2.46817
2.6557
2.85475
3.06329
3.28038
3.50608
3.74088
3.98501
4.23755
4.49595
4.7558
5.01114
5.25488
5.47942
5.6781
5.84573
5.97873
6.07496
6.13325
6.15268
6.13234
6.07108
5.96767
5.82129
5.63229
5.40285
5.13749
4.84318
4.52927
4.20675
3.88659
3.57939
3.29455
3.03944
2.81877
2.63472
2.48726
2.37343
2.28699
2.22067
2.16732
2.12086
2.07695
2.0331
1.98845
1.94329
1.89845
1.85482
1.81316
1.77422
1.73895
1.70871
1.68546
1.67168
1.67013
1.68346
1.71361
1.76128
1.82545
1.90421
1.99341
2.085
2.16906
2.23621
2.27924
2.29441
2.28187
2.24532
2.19086
2.12523
2.05424
1.98133
1.90714
1.83058
1.74965
1.66226
1.56703
1.46401
1.35483
1.24241
1.13022
1.02123
0.917048
0.81722
0.718873
0.617443
0.50695
0.379012
0.231143
0.064988
-0.176512
0
1.02351
3.06898
6.001
9.30698
12.1949
13.8411
13.7055
11.7671
8.55106
4.92619
1.76826
-0.342165
-1.25696
-1.19769
-0.560506
0.114608
0.698176
1.08565
1.24861
1.35723
1.4573
1.55821
1.66465
1.78032
1.90747
2.0465
2.19591
2.35268
2.5129
2.67263
2.82866
2.97913
3.1237
3.26346
3.40051
3.53738
3.67659
3.82022
3.96973
4.12591
4.28898
4.45873
4.63473
4.8166
5.00428
5.19826
5.39973
5.61051
5.83273
6.06825
6.31792
6.58203
6.86023
7.14453
7.41841
7.66311
7.86177
8.00235
8.07852
8.08884
8.03504
7.9207
7.75078
7.53508
7.28509
7.01277
6.73019
6.44791
6.17343
5.91184
5.66669
5.43928
5.22881
5.03295
4.84863
4.67297
4.50411
4.34177
4.18761
4.04521
3.91917
3.81387
3.73268
3.67713
3.64645
3.6377
3.64628
3.66685
3.69428
3.72447
3.75497
3.78508
3.81554
3.84812
3.8851
3.92863
3.98026
4.04056
4.10889
4.18348
4.26093
4.33629
4.40411
4.45947
4.49872
4.51999
4.52309
4.50914
4.47973
4.43614
4.37916
4.30896
4.22505
4.1264
4.01213
3.88209
3.73698
3.57821
3.40762
3.22678
3.03643
2.83612
2.62397
2.39696
2.15143
1.88396
1.59221
1.2725
0.925918
0.557822
0.0954178
0
0.722301
2.53699
5.3482
8.62638
11.5155
13.1226
12.8728
10.7547
7.32856
3.48993
0.109816
-2.26556
-3.52314
-3.86806
-3.60504
-3.33223
-3.06832
-2.84735
-2.70197
-2.61921
-2.5705
-2.54209
-2.52812
-2.52618
-2.53527
-2.55454
-2.58325
-2.62052
-2.66466
-2.7128
-2.76071
-2.80317
-2.83456
-2.84978
-2.84572
-2.82138
-2.77654
-2.71191
-2.62912
-2.53011
-2.41655
-2.28952
-2.14921
-1.99503
-1.82576
-1.64003
-1.43665
-1.21507
-0.975661
-0.719919
-0.450691
-0.172298
0.109574
0.386343
0.644099
0.868453
1.04642
1.16846
1.22995
1.23165
1.17878
1.07954
0.943234
0.77894
0.596257
0.402486
0.202806
0.00125961
-0.198616
-0.393525
-0.579469
-0.752068
-0.907627
-1.04317
-1.15691
-1.24859
-1.31945
-1.37183
-1.40855
-1.43211
-1.44439
-1.44645
-1.43816
-1.41844
-1.38605
-1.34016
-1.28062
-1.20828
-1.12503
-1.03372
-0.937801
-0.840902
-0.746373
-0.656846
-0.573948
-0.498172
-0.428897
-0.36452
-0.302673
-0.240489
-0.174911
-0.103082
-0.0227615
0.067234
0.166677
0.27375
0.385112
0.49622
0.601717
0.696088
0.774348
0.832508
0.867747
0.878361
0.863853
0.825051
0.763829
0.683128
0.586961
0.480278
0.368586
0.257313
0.151017
0.0525749
-0.0368782
-0.118613
-0.195622
-0.271751
-0.350664
-0.43491
-0.525318
-0.62084
-0.719609
-0.651297
0
1.53941
4.07569
7.34044
10.6961
13.3026
14.3995
13.5905
11.0151
7.32539
3.46045
0.305701
-1.60954
-2.23877
-1.89876
-1.22361
-0.619613
-0.20335
-0.0584873
-0.0395576
-0.0484329
-0.067123
-0.0873627
-0.102526
-0.108413
-0.104176
-0.091098
-0.0714027
-0.0476906
-0.0224258
0.00263863
0.0268383
0.0507584
0.0762142
0.106105
0.144163
0.194612
0.261739
0.34938
0.460407
0.596283
0.756859
0.94039
1.14402
1.36438
1.5982
1.84289
2.09673
2.35887
2.6289
2.90644
3.19064
3.47989
3.77173
4.06262
4.34623
4.61094
4.842
5.02663
5.15257
5.21016
5.19425
5.10508
4.94791
4.73204
4.46993
4.17872
3.87598
3.57381
3.27989
2.99907
2.73489
2.49062
2.26876
2.0712
1.89947
1.75472
1.63755
1.54774
1.4842
1.44509
1.42759
1.42636
1.43324
1.44026
1.44082
1.43069
1.40834
1.37472
1.33241
1.28464
1.23437
1.18385
1.13437
1.0868
1.04205
1.00136
0.966473
0.939837
0.92444
0.923396
0.939756
0.976113
1.03418
1.11439
1.2156
1.33488
1.46762
1.60771
1.74828
1.8815
2.00038
2.09975
2.17684
2.23135
2.26498
2.2805
2.28065
2.26739
2.24201
2.20468
2.15504
2.09296
2.01885
1.93345
1.83731
1.73002
1.61031
1.47531
1.32022
1.13952
0.927967
0.67967
0.36806
-0.00311642
-0.415599
-1.06801
-1.11913
0
2.54129
6.30402
10.6293
14.5392
17.0141
17.3308
15.3427
11.5739
7.04829
2.90001
-0.0508682
-1.54392
-1.83635
-1.40788
-0.887904
-0.412383
-0.0399223
0.184809
0.331069
0.447034
0.548021
0.640663
0.730155
0.821527
0.919143
1.02627
1.14478
1.27539
1.41783
1.57116
1.73419
1.90583
2.08544
2.27287
2.46843
2.67271
2.88638
3.11015
3.34491
3.59191
3.85301
4.13072
4.42788
4.74706
5.08981
5.45587
5.84275
6.24555
6.65733
7.06976
7.47391
7.86099
8.22186
8.54732
8.82992
9.06493
9.24933
9.38087
9.45759
9.47754
9.43872
9.33963
9.17995
8.96167
8.69008
8.37401
8.02567
7.66001
7.29193
6.9339
6.59634
6.28684
6.00985
5.76684
5.55696
5.37798
5.22715
5.10191
5.00016
4.92018
4.86105
4.82195
4.79914
4.78507
4.7711
4.74918
4.71345
4.66154
4.59487
4.51805
4.43743
4.35939
4.28799
4.22494
4.17061
4.12386
4.08205
4.04161
3.9988
3.95046
3.89468
3.83126
3.76183
3.68967
3.6191
3.55471
3.50047
3.45952
3.43336
3.42094
3.41897
3.42279
3.42721
3.4273
3.41909
3.3999
3.36844
3.3245
3.26864
3.20154
3.12342
3.0339
2.93221
2.81766
2.68988
2.54954
2.39908
2.2428
2.08654
1.93679
1.79952
1.67943
1.57942
1.49797
1.42517
1.34659
1.24629
1.10695
0.885265
0.58774
0.242244
-0.239305
0
1.38204
4.07417
7.78786
11.7715
15.0012
16.5295
15.8547
13.1365
9.14081
4.93363
1.46867
-0.727407
-1.63748
-1.60559
-1.09229
-0.598218
-0.185046
0.0912231
0.232879
0.337449
0.431503
0.521407
0.609232
0.695393
0.779069
0.858572
0.931944
0.997599
1.0549
1.10452
1.14847
1.1899
1.2327
1.28097
1.33851
1.40847
1.49332
1.59469
1.71344
1.84978
2.00354
2.17428
2.3615
2.56462
2.78284
3.01487
3.2587
3.5114
3.76916
4.0275
4.28172
4.5273
4.76037
4.9773
5.17386
5.34533
5.48773
5.59845
5.67471
5.7136
5.71257
5.66983
5.5847
5.45785
5.29148
5.08942
4.85823
4.60581
4.34048
4.07018
3.80183
3.5414
3.29421
3.06457
2.85577
2.66993
2.50791
2.36956
2.25461
2.1613
2.08371
2.01467
1.94759
1.87792
1.80416
1.7279
1.65307
1.58435
1.52564
1.47772
1.43984
1.41057
1.38766
1.3686
1.35119
1.33391
1.31613
1.29827
1.28172
1.26867
1.26172
1.26338
1.27541
1.29838
1.33102
1.37101
1.41529
1.46039
1.50295
1.54007
1.56954
1.5898
1.59979
1.59869
1.58565
1.55967
1.51979
1.46526
1.39586
1.31228
1.21636
1.111
0.999831
0.886633
0.774608
0.665744
0.560493
0.457753
0.355283
0.250389
0.140417
0.0236706
-0.0993595
-0.229681
-0.374741
0
1.26544
3.57514
6.69405
9.97343
12.5368
13.6016
12.7914
10.2891
6.75956
3.08787
0.0599321
-1.87475
-2.67324
-2.5654
-2.04279
-1.49268
-1.01493
-0.692762
-0.545007
-0.45553
-0.385484
-0.325116
-0.271063
-0.221613
-0.175832
-0.133391
-0.0944242
-0.0592636
-0.0281082
-0.00070343
0.0238792
0.0473181
0.0719688
0.100674
0.136504
0.182462
0.241192
0.314816
0.404835
0.512018
0.636386
0.77732
0.933785
1.1046
1.28867
1.48505
1.69281
1.91063
2.13629
2.36622
2.59517
2.81501
3.01686
3.19246
3.33569
3.44348
3.51571
3.55428
3.56163
3.53935
3.48875
3.41047
3.30283
3.16468
2.99627
2.79967
2.57876
2.33883
2.08639
1.82792
1.56927
1.31617
1.07415
0.848354
0.643311
0.462673
0.308593
0.181217
0.0788187
-0.00194988
-0.0655565
-0.11695
-0.160906
-0.201462
-0.241486
-0.282429
-0.324281
-0.365458
-0.403028
-0.433266
-0.45228
-0.456646
-0.44395
-0.413172
-0.364846
-0.300999
-0.224859
-0.140517
-0.0521025
0.0368496
0.123781
0.207308
0.287102
0.363726
0.438285
0.512043
0.586085
0.661083
0.73719
0.813976
0.890295
0.963975
1.03121
1.08594
1.12065
1.12769
1.10046
1.0352
0.932471
0.797647
0.640175
0.471495
0.302261
0.139198
-0.0161268
-0.16505
-0.311564
-0.460942
-0.619764
-0.791284
-0.974067
-1.1635
-1.35609
-0.99264
0
1.82744
4.53531
7.81894
10.9909
13.1539
13.5475
11.9023
8.60528
4.56663
0.842843
-1.78705
-3.0712
-3.25747
-2.85456
-2.48377
-2.17686
-1.95648
-1.82774
-1.74006
-1.67015
-1.61014
-1.55592
-1.50447
-1.45355
-1.4017
-1.34818
-1.29279
-1.2356
-1.17673
-1.11611
-1.05342
-0.988202
-0.919919
-0.848155
-0.772632
-0.693116
-0.609182
-0.519897
-0.423527
-0.317343
-0.197622
-0.0598804
0.100656
0.288371
0.506469
0.75619
1.0362
1.34232
1.66764
2.0031
2.33842
2.66312
2.96706
3.2403
3.47445
3.66458
3.80901
3.90802
3.96327
3.97736
3.95339
3.89467
3.80451
3.68616
3.54325
3.37985
3.20029
3.00914
2.81128
2.6119
2.41659
2.23109
2.06122
1.91209
1.78704
1.68756
1.61308
1.56109
1.52747
1.50715
1.49489
1.48596
1.47671
1.46483
1.4493
1.43016
1.40817
1.38458
1.36069
1.33774
1.31681
1.29868
1.28385
1.27251
1.2646
1.25994
1.2583
1.25958
1.26389
1.27165
1.28355
1.30059
1.324
1.35511
1.39526
1.44563
1.507
1.57946
1.66285
1.7566
1.85669
1.95355
2.03536
2.09069
2.11111
2.09303
2.03813
1.95232
1.84357
1.71983
1.58853
1.4543
1.3197
1.18639
1.05565
0.928446
0.805201
0.685372
0.567004
0.44617
0.317262
0.17375
0.00418501
-0.213297
-0.477321
-0.776777
-1.17428
-1.04333
0
2.16286
5.33418
9.02312
12.3913
14.4785
14.5575
12.4661
8.72772
4.3624
0.467976
-2.20834
-3.48433
-3.66113
-3.43108
-3.21743
-3.03415
-2.89019
-2.78832
-2.72533
-2.69324
-2.68132
-2.67829
-2.67425
-2.66289
-2.64096
-2.60686
-2.56023
-2.50175
-2.43277
-2.35487
-2.26946
-2.17751
-2.07938
-1.97486
-1.86331
-1.74386
-1.61555
-1.47736
-1.32807
-1.16605
-0.989036
-0.794082
-0.577752
-0.336633
-0.0680565
0.229117
0.553868
0.902708
1.26979
1.64739
2.02666
2.3984
2.75283
3.07874
3.36692
3.61172
3.80949
3.95836
4.05781
4.10824
4.11067
4.06658
3.97808
3.84948
3.68683
3.49591
3.28301
3.05492
2.81852
2.57972
2.34298
2.11187
1.88933
1.67788
1.47971
1.29673
1.13035
0.98131
0.849485
0.73395
0.633193
0.545502
0.469391
0.403954
0.349027
0.305068
0.272927
0.253468
0.247179
0.253864
0.272465
0.301177
0.337478
0.378104
0.419375
0.457974
0.491556
0.519224
0.54178
0.561662
0.582517
0.608515
0.64355
0.690247
0.749656
0.821733
0.905781
1.00057
1.10472
1.21692
1.33591
1.46029
1.58823
1.71729
1.84442
1.96619
2.07921
2.18049
2.26777
2.33957
2.39563
2.43663
2.46393
2.47939
2.48504
2.48284
2.47432
2.46029
2.44068
2.41462
2.38058
2.33683
2.28194
2.21514
2.13647
2.04664
1.94668
1.83747
1.71882
1.58511
1.40416
1.07584
0.594485
0.0219364
-0.410865
0
1.71116
4.86398
9.09422
13.5482
17.1108
18.7769
18.0308
15.0633
10.714
6.14592
2.40106
0.0497406
-0.907422
-0.880655
-0.55887
-0.265582
-0.0229778
0.157071
0.276043
0.363124
0.431219
0.4859
0.531158
0.57001
0.604584
0.636359
0.666518
0.696546
0.728554
0.765203
0.809229
0.862784
0.92688
1.00104
1.08347
1.17271
1.26794
1.36948
1.4791
1.59988
1.73573
1.89069
2.06793
2.26946
2.49611
2.74724
3.02076
3.31336
3.62083
3.93844
4.26134
4.58483
4.90451
5.21559
5.51167
5.7837
6.02059
6.21276
6.35112
6.42671
6.43247
6.36489
6.22514
6.01943
5.75863
5.45707
5.13302
4.8018
4.47268
4.15051
3.83838
3.5389
3.25388
2.98469
2.73251
2.49853
2.28401
2.09014
1.91798
1.7683
1.64159
1.53827
1.45873
1.40279
1.36973
1.35831
1.36641
1.39133
1.42938
1.47456
1.51915
1.55553
1.57757
1.58178
1.56785
1.5387
1.49975
1.4579
1.42022
1.39239
1.3775
1.37682
1.39071
1.41872
1.45954
1.51132
1.57195
1.63927
1.71118
1.78569
1.86086
1.93465
2.00488
2.06909
2.1246
2.16882
2.19959
2.21536
2.21527
2.19925
2.16787
2.12209
2.06289
1.99094
1.90655
1.80995
1.70124
1.58043
1.44755
1.30297
1.14726
0.981044
0.804736
0.618415
0.421832
0.21353
-0.00909576
-0.24494
-0.491536
-0.767297
-0.751744
0
1.82662
4.78615
8.48588
12.115
14.6968
15.4516
14.1022
10.9795
6.89121
2.82326
-0.391528
-2.30807
-2.92941
-2.54871
-1.80681
-1.03821
-0.476566
-0.233653
-0.130811
-0.0334576
0.0658516
0.167705
0.2717
0.376262
0.479053
0.577658
0.670294
0.756323
0.836438
0.912484
0.986961
1.0624
1.14077
1.22311
1.30951
1.39934
1.4917
1.58592
1.68201
1.78085
1.88433
1.9951
2.11631
2.25125
2.40287
2.57349
2.76446
2.97597
3.20689
3.45482
3.71608
3.98661
4.26071
4.52767
4.77184
4.97821
5.13336
5.22739
5.25533
5.21756
5.11909
4.96791
4.77296
4.54246
4.28564
4.01054
3.72327
3.42825
3.12889
2.82864
2.53131
2.24097
1.96173
1.69754
1.4519
1.22771
1.02697
0.8507
0.698807
0.57009
0.4624
0.372886
0.298316
0.235414
0.181139
0.132906
0.0887064
0.0471704
0.00757866
-0.0301649
-0.0656012
-0.0978157
-0.125589
-0.147526
-0.162303
-0.168931
-0.166843
-0.155836
-0.136015
-0.107929
-0.0722069
-0.0294586
0.0196791
0.074361
0.133358
0.195033
0.256825
0.316208
0.371483
0.422462
0.470691
0.518987
0.570533
0.628595
0.691774
0.750271
0.789808
0.796856
0.764113
0.693829
0.597521
0.492199
0.394558
0.314219
0.248904
0.192877
0.140615
0.0851343
0.0193136
-0.0628935
-0.165585
-0.293176
-0.449393
-0.629307
-0.825571
-1.05282
-0.897584
0
1.85749
4.60726
7.81606
10.7662
12.6566
12.8694
11.2159
8.05762
4.21659
0.67956
-1.78217
-2.8878
-2.8739
-2.34393
-1.88006
-1.53823
-1.32861
-1.20458
-1.09593
-0.989904
-0.883509
-0.775766
-0.667088
-0.558987
-0.453659
-0.353788
-0.262449
-0.182678
-0.116592
-0.064896
-0.0266153
0.00122509
0.023592
0.0469765
0.0784689
0.124552
0.189933
0.276091
0.38137
0.502828
0.637416
0.782277
0.935248
1.09523
1.26215
1.43666
1.61961
1.81158
2.0126
2.22203
2.43862
2.66068
2.88633
3.11309
3.33589
3.54458
3.72571
3.86408
3.94515
3.95826
3.89891
3.76963
3.57936
3.34196
3.07437
2.79587
2.52064
2.25676
2.00852
1.77911
1.57139
1.38682
1.22561
1.08696
0.969326
0.870975
0.790423
0.726498
0.678066
0.644283
0.624451
0.61773
0.622909
0.638336
0.662021
0.691875
0.725969
0.762649
0.800672
0.83912
0.877201
0.91415
0.949231
0.981812
1.01152
1.03835
1.06276
1.08561
1.10803
1.13131
1.15665
1.18507
1.21736
1.25402
1.29532
1.34134
1.392
1.44714
1.50639
1.56907
1.63411
1.69975
1.76312
1.82035
1.86713
1.89924
1.91316
1.90665
1.87915
1.83186
1.76771
1.69101
1.60723
1.52149
1.43781
1.35859
1.28437
1.21302
1.13937
1.05632
0.956301
0.832822
0.676354
0.487269
0.2711
-0.00753336
0
0.776971
2.53626
5.1897
8.30928
11.2211
13.2036
13.7117
12.5558
9.97711
6.5849
3.16733
0.437076
-1.18664
-1.66853
-1.18262
-0.572352
-0.0217482
0.358638
0.508615
0.558152
0.581089
0.590487
0.594461
0.598484
0.605012
0.614451
0.626347
0.640353
0.656969
0.677757
0.704982
0.740839
0.786617
0.841742
0.904244
0.971747
1.04184
1.11292
1.18497
1.25994
1.34174
1.43574
1.54782
1.68335
1.84581
2.03634
2.25352
2.49344
2.7501
3.01629
3.28463
3.54839
3.80217
4.04146
4.26116
4.45558
4.62035
4.75236
4.84776
4.90241
4.9127
4.87625
4.79239
4.66237
4.48968
4.28125
4.04742
3.79879
3.5452
3.29531
3.05598
2.83246
2.62832
2.44515
2.28268
2.13931
2.01264
1.90003
1.79909
1.70794
1.62542
1.55102
1.4848
1.42726
1.37912
1.34108
1.31361
1.29667
1.28961
1.29108
1.29854
1.30801
1.31495
1.31507
1.30518
1.28382
1.25161
1.21125
1.16716
1.12472
1.08919
1.06496
1.05519
1.06118
1.08227
1.11608
1.15921
1.20816
1.26031
1.31461
1.37196
1.43488
1.50684
1.59359
1.7033
1.84167
1.99879
2.1473
2.25607
2.29925
2.26363
2.15268
1.98602
1.79433
1.61076
1.45975
1.34222
1.24797
1.16849
1.09763
1.02864
0.954118
0.866684
0.754806
0.601448
0.407991
0.183122
-0.133431
0
1.02127
3.12333
6.1654
9.63405
12.7368
14.6226
14.6797
12.796
9.44743
5.53576
2.03399
-0.38154
-1.52252
-1.63109
-1.10136
-0.537596
-0.0226057
0.35892
0.550239
0.652439
0.719503
0.766087
0.796166
0.812095
0.81736
0.816326
0.813822
0.814611
0.82274
0.840966
0.870589
0.911494
0.962288
1.02067
1.08386
1.14918
1.21494
1.28128
1.35051
1.42715
1.51736
1.62793
1.76494
1.93243
2.13138
2.35852
2.6078
2.8719
3.14292
3.41357
3.67817
3.93328
4.1776
4.41087
4.63258
4.84136
5.03341
5.201
5.33379
5.41983
5.44847
5.41278
5.3111
5.14758
4.93164
4.67645
4.39706
4.10813
3.81943
3.53616
3.26159
2.99914
2.75219
2.52433
2.31912
2.13938
1.98697
1.86366
1.76795
1.69623
1.64389
1.60614
1.57888
1.55915
1.54509
1.53564
1.53005
1.52731
1.52638
1.52608
1.52533
1.52332
1.51969
1.51456
1.50843
1.50204
1.49617
1.49157
1.4889
1.4888
1.49196
1.49924
1.51167
1.53036
1.55635
1.5904
1.63284
1.68332
1.74096
1.80446
1.87213
1.94196
2.01179
2.07932
2.1424
2.19917
2.24816
2.2883
2.31869
2.33833
2.34529
2.33691
2.31046
2.26325
2.19352
2.1013
1.98899
1.86139
1.72497
1.5867
1.45241
1.3252
1.20596
1.09279
0.981615
0.867167
0.742783
0.600172
0.437899
0.258792
0
0.172731
1.22794
3.38706
6.49896
9.98278
12.966
14.5766
14.2766
12.0887
8.60379
4.75492
1.45712
-0.715813
-1.6686
-1.68729
-1.29114
-0.915952
-0.583448
-0.312246
-0.116064
0.0313893
0.131143
0.185772
0.201707
0.189044
0.160563
0.129897
0.109157
0.105954
0.121219
0.152072
0.195299
0.24676
0.302841
0.361596
0.423208
0.489686
0.563965
0.648812
0.745786
0.854577
0.974502
1.10529
1.24721
1.40145
1.57001
1.75521
1.95884
2.18128
2.42095
2.67403
2.93505
3.19757
3.45496
3.70089
3.92917
4.133
4.30487
4.43862
4.53025
4.57541
4.57048
4.51419
4.40894
4.26113
4.08024
3.87695
3.66165
3.44217
3.22266
3.00531
2.79175
2.58349
2.38224
2.18995
2.00864
1.84006
1.68522
1.5442
1.41605
1.2991
1.19138
1.09114
0.997271
0.90946
0.828126
0.754092
0.688159
0.630682
0.58128
0.538734
0.501087
0.465907
0.430668
0.393177
0.351981
0.306693
0.258167
0.208467
0.160606
0.11807
0.0841763
0.0614638
0.0514628
0.0542975
0.0679355
0.088051
0.109609
0.128131
0.140725
0.146695
0.147582
0.146654
0.148025
0.155684
0.172265
0.19879
0.235264
0.281076
0.335121
0.395962
0.462013
0.531668
0.60327
0.675082
0.745234
0.811576
0.871435
0.921736
0.959909
0.983896
0.992588
0.986158
0.966147
0.935207
0.896505
0.852944
0.806445
0.75752
0.705214
0.64734
0.580923
0.501989
0.403797
0.27928
0.131066
-0.034224
-0.268511
0
1.18944
3.4988
6.74794
10.3309
13.3569
14.9465
14.569
12.2687
8.66133
4.69715
1.29897
-0.952428
-1.95098
-1.97497
-1.61413
-1.28355
-1.01023
-0.810429
-0.686836
-0.601033
-0.534858
-0.48035
-0.43105
-0.381176
-0.326253
-0.263438
-0.191006
-0.10953
-0.0250897
0.0524172
0.113079
0.150037
0.161869
0.153471
0.135162
0.120379
0.122845
0.151537
0.208
0.292162
0.40443
0.544421
0.710332
0.899155
1.10701
1.32953
1.56233
1.80141
2.04344
2.28583
2.52666
2.76432
2.99719
3.22313
3.43931
3.64248
3.82887
3.99366
4.13022
4.2308
4.29055
4.3046
4.26858
4.17962
4.03735
3.84485
3.60881
3.33919
3.04836
2.75056
2.45636
2.17391
1.91039
1.67139
1.46076
1.28046
1.1306
1.00961
0.914705
0.84213
0.786922
0.74359
0.706968
0.672732
0.637763
0.600287
0.559783
0.516701
0.4721
0.427299
0.383568
0.342042
0.30369
0.269275
0.239305
0.213966
0.193024
0.175786
0.161189
0.148001
0.135103
0.1218
0.108079
0.0947358
0.0833532
0.0760974
0.075398
0.0835658
0.102411
0.133063
0.175874
0.230436
0.295705
0.370168
0.451992
0.539199
0.629697
0.721304
0.811768
0.898821
0.98024
1.0539
1.11778
1.17003
1.2093
1.23473
1.24595
1.24314
1.22699
1.19867
1.15966
1.11151
1.05549
0.992408
0.922292
0.844263
0.756604
0.657059
0.543286
0.413408
0.265056
0.0976415
-0.0853662
-0.291106
-0.469467
0
1.48173
4.11257
7.58713
11.1741
13.9183
14.9758
13.9452
11.045
7.04337
2.96842
-0.271933
-2.18301
-2.77133
-2.40847
-1.82439
-1.33501
-1.02203
-0.915705
-0.897479
-0.903667
-0.92111
-0.941274
-0.957232
-0.964531
-0.960849
-0.945095
-0.917329
-0.878762
-0.831574
-0.778438
-0.723329
-0.670969
-0.625125
-0.587438
-0.556516
-0.527672
-0.493484
-0.445073
-0.373776
-0.27289
-0.141528
0.0189072
0.206574
0.418304
0.649686
0.895629
1.1509
1.4106
1.67052
1.92741
2.17904
2.42418
2.66228
2.89303
3.11559
3.32755
3.52272
3.68963
3.81723
3.89266
3.9048
3.84793
3.72401
3.54239
3.31696
3.06239
2.79166
2.51585
2.24055
1.96877
1.70298
1.44537
1.1978
0.961939
0.73951
0.533145
0.346698
0.182985
0.0445293
-0.0671768
-0.152357
-0.213281
-0.254062
-0.279945
-0.296322
-0.307815
-0.317729
-0.327777
-0.338669
-0.35055
-0.363423
-0.377281
-0.392069
-0.407404
-0.422252
-0.434755
-0.442328
-0.442036
-0.431163
-0.407966
-0.372363
-0.325542
-0.269859
-0.208711
-0.146397
-0.0875677
-0.0362944
0.00464745
0.0343281
0.0539425
0.0667431
0.0776218
0.092395
0.116895
0.155709
0.211593
0.285225
0.375702
0.479996
0.591649
0.701582
0.799695
0.876584
0.92538
0.942294
0.926932
0.882154
0.813522
0.728373
0.63463
0.539554
0.448579
0.364229
0.28651
0.214182
0.14491
0.0751099
0
-0.0801094
-0.177951
-0.299881
-0.453115
-0.664305
-0.935619
-1.25368
-1.79212
-1.87313
-0.844596
1.62825
5.41686
9.83798
13.8051
16.1976
16.2936
14.0671
10.1985
5.78825
1.91429
-0.750162
-2.08591
-2.40937
-2.17813
-1.89465
-1.6202
-1.36939
-1.15511
-0.974228
-0.816778
-0.676617
-0.549585
-0.432125
-0.321076
-0.213577
-0.107161
-0.000189209
0.107883
0.216545
0.32448
0.430207
0.532808
0.632509
0.73095
0.831044
0.936493
1.05114
1.17837
1.32054
1.47911
1.65528
1.85016
2.06489
2.30067
2.55846
2.83853
3.13995
3.46022
3.7951
4.13878
4.48415
4.82309
5.14467
5.43556
5.68648
5.89035
6.04278
6.14211
6.18899
6.18552
6.1344
6.0382
5.8995
5.72516
5.52156
5.29379
5.04682
4.78642
4.51898
4.25031
3.98532
3.72803
3.48137
3.2474
3.02749
2.82264
2.63369
2.46142
2.30659
2.16981
2.05143
1.95145
1.86941
1.80433
1.75466
1.7183
1.69254
1.67399
1.65868
1.64258
1.62223
1.59535
1.56128
1.52114
1.47768
1.43479
1.39674
1.36722
1.34881
1.34293
1.34964
1.36794
1.39583
1.43112
1.47201
1.51751
1.56757
1.62292
1.68471
1.75398
1.83118
1.91562
2.00573
2.09862
2.18971
2.27287
2.34179
2.39074
2.41545
2.41371
2.38578
2.33421
2.26348
2.17917
2.08736
1.99375
1.90241
1.81595
1.73578
1.66179
1.5921
1.52289
1.44863
1.36286
1.25913
1.13221
0.977376
0.787849
0.570208
0.336104
0
0.213908
1.39657
3.76747
7.12854
10.7998
13.7998
15.2107
14.5584
12.0098
8.28916
4.37071
1.11073
-1.00678
-1.9274
-1.89444
-1.32539
-0.720875
-0.182955
0.193241
0.369023
0.488021
0.593913
0.696203
0.798453
0.902774
1.0101
1.11928
1.22569
1.32198
1.40027
1.45444
1.48225
1.48665
1.47577
1.46167
1.45801
1.47751
1.52584
1.60304
1.70773
1.83835
1.99237
2.16592
2.35435
2.55277
2.75663
2.96221
3.16698
3.36982
3.57091
3.77141
3.97289
4.17664
4.38321
4.59153
4.79707
4.99042
5.15957
5.29201
5.37668
5.40543
5.37376
5.28087
5.12927
4.92446
4.67451
4.39245
4.09184
3.78397
3.47759
3.17977
2.89673
2.63334
2.39285
2.17682
1.98517
1.81655
1.66873
1.53921
1.42571
1.3265
1.24057
1.16745
1.10697
1.05895
1.02284
0.997499
0.981386
11
154
296
444
590
734
876
1017
1150
1282
1414
1549
1687
1830
1966
2101
2240
2386
2528
2666
2804
2943
3084
3232
3378
3526
3668
3500
3620
3741
0
0
0
0
0
0
0
0
0
0
0
0
0
0
0
0
0
0
0
0
0
0
0
0
0
0
0
0
0
0
0
0
0
0
0
0
0
0
0
0
0
0
0
0
0
0
0
0
0
0
0
0
0
0
0
0
0
0
0
0
0
0
0
0
0
0
0
0
0
0
0
0
0
0
0
0
0
0
0
0
0
0
0
0
0
0
0
0
0
0
0
0
0
0
0
0
0
0
0
0
0
0
0
0
0
0
0
0
0
0
0
0
0
0
0
0
0
0
0
0
0
0
0
0
0
0
0
0
0
0
0
0
0
0
0
0
0
0
0
0
0
0
0
0
0
0
0
0
0
0
0
0
0
0
0
0
0
0
0
0
0
0
0
0
0
0
0
0
0
0
0
0
0
0
0
0
0
0
0
0
0
0
0
0
0
0
0
0
0
0
0
0
0
0
0
0
0
0
0
0
0
0
0
0
0
0
0
0
0
0
0
0
0
0
0
0
0
0
0
0
0
0
0
0
0
0
0
0
0
0
0
0
0
0
0
0
0
0
0
0
0
0
0
0
0
0
0
0
0
0
0
0
0
0
0
0
0
0
0
0
0
0
0
0
0
0
0
0
0
0
0
0
0
0
0
0
0
0
0
0
0
0
0
0
0
0
0
0
0
0
0
0
0
0
0
0
0
0
0
0
0
0
0
0
0
0
0
0
0
0
0
0
0
0
0
0
0
0
0
0
0
0
0
0
0
0
0
0
0
0
0
0
0
0
0
0
0
0
0
0
0
0
0
0
0
0
0
0
0
0
0
0
0
0
0
0
0
0
0
0
0
0
0
0
0
0
0
0
0
0
0
0
0
0
0
0
0
0
0
0
0
0
0
0
0
0
0
0
0
0
0
0
0
0
0
0
0
0
0
0
0
0
0
0
0
0
0
0
0
0
0
0
0
0
0
0
0
0
0
0
0
0
0
0
0
0
0
0
0
0
0
0
0
0
0
0
0
0
0
0
0
0
0
0
0
0
0
0
0
0
0
0
0
0
0
0
0
0
0
0
0
0
0
0
0
0
0
0
0
0
0
0
0
0
0
0
0
0
0
0
0
0
0
0
0
0
0
0
0
0
0
0
0
0
0
0
0
0
0
0
0
0
0
0
0
0
0
0
0
0
0
0
0
0
0
0
0
0
0
0
0
0
0
0
0
0
0
0
0
0
0
0
0
0
0
0
0
0
0
0
0
0
0
0
0
0
0
0
0
0
0
0
0
0
0
0
0
0
0
0
0
0
0
0
0
0
0
0
0
0
0
0
0
0
0
0
0
0
0
0
0
0
0
0
0
0
0
0
0
0
0
0
0
0
0
0
0
0
0
0
0
0
0
0
0
0
0
0
0
0
0
0
0
0
0
0
0
0
0
0
0
0
0
0
0
0
0
0
0
0
0
0
0
0
0
0
0
0
0
0
0
0
0
0
0
0
0
0
0
0
0
0
0
0
0
0
0
0
0
0
0
0
0
0
0
0
0
0
0
0
0
0
0
0
0
0
0
0
0
0
0
0
0
0
0
0
0
0
0
0
0
0
0
0
0
0
0
0
0
0
0
0
0
0
0
0
0
0
0
0
0
0
0
0
0
0
0
0
0
0
0
0
0
0
0
0
0
0
0
0
0
0
0
0
0
0
0
0
0
0
0
0
0
0
0
0
0
0
0
0
0
0
0
0
0
0
0
0
0
0
0
0
0
0
0
0
0
0
0
0
0
0
0
0
0
0
0
0
0
0
0
0
0
0
0
0
0
0
0
0
0
0
0
0
0
0
0
0
0
0
0
0
0
0
0
0
0
0
0
0
0
0
0
0
0
0
0
0
0
0
0
0
0
0
0
0
0
0
0
0
0
0
0
0
0
0
0
0
0
0
0
0
0
0
0
0
0
0
0
0
0
0
0
0
0
0
0
0
0
0
0
0
0
0
0
0
0
0
0
0
0
0
0
0
0
0
0
0
0
0
0
0
0
0
0
0
0
0
0
0
0
0
0
0
0
0
0
0
0
0
0
0
0
0
0
0
0
0
0
0
0
0
0
0
0
0
0
0
0
0
0
0
0
0
0
0
0
0
0
0
0
0
0
0
0
0
0
0
0
0
0
0
0
0
0
0
0
0
0
0
0
0
0
0
0
0
0
0
0
0
0
0
0
0
0
0
0
0
0
0
0
0
0
0
0
0
0
0
0
0
0
0
0
0
0
0
0
0
0
0
0
0
0
0
0
0
0
0
0
0
0
0
0
0
0
0
0
0
0
0
0
0
0
0
0
0
0
0
0
0
0
0
0
0
0
0
0
0
0
0
0
0
0
0
0
0
0
0
0
0
0
0
0
0
0
0
0
0
0
0
0
0
0
0
0
0
0
0
0
0
0
0
0
0
0
0
0
0
0
0
0
0
0
0
0
0
0
0
0
0
0
0
0
0
0
0
0
0
0
0
0
0
0
0
0
0
0
0
0
0
0
0
0
0
0
0
0
0
0
0
0
0
0
0
0
0
0
0
0
0
0
0
0
0
0
0
0
0
0
0
0
0
0
0
0
0
0
0
0
0
0
0
0
0
0
0
0
0
0
0
0
0
0
0
0
0
0
0
0
0
0
0
0
0
0
0
0
0
0
0
0
0
0
0
0
0
0
0
0
0
0
0
0
0
0
0
0
0
0
0
0
0
0
0
0
0
0
0
0
0
0
0
0
0
0
0
0
0
0
0
0
0
0
0
0
0
0
0
0
0
0
0
0
0
0
0
0
0
0
0
0
0
0
0
0
0
0
0
0
0
0
0
0
0
0
0
0
0
0
0
0
0
0
0
0
0
0
0
0
0
0
0
0
0
0
0
0
0
0
0
0
0
0
0
0
0
0
0
0
0
0
0
0
0
0
0
0
0
0
0
0
0
0
0
0
0
0
0
0
0
0
0
0
0
0
0
0
0
0
0
0
0
0
0
0
0
0
0
0
0
0
0
0
0
0
0
0
0
0
0
0
0
0
0
0
0
0
0
0
0
0
0
0
0
0
0
0
0
0
0
0
0
0
0
0
0
0
0
0
0
0
0
0
0
0
0
0
0
0
0
0
0
0
0
0
0
0
0
0
0
0
0
0
0
0
0
0
0
0
0
0
0
0
0
0
0
0
0
0
0
0
0
0
0
0
0
0
0
0
0
0
0
0
0
0
0
0
0
0
0
0
0
0
0
0
0
0
0
0
0
0
0
0
0
0
0
0
0
0
0
0
0
0
0
0
0
0
0
0
0
0
0
0
0
0
0
0
0
0
0
0
0
0
0
0
0
0
0
0
0
0
0
0
0
0
0
0
0
0
0
0
0
0
0
0
0
0
0
0
0
0
0
0
0
0
0
0
0
0
0
0
0
0
0
0
0
0
0
0
0
0
0
0
0
0
0
0
0
0
0
0
0
0
0
0
0
0
0
0
0
0
0
0
0
0
0
0
0
0
0
0
0
0
0
0
0
0
0
0
0
0
0
0
0
0
0
0
0
0
0
0
0
0
0
0
0
0
0
0
0
0
0
0
0
0
0
0
0
0
0
0
0
0
0
0
0
0
0
0
0
0
0
0
0
0
0
0
0
0
0
0
0
0
0
0
0
0
0
0
0
0
0
0
0
0
0
0
0
0
0
0
0
0
0
0
0
0
0
0
0
0
0
0
0
0
0
0
0
0
0
0
0
0
0
0
0
0
0
0
0
0
0
0
0
0
0
0
0
0
0
0
0
0
0
0
0
0
0
0
0
0
0
0
0
0
0
0
0
0
0
0
0
0
0
0
0
0
0
0
0
0
0
0
0
0
0
0
0
0
0
0
0
0
0
0
0
0
0
0
0
0
0
0
0
0
0
0
0
0
0
0
0
0
0
0
0
0
0
0
0
0
0
0
0
0
0
0
0
0
0
0
0
0
0
0
0
0
0
0
0
0
0
0
0
0
0
0
0
0
0
0
0
0
0
0
0
0
0
0
0
0
0
0
0
0
0
0
0
0
0
0
0
0
0
0
0
0
0
0
0
0
0
0
0
0
0
0
0
0
0
0
0
0
0
0
0
0
0
0
0
0
0
0
0
0
0
0
0
0
0
0
0
0
0
0
0
0
0
0
0
0
0
0
0
0
0
0
0
0
0
0
0
0
0
0
0
0
0
0
0
0
0
0
0
0
0
0
0
0
0
0
0
0
0
0
0
0
0
0
0
0
0
0
0
0
0
0
0
0
0
0
0
0
0
0
0
0
0
0
0
0
0
0
0
0
0
0
0
0
0
0
0
0
0
0
0
0
0
0
0
0
0
0
0
0
0
0
0
0
0
0
0
0
0
0
0
0
0
0
0
0
0
0
0
0
0
0
0
0
0
0
0
0
0
0
0
0
0
0
0
0
0
0
0
0
0
0
0
0
0
0
0
0
0
0
0
0
0
0
0
0
0
0
0
0
0
0
0
0
0
0
0
0
0
0
0
0
0
0
0
0
0
0
0
0
0
0
0
0
0
0
0
0
0
0
0
0
0
0
0
0
0
0
0
0
0
0
0
0
0
0
0
0
0
0
0
0
0
0
0
0
0
0
0
0
0
0
0
0
0
0
0
0
0
0
0
0
0
0
0
0
0
0
0
0
0
0
0
0
0
0
0
0
0
0
0
0
0
0
0
0
0
0
0
0
0
0
0
0
0
0
0
0
0
0
0
0
0
0
0
0
0
0
0
0
0
0
0
0
0
0
0
0
0
0
0
0
0
0
0
0
0
0
0
0
0
0
0
0
0
0
0
0
0
0
0
0
0
0
0
0
0
0
0
0
0
0
0
0
0
0
0
0
0
0
0
0
0
0
0
0
0
0
0
0
0
0
0
0
0
0
0
0
0
0
0
0
0
0
0
0
0
0
0
0
0
0
0
0
0
0
0
0
0
0
0
0
0
0
0
0
0
0
0
0
0
0
0
0
0
0
0
0
0
0
0
0
0
0
0
0
0
0
0
0
0
0
0
0
0
0
0
0
0
0
0
0
0
0
0
0
0
0
0
0
0
0
0
0
0
0
0
0
0
0
0
0
0
0
0
0
0
0
0
0
0
0
0
0
0
0
0
0
0
0
0
0
0
0
0
0
0
0
0
0
0
0
0
0
0
0
0
0
0
0
0
0
0
0
0
0
0
0
0
0
0
0
0
0
0
0
0
0
0
0
0
0
0
0
0
0
0
0
0
0
0
0
0
0
0
0
0
0
0
0
0
0
0
0
0
0
0
0
0
0
0
0
0
0
0
0
0
0
0
0
0
0
0
0
0
0
0
0
0
0
0
0
0
0
0
0
0
0
0
0
0
0
0
0
0
0
0
0
0
0
0
0
0
0
0
0
0
0
0
0
0
0
0
0
0
0
0
0
0
0
0
0
0
0
0
0
0
0
0
0
0
0
0
0
0
0
0
0
0
0
0
0
0
0
0
0
0
0
0
0
0
0
0
0
0
0
0
0
0
0
0
0
0
0
0
0
0
0
0
0
0
0
0
0
0
0
0
0
0
0
0
0
0
0
0
0
0
0
0
0
0
0
0
0
0
0
0
0
0
0
0
0
0
0
0
0
0
0
0
0
0
0
0
0
0
0
0
0
0
0
0
0
0
0
0
0
0
0
0
0
0
0
0
0
0
0
0
0
0
0
0
0
0
0
0
0
0
0
0
0
0
0
0
0
0
0
0
0
0
0
0
0
0
0
0
0
0
0
0
0
0
0
0
0
0
0
0
0
0
0
0
0
0
0
0
0
0
0
0
0
0
0
0
0
0
0
0
0
0
0
0
0
0
0
0
0
0
0
0
0
0
0
0
0
0
0
0
0
0
0
0
0
0
0
0
0
0
0
0
0
0
0
0
0
0
0
0
0
0
0
0
0
0
0
0
0
0
0
0
0
0
0
0
0
0
0
0
0
0
0
0
0
0
0
0
0
0
0
0
0
0
0
0
0
0
0
0
0
0
0
0
0
0
0
0
0
0
0
0
0
0
0
0
0
0
0
0
0
0
0
0
0
0
0
0
0
0
0
0
0
0
0
0
0
0
0
0
0
0
0
0
0
0
0
0
0
0
0
0
0
0
0
0
0
0
0
0
0
0
0
0
0
0
0
0
0
0
0
0
0
0
0
0
0
0
0
0
0
0
0
0
0
0
0
0
0
0
0
0
0
0
0
0
0
0
0
0
0
0
0
0
0
0
0
0
0
0
0
0
0
0
0
0
0
0
0
0
0
0
0
0
0
0
0
0
0
0
0
0
0
0
0
0
0
0
0
0
0
0
0
0
0
0
0
0
0
0
0
0
0
0
0
0
0
0
0
0
0
0
0
0
0
0
0
0
0
0
0
0
0
0
0
0
0
0
0
0
0
0
0
0
0
0
0
0
0
0
0
0
0
0
0
0
0
0
0
0
0
0
0
0
0
0
0
0
0
0
0
0
0
0
0
0
0
0
0
0
0
0
0
0
0
0
0
0
0
0
0
0
0
0
0
0
0
0
0
0
0
0
0
0
0
0
0
0
0
0
0
0
0
0
0
0
0
0
0
0
0
0
0
0
0
0
0
0
0
0
0
0
0
0
0
0
0
0
0
0
0
0
0
0
0
0
0
0
0
0
0
0
0
0
0
0
0
0
0
0
0
0
0
0
0
0
0
0
0
0
0
0
0
0
0
0
0
0
0
0
0
0
0
0
0
0
0
0
0
0
0
0
0
0
0
0
0
0
0
0
0
0
0
0
0
0
0
0
0
0
0
0
0
0
0
0
0
0
0
0
0
0
0
0
0
0
0
0
0
0
0
0
0
0
0
0
0
0
0
0
0
0
0
0
0
0
0
0
0
0
0
0
0
0
0
0
0
0
0
0
0
0
0
0
0
0
0
0
0
0
0
0
0
0
0
0
0
0
0
0
0
0
0
0
0
0
0
0
0
0
0
0
0
0
0
0
0
0
0
0
0
0
0
0
0
0
0
0
0
0
0
0
0
0
0
0
0
0
0
0
0
0
0
0
0
0
0
0
0
0
0
0
0
0
0
0
0
0
0
0
0
0
0
0
0
0
0
0
0
0
0
0
0
0
0
0
0
0
0
0
0
0
0
0
0
0
0
0
0
0
0
0
0
0
0
0
0
0
0
0
0
0
0
0
0
0
0
0
0
0
0
0
0
0
0
0
0
0
0
0
0
0
0
0
0
0
0
0
0
0
0
0
0
0
0
0
0
0
0
0
0
0
0
0
0
0
0
0
0
0
0
0
0
0
0
0
0
0
0
0
0
0
0
0
0
0
0
0
0
0
0
0
0
0
0
0
0
0
0
0
0
0
0
0
0
0
0
0
0
0
0
0
0
0
0
0
0
0
0
0
0
0
0
0
0
0
0
0
0
0
0
0
0
0
0
0
0
0
0
0
0
0
0
0
0
0
0
0
0
0
0
0
0
0
0
0
0
0
0
0
0
0
0
0
0
0
0
0
0
0
0
0
0
0
0
0
0
0
0
0
0
0
0
0
0
0
0
0
0
0
0
0
0
0
0
0
0
0
0
0
0
0
0
0
0
0
0
0
0
0
0
0
0
0
0
0
0
0
0
0
0
0
0
0
0
0
0
0
0
0
0
0
0
0
0
0
0
0
0
0
0
0
0
0
0
0
0
0
0
0
0
0
0
0
0
0
0
0
0
0
0
0
0
0
0
0
0
0
0
0
0
0
0
0
0
0
0
0
0
0
0
0
0
0
0
0
0
0
0
0
0
0
0
0
0
0
0
0
0
0
0
0
0
0
0
0
0
0
0
0
0
0
0
0
0
0
0
0
0
0
0
0
0
0
0
0
0
0
0
0
0
0
0
0
0
0
0
0
0
0
0
0
0
0
0
0
0
0
0
0
0
0
0
0
0
0
0
0
0
0
0
0
0
0
0
0
0
0
0
0
0
0
0
0
0
0
0
0
0
0
0
0
0
0
0
0
0
0
0
0
0
0
0
0
0
0
0
0
0
0
0
0
0
0
0
0
0
0
0
0
0
0
0
0
0
0
0
0
0
0
0
0
0
0
0
0
0
0
0
0
0
0
0
0
0
0
0
0
0
0
0
0
0
0
0
0
0
0
0
0
0
0
0
0
0
0
0
0
0
0
0
0
0
0
0
0
0
0
0
0
0
0
0
0
0
0
0
0
0
0
0
0
0
0
0
0
0
0
0
0
0
0
0
0
0
0
0
0
0
0
0
0
0
0
0
0
0
0
0
0
0
0
0
0
0
0
0
0
0
0
0
0
0
0
0
0
0
0
0
0
0
0
0
0
0
0
0
0
0
0
0
0
0
0
0
0
0
0
0
0
0
0
0
0
0
0
0
0
0
0
0
0
0
0
0
0
0
0
0
0
0
