-0.641697
-0.630437
-0.617348
-0.60456
-0.593117
-0.583139
-0.574048
-0.564847
-0.55439
-0.541628
-0.525773
-0.506344
-0.483162
-0.456337
-0.426242
-0.393468
-0.358783
-0.323067
-0.287243
-0.252163
-0.218484
-0.186505
-0.155958
-0.125932
-0.0949036
-0.060911
-0.0218925
0.0238556
0.0771959
0.137775
0.204063
0.27321
0.341329
0.404613
0.460185
0.506686
0.544449
0.575212
0.60151
0.625941
0.650545
0.676397
0.703782
0.732506
0.762162
0.792427
0.823274
0.855032
0.888277
0.92361
0.961364
1.0014
1.04287
1.08403
1.12241
1.15519
1.17952
1.19283
1.19315
1.17929
1.15103
1.10923
1.05592
0.994016
0.927139
0.859245
0.794125
0.734703
0.682732
0.63916
0.603901
0.575975
0.553764
0.535286
0.51849
0.50153
0.482974
0.461959
0.438246
0.412285
0.385217
0.358866
0.335622
0.317915
0.307821
0.306702
0.314971
0.332057
0.356627
0.386996
0.421632
0.459589
0.500535
0.544715
0.59285
0.645658
0.703524
0.766279
0.833277
0.903597
0.976279
1.05059
1.12618
1.20313
1.28178
1.36268
1.44591
1.52925
1.60662
1.66938
1.70799
1.71399
1.68153
1.60826
1.49566
1.34908
1.17752
0.994259
0.811454
0.637451
0.477241
0.33426
0.211329
0.109404
0.0276745
-0.035857
-0.0837658
-0.118593
-0.142371
-0.15638
-0.16117
-0.15682
-0.142832
-0.118327
-0.0837879
-0.0426497
0
0.0300884
-0.0989237
-0.478137
-1.05873
-1.69979
-1.74822
-0.494374
2.49248
7.01364
12.1512
16.5696
19.0742
19.1175
16.9796
13.5528
9.88496
6.74756
4.43563
2.84669
1.72213
0.862593
0.272087
0.0505751
-0.15517
-0.336854
-0.486652
-0.600474
-0.677296
-0.718115
-0.725759
-0.704869
-0.661877
-0.604709
-0.542016
-0.481929
-0.42997
-0.387584
-0.354796
-0.329735
-0.308975
-0.288406
-0.264207
-0.233799
-0.196558
-0.153197
-0.105151
-0.0543537
-0.00296173
0.0470207
0.09403
0.137167
0.176294
0.21201
0.245542
0.278529
0.31274
0.349745
0.390612
0.435696
0.484558
0.536156
0.589006
0.641586
0.692689
0.74166
0.788446
0.833478
0.877401
0.920796
0.963956
1.0068
1.04891
1.08976
1.12883
1.16587
1.20098
1.23458
1.26737
1.30008
1.33338
1.36761
1.40276
1.43842
1.4738
1.50786
1.53937
1.56701
1.58933
1.60489
1.61253
1.6113
1.6006
1.58026
1.55058
1.51235
1.46672
1.41503
1.35875
1.29932
1.23804
1.17608
1.11468
1.05516
0.999008
0.947704
0.902568
0.864631
0.834684
0.812591
0.796248
0.782592
0.768281
0.750433
0.727279
0.698546
0.665503
0.630655
0.597203
0.56804
0.545336
0.530732
0.524994
0.528247
0.540038
0.559898
0.58773
0.624003
0.669661
0.725763
0.792973
0.871083
0.958349
1.05227
1.15
1.24849
1.34504
1.43755
1.52473
1.60603
1.68128
1.75032
1.81286
1.86831
1.91546
1.9522
1.97511
1.97948
1.96103
1.91558
1.8399
1.73262
1.59521
1.43251
1.25249
1.0654
0.882208
0.711177
0.557093
0.423905
0.313267
0.224759
0.156392
0.105247
0.0680931
0.0418781
0.0240055
0.0124104
0.0054657
0.00178566
0
0.000455093
-0.000978851
-0.0111267
-0.0963081
-0.352032
-0.769873
-1.2672
-1.3689
-0.395601
2.13532
6.18996
11.0337
15.4103
18.0563
18.2805
16.2636
12.8978
9.28989
6.25162
4.06844
2.60821
1.60146
0.861706
0.448085
0.323478
0.211319
0.113351
0.0308784
-0.0353642
-0.0852463
-0.119221
-0.138025
-0.142584
-0.134006
-0.11362
-0.0830299
-0.0441288
0.000946426
0.0499138
0.100471
0.150552
0.19842
0.242779
0.282848
0.318364
0.349519
0.376807
0.400822
0.421997
0.440662
0.457153
0.471893
0.485682
0.499927
0.516673
0.538334
0.567174
0.604638
0.650745
0.704281
0.762184
0.819597
0.871637
0.914648
0.947133
0.970078
0.986618
1.00112
1.01801
1.04055
1.06974
1.105
1.14499
1.18795
1.23194
1.27533
1.31723
1.35765
1.39744
1.43803
1.48104
1.52774
1.57871
1.63376
1.69132
1.74806
1.79954
1.84123
1.8693
1.88122
1.87599
1.85403
1.81676
1.76615
1.70422
1.63333
1.55568
1.47309
1.38715
1.29946
1.21182
1.12621
1.04468
0.969241
0.901706
0.843587
0.796016
0.759615
0.734425
0.720009
0.715484
0.71913
0.728205
0.739521
0.750048
0.757356
0.759957
0.75746
0.750519
0.740622
0.729794
0.720289
0.714251
0.71362
0.720192
0.735738
0.761642
0.798736
0.847074
0.905752
0.972882
1.04575
1.12119
1.19606
1.26776
1.33456
1.39576
1.45155
1.50271
1.54997
1.59359
1.63291
1.66609
1.69007
1.7009
1.69431
1.66636
1.61407
1.53596
1.43248
1.30622
1.16237
1.00779
0.849675
0.694729
0.548719
0.416531
0.301666
0.206041
0.130017
0.0726532
0.0320183
0.00556355
-0.00942497
-0.0155035
-0.0148632
-0.00925064
0
0.0206089
0.042955
0.0662916
0.0892622
0.044746
-0.243659
-0.804854
-1.4774
-1.79693
-1.09624
1.18039
5.08954
9.95205
14.487
17.3215
17.6229
15.4821
11.8152
7.85973
4.59118
2.39997
1.1493
0.47426
0.0724798
-0.00725136
-0.049305
-0.0818974
-0.104002
-0.115409
-0.116454
-0.107773
-0.0901663
-0.0645992
-0.0319277
0.00686836
0.0495335
0.0928036
0.133627
0.169969
0.201431
0.229383
0.256506
0.285918
0.320212
0.360445
0.40594
0.455681
0.508701
0.563986
0.62061
0.67778
0.734784
0.790892
0.845304
0.897199
0.94589
0.991002
1.03264
1.07146
1.1086
1.14552
1.18366
1.22413
1.26745
1.31346
1.36142
1.41018
1.45849
1.50544
1.55073
1.59476
1.63847
1.68306
1.72958
1.7785
1.82968
1.88214
1.93436
1.98491
2.03308
2.07926
2.12508
2.1731
2.22628
2.2872
2.35795
2.44058
2.53396
2.63118
2.72118
2.79251
2.83548
2.84377
2.81538
2.75297
2.66359
2.55773
2.44774
2.34473
2.25433
2.17772
2.11464
2.06526
2.02846
2.00209
1.98347
1.96996
1.95929
1.94987
1.94083
1.93202
1.9238
1.91679
1.91172
1.90921
1.90969
1.91329
1.91989
1.92905
1.94009
1.95235
1.96557
1.98011
1.99716
2.01864
2.04693
2.08446
2.13308
2.19333
2.26486
2.34632
2.43544
2.52943
2.62542
2.72102
2.8144
2.90452
2.99094
3.07361
3.15244
3.22685
3.2952
3.35422
3.39938
3.42518
3.42592
3.39683
3.33513
3.24089
3.11744
2.97122
2.81109
2.64737
2.48838
2.33938
2.2046
2.08688
1.98736
1.9057
1.8404
1.78932
1.7502
1.72101
1.70034
1.68741
1.6821
1.6847
1.69569
1.71588
1.74557
1.78298
1.82506
1.86865
1.79793
1.4272
0.808959
0.148782
0
1.00966
3.63634
7.81076
12.7716
17.2513
19.9836
20.2726
18.287
14.9032
11.2173
8.04592
5.69915
4.08283
2.96309
2.16878
1.69724
1.6212
1.55421
1.49856
1.45574
1.42594
1.40738
1.39701
1.39168
1.38889
1.38729
1.38682
1.3885
1.39383
1.40427
1.42041
1.44196
1.46817
1.49805
1.53044
1.56421
1.59847
1.63256
1.6661
1.69887
1.73079
1.76192
1.79246
1.82285
1.85376
1.88609
1.92089
1.95917
2.00177
2.04913
2.10116
2.15718
2.21591
2.27567
2.33455
2.39072
2.44267
2.48947
2.53087
2.56729
2.59966
2.62921
2.6572
2.68469
2.71234
2.74041
2.76884
2.79735
2.82575
2.85408
2.88273
2.91246
2.94423
2.9789
3.01706
3.05882
3.10344
3.1491
3.19299
3.23139
3.26041
3.27674
3.27804
3.2633
3.23301
3.18906
3.13436
3.07229
3.00605
2.93818
2.87017
2.80265
2.73584
2.66985
2.60487
2.54132
2.47991
2.42161
2.36761
2.31928
2.27805
2.24516
2.22138
2.20697
2.20158
2.20414
2.21295
2.22584
2.24056
2.25517
2.26846
2.28021
2.29116
2.30291
2.31763
2.33771
2.36518
2.40147
2.44721
2.50222
2.56555
2.63566
2.71073
2.78895
2.86878
2.94904
3.02896
3.10805
3.18598
3.26233
3.3364
3.40686
3.47108
3.52475
3.56288
3.57971
3.56926
3.52633
3.44761
3.3327
3.18468
3.01023
2.81903
2.62314
2.43223
2.25286
2.09031
1.94837
1.82874
1.73098
1.65274
1.59072
1.54138
1.50163
1.46931
1.44324
1.4231
1.40893
1.40101
1.39896
1.40002
1.39917
1.38972
1.35215
1.17551
0.859055
0.447999
0
0.281794
1.91266
5.24039
9.98429
15.1496
19.3416
21.3648
20.7754
18.048
14.2654
10.5452
7.56775
5.45302
3.96617
2.82665
1.89994
1.63728
1.3903
1.17216
0.991802
0.853091
0.755114
0.693253
0.660648
0.649619
0.652394
0.662483
0.67511
0.687067
0.696513
0.702709
0.705718
0.706209
0.705315
0.704445
0.705093
0.708672
0.716348
0.728937
0.746796
0.769722
0.796921
0.827112
0.858561
0.889321
0.91768
0.942507
0.963498
0.981246
0.997121
1.013
1.03091
1.05271
1.07969
1.11271
1.15205
1.19747
1.24813
1.30269
1.35932
1.41594
1.47028
1.52031
1.56446
1.60196
1.63289
1.65825
1.67973
1.69949
1.71979
1.74269
1.76976
1.80205
1.83999
1.88338
1.93148
1.98308
2.03635
2.0885
2.1355
2.17264
2.1955
2.20038
2.18502
2.14923
2.09511
2.02694
1.95048
1.87192
1.79655
1.72717
1.66441
1.60802
1.55698
1.50953
1.46376
1.41814
1.3719
1.32519
1.27899
1.23483
1.19445
1.15931
1.13047
1.10842
1.09308
1.08398
1.0803
1.08101
1.08506
1.09142
1.09911
1.10728
1.11535
1.12322
1.13137
1.14083
1.15308
1.16973
1.1922
1.2214
1.25734
1.29918
1.34558
1.39488
1.44542
1.49594
1.54592
1.5958
1.64695
1.70132
1.76094
1.82808
1.90581
1.99247
2.07907
2.1538
2.20505
2.22397
2.20556
2.14829
2.05313
1.92289
1.76365
1.58582
1.39872
1.21037
1.02775
0.85609
0.698914
0.559016
0.437662
0.334735
0.249096
0.179035
0.122699
0.078384
0.0446661
0.0203934
0.00456467
-0.00388145
-0.00632648
-0.00473728
-0.00167007
0
-0.00548038
-0.0567146
-0.308087
-0.75806
-1.32249
-1.66245
-1.06225
1.07902
4.90735
9.83033
14.6135
17.8738
18.7155
17.1291
13.9163
10.2143
6.9417
4.49481
2.8038
1.60834
0.712201
0.112111
-0.0333139
-0.169291
-0.291821
-0.396951
-0.482018
-0.545844
-0.588209
-0.609733
-0.611785
-0.59642
-0.566328
-0.524755
-0.475381
-0.422234
-0.369023
-0.318991
-0.274718
-0.23783
-0.208787
-0.186823
-0.170065
-0.155848
-0.141184
-0.12331
-0.100252
-0.0712053
-0.036524
0.00250149
0.0439775
0.0857483
0.12584
0.162815
0.195971
0.225365
0.251693
0.276074
0.299809
0.324167
0.350228
0.37879
0.410326
0.444982
0.482601
0.522772
0.564895
0.608239
0.652015
0.695425
0.737724
0.778283
0.816681
0.852763
0.88666
0.918781
0.949736
0.980233
1.01096
1.04251
1.07528
1.10947
1.14502
1.1816
1.21848
1.25436
1.28736
1.31523
1.33549
1.34565
1.3434
1.32677
1.29437
1.24552
1.18103
1.1028
1.01358
0.917311
0.818749
0.722979
0.634323
0.555949
0.490196
0.438099
0.399391
0.372568
0.354971
0.343136
0.333691
0.323889
0.312008
0.297528
0.281098
0.264278
0.249134
0.237772
0.231754
0.231924
0.238618
0.251547
0.269999
0.293105
0.320115
0.350613
0.384625
0.422598
0.465227
0.513217
0.56705
0.626805
0.692091
0.762147
0.836028
0.912866
0.992116
1.07372
1.15814
1.2466
1.34167
1.44663
1.55905
1.66601
1.74958
1.79208
1.78119
1.71274
1.59085
1.42624
1.23405
1.03231
0.83609
0.651895
0.481856
0.327605
0.191384
0.074366
-0.0232912
-0.102239
-0.163667
-0.209016
-0.239743
-0.25717
-0.262407
-0.256345
-0.239745
-0.213369
-0.178213
-0.136047
-0.0899994
-0.0435015
0
0.0250065
-0.197035
-0.680063
-1.33493
-1.8292
-1.47062
0.376141
3.92658
8.67471
13.441
16.8217
17.8235
16.3144
13.0237
9.11263
5.60453
3.01745
1.35623
0.362793
-0.211442
-0.454431
-0.403326
-0.350231
-0.297286
-0.246352
-0.198828
-0.155478
-0.115999
-0.0797155
-0.0454672
-0.0117111
0.023226
0.0608395
0.102139
0.147395
0.196025
0.246663
0.29732
0.345787
0.390079
0.428799
0.461375
0.48811
0.510063
0.528834
0.546304
0.564404
0.584867
0.609168
0.638438
0.673352
0.714043
0.760056
0.810387
0.863627
0.918185
0.972558
1.02561
1.0768
1.12621
1.17446
1.22252
1.27135
1.3216
1.37341
1.42634
1.47934
1.53106
1.58022
1.626
1.66844
1.70849
1.74796
1.78922
1.83472
1.88649
1.94562
2.01197
2.08431
2.16062
2.2383
2.31431
2.3855
2.44869
2.50089
2.53973
2.56329
2.57016
2.55961
2.53173
2.48753
2.42904
2.3592
2.28161
2.2003
2.11895
2.04059
1.96755
1.90134
1.84259
1.79123
1.74662
1.70788
1.67412
1.64469
1.61933
1.59826
1.58205
1.57157
1.56772
1.57122
1.5824
1.60113
1.6267
1.65744
1.69047
1.72243
1.75041
1.77276
1.7896
1.80301
1.81675
1.83561
1.86438
1.90647
1.96257
2.03158
2.11161
2.20015
2.29415
2.3904
2.48611
2.57917
2.66832
2.75302
2.83309
2.90812
2.97703
3.03748
3.08619
3.11864
3.12979
3.11501
3.07092
2.99615
2.89165
2.76085
2.60953
2.44643
2.28006
2.11733
1.96407
1.82537
1.70505
1.60533
1.52704
1.4698
1.43154
1.4082
1.39543
1.38928
1.38678
1.38611
1.38651
1.38784
1.39
1.3924
1.39366
1.38842
1.30915
1.04472
0.604455
0.0841055
0
1.03927
3.67106
7.81745
12.6868
16.9814
19.4342
19.3906
17.0924
13.4934
9.7423
6.66521
4.53544
3.18929
2.31719
1.69546
1.52008
1.37192
1.24281
1.13804
1.06017
1.00908
0.982393
0.976099
0.985278
1.00478
1.02986
1.05661
1.08238
1.1059
1.12697
1.1462
1.16482
1.18434
1.20615
1.23135
1.26049
1.29358
1.33025
1.36994
1.41204
1.45599
1.50138
1.54781
1.59486
1.64201
1.68863
1.7341
1.77792
1.81976
1.85959
1.89755
1.93383
1.96862
2.00195
2.03383
2.06436
2.0939
2.12317
2.15328
2.1855
2.22101
2.2605
2.30394
2.35039
2.39828
2.44563
2.4905
2.53139
2.56756
2.59915
2.62718
2.65327
2.67938
2.70742
2.73893
2.77491
2.81581
2.86117
2.90912
2.95586
2.99594
3.0236
3.03358
3.02221
2.98811
2.93269
2.85999
2.77598
2.68752
2.60092
2.52014
2.44657
2.38058
2.32215
2.27059
2.22486
2.18388
2.14677
2.11303
2.08256
2.05564
2.03281
2.01468
2.00174
1.99425
1.99207
1.99447
2
2.00657
2.01191
2.01404
2.01174
2.0049
1.99475
1.9838
1.97556
1.97411
1.98335
2.0061
2.04392
2.09715
2.16513
2.24574
2.33572
2.43095
2.52712
2.62013
2.70682
2.78543
2.85578
2.91914
2.97775
3.03392
3.09012
3.14763
3.20359
3.25025
3.2769
3.27232
3.22734
3.13681
3.00101
2.82619
2.62416
2.41104
2.20311
2.00993
1.83538
1.683
1.55541
1.45346
1.37606
1.31978
1.27992
1.25194
1.23223
1.21857
1.21017
1.20728
1.21042
1.22054
1.23656
1.25279
1.26019
1.24595
1.09955
0.804867
0.391426
-0.0832258
0
1.31443
4.24361
8.61057
13.561
17.8077
20.1649
20.0836
17.8706
14.4627
10.9193
7.9576
5.78385
4.23818
3.07173
2.13937
1.54141
1.38384
1.24238
1.12055
1.02043
0.942457
0.885537
0.847221
0.823935
0.811973
0.808276
0.810885
0.819113
0.833427
0.855073
0.885533
0.925933
0.976349
1.03565
1.10169
1.1716
1.2416
1.30771
1.36648
1.41548
1.45362
1.48126
1.49998
1.51235
1.52146
1.53053
1.54243
1.5594
1.58299
1.61406
1.65269
1.69832
1.74986
1.80587
1.86476
1.92503
1.98537
2.04486
2.10292
2.1594
2.21443
2.26835
2.32151
2.37414
2.42621
2.47737
2.52701
2.57437
2.61879
2.65989
2.69771
2.73275
2.76594
2.79842
2.8314
2.86589
2.90259
2.94173
2.98298
3.02525
3.06617
3.10204
3.12838
3.14057
3.13449
3.10745
3.05876
2.99017
2.90573
2.81132
2.71374
2.61922
2.53185
2.45386
2.38669
2.33036
2.28376
2.245
2.21186
2.18233
2.15492
2.12896
2.10461
2.08277
2.06476
2.05199
2.04572
2.04677
2.05488
2.06817
2.08336
2.09677
2.10516
2.10649
2.10049
2.08884
2.07511
2.06421
2.0617
2.07232
2.09901
2.14291
2.20383
2.28045
2.36991
2.46822
2.57084
2.67342
2.7724
2.86548
2.9517
3.03127
3.10478
3.17272
3.23495
3.28974
3.33327
3.35977
3.36263
3.33579
3.27517
3.17973
3.05205
2.89833
2.72759
2.55075
2.37693
2.21174
2.05848
1.91974
1.79666
1.68927
1.5969
1.51865
1.45377
1.4019
1.36305
1.3375
1.32568
1.32852
1.34802
1.38553
1.43615
1.49098
1.53934
1.56546
1.38201
0.986112
0.449468
-0.127094
0
1.50249
4.777
9.56458
14.8521
19.1986
21.361
20.8677
18.1882
14.4141
10.677
7.67629
5.55714
4.10935
3.0632
2.27139
2.01675
1.78392
1.56783
1.37698
1.21922
1.0977
1.012
0.960481
0.940521
0.948437
0.979354
1.02734
1.08593
1.14887
1.21102
1.26957
1.32348
1.37256
1.4171
1.45783
1.49577
1.53207
1.56787
1.60422
1.64205
1.68218
1.72526
1.77167
1.82133
1.87372
1.92758
1.98048
2.02965
2.07275
2.10863
2.13778
2.16231
2.18539
2.21047
2.24033
2.27599
2.31709
2.36269
2.41133
2.46124
2.51065
2.55811
2.60276
2.6445
2.68398
2.7225
2.76172
2.80342
2.8491
2.89976
2.95562
3.01621
3.08049
3.14693
3.21366
3.2786
3.33964
3.39478
3.44215
3.47999
3.50679
3.52152
3.52343
3.51212
3.48754
3.45012
3.40077
3.34097
3.27269
3.19835
3.12069
3.04225
2.96528
2.89162
2.82264
2.75916
2.70149
2.64961
2.60326
2.56218
2.52619
2.49527
2.46948
2.44891
2.43349
2.42288
2.41641
2.41307
2.41139
2.40956
2.40601
2.39984
2.39115
2.38123
2.37255
2.36838
2.37224
2.38723
2.41488
2.45617
2.51078
2.57712
2.65253
2.73362
2.81693
2.89936
2.97846
3.05271
3.12169
3.186
3.24703
3.30659
3.36654
3.42858
3.49317
3.55676
3.6111
3.64517
3.64746
3.60852
3.5231
3.39167
3.22091
3.02316
2.81467
2.61175
2.42317
2.2523
2.10244
1.97574
1.87215
1.78996
1.72634
1.67798
1.64163
1.61454
1.5946
1.58036
1.57086
1.56541
1.56336
1.56392
1.56596
1.56801
1.56647
1.51662
1.26633
0.804895
0.238685
0
0.779843
3.1325
7.10477
11.9904
16.4785
19.1897
19.3235
17.0264
13.2589
9.26404
5.98791
3.7873
2.51682
1.8305
1.4484
1.42145
1.3992
1.38121
1.36845
1.36113
1.35896
1.36143
1.36815
1.37901
1.39426
1.41434
1.43972
1.47058
1.50667
1.54722
1.591
1.63654
1.68227
1.72678
1.76898
1.80824
1.84448
1.8781
1.9099
1.94094
1.97235
2.00509
2.03988
2.07702
2.11647
2.15788
2.20083
2.24487
2.2897
2.33508
2.38087
2.42684
2.47265
2.51782
2.56185
2.60433
2.64516
2.68459
2.72325
2.76204
2.80194
2.84381
2.88823
2.93542
2.98523
3.03726
3.09091
3.14551
3.20043
3.25518
3.30946
3.36324
3.41683
3.47087
3.52627
3.58413
3.64566
3.71229
3.78538
3.86321
3.93756
3.99639
4.02699
4.01954
3.96986
3.8806
3.7603
3.62117
3.47633
3.3362
3.2047
3.08299
2.97216
2.873
2.78552
2.70921
2.64333
2.58751
2.54144
2.50487
2.47776
2.46002
2.4513
2.45084
2.45734
2.46914
2.48433
2.50099
2.51751
2.53277
2.54628
2.55827
2.56973
2.58234
2.59832
2.62007
2.64988
2.68939
2.73926
2.79907
2.86722
2.94122
3.0176
3.09243
3.16217
3.22427
3.27747
3.32177
3.35808
3.38764
3.41124
3.42862
3.43826
3.43734
3.422
3.38803
3.33164
3.25028
3.1433
3.01229
2.86115
2.69575
2.52345
2.35162
2.18656
2.03382
1.89775
1.78134
1.68613
1.61236
1.55926
1.52527
1.50844
1.50662
1.51771
1.53982
1.57128
1.61029
1.65409
1.6999
1.74498
1.77487
1.56155
1.06788
0.381301
-0.206563
0
1.64988
5.03075
9.73418
14.6472
18.3507
19.7495
18.5724
15.4464
11.5159
7.86721
5.11078
3.31482
2.22826
1.56867
1.19782
1.17363
1.15184
1.13268
1.11661
1.10443
1.09688
1.09474
1.09865
1.1089
1.12539
1.14767
1.17506
1.20683
1.24227
1.2806
1.32114
1.36298
1.40497
1.44575
1.48394
1.51838
1.54836
1.57377
1.59513
1.61353
1.6305
1.64773
1.66696
1.6897
1.71707
1.74965
1.78737
1.82951
1.87483
1.92176
1.96867
2.01416
2.05719
2.09725
2.13431
2.16878
2.20129
2.2326
2.26341
2.29429
2.32555
2.35725
2.3892
2.42099
2.45211
2.48201
2.51034
2.53702
2.56238
2.58716
2.61247
2.63963
2.67005
2.70493
2.74514
2.79113
2.84302
2.90041
2.96172
3.02276
3.07647
3.1146
3.12909
3.11372
3.06576
2.98708
2.88429
2.7677
2.64925
2.53909
2.44146
2.35651
2.28448
2.22441
2.17432
2.13179
2.09468
2.06145
2.03135
2.00431
1.98062
1.96051
1.94399
1.93075
1.92025
1.91191
1.90543
1.90098
1.89939
1.90209
1.91096
1.92797
1.9548
1.99255
2.04166
2.10175
2.17168
2.24977
2.33394
2.42199
2.51178
2.60131
2.6887
2.77228
2.85056
2.92236
2.98683
3.04348
3.09207
3.13241
3.16377
3.18451
3.19211
3.18367
3.15578
3.10527
3.03004
2.92986
2.80693
2.66587
2.51327
2.35694
2.20411
2.0604
1.9302
1.81613
1.71899
1.63798
1.57114
1.51603
1.47025
1.43194
1.39995
1.37387
1.35368
1.3395
1.33118
1.32743
1.32535
1.32071
1.30076
1.15442
0.852561
0.426013
-0.0561806
0
1.25973
4.16731
8.61164
13.7734
18.3406
21.0439
21.227
19.1167
15.6335
11.8872
8.68075
6.29934
4.62535
3.40932
2.47482
1.81836
1.63172
1.45845
1.30484
1.17541
1.07241
0.99577
0.943343
0.911471
0.895905
0.892129
0.895706
0.903139
0.912165
0.921825
0.932323
0.944701
0.960407
0.980824
1.00685
1.03852
1.07524
1.11586
1.15889
1.20262
1.24545
1.28607
1.32366
1.358
1.38947
1.4189
1.44737
1.476
1.50564
1.53673
1.5692
1.60251
1.63579
1.66799
1.69804
1.72504
1.74851
1.76854
1.78587
1.80193
1.81873
1.83864
1.86405
1.89688
1.9382
1.9877
2.04398
2.10482
2.16747
2.22901
2.2869
2.33936
2.38562
2.42584
2.46095
2.49227
2.52113
2.54849
2.57463
2.59893
2.61957
2.63356
2.63749
2.62796
2.60234
2.55949
2.50022
2.42737
2.34549
2.26002
2.17644
2.09866
2.02888
1.96852
1.91797
1.87667
1.84342
1.81672
1.79503
1.77701
1.76165
1.74829
1.73662
1.72652
1.71799
1.711
1.70534
1.70064
1.69639
1.6922
1.68807
1.68474
1.68381
1.68778
1.69972
1.72283
1.75981
1.81203
1.87961
1.96108
2.05357
2.15327
2.25606
2.35829
2.45729
2.55153
2.64069
2.72542
2.80682
2.88599
2.96353
3.03873
3.10844
3.16668
3.20587
3.21767
3.19439
3.13058
3.02465
2.88021
2.70662
2.51816
2.3316
2.16103
2.01185
1.88596
1.78491
1.70703
1.6486
1.6051
1.5722
1.54656
1.52612
1.50992
1.49772
1.48927
1.48411
1.4815
1.48015
1.47821
1.47327
1.45552
1.332
1.03421
0.586982
0.0780919
0
1.02251
3.66781
7.94722
13.141
17.9505
21.017
21.5423
19.6364
16.1871
12.3529
9.02098
6.54202
4.82093
3.59477
2.66516
1.99953
1.8047
1.62494
1.46828
1.34035
1.24387
1.17867
1.1422
1.13031
1.13791
1.15969
1.19033
1.22532
1.26138
1.29646
1.32981
1.36191
1.39432
1.4292
1.46881
1.51482
1.5678
1.62686
1.69001
1.75465
1.8179
1.87712
1.93041
1.97682
2.01642
2.0502
2.07982
2.1074
2.13527
2.16571
2.20074
2.24188
2.28997
2.34499
2.40606
2.47156
2.53945
2.60758
2.67403
2.73731
2.79643
2.85089
2.90052
2.9454
2.98584
3.02239
3.05592
3.0877
3.11936
3.15277
3.18974
3.23168
3.27932
3.33259
3.39046
3.45059
3.50966
3.56367
3.60803
3.63823
3.65131
3.6457
3.62152
3.58076
3.52706
3.46523
3.40035
3.33682
3.27734
3.22238
3.17169
3.12467
3.08063
3.03915
3.00033
2.96479
2.9334
2.90693
2.88584
2.87012
2.85899
2.85095
2.84429
2.83754
2.82986
2.82116
2.81212
2.80397
2.79819
2.79619
2.79893
2.80701
2.82092
2.84095
2.86725
2.89988
2.93888
2.98421
3.03577
3.09333
3.15651
3.2247
3.2971
3.37272
3.45048
3.5293
3.60812
3.68591
3.76131
3.83208
3.89526
3.94746
3.98475
4.0032
3.99946
3.97114
3.91708
3.83742
3.73365
3.61
3.47225
3.32564
3.17501
3.02493
2.87932
2.74146
2.61403
2.49898
2.3976
2.31064
2.23846
2.18109
2.13828
2.1095
2.09402
2.09104
2.09935
2.11691
2.14078
2.16789
2.19526
2.21746
2.11604
1.77116
1.17563
0.450615
0
0.47491
2.47495
6.14921
10.9079
15.5082
18.5473
19.1112
17.1954
13.6443
9.67121
6.2803
3.92735
2.54939
1.8343
1.48895
1.42364
1.45407
1.48738
1.52123
1.55348
1.58246
1.60718
1.62744
1.64365
1.65673
1.66788
1.67836
1.68923
1.70124
1.71476
1.72993
1.74682
1.76556
1.78654
1.81038
1.83781
1.86947
1.90557
1.94576
1.98902
2.03327
2.0758
2.1141
2.1465
2.17267
2.19383
2.21252
2.23209
2.25597
2.28673
2.32541
2.3718
2.42483
2.48271
2.54317
2.60384
2.66259
2.71779
2.76845
2.81419
2.8552
2.89202
2.92545
2.95633
2.98545
3.01345
3.04083
3.06788
3.09473
3.12139
3.14778
3.17379
3.19931
3.22422
3.24832
3.27125
3.29241
3.31081
3.32509
3.33355
3.33426
3.32524
3.3047
3.27129
3.2243
3.16386
3.09106
3.00803
2.91783
2.82405
2.73048
2.64085
2.55851
2.48602
2.42496
2.37576
2.33778
2.3094
2.28824
2.27151
2.25653
2.24107
2.22371
2.20397
2.18239
2.16065
2.1413
2.1271
2.1204
2.12268
2.13432
2.1546
2.1821
2.21511
2.25211
2.29198
2.33418
2.37873
2.42597
2.47638
2.53041
2.58843
2.65076
2.71759
2.78901
2.86486
2.94482
3.028
3.11207
3.1925
3.26325
3.31778
3.34992
3.35466
3.32871
3.27084
3.18203
3.06539
2.92603
2.77154
2.60996
2.44799
2.29051
2.14128
2.00349
1.87936
1.77021
1.67648
1.59789
1.53361
1.48244
1.44289
1.4132
1.39161
1.37638
1.36591
1.35875
1.35358
1.34913
1.34395
1.32975
1.18932
0.85304
0.362639
-0.132297
0
1.38779
4.41367
8.85062
13.7606
17.786
19.7349
19.1349
16.4219
12.6557
8.96437
6.06918
4.13726
2.95361
2.21106
1.70995
1.55911
1.41755
1.29291
1.19058
1.11338
1.06144
1.03247
1.02238
1.02622
1.03901
1.05649
1.07556
1.09454
1.1128
1.13034
1.14751
1.16476
1.18245
1.20082
1.21999
1.24004
1.26109
1.28332
1.30699
1.3324
1.35986
1.3896
1.42175
1.45633
1.49334
1.53277
1.57467
1.61911
1.6661
1.71547
1.76674
1.81906
1.87125
1.92193
1.9698
2.01388
2.05373
2.08948
2.12186
2.15194
2.18096
2.21007
2.2402
2.27194
2.30558
2.34114
2.37841
2.41703
2.45644
2.496
2.53503
2.57289
2.60908
2.64333
2.67555
2.70571
2.73359
2.75862
2.77966
2.79499
2.80231
2.79903
2.78273
2.75151
2.70449
2.6421
2.5662
2.47996
2.38762
2.29388
2.20311
2.11861
2.04261
1.97644
1.92029
1.87344
1.83451
1.80185
1.77389
1.7494
1.72767
1.70846
1.69199
1.67862
1.66874
1.66258
1.66014
1.66103
1.66466
1.67072
1.6794
1.69166
1.70912
1.73374
1.76732
1.81098
1.86445
1.92618
1.99406
2.06556
2.13802
2.20917
2.27744
2.34223
2.40388
2.4636
2.52319
2.5847
2.65043
2.7231
2.80606
2.90167
3.0057
3.10395
3.17821
3.21022
3.18532
3.09569
2.94253
2.73689
2.4991
2.25608
2.03153
1.83202
1.65572
1.50271
1.37457
1.27085
1.18927
1.12646
1.07857
1.04187
1.01315
0.989945
0.97052
0.953694
0.938573
0.924282
0.909758
0.893572
0.873075
0.833384
0.688988
0.411315
0.0346114
-0.368903
0
1.80352
5.36354
10.2882
15.4535
19.4133
21.0448
20.0583
17.0653
13.1921
9.50707
6.61533
4.60291
3.25374
2.31435
1.64214
1.43475
1.23643
1.05512
0.897097
0.76616
0.663769
0.589288
0.540457
0.513972
0.506047
0.512849
0.530767
0.556382
0.586615
0.618894
0.650589
0.679326
0.703297
0.721532
0.734131
0.742327
0.748324
0.754919
0.764978
0.780882
0.803827
0.833885
0.870365
0.911978
0.956946
1.00328
1.04901
1.09256
1.13302
1.17025
1.20487
1.23811
1.27147
1.30639
1.34389
1.3843
1.42721
1.47166
1.51623
1.55937
1.59959
1.63581
1.66748
1.69468
1.71814
1.73914
1.75933
1.78048
1.80429
1.83218
1.86507
1.90344
1.94728
1.99626
2.04974
2.10692
2.16673
2.22736
2.28554
2.33662
2.37547
2.39715
2.39803
2.37661
2.33416
2.2746
2.20394
2.12919
2.05697
1.99144
1.93431
1.88595
1.84632
1.81453
1.78898
1.76785
1.7495
1.73277
1.71717
1.70287
1.69053
1.681
1.67501
1.6729
1.67451
1.67918
1.68582
1.69315
1.70006
1.70587
1.71047
1.7145
1.71924
1.72657
1.7387
1.75789
1.78617
1.82511
1.87556
1.93736
2.00929
2.08913
2.174
2.26071
2.34627
2.42851
2.50642
2.58032
2.65163
2.72245
2.79529
2.8729
2.9566
3.04352
3.1253
3.19064
3.22793
3.22705
3.18072
3.08572
2.9441
2.76412
2.56005
2.35064
2.15308
1.97529
1.81859
1.685
1.57629
1.49234
1.43152
1.39108
1.36714
1.35472
1.34924
1.34714
1.34619
1.34542
1.34479
1.34449
1.3443
1.34299
1.33809
1.3206
1.19974
0.923334
0.50483
0.0122948
0
1.18831
4.01803
8.33592
13.2532
17.4056
19.5378
19.0896
16.4292
12.6013
8.77362
5.73505
3.7104
2.50701
1.80544
1.37991
1.34092
1.30503
1.27424
1.24976
1.23196
1.22048
1.21456
1.21339
1.21641
1.22343
1.23454
1.24998
1.26983
1.29385
1.32141
1.35157
1.38325
1.41545
1.44745
1.4789
1.50974
1.54002
1.56974
1.59862
1.6262
1.65197
1.67568
1.69767
1.71901
1.74148
1.76725
1.79845
1.83672
1.88259
1.93559
1.99459
2.05805
2.1242
2.19128
2.2578
2.32265
2.38508
2.44478
2.50171
2.55611
2.60838
2.65903
2.7085
2.75715
2.80507
2.85209
2.89778
2.94162
2.98315
3.0222
3.05902
3.09433
3.1293
3.16536
3.20393
3.24628
3.2934
3.3454
3.39934
3.44797
3.48197
3.49218
3.47207
3.41964
3.33818
3.2355
3.12178
3.0069
2.8971
2.79367
2.69618
2.60424
2.51709
2.43394
2.35434
2.2784
2.20693
2.14131
2.08325
2.03442
1.99613
1.96903
1.95294
1.94692
1.94934
1.9578
1.96918
1.98023
1.98832
1.99182
1.99043
1.9852
1.97837
1.97301
1.97249
1.97983
1.99688
2.0245
2.06287
2.11141
2.16859
2.23207
2.29904
2.36644
2.43143
2.49191
2.54683
2.59634
2.64169
2.68483
2.72794
2.77312
2.82176
2.87205
2.91682
2.94539
2.94603
2.90875
2.8278
2.70322
2.54127
2.3536
2.15544
1.96202
1.78159
1.61779
1.47421
1.353
1.25419
1.17563
1.11377
1.06433
1.02288
0.98546
0.948845
0.910762
0.869861
0.825533
0.777694
0.726752
0.673302
0.617658
0.558705
0.482172
0.292511
-0.0567546
-0.499078
-0.687839
0
2.11784
5.78192
10.4167
14.8365
17.7097
18.1684
16.2091
12.642
8.64245
5.20042
2.78826
1.37157
0.652151
0.323875
0.347635
0.37485
0.405219
0.438568
0.473597
0.508242
0.540264
0.568127
0.591224
0.609697
0.624596
0.637654
0.650909
0.666303
0.685226
0.708294
0.735475
0.765958
0.798025
0.82922
0.856988
0.879287
0.895126
0.904943
0.910727
0.915807
0.924318
0.940403
0.96717
1.00564
1.05491
1.11279
1.17642
1.24184
1.30507
1.36291
1.41348
1.4565
1.49321
1.52608
1.55821
1.59288
1.63278
1.67975
1.7347
1.79769
1.86831
1.94459
2.02142
2.09191
2.14948
2.18944
2.21024
2.21405
2.20643
2.19519
2.18868
2.19371
2.21264
2.24477
2.28879
2.34366
2.40661
2.47249
2.5341
2.58399
2.61539
2.62289
2.60307
2.55485
2.47975
2.38166
2.26646
2.14134
2.01384
1.8896
1.77209
1.66379
1.56677
1.4822
1.41049
1.35143
1.30463
1.26978
1.24625
1.23332
1.23028
1.23627
1.25016
1.27037
1.29494
1.32166
1.34831
1.373
1.39443
1.41208
1.42635
1.43855
1.45072
1.46539
1.48514
1.51228
1.5484
1.59396
1.64841
1.7106
1.7789
1.85135
1.92599
2.00105
2.07507
2.147
2.21603
2.28149
2.34247
2.39749
2.44434
2.48027
2.50205
2.50618
2.48942
2.44936
2.38497
2.297
2.18808
2.06254
1.92642
1.78598
1.6465
1.51215
1.38616
1.27072
1.167
1.07535
0.995594
0.927403
0.870461
0.824568
0.789603
0.765363
0.751312
0.746375
0.748749
0.755535
0.762432
0.764406
0.756028
0.708577
0.529537
0.23009
-0.137386
-0.517885
0
1.95924
5.59622
10.4683
15.4624
19.1957
20.6274
19.5283
16.5276
12.727
9.1488
6.35307
4.39724
3.05755
2.09485
1.39652
1.21946
1.05081
0.897255
0.764426
0.656128
0.573772
0.517074
0.48449
0.473649
0.48169
0.505462
0.541622
0.586657
0.63692
0.688819
0.738485
0.782468
0.818326
0.845054
0.863358
0.87561
0.885437
0.896983
0.914027
0.939154
0.972541
1.01289
1.05842
1.10705
1.15658
1.20513
1.25143
1.29499
1.33606
1.37557
1.41484
1.45534
1.49846
1.54523
1.59623
1.65148
1.71042
1.772
1.83482
1.89736
1.95816
2.01608
2.07039
2.12083
2.16756
2.21101
2.25179
2.29054
2.32788
2.36441
2.40068
2.43716
2.47419
2.51191
2.55014
2.58832
2.62542
2.65988
2.68964
2.71227
2.7255
2.72733
2.71646
2.69251
2.65628
2.6097
2.55566
2.49753
2.43868
2.38187
2.32876
2.28019
2.23639
2.19701
2.16127
2.12815
2.0966
2.06564
2.03448
2.00264
1.97006
1.93712
1.90473
1.87434
1.84766
1.82634
1.81163
1.80409
1.80348
1.80891
1.81915
1.83314
1.85039
1.87111
1.89647
1.92825
1.96847
2.01888
2.08043
2.15321
2.2363
2.32785
2.42521
2.52529
2.62493
2.72133
2.81233
2.89658
2.97353
3.0432
3.10567
3.1606
3.20682
3.24212
3.26321
3.26563
3.24439
3.195
3.11448
3.00238
2.86141
2.69773
2.52069
2.34141
2.16982
2.01371
1.8794
1.77056
1.68796
1.62986
1.59246
1.57076
1.55975
1.55519
1.55411
1.55493
1.55716
1.56092
1.56644
1.57358
1.58165
1.58935
1.58453
1.37015
0.918583
0.316552
-0.209097
0
1.56761
4.85404
9.58139
14.7531
18.9708
21.035
20.4946
17.8141
14.0663
10.3641
7.3917
5.28001
3.80659
2.7027
1.83828
1.65209
1.47891
1.32213
1.18685
1.07542
0.987789
0.922154
0.875747
0.845586
0.828959
0.823607
0.82767
0.839507
0.857501
0.880074
0.905826
0.933599
0.962608
0.992507
1.02336
1.05549
1.08935
1.12533
1.16371
1.20458
1.24794
1.2937
1.3417
1.3917
1.44335
1.49609
1.54916
1.60167
1.65273
1.70169
1.74829
1.79284
1.83625
1.87986
1.92523
1.97374
2.02631
2.08308
2.14334
2.20559
2.26778
2.32765
2.38315
2.43291
2.47644
2.51434
2.54819
2.58026
2.61316
2.64934
2.69065
2.738
2.79122
2.84912
2.90974
2.97064
3.02926
3.08314
3.13016
3.16859
3.19718
3.21518
3.22214
3.21784
3.20222
3.17542
3.1378
3.08993
3.0327
2.96739
2.8957
2.81964
2.7414
2.6633
2.58768
2.51673
2.45234
2.3959
2.34827
2.30966
2.27977
2.25778
2.24265
2.23315
2.22805
2.22633
2.22721
2.23018
2.23489
2.24107
2.24841
2.25652
2.26494
2.27336
2.28183
2.29099
2.30217
2.31731
2.33871
2.36861
2.40873
2.45978
2.52129
2.59179
2.66919
2.75113
2.83534
2.91997
3.00372
3.08569
3.16499
3.2401
3.30815
3.36508
3.40582
3.42491
3.41771
3.38126
3.31467
3.21908
3.09735
2.95379
2.79556
2.62998
2.46288
2.29909
2.14307
1.9989
1.86996
1.75872
1.66641
1.59294
1.53758
1.49905
1.47404
1.45795
1.44617
1.43481
1.42111
1.40362
1.38209
1.35712
1.32972
1.30019
1.26379
1.0588
0.612963
0.00637322
-0.415531
0
1.87427
5.42764
10.1751
14.9569
18.368
19.3896
17.854
14.4707
10.4156
6.76164
4.08909
2.44308
1.55653
1.12158
0.958207
0.948769
0.941501
0.936388
0.933684
0.933977
0.938143
0.947212
0.962158
0.983663
1.01191
1.04643
1.08614
1.12933
1.17392
1.21763
1.25825
1.29395
1.32358
1.34683
1.36428
1.37735
1.38806
1.39873
1.41157
1.42828
1.4497
1.47571
1.50554
1.53781
1.57089
1.60346
1.63494
1.6657
1.69695
1.73043
1.7678
1.81015
1.85749
1.90851
1.96117
2.01257
2.05968
2.1001
2.13255
2.15716
2.17541
2.18975
152
324
493
662
830
1001
1171
1339
1509
1680
1851
2017
2184
2351
2518
2683
2850
3019
3188
3355
3523
3693
3537
3696
0
0
0
0
0
0
0
0
0
0
0
0
0
0
0
0
0
0
0
0
0
0
0
0
0
0
0
0
0
0
0
0
0
0
0
0
0
0
0
0
0
0
0
0
0
0
0
0
0
0
0
0
0
0
0
0
0
0
0
0
0
0
0
0
0
0
0
0
0
0
0
0
0
0
0
0
0
0
0
0
0
0
0
0
0
0
0
0
0
0
0
0
0
0
0
0
0
0
0
0
0
0
0
0
0
0
0
0
0
0
0
0
0
0
0
0
0
0
0
0
0
0
0
0
0
0
0
0
0
0
0
0
0
0
0
0
0
0
0
0
0
0
0
0
0
0
0
0
0
0
0
0
0
0
0
0
0
0
0
0
0
0
0
0
0
0
0
0
0
0
0
0
0
0
0
0
0
0
0
0
0
0
0
0
0
0
0
0
0
0
0
0
0
0
0
0
0
0
0
0
0
0
0
0
0
0
0
0
0
0
0
0
0
0
0
0
0
0
0
0
0
0
0
0
0
0
0
0
0
0
0
0
0
0
0
0
0
0
0
0
0
0
0
0
0
0
0
0
0
0
0
0
0
0
0
0
0
0
0
0
0
0
0
0
0
0
0
0
0
0
0
0
0
0
0
0
0
0
0
0
0
0
0
0
0
0
0
0
0
0
0
0
0
0
0
0
0
0
0
0
0
0
0
0
0
0
0
0
0
0
0
0
0
0
0
0
0
0
0
0
0
0
0
0
0
0
0
0
0
0
0
0
0
0
0
0
0
0
0
0
0
0
0
0
0
0
0
0
0
0
0
0
0
0
0
0
0
0
0
0
0
0
0
0
0
0
0
0
0
0
0
0
0
0
0
0
0
0
0
0
0
0
0
0
0
0
0
0
0
0
0
0
0
0
0
0
0
0
0
0
0
0
0
0
0
0
0
0
0
0
0
0
0
0
0
0
0
0
0
0
0
0
0
0
0
0
0
0
0
0
0
0
0
0
0
0
0
0
0
0
0
0
0
0
0
0
0
0
0
0
0
0
0
0
0
0
0
0
0
0
0
0
0
0
0
0
0
0
0
0
0
0
0
0
0
0
0
0
0
0
0
0
0
0
0
0
0
0
0
0
0
0
0
0
0
0
0
0
0
0
0
0
0
0
0
0
0
0
0
0
0
0
0
0
0
0
0
0
0
0
0
0
0
0
0
0
0
0
0
0
0
0
0
0
0
0
0
0
0
0
0
0
0
0
0
0
0
0
0
0
0
0
0
0
0
0
0
0
0
0
0
0
0
0
0
0
0
0
0
0
0
0
0
0
0
0
0
0
0
0
0
0
0
0
0
0
0
0
0
0
0
0
0
0
0
0
0
0
0
0
0
0
0
0
0
0
0
0
0
0
0
0
0
0
0
0
0
0
0
0
0
0
0
0
0
0
0
0
0
0
0
0
0
0
0
0
0
0
0
0
0
0
0
0
0
0
0
0
0
0
0
0
0
0
0
0
0
0
0
0
0
0
0
0
0
0
0
0
0
0
0
0
0
0
0
0
0
0
0
0
0
0
0
0
0
0
0
0
0
0
0
0
0
0
0
0
0
0
0
0
0
0
0
0
0
0
0
0
0
0
0
0
0
0
0
0
0
0
0
0
0
0
0
0
0
0
0
0
0
0
0
0
0
0
0
0
0
0
0
0
0
0
0
0
0
0
0
0
0
0
0
0
0
0
0
0
0
0
0
0
0
0
0
0
0
0
0
0
0
0
0
0
0
0
0
0
0
0
0
0
0
0
0
0
0
0
0
0
0
0
0
0
0
0
0
0
0
0
0
0
0
0
0
0
0
0
0
0
0
0
0
0
0
0
0
0
0
0
0
0
0
0
0
0
0
0
0
0
0
0
0
0
0
0
0
0
0
0
0
0
0
0
0
0
0
0
0
0
0
0
0
0
0
0
0
0
0
0
0
0
0
0
0
0
0
0
0
0
0
0
0
0
0
0
0
0
0
0
0
0
0
0
0
0
0
0
0
0
0
0
0
0
0
0
0
0
0
0
0
0
0
0
0
0
0
0
0
0
0
0
0
0
0
0
0
0
0
0
0
0
0
0
0
0
0
0
0
0
0
0
0
0
0
0
0
0
0
0
0
0
0
0
0
0
0
0
0
0
0
0
0
0
0
0
0
0
0
0
0
0
0
0
0
0
0
0
0
0
0
0
0
0
0
0
0
0
0
0
0
0
0
0
0
0
0
0
0
0
0
0
0
0
0
0
0
0
0
0
0
0
0
0
0
0
0
0
0
0
0
0
0
0
0
0
0
0
0
0
0
0
0
0
0
0
0
0
0
0
0
0
0
0
0
0
0
0
0
0
0
0
0
0
0
0
0
0
0
0
0
0
0
0
0
0
0
0
0
0
0
0
0
0
0
0
0
0
0
0
0
0
0
0
0
0
0
0
0
0
0
0
0
0
0
0
0
0
0
0
0
0
0
0
0
0
0
0
0
0
0
0
0
0
0
0
0
0
0
0
0
0
0
0
0
0
0
0
0
0
0
0
0
0
0
0
0
0
0
0
0
0
0
0
0
0
0
0
0
0
0
0
0
0
0
0
0
0
0
0
0
0
0
0
0
0
0
0
0
0
0
0
0
0
0
0
0
0
0
0
0
0
0
0
0
0
0
0
0
0
0
0
0
0
0
0
0
0
0
0
0
0
0
0
0
0
0
0
0
0
0
0
0
0
0
0
0
0
0
0
0
0
0
0
0
0
0
0
0
0
0
0
0
0
0
0
0
0
0
0
0
0
0
0
0
0
0
0
0
0
0
0
0
0
0
0
0
0
0
0
0
0
0
0
0
0
0
0
0
0
0
0
0
0
0
0
0
0
0
0
0
0
0
0
0
0
0
0
0
0
0
0
0
0
0
0
0
0
0
0
0
0
0
0
0
0
0
0
0
0
0
0
0
0
0
0
0
0
0
0
0
0
0
0
0
0
0
0
0
0
0
0
0
0
0
0
0
0
0
0
0
0
0
0
0
0
0
0
0
0
0
0
0
0
0
0
0
0
0
0
0
0
0
0
0
0
0
0
0
0
0
0
0
0
0
0
0
0
0
0
0
0
0
0
0
0
0
0
0
0
0
0
0
0
0
0
0
0
0
0
0
0
0
0
0
0
0
0
0
0
0
0
0
0
0
0
0
0
0
0
0
0
0
0
0
0
0
0
0
0
0
0
0
0
0
0
0
0
0
0
0
0
0
0
0
0
0
0
0
0
0
0
0
0
0
0
0
0
0
0
0
0
0
0
0
0
0
0
0
0
0
0
0
0
0
0
0
0
0
0
0
0
0
0
0
0
0
0
0
0
0
0
0
0
0
0
0
0
0
0
0
0
0
0
0
0
0
0
0
0
0
0
0
0
0
0
0
0
0
0
0
0
0
0
0
0
0
0
0
0
0
0
0
0
0
0
0
0
0
0
0
0
0
0
0
0
0
0
0
0
0
0
0
0
0
0
0
0
0
0
0
0
0
0
0
0
0
0
0
0
0
0
0
0
0
0
0
0
0
0
0
0
0
0
0
0
0
0
0
0
0
0
0
0
0
0
0
0
0
0
0
0
0
0
0
0
0
0
0
0
0
0
0
0
0
0
0
0
0
0
0
0
0
0
0
0
0
0
0
0
0
0
0
0
0
0
0
0
0
0
0
0
0
0
0
0
0
0
0
0
0
0
0
0
0
0
0
0
0
0
0
0
0
0
0
0
0
0
0
0
0
0
0
0
0
0
0
0
0
0
0
0
0
0
0
0
0
0
0
0
0
0
0
0
0
0
0
0
0
0
0
0
0
0
0
0
0
0
0
0
0
0
0
0
0
0
0
0
0
0
0
0
0
0
0
0
0
0
0
0
0
0
0
0
0
0
0
0
0
0
0
0
0
0
0
0
0
0
0
0
0
0
0
0
0
0
0
0
0
0
0
0
0
0
0
0
0
0
0
0
0
0
0
0
0
0
0
0
0
0
0
0
0
0
0
0
0
0
0
0
0
0
0
0
0
0
0
0
0
0
0
0
0
0
0
0
0
0
0
0
0
0
0
0
0
0
0
0
0
0
0
0
0
0
0
0
0
0
0
0
0
0
0
0
0
0
0
0
0
0
0
0
0
0
0
0
0
0
0
0
0
0
0
0
0
0
0
0
0
0
0
0
0
0
0
0
0
0
0
0
0
0
0
0
0
0
0
0
0
0
0
0
0
0
0
0
0
0
0
0
0
0
0
0
0
0
0
0
0
0
0
0
0
0
0
0
0
0
0
0
0
0
0
0
0
0
0
0
0
0
0
0
0
0
0
0
0
0
0
0
0
0
0
0
0
0
0
0
0
0
0
0
0
0
0
0
0
0
0
0
0
0
0
0
0
0
0
0
0
0
0
0
0
0
0
0
0
0
0
0
0
0
0
0
0
0
0
0
0
0
0
0
0
0
0
0
0
0
0
0
0
0
0
0
0
0
0
0
0
0
0
0
0
0
0
0
0
0
0
0
0
0
0
0
0
0
0
0
0
0
0
0
0
0
0
0
0
0
0
0
0
0
0
0
0
0
0
0
0
0
0
0
0
0
0
0
0
0
0
0
0
0
0
0
0
0
0
0
0
0
0
0
0
0
0
0
0
0
0
0
0
0
0
0
0
0
0
0
0
0
0
0
0
0
0
0
0
0
0
0
0
0
0
0
0
0
0
0
0
0
0
0
0
0
0
0
0
0
0
0
0
0
0
0
0
0
0
0
0
0
0
0
0
0
0
0
0
0
0
0
0
0
0
0
0
0
0
0
0
0
0
0
0
0
0
0
0
0
0
0
0
0
0
0
0
0
0
0
0
0
0
0
0
0
0
0
0
0
0
0
0
0
0
0
0
0
0
0
0
0
0
0
0
0
0
0
0
0
0
0
0
0
0
0
0
0
0
0
0
0
0
0
0
0
0
0
0
0
0
0
0
0
0
0
0
0
0
0
0
0
0
0
0
0
0
0
0
0
0
0
0
0
0
0
0
0
0
0
0
0
0
0
0
0
0
0
0
0
0
0
0
0
0
0
0
0
0
0
0
0
0
0
0
0
0
0
0
0
0
0
0
0
0
0
0
0
0
0
0
0
0
0
0
0
0
0
0
0
0
0
0
0
0
0
0
0
0
0
0
0
0
0
0
0
0
0
0
0
0
0
0
0
0
0
0
0
0
0
0
0
0
0
0
0
0
0
0
0
0
0
0
0
0
0
0
0
0
0
0
0
0
0
0
0
0
0
0
0
0
0
0
0
0
0
0
0
0
0
0
0
0
0
0
0
0
0
0
0
0
0
0
0
0
0
0
0
0
0
0
0
0
0
0
0
0
0
0
0
0
0
0
0
0
0
0
0
0
0
0
0
0
0
0
0
0
0
0
0
0
0
0
0
0
0
0
0
0
0
0
0
0
0
0
0
0
0
0
0
0
0
0
0
0
0
0
0
0
0
0
0
0
0
0
0
0
0
0
0
0
0
0
0
0
0
0
0
0
0
0
0
0
0
0
0
0
0
0
0
0
0
0
0
0
0
0
0
0
0
0
0
0
0
0
0
0
0
0
0
0
0
0
0
0
0
0
0
0
0
0
0
0
0
0
0
0
0
0
0
0
0
0
0
0
0
0
0
0
0
0
0
0
0
0
0
0
0
0
0
0
0
0
0
0
0
0
0
0
0
0
0
0
0
0
0
0
0
0
0
0
0
0
0
0
0
0
0
0
0
0
0
0
0
0
0
0
0
0
0
0
0
0
0
0
0
0
0
0
0
0
0
0
0
0
0
0
0
0
0
0
0
0
0
0
0
0
0
0
0
0
0
0
0
0
0
0
0
0
0
0
0
0
0
0
0
0
0
0
0
0
0
0
0
0
0
0
0
0
0
0
0
0
0
0
0
0
0
0
0
0
0
0
0
0
0
0
0
0
0
0
0
0
0
0
0
0
0
0
0
0
0
0
0
0
0
0
0
0
0
0
0
0
0
0
0
0
0
0
0
0
0
0
0
0
0
0
0
0
0
0
0
0
0
0
0
0
0
0
0
0
0
0
0
0
0
0
0
0
0
0
0
0
0
0
0
0
0
0
0
0
0
0
0
0
0
0
0
0
0
0
0
0
0
0
0
0
0
0
0
0
0
0
0
0
0
0
0
0
0
0
0
0
0
0
0
0
0
0
0
0
0
0
0
0
0
0
0
0
0
0
0
0
0
0
0
0
0
0
0
0
0
0
0
0
0
0
0
0
0
0
0
0
0
0
0
0
0
0
0
0
0
0
0
0
0
0
0
0
0
0
0
0
0
0
0
0
0
0
0
0
0
0
0
0
0
0
0
0
0
0
0
0
0
0
0
0
0
0
0
0
0
0
0
0
0
0
0
0
0
0
0
0
0
0
0
0
0
0
0
0
0
0
0
0
0
0
0
0
0
0
0
0
0
0
0
0
0
0
0
0
0
0
0
0
0
0
0
0
0
0
0
0
0
0
0
0
0
0
0
0
0
0
0
0
0
0
0
0
0
0
0
0
0
0
0
0
0
0
0
0
0
0
0
0
0
0
0
0
0
0
0
0
0
0
0
0
0
0
0
0
0
0
0
0
0
0
0
0
0
0
0
0
0
0
0
0
0
0
0
0
0
0
0
0
0
0
0
0
0
0
0
0
0
0
0
0
0
0
0
0
0
0
0
0
0
0
0
0
0
0
0
0
0
0
0
0
0
0
0
0
0
0
0
0
0
0
0
0
0
0
0
0
0
0
0
0
0
0
0
0
0
0
0
0
0
0
0
0
0
0
0
0
0
0
0
0
0
0
0
0
0
0
0
0
0
0
0
0
0
0
0
0
0
0
0
0
0
0
0
0
0
0
0
0
0
0
0
0
0
0
0
0
0
0
0
0
0
0
0
0
0
0
0
0
0
0
0
0
0
0
0
0
0
0
0
0
0
0
0
0
0
0
0
0
0
0
0
0
0
0
0
0
0
0
0
0
0
0
0
0
0
0
0
0
0
0
0
0
0
0
0
0
0
0
0
0
0
0
0
0
0
0
0
0
0
0
0
0
0
0
0
0
0
0
0
0
0
0
0
0
0
0
0
0
0
0
0
0
0
0
0
0
0
0
0
0
0
0
0
0
0
0
0
0
0
0
0
0
0
0
0
0
0
0
0
0
0
0
0
0
0
0
0
0
0
0
0
0
0
0
0
0
0
0
0
0
0
0
0
0
0
0
0
0
0
0
0
0
0
0
0
0
0
0
0
0
0
0
0
0
0
0
0
0
0
0
0
0
0
0
0
0
0
0
0
0
0
0
0
0
0
0
0
0
0
0
0
0
0
0
0
0
0
0
0
0
0
0
0
0
0
0
0
0
0
0
0
0
0
0
0
0
0
0
0
0
0
0
0
0
0
0
0
0
0
0
0
0
0
0
0
0
0
0
0
0
0
0
0
0
0
0
0
0
0
0
0
0
0
0
0
0
0
0
0
0
0
0
0
0
0
0
0
0
0
0
0
0
0
0
0
0
0
0
0
0
0
0
0
0
0
0
0
0
0
0
0
0
0
0
0
0
0
0
0
0
0
0
0
0
0
0
0
0
0
0
0
0
0
0
0
0
0
0
0
0
0
0
0
0
0
0
0
0
0
0
0
0
0
0
0
0
0
0
0
0
0
0
0
0
0
0
0
0
0
0
0
0
0
0
0
0
0
0
0
0
0
0
0
0
0
0
0
0
0
0
0
0
0
0
0
0
0
0
0
0
0
0
0
0
0
0
0
0
0
0
0
0
0
0
0
0
0
0
0
0
0
0
0
0
0
0
0
0
0
0
0
0
0
0
0
0
0
0
0
0
0
0
0
0
0
0
0
0
0
0
0
0
0
0
0
0
0
0
0
0
0
0
0
0
0
0
0
0
0
0
0
0
0
0
0
0
0
0
0
0
0
0
0
0
0
0
0
0
0
0
0
0
0
0
0
0
0
0
0
0
0
0
0
0
0
0
0
0
0
0
0
0
0
0
0
0
0
0
0
0
0
0
0
0
0
0
0
0
0
0
0
0
0
0
0
0
0
0
0
0
0
0
0
0
0
0
0
0
0
0
0
0
0
0
0
0
0
0
0
0
0
0
0
0
0
0
0
0
0
0
0
0
0
0
0
0
0
0
0
0
0
0
0
0
0
0
0
0
0
0
0
0
0
0
0
0
0
0
0
0
0
0
0
0
0
0
0
0
0
0
0
0
0
0
0
0
0
0
0
0
0
0
0
0
0
0
0
0
0
0
0
0
0
0
0
0
0
0
0
0
0
0
0
0
0
0
0
0
0
0
0
0
0
0
0
0
0
0
0
0
0
0
0
0
0
0
0
0
0
0
0
0
0
0
0
0
0
0
0
0
0
0
0
0
0
0
