8.70971
5.92328
3.11128
1.08292
0.186186
0.276055
0.862645
1.02025
1.13852
1.20189
1.21225
1.18729
1.15213
1.1289
1.12819
1.14288
1.16598
1.19282
1.21917
1.24168
1.25827
1.26814
1.27152
1.2693
1.26265
1.25274
1.24083
1.22844
1.21754
1.2107
1.21119
1.22268
1.24876
1.29238
1.3553
1.4376
1.53853
1.65666
1.79043
1.93818
2.09904
2.27253
2.45796
2.65398
2.85811
3.06665
3.27494
3.47779
3.67019
3.84781
4.00717
4.14561
4.26084
4.3499
4.40826
4.43084
4.41323
4.35126
4.24277
4.08941
3.89769
3.67897
3.44796
3.22038
3.00892
2.81925
2.65544
2.51927
2.40976
2.32397
2.25781
2.20679
2.16658
2.13347
2.10443
2.07723
2.05078
2.02525
2.00214
1.98419
1.97491
1.97824
1.99973
2.04614
2.11967
2.20488
2.27279
2.29259
2.24202
2.11671
1.9352
1.73662
1.56992
1.47753
1.4632
1.50527
1.5909
1.70069
1.81379
1.91274
1.9926
2.05115
2.08731
2.10207
2.09779
2.0779
2.04596
2.00599
1.96266
1.92157
1.88913
1.87189
1.87587
1.90575
1.96414
2.05093
2.16307
2.29469
2.43769
2.58266
2.72021
2.84187
2.94081
3.01229
3.05366
3.06401
3.04377
2.99431
2.91788
2.81824
2.70031
2.56991
2.43405
2.30031
2.17615
2.0692
1.98356
1.91528
1.85487
1.78929
1.70454
1.58817
1.43112
1.22856
0.980137
0.689508
0.358958
0
-0.382911
-0.58874
-0.128165
1.31453
3.74994
6.69855
9.27175
10.5451
10.0315
7.95355
5.12523
2.51613
0.785321
0.0627703
0.0567305
0.278079
0.380956
0.47344
0.556403
0.628911
0.690461
0.740824
0.780095
0.808851
0.827903
0.838305
0.841339
0.838438
0.831038
0.820365
0.807382
0.792933
0.777945
0.763875
0.753124
0.749261
0.756875
0.780999
0.826164
0.894794
0.987961
1.11094
1.25736
1.40439
1.52754
1.60869
1.64255
1.63889
1.61952
1.61149
1.63942
1.71388
1.82731
1.97373
2.15086
2.35608
2.58548
2.83386
3.09646
3.36532
3.623
3.84912
4.0252
4.13867
4.18533
4.16916
4.09968
3.98814
3.84421
3.67705
3.49443
3.30088
3.09929
2.89235
2.683
2.47438
2.26965
2.07189
1.88422
1.7111
1.55832
1.42996
1.32939
1.25833
1.21592
1.1984
1.19944
1.21131
1.22639
1.23878
1.24579
1.24661
1.24248
1.23615
1.2312
1.23131
1.23973
1.25912
1.29108
1.33607
1.39323
1.46064
1.53556
1.61468
1.69452
1.77169
1.84311
1.90619
1.95885
1.99957
2.02738
2.04182
2.04309
2.03214
2.01082
1.98199
1.94936
1.91759
1.8917
1.87607
1.87361
1.88518
1.90992
1.94473
1.98588
2.03031
2.07679
2.12647
2.18267
2.25091
2.34207
2.46909
2.62951
2.79382
2.92428
2.98681
2.96029
2.84146
2.64526
2.40083
2.14403
1.90844
1.70885
1.54256
1.40437
1.29305
1.21034
1.15914
1.14491
1.17278
1.23774
1.31496
1.37012
1.36937
1.28811
1.1185
0.873282
0.583926
0
0.0462323
1.17928
3.46524
6.40339
9.05313
10.4409
10.0327
8.00207
5.135
2.42786
0.62129
-0.0677454
0.103131
0.619399
0.989447
1.29338
1.49948
1.59127
1.57221
1.4663
1.31436
1.16574
1.06678
1.03802
1.0646
1.12663
1.21556
1.3256
1.4417
1.54669
1.626
1.6705
1.67826
1.65442
1.60955
1.55685
1.50947
1.47622
1.46048
1.46435
1.49007
1.53931
1.61283
1.71068
1.83211
1.97564
2.1389
2.31867
2.51124
2.71252
2.91827
3.12446
3.32744
3.52365
3.70768
3.87197
4.01097
4.11907
4.19188
4.22765
4.22787
4.19667
4.13918
4.0598
3.96218
3.85091
3.72866
3.59684
3.45761
3.31366
3.16771
3.02182
2.87684
2.73238
2.58713
2.43958
2.28883
2.13533
1.98116
1.82995
1.68631
1.55505
1.44052
1.34655
1.27604
1.23016
1.2087
1.21054
1.23374
1.27565
1.33295
1.40179
1.47803
1.55769
1.63729
1.71432
1.78712
1.85478
1.91691
1.97314
2.02248
2.06208
2.08745
2.09258
2.07001
2.00191
1.78435
1.31894
0.74951
0.275362
0.0584173
0.154335
0.499596
0.953723
1.36414
1.61837
1.74147
1.81171
1.85565
1.87746
1.88219
1.87573
1.86462
1.8556
1.85512
1.86913
1.90292
1.9647
2.06733
2.22901
2.45639
2.71199
2.93894
3.07927
3.08551
2.93731
2.65479
2.29808
1.94859
1.67845
1.49301
1.35691
1.25016
1.16777
1.10885
1.07314
1.0604
1.06623
1.07859
1.08092
1.05581
0.988589
0.870847
0.702796
0.493844
0.251486
0
0.449772
1.93636
4.40167
7.27297
9.62655
10.6012
9.83902
7.67755
4.96746
2.62125
1.17369
0.615063
0.55969
0.603582
0.684306
0.80899
1.08872
1.49823
1.91161
2.15136
2.08713
1.71632
1.17348
0.668928
0.396586
0.409995
0.499787
0.609464
0.713073
0.790449
0.83225
0.842264
0.835908
0.83523
0.86205
0.93093
1.03667
1.16892
1.31957
1.48107
1.64492
1.8015
1.94141
2.05855
2.15045
2.21864
2.26851
2.30851
2.34873
2.3992
2.46806
2.55986
2.67376
2.80662
2.95494
3.11451
3.28081
3.44838
3.60856
3.75053
3.86361
3.93798
3.9663
3.94489
3.87403
3.75712
3.59936
3.4068
3.18859
2.95499
2.71489
2.47609
2.2461
2.03208
1.84151
1.68121
1.55152
1.44866
1.36676
1.29988
1.24385
1.19715
1.16092
1.13803
1.13181
1.14303
1.17119
1.2167
1.28144
1.36776
1.4654
1.54951
1.59169
1.56948
1.47675
1.3293
1.16157
1.01511
0.924143
0.890037
0.891439
0.923315
0.978103
1.04666
1.11925
1.18751
1.24433
1.28457
1.30544
1.30655
1.2898
1.25891
1.2188
1.17494
1.13266
1.09627
1.06944
1.05527
1.05616
1.07391
1.10978
1.16461
1.23895
1.33302
1.44642
1.57805
1.72718
1.89312
2.07417
2.26483
2.45109
2.61264
2.72885
2.78184
2.75986
2.66012
2.49014
2.26727
2.016
1.76381
1.53191
1.32705
1.1488
0.996289
0.869386
0.765664
0.681031
0.610357
0.548114
0.488934
0.428068
0.36175
0.287152
0.202554
0.108969
0
-0.184385
0.276716
1.76091
4.24025
7.15343
9.57954
10.6571
10.0136
7.94461
5.2343
2.74467
1.03353
0.208177
0.0396969
0.19598
0.30691
0.408911
0.500459
0.578957
0.643506
0.69497
0.735718
0.769132
0.798976
0.82879
0.861379
0.898444
0.940546
0.987226
1.03706
1.08747
1.13448
1.17396
1.20269
1.21949
1.22607
1.22719
1.22993
1.24219
1.27081
1.31983
1.38798
1.47212
1.56954
1.67746
1.79326
1.91499
2.04136
2.17158
2.30511
2.44148
2.58024
2.72104
2.8637
3.00822
3.15466
3.30285
3.45208
3.60095
3.74716
3.88758
4.01854
4.13608
4.23607
4.3137
4.36143
4.36877
4.32887
4.236
4.08765
3.88683
3.6435
3.37436
3.1005
2.8436
2.62022
2.44308
2.31432
2.22799
2.17283
2.13581
2.10542
2.07392
2.03827
1.99984
1.96319
1.93379
1.91633
1.91385
1.92679
1.95402
1.98923
2.02454
2.05276
2.06947
2.07432
2.07092
2.06571
2.06602
2.07824
2.10485
2.14562
2.19958
2.26545
2.34151
2.4259
2.51593
2.60536
2.68377
2.73929
2.76135
2.7441
2.68917
2.60632
2.51162
2.42361
2.35866
2.32147
2.30873
2.31851
2.34788
2.39245
2.44746
2.50868
2.57351
2.64131
2.71336
2.794
2.89706
3.06884
3.38895
3.80952
4.21211
4.47695
4.51918
4.31282
3.89263
3.33923
2.76854
2.33864
2.09853
1.95861
1.87457
1.84257
1.84262
1.85067
1.84435
1.80753
1.73199
1.61612
1.46214
1.27364
1.05888
0.82691
0.583907
0.331084
0
0.157525
1.14899
3.12738
5.86658
8.68938
10.6534
10.9732
9.45254
6.63344
3.53875
1.15623
-0.0109598
-0.0697031
0.475615
0.686461
0.87688
1.05047
1.20353
1.33547
1.44859
1.5474
1.63771
1.72555
1.81627
1.91401
2.02163
2.14084
2.27102
2.40493
2.52664
2.61818
2.66495
2.66134
2.61482
2.54594
2.48304
2.4525
2.46848
2.51935
2.58888
2.66088
2.72066
2.75962
2.77741
2.78089
2.78105
2.78935
2.81353
2.85496
2.91495
2.99577
3.09896
3.22515
3.37384
3.54307
3.72906
3.92671
4.12986
4.33162
4.52382
4.69656
4.84069
4.94965
5.0188
5.04553
5.0292
4.97074
4.87201
4.73529
4.56308
4.36037
4.13427
3.89177
3.6401
3.38758
3.14382
2.91837
2.71938
2.55233
2.41964
2.3205
2.25059
2.2039
2.17413
2.15591
2.14548
2.14072
2.14067
2.14479
2.15252
2.16179
2.16947
2.17261
2.16974
2.16195
2.15307
2.14884
2.15526
2.1771
2.21908
2.278
2.33783
2.37781
2.37944
2.33303
2.24198
2.12327
2.00337
1.91044
1.8655
1.86519
1.89462
1.94544
2.00968
2.07942
2.14833
2.21269
2.27102
2.32389
2.37335
2.42236
2.47423
2.53226
2.59953
2.67884
2.77359
2.88709
3.02134
3.17692
3.35218
3.53692
3.70698
3.82951
3.8627
3.76687
3.52662
3.17042
2.77206
2.42646
2.20778
2.08096
1.99316
1.92866
1.86925
1.79807
1.70295
1.57824
1.42482
1.24835
1.05652
0.856755
0.653939
0.449809
0.244283
0
0.0305206
0.846539
2.74362
5.54827
8.56473
10.8255
11.5313
10.4344
7.94812
4.92908
2.27609
0.571193
-0.0659542
0.109752
0.487523
0.797567
1.07872
1.32331
1.53062
1.7022
1.83748
1.93807
2.00659
2.04618
2.0604
2.05341
2.03005
1.99588
1.95688
1.91911
1.88795
1.86742
1.86053
1.86893
1.8928
1.93132
1.98314
2.04523
2.11401
2.18686
2.26278
2.34266
2.42885
2.5242
2.63086
2.74933
2.87789
3.01379
3.15394
3.29602
3.43924
3.58432
3.73274
3.88556
4.04224
4.19999
4.35403
4.49798
4.62532
4.73048
4.80973
4.86142
4.88568
4.88376
4.8572
4.80721
4.73451
4.64031
4.52644
4.39512
4.24907
4.09223
3.92955
3.76651
3.60828
3.45905
3.32141
3.19615
3.08233
2.9777
2.87938
2.78476
2.69231
2.60222
2.51658
2.43919
2.37483
2.32842
2.3047
2.30754
2.33881
2.3954
2.4659
2.53418
2.58518
2.60841
2.60045
2.56565
2.51475
2.4616
2.41894
2.39335
2.38347
2.38623
2.39603
2.40701
2.41522
2.41983
2.42306
2.42894
2.44148
2.46269
2.49126
2.52485
2.56049
2.5946
2.62364
2.64462
2.65556
2.65578
2.64624
2.6295
2.60965
2.59199
2.58231
2.58619
2.60914
2.65542
2.72753
2.82503
2.9393
3.04864
3.12773
3.15378
3.112
2.99999
2.82911
2.62128
2.40227
2.1946
2.00754
1.83973
1.69176
1.56701
1.46968
1.41158
1.42224
1.52736
1.68696
1.8371
1.90887
1.85039
1.64126
1.29449
0.847946
0.352021
-0.104947
0
1.00645
3.10032
6.03464
9.05645
11.1588
11.5529
10.0831
7.32121
4.2746
1.89265
0.663449
0.506117
0.96193
1.10476
1.22406
1.32124
1.3937
1.44383
1.47736
1.50095
1.51987
1.53693
1.55237
1.56507
1.5736
1.57708
1.57561
1.57006
1.5615
1.55051
1.53698
1.52017
1.49916
1.47366
1.4444
1.41398
1.38671
1.36765
1.36146
1.37154
1.39947
1.44507
1.50693
1.58313
1.67138
1.77004
1.87884
1.99857
2.1305
2.27582
2.43493
2.60684
2.78929
2.97774
3.16294
3.33407
3.48096
3.59599
3.67521
3.71843
3.72829
3.70886
3.66425
3.59971
3.51868
3.42236
3.31082
3.18387
3.04139
2.88415
2.71395
2.53398
2.34927
2.16658
1.99399
1.83958
1.7129
1.62802
1.58723
1.57829
1.58408
1.5886
1.58229
1.56428
1.54103
1.52249
1.5179
1.53015
1.55745
1.59916
1.65548
1.72751
1.8218
1.94691
2.08649
2.20482
2.25899
2.21685
2.07448
1.86308
1.6408
1.47281
1.40879
1.42212
1.49335
1.63747
1.86811
2.15139
2.42021
2.61269
2.68243
2.61336
2.43113
2.19942
1.99663
1.88171
1.84993
1.85579
1.87704
1.90735
1.94353
1.98584
2.03755
2.10353
2.18825
2.29822
2.43769
2.59576
2.75153
2.88263
2.97071
3.00447
2.98006
2.90004
2.77261
2.61136
2.43607
2.26601
2.11622
1.99581
1.90761
1.84994
1.81394
1.7872
1.75694
1.71252
1.64636
1.55344
1.43006
1.27302
1.08079
0.834838
0.540437
0.209949
-0.181335
0
1.01532
2.94223
5.56255
8.32898
10.4747
11.2888
10.4457
8.19814
5.29447
2.6471
0.933841
0.347027
0.604003
0.791394
0.910519
1.00747
1.08425
1.14589
1.19807
1.24429
1.28527
1.31851
1.34048
1.3493
1.34691
1.33945
1.33594
1.34549
1.37415
1.42052
1.4807
1.55069
1.62465
1.69631
1.76008
1.81158
1.84801
1.86972
1.87962
1.88294
1.88668
1.89884
1.92727
1.97852
2.05678
2.16275
2.29288
2.44381
2.61175
2.79218
2.98036
3.1712
3.35846
3.53459
3.6927
3.82797
3.93925
4.03022
4.10924
4.18808
4.29851
4.50588
4.79541
5.08108
5.26365
5.27088
5.07897
4.71659
4.25818
3.80893
3.47452
3.25273
3.09017
2.95972
2.85619
2.7762
2.71706
2.6767
2.65357
2.64598
2.65182
2.66751
2.68834
2.70904
2.72464
2.7313
2.72689
2.71133
2.6864
2.6554
2.6225
2.59192
2.5674
2.55164
2.54603
2.5509
2.56606
2.59086
2.62431
2.66514
2.71178
2.76186
2.81118
2.85262
2.87731
2.87592
2.84054
2.76699
2.6566
2.50784
2.33917
2.18017
2.05949
1.99689
1.99817
2.05517
2.15033
2.26374
2.37985
2.49219
2.60126
2.70882
2.81678
2.92695
3.04051
3.15709
3.2725
3.37732
3.45914
3.5048
3.50313
3.44755
3.33799
3.18177
2.99324
2.79203
2.59895
2.42786
2.2865
2.18885
2.13347
2.10665
2.08903
2.06049
2.00449
1.91032
1.77344
1.59424
1.37656
1.13099
0.867062
0.586993
0.295726
0
-0.274523
-0.42794
-0.10808
1.08199
3.37999
6.4934
9.54064
11.405
11.3321
9.38042
6.40143
3.55412
1.68738
0.991874
1.09565
1.35411
1.33316
1.30519
1.27441
1.24412
1.2168
1.19334
1.17269
1.1513
1.1244
1.08772
1.03934
0.979142
0.915023
0.860208
0.829095
0.833241
0.878259
0.962561
1.07811
1.21271
1.3529
1.4875
1.61075
1.72047
1.81569
1.89711
1.96705
2.02899
2.08712
2.14599
2.2101
2.28355
2.36989
2.4718
2.59081
2.72709
2.87951
3.04586
3.22345
3.40965
3.60238
3.8004
4.00343
4.21217
4.42749
4.64748
4.8633
5.05933
5.21748
5.32153
5.36089
5.33305
5.2441
5.10773
4.94263
4.76877
4.60258
4.45125
4.31567
4.19534
4.09042
4.00089
3.92616
3.8653
3.8172
3.78054
3.7539
3.73572
3.72441
3.7185
3.71668
3.71799
3.72187
3.72812
3.73688
3.74848
3.76333
3.78188
3.80473
3.83262
3.86668
3.90912
3.96195
4.0271
4.10572
4.19758
4.30064
4.41117
4.52425
4.63455
4.73725
4.82885
4.90636
4.96824
5.01404
5.04436
5.06084
5.06624
5.06436
5.05986
5.05773
5.06262
5.07786
5.10575
5.14747
5.20252
5.26781
5.3366
5.40015
5.44964
5.47745
5.47774
5.44635
5.38005
5.27569
5.12978
4.94146
4.71473
4.45466
4.16654
3.85835
3.54105
3.2274
2.93019
2.66034
2.42534
2.22816
2.06701
1.93547
1.82333
1.71832
1.60766
1.47952
1.32424
1.13516
0.909151
0.645081
0.338519
0
-0.352529
-0.745852
-0.558962
0.538306
2.64927
5.42908
8.08476
9.66768
9.54703
7.77819
5.10377
2.55829
0.92871
0.417956
0.691973
0.97897
1.03658
1.05198
1.02506
0.964307
0.88572
0.809491
0.755389
0.731401
0.736932
0.771375
0.835911
0.929469
1.04716
1.17657
1.2981
1.39279
1.44639
1.45277
1.41643
1.35227
1.28225
1.22916
1.20989
1.22389
1.26071
1.31321
1.37676
1.44721
1.52214
1.60133
1.68653
1.78056
1.88606
2.00423
2.13514
2.27585
2.42094
2.56537
2.70665
2.84602
2.98823
3.13994
3.31129
3.51492
3.73584
3.94213
4.09889
4.18185
4.18523
4.12057
4.00896
3.8714
3.72229
3.56903
3.41341
3.25542
3.09461
2.93058
2.76332
2.59346
2.42237
2.25237
2.08669
1.92935
1.7852
1.65976
1.55769
1.48194
1.43355
1.41145
1.41287
1.43336
1.46782
1.51168
1.56173
1.61638
1.67535
1.73887
1.80714
1.87829
1.9475
2.0081
2.05309
2.07681
2.07628
2.05191
2.00736
1.94889
1.88446
1.8214
1.76532
1.72003
1.68716
1.66584
1.65442
1.65013
1.64974
1.65012
1.64874
1.64398
1.63522
1.62282
1.60801
1.59251
1.57831
1.56721
1.56058
1.55929
1.56367
1.57357
1.58866
1.60863
1.63317
1.66183
1.69399
1.72724
1.75633
1.77419
1.77313
1.74646
1.68995
1.60279
1.48764
1.35022
1.19842
1.04173
0.887624
0.741383
0.606622
0.486163
0.380352
0.283452
0.186595
0.0798309
-0.0456558
-0.197034
-0.377673
-0.584065
-0.808643
-1.0413
-0.807405
0
1.55882
3.99266
7.01494
9.89152
11.6771
11.6756
9.84217
6.84377
3.72702
1.40696
0.292574
0.237109
0.750106
0.840993
0.911829
0.956027
0.973901
0.974673
0.973174
0.984914
1.02152
1.08203
1.16231
1.25927
1.36975
1.49066
1.62003
1.75861
1.91508
2.12234
2.40023
2.6913
2.88315
2.86031
2.57635
2.10104
1.60697
1.29481
1.28846
1.43146
1.61186
1.80291
1.99408
2.17732
2.34777
2.50315
2.64351
2.77058
2.88705
2.99596
3.10019
3.2022
3.30383
3.40631
3.51033
3.6162
3.72393
3.83342
3.94446
4.0566
4.16891
4.27948
4.38388
4.47163
4.52834
4.53563
4.47431
4.33129
4.10682
3.81797
3.49554
3.17575
2.89075
2.64543
2.43261
2.25566
2.11554
2.01107
1.93925
1.89547
1.87399
1.8685
1.87288
1.88182
1.89161
1.9003
1.90715
1.91207
1.91519
1.91642
1.91559
1.91252
1.90752
1.90179
1.89756
1.8977
1.90495
1.92107
1.94635
1.97907
2.01761
2.06063
2.10764
2.15912
2.21611
2.27929
2.34942
2.42258
2.489
2.53658
2.55458
2.53717
2.4853
2.40643
2.31238
2.2164
2.12973
2.05816
2.00477
1.97205
1.96201
1.97595
2.01405
2.0749
2.15639
2.25645
2.36406
2.4632
2.53819
2.57729
2.5754
2.53457
2.46245
2.36916
2.264
2.15384
2.04162
1.92796
1.81267
1.69563
1.57734
1.459
1.34218
1.2282
1.11764
1.00907
0.898824
0.781979
0.653722
0.510868
0.353002
0.182911
0
0.0506434
0.60636
1.78726
3.62052
5.87628
8.00404
9.2828
9.1561
7.55443
4.97944
2.2754
0.231041
-0.748654
-0.734349
-0.246229
-0.0275389
0.160252
0.307242
0.408048
0.462507
0.475208
0.454139
0.408958
0.349793
0.285665
0.223222
0.16758
0.12262
0.0911366
0.075737
0.0781025
0.0967501
0.125168
0.151946
0.164102
0.150832
0.106608
0.0335663
-0.057552
-0.148515
-0.217069
-0.242263
-0.211071
-0.128117
-0.0080246
0.136372
0.296121
0.463274
0.631918
0.798933
0.963891
1.12819
1.29372
1.46155
1.63093
1.79906
1.96124
2.11162
2.24455
2.35543
2.4413
2.50086
2.53317
2.5363
2.51111
2.45821
2.37812
2.27179
2.1411
1.98911
1.81994
1.63837
1.44951
1.25849
1.06987
0.889623
0.725242
0.583669
0.471233
0.392276
0.347815
0.334807
0.346408
0.373217
0.405155
0.433542
0.453774
0.46496
0.467554
0.463154
0.454465
0.444632
0.4365
0.431929
0.431539
0.434189
0.436742
0.435256
0.426189
0.407539
0.379547
0.344812
0.307768
0.27377
0.248064
0.234116
0.233551
0.246992
0.274155
0.313723
0.363664
0.421489
0.484583
0.55059
0.617545
0.683815
0.747508
0.805605
0.854661
0.891462
0.914172
0.924128
0.926968
0.932264
0.95143
0.994453
1.07504
1.19667
1.33596
1.46042
1.53965
1.55396
1.49777
1.37788
1.20943
1.01208
0.807896
0.615791
0.446259
0.303953
0.189854
0.10965
0.0629112
0.0386047
0.022403
0
-0.0437225
-0.112401
-0.209393
-0.3355
-0.490394
-0.670594
-0.872549
-1.09385
-1.39117
-1.62507
-0.990077
0.874899
3.80602
7.0204
9.39556
10.0154
8.6555
5.89531
2.79066
0.321841
-1.03416
-1.39064
-1.22299
-1.24352
-1.25397
-1.25522
-1.24111
-1.19691
-1.10124
-0.970043
-0.840957
-0.755766
-0.741131
-0.795338
-0.888635
-0.977229
-1.02327
-1.00998
-0.963247
-0.902169
-0.835701
-0.770412
-0.711396
-0.661902
-0.623296
-0.595367
-0.576794
-0.565612
-0.559566
-0.556332
-0.553577
-0.548852
-0.539414
-0.522005
-0.492647
-0.446592
-0.378502
-0.282902
-0.154888
0.0090332
0.210085
0.447012
0.727393
1.05682
1.40289
1.71208
1.93638
2.04822
2.05016
1.97499
1.87426
1.7984
1.77599
1.79109
1.82101
1.83344
1.79918
1.70355
1.55188
1.36693
1.17983
1.01886
0.892311
0.791628
0.71172
0.650136
0.60348
0.568184
0.54104
0.51948
0.501598
0.485997
0.471632
0.457565
0.442916
0.426923
0.409059
0.389156
0.367453
0.344578
0.321481
0.299403
0.279885
0.264883
0.257214
0.25998
0.27647
0.309573
0.361039
0.431217
0.519183
0.621001
0.728095
0.827306
0.905628
0.953264
0.965688
0.944592
0.897392
0.835373
0.770975
0.715153
0.674126
0.648592
0.637916
0.642641
0.662951
0.698515
0.748373
0.810792
0.883094
0.961832
1.0433
1.12361
1.19883
1.26506
1.31819
1.35367
1.36665
1.35321
1.31052
1.23768
1.13661
1.01247
0.873378
0.729317
0.590462
0.465344
0.361206
0.279098
0.215567
0.163952
0.116102
0.0638702
0
-0.0743683
-0.171603
-0.295415
-0.445955
-0.622359
-0.823756
-1.04827
-1.29261
-1.76665
-1.88807
-1.0808
0.857954
3.6195
6.4044
8.2539
8.51562
7.15356
4.7208
2.04871
-0.129724
-1.41567
-1.77684
-1.44554
-1.15989
-0.915196
-0.722577
-0.587354
-0.499959
-0.440974
-0.389375
-0.330576
-0.262165
-0.190248
-0.12264
-0.067366
-0.0297821
-0.0108994
-0.00725784
-0.0121552
-0.0176369
-0.0168358
-0.0061058
0.0157784
0.0488754
0.0927261
0.146497
0.209439
0.281212
0.361955
0.452105
0.552068
0.661877
0.780985
0.908231
1.04209
1.18096
1.32333
1.46795
1.61371
1.75946
1.90392
2.04566
2.18354
2.31715
2.44728
2.5763
2.70808
2.84969
3.01848
3.2522
3.57123
3.91438
4.20109
4.35854
4.34297
4.1512
3.81869
3.40932
3.00688
2.70182
2.5025
2.3719
2.28618
2.24843
2.25266
2.28503
2.32963
2.37149
2.39893
2.40499
2.3877
2.3493
2.29487
2.23087
2.16339
2.09695
2.03455
1.97804
1.92924
1.89143
1.86819
1.86282
1.87801
1.91467
1.97117
2.04311
2.12412
2.20712
2.28582
2.35639
2.41647
2.46508
2.50122
2.52443
2.53418
2.53007
2.51268
2.48416
2.44847
2.41084
2.37673
2.35062
2.33394
2.32641
2.32672
2.33225
2.33972
2.34522
2.34562
2.33972
2.32904
2.31825
2.31514
2.32925
2.36988
2.46279
2.63081
2.85233
3.08191
3.27307
3.39236
3.42392
3.36571
3.22328
3.00728
2.7363
2.44398
2.16256
1.91517
1.71219
1.56866
1.48521
1.44334
1.41723
1.38235
1.32232
1.23162
1.11353
0.975439
0.824165
0.665406
0.501601
0.331301
0
0.00498734
0.83128
2.63812
5.10967
7.50366
8.96373
8.93471
7.43478
5.02622
2.51787
0.588026
-0.457635
-0.699633
-0.443361
-0.240381
-0.0498024
0.121662
0.26917
0.394222
0.49423
0.564799
0.603801
0.609941
0.584197
0.531116
0.459122
0.379388
0.3035
0.240797
0.19435
0.164033
0.148472
0.145226
0.152143
0.168365
0.194669
0.233186
0.286679
0.356927
0.444384
0.548962
0.669592
0.803806
0.948607
1.09864
1.24463
1.37639
1.48541
1.56704
1.62211
1.65723
1.68362
1.71453
1.76208
1.8329
1.92587
2.03645
2.15963
2.28864
2.41565
2.53299
2.63387
2.71241
2.76426
2.78712
2.78012
2.74376
2.67985
2.59142
2.48262
2.35831
2.22365
2.08365
1.94266
1.80393
1.67001
1.54281
1.42361
1.31308
1.21123
1.1174
1.03038
0.948698
0.870797
0.795533
0.722764
0.654152
0.594521
0.55167
0.534307
0.550374
0.604252
0.694436
0.812631
0.944833
1.07428
1.18535
1.271
1.32858
1.35823
1.36342
1.34903
1.31946
1.2775
1.22428
1.1597
1.0829
0.991369
0.890498
0.79391
0.717947
0.676436
0.676014
0.71409
0.780156
0.859648
0.9386
1.00871
1.06877
1.1199
1.16388
1.20337
1.24174
1.28272
1.32992
1.3866
1.45554
1.53928
1.63992
1.75849
1.8935
2.03655
2.1657
2.25021
2.25528
2.14869
1.91106
1.54683
1.09072
0.604593
0.162955
-0.186018
-0.457946
-0.604056
-0.57641
-0.431471
-0.245898
-0.0883034
-0.00164375
0
-0.0778324
-0.22114
-0.418169
-0.660207
-0.929421
-1.23121
-1.40934
-0.838041
0.809212
3.41205
6.3107
8.53391
9.25835
8.22844
5.87421
3.05818
0.629868
-0.925583
-1.57227
-1.57142
-1.39461
-1.23835
-1.09265
-0.958857
-0.837099
-0.728135
-0.636845
-0.567698
-0.527625
-0.52316
-0.556519
-0.62256
-0.70822
-0.794995
-0.863567
-0.899368
-0.894026
-0.835168
-0.740198
-0.644792
-0.585006
-0.585593
-0.652036
-0.768819
-0.904441
-1.0209
-1.08367
-1.08603
-1.04107
-0.957595
-0.838955
-0.688315
-0.510794
-0.313069
-0.10267
0.11291
0.327138
0.53522
0.734547
0.924708
1.10704
1.28386
1.4575
1.62939
1.79925
1.9642
2.11824
2.25366
2.36251
2.43804
2.47583
2.47428
2.4344
2.35916
2.25264
2.11928
1.96439
1.79377
1.6134
1.42922
1.24747
1.07555
0.922406
0.796113
0.70317
0.647218
0.638097
0.680238
0.75373
0.833392
0.895635
0.924642
0.91562
0.874185
0.812636
0.744897
0.681866
0.62707
0.580425
0.541344
0.509117
0.483198
0.463812
0.452646
0.451962
0.464221
0.491067
0.53238
0.586426
0.648362
0.711987
0.771143
0.821064
0.859166
0.885091
0.900082
0.906042
0.904786
0.897985
0.886533
0.871486
0.854523
0.838184
0.825713
0.820529
0.825456
0.841676
0.869418
0.907729
0.953843
1.00501
1.05966
1.11821
1.18319
1.2599
1.36127
1.50182
1.6716
1.83873
1.96388
2.0135
1.96851
1.82664
1.60144
1.32083
1.02495
0.755431
0.532808
0.358122
0.223605
0.130203
0.0715446
0.0377625
0.0175282
0
-0.0143436
-0.0413895
-0.0850845
-0.147175
-0.227458
-0.322503
-0.428817
-0.546105
-1.17978
-1.3328
-0.363884
1.96168
5.2218
8.41668
10.4014
10.4396
8.55389
5.4782
2.27139
-0.16596
-1.41285
-1.57222
-1.0947
-0.869669
-0.654981
-0.452832
-0.269872
-0.115926
0.00427284
0.0883186
0.135565
0.149074
0.137391
0.114501
0.0970955
0.100125
0.14248
0.213279
0.284093
0.321564
0.302645
0.22526
0.109765
-0.00876045
-0.0934814
-0.121444
-0.105995
-0.0615963
0.00706749
0.093837
0.192305
0.297017
0.404733
0.514628
0.627975
0.747388
0.875735
1.01499
1.16531
1.32467
1.4896
1.65563
1.81844
1.97491
2.12389
2.26662
2.40645
2.54837
2.69997
2.87871
3.12237
3.43642
3.76031
4.01053
4.11343
4.03897
3.81195
3.48954
3.12332
2.74333
2.37736
2.03911
1.73257
1.46455
1.26211
1.16732
1.1877
1.28037
1.39075
1.4708
1.49236
1.45153
1.36471
1.26001
1.16783
1.10884
1.08525
1.0925
1.12624
1.18336
1.26171
1.35974
1.47669
1.61403
1.77767
1.97652
2.20161
2.41396
2.56137
2.5947
2.48859
2.25679
1.95287
1.65354
1.43068
1.30202
1.22952
1.1995
1.20789
1.24934
1.31818
1.40758
1.51177
1.62718
1.75089
1.8807
2.01493
2.15191
2.29004
2.42715
2.55973
2.68379
2.79569
2.8934
2.9775
3.0515
3.12126
3.19384
3.27636
3.37874
3.51873
3.73258
4.04795
4.43591
4.83074
5.09831
5.0781
4.68175
3.97525
3.17765
2.56962
2.35828
2.28281
2.23025
2.18388
2.13446
2.07532
2.00256
1.91443
1.81028
1.68982
1.55378
1.40203
1.23372
1.0488
0.848101
0.634669
0.409961
0
0.0758385
1.11032
3.271
6.18669
8.98816
10.6767
10.6178
8.8606
6.09436
3.28837
1.24258
0.293449
0.292577
0.789702
0.977353
1.14318
1.28258
1.39027
1.46573
1.51245
1.53639
1.54407
1.54121
1.53192
1.51814
1.50067
1.47996
1.45671
1.43219
1.40834
1.38758
1.37239
1.36484
1.36694
1.38014
1.40512
1.44163
1.4885
1.54381
1.6053
1.67077
1.73866
1.80841
1.8805
1.95619
2.03695
2.12375
2.21652
2.31395
2.4136
2.51245
2.608
2.69919
2.78709
2.87499
2.96792
3.07172
3.1918
3.3318
3.49398
3.6827
3.89948
4.13005
4.34491
4.51435
4.61497
4.63445
4.57311
4.44256
4.26216
4.05518
3.84596
3.65284
3.48323
3.33967
3.22279
3.13287
3.07032
3.03278
3.01006
2.98703
2.94932
2.88671
2.79542
2.67876
2.54574
2.40828
2.27821
2.16292
2.06639
1.99408
1.94794
1.92846
1.9346
1.96352
2.01051
2.06934
2.13317
2.19572
2.25282
2.30316
2.34658
2.38352
2.41493
2.44184
2.46493
2.4844
2.50004
2.51144
2.51818
2.52017
2.51762
2.51093
2.50032
2.48534
2.4643
2.43415
2.39105
2.331
2.24962
2.13601
1.9902
1.83782
1.7126
1.64501
1.65164
1.72996
1.86055
2.0157
2.16992
2.30947
2.43616
2.55379
2.66287
2.76326
2.8531
2.92791
2.98123
3.0057
2.99506
2.94611
2.86002
2.74261
2.60357
2.45454
2.30667
2.16759
2.03984
1.92307
1.81661
1.71904
1.62865
1.54395
1.46371
1.38667
1.31112
1.23398
1.15067
1.056
0.94572
0.81769
0.673988
0.517919
0
0.226412
1.62621
4.15627
7.17838
9.67768
10.736
9.99542
7.83182
5.12871
2.80388
1.39183
0.91358
1.04848
1.2714
1.38941
1.4619
1.47796
1.43722
1.35129
1.24215
1.13755
1.06422
1.03529
1.05763
1.12735
1.23202
1.35524
1.48199
1.60309
1.71672
1.82257
1.91876
2.0037
2.07229
2.11714
2.1333
2.12267
2.09514
2.06555
2.0482
2.05199
2.07277
2.10584
2.14926
2.20149
2.26214
2.33187
2.41192
2.5032
2.60514
2.71599
2.83336
2.95408
3.07487
3.19291
3.30607
3.41298
3.5121
3.60169
3.68044
3.74647
3.79733
3.83014
3.84149
3.82746
3.78363
3.70559
3.59125
3.4405
3.25603
3.04477
2.81752
2.58763
2.36883
2.17061
1.99968
1.86037
1.75362
1.67655
1.62439
1.59191
1.57464
1.56961
1.57545
1.59207
1.61978
1.65909
1.70937
1.7671
1.82533
1.8752
1.90771
1.91529
1.89325
1.84052
1.75982
1.6571
1.54061
1.41992
1.30372
1.19864
1.10994
1.04272
1.00043
0.984819
0.995723
1.03289
1.09359
1.17126
1.25542
1.33435
1.39791
1.43934
1.45635
1.45133
1.43066
1.40324
1.37875
1.3654
1.36731
1.38524
1.41928
1.46912
1.53149
1.5991
1.66304
1.71502
1.74905
1.7629
1.75884
1.74342
1.72639
1.719
1.73082
1.76853
1.84698
1.98057
2.16738
2.37522
2.55845
2.67529
2.69601
2.60963
2.42882
2.18959
1.94137
1.72869
1.5655
1.43405
1.31886
1.21458
1.11807
1.02718
0.940666
0.857709
0.7773
0.697761
0.616907
0.532216
0.441343
0.342707
0.235932
0.122016
0
-0.330906
-0.221695
0.836197
3.02606
5.95744
8.72748
10.3124
10.0809
8.1254
5.20931
2.36867
0.411754
-0.399916
-0.340976
-0.0722141
-0.0208567
0.0211155
0.0576462
0.09359
0.134521
0.186083
0.253044
0.337274
0.438903
0.55711
0.689189
0.826318
0.957006
1.07093
1.16153
1.2277
1.27395
1.30891
1.34284
1.38468
1.43848
1.50345
1.57772
1.65756
1.73779
1.81398
1.88384
1.94803
2.0102
2.0763
2.15329
2.24766
2.36384
2.5023
2.66148
2.83888
3.03072
3.23229
3.43851
3.64443
3.84565
4.03855
4.22035
4.38909
4.54341
4.6823
4.805
4.91107
5.00018
5.07208
5.12655
5.16324
5.18121
5.1798
5.15853
5.11728
5.05662
4.97806
4.8842
4.77846
4.66474
4.54695
4.42864
4.31266
4.2014
4.09694
4.00128
3.91635
3.8439
3.78542
3.74177
3.71304
3.69833
3.69574
3.70243
3.71467
3.72799
3.7372
3.7366
3.72146
3.68878
3.63817
3.57252
3.49768
3.42233
3.35582
3.30601
3.27966
3.27843
3.29502
3.31827
3.33683
3.34233
3.3309
3.30291
3.26149
3.21086
3.15599
3.10037
3.04669
2.9972
2.95391
2.91794
2.88796
2.86122
2.83442
2.8048
2.77082
2.73237
2.69024
2.64548
2.59904
2.55182
2.50483
2.45989
2.42015
2.39016
2.37524
2.38067
2.41064
2.46722
2.54959
2.65549
2.77939
2.91012
3.03225
3.13018
3.19065
3.20423
3.16626
3.07728
2.94299
2.77369
2.58317
2.38702
2.1998
2.03077
1.8844
1.76373
1.671
1.60633
1.56793
1.55158
1.54877
1.54393
1.51647
1.44483
1.30968
1.09734
0.802833
0.4317
0
-0.517946
-0.85761
-0.27246
1.46775
4.19379
7.27778
9.7953
10.8865
10.1571
7.88625
4.90028
2.17349
0.391807
-0.273395
-0.0933569
0.446102
0.862748
1.20833
1.44367
1.54504
1.51005
1.3608
1.1431
0.918454
0.747925
0.665362
0.648768
0.668459
0.708944
0.762726
0.824702
0.890995
0.959272
1.02879
1.10015
1.17481
1.25449
1.34052
1.4334
1.5331
1.63764
1.74
1.83088
1.90262
1.953
1.98764
2.01997
2.06815
2.15007
2.27836
2.45072
2.65682
2.89021
3.14761
3.42689
3.72715
4.04851
4.39126
4.75471
5.13616
5.53225
5.93497
6.32133
6.66104
6.92744
7.10291
7.18206
7.17157
7.08695
6.94723
6.76951
6.56543
6.34461
6.11325
5.87546
5.63504
5.39644
5.16504
4.94661
4.74663
4.56955
4.41734
4.28946
4.18316
4.09416
4.01753
3.94868
3.88406
3.82171
3.76146
3.70474
3.65409
3.61236
3.58192
3.56402
3.55844
3.56343
3.57599
3.59228
3.60803
3.61912
3.62187
3.61353
3.59266
3.5595
3.51614
3.46645
3.41567
3.36968
3.33379
3.31177
3.30823
3.32637
3.36126
3.40078
3.43103
3.43986
3.41977
3.36927
3.29246
3.19735
3.09363
2.9906
2.89397
2.80654
2.72961
2.6637
2.60785
2.56018
2.51872
2.4822
2.45082
2.42663
2.41349
2.41661
2.44169
2.49403
2.59269
2.77836
3.07499
3.41829
3.72321
3.91915
3.96881
3.87363
3.66676
3.39892
3.12396
2.88716
2.69728
2.53998
2.40296
2.27922
2.16463
2.05622
1.95136
1.84766
1.74291
1.63485
1.52096
1.39837
1.26401
1.11502
0.949273
0.765901
0.565645
0.347747
0
-0.0706796
0.569808
2.1469
4.58383
7.39657
9.78024
10.91
10.3217
8.15498
5.10824
2.12332
-0.0177543
-0.970074
-0.863723
-0.301122
0.0441324
0.33508
0.557962
0.715319
0.814111
0.865124
0.882222
0.879347
0.869223
0.860091
0.857009
0.863947
0.884006
0.919593
0.973356
1.04989
1.15479
1.28075
1.40318
1.49354
1.52864
1.49935
1.41453
1.29776
1.17863
1.08324
1.02201
0.988294
0.977283
0.988561
1.02155
1.07611
1.15275
1.24895
1.35334
1.45137
1.53151
1.59009
1.63414
1.68057
1.75122
1.86536
2.03232
2.23894
2.46858
2.70579
2.92929
3.11943
3.26202
3.35003
3.38344
3.36739
3.30944
3.2167
3.09376
2.94404
2.7713
2.57869
2.36859
2.14413
1.91041
1.67435
1.44387
1.22695
1.03057
0.859928
0.718045
0.605636
0.52142
0.462549
0.425061
0.404322
0.39549
0.393058
0.39078
0.382579
0.363102
0.328383
0.276493
0.208018
0.126219
0.0367894
-0.0528263
-0.13296
-0.194504
-0.230562
-0.237756
-0.216859
-0.172552
-0.112352
-0.0449608
0.0214836
0.0813098
0.131899
0.171746
0.200693
0.219438
0.229175
0.231647
0.228949
0.223957
0.220494
0.223205
0.236846
0.265306
0.311686
0.378706
0.461654
0.548514
0.625669
0.681808
0.711038
0.714145
0.697755
0.671978
0.647631
0.633265
0.632648
0.647581
0.680336
0.736055
0.82886
0.99432
1.27952
1.64645
2.00133
2.24558
2.30467
2.15302
1.82807
1.42615
1.07675
0.893318
0.836994
0.826383
0.831599
0.840708
0.8437
0.83394
0.808623
0.768219
0.715206
0.652613
0.583589
0.50988
0.431969
0.349646
0.262475
0.16933
0.0366718
0
0.567572
2.06796
4.45159
7.15792
9.28803
10.0217
9.04347
6.71425
3.88252
1.46448
0.0504744
-0.258526
0.248284
0.687848
1.07976
1.41699
1.68529
1.88049
2.00741
2.07714
2.10374
2.10164
2.0857
2.06693
2.05537
2.06011
2.08827
2.14397
2.22723
2.33384
2.4562
2.58519
2.71223
2.8321
2.94285
3.0435
3.13465
3.21803
3.29632
3.3728
3.45129
3.53596
3.63103
3.74038
3.86699
4.01247
4.17658
4.35729
4.55113
4.75365
4.95998
5.16556
5.36667
5.56075
5.74645
5.92332
6.09128
6.24961
6.3964
6.52881
6.64332
6.73567
6.80155
6.83738
6.84085
6.81123
6.74957
6.65881
6.54469
6.41517
6.27879
6.14444
6.02101
5.9163
5.83819
5.79741
5.80631
5.86207
5.93748
5.99997
6.02067
5.98223
5.88289
5.73557
5.56308
5.39187
5.24455
5.1335
5.07124
5.06583
5.11961
5.2278
5.37816
5.55233
5.72914
5.88906
6.02148
6.12792
6.20812
6.26285
6.29451
6.30651
6.30342
6.28965
6.27005
6.24984
6.23427
6.22802
6.23515
6.2589
6.29954
6.35086
6.40087
1
158
315
472
629
786
941
1098
1254
1410
1565
1721
1875
2030
2185
2339
2496
2654
2813
2977
3142
3310
3477
3642
0
0
0
0
0
0
0
0
0
0
0
0
0
0
0
0
0
0
0
0
0
0
0
0
0
0
0
0
0
0
0
0
0
0
0
0
0
0
0
0
0
0
0
0
0
0
0
0
0
0
0
0
0
0
0
0
0
0
0
0
0
0
0
0
0
0
0
0
0
0
0
0
0
0
0
0
0
0
0
0
0
0
0
0
0
0
0
0
0
0
0
0
0
0
0
0
0
0
0
0
0
0
0
0
0
0
0
0
0
0
0
0
0
0
0
0
0
0
0
0
0
0
0
0
0
0
0
0
0
0
0
0
0
0
0
0
0
0
0
0
0
0
0
0
0
0
0
0
0
0
0
0
0
0
0
0
0
0
0
0
0
0
0
0
0
0
0
0
0
0
0
0
0
0
0
0
0
0
0
0
0
0
0
0
0
0
0
0
0
0
0
0
0
0
0
0
0
0
0
0
0
0
0
0
0
0
0
0
0
0
0
0
0
0
0
0
0
0
0
0
0
0
0
0
0
0
0
0
0
0
0
0
0
0
0
0
0
0
0
0
0
0
0
0
0
0
0
0
0
0
0
0
0
0
0
0
0
0
0
0
0
0
0
0
0
0
0
0
0
0
0
0
0
0
0
0
0
0
0
0
0
0
0
0
0
0
0
0
0
0
0
0
0
0
0
0
0
0
0
0
0
0
0
0
0
0
0
0
0
0
0
0
0
0
0
0
0
0
0
0
0
0
0
0
0
0
0
0
0
0
0
0
0
0
0
0
0
0
0
0
0
0
0
0
0
0
0
0
0
0
0
0
0
0
0
0
0
0
0
0
0
0
0
0
0
0
0
0
0
0
0
0
0
0
0
0
0
0
0
0
0
0
0
0
0
0
0
0
0
0
0
0
0
0
0
0
0
0
0
0
0
0
0
0
0
0
0
0
0
0
0
0
0
0
0
0
0
0
0
0
0
0
0
0
0
0
0
0
0
0
0
0
0
0
0
0
0
0
0
0
0
0
0
0
0
0
0
0
0
0
0
0
0
0
0
0
0
0
0
0
0
0
0
0
0
0
0
0
0
0
0
0
0
0
0
0
0
0
0
0
0
0
0
0
0
0
0
0
0
0
0
0
0
0
0
0
0
0
0
0
0
0
0
0
0
0
0
0
0
0
0
0
0
0
0
0
0
0
0
0
0
0
0
0
0
0
0
0
0
0
0
0
0
0
0
0
0
0
0
0
0
0
0
0
0
0
0
0
0
0
0
0
0
0
0
0
0
0
0
0
0
0
0
0
0
0
0
0
0
0
0
0
0
0
0
0
0
0
0
0
0
0
0
0
0
0
0
0
0
0
0
0
0
0
0
0
0
0
0
0
0
0
0
0
0
0
0
0
0
0
0
0
0
0
0
0
0
0
0
0
0
0
0
0
0
0
0
0
0
0
0
0
0
0
0
0
0
0
0
0
0
0
0
0
0
0
0
0
0
0
0
0
0
0
0
0
0
0
0
0
0
0
0
0
0
0
0
0
0
0
0
0
0
0
0
0
0
0
0
0
0
0
0
0
0
0
0
0
0
0
0
0
0
0
0
0
0
0
0
0
0
0
0
0
0
0
0
0
0
0
0
0
0
0
0
0
0
0
0
0
0
0
0
0
0
0
0
0
0
0
0
0
0
0
0
0
0
0
0
0
0
0
0
0
0
0
0
0
0
0
0
0
0
0
0
0
0
0
0
0
0
0
0
0
0
0
0
0
0
0
0
0
0
0
0
0
0
0
0
0
0
0
0
0
0
0
0
0
0
0
0
0
0
0
0
0
0
0
0
0
0
0
0
0
0
0
0
0
0
0
0
0
0
0
0
0
0
0
0
0
0
0
0
0
0
0
0
0
0
0
0
0
0
0
0
0
0
0
0
0
0
0
0
0
0
0
0
0
0
0
0
0
0
0
0
0
0
0
0
0
0
0
0
0
0
0
0
0
0
0
0
0
0
0
0
0
0
0
0
0
0
0
0
0
0
0
0
0
0
0
0
0
0
0
0
0
0
0
0
0
0
0
0
0
0
0
0
0
0
0
0
0
0
0
0
0
0
0
0
0
0
0
0
0
0
0
0
0
0
0
0
0
0
0
0
0
0
0
0
0
0
0
0
0
0
0
0
0
0
0
0
0
0
0
0
0
0
0
0
0
0
0
0
0
0
0
0
0
0
0
0
0
0
0
0
0
0
0
0
0
0
0
0
0
0
0
0
0
0
0
0
0
0
0
0
0
0
0
0
0
0
0
0
0
0
0
0
0
0
0
0
0
0
0
0
0
0
0
0
0
0
0
0
0
0
0
0
0
0
0
0
0
0
0
0
0
0
0
0
0
0
0
0
0
0
0
0
0
0
0
0
0
0
0
0
0
0
0
0
0
0
0
0
0
0
0
0
0
0
0
0
0
0
0
0
0
0
0
0
0
0
0
0
0
0
0
0
0
0
0
0
0
0
0
0
0
0
0
0
0
0
0
0
0
0
0
0
0
0
0
0
0
0
0
0
0
0
0
0
0
0
0
0
0
0
0
0
0
0
0
0
0
0
0
0
0
0
0
0
0
0
0
0
0
0
0
0
0
0
0
0
0
0
0
0
0
0
0
0
0
0
0
0
0
0
0
0
0
0
0
0
0
0
0
0
0
0
0
0
0
0
0
0
0
0
0
0
0
0
0
0
0
0
0
0
0
0
0
0
0
0
0
0
0
0
0
0
0
0
0
0
0
0
0
0
0
0
0
0
0
0
0
0
0
0
0
0
0
0
0
0
0
0
0
0
0
0
0
0
0
0
0
0
0
0
0
0
0
0
0
0
0
0
0
0
0
0
0
0
0
0
0
0
0
0
0
0
0
0
0
0
0
0
0
0
0
0
0
0
0
0
0
0
0
0
0
0
0
0
0
0
0
0
0
0
0
0
0
0
0
0
0
0
0
0
0
0
0
0
0
0
0
0
0
0
0
0
0
0
0
0
0
0
0
0
0
0
0
0
0
0
0
0
0
0
0
0
0
0
0
0
0
0
0
0
0
0
0
0
0
0
0
0
0
0
0
0
0
0
0
0
0
0
0
0
0
0
0
0
0
0
0
0
0
0
0
0
0
0
0
0
0
0
0
0
0
0
0
0
0
0
0
0
0
0
0
0
0
0
0
0
0
0
0
0
0
0
0
0
0
0
0
0
0
0
0
0
0
0
0
0
0
0
0
0
0
0
0
0
0
0
0
0
0
0
0
0
0
0
0
0
0
0
0
0
0
0
0
0
0
0
0
0
0
0
0
0
0
0
0
0
0
0
0
0
0
0
0
0
0
0
0
0
0
0
0
0
0
0
0
0
0
0
0
0
0
0
0
0
0
0
0
0
0
0
0
0
0
0
0
0
0
0
0
0
0
0
0
0
0
0
0
0
0
0
0
0
0
0
0
0
0
0
0
0
0
0
0
0
0
0
0
0
0
0
0
0
0
0
0
0
0
0
0
0
0
0
0
0
0
0
0
0
0
0
0
0
0
0
0
0
0
0
0
0
0
0
0
0
0
0
0
0
0
0
0
0
0
0
0
0
0
0
0
0
0
0
0
0
0
0
0
0
0
0
0
0
0
0
0
0
0
0
0
0
0
0
0
0
0
0
0
0
0
0
0
0
0
0
0
0
0
0
0
0
0
0
0
0
0
0
0
0
0
0
0
0
0
0
0
0
0
0
0
0
0
0
0
0
0
0
0
0
0
0
0
0
0
0
0
0
0
0
0
0
0
0
0
0
0
0
0
0
0
0
0
0
0
0
0
0
0
0
0
0
0
0
0
0
0
0
0
0
0
0
0
0
0
0
0
0
0
0
0
0
0
0
0
0
0
0
0
0
0
0
0
0
0
0
0
0
0
0
0
0
0
0
0
0
0
0
0
0
0
0
0
0
0
0
0
0
0
0
0
0
0
0
0
0
0
0
0
0
0
0
0
0
0
0
0
0
0
0
0
0
0
0
0
0
0
0
0
0
0
0
0
0
0
0
0
0
0
0
0
0
0
0
0
0
0
0
0
0
0
0
0
0
0
0
0
0
0
0
0
0
0
0
0
0
0
0
0
0
0
0
0
0
0
0
0
0
0
0
0
0
0
0
0
0
0
0
0
0
0
0
0
0
0
0
0
0
0
0
0
0
0
0
0
0
0
0
0
0
0
0
0
0
0
0
0
0
0
0
0
0
0
0
0
0
0
0
0
0
0
0
0
0
0
0
0
0
0
0
0
0
0
0
0
0
0
0
0
0
0
0
0
0
0
0
0
0
0
0
0
0
0
0
0
0
0
0
0
0
0
0
0
0
0
0
0
0
0
0
0
0
0
0
0
0
0
0
0
0
0
0
0
0
0
0
0
0
0
0
0
0
0
0
0
0
0
0
0
0
0
0
0
0
0
0
0
0
0
0
0
0
0
0
0
0
0
0
0
0
0
0
0
0
0
0
0
0
0
0
0
0
0
0
0
0
0
0
0
0
0
0
0
0
0
0
0
0
0
0
0
0
0
0
0
0
0
0
0
0
0
0
0
0
0
0
0
0
0
0
0
0
0
0
0
0
0
0
0
0
0
0
0
0
0
0
0
0
0
0
0
0
0
0
0
0
0
0
0
0
0
0
0
0
0
0
0
0
0
0
0
0
0
0
0
0
0
0
0
0
0
0
0
0
0
0
0
0
0
0
0
0
0
0
0
0
0
0
0
0
0
0
0
0
0
0
0
0
0
0
0
0
0
0
0
0
0
0
0
0
0
0
0
0
0
0
0
0
0
0
0
0
0
0
0
0
0
0
0
0
0
0
0
0
0
0
0
0
0
0
0
0
0
0
0
0
0
0
0
0
0
0
0
0
0
0
0
0
0
0
0
0
0
0
0
0
0
0
0
0
0
0
0
0
0
0
0
0
0
0
0
0
0
0
0
0
0
0
0
0
0
0
0
0
0
0
0
0
0
0
0
0
0
0
0
0
0
0
0
0
0
0
0
0
0
0
0
0
0
0
0
0
0
0
0
0
0
0
0
0
0
0
0
0
0
0
0
0
0
0
0
0
0
0
0
0
0
0
0
0
0
0
0
0
0
0
0
0
0
0
0
0
0
0
0
0
0
0
0
0
0
0
0
0
0
0
0
0
0
0
0
0
0
0
0
0
0
0
0
0
0
0
0
0
0
0
0
0
0
0
0
0
0
0
0
0
0
0
0
0
0
0
0
0
0
0
0
0
0
0
0
0
0
0
0
0
0
0
0
0
0
0
0
0
0
0
0
0
0
0
0
0
0
0
0
0
0
0
0
0
0
0
0
0
0
0
0
0
0
0
0
0
0
0
0
0
0
0
0
0
0
0
0
0
0
0
0
0
0
0
0
0
0
0
0
0
0
0
0
0
0
0
0
0
0
0
0
0
0
0
0
0
0
0
0
0
0
0
0
0
0
0
0
0
0
0
0
0
0
0
0
0
0
0
0
0
0
0
0
0
0
0
0
0
0
0
0
0
0
0
0
0
0
0
0
0
0
0
0
0
0
0
0
0
0
0
0
0
0
0
0
0
0
0
0
0
0
0
0
0
0
0
0
0
0
0
0
0
0
0
0
0
0
0
0
0
0
0
0
0
0
0
0
0
0
0
0
0
0
0
0
0
0
0
0
0
0
0
0
0
0
0
0
0
0
0
0
0
0
0
0
0
0
0
0
0
0
0
0
0
0
0
0
0
0
0
0
0
0
0
0
0
0
0
0
0
0
0
0
0
0
0
0
0
0
0
0
0
0
0
0
0
0
0
0
0
0
0
0
0
0
0
0
0
0
0
0
0
0
0
0
0
0
0
0
0
0
0
0
0
0
0
0
0
0
0
0
0
0
0
0
0
0
0
0
0
0
0
0
0
0
0
0
0
0
0
0
0
0
0
0
0
0
0
0
0
0
0
0
0
0
0
0
0
0
0
0
0
0
0
0
0
0
0
0
0
0
0
0
0
0
0
0
0
0
0
0
0
0
0
0
0
0
0
0
0
0
0
0
0
0
0
0
0
0
0
0
0
0
0
0
0
0
0
0
0
0
0
0
0
0
0
0
0
0
0
0
0
0
0
0
0
0
0
0
0
0
0
0
0
0
0
0
0
0
0
0
0
0
0
0
0
0
0
0
0
0
0
0
0
0
0
0
0
0
0
0
0
0
0
0
0
0
0
0
0
0
0
0
0
0
0
0
0
0
0
0
0
0
0
0
0
0
0
0
0
0
0
0
0
0
0
0
0
0
0
0
0
0
0
0
0
0
0
0
0
0
0
0
0
0
0
0
0
0
0
0
0
0
0
0
0
0
0
0
0
0
0
0
0
0
0
0
0
0
0
0
0
0
0
0
0
0
0
0
0
0
0
0
0
0
0
0
0
0
0
0
0
0
0
0
0
0
0
0
0
0
0
0
0
0
0
0
0
0
0
0
0
0
0
0
0
0
0
0
0
0
0
0
0
0
0
0
0
0
0
0
0
0
0
0
0
0
0
0
0
0
0
0
0
0
0
0
0
0
0
0
0
0
0
0
0
0
0
0
0
0
0
0
0
0
0
0
0
0
0
0
0
0
0
0
0
0
0
0
0
0
0
0
0
0
0
0
0
0
0
0
0
0
0
0
0
0
0
0
0
0
0
0
0
0
0
0
0
0
0
0
0
0
0
0
0
0
0
0
0
0
0
0
0
0
0
0
0
0
0
0
0
0
0
0
0
0
0
0
0
0
0
0
0
0
0
0
0
0
0
0
0
0
0
0
0
0
0
0
0
0
0
0
0
0
0
0
0
0
0
0
0
0
0
0
0
0
0
0
0
0
0
0
0
0
0
0
0
0
0
0
0
0
0
0
0
0
0
0
0
0
0
0
0
0
0
0
0
0
0
0
0
0
0
0
0
0
0
0
0
0
0
0
0
0
0
0
0
0
0
0
0
0
0
0
0
0
0
0
0
0
0
0
0
0
0
0
0
0
0
0
0
0
0
0
0
0
0
0
0
0
0
0
0
0
0
0
0
0
0
0
0
0
0
0
0
0
0
0
0
0
0
0
0
0
0
0
0
0
0
0
0
0
0
0
0
0
0
0
0
0
0
0
0
0
0
0
0
0
0
0
0
0
0
0
0
0
0
0
0
0
0
0
0
0
0
0
0
0
0
0
0
0
0
0
0
0
0
0
0
0
0
0
0
0
0
0
0
0
0
0
0
0
0
0
0
0
0
0
0
0
0
0
0
0
0
0
0
0
0
0
0
0
0
0
0
0
0
0
0
0
0
0
0
0
0
0
0
0
0
0
0
0
0
0
0
0
0
0
0
0
0
0
0
0
0
0
0
0
0
0
0
0
0
0
0
0
0
0
0
0
0
0
0
0
0
0
0
0
0
0
0
0
0
0
0
0
0
0
0
0
0
0
0
0
0
0
0
0
0
0
0
0
0
0
0
0
0
0
0
0
0
0
0
0
0
0
0
0
0
0
0
0
0
0
0
0
0
0
0
0
0
0
0
0
0
0
0
0
0
0
0
0
0
0
0
0
0
0
0
0
0
0
0
0
0
0
0
0
0
0
0
0
0
0
0
0
0
0
0
0
0
0
0
0
0
0
0
0
0
0
0
0
0
0
0
0
0
0
0
0
0
0
0
0
0
0
0
0
0
0
0
0
0
0
0
0
0
0
0
0
0
0
0
0
0
0
0
0
0
0
0
0
0
0
0
0
0
0
0
0
0
0
0
0
0
0
0
0
0
0
0
0
0
0
0
0
0
0
0
0
0
0
0
0
0
0
0
0
0
0
0
0
0
0
0
0
0
0
0
0
0
0
0
0
0
0
0
0
0
0
0
0
0
0
0
0
0
0
0
0
0
0
0
0
0
0
0
0
0
0
0
0
0
0
0
0
0
0
0
0
0
0
0
0
0
0
0
0
0
0
0
0
0
0
0
0
0
0
0
0
0
0
0
0
0
0
0
0
0
0
0
0
0
0
0
0
0
0
0
0
0
0
0
0
0
0
0
0
0
0
0
0
0
0
0
0
0
0
0
0
0
0
0
0
0
0
0
0
0
0
0
0
0
0
0
0
0
0
0
0
0
0
0
0
0
0
0
0
0
0
0
0
0
0
0
0
0
0
0
0
0
0
0
0
0
0
0
0
0
0
0
0
0
0
0
0
0
0
0
0
0
0
0
0
0
0
0
0
0
0
0
0
0
0
0
0
0
0
0
0
0
0
0
0
0
0
0
0
0
0
0
0
0
0
0
0
0
0
0
0
0
0
0
0
0
0
0
0
0
0
0
0
0
0
0
0
0
0
0
0
0
0
0
0
0
0
0
0
0
0
0
0
0
0
0
0
0
0
0
0
0
0
0
0
0
0
0
0
0
0
0
0
0
0
0
0
0
0
0
