-0.0372285
0.0175106
0.0605553
0.0955612
0.127604
0.161454
0.201466
0.245533
0.28644
0.315448
0.326966
0.322078
0.309225
0.301814
0.313953
0.356188
0.424134
0.511684
0.61964
0.745405
0.875165
0.990439
1.07418
1.11478
1.10893
1.06204
0.985968
0.895055
0.802232
0.715417
0.636586
0.566003
0.503744
0.449543
0.402553
0.361333
0.323831
0.287453
0.249437
0.207389
0.159845
0.106682
0.0490948
-0.00933929
-0.0634435
-0.107771
-0.137787
-0.150793
-0.146351
-0.126137
-0.093372
-0.0520546
0
0.09875
0.483464
1.25367
2.33649
3.43184
4.09662
3.94187
2.84344
1.04013
-0.947457
-2.54071
-3.34034
-3.30745
-2.66408
-1.77506
-0.957245
-0.378388
-0.0961485
-0.0555778
-0.0360781
-0.0196251
-0.0032105
0.0151136
0.0368591
0.0629331
0.0936316
0.128871
0.168283
0.211255
0.256902
0.303947
0.350515
0.394042
0.431687
0.460867
0.479855
0.488371
0.487955
0.482014
0.475521
0.474435
0.484979
0.512026
0.558426
0.625756
0.71454
0.823504
0.949352
1.08706
1.23032
1.37192
1.50511
1.62457
1.72708
1.81183
1.88021
1.93524
1.98075
2.0205
2.05753
2.09368
2.12958
2.16483
2.19846
2.22935
2.25666
2.27976
2.298
2.31007
2.31246
2.29891
2.26165
2.19172
2.08099
1.92464
1.72327
1.48399
1.22005
0.948945
0.688676
0.451452
0.247667
0.0831958
-0.0398732
-0.123907
-0.176454
-0.206931
-0.224802
-0.23813
-0.252742
-0.272036
-0.297284
-0.328219
-0.363614
-0.401882
-0.441691
-0.482137
-0.522759
-0.563513
-0.604608
-0.646179
-0.687854
-0.72822
-0.764139
-0.790936
-0.802951
-0.794537
-0.761263
-0.70098
-0.614475
-0.502431
-0.369576
-0.226962
-0.0908118
0.0219331
0.0976252
0.127508
0.109163
0.0475509
-0.045001
-0.150664
-0.249959
-0.326571
-0.375401
-0.401804
-0.411849
-0.408355
-0.393946
-0.371098
-0.341868
-0.307843
-0.270125
-0.229881
-0.188195
-0.146153
-0.104966
-0.066181
-0.0329846
-0.0100866
-0.00243645
-0.014193
-0.0463461
-0.0945747
-0.148526
-0.193238
-0.212511
-0.193151
-0.128742
-0.020911
0.121161
0.283266
0.449481
0.606757
0.743654
0.850751
0.92306
0.95849
0.957508
0.923006
0.860223
0.776496
0.680679
0.582247
0.489924
0.409331
0.343502
0.295014
0.265162
0.253567
0.258987
0.279038
0.308489
0.340776
0.369667
0.390305
0.399942
0.398146
0.386428
0.367419
0.343851
0.317811
0.290186
0.260838
0.229034
0.193945
0.155103
0.112565
0.0642603
0
0.288619
1.09582
2.369
3.76536
4.74433
4.80064
3.72311
1.73405
-0.579222
-2.51231
-3.54358
-3.53578
-2.73993
-1.62301
-0.632299
-0.0195066
0.190215
0.19444
0.222538
0.259229
0.304127
0.357653
0.418712
0.484967
0.552909
0.618304
0.67703
0.725701
0.762112
0.78545
0.79631
0.79657
0.789214
0.77817
0.767923
0.763474
0.769549
0.789938
0.826891
0.880734
0.949908
1.03142
1.1216
1.21697
1.31471
1.41337
1.51254
1.61255
1.71412
1.81791
1.92414
2.03229
2.14095
2.24722
2.34689
2.43552
2.50942
2.56672
2.60795
2.63597
2.65523
2.67058
2.68599
2.70328
2.72224
2.74064
2.75255
2.74984
2.72397
2.66814
2.57932
2.45933
2.31441
2.15334
1.9848
1.81512
1.64689
1.48079
1.31722
1.15706
1.00235
0.856966
0.725818
0.614085
0.526117
0.464334
0.428494
0.415964
0.422535
0.440416
0.461001
0.476691
0.482022
0.47424
0.453281
0.42128
0.381827
0.339226
0.297804
0.261018
0.231982
0.212959
0.20519
0.20934
0.225098
0.250301
0.282563
0.320058
0.361987
0.408481
0.459944
0.516113
0.575539
0.6345
0.688051
0.731287
0.760615
0.774446
0.773042
0.757712
0.72987
0.691107
0.642996
0.58649
0.52347
0.457135
0.391942
0.333083
0.285653
0.253028
0.237197
0.239705
0.262621
0.307124
0.362715
0.409022
0.425114
0.3962
0.320152
0.210326
0.0922291
-0.00522995
-0.0599655
-0.0742926
-0.0638365
-0.0341537
0.00946827
0.0617729
0.118208
0.17629
0.235261
0.295942
0.360512
0.432825
0.524217
0.674513
0.958315
1.34032
1.7097
1.95925
2.02899
1.92076
1.68136
1.37214
1.05225
0.789261
0.624761
0.536968
0.497625
0.489932
0.504995
0.539173
0.588612
0.649268
0.71711
0.788559
0.858555
0.921548
0.972029
1.00498
1.01629
1.00301
0.963247
0.896058
0.801383
0.682107
0.542217
0.384908
0.214638
0.0205819
0
0.38898
1.30513
2.68829
4.22674
5.4052
5.70369
4.85775
3.02862
0.772318
-1.19107
-2.29157
-2.34019
-1.49557
-0.636875
0.0793581
0.486376
0.55096
0.573366
0.586196
0.598039
0.615714
0.643838
0.683764
0.735505
0.798155
0.86993
0.948537
1.03152
1.11656
1.20166
1.2853
1.36648
1.44458
1.51907
1.58895
1.6519
1.70344
1.7385
1.75165
1.73908
1.70094
1.64277
1.5755
1.51358
1.47198
1.46298
1.48735
1.54049
1.61961
1.72271
1.84697
1.98897
2.14544
2.31294
2.48875
2.66817
2.8384
2.98235
3.08343
3.13089
3.12425
3.07419
2.99902
2.91815
2.84535
2.78324
2.72693
2.67259
2.61627
2.55485
2.48646
2.41009
2.32484
2.22911
2.12075
1.99711
1.85646
1.69925
1.52886
1.35148
1.17497
1.00718
0.853912
0.718299
0.600464
0.498199
0.408172
0.327216
0.253327
0.186181
0.127131
0.078093
0.0418608
0.0207743
0.0159086
0.0265043
0.0498245
0.0815228
0.116434
0.149541
0.176818
0.195621
0.204666
0.203663
0.192834
0.172753
0.144343
0.109194
0.0699059
0.0302216
-0.00527058
-0.0318657
-0.0457285
-0.0449078
-0.029097
-0.0004673
0.0372128
0.0801422
0.125716
0.173149
0.223422
0.280091
0.344418
0.405253
0.442907
0.438621
0.386107
0.297976
0.202722
0.13351
0.114567
0.141888
0.194049
0.259203
0.330041
0.399671
0.462435
0.514254
0.552726
0.576852
0.586592
0.582408
0.564854
0.534569
0.492447
0.439858
0.378543
0.31102
0.242635
0.180135
0.129945
0.0967705
0.0826107
0.0866173
0.105879
0.136811
0.17655
0.223061
0.275612
0.335686
0.404338
0.475001
0.530776
0.549796
0.512616
0.410189
0.248951
0.0506428
-0.153292
-0.330662
-0.464513
-0.547291
-0.57821
-0.564139
-0.516506
-0.44812
-0.371164
-0.294779
-0.223822
-0.161042
-0.108136
-0.0659702
-0.0346264
-0.0134624
-0.00140762
0.00272636
0
0.00512543
0.00484962
-0.000218201
-0.0092804
-0.0219501
-0.040588
0.0880009
0.558081
1.40443
2.55841
3.80741
4.81197
5.19364
4.69122
3.32302
1.44319
-0.382318
-1.63457
-2.07851
-1.75044
-1.23629
-0.65183
-0.12064
0.28417
0.533584
0.72813
0.900689
1.05909
1.20401
1.33406
1.44794
1.54399
1.61927
1.67082
1.69704
1.6986
1.67858
1.64194
1.59463
1.54323
1.49309
1.44882
1.41476
1.39502
1.39338
1.41312
1.45673
1.52558
1.61953
1.73648
1.87481
2.03009
2.18932
2.33623
2.45619
2.53973
2.58492
2.59784
2.59094
2.57962
2.5781
2.5943
2.62785
2.67477
2.73082
2.79226
2.85544
2.91764
2.97745
3.03474
3.09028
3.145
3.19917
3.25151
3.29796
3.33082
3.34079
3.31832
3.25615
3.15144
3.00698
2.83097
2.63533
2.43314
2.23561
2.04842
1.8754
1.71893
1.57999
1.45868
1.35468
1.2674
1.196
1.1393
1.09562
1.06211
1.03513
1.01071
0.985099
0.955201
0.918955
0.875495
0.825139
0.76929
0.71038
0.651456
0.596512
0.550704
0.518849
0.505024
0.511815
0.539821
0.587634
0.652351
0.730435
0.818541
0.913706
1.01359
1.11617
1.21451
1.29591
1.34462
1.34717
1.29864
1.20643
1.0891
0.970368
0.870714
0.796439
0.741768
0.703444
0.676406
0.655808
0.638413
0.623022
0.610021
0.60048
0.594966
0.593268
0.595103
0.599726
0.605995
0.612389
0.616971
0.617428
0.61123
0.595977
0.569899
0.532397
0.484517
0.429127
0.370856
0.319405
0.287344
0.287205
0.328614
0.415466
0.552895
0.729968
0.916906
1.08165
1.19932
1.25825
1.26046
1.21747
1.14453
1.05662
0.967416
0.884235
0.811398
0.75251
0.713151
0.696454
0.698123
0.710773
0.726038
0.736908
0.73938
0.732803
0.718937
0.700291
0.67873
0.654781
0.627868
0.596884
0.560802
0.519227
0.472718
0.422822
0.371823
0.322269
0.276525
0.236239
0.201765
0.172278
0.146045
0.120822
0.0935936
0
0.197684
0.93866
2.2234
3.72773
4.88712
5.15402
4.28776
2.49922
0.353383
-1.50782
-2.64779
-2.92072
-2.61307
-1.93945
-1.13495
-0.355459
0.249975
0.451317
0.508012
0.533242
0.541304
0.549788
0.573891
0.621273
0.686437
0.760752
0.838456
0.914791
0.987027
1.05423
1.11498
1.16686
1.20559
1.22609
1.22633
1.21088
1.19182
1.1858
1.2084
1.26824
1.35474
1.46045
1.57591
1.69075
1.79664
1.88867
1.96373
2.02112
2.06231
2.09047
2.11028
2.12696
2.14645
2.1746
2.21639
2.27517
2.35196
2.44511
2.55103
2.66357
2.77439
2.87515
2.95866
3.01966
3.05498
3.06327
3.04437
2.99868
2.92675
2.83029
2.71125
2.57147
2.41314
2.23939
2.05454
1.86394
1.67356
1.48959
1.31764
1.16243
1.02738
0.913087
0.818163
0.739731
0.674125
0.617521
0.566437
0.518095
0.470538
0.42296
0.375982
0.33187
0.294492
0.268853
0.261358
0.287849
0.362333
0.468418
0.577385
0.658854
0.692681
0.676381
0.625291
0.566341
0.528686
0.532398
0.571867
0.637827
0.731898
0.840546
0.944524
1.0258
1.0724
1.08123
1.05785
1.01334
0.959784
0.906459
0.856921
0.811126
0.768761
0.72984
0.694786
0.664633
0.640907
0.62522
0.61902
0.624008
0.640208
0.663694
0.689232
0.71172
0.727535
0.735209
0.735171
0.728725
0.716876
0.699802
0.677485
0.64962
0.617145
0.582949
0.551925
0.530256
0.525033
0.547703
0.607793
0.700353
0.802085
0.88519
0.925549
0.90957
0.838714
0.73105
0.618791
0.540852
0.530997
0.590656
0.703134
0.861927
1.03804
1.19943
1.32024
1.38679
1.39835
1.36324
1.29307
1.19817
1.0891
0.973247
0.85502
0.738366
0.627692
0.527598
0.441986
0.373629
0.324403
0.2947
0.283424
0.288174
0.305334
0.329709
0.354596
0.373285
0.380127
0.371238
0.344974
0.302028
0.245151
0.178548
0.107121
0.0358204
0
0.237513
0.83807
1.81501
2.93886
3.75892
3.80509
2.85569
1.09976
-0.918542
-2.54436
-3.30132
-3.09521
-2.17783
-0.997214
0.030373
0.674575
0.836007
0.771218
0.69803
0.626384
0.565266
0.523302
0.507048
0.516325
0.548053
0.598605
0.664467
0.741969
0.827151
0.915674
1.00257
1.08278
1.15173
1.20561
1.24169
1.25874
1.25734
1.24009
1.21161
1.17818
1.14711
1.12587
1.12099
1.13659
1.17379
1.23259
1.31099
1.40546
1.51161
1.62483
1.74139
1.85851
1.97434
2.08766
2.1976
2.303
2.40184
2.49143
2.56873
2.63068
2.6748
2.69977
2.70563
2.69376
2.66651
2.62668
2.57727
2.52082
2.45876
2.39145
2.31811
2.23759
2.14857
2.05025
1.94286
1.82807
1.70882
1.58886
1.47195
1.36094
1.25716
1.16053
1.06968
0.98259
0.897276
0.812516
0.728325
0.64613
0.568498
0.498685
0.439988
0.396207
0.371502
0.365858
0.373217
0.385254
0.39378
0.393213
0.382277
0.364366
0.346435
0.336772
0.341705
0.367545
0.416055
0.473881
0.522776
0.54695
0.53965
0.505939
0.460429
0.421264
0.403383
0.409929
0.433573
0.468991
0.512687
0.560794
0.608633
0.651507
0.685289
0.70673
0.713712
0.705432
0.682485
0.646845
0.601756
0.551608
0.501422
0.456986
0.423816
0.406316
0.406962
0.425727
0.459962
0.504866
0.554462
0.602866
0.645736
0.681313
0.709173
0.730495
0.747511
0.762772
0.778431
0.795815
0.815198
0.83579
0.856427
0.876305
0.895538
0.915307
0.937517
0.964078
0.996053
1.03296
1.07268
1.11147
1.14475
1.16796
1.17753
1.17153
1.15008
1.11529
1.07098
1.02209
0.97388
0.93109
0.896799
0.872086
0.856983
0.850554
0.84907
0.846451
0.836562
0.814726
0.778846
0.729716
0.670375
0.604738
0.536062
0.466007
0.394539
0.32054
0.242702
0.160244
0.0733894
-0.0165527
-0.107919
-0.192447
0
0.55332
1.54024
2.88702
4.27742
5.21869
5.25714
4.22333
2.34821
0.169535
-1.71338
-2.88236
-3.1979
-2.81655
-1.97761
-0.962681
-0.0138741
0.681319
0.923811
0.998396
1.01298
0.969578
0.883304
0.77906
0.684572
0.619085
0.583102
0.567991
0.565548
0.570778
0.58066
0.593174
0.60765
0.624673
0.645627
0.672008
0.704731
0.743885
0.787772
0.8333
0.876604
0.913838
0.942002
0.95963
0.967173
0.966987
0.962875
0.95926
0.960032
0.968916
0.9875
1.01321
1.04177
1.06938
1.09478
1.12024
1.15096
1.19305
1.25096
1.32838
1.42041
1.51385
1.59225
1.64016
1.64663
1.60715
1.52402
1.40513
1.2615
1.1046
0.942773
0.779446
0.614935
0.448262
0.277951
0.102813
-0.0775154
-0.262328
-0.449878
-0.637653
-0.822746
-1.00221
-1.17339
-1.33414
-1.48302
-1.61941
-1.74347
-1.85615
-1.95874
-2.05247
-2.13808
-2.21548
-2.28381
-2.34157
-2.38624
-2.41578
-2.43008
-2.42987
-2.41618
-2.38985
-2.35124
-2.30063
-2.23509
-2.15637
-2.07853
-2.02079
-2.00067
-2.02598
-2.08971
-2.171
-2.24235
-2.27992
-2.27683
-2.2456
-2.19264
-2.12707
-2.05809
-1.99277
-1.93419
-1.88455
-1.84511
-1.81665
-1.79969
-1.79517
-1.80418
-1.82795
-1.86752
-1.92363
-1.99644
-2.08545
-2.18945
-2.30641
-2.43424
-2.5699
-2.70558
-2.82629
-2.91465
-2.95409
-2.93313
-2.84933
-2.71155
-2.53912
-2.35787
-2.19369
-2.06172
-1.96928
-1.91241
-1.87734
-1.84473
-1.79532
-1.71544
-1.60777
-1.48058
-1.33909
-1.19168
-1.04948
-0.922314
-0.816916
-0.735979
-0.678445
-0.640724
-0.618383
-0.607671
-0.60577
-0.611371
-0.624532
-0.645358
-0.673404
-0.707315
-0.744757
-0.782639
-0.817606
-0.846351
-0.865973
-0.87424
-0.869726
-0.851835
-0.820742
-0.777288
-0.723122
-0.659934
-0.589642
-0.514283
-0.435912
-0.356569
-0.277991
-0.201588
-0.128335
-0.0590904
0
0.0145691
0.401514
1.28103
2.48594
3.55825
3.9339
3.23786
1.52414
-0.701913
-2.71505
-3.92167
-4.1345
-3.58334
-2.72004
-1.95057
-1.46567
-1.2399
-1.11929
-1.02163
-0.940177
-0.873409
-0.824873
-0.796818
-0.788963
-0.798312
-0.819439
-0.845277
-0.86829
-0.881812
-0.881926
-0.867811
-0.838824
-0.7981
-0.753203
-0.714435
-0.691074
-0.688689
-0.70733
-0.740922
-0.77818
-0.804949
-0.807486
-0.775778
-0.708659
-0.613636
-0.499268
-0.37252
-0.240278
-0.10972
0.0106407
0.115454
0.203207
0.276611
0.342142
0.408436
0.483728
0.572992
0.675877
0.78555
0.893189
0.989761
1.06698
1.11871
1.14159
1.13495
1.10018
1.03993
0.95844
0.859218
0.745377
0.619854
0.485303
0.343998
0.197784
0.0482582
-0.103203
-0.255018
-0.405083
-0.550648
-0.688432
-0.815
-0.927291
-1.02318
-1.10194
-1.16443
-1.21124
-1.24499
-1.27124
-1.29488
-1.31866
-1.34229
-1.3623
-1.37304
-1.36848
-1.34422
-1.29997
-1.24063
-1.17127
-1.09709
-1.02319
-0.953212
-0.888533
-0.828154
-0.76926
-0.708316
-0.642385
-0.570275
-0.492416
-0.413392
-0.341425
-0.285199
-0.251125
-0.241136
-0.251734
-0.274552
-0.298317
-0.311683
-0.306118
-0.279713
-0.235906
-0.179024
-0.114782
-0.0488544
0.0145401
0.0734036
0.127882
0.17948
0.229958
0.28038
0.330682
0.379944
0.4269
0.47051
0.510287
0.546294
0.57883
0.607875
0.633086
0.653994
0.6704
0.682976
0.693567
0.704951
0.720022
0.740681
0.767664
0.797955
0.82469
0.840104
0.838351
0.817645
0.780782
0.733823
0.683477
0.634357
0.587346
0.539087
0.484246
0.418744
0.342487
0.260319
0.18078
0.113268
0.0648638
0.0347164
0.0185026
0.0130095
0.0149609
0.0211587
0.0291162
0.0373395
0.0452347
0.05273
0.0597999
0.0660827
0.0707449
0.0726481
0.0707214
0.0643936
0.0536839
0.0365235
0
0.237297
0.858766
1.81297
2.84822
3.54712
3.48849
2.47459
0.685229
-1.36036
-3.03646
-3.89684
-3.88109
-3.22723
-2.31347
-1.45292
-0.80498
-0.446632
-0.402764
-0.395688
-0.398263
-0.40741
-0.42007
-0.433118
-0.444161
-0.452027
-0.457228
-0.462238
-0.470231
-0.483763
-0.503637
-0.528345
-0.554243
-0.576338
-0.589364
-0.589679
-0.575942
-0.547438
-0.504328
-0.448068
-0.381286
-0.307551
-0.230996
-0.155908
-0.0861968
-0.0245295
0.0281887
0.0731136
0.113376
0.153564
0.198825
0.253753
0.321324
0.402038
0.493739
0.59278
0.693762
0.791362
0.881616
0.962785
1.03556
1.10233
1.16618
1.23109
1.29823
1.36034
1.40338
1.41191
1.37495
1.29001
1.16393
1.01052
0.845813
0.683282
0.529508
0.384682
0.24771
0.118407
-0.00249939
-0.113936
-0.214867
-0.304278
-0.381807
-0.450891
-0.519682
-0.598615
-0.698375
-0.827927
-1.01716
-1.2907
-1.60852
-1.90133
-2.10774
-2.19018
-2.14105
-1.98182
-1.75642
-1.51988
-1.32326
-1.18017
-1.07341
-0.989087
-0.92178
-0.871164
-0.836695
-0.816829
-0.810122
-0.8147
-0.82775
-0.845359
-0.862906
-0.875929
-0.881154
-0.877438
-0.865966
-0.848825
-0.828631
-0.807627
-0.787051
-0.767007
-0.746851
-0.725885
-0.704087
-0.682631
-0.664027
-0.652115
-0.651352
-0.665083
-0.694748
-0.739023
-0.793456
-0.850816
-0.902235
-0.938995
-0.954536
-0.947156
-0.919858
-0.876398
-0.824013
-0.770772
-0.722997
-0.683553
-0.651091
-0.620446
-0.584092
-0.534277
-0.464874
-0.363359
-0.232817
-0.0983818
0.0103527
0.0716831
0.0812206
0.0541386
0.0189713
0.00532761
0.0308784
0.0874271
0.159398
0.228112
0.275947
0.29218
0.275797
0.234483
0.18068
0.126761
0.0806953
0.0437847
0.0154575
-0.00402794
-0.0140903
-0.0134563
0
0.0298153
0.0781197
0.146953
0.237065
0.348058
0.478281
0.624982
0.784655
0.955111
1.13451
1.31578
1.75972
2.58344
3.66668
4.63481
5.00515
4.43002
2.90842
0.839766
-1.1231
-2.3572
-2.55481
-1.85369
-0.72995
0.260477
0.772004
0.810629
0.908389
1.03879
1.17422
1.31061
1.44419
1.57281
1.69674
1.81854
1.94207
2.07332
2.21151
2.34167
2.44204
2.49537
2.49921
2.46884
2.43137
2.41449
2.43592
2.48895
2.56038
2.64351
2.73457
2.83032
2.92825
3.02658
3.12403
3.21975
3.31328
3.40475
3.49505
3.58583
3.67934
3.77794
3.88353
3.99704
4.11816
4.24546
4.37701
4.51103
4.64642
4.78309
4.9222
5.06659
5.21959
5.377
5.52044
5.62437
5.66458
5.62654
5.51034
5.33038
5.1104
4.8764
4.65088
4.44347
4.25383
4.08106
3.92595
3.78916
3.66887
3.56045
3.4581
3.35605
3.24977
3.13697
3.01812
2.8962
2.77608
2.66313
2.5623
2.47775
2.41225
2.36707
2.34219
2.33661
2.34877
2.37679
2.41848
2.47116
2.53324
2.60073
2.66774
2.72861
2.7793
2.81827
2.84648
2.86623
2.8794
2.88558
2.88214
2.86505
2.83148
2.78238
2.7238
2.66612
2.6214
2.59983
2.60198
2.6307
2.68402
2.7482
2.80752
2.849
2.86603
2.85972
2.8374
2.80907
2.78312
2.76311
2.74657
2.73003
2.70975
2.68328
2.65033
2.61277
2.57372
2.5364
2.50269
2.47287
2.44668
2.42333
2.40179
2.38119
2.36116
2.34227
2.32623
2.316
2.31608
2.33919
2.4248
2.61309
2.85803
3.0743
3.17626
3.11878
2.9153
2.62536
2.32291
2.06571
1.86454
1.69561
1.54725
1.41747
1.3074
1.21791
1.15053
1.10854
1.09148
1.08794
1.08392
1.06644
1.02715
0.964479
0.883159
0.791393
0.697032
0.60444
0.513334
0.422118
0.328809
0.231705
0.12863
0
0.119059
0.674932
1.626
2.76781
3.75008
4.17438
3.74215
2.40392
0.431478
-1.65077
-3.26747
-3.9195
-3.82848
-3.15395
-2.26861
-1.51136
-1.10039
-1.10421
-1.15697
-1.21614
-1.27644
-1.33482
-1.39131
-1.44838
-1.50874
-1.57379
-1.64247
-1.70899
-1.76399
-1.79771
-1.80369
-1.78146
-1.73737
-1.68289
-1.63144
-1.59461
-1.57819
-1.58411
-1.6101
-1.65113
-1.70102
-1.75324
-1.80307
-1.84634
-1.87958
-1.90011
-1.90632
-1.89789
-1.87588
-1.84241
-1.80009
-1.75121
-1.69709
-1.63766
-1.57118
-1.49475
-1.40497
-1.29758
-1.16218
-0.97706
-0.719231
-0.416155
-0.132446
0.0693684
0.141239
0.0631302
-0.148695
-0.444799
-0.757259
-1.02292
-1.2262
-1.3995
-1.56335
-1.72579
-1.89086
-2.06121
-2.23786
-2.42004
-2.60524
-2.78947
-2.96752
-3.13274
-3.27809
-3.39765
-3.48694
-3.54369
-3.56829
-3.56278
-3.53084
-3.48122
-3.42488
-3.37287
-3.33513
-3.31826
-3.32477
-3.35269
-3.39566
-3.44366
-3.48467
-3.50703
-3.50216
-3.46794
-3.41063
-3.33732
-3.25511
-3.17154
-3.09308
-3.02405
-2.96624
-2.91925
-2.88132
-2.85072
-2.82593
-2.80663
-2.79376
-2.78937
-2.79537
-2.81301
-2.84233
-2.88189
-2.92896
-2.97995
-3.0312
-3.07959
-3.12318
-3.16176
-3.19615
-3.22744
-3.25708
-3.28657
-3.31716
-3.34955
-3.38355
-3.41782
-3.44957
-3.47409
-3.48554
-3.47752
-3.44414
-3.38099
-3.28595
-3.15957
-3.00498
-2.82749
-2.63458
-2.4347
-2.23589
-2.04987
-1.88774
-1.75889
-1.6695
-1.62148
-1.61197
-1.63401
-1.67789
-1.7328
-1.78838
-1.83689
-1.87343
-1.89388
-1.89444
-1.87197
-1.82428
-1.75033
-1.65055
-1.52697
-1.38326
-1.22456
-1.05707
-0.887372
-0.721871
-0.566123
-0.424075
-0.297657
-0.186628
-0.0887154
0
0.0758698
0.154669
0.398334
0.92284
1.69678
2.75038
3.98749
5.12686
5.77745
5.6277
4.63445
3.08345
1.47354
0.29417
-0.172653
0.100559
0.691446
1.24014
1.75231
2.21469
2.62531
2.9822
3.28697
3.54491
3.76397
3.95345
4.12264
4.27975
4.43106
4.58063
4.73067
4.88194
5.03476
5.18995
5.34938
5.51577
5.692
5.88005
6.08028
6.29086
6.50833
6.72925
6.95028
7.16854
7.38176
7.58813
7.78613
7.9744
8.15188
8.31817
8.47391
8.62108
8.76302
8.90411
9.04912
9.20256
9.36791
9.54719
9.74071
9.94711
10.1636
10.3863
10.6107
10.8321
11.0458
11.2476
11.4339
11.6019
11.7488
11.8732
11.9744
12.0528
12.1096
12.1463
12.1645
12.1662
12.1539
12.1304
12.098
12.0592
12.0159
11.9698
11.9222
11.8741
11.8263
11.7801
11.7376
11.7013
11.6749
11.6616
11.6642
11.6841
11.7198
11.769
11.8276
11.8906
11.9525
12.0084
12.0543
12.0873
12.1058
12.1092
12.0975
12.0708
12.0293
11.9729
11.9011
11.8137
11.7109
11.5939
11.4653
11.3292
11.191
11.0573
10.9347
10.829
10.7439
10.6809
10.6395
10.6178
10.611
10.6106
10.6072
10.5935
10.566
10.525
10.4755
10.4246
10.3807
10.3506
10.3366
10.3368
10.3479
10.3668
10.39
10.4143
10.4369
10.4558
10.4697
10.4779
10.4799
10.4758
10.4657
10.45
10.4293
10.4041
10.3751
10.3432
10.3091
10.2733
10.2364
10.1989
10.1609
10.1228
10.0846
10.0464
10.0083
9.97024
9.93231
9.8945
9.8568
9.81921
9.78174
9.74436
9.70704
9.66975
9.63241
9.5949
9.55707
9.51875
9.47972
9.43979
9.39876
9.35652
9.31295
9.26789
9.22099
9.1714
9.11756
9.05676
8.98508
8.89733
8.78756
8.64981
8.47932
8.27386
8.03496
7.76728
7.47492
7.18273
6.9187
6.70721
6.57363
6.53222
6.55874
6.616
6.66737
6.6873
6.66561
6.60597
6.52124
6.42834
6.34324
6.27548
6.23025
6.21032
6.21641
6.2479
6.30407
6.38408
6.48605
6.6067
6.7412
6.88367
7.02668
7.16195
7.28217
7.38216
7.45965
7.51534
7.55242
7.5755
7.58942
7.5982
7.60449
7.60942
7.61293
7.61436
7.61288
7.60788
7.59912
7.58676
7.57127
7.55329
7.53351
7.51252
7.49083
7.4688
7.44667
7.42458
7.40262
7.38083
7.3592
7.33771
7.31628
7.29478
7.27292
7.25026
7.22607
7.19922
7.16815
7.1308
7.08468
7.02711
6.95559
6.86828
6.76456
6.64552
6.5141
6.37501
6.23421
6.09813
5.97311
5.86474
5.77614
5.70847
5.66133
5.63325
5.62213
5.62644
5.64595
5.67478
5.70161
5.71374
5.70014
5.65435
5.57599
5.46991
5.34403
5.20703
5.06756
4.93117
4.80141
4.68167
4.57556
4.48617
4.41346
4.35527
4.30789
4.26692
4.22819
4.18863
4.14679
4.10286
4.05843
4.01578
3.97693
3.94332
3.91554
3.89292
3.87275
3.85083
3.82268
3.78486
3.73596
3.67713
3.61185
3.545
3.48168
3.42589
3.3795
3.34372
3.31885
3.30459
3.30039
3.30536
3.31848
3.33808
3.36124
3.38471
3.40564
3.42231
3.4345
3.44331
3.45035
3.45664
3.4615
3.46151
3.45087
3.42238
3.36935
3.2878
3.17811
3.0457
2.9004
2.75467
2.62096
2.50643
2.41597
2.35465
2.32138
2.30238
2.28036
2.23943
2.1694
2.06824
1.94191
1.80135
1.65786
1.51848
1.38255
1.24618
1.1033
0.947966
0.776656
0.589751
0.391774
0.190486
0
0.0239319
0.46559
1.15335
2.07414
3.14479
4.13374
4.68891
4.48991
3.44083
1.769
-0.0464264
-1.48442
-2.17861
-1.79181
-1.35135
-0.87135
-0.419342
-0.0759842
0.109477
0.2314
0.313974
0.368196
0.40567
0.436287
0.466487
0.498247
0.530763
0.561972
0.589113
0.609256
0.619904
0.619466
0.607552
0.585062
0.554105
0.517732
0.479575
0.443457
0.413004
0.391409
0.38129
0.384373
0.401709
0.433861
0.481184
0.5444
0.62491
0.723631
0.841364
0.978361
1.13382
1.30552
1.48978
1.68187
1.87679
2.07016
2.2593
2.44305
2.62163
2.79599
2.96681
3.13354
3.2927
3.43723
3.55767
3.64444
3.69013
3.69107
3.64774
3.56422
3.4473
3.30767
3.15611
3.00044
2.84644
2.69893
2.56181
2.43781
2.32839
2.23382
2.15346
2.08615
2.03059
1.98563
1.95032
1.92395
1.90586
1.89507
1.89045
1.89081
1.89526
1.90354
1.91617
1.93444
1.9601
1.99487
2.03986
2.09552
2.16116
2.23487
2.31403
2.39573
2.47723
2.55621
2.63093
2.70015
2.76298
2.81865
2.86631
2.90482
2.93265
2.94825
2.95027
2.93787
2.91102
2.8705
2.81778
2.75474
2.68318
2.60464
2.52004
2.42978
2.33398
2.23267
2.126
2.01428
1.89797
1.77748
1.6531
1.525
1.39346
1.25911
1.1233
0.98825
0.857053
0.733362
0.620963
0.523273
0.442987
0.381918
0.341009
0.320407
0.319497
0.337115
0.372206
0.422794
0.482365
0.541263
0.590081
0.621925
0.634153
0.628767
0.611138
0.587562
0.56269
0.537947
0.512418
0.484269
0.452246
0.416864
0.380701
0.347639
0.321375
0.304736
0.296732
0.2935
0.289813
0.281193
0.265718
0.24484
0.222953
0.20592
0.198281
0.201116
0.214868
0.238162
0.265227
0.287408
0.295661
0.282677
0.244686
0.182506
0.101549
0
0.0266661
0.511362
1.39404
2.52532
3.63586
4.39661
4.52111
3.88082
2.5804
0.944743
-0.595435
-1.6724
-2.09892
-2.02086
-1.61053
-1.06891
-0.496298
0.101638
0.699097
1.09079
1.29152
1.42484
1.53286
1.62529
1.70775
1.78371
1.8541
1.91744
1.97152
2.01537
2.05065
2.08196
2.11619
2.16105
2.22106
2.29765
2.3913
2.50129
2.62526
2.75933
2.89799
3.03543
3.16643
3.28704
3.39504
3.48988
3.57285
3.64655
3.71456
3.78085
3.84938
3.92354
4.0058
4.09739
4.19822
4.3071
4.42263
4.54342
4.66823
4.79617
4.92641
5.05679
5.18156
5.29128
5.37367
5.41575
5.40649
5.33916
5.21275
5.03238
4.80879
4.55725
4.29705
4.04287
3.80424
3.58944
3.40524
3.2559
3.14328
3.06667
3.02209
3.00193
2.99613
2.99397
2.98526
2.96138
2.91614
2.8464
2.75238
2.63763
2.50853
2.37352
2.24154
2.12056
2.01722
1.93599
1.8789
1.84572
1.83445
1.84199
1.86479
1.89917
1.94159
1.98922
2.03921
2.08878
2.13515
2.17551
2.20712
2.22718
2.23374
2.22578
2.20348
2.16842
2.12348
2.0725
2.01956
1.9683
1.92111
1.87892
1.84118
1.80622
1.7719
1.73624
1.69783
1.65603
1.61081
1.56251
1.51125
1.45657
1.39725
1.33166
1.25813
1.17561
1.0844
0.986528
0.885815
0.787432
0.697137
0.62038
0.561601
0.52379
0.50839
0.515385
0.543435
0.594199
0.669525
0.758876
0.845653
0.913011
0.948818
0.949753
0.922359
0.880338
0.839216
0.810698
0.795278
0.78843
0.786807
0.785892
0.781493
0.770881
0.753389
0.73036
0.704471
0.678715
0.655412
0.635331
0.618273
0.603238
0.588972
0.574482
0.559298
0.543427
0.527042
0.51012
0.492217
0.472473
0.449796
0.423192
0.392071
0.356436
0.316888
0.274466
0.230398
0.185821
0.141576
0.0981888
0.0559036
0.0147919
-0.0249477
-0.0608334
0
0.386137
1.19284
2.37548
3.67901
4.69137
4.9975
4.37155
2.90545
0.993043
-0.830433
-2.1075
-2.60282
-2.3927
-1.78464
-1.05087
-0.449488
-0.125502
-0.0322594
0.0364662
0.103889
0.172783
0.244622
0.320526
0.400913
0.485723
0.572986
0.657658
0.733326
0.793611
0.83368
0.851437
0.848031
0.827631
0.796677
0.762871
0.733504
0.713808
0.707962
0.719198
0.749056
0.797231
0.862973
0.944879
1.04119
1.15001
1.2698
1.39938
1.53788
1.68492
1.84001
2.00152
2.16432
2.31645
2.44282
2.529
2.56588
2.55465
2.5095
2.45613
2.42482
2.43998
2.50828
2.61472
2.74043
2.86167
2.9568
3.01101
3.01769
2.97683
2.89264
2.77198
2.62711
2.47009
2.30897
2.14928
1.99389
1.84236
1.6922
1.5403
1.3849
1.22716
1.07136
0.923821
0.791599
0.680635
0.590613
0.516914
0.452848
0.39245
0.332513
0.273087
0.216597
0.166348
0.124042
0.0899582
0.0652966
0.0512138
0.0485733
0.057925
0.0792343
0.111596
0.153067
0.200719
0.250906
0.299706
0.343473
0.379095
0.404359
0.418094
0.420208
0.411646
0.394266
0.370638
0.343763
0.316708
0.29215
0.27193
0.257058
0.247393
0.241313
0.236078
0.228749
0.217068
0.200268
0.179532
0.157955
0.139945
0.130164
0.133841
0.156586
0.196261
0.23905
0.266379
0.260339
0.209103
0.110553
-0.0269043
-0.186344
-0.346223
-0.485833
-0.595591
-0.668091
-0.697735
-0.683445
-0.628971
-0.538958
-0.424109
-0.305096
-0.201658
-0.127503
-0.08671
-0.073233
-0.0738937
-0.0737774
-0.0619312
-0.0359695
-0.000289917
0.0351891
0.0589733
0.0620377
0.0406853
-0.0025135
-0.0597328
-0.120282
-0.173518
-0.213394
-0.23886
-0.251174
-0.252474
-0.245216
-0.232081
-0.215598
-0.197669
-0.179308
-0.160622
-0.141029
-0.11964
-0.0957291
-0.0692055
-0.0409435
-0.0132675
0.00915299
0.0194714
0.010675
-0.02295
-0.0838932
-0.169995
-0.275982
-0.389236
-0.495356
-0.581746
-0.640499
-0.656825
-0.442765
0
0.606333
1.50886
2.72714
4.05065
5.05557
5.27493
4.45009
2.71949
0.612819
-1.17393
-2.10925
-2.05815
-1.27889
-0.534016
0.112595
0.604617
0.935248
1.1969
1.38462
1.49381
1.52461
1.48723
1.40377
1.30403
1.21665
1.16019
1.1303
1.11519
1.10877
1.1072
1.10731
1.10724
1.10668
1.10679
1.10965
1.1176
1.13253
1.15537
1.18636
1.22412
1.26685
1.31308
1.36244
1.41579
1.47501
1.54234
1.61953
1.70714
1.80383
1.90775
2.01684
2.12877
2.24119
2.35172
2.45817
2.55846
2.65053
2.73128
2.79537
2.8371
2.85207
2.83681
2.79043
2.71599
2.62097
2.51621
2.41352
2.32261
2.24642
2.18371
2.13144
2.08444
2.0368
1.98328
1.92029
1.84623
1.7612
1.66629
1.56294
1.45217
1.33416
1.20841
1.07416
0.930745
0.77767
0.617234
0.457533
0.312335
0.196496
0.12264
0.0983028
0.1242
0.193937
0.295207
0.412228
0.528816
0.632062
0.716663
0.782674
0.828691
0.854276
0.860382
0.849301
0.824601
0.790911
0.753468
0.717397
0.686882
0.664547
0.651612
0.646435
0.646118
0.647784
0.649773
0.652291
0.657299
0.667732
0.686348
0.714397
0.750627
0.792987
0.83841
0.882819
0.921063
0.94739
0.95721
0.947412
0.917049
0.867833
0.804184
0.732664
0.660822
0.59572
0.542028
0.500519
0.471761
0.454971
0.448483
0.45082
0.461327
0.480352
0.508932
0.548099
0.59808
0.6577
0.724185
0.793647
0.861727
0.924391
0.978524
1.02213
1.05417
1.07409
1.08146
1.0758
1.05652
1.02331
0.97662
0.918068
0.85071
0.778938
0.709157
0.650234
0.611211
0.600056
0.622097
0.67861
0.767918
0.887666
1.01756
1.1344
1.21793
1.25568
1.24494
1.19116
1.10382
0.992028
0.862507
0.722551
0.577066
0.429736
0.285722
0.151753
0.034684
-0.0601784
-0.130643
-0.17817
-0.187405
0
0.331298
1.00719
2.14294
3.55634
4.76776
5.21649
4.56964
2.92633
0.785778
-1.19599
-2.50377
-2.93836
-2.65501
-1.97369
-1.19129
-0.506024
0.00457306
0.285189
0.419305
0.513615
0.578835
0.619255
0.645691
0.673919
0.72127
0.802198
0.927294
1.11623
1.33656
1.54057
1.68383
1.74157
1.71575
1.63058
1.51995
1.41372
1.32807
1.25893
1.20116
1.15274
1.11291
1.0811
1.05719
1.04156
1.03522
1.04011
1.05883
1.0946
1.15105
1.23671
1.39427
1.70212
2.09513
2.46488
2.70169
2.74212
2.59753
2.3472
2.10054
1.94791
1.91994
1.93206
1.94823
1.95064
1.92416
1.85906
1.75255
1.60884
1.43756
1.25117
1.06208
0.87833
0.703288
0.538872
0.38532
0.241419
0.105088
-0.0259872
-0.153793
-0.279626
-0.403958
-0.526554
-0.646757
-0.763823
-0.877206
-0.986665
-1.0922
-1.1938
-1.29111
-1.38312
-1.4678
-1.54145
-1.6006
-1.64209
-1.66412
-1.66458
-1.64548
-1.61416
-1.57946
-1.54927
-1.52832
-1.51711
-1.51216
-1.5075
-1.49673
-1.47604
-1.4449
-1.40415
-1.35542
-1.30162
-1.24667
-1.19477
-1.14979
-1.11478
-1.09174
-1.08144
-1.08336
-1.0958
-1.11604
-1.14063
-1.16587
-1.18831
-1.2052
-1.21488
-1.21691
-1.21209
-1.20209
-1.18906
-1.17504
-1.1616
-1.14953
-1.13895
-1.12943
-1.12043
-1.11166
-1.10337
-1.09653
-1.09276
-1.09359
-1.09971
-1.11005
-1.12133
-1.12669
-1.1175
-1.0858
-1.02687
-0.941161
-0.834685
-0.717625
-0.601679
-0.497073
-0.408945
-0.33955
-0.287952
-0.251458
-0.227254
-0.213074
-0.208544
-0.214487
-0.231994
-0.261483
-0.301926
-0.350459
-0.402485
-0.452209
-0.493735
-0.522111
-0.53391
-0.526114
-0.496014
-0.439995
-0.356034
-0.256158
-0.165534
-0.110934
-0.113417
-0.180556
-0.301722
-0.449458
-0.58742
-0.682011
-0.722855
-0.72585
-0.700286
-0.650308
-0.581302
-0.498803
-0.408165
-0.311733
-0.207198
0
0.445823
1.15795
2.09645
3.09611
3.85682
4.02259
3.33953
1.81738
-0.207871
-2.17358
-3.51457
-3.90434
-3.37604
-2.27155
-1.0569
-0.109399
0.402081
0.461536
0.495287
0.531255
0.572128
0.619501
0.672965
0.730136
0.78717
0.839906
0.884945
0.920438
0.946434
0.964725
0.978358
0.990956
1.00593
1.02592
1.05284
1.08759
1.13012
1.17955
1.23437
1.29297
1.35395
1.41647
1.48044
1.54638
1.61518
1.6876
1.7638
1.84337
1.92474
2.00546
2.08342
2.15772
2.22934
2.30099
2.37636
2.45877
2.54982
2.64825
2.7502
2.85031
2.94232
3.02032
3.07979
3.11811
3.13453
3.12967
3.10472
3.06071
2.99857
2.9186
2.82028
2.70297
2.5667
2.41272
2.2438
2.06444
1.88044
1.6985
1.52544
1.3674
1.22907
1.11326
1.02102
0.951354
0.900343
0.861732
0.828898
0.795922
0.758413
0.71392
0.661913
0.603375
0.540198
0.474614
0.408716
0.344305
0.283221
0.228202
0.184079
0.156984
0.153142
0.178069
0.234692
0.321736
0.435365
0.563714
0.69206
0.805941
0.893938
0.949315
0.970295
0.959294
0.921698
0.864605
0.796962
0.72529
0.654987
0.589761
0.53147
0.479747
0.434304
0.394868
0.361546
0.334785
0.314981
0.302026
0.295079
0.292728
0.29348
0.296291
0.30082
0.307225
0.315663
0.325574
0.334103
0.336876
0.329834
0.31142
0.284034
0.253859
0.228896
0.21596
0.218017
0.232663
0.254513
0.277272
0.296693
0.312481
0.328237
0.349877
0.386235
0.433931
0.478423
0.500393
0.485436
0.431995
0.35365
0.275155
0.224525
0.224734
0.271348
0.402877
0.662254
0.981139
1.26774
1.44135
1.4571
1.31972
1.07845
0.804463
0.563747
0.400749
0.295759
0.222072
0.16767
0.129542
0.103716
0.0855564
0.0709225
0.0569302
0.0422909
0.0270908
0.0121387
-0.00178833
-0.0144199
-0.0260159
-0.0368973
-0.0469673
-0.05541
-0.0607784
-0.0614307
-0.0561001
-0.04272
0
0.164531
0.608639
1.44297
2.55272
3.57727
4.06406
3.70078
2.48275
0.726057
-1.0686
-2.41981
-3.0068
-2.89066
-2.30079
-1.56509
-0.975103
-0.655254
-0.506586
-0.370103
-0.242562
-0.123034
-0.0131592
0.0849659
0.169731
0.240142
0.295815
0.336869
0.363668
0.37666
0.376529
0.364198
0.341088
0.3094
0.272286
0.233821
0.198734
0.171917
0.157825
0.159602
0.179111
0.216458
0.269936
0.336242
0.411478
0.48995
0.563829
0.62596
0.671856
0.701153
0.718417
0.732769
0.756068
0.799872
0.87194
0.979394
1.11735
1.26127
1.38248
1.45857
1.48113
1.45789
1.40909
1.35987
1.33182
1.33115
1.36515
1.42374
1.48274
1.51547
1.50102
1.42976
1.30465
1.13824
0.946999
0.745836
0.54489
0.34783
0.155653
-0.030901
-0.210904
-0.38355
-0.548237
-0.704557
-0.85221
-0.990855
-1.11995
-1.23865
-1.34577
-1.4397
-1.51899
-1.58249
-1.62945
-1.65966
-1.67356
-1.67096
-1.65097
-1.61711
-1.57996
-1.55149
-1.54176
-1.55548
-1.58983
-1.63486
-1.6765
-1.70133
-1.7017
-1.68212
-1.64916
-1.60988
-1.57233
-1.5436
-1.52826
-1.52753
-1.5392
-1.55833
-1.5784
-1.59286
-1.59696
-1.58647
-1.55545
-1.50572
-1.45285
-1.41601
-1.41139
-1.44622
-1.5158
-1.60514
-1.69414
61
250
441
635
827
1020
1211
1400
1582
1764
1945
2125
2482
2666
2858
3053
3242
3433
3627
3699
2885
3164
3250
3426
3455
3610
2267
2305
2383
2574
2644
2770
2879
2970
3166
3231
3275
3359
3489
3555
3606
3753
3708
3735
0
0
0
0
0
0
0
0
0
0
0
0
0
0
0
0
0
0
0
0
0
0
0
0
0
0
0
0
0
0
0
0
0
0
0
0
0
0
0
0
0
0
0
0
0
0
0
0
0
0
0
0
0
0
0
0
0
0
0
0
0
0
0
0
0
0
0
0
0
0
0
0
0
0
0
0
0
0
0
0
0
0
0
0
0
0
0
0
0
0
0
0
0
0
0
0
0
0
0
0
0
0
0
0
0
0
0
0
0
0
0
0
0
0
0
0
0
0
0
0
0
0
0
0
0
0
0
0
0
0
0
0
0
0
0
0
0
0
0
0
0
0
0
0
0
0
0
0
0
0
0
0
0
0
0
0
0
0
0
0
0
0
0
0
0
0
0
0
0
0
0
0
0
0
0
0
0
0
0
0
0
0
0
0
0
0
0
0
0
0
0
0
0
0
0
0
0
0
0
0
0
0
0
0
0
0
0
0
0
0
0
0
0
0
0
0
0
0
0
0
0
0
0
0
0
0
0
0
0
0
0
0
0
0
0
0
0
0
0
0
0
0
0
0
0
0
0
0
0
0
0
0
0
0
0
0
0
0
0
0
0
0
0
0
0
0
0
0
0
0
0
0
0
0
0
0
0
0
0
0
0
0
0
0
0
0
0
0
0
0
0
0
0
0
0
0
0
0
0
0
0
0
0
0
0
0
0
0
0
0
0
0
0
0
0
0
0
0
0
0
0
0
0
0
0
0
0
0
0
0
0
0
0
0
0
0
0
0
0
0
0
0
0
0
0
0
0
0
0
0
0
0
0
0
0
0
0
0
0
0
0
0
0
0
0
0
0
0
0
0
0
0
0
0
0
0
0
0
0
0
0
0
0
0
0
0
0
0
0
0
0
0
0
0
0
0
0
0
0
0
0
0
0
0
0
0
0
0
0
0
0
0
0
0
0
0
0
0
0
0
0
0
0
0
0
0
0
0
0
0
0
0
0
0
0
0
0
0
0
0
0
0
0
0
0
0
0
0
0
0
0
0
0
0
0
0
0
0
0
0
0
0
0
0
0
0
0
0
0
0
0
0
0
0
0
0
0
0
0
0
0
0
0
0
0
0
0
0
0
0
0
0
0
0
0
0
0
0
0
0
0
0
0
0
0
0
0
0
0
0
0
0
0
0
0
0
0
0
0
0
0
0
0
0
0
0
0
0
0
0
0
0
0
0
0
0
0
0
0
0
0
0
0
0
0
0
0
0
0
0
0
0
0
0
0
0
0
0
0
0
0
0
0
0
0
0
0
0
0
0
0
0
0
0
0
0
0
0
0
0
0
0
0
0
0
0
0
0
0
0
0
0
0
0
0
0
0
0
0
0
0
0
0
0
0
0
0
0
0
0
0
0
0
0
0
0
0
0
0
0
0
0
0
0
0
0
0
0
0
0
0
0
0
0
0
0
0
0
0
0
0
0
0
0
0
0
0
0
0
0
0
0
0
0
0
0
0
0
0
0
0
0
0
0
0
0
0
0
0
0
0
0
0
0
0
0
0
0
0
0
0
0
0
0
0
0
0
0
0
0
0
0
0
0
0
0
0
0
0
0
0
0
0
0
0
0
0
0
0
0
0
0
0
0
0
0
0
0
0
0
0
0
0
0
0
0
0
0
0
0
0
0
0
0
0
0
0
0
0
0
0
0
0
0
0
0
0
0
0
0
0
0
0
0
0
0
0
0
0
0
0
0
0
0
0
0
0
0
0
0
0
0
0
0
0
0
0
0
0
0
0
0
0
0
0
0
0
0
0
0
0
0
0
0
0
0
0
0
0
0
0
0
0
0
0
0
0
0
0
0
0
0
0
0
0
0
0
0
0
0
0
0
0
0
0
0
0
0
0
0
0
0
0
0
0
0
0
0
0
0
0
0
0
0
0
0
0
0
0
0
0
0
0
0
0
0
0
0
0
0
0
0
0
0
0
0
0
0
0
0
0
0
0
0
0
0
0
0
0
0
0
0
0
0
0
0
0
0
0
0
0
0
0
0
0
0
0
0
0
0
0
0
0
0
0
0
0
0
0
0
0
0
0
0
0
0
0
0
0
0
0
0
0
0
0
0
0
0
0
0
0
0
0
0
0
0
0
0
0
0
0
0
0
0
0
0
0
0
0
0
0
0
0
0
0
0
0
0
0
0
0
0
0
0
0
0
0
0
0
0
0
0
0
0
0
0
0
0
0
0
0
0
0
0
0
0
0
0
0
0
0
0
0
0
0
0
0
0
0
0
0
0
0
0
0
0
0
0
0
0
0
0
0
0
0
0
0
0
0
0
0
0
0
0
0
0
0
0
0
0
0
0
0
0
0
0
0
0
0
0
0
0
0
0
0
0
0
0
0
0
0
0
0
0
0
0
0
0
0
0
0
0
0
0
0
0
0
0
0
0
0
0
0
0
0
0
0
0
0
0
0
0
0
0
0
0
0
0
0
0
0
0
0
0
0
0
0
0
0
0
0
0
0
0
0
0
0
0
0
0
0
0
0
0
0
0
0
0
0
0
0
0
0
0
0
0
0
0
0
0
0
0
0
0
0
0
0
0
0
0
0
0
0
0
0
0
0
0
0
0
0
0
0
0
0
0
0
0
0
0
0
0
0
0
0
0
0
0
0
0
0
0
0
0
0
0
0
0
0
0
0
0
0
0
0
0
0
0
0
0
0
0
0
0
0
0
0
0
0
0
0
0
0
0
0
0
0
0
0
0
0
0
0
0
0
0
0
0
0
0
0
0
0
0
0
0
0
0
0
0
0
0
0
0
0
0
0
0
0
0
0
0
0
0
0
0
0
0
0
0
0
0
0
0
0
0
0
0
0
0
0
0
0
0
0
0
0
0
0
0
0
0
0
0
0
0
0
0
0
0
0
0
0
0
0
0
0
0
0
0
0
0
0
0
0
0
0
0
0
0
0
0
0
0
0
0
0
0
0
0
0
0
0
0
0
0
0
0
0
0
0
0
0
0
0
0
0
0
0
0
0
0
0
0
0
0
0
0
0
0
0
0
0
0
0
0
0
0
0
0
0
0
0
0
0
0
0
0
0
0
0
0
0
0
0
0
0
0
0
0
0
0
0
0
0
0
0
0
0
0
0
0
0
0
0
0
0
0
0
0
0
0
0
0
0
0
0
0
0
0
0
0
0
0
0
0
0
0
0
0
0
0
0
0
0
0
0
0
0
0
0
0
0
0
0
0
0
0
0
0
0
0
0
0
0
0
0
0
0
0
0
0
0
0
0
0
0
0
0
0
0
0
0
0
0
0
0
0
0
0
0
0
0
0
0
0
0
0
0
0
0
0
0
0
0
0
0
0
0
0
0
0
0
0
0
0
0
0
0
0
0
0
0
0
0
0
0
0
0
0
0
0
0
0
0
0
0
0
0
0
0
0
0
0
0
0
0
0
0
0
0
0
0
0
0
0
0
0
0
0
0
0
0
0
0
0
0
0
0
0
0
0
0
0
0
0
0
0
0
0
0
0
0
0
0
0
0
0
0
0
0
0
0
0
0
0
0
0
0
0
0
0
0
0
0
0
0
0
0
0
0
0
0
0
0
0
0
0
0
0
0
0
0
0
0
0
0
0
0
0
0
0
0
0
0
0
0
0
0
0
0
0
0
0
0
0
0
0
0
0
0
0
0
0
0
0
0
0
0
0
0
0
0
0
0
0
0
0
0
0
0
0
0
0
0
0
0
0
0
0
0
0
0
0
0
0
0
0
0
0
0
0
0
0
0
0
0
0
0
0
0
0
0
0
0
0
0
0
0
0
0
0
0
0
0
0
0
0
0
0
0
0
0
0
0
0
0
0
0
0
0
0
0
0
0
0
0
0
0
0
0
0
0
0
0
0
0
0
0
0
0
0
0
0
0
0
0
0
0
0
0
0
0
0
0
0
0
0
0
0
0
0
0
0
0
0
0
0
0
0
0
0
0
0
0
0
0
0
0
0
0
0
0
0
0
0
0
0
0
0
0
0
0
0
0
0
0
0
0
0
0
0
0
0
0
0
0
0
0
0
0
0
0
0
0
0
0
0
0
0
0
0
0
0
0
0
0
0
0
0
0
0
0
0
0
0
0
0
0
0
0
0
0
0
0
0
0
0
0
0
0
0
0
0
0
0
0
0
0
0
0
0
0
0
0
0
0
0
0
0
0
0
0
0
0
0
0
0
0
0
0
0
0
0
0
0
0
0
0
0
0
0
0
0
0
0
0
0
0
0
0
0
0
0
0
0
0
0
0
0
0
0
0
0
0
0
0
0
0
0
0
0
0
0
0
0
0
0
0
0
0
0
0
0
0
0
0
0
0
0
0
0
0
0
0
0
0
0
0
0
0
0
0
0
0
0
0
0
0
0
0
0
0
0
0
0
0
0
0
0
0
0
0
0
0
0
0
0
0
0
0
0
0
0
0
0
0
0
0
0
0
0
0
0
0
0
0
0
0
0
0
0
0
0
0
0
0
0
0
0
0
0
0
0
0
0
0
0
0
0
0
0
0
0
0
0
0
0
0
0
0
0
0
0
0
0
0
0
0
0
0
0
0
0
0
0
0
0
0
0
0
0
0
0
0
0
0
0
0
0
0
0
0
0
0
0
0
0
0
0
0
0
0
0
0
0
0
0
0
0
0
0
0
0
0
0
0
0
0
0
0
0
0
0
0
0
0
0
0
0
0
0
0
0
0
0
0
0
0
0
0
0
0
0
0
0
0
0
0
0
0
0
0
0
0
0
0
0
0
0
0
0
0
0
0
0
0
0
0
0
0
0
0
0
0
0
0
0
0
0
0
0
0
0
0
0
0
0
0
0
0
0
0
0
0
0
0
0
0
0
0
0
0
0
0
0
0
0
0
0
0
0
0
0
0
0
0
0
0
0
0
0
0
0
0
0
0
0
0
0
0
0
0
0
0
0
0
0
0
0
0
0
0
0
0
0
0
0
0
0
0
0
0
0
0
0
0
0
0
0
0
0
0
0
0
0
0
0
0
0
0
0
0
0
0
0
0
0
0
0
0
0
0
0
0
0
0
0
0
0
0
0
0
0
0
0
0
0
0
0
0
0
0
0
0
0
0
0
0
0
0
0
0
0
0
0
0
0
0
0
0
0
0
0
0
0
0
0
0
0
0
0
0
0
0
0
0
0
0
0
0
0
0
0
0
0
0
0
0
0
0
0
0
0
0
0
0
0
0
0
0
0
0
0
0
0
0
0
0
0
0
0
0
0
0
0
0
0
0
0
0
0
0
0
0
0
0
0
0
0
0
0
0
0
0
0
0
0
0
0
0
0
0
0
0
0
0
0
0
0
0
0
0
0
0
0
0
0
0
0
0
0
0
0
0
0
0
0
0
0
0
0
0
0
0
0
0
0
0
0
0
0
0
0
0
0
0
0
0
0
0
0
0
0
0
0
0
0
0
0
0
0
0
0
0
0
0
0
0
0
0
0
0
0
0
0
0
0
0
0
0
0
0
0
0
0
0
0
0
0
0
0
0
0
0
0
0
0
0
0
0
0
0
0
0
0
0
0
0
0
0
0
0
0
0
0
0
0
0
0
0
0
0
0
0
0
0
0
0
0
0
0
0
0
0
0
0
0
0
0
0
0
0
0
0
0
0
0
0
0
0
0
0
0
0
0
0
0
0
0
0
0
0
0
0
0
0
0
0
0
0
0
0
0
0
0
0
0
0
0
0
0
0
0
0
0
0
0
0
0
0
0
0
0
0
0
0
0
0
0
0
0
0
0
0
0
0
0
0
0
0
0
0
0
0
0
0
0
0
0
0
0
0
0
0
0
0
0
0
0
0
0
0
0
0
0
0
0
0
0
0
0
0
0
0
0
0
0
0
0
0
0
0
0
0
0
0
0
0
0
0
0
0
0
0
0
0
0
0
0
0
0
0
0
0
0
0
0
0
0
0
0
0
0
0
0
0
0
0
0
0
0
0
0
0
0
0
0
0
0
0
0
0
0
0
0
0
0
0
0
0
0
0
0
0
0
0
0
0
0
0
0
0
0
0
0
0
0
0
0
0
0
0
0
0
0
0
0
0
0
0
0
0
0
0
0
0
0
0
0
0
0
0
0
0
0
0
0
0
0
0
0
0
0
0
0
0
0
0
0
0
0
0
0
0
0
0
0
0
0
0
0
0
0
0
0
0
0
0
0
0
0
0
0
0
0
0
0
0
0
0
0
0
0
0
0
0
0
0
0
0
0
0
0
0
0
0
0
0
0
0
0
0
0
0
0
0
0
0
0
0
0
0
0
0
0
0
0
0
0
0
0
0
0
0
0
0
0
0
0
0
0
0
0
0
0
0
0
0
0
0
0
0
0
0
0
0
0
0
0
0
0
0
0
0
0
0
0
0
0
0
0
0
0
0
0
0
0
0
0
0
0
0
0
0
0
0
0
0
0
0
0
0
0
0
0
0
0
0
0
0
0
0
0
0
0
0
0
0
0
0
0
0
0
0
0
0
0
0
0
0
0
0
0
0
0
0
0
0
0
0
0
0
0
0
0
0
0
0
0
0
0
0
0
0
0
0
0
0
0
0
0
0
0
0
0
0
0
0
0
0
0
0
0
0
0
0
0
0
0
0
0
0
0
0
0
0
0
0
0
0
0
0
0
0
0
0
0
0
0
0
0
0
0
0
0
0
0
0
0
0
0
0
0
0
0
0
0
0
0
0
0
0
0
0
0
0
0
0
0
0
0
0
0
0
0
0
0
0
0
0
0
0
0
0
0
0
0
0
0
0
0
0
0
0
0
0
0
0
0
0
0
0
0
0
0
0
0
0
0
0
0
0
0
0
0
0
0
0
0
0
0
0
0
0
0
0
0
0
0
0
0
0
0
0
0
0
0
0
0
0
0
0
0
0
0
0
0
0
0
0
0
0
0
0
0
0
0
0
0
0
0
0
0
0
0
0
0
0
0
0
0
0
0
0
0
0
0
0
0
0
0
0
0
0
0
0
0
0
0
0
0
0
0
0
0
0
0
0
0
0
0
0
0
0
0
0
0
0
0
0
0
0
0
0
0
0
0
0
0
0
0
0
0
0
0
0
0
0
0
0
0
0
0
0
0
0
0
0
0
0
0
0
0
0
0
0
0
0
0
0
0
0
0
0
0
0
0
0
0
0
0
0
0
0
0
0
0
0
0
0
0
0
0
0
0
0
0
0
0
0
0
0
0
0
0
0
0
0
0
0
0
0
0
0
0
0
0
0
0
0
0
0
0
0
0
0
0
0
0
0
0
0
0
0
0
0
0
0
0
0
0
0
0
0
0
0
0
0
0
0
0
0
0
0
0
0
0
0
0
0
0
0
0
0
0
0
0
0
0
0
0
0
0
0
0
0
0
0
0
0
0
0
0
0
0
0
0
0
0
0
0
0
0
0
0
0
0
0
0
0
0
0
0
0
0
0
0
0
0
0
0
0
0
0
0
0
0
0
0
0
0
0
0
0
0
0
0
0
0
0
0
0
0
0
0
0
0
0
0
0
0
0
0
0
0
0
0
0
0
0
0
0
0
0
0
0
0
0
0
0
0
0
0
0
0
0
0
0
0
0
0
0
0
0
0
0
0
0
0
0
0
0
0
0
0
0
0
0
0
0
0
0
0
0
0
0
0
0
0
0
0
0
0
0
0
0
0
0
0
0
0
0
0
0
0
0
0
0
0
0
0
0
0
0
0
0
0
0
0
0
0
0
0
0
0
0
0
0
0
0
0
0
0
0
0
0
0
0
0
0
0
0
0
0
0
0
0
0
0
0
0
0
0
0
0
0
0
0
0
0
0
0
0
0
0
0
0
0
0
0
0
0
0
0
0
0
0
0
0
0
0
0
0
0
0
0
0
0
0
0
0
0
0
0
0
0
0
0
0
0
0
0
0
0
0
0
0
0
0
0
0
0
0
0
0
0
0
0
0
0
0
0
0
0
0
0
0
0
0
0
0
0
0
0
0
0
0
0
0
0
0
0
0
0
0
0
0
0
0
0
0
0
0
0
0
0
0
0
0
0
0
0
0
0
0
0
0
0
0
0
0
0
0
0
0
0
0
0
0
0
0
0
0
0
0
0
0
0
0
0
0
0
0
0
0
0
0
0
0
0
0
0
0
0
0
0
0
0
0
0
0
0
0
0
0
0
0
0
0
0
0
0
0
0
0
0
0
0
0
0
0
0
0
0
0
0
0
0
0
0
0
0
0
0
0
0
0
0
0
0
0
0
0
0
0
0
0
0
0
0
0
0
0
0
0
0
0
0
0
0
0
0
0
0
0
0
0
0
0
0
0
0
0
0
0
0
0
0
0
0
0
0
0
0
0
0
0
0
0
0
0
0
0
0
0
0
0
0
