1.96184
1.90424
1.82721
1.73013
1.61627
1.49294
1.37056
1.26102
1.17736
1.15443
1.26453
1.53717
1.87189
2.15547
2.29242
2.23186
1.98753
1.63969
1.31223
1.12658
1.11564
1.18133
1.26964
1.36337
1.44864
1.51482
1.55605
1.5718
1.56635
1.54741
1.52413
1.50518
1.497
1.50234
1.52079
1.55117
1.59177
1.64067
1.69323
1.73786
1.75898
1.74049
1.67071
1.54736
1.38053
1.19198
1.01057
0.865182
0.766587
0.717754
0.723938
0.787173
0.888871
1.00448
1.11039
1.18811
1.2263
1.22077
1.17331
1.09012
0.980454
0.856302
0.727765
0.602403
0.48475
0.375328
0.272006
0.172157
0.0727734
-0.0701305
0
0.70889
2.3139
4.79267
7.71382
10.2775
11.568
10.9425
8.37178
4.523
0.50598
-2.60149
-4.19032
-4.28442
-3.38329
-2.12031
-0.964431
-0.107852
0.46155
0.742426
0.926712
1.09581
1.25575
1.40498
1.54037
1.65873
1.75752
1.83503
1.8915
1.92973
1.95499
1.97402
1.99367
2.01954
2.05461
2.10004
2.15718
2.22764
2.3137
2.41815
2.54357
2.69124
2.86017
3.04601
3.24254
3.44361
3.64359
3.83858
4.02735
4.21158
4.39549
4.58479
4.78524
5.00123
5.23453
5.48624
5.75335
6.02232
6.27153
6.47984
6.63121
6.71759
6.73947
6.70444
6.62437
6.51186
6.377
6.22661
6.06306
5.88578
5.69266
5.48092
5.24775
4.99119
4.71077
4.40758
4.08408
3.74375
3.39065
3.02917
2.66379
2.29917
1.94023
1.5924
1.2631
0.963019
0.702192
0.487975
0.325344
0.215779
0.156686
0.141551
0.160817
0.203254
0.257501
0.31333
0.363725
0.40446
0.432709
0.447296
0.448509
0.437866
0.417862
0.391718
0.362848
0.334413
0.308969
0.288376
0.272979
0.261786
0.253136
0.245436
0.237791
0.230326
0.224112
0.220802
0.222167
0.229334
0.24299
0.2637
0.291588
0.326259
0.366861
0.411663
0.457414
0.499396
0.532125
0.550107
0.548761
0.525331
0.479644
0.414551
0.335969
0.252411
0.173792
0.109257
0.0662918
0.0541733
0.0854753
0.153226
0.235076
0.305786
0.34594
0.348372
0.319825
0.277455
0.241938
0.230014
0.243189
0.275826
0.324776
0.380328
0.43055
0.46547
0.479919
0.475252
0.459419
0.445244
0.447245
0.477804
0.553049
0.68688
0.847285
0.987543
1.064
1.05303
0.960117
0.817385
0.671444
0.585127
0.771852
1.25905
1.82111
2.25398
2.42841
2.31464
1.97054
1.50423
1.03638
0.689442
0.520312
0.451558
0.427866
0.429233
0.448746
0.483422
0.530278
0.586012
0.646823
0.706073
0.752751
0.774249
0.75847
0.696948
0.587732
0.436777
0.257045
-0.0815577
0
0.791446
2.43662
4.84443
7.61053
10.0438
11.3616
11.0028
8.90915
5.60743
2.02097
-0.906369
-2.58033
-2.93133
-2.26953
-1.28508
-0.28065
0.530178
0.986551
1.20679
1.37829
1.52127
1.6357
1.72451
1.79335
1.84957
1.90087
1.95377
2.01237
2.07774
2.1482
2.21994
2.28888
2.35239
2.41035
2.46537
2.52201
2.58537
2.65965
2.74619
2.84425
2.95231
3.06864
3.19172
3.32085
3.45639
3.59956
3.75187
3.9144
4.08714
4.26856
4.45569
4.64452
4.83073
5.01052
5.18127
5.34185
5.49255
5.6344
5.76795
5.89218
6.00336
6.09566
6.16085
6.19044
6.17791
6.11984
6.01561
5.86602
5.67171
5.43257
5.15569
4.84861
4.51609
4.16242
3.79344
3.41636
3.03911
2.6696
2.315
1.98125
1.67271
1.39201
1.14004
0.916108
0.718154
0.54305
0.386979
0.245829
0.115608
-0.00714989
-0.124986
-0.239121
-0.349121
-0.452057
-0.542119
-0.612287
-0.654856
-0.663038
-0.63249
-0.553708
-0.411733
-0.191743
0.0934322
0.3874
0.635179
0.778451
0.76158
0.561479
0.217074
-0.16838
-0.461343
-0.555428
-0.505435
-0.399325
-0.270295
-0.126947
0.0183254
0.148493
0.249152
0.310926
0.331453
0.316226
0.27725
0.229407
0.185776
0.15399
0.132959
0.118769
0.108821
0.100693
0.0926613
0.0836826
0.073081
0.060284
0.0448454
0.0263594
0.00477772
-0.0194576
-0.0454161
-0.0717638
-0.0968618
-0.118998
-0.136198
-0.146273
-0.147137
-0.136728
-0.111738
-0.071117
-0.0252567
0.0101671
0.0197018
-0.00584831
-0.0651476
-0.145984
-0.229143
-0.294722
-0.328108
-0.333366
-0.317882
-0.284575
-0.237659
-0.182015
-0.122881
-0.0654089
-0.0135908
0.0302792
0.065909
0.094961
0.120594
0.146657
0.17671
0.213075
0.256085
0.30446
0.355752
0.406641
0.453313
0.491813
0.51826
0.528968
0.52072
0.491209
0.439271
0.365365
0.272018
0.164044
0.0482759
-0.0667604
-0.171964
-0.259165
-0.322455
-0.359167
-0.368716
-0.353181
-0.321255
-0.284912
-0.25598
-0.24417
-0.255781
-0.293256
-0.355526
-0.438906
-0.538237
-0.647369
-0.761067
-0.875598
-0.986187
-0.714675
0
1.22536
3.01549
5.25811
7.57117
9.33048
9.87963
8.84319
6.36015
3.08157
-0.0874868
-2.36617
-3.38997
-3.2479
-2.44966
-1.43562
-0.544804
0.0779962
0.323556
0.384566
0.428363
0.470173
0.516006
0.570895
0.638045
0.718268
0.809376
0.90785
1.00972
1.11096
1.20822
1.29933
1.3837
1.46226
1.53721
1.61161
1.68882
1.77196
1.86348
1.96488
2.07656
2.19809
2.32852
2.46676
2.61201
2.76411
2.92366
3.09199
3.27076
3.46152
3.66517
3.88144
4.10869
4.34385
4.58265
4.82004
5.05071
5.26945
5.47147
5.65214
5.80685
5.93164
6.02385
6.08095
6.10033
6.07921
6.01477
5.90462
5.74748
5.54402
5.29823
5.01786
4.712
4.3901
4.06124
3.73295
3.41038
3.09525
2.78662
2.48258
2.18214
1.88687
1.60146
1.33325
1.0907
0.879031
0.702974
0.564373
0.463292
0.396351
0.355756
0.332897
0.319855
0.310518
0.301108
0.290162
0.278073
0.266432
0.257307
0.252416
0.253052
0.259779
0.272511
0.290185
0.31013
0.329227
0.344814
0.355548
0.361937
0.366299
0.372124
0.383016
0.401558
0.427807
0.460289
0.496442
0.532335
0.563617
0.586441
0.598142
0.59761
0.585262
0.562635
0.531677
0.493928
0.449912
0.398911
0.338835
0.267083
0.18155
0.0817115
-0.0305516
-0.151117
-0.272756
-0.386855
-0.485246
-0.561722
-0.61289
-0.638135
-0.638828
-0.6172
-0.575416
-0.516718
-0.442256
-0.351837
-0.247786
-0.137415
-0.0327502
0.0528725
0.108093
0.126307
0.107323
0.0574536
-0.0119056
-0.0868043
-0.153642
-0.202677
-0.230965
-0.239744
-0.230697
-0.205189
-0.165221
-0.113044
-0.0517201
0.0140284
0.0785058
0.135925
0.181055
0.209933
0.220483
0.212927
0.189873
0.156051
0.117762
0.0818394
0.0548632
0.042379
0.0476451
0.0710944
0.112694
0.171142
0.243925
0.32859
0.418133
0.50252
0.571819
0.618192
0.637514
0.629954
0.599263
0.551124
0.491287
0.424909
0.355331
0.284298
0.213027
0.142759
0.0749071
0.010994
-0.0475756
-0.0997756
-0.145132
-0.183821
-0.216625
-0.244791
-0.269899
-0.293733
-0.318156
-0.344999
-0.375926
-0.412281
-0.455061
-0.504092
-0.558168
-0.618496
-0.565208
0
1.25242
3.18356
5.53913
7.82732
9.42599
9.78012
8.63259
6.17607
3.0245
-0.00761042
-2.21591
-3.25109
-3.15373
-2.38913
-1.38039
-0.505598
0.0499262
0.281556
0.445623
0.594517
0.734202
0.863514
0.980859
1.08559
1.17829
1.26085
1.33629
1.40838
1.48106
1.55782
1.64113
1.73207
1.83027
1.93391
2.04016
2.14556
2.24673
2.34133
2.42882
2.51095
2.59182
2.67756
2.77555
2.89329
3.03717
3.2113
3.4164
3.65027
3.9086
4.18529
4.473
4.76391
5.05033
5.32521
5.58189
5.81509
6.02151
6.19966
6.34971
6.4732
6.57231
6.64688
6.69647
6.72073
6.7177
6.68447
6.61823
6.51715
6.38075
6.20983
6.00592
5.77189
5.51196
5.22855
4.92226
4.59375
4.24417
3.87562
3.49158
3.09727
2.69989
2.30856
1.93608
1.59737
1.30482
1.06754
0.889613
0.769268
0.699263
0.668402
0.663739
0.672852
0.685347
0.694733
0.697143
0.690684
0.674824
0.64998
0.617047
0.577023
0.531133
0.481027
0.428813
0.376944
0.327923
0.284115
0.247492
0.218593
0.19664
0.180068
0.167071
0.156085
0.146005
0.136109
0.125789
0.114293
0.100755
0.0842066
0.0639127
0.0396407
0.0118032
-0.0185802
-0.0500735
-0.0810987
-0.11031
-0.136699
-0.15971
-0.179327
-0.196201
-0.211739
-0.22782
-0.246436
-0.269228
-0.297015
-0.329407
-0.364588
-0.399323
-0.429199
-0.449294
-0.454549
-0.44064
-0.401276
-0.324299
-0.207651
-0.0766092
0.0364006
0.102692
0.107608
0.055264
-0.034703
-0.13669
-0.229882
-0.306485
-0.371932
-0.430787
-0.484831
-0.534916
-0.580702
-0.62086
-0.653662
-0.67795
-0.693261
-0.699973
-0.699753
-0.694727
-0.686743
-0.676712
-0.664223
-0.647567
-0.624189
-0.591435
-0.547487
-0.490793
-0.421315
-0.34372
-0.268417
-0.206642
-0.16679
-0.151382
-0.155728
-0.16902
-0.177745
-0.170281
-0.140952
-0.0951582
-0.0409341
0.0129172
0.0567431
0.0816831
0.0808786
0.0502134
-0.0112711
-0.101121
-0.212378
-0.335777
-0.460518
-0.574582
-0.665388
-0.701504
-0.644383
-0.523458
-0.394048
-0.313932
-0.317859
-0.402756
-0.530787
-0.647736
-0.706237
-0.689073
-0.627259
-0.540528
-0.437204
-0.321927
-0.190804
0
0.485013
1.53335
3.31941
5.7009
8.10961
9.69451
9.69161
7.82958
4.51997
0.705952
-2.54802
-4.49541
-4.94919
-4.24018
-2.96516
-1.68699
-0.733464
-0.158353
0.149528
0.299432
0.427953
0.550562
0.670156
0.788766
0.90851
1.03107
1.15713
1.2859
1.41511
1.5409
1.65878
1.76472
1.85617
1.93292
1.99743
2.05462
2.11117
2.17454
2.25168
2.34775
2.46574
2.60648
2.76895
2.95086
3.14918
3.36066
3.5823
3.81156
4.04627
4.28443
4.52389
4.76219
4.99655
5.22411
5.44238
5.64983
5.8463
6.03315
6.21264
6.38698
6.55898
6.7262
6.87039
6.96112
6.96858
6.87801
6.6977
6.4554
6.18467
5.90847
5.62977
5.34368
5.04633
4.73309
4.4016
4.05288
3.69151
3.32498
2.96255
2.61364
2.28646
1.9869
1.71803
1.48017
1.27143
1.08867
0.928422
0.787733
0.664675
0.558375
0.468708
0.396767
0.345056
0.311869
0.288514
0.264768
0.232353
0.188234
0.13609
0.085031
0.0459261
0.0268802
0.0289015
0.0475659
0.0740455
0.0987259
0.115002
0.121692
0.123142
0.12707
0.141078
0.170335
0.21478
0.263332
0.30054
0.312871
0.294426
0.249726
0.192378
0.140097
0.108103
0.101602
0.113297
0.136376
0.163045
0.185519
0.197912
0.19736
0.184183
0.161165
0.132308
0.10154
0.071391
0.0427621
0.0153709
-0.0118713
-0.0403069
-0.0709438
-0.104001
-0.138692
-0.173257
-0.205173
-0.23146
-0.249183
-0.255033
-0.246578
-0.222383
-0.182498
-0.126788
-0.0586157
0.0132931
0.0787003
0.128027
0.154451
0.155225
0.1318
0.0888633
0.0327534
-0.0299885
-0.093701
-0.154679
-0.2102
-0.257796
-0.294775
-0.318736
-0.327817
-0.321102
-0.298204
-0.259993
-0.21097
-0.158033
-0.10835
-0.0676655
-0.0388067
-0.0207537
-0.00854168
0.00597534
0.0326401
0.0804998
0.155272
0.259967
0.407032
0.596169
0.798909
0.981389
1.11438
1.18107
1.1797
1.12081
1.02148
0.899789
0.772148
0.650046
0.538779
0.44142
0.359796
0.296163
0.249332
0.212197
0.176079
0.133527
0.0809311
0.0198626
-0.0435036
-0.100753
-0.144446
-0.171728
-0.184701
-0.187366
-0.185353
-0.184045
-0.186901
-0.196312
-0.256146
0
0.765912
2.17191
4.22428
6.66757
8.92563
10.2256
9.91718
7.83324
4.46064
0.778187
-2.17637
-3.7595
-3.93582
-3.15994
-2.04198
-1.03202
-0.299308
0.186291
0.38793
0.471303
0.537965
0.600209
0.663944
0.734612
0.816835
0.914703
1.02315
1.12907
1.21796
1.27999
1.31475
1.33255
1.35143
1.39095
1.46491
1.57153
1.70594
1.85182
1.9909
2.11049
2.20887
2.29633
2.39138
2.51363
2.67647
2.87589
3.09882
3.33582
3.5791
3.82186
4.05939
4.28967
4.51323
4.73228
4.94949
5.16665
5.38362
5.59589
5.79323
5.96297
6.09336
6.17699
6.21245
6.20376
6.15772
6.08034
5.97386
5.83935
5.67761
5.48769
5.26679
5.01436
4.73253
4.42593
4.10089
3.76475
3.42415
3.08495
2.75225
2.4307
2.12488
1.83947
1.57907
1.34758
1.14775
0.981762
0.850162
0.746464
0.658794
0.574931
0.485463
0.386305
0.279753
0.17371
0.0793404
0.00788326
-0.035689
-0.0506071
-0.0352814
0.00777569
0.0704824
0.139466
0.199921
0.239382
0.249785
0.22887
0.180716
0.115142
0.0458141
-0.0127991
-0.0493567
-0.0499464
-0.0164173
0.0318769
0.069869
0.0771874
0.0465654
-0.0133827
-0.0818935
-0.134126
-0.149793
-0.12944
-0.0830278
-0.00982513
0.0886234
0.201431
0.30503
0.373616
0.384633
0.325552
0.199942
0.0293331
-0.151451
-0.304672
-0.401573
-0.448918
-0.460757
-0.441516
-0.397858
-0.337211
-0.267425
-0.195182
-0.126785
-0.0695952
-0.030547
-0.0155981
-0.0284298
-0.0691627
-0.133692
-0.214041
-0.299761
-0.379984
-0.446312
-0.495478
-0.526178
-0.538081
-0.532639
-0.512655
-0.481772
-0.443783
-0.40383
-0.367775
-0.340743
-0.326218
-0.325237
-0.336044
-0.354446
-0.374873
-0.391834
-0.401337
-0.402577
-0.396597
-0.384977
-0.36994
-0.353703
-0.337929
-0.323373
-0.309705
-0.295522
-0.278528
-0.255875
-0.224668
-0.182548
-0.126759
-0.0561661
0.0250793
0.106541
0.175342
0.219265
0.229611
0.203112
0.14244
0.0553291
-0.047327
-0.153852
-0.254637
-0.344717
-0.422429
-0.487585
-0.540378
-0.58168
-0.612761
-0.635024
-0.649902
-0.658688
-0.662965
-0.664743
-0.666115
-0.668914
-0.674291
-0.682338
-0.691941
-0.700894
-0.706282
-0.705008
-0.690863
-0.547113
0
0.882605
2.22879
4.09762
6.31035
8.35984
9.52904
9.21222
7.26158
4.13138
0.709378
-2.07494
-3.63795
-3.91615
-3.27485
-2.23632
-1.21952
-0.4325
0.0817284
0.290183
0.430746
0.562809
0.691683
0.818099
0.941475
1.06055
1.17384
1.28049
1.38093
1.47701
1.57156
1.66733
1.76589
1.86693
1.96758
2.0631
2.14876
2.22182
2.28334
2.33889
2.39816
2.47324
2.5761
2.71575
2.89471
3.10805
3.34648
3.59995
3.85854
4.11325
4.35737
4.58732
4.80271
5.00562
5.19946
5.38767
5.57254
5.75448
5.93166
6.09999
6.25317
6.38282
6.48061
6.54041
6.55758
6.52914
6.45395
6.33272
6.16788
5.96323
5.72352
5.45553
5.1672
4.86457
4.55169
4.23177
3.90764
3.58166
3.25578
2.93163
2.61086
2.29543
1.98799
1.69218
1.41257
1.15444
0.923034
0.723626
0.565358
0.46009
0.40191
0.370257
0.342195
0.299927
0.236687
0.158399
0.0802587
0.0196539
-0.0114735
-0.0166605
-0.00160427
0.0217417
0.0401846
0.0437572
0.0289211
-0.000440216
-0.0344416
-0.0605415
-0.0677744
-0.0524261
-0.00998764
0.0478138
0.103429
0.140286
0.149283
0.132196
0.100517
0.0703514
0.0557144
0.0623672
0.0832767
0.111082
0.139203
0.160784
0.169875
0.162491
0.137171
0.095244
0.0408093
-0.01959
-0.0776304
-0.124223
-0.150814
-0.142892
-0.0732191
0.0591228
0.211447
0.3308
0.375542
0.333452
0.227645
0.10642
0.0209217
0.00130081
0.0293388
0.0752255
0.124351
0.163782
0.185536
0.187828
0.174017
0.149852
0.12026
0.0872875
0.0500629
0.00611897
-0.0462656
-0.106069
-0.168505
-0.225246
-0.266427
-0.283359
-0.271083
-0.229819
-0.164876
-0.0851835
-0.00113659
0.0777737
0.145793
0.196544
0.224828
0.228711
0.208479
0.167067
0.109352
0.04429
-0.0161621
-0.0605968
-0.0810354
-0.0749937
-0.0458151
-0.00101547
0.0507824
0.103153
0.154301
0.206363
0.264265
0.335331
0.432295
0.554734
0.679308
0.774038
0.812074
0.783567
0.700036
0.589367
0.483995
0.407829
0.361412
0.33131
0.309035
0.287833
0.262272
0.229623
0.190491
0.148617
0.109997
0.0815615
0.0687675
0.0750032
0.108349
0.177254
0.268945
0.351861
0.390166
0.354859
0.233713
0.0360498
-0.240689
-0.433802
0
1.21611
3.21482
5.78019
8.41425
10.3601
10.825
9.36967
6.23626
2.34941
-1.08011
-3.1305
-3.55876
-2.73429
-1.51638
-0.368465
0.445495
0.780894
0.905848
1.00054
1.06924
1.11715
1.15313
1.18788
1.2314
1.29048
1.36629
1.45512
1.55325
1.65689
1.76314
1.87078
1.98026
2.09312
2.21098
2.33465
2.46327
2.59499
2.72717
2.85667
2.97981
3.09374
3.19771
3.29327
3.38451
3.47762
3.57991
3.69829
3.83772
4.00009
4.18216
4.37913
4.58677
4.8013
5.01992
5.24113
5.46437
5.68939
5.91506
6.13505
6.33616
6.50139
6.61528
6.6692
6.66395
6.60837
6.51442
6.39113
6.24034
6.06362
5.86103
5.62919
5.36454
5.06641
4.73761
4.38445
4.01635
3.64426
3.27939
2.93225
2.61156
2.32376
2.07451
1.86577
1.69167
1.54349
1.41169
1.28786
1.16622
1.04432
0.922832
0.804854
0.694605
0.598605
0.523513
0.474253
0.454054
0.463641
0.500646
0.55959
0.632654
0.711087
0.78683
0.85454
0.912443
0.959223
0.994513
1.01885
1.03318
1.0386
1.03615
1.02668
1.01074
0.988587
0.960367
0.926498
0.887929
0.846547
0.805232
0.767478
0.736637
0.716801
0.71027
0.712401
0.715561
0.712303
0.698695
0.67622
0.65124
0.632258
0.626272
0.635061
0.653926
0.679016
0.705959
0.730913
0.751466
0.766918
0.777973
0.786075
0.792702
0.798873
0.804907
0.810539
0.815064
0.817481
0.816617
0.811486
0.801462
0.78654
0.767547
0.74623
0.725166
0.707478
0.696416
0.694579
0.703527
0.724236
0.757661
0.802978
0.852617
0.895074
0.919249
0.918062
0.891053
0.844634
0.789674
0.737497
0.696232
0.666905
0.647607
0.638091
0.638713
0.651019
0.677532
0.720829
0.782298
0.860084
0.950123
1.04782
1.14673
1.24017
1.32229
1.38881
1.43724
1.46668
1.47725
1.46955
1.4446
1.40379
1.34925
1.28422
1.2131
1.1411
1.07341
1.01579
0.971679
0.938982
0.912408
0.885838
0.854883
0.818494
0.778945
0.740294
0.706056
0.676654
0.649427
0.620527
0.584905
0.537333
0.473573
0.391401
0.29124
0.176246
0.0479284
-0.184343
0
0.922707
2.76641
5.4182
8.37852
10.8389
11.9546
11.2173
8.72982
5.20287
1.6507
-1.04635
-2.46462
-2.68863
-2.04885
-1.22161
-0.375473
0.320906
0.713096
0.952987
1.15242
1.32989
1.4865
1.62384
1.74439
1.8511
1.94689
2.03374
2.11248
2.18328
2.24583
2.2999
2.34619
2.38691
2.42578
2.46738
2.5161
2.57511
2.64532
2.72584
2.81584
2.91476
3.02319
3.14324
3.27831
3.43211
3.60736
3.80454
4.02066
4.24976
4.4843
4.71597
4.93704
5.14164
5.3265
5.4911
5.63725
5.76827
5.88805
6.00019
6.10725
6.21036
6.30891
6.40023
6.47913
6.53846
6.57024
6.56593
6.51728
6.41726
6.26074
6.04516
5.77088
5.44141
5.06505
4.65463
4.22287
3.78065
3.33842
2.9065
2.49455
2.1109
1.7622
1.45305
1.18592
0.961213
0.777543
0.631964
0.520364
0.437969
0.379755
0.340777
0.316388
0.302511
0.295637
0.292763
0.291741
0.29163
0.292846
0.297066
0.3068
0.324624
0.352827
0.393519
0.443505
0.494781
0.537672
0.563734
0.568322
0.55185
0.519341
0.478534
0.437313
0.400874
0.370497
0.345518
0.324262
0.304383
0.283845
0.261752
0.238842
0.21748
0.201146
0.193544
0.197573
0.214275
0.243702
0.282883
0.32519
0.36238
0.386576
0.391851
0.375342
0.337733
0.283056
0.217923
0.150372
0.088254
0.0372411
0.000982982
-0.0181077
-0.0195797
-0.00475261
0.0237122
0.0623674
0.107522
0.155546
0.203387
0.248403
0.288054
0.319643
0.340452
0.348206
0.341178
0.318644
0.281302
0.231479
0.173033
0.110934
0.0506478
-0.00266258
-0.0450404
-0.0730657
-0.0841047
-0.0768058
-0.050926
-0.00736557
0.0518175
0.123487
0.203667
0.287932
0.371876
0.45153
0.523574
0.585039
0.63218
0.659595
0.662429
0.63645
0.578768
0.489432
0.372662
0.237078
0.0945839
-0.041895
-0.161121
-0.25849
-0.330992
-0.379885
-0.409109
-0.423641
-0.427955
-0.425059
-0.416273
-0.401666
-0.380819
-0.353894
-0.321639
-0.285171
-0.245926
-0.20543
-0.164999
-0.125632
-0.0912698
0
0.469858
1.63595
3.65776
6.30298
8.88377
10.464
10.2807
8.15176
4.61937
0.728796
-2.43569
-4.19449
-4.47037
-3.68151
-2.44021
-1.25524
-0.372171
0.205339
0.524915
0.692775
0.844359
0.988494
1.12571
1.25483
1.37404
1.48211
1.57809
1.66198
1.73536
1.80141
1.86463
1.93007
2.00265
2.0859
2.18177
2.2921
2.41767
2.55809
2.7119
2.87721
3.05148
3.2328
3.42059
3.6158
3.82042
4.03638
4.2641
4.50142
4.74407
4.98309
5.209
5.41489
5.59882
5.76464
5.92077
6.07741
6.24313
6.42173
6.61213
6.80621
6.98814
7.14048
7.24827
7.3016
7.29611
7.23168
7.1103
6.93428
6.7074
6.43872
6.13561
5.8029
5.44505
5.06781
4.67838
4.28485
3.89604
3.52078
3.16704
2.84097
2.54623
2.28364
2.05082
1.84309
1.65471
1.48021
1.31565
1.15957
1.01336
0.880702
0.766583
0.676161
0.613471
0.58044
0.576322
0.597625
0.639986
0.696244
0.756588
0.81188
0.855085
0.882236
0.892707
0.888733
0.874333
0.854012
0.831642
0.809804
0.789693
0.771938
0.757023
0.74558
0.738521
0.736927
0.741739
0.753207
0.770835
0.79317
0.817249
0.838596
0.852003
0.852448
0.836111
0.801327
0.749205
0.683713
0.611131
0.538962
0.474545
0.423414
0.388837
0.372272
0.373353
0.390491
0.421434
0.463551
0.515209
0.57297
0.628636
0.671845
0.692824
0.685744
0.65138
0.597564
0.536899
0.482596
0.444212
0.421719
0.410652
0.408288
0.411425
0.417553
0.42569
0.436717
0.453189
0.478701
0.516623
0.570401
0.645075
0.744281
0.861865
0.978474
1.07214
1.12503
1.12973
1.09273
1.03358
0.979417
0.956371
0.980337
1.04596
1.14637
1.2595
1.35966
1.42454
1.44039
1.40415
1.32278
1.21054
1.08496
0.962174
0.851469
0.755371
0.672711
0.602128
0.544033
0.499952
0.472865
0.477126
0.556997
0.742892
0.98086
1.17754
1.24255
1.13107
0.860168
0.49185
0.0978278
-0.227669
0
0.757424
2.21197
4.43619
7.20624
9.90632
11.6755
11.7801
10.0033
6.79941
3.10482
-0.0866539
-2.12517
-2.86774
-2.53445
-1.63604
-0.554333
0.473662
1.19997
1.5195
1.75917
1.97297
2.16267
2.32737
2.46786
2.58615
2.68534
2.76961
2.84399
2.914
2.98497
3.06134
3.14613
3.24035
3.3434
3.45376
3.56944
3.68857
3.80987
3.93295
4.05833
4.18735
4.32184
4.46373
4.61469
4.77562
4.94625
5.12488
5.30903
5.49404
5.67487
5.84781
6.01183
6.16931
6.32567
6.48824
6.66447
6.86019
7.08359
7.34856
7.66136
7.99022
8.2819
8.48601
8.56349
8.49829
8.30603
8.03053
7.72447
7.42164
7.11967
6.80687
6.48248
6.14802
5.80501
5.45606
5.10489
4.7556
4.41179
4.07616
3.75045
3.43585
3.13354
2.84519
2.57314
2.32043
2.09046
1.886
1.70908
1.56075
1.44107
1.34903
1.28344
1.24528
1.23079
1.23053
1.23421
1.23274
1.22006
1.19406
1.15622
1.11018
1.06014
1.0098
0.961627
0.917799
0.881321
0.855133
0.841928
0.843306
0.858936
0.886176
0.920391
0.955923
0.987409
1.01115
1.0254
1.03048
1.02808
1.02034
1.00908
0.994867
0.977308
0.955435
0.928473
0.896615
0.861484
0.826095
0.794284
0.769793
0.755258
0.751197
0.756953
0.770387
0.788512
0.808251
0.827012
0.842953
0.854927
0.861944
0.863223
0.858407
0.847604
0.831844
0.813442
0.795972
0.783757
0.781001
0.790848
0.813634
0.848383
0.893283
0.945416
1.00116
1.05664
1.1079
1.15164
1.1857
1.20947
1.22412
1.23254
1.23893
1.24803
1.26408
1.28957
1.32696
1.37561
1.42717
1.47082
1.49659
1.49817
1.4742
1.42727
1.36151
1.2801
1.18436
1.07791
0.963144
0.844181
0.728006
0.623769
0.545172
0.518849
0.556768
0.631033
0.698384
0.718432
0.670049
0.558541
0.411333
0.265287
0.151964
0.078688
0.0313895
0
0.00875331
0.291274
0.948951
2.15927
3.99281
6.29712
8.63456
10.3509
10.8018
9.64844
7.05989
3.68978
0.421752
-1.9847
-3.16377
-3.19154
-2.4792
-1.46035
-0.464927
0.344345
0.880621
1.07339
1.21249
1.33931
1.45917
1.57356
1.6836
1.78983
1.89213
1.98983
2.08198
2.16765
2.2463
2.31792
2.38319
2.44347
2.50078
2.55774
2.61756
2.6839
2.76064
2.85159
2.96001
3.08798
3.23592
3.4023
3.58352
3.77464
3.97025
4.16531
4.35617
4.54128
4.72138
4.89896
5.07739
5.25966
5.44739
5.64008
5.83507
6.0278
6.21265
6.38379
6.53442
6.65641
6.74353
6.79216
6.79936
6.76289
6.68141
6.55478
6.38417
6.17203
5.922
5.64165
5.33938
5.02099
4.69132
4.35501
4.01615
3.678
3.34291
3.01267
2.68892
2.37378
2.07036
1.78285
1.51638
1.27667
1.06921
0.897734
0.763876
0.666817
0.603651
0.569917
0.558652
0.562183
0.573319
0.586226
0.597015
0.603977
0.607465
0.609445
0.612816
0.62057
0.63502
0.657364
0.687465
0.724055
0.764675
0.806354
0.846171
0.881724
0.911415
0.93445
0.950974
0.961978
0.969143
0.974662
0.980921
0.989983
1.00334
1.02113
1.03914
1.04972
1.04447
1.01731
0.967084
0.898476
0.820838
0.745454
0.682406
0.635153
0.602477
0.583663
0.576838
0.579328
0.587502
0.596887
0.60332
0.603748
0.596805
0.583092
0.565004
0.546057
0.529844
0.518912
0.513921
0.513528
0.514116
0.511088
0.500437
0.480142
0.451006
0.416632
0.382511
0.354511
0.337238
0.332228
0.338401
0.353448
0.374189
0.397734
0.422448
0.448444
0.477484
0.512384
0.556139
0.610491
0.676724
0.755265
0.843522
0.933696
1.01328
1.06818
1.08536
1.05572
0.976792
0.854416
0.702716
0.541745
0.393035
0.272843
0.191413
0.150173
0.136647
0.133145
0.124133
0.10233
0.0710575
0.0419935
0.0294016
0.0433162
0.0802692
0.133912
0.192284
0.242112
0.273438
0.283096
0.259405
0
0.303596
1.47872
3.57799
6.30174
9.01216
10.8811
11.1718
9.56445
6.36584
2.45406
-1.06313
-3.31272
-3.99081
-3.38846
-2.14085
-0.859053
0.0999202
0.666001
0.89503
1.03295
1.15121
1.24499
1.31242
1.35622
1.38373
1.40562
1.43351
1.47697
1.5411
1.62353
1.71782
1.81855
1.9209
2.02096
2.11637
2.2064
2.29222
2.37648
2.46292
2.55597
2.66019
2.77957
2.91684
3.07286
3.24634
3.43348
3.63025
3.83269
4.03726
4.24125
4.44291
4.64131
4.83607
5.02705
5.21414
5.39711
5.57548
5.74812
5.91208
6.06124
6.18839
6.28557
6.34487
6.36025
6.32861
6.24936
6.1227
5.94785
5.72247
5.45332
5.14894
4.81405
4.45366
4.07548
3.68926
3.30544
2.93374
2.58206
2.25577
1.95755
1.68781
1.44531
1.22796
1.03345
0.859609
0.704479
0.566251
0.443076
0.332901
0.233655
0.143555
0.0615012
-0.0125644
-0.0775012
-0.131121
-0.170671
-0.19327
-0.194745
-0.169423
-0.118272
-0.0570486
-0.00525489
0.0200203
0.0101421
-0.0316124
-0.0907079
-0.145952
-0.176247
-0.168803
-0.129716
-0.0597547
0.0396362
0.152507
0.254594
0.323421
0.34382
0.311911
0.236078
0.134145
0.0274974
-0.0656469
-0.13813
-0.194106
-0.238471
-0.274293
-0.303728
-0.328356
-0.348884
-0.36521
-0.376823
-0.383061
-0.383569
-0.37998
-0.375771
-0.374465
-0.377916
-0.384952
-0.391122
-0.389843
-0.372896
-0.329428
-0.26415
-0.196299
-0.15033
-0.145633
-0.188153
-0.267602
-0.361185
-0.441926
-0.487916
-0.497824
-0.481906
-0.448268
-0.402258
-0.349038
-0.293739
-0.240781
-0.193452
-0.153777
-0.122432
-0.09871
-0.0807507
-0.0657862
-0.0504773
-0.0313304
-0.00514722
0.0305772
0.0773893
0.135659
0.204725
0.283193
0.369302
0.460875
0.550527
0.625593
0.671746
0.676969
0.635996
0.552851
0.439828
0.313362
0.18904
0.0767782
-0.0222175
-0.106388
-0.172691
-0.21687
-0.225232
-0.161031
0.0073679
0.230258
0.4275
0.520259
0.466751
0.282759
0.0355062
-0.186488
-0.31206
-0.336096
-0.312202
-0.266445
-0.208329
-0.143851
-0.0803299
0
0.524344
1.80862
3.96387
6.71133
9.35523
10.9935
10.8941
8.85679
5.35817
1.38749
-1.95477
-3.89816
-4.26312
-3.42717
-2.05187
-0.736081
0.197731
0.71182
0.846025
0.911583
0.964207
1.0054
1.03587
1.05786
1.07517
1.09285
1.11668
1.15239
1.20483
1.2771
1.36968
1.48073
1.6071
1.74494
1.89017
2.03923
2.18968
2.34064
2.49276
2.64777
2.80774
2.97422
3.14756
3.32659
3.50873
3.69059
3.86877
4.04067
4.20515
4.36288
4.51628
4.66915
4.82598
4.99103
5.16736
5.356
5.5572
5.76675
5.97232
6.15914
6.31332
6.42454
6.48719
6.49973
6.46278
6.37705
6.24315
6.06759
5.85311
5.5998
5.30925
4.98476
4.63122
4.25617
3.8668
3.46983
3.0724
2.68201
2.30635
1.95294
1.62859
1.33855
1.08728
0.880736
0.71992
0.592966
0.485247
0.383311
0.278743
0.17065
0.065949
-0.0226779
-0.0574885
0.0463473
0.305701
0.619851
0.873073
0.98314
0.921785
0.713482
0.423843
0.142685
-0.0426046
-0.115814
-0.131084
-0.125618
-0.114101
-0.107786
-0.114193
-0.13578
-0.17011
-0.211413
-0.252936
-0.289261
-0.318357
-0.340216
-0.355077
-0.363124
-0.363671
-0.354854
-0.333952
-0.29826
-0.243217
-0.165897
-0.070677
0.027398
0.108418
0.153387
0.148625
0.0886195
-0.0231633
-0.175465
-0.351892
-0.534103
-0.705699
-0.857707
-0.97924
-1.06253
-1.10247
-1.09738
-1.04977
-0.966589
-0.858548
-0.738523
-0.61948
-0.512193
-0.421711
-0.355453
-0.317206
-0.308683
-0.329055
-0.374305
-0.436904
-0.506324
-0.570562
-0.61841
-0.642179
-0.642177
-0.614069
-0.559241
-0.493723
-0.436055
-0.4005
-0.391843
-0.402981
-0.416646
-0.411192
-0.368442
-0.280517
-0.162631
-0.0283062
0.110228
0.237745
0.340258
0.40719
0.432474
0.414877
0.357758
0.268349
0.156624
0.0337794
-0.0894849
-0.205518
-0.31051
-0.402461
-0.480531
-0.544903
-0.596137
-0.634688
-0.660742
-0.674334
-0.675567
-0.664804
-0.642621
-0.609449
-0.565192
-0.50902
-0.439501
-0.355095
-0.254826
-0.138852
0
0.278099
0.675778
1.32826
2.55841
4.51366
6.89894
8.94537
9.72261
8.6446
5.84597
2.1667
-1.25609
-3.53338
-4.37531
-4.07349
-3.19327
-2.2168
-1.36186
-0.631042
0.0184763
0.459066
0.619672
0.710823
0.77412
0.817753
0.846863
0.868635
0.891308
0.922774
0.968763
1.03253
1.11457
1.21241
1.32171
1.43794
1.5571
1.67637
1.79458
1.91223
2.03112
2.15363
2.28197
2.41754
2.56072
2.71101
2.8672
3.02806
3.19283
3.36148
3.53473
3.71369
3.89949
4.09299
4.29476
4.50509
4.72465
4.95455
5.19711
5.46088
5.76354
6.11461
6.47983
6.80058
7.02607
7.12828
7.10269
6.9612
6.72452
6.41669
6.06177
5.68477
5.30428
4.92839
4.55911
4.19678
3.84181
3.49467
3.15563
2.82508
2.5039
2.19373
1.89709
1.61725
1.35804
1.12346
0.917307
0.742871
0.602149
0.495713
0.422765
0.381412
0.367851
0.37646
0.399711
0.427751
0.450033
0.457694
0.444731
0.408827
0.351623
0.278367
0.197013
0.116966
0.0475307
-0.00517101
-0.0356488
-0.0403211
-0.0180573
0.0296986
0.0990781
0.184232
0.278012
0.372772
0.461336
0.53705
0.594356
0.629541
0.64067
0.627718
0.592674
0.539518
0.474
0.403164
0.334624
0.27524
0.229793
0.201754
0.194242
0.208847
0.243057
0.287424
0.328618
0.354295
0.356337
0.333111
0.289883
0.237071
0.186809
0.149007
0.127221
0.118022
0.117551
0.121945
0.128012
0.134426
0.142203
0.154358
0.174872
0.20729
0.255602
0.322068
0.398717
0.468107
0.511128
0.513436
0.470983
0.392533
0.297906
0.212204
0.157915
0.143082
0.158709
0.195058
0.246235
0.305426
0.36625
0.423881
0.47522
0.518718
0.553955
0.581016
0.60008
0.611442
0.615598
0.613573
0.607367
0.60026
0.596813
0.602476
0.624094
0.67434
0.773849
0.933006
1.11892
1.283
1.37829
1.37406
1.26492
1.07217
0.838078
0.614914
0.451507
0.354348
0.303963
0.30833
0.356681
0.41952
0.465396
0.471643
0.432254
0.358945
0.274326
0.199992
0.145286
0.0997714
0.05063
-0.0145173
-0.105702
-0.227701
-0.378832
-0.609616
-0.664686
0
1.61314
4.13279
7.15242
9.9479
11.6875
11.7413
9.96336
6.79155
3.08796
-0.215758
-2.48356
-3.55143
-3.62837
-3.12073
-2.29581
-1.30795
-0.24286
0.752712
1.26789
1.50819
1.67155
1.75978
1.7902
1.7916
1.79564
1.82696
1.89143
1.97804
2.07609
2.17793
2.2765
2.36697
2.44765
2.52012
2.58841
2.65784
2.73372
2.81985
2.91851
3.03079
3.15697
3.29669
3.44935
3.61415
3.79011
3.9759
4.16979
4.36974
4.5737
4.77995
4.98756
5.19655
5.40795
5.62354
5.84538
6.0752
6.31492
6.56694
6.82813
7.08325
7.31031
7.4872
7.59658
7.62848
7.58028
7.45528
7.26142
7.01082
6.72104
6.41064
6.09303
5.77492
5.45747
5.13911
4.81695
4.48759
4.14844
3.79889
3.44118
3.08061
2.72498
2.38325
2.06499
1.78095
1.53572
1.32726
1.15006
0.997832
0.866265
0.754856
0.667094
0.621529
0.677331
0.867635
1.12204
1.33599
1.41968
1.33872
1.12796
0.872945
0.668162
0.573469
0.560171
0.579815
0.613862
0.655551
0.700023
0.743413
0.782338
0.814651
0.839217
0.856016
0.866297
0.872516
0.877872
0.885451
0.897251
0.913443
0.931978
0.949911
0.963577
0.969257
0.963709
0.944502
0.910167
0.860269
0.79607
0.719565
0.63369
0.542504
0.450948
0.364872
0.289974
0.231002
0.191094
0.171363
0.170837
0.186718
0.214892
0.250522
0.28856
0.324459
0.354299
0.374964
0.384286
0.381141
0.365527
0.338593
0.302617
0.260845
0.21726
0.175796
0.140034
0.11296
0.0961955
0.0898976
0.0929953
0.103522
0.118972
0.136717
0.153687
0.166774
0.173529
0.172711
0.164736
0.151718
0.136968
0.124061
0.115848
0.113392
0.116039
0.123131
0.133681
0.146561
0.1606
0.174552
0.186973
0.196247
0.201036
0.200781
0.196305
0.19023
0.186954
0.192071
0.211279
0.249554
0.3141
0.406885
0.51809
0.628689
0.718381
0.77082
0.777378
0.738657
0.663625
0.566848
0.46459
0.370822
0.292631
0.229871
0.17964
0.139367
0.107096
0.0808415
0.0589422
0.0403167
0.0245775
0.0120348
0.0034849
0
0.00455228
0.0159745
0.0345089
0.0597886
0.0908591
0.127775
0.192191
0.544809
1.3394
2.72069
4.70782
7.07331
9.27816
10.5775
10.3299
8.36384
5.15353
1.64269
-1.20374
-2.8315
-3.24591
-2.82608
-2.00897
-1.05704
-0.0760857
0.854332
1.45382
1.53743
1.53712
1.50049
1.44847
1.40837
1.40637
1.46052
1.60077
1.89042
2.28775
2.68001
2.96238
3.05256
2.91818
2.60219
2.2221
1.93406
1.87115
1.99038
2.17503
2.38163
2.59623
2.81093
3.02036
3.22206
3.41648
3.60643
3.79611
3.98988
4.19123
4.40191
4.62161
4.8481
5.07781
5.30657
5.53038
5.74596
5.95094
6.14323
6.32016
6.47839
6.61439
6.72425
6.80289
6.84467
6.84415
6.7969
6.70005
6.55264
6.35575
6.11266
5.82879
5.51052
5.16544
4.80178
4.42655
4.04616
3.66755
3.29785
2.94396
2.61208
2.30722
2.03311
1.79209
1.58537
1.4131
1.27546
1.17733
1.12559
1.10953
1.1083
1.09968
1.06659
1.00261
0.91395
0.816685
0.730535
0.672095
0.641976
0.634129
0.647377
0.678884
0.724903
0.780913
0.843096
0.907432
0.969151
1.02397
1.069
1.10352
1.12942
1.15085
1.17294
1.19998
1.23506
1.27462
1.30831
1.32285
1.30697
1.25589
1.17395
1.07431
0.975957
0.899092
0.855665
0.857471
0.925869
1.05254
1.19838
1.31971
1.38202
1.36942
1.28766
1.16044
1.02105
0.901865
0.819875
0.770378
0.743746
0.732838
0.732816
0.739814
0.750385
0.761883
0.772608
0.781757
0.789246
0.795482
0.801123
0.806924
0.813667
0.822126
0.833093
0.847375
0.865725
0.88868
0.91631
0.948204
0.982906
1.01774
1.04935
1.0742
1.08898
1.09093
1.07801
1.049
1.00388
0.944865
0.875149
0.799676
0.728664
0.673608
0.644551
0.647237
0.681218
0.739724
0.811398
0.883403
0.944837
0.989358
1.01629
1.03
1.03788
1.04771
1.06505
1.09129
1.12498
1.16351
1.20367
1.24212
1.27613
1.30391
1.32457
1.33785
1.34369
1.34197
1.33228
1.31396
1.28649
1.24984
1.20487
1.15346
1.09851
1.04353
0.99214
0.94731
0.91079
0.882739
0.861465
0.842979
0.820845
0.787569
0.735993
0.660653
0.558883
0.429825
0.278198
0.112013
-0.0601667
0
0.511536
1.53236
3.21821
5.59611
8.37226
10.8757
12.2454
11.8144
9.47533
5.79916
1.82099
-1.39164
-3.15054
-3.33903
-2.33023
-0.741069
0.860486
2.10493
2.76899
2.7351
2.67826
2.60845
2.54043
2.49238
2.47815
2.49698
2.53816
2.58983
2.63997
2.68171
2.71657
2.75404
2.80752
2.88825
3.00002
3.13244
3.27439
3.41594
3.54854
3.66735
3.7723
3.86783
3.96153
4.0621
4.17714
4.31043
4.46373
4.63769
4.83129
5.04204
5.26633
5.49998
5.73876
5.97894
6.21765
6.45304
6.68411
6.90975
7.12728
7.3303
7.50914
7.65186
7.7469
7.7875
7.77467
7.71679
7.62596
7.5125
7.38034
7.22944
7.05875
6.86534
6.64437
6.39282
6.1102
5.79886
5.464
5.11281
4.75336
4.39424
4.04384
3.70974
3.39823
3.11396
2.85965
2.63619
2.44404
2.28177
2.14361
2.0231
1.91454
1.81431
1.72181
1.63947
1.57197
1.5247
1.50175
1.50502
1.53315
1.58172
1.6442
1.71131
1.77351
1.82288
1.85422
1.86568
1.85859
1.83697
1.80646
1.77325
1.74287
1.71913
1.70385
1.6974
79
277
486
702
917
1132
1350
1570
1786
1990
2191
2387
2585
2789
2993
3204
3422
3642
3690
0
0
0
0
0
0
0
0
0
0
0
0
0
0
0
0
0
0
0
0
0
0
0
0
0
0
0
0
0
0
0
0
0
0
0
0
0
0
0
0
0
0
0
0
0
0
0
0
0
0
0
0
0
0
0
0
0
0
0
0
0
0
0
0
0
0
0
0
0
0
0
0
0
0
0
0
0
0
0
0
0
0
0
0
0
0
0
0
0
0
0
0
0
0
0
0
0
0
0
0
0
0
0
0
0
0
0
0
0
0
0
0
0
0
0
0
0
0
0
0
0
0
0
0
0
0
0
0
0
0
0
0
0
0
0
0
0
0
0
0
0
0
0
0
0
0
0
0
0
0
0
0
0
0
0
0
0
0
0
0
0
0
0
0
0
0
0
0
0
0
0
0
0
0
0
0
0
0
0
0
0
0
0
0
0
0
0
0
0
0
0
0
0
0
0
0
0
0
0
0
0
0
0
0
0
0
0
0
0
0
0
0
0
0
0
0
0
0
0
0
0
0
0
0
0
0
0
0
0
0
0
0
0
0
0
0
0
0
0
0
0
0
0
0
0
0
0
0
0
0
0
0
0
0
0
0
0
0
0
0
0
0
0
0
0
0
0
0
0
0
0
0
0
0
0
0
0
0
0
0
0
0
0
0
0
0
0
0
0
0
0
0
0
0
0
0
0
0
0
0
0
0
0
0
0
0
0
0
0
0
0
0
0
0
0
0
0
0
0
0
0
0
0
0
0
0
0
0
0
0
0
0
0
0
0
0
0
0
0
0
0
0
0
0
0
0
0
0
0
0
0
0
0
0
0
0
0
0
0
0
0
0
0
0
0
0
0
0
0
0
0
0
0
0
0
0
0
0
0
0
0
0
0
0
0
0
0
0
0
0
0
0
0
0
0
0
0
0
0
0
0
0
0
0
0
0
0
0
0
0
0
0
0
0
0
0
0
0
0
0
0
0
0
0
0
0
0
0
0
0
0
0
0
0
0
0
0
0
0
0
0
0
0
0
0
0
0
0
0
0
0
0
0
0
0
0
0
0
0
0
0
0
0
0
0
0
0
0
0
0
0
0
0
0
0
0
0
0
0
0
0
0
0
0
0
0
0
0
0
0
0
0
0
0
0
0
0
0
0
0
0
0
0
0
0
0
0
0
0
0
0
0
0
0
0
0
0
0
0
0
0
0
0
0
0
0
0
0
0
0
0
0
0
0
0
0
0
0
0
0
0
0
0
0
0
0
0
0
0
0
0
0
0
0
0
0
0
0
0
0
0
0
0
0
0
0
0
0
0
0
0
0
0
0
0
0
0
0
0
0
0
0
0
0
0
0
0
0
0
0
0
0
0
0
0
0
0
0
0
0
0
0
0
0
0
0
0
0
0
0
0
0
0
0
0
0
0
0
0
0
0
0
0
0
0
0
0
0
0
0
0
0
0
0
0
0
0
0
0
0
0
0
0
0
0
0
0
0
0
0
0
0
0
0
0
0
0
0
0
0
0
0
0
0
0
0
0
0
0
0
0
0
0
0
0
0
0
0
0
0
0
0
0
0
0
0
0
0
0
0
0
0
0
0
0
0
0
0
0
0
0
0
0
0
0
0
0
0
0
0
0
0
0
0
0
0
0
0
0
0
0
0
0
0
0
0
0
0
0
0
0
0
0
0
0
0
0
0
0
0
0
0
0
0
0
0
0
0
0
0
0
0
0
0
0
0
0
0
0
0
0
0
0
0
0
0
0
0
0
0
0
0
0
0
0
0
0
0
0
0
0
0
0
0
0
0
0
0
0
0
0
0
0
0
0
0
0
0
0
0
0
0
0
0
0
0
0
0
0
0
0
0
0
0
0
0
0
0
0
0
0
0
0
0
0
0
0
0
0
0
0
0
0
0
0
0
0
0
0
0
0
0
0
0
0
0
0
0
0
0
0
0
0
0
0
0
0
0
0
0
0
0
0
0
0
0
0
0
0
0
0
0
0
0
0
0
0
0
0
0
0
0
0
0
0
0
0
0
0
0
0
0
0
0
0
0
0
0
0
0
0
0
0
0
0
0
0
0
0
0
0
0
0
0
0
0
0
0
0
0
0
0
0
0
0
0
0
0
0
0
0
0
0
0
0
0
0
0
0
0
0
0
0
0
0
0
0
0
0
0
0
0
0
0
0
0
0
0
0
0
0
0
0
0
0
0
0
0
0
0
0
0
0
0
0
0
0
0
0
0
0
0
0
0
0
0
0
0
0
0
0
0
0
0
0
0
0
0
0
0
0
0
0
0
0
0
0
0
0
0
0
0
0
0
0
0
0
0
0
0
0
0
0
0
0
0
0
0
0
0
0
0
0
0
0
0
0
0
0
0
0
0
0
0
0
0
0
0
0
0
0
0
0
0
0
0
0
0
0
0
0
0
0
0
0
0
0
0
0
0
0
0
0
0
0
0
0
0
0
0
0
0
0
0
0
0
0
0
0
0
0
0
0
0
0
0
0
0
0
0
0
0
0
0
0
0
0
0
0
0
0
0
0
0
0
0
0
0
0
0
0
0
0
0
0
0
0
0
0
0
0
0
0
0
0
0
0
0
0
0
0
0
0
0
0
0
0
0
0
0
0
0
0
0
0
0
0
0
0
0
0
0
0
0
0
0
0
0
0
0
0
0
0
0
0
0
0
0
0
0
0
0
0
0
0
0
0
0
0
0
0
0
0
0
0
0
0
0
0
0
0
0
0
0
0
0
0
0
0
0
0
0
0
0
0
0
0
0
0
0
0
0
0
0
0
0
0
0
0
0
0
0
0
0
0
0
0
0
0
0
0
0
0
0
0
0
0
0
0
0
0
0
0
0
0
0
0
0
0
0
0
0
0
0
0
0
0
0
0
0
0
0
0
0
0
0
0
0
0
0
0
0
0
0
0
0
0
0
0
0
0
0
0
0
0
0
0
0
0
0
0
0
0
0
0
0
0
0
0
0
0
0
0
0
0
0
0
0
0
0
0
0
0
0
0
0
0
0
0
0
0
0
0
0
0
0
0
0
0
0
0
0
0
0
0
0
0
0
0
0
0
0
0
0
0
0
0
0
0
0
0
0
0
0
0
0
0
0
0
0
0
0
0
0
0
0
0
0
0
0
0
0
0
0
0
0
0
0
0
0
0
0
0
0
0
0
0
0
0
0
0
0
0
0
0
0
0
0
0
0
0
0
0
0
0
0
0
0
0
0
0
0
0
0
0
0
0
0
0
0
0
0
0
0
0
0
0
0
0
0
0
0
0
0
0
0
0
0
0
0
0
0
0
0
0
0
0
0
0
0
0
0
0
0
0
0
0
0
0
0
0
0
0
0
0
0
0
0
0
0
0
0
0
0
0
0
0
0
0
0
0
0
0
0
0
0
0
0
0
0
0
0
0
0
0
0
0
0
0
0
0
0
0
0
0
0
0
0
0
0
0
0
0
0
0
0
0
0
0
0
0
0
0
0
0
0
0
0
0
0
0
0
0
0
0
0
0
0
0
0
0
0
0
0
0
0
0
0
0
0
0
0
0
0
0
0
0
0
0
0
0
0
0
0
0
0
0
0
0
0
0
0
0
0
0
0
0
0
0
0
0
0
0
0
0
0
0
0
0
0
0
0
0
0
0
0
0
0
0
0
0
0
0
0
0
0
0
0
0
0
0
0
0
0
0
0
0
0
0
0
0
0
0
0
0
0
0
0
0
0
0
0
0
0
0
0
0
0
0
0
0
0
0
0
0
0
0
0
0
0
0
0
0
0
0
0
0
0
0
0
0
0
0
0
0
0
0
0
0
0
0
0
0
0
0
0
0
0
0
0
0
0
0
0
0
0
0
0
0
0
0
0
0
0
0
0
0
0
0
0
0
0
0
0
0
0
0
0
0
0
0
0
0
0
0
0
0
0
0
0
0
0
0
0
0
0
0
0
0
0
0
0
0
0
0
0
0
0
0
0
0
0
0
0
0
0
0
0
0
0
0
0
0
0
0
0
0
0
0
0
0
0
0
0
0
0
0
0
0
0
0
0
0
0
0
0
0
0
0
0
0
0
0
0
0
0
0
0
0
0
0
0
0
0
0
0
0
0
0
0
0
0
0
0
0
0
0
0
0
0
0
0
0
0
0
0
0
0
0
0
0
0
0
0
0
0
0
0
0
0
0
0
0
0
0
0
0
0
0
0
0
0
0
0
0
0
0
0
0
0
0
0
0
0
0
0
0
0
0
0
0
0
0
0
0
0
0
0
0
0
0
0
0
0
0
0
0
0
0
0
0
0
0
0
0
0
0
0
0
0
0
0
0
0
0
0
0
0
0
0
0
0
0
0
0
0
0
0
0
0
0
0
0
0
0
0
0
0
0
0
0
0
0
0
0
0
0
0
0
0
0
0
0
0
0
0
0
0
0
0
0
0
0
0
0
0
0
0
0
0
0
0
0
0
0
0
0
0
0
0
0
0
0
0
0
0
0
0
0
0
0
0
0
0
0
0
0
0
0
0
0
0
0
0
0
0
0
0
0
0
0
0
0
0
0
0
0
0
0
0
0
0
0
0
0
0
0
0
0
0
0
0
0
0
0
0
0
0
0
0
0
0
0
0
0
0
0
0
0
0
0
0
0
0
0
0
0
0
0
0
0
0
0
0
0
0
0
0
0
0
0
0
0
0
0
0
0
0
0
0
0
0
0
0
0
0
0
0
0
0
0
0
0
0
0
0
0
0
0
0
0
0
0
0
0
0
0
0
0
0
0
0
0
0
0
0
0
0
0
0
0
0
0
0
0
0
0
0
0
0
0
0
0
0
0
0
0
0
0
0
0
0
0
0
0
0
0
0
0
0
0
0
0
0
0
0
0
0
0
0
0
0
0
0
0
0
0
0
0
0
0
0
0
0
0
0
0
0
0
0
0
0
0
0
0
0
0
0
0
0
0
0
0
0
0
0
0
0
0
0
0
0
0
0
0
0
0
0
0
0
0
0
0
0
0
0
0
0
0
0
0
0
0
0
0
0
0
0
0
0
0
0
0
0
0
0
0
0
0
0
0
0
0
0
0
0
0
0
0
0
0
0
0
0
0
0
0
0
0
0
0
0
0
0
0
0
0
0
0
0
0
0
0
0
0
0
0
0
0
0
0
0
0
0
0
0
0
0
0
0
0
0
0
0
0
0
0
0
0
0
0
0
0
0
0
0
0
0
0
0
0
0
0
0
0
0
0
0
0
0
0
0
0
0
0
0
0
0
0
0
0
0
0
0
0
0
0
0
0
0
0
0
0
0
0
0
0
0
0
0
0
0
0
0
0
0
0
0
0
0
0
0
0
0
0
0
0
0
0
0
0
0
0
0
0
0
0
0
0
0
0
0
0
0
0
0
0
0
0
0
0
0
0
0
0
0
0
0
0
0
0
0
0
0
0
0
0
0
0
0
0
0
0
0
0
0
0
0
0
0
0
0
0
0
0
0
0
0
0
0
0
0
0
0
0
0
0
0
0
0
0
0
0
0
0
0
0
0
0
0
0
0
0
0
0
0
0
0
0
0
0
0
0
0
0
0
0
0
0
0
0
0
0
0
0
0
0
0
0
0
0
0
0
0
0
0
0
0
0
0
0
0
0
0
0
0
0
0
0
0
0
0
0
0
0
0
0
0
0
0
0
0
0
0
0
0
0
0
0
0
0
0
0
0
0
0
0
0
0
0
0
0
0
0
0
0
0
0
0
0
0
0
0
0
0
0
0
0
0
0
0
0
0
0
0
0
0
0
0
0
0
0
0
0
0
0
0
0
0
0
0
0
0
0
0
0
0
0
0
0
0
0
0
0
0
0
0
0
0
0
0
0
0
0
0
0
0
0
0
0
0
0
0
0
0
0
0
0
0
0
0
0
0
0
0
0
0
0
0
0
0
0
0
0
0
0
0
0
0
0
0
0
0
0
0
0
0
0
0
0
0
0
0
0
0
0
0
0
0
0
0
0
0
0
0
0
0
0
0
0
0
0
0
0
0
0
0
0
0
0
0
0
0
0
0
0
0
0
0
0
0
0
0
0
0
0
0
0
0
0
0
0
0
0
0
0
0
0
0
0
0
0
0
0
0
0
0
0
0
0
0
0
0
0
0
0
0
0
0
0
0
0
0
0
0
0
0
0
0
0
0
0
0
0
0
0
0
0
0
0
0
0
0
0
0
0
0
0
0
0
0
0
0
0
0
0
0
0
0
0
0
0
0
0
0
0
0
0
0
0
0
0
0
0
0
0
0
0
0
0
0
0
0
0
0
0
0
0
0
0
0
0
0
0
0
0
0
0
0
0
0
0
0
0
0
0
0
0
0
0
0
0
0
0
0
0
0
0
0
0
0
0
0
0
0
0
0
0
0
0
0
0
0
0
0
0
0
0
0
0
0
0
0
0
0
0
0
0
0
0
0
0
0
0
0
0
0
0
0
0
0
0
0
0
0
0
0
0
0
0
0
0
0
0
0
0
0
0
0
0
0
0
0
0
0
0
0
0
0
0
0
0
0
0
0
0
0
0
0
0
0
0
0
0
0
0
0
0
0
0
0
0
0
0
0
0
0
0
0
0
0
0
0
0
0
0
0
0
0
0
0
0
0
0
0
0
0
0
0
0
0
0
0
0
0
0
0
0
0
0
0
0
0
0
0
0
0
0
0
0
0
0
0
0
0
0
0
0
0
0
0
0
0
0
0
0
0
0
0
0
0
0
0
0
0
0
0
0
0
0
0
0
0
0
0
0
0
0
0
0
0
0
0
0
0
0
0
0
0
0
0
0
0
0
0
0
0
0
0
0
0
0
0
0
0
0
0
0
0
0
0
0
0
0
0
0
0
0
0
0
0
0
0
0
0
0
0
0
0
0
0
0
0
0
0
0
0
0
0
0
0
0
0
0
0
0
0
0
0
0
0
0
0
0
0
0
0
0
0
0
0
0
0
0
0
0
0
0
0
0
0
0
0
0
0
0
0
0
0
0
0
0
0
0
0
0
0
0
0
0
0
0
0
0
0
0
0
0
0
0
0
0
0
0
0
0
0
0
0
0
0
0
0
0
0
0
0
0
0
0
0
0
0
0
0
0
0
0
0
0
0
0
0
0
0
0
0
0
0
0
0
0
0
0
0
0
0
0
0
0
0
0
0
0
0
0
0
0
0
0
0
0
0
0
0
0
0
0
0
0
0
0
0
0
0
0
0
0
0
0
0
0
0
0
0
0
0
0
0
0
0
0
0
0
0
0
0
0
0
0
0
0
0
0
0
0
0
0
0
0
0
0
0
0
0
0
0
0
0
0
0
0
0
0
0
0
0
0
0
0
0
0
0
0
0
0
0
0
0
0
0
0
0
0
0
0
0
0
0
0
0
0
0
0
0
0
0
0
0
0
0
0
0
0
0
0
0
0
0
0
0
0
0
0
0
0
0
0
0
0
0
0
0
0
0
0
0
0
0
0
0
0
0
0
0
0
0
0
0
0
0
0
0
0
0
0
0
0
0
0
0
0
0
0
0
0
0
0
0
0
0
0
0
0
0
0
0
0
0
0
0
0
0
0
0
0
0
0
0
0
0
0
0
0
0
0
0
0
0
0
0
0
0
0
0
0
0
0
0
0
0
0
0
0
0
0
0
0
0
0
0
0
0
0
0
0
0
0
0
0
0
0
0
0
0
0
0
0
0
0
0
0
0
0
0
0
0
0
0
0
0
0
0
0
0
0
0
0
0
0
0
0
0
0
0
0
0
0
0
0
0
0
0
0
0
0
0
0
0
0
0
0
0
0
0
0
0
0
0
0
0
0
0
0
0
0
0
0
0
0
0
0
0
0
0
0
0
0
0
0
0
0
0
0
0
0
0
0
0
0
0
0
0
0
0
0
0
0
0
0
0
0
0
0
0
0
0
0
0
0
0
0
0
0
0
0
0
0
0
0
0
0
0
0
0
0
0
0
0
0
0
0
0
0
0
0
0
0
0
0
0
0
0
0
0
0
0
0
0
0
0
0
0
0
0
0
0
0
0
0
0
0
0
0
0
0
0
0
0
0
0
0
0
0
0
0
0
0
0
0
0
0
0
0
0
0
0
0
0
0
0
0
0
0
0
0
0
0
0
0
0
0
0
0
0
0
0
0
0
0
0
0
0
0
0
0
0
0
0
0
0
0
0
0
0
0
0
0
0
0
0
0
0
0
0
0
0
0
0
0
0
0
0
0
0
0
0
0
0
0
0
0
0
0
0
0
0
0
0
0
0
0
0
0
0
0
0
0
0
0
0
0
0
0
0
0
0
0
0
0
0
0
0
0
0
0
0
0
0
0
0
0
0
0
0
0
0
0
0
0
0
0
0
0
0
0
0
0
0
0
0
0
0
0
0
0
0
0
0
0
0
0
0
0
0
0
0
0
0
0
0
0
0
0
0
0
0
0
0
0
0
0
0
0
