0.930936
0.894147
0.860954
0.827355
0.790597
0.749915
0.706791
0.664646
0.628063
0.601765
0.588331
0.589049
0.605822
0.640218
0.689964
0.744483
0.789468
0.811164
0.799774
0.752225
0.673341
0.574881
0.472628
0.382434
0.313076
0.264352
0.237447
0.23168
0.244637
0.273004
0.313334
0.362158
0.41666
0.474771
0.534913
0.595857
0.6566
0.716612
0.776028
0.835741
0.897262
0.96245
1.03408
1.11399
1.19815
1.27691
1.33806
1.37016
1.36534
1.32079
1.23881
1.12605
0.992429
0.850648
0.711391
0.581615
0.465002
0.362532
0.274437
0.199569
0.134964
0.0769429
0.0220029
-0.0323782
-0.0872115
-0.141871
-0.194396
0
0.707985
2.00609
4.01107
6.75095
10.0224
13.2728
15.6615
16.3635
14.9904
11.8616
7.91146
4.25145
1.65691
0.293067
-0.182003
-0.269339
-0.283251
-0.293648
-0.298096
-0.295033
-0.283924
-0.265146
-0.23967
-0.208623
-0.172913
-0.133096
-0.0891407
-0.0405972
0.0130449
0.071975
0.135972
0.203921
0.272866
0.338255
0.395616
0.442032
0.477403
0.505034
0.531231
0.563931
0.610713
0.676809
0.76195
0.862095
0.972603
1.08888
1.20625
1.32043
1.42801
1.52632
1.61376
1.69
1.75558
1.81168
1.85989
1.902
1.93961
1.97386
2.0051
2.03309
2.05711
2.07636
2.09042
2.09951
2.1045
2.10663
2.107
2.10601
2.10304
2.09619
2.08271
2.05948
2.02383
1.97422
1.91076
1.83532
1.75117
1.66237
1.57295
1.486
1.40339
1.32602
1.25395
1.18687
1.12461
1.06747
1.01653
0.973531
0.94082
0.920618
0.914589
0.923839
0.950818
0.994708
1.04635
1.09463
1.12953
1.14491
1.14016
1.11997
1.09223
1.06511
1.04422
1.02965
1.01921
1.01074
1.00171
0.990075
0.974821
0.95619
0.93558
0.915168
0.897425
0.8846
0.878345
0.87986
0.890308
0.910732
0.942157
0.985644
1.04348
1.12059
1.22507
1.35853
1.49963
1.61824
1.68475
1.67928
1.59819
1.45451
1.2722
1.07764
0.893466
0.728982
0.583008
0.454211
0.344496
0.254467
0.183534
0.128908
0.084348
0.0426003
-0.00310917
-0.057618
-0.122819
-0.197377
-0.277244
0
0.842606
2.42671
4.85835
8.04492
11.5641
14.6459
16.3762
16.0817
13.6966
9.86436
5.67527
2.17649
-0.0532655
-1.03582
-1.20601
-1.1226
-1.03481
-0.938918
-0.832998
-0.718488
-0.601601
-0.489328
-0.389253
-0.30751
-0.245041
-0.200244
-0.169146
-0.14601
-0.124953
-0.101361
-0.0733143
-0.0406202
-0.00348959
0.0377787
0.0830647
0.132661
0.187281
0.247865
0.315281
0.390028
0.472057
0.560765
0.655165
0.754151
0.856782
0.962437
1.07082
1.18177
1.29493
1.40945
1.52371
1.63519
1.74042
1.8356
1.91728
1.98286
2.03098
2.06174
2.07648
2.07752
2.06754
2.04915
2.02457
1.99524
1.96183
1.92428
1.8822
1.83502
1.78236
1.72417
1.66094
1.59376
1.52419
1.45417
1.38576
1.32086
1.261
1.20716
1.15978
1.11875
1.08358
1.05348
1.02761
1.00508
0.985168
0.96734
0.951365
0.937334
0.925631
0.916808
0.911389
0.909734
0.911849
0.917071
0.924102
0.931401
0.93751
0.941288
0.941933
0.9388
0.931107
0.917568
0.896623
0.866673
0.826693
0.776383
0.716664
0.652589
0.591419
0.541053
0.508507
0.498713
0.513863
0.553323
0.613943
0.690635
0.776509
0.865344
0.952258
1.0338
1.10823
1.1748
1.23326
1.28207
1.3194
1.34312
1.35022
1.33788
1.30495
1.25273
1.18502
1.10718
1.02483
0.942595
0.862844
0.786567
0.714189
0.645361
0.579029
0.513474
0.446395
0.375023
0.295133
0.199018
0.0821495
-0.0543065
-0.205794
-0.365362
0
1.00581
2.77433
5.3223
8.48957
11.8435
14.6645
16.1185
15.6107
13.1319
9.3494
5.33617
2.08459
0.105385
-0.66315
-0.646755
-0.510718
-0.389354
-0.294192
-0.231251
-0.200045
-0.194162
-0.203196
-0.215506
-0.221031
-0.214985
-0.197349
-0.169871
-0.134416
-0.0933231
-0.0486104
-0.00143242
0.0481017
0.100745
0.157702
0.220189
0.289019
0.364456
0.446757
0.536184
0.632924
0.736936
0.847661
0.963721
1.08291
1.20172
1.31581
1.42111
1.51467
1.59529
1.6636
1.72162
1.77195
1.81673
1.8571
1.89284
1.92248
1.94384
1.95475
1.95376
1.9406
1.91625
1.88279
1.84285
1.79901
1.75315
1.70608
1.65754
1.60655
1.55168
1.49155
1.42519
1.35219
1.27279
1.18777
1.09847
1.00644
0.913445
0.821525
0.732941
0.65013
0.575531
0.51132
0.459108
0.420023
0.39462
0.381447
0.375851
0.371833
0.363531
0.3465
0.318641
0.280475
0.234674
0.185013
0.135141
0.0874221
0.0425611
0.000547409
-0.0391375
-0.0770966
-0.113703
-0.149036
-0.18305
-0.215764
-0.247617
-0.279323
-0.311522
-0.344259
-0.376552
-0.406224
-0.430132
-0.444715
-0.446804
-0.434563
-0.406907
-0.363986
-0.306985
-0.237763
-0.158736
-0.0721992
0.0199799
0.116271
0.214759
0.311775
0.400734
0.473576
0.521945
0.539329
0.523184
0.476152
0.40578
0.322743
0.238146
0.160415
0.0920179
0.031678
-0.0227135
-0.0735733
-0.123932
-0.177174
-0.237084
-0.30935
-0.40187
-0.514349
-0.639654
-0.767695
-0.887719
-0.706672
0
1.24589
3.15861
5.80927
9.04982
12.3763
14.9671
15.967
14.9009
11.9703
8.01776
4.1532
1.25648
-0.346569
-0.878517
-0.838311
-0.822433
-0.806757
-0.791222
-0.775406
-0.75854
-0.739655
-0.717829
-0.692457
-0.663459
-0.631355
-0.597366
-0.563373
-0.531749
-0.50492
-0.484653
-0.471542
-0.464531
-0.460659
-0.455165
-0.442048
-0.415027
-0.368731
-0.300182
-0.210151
-0.101804
0.021138
0.153843
0.291294
0.42923
0.564807
0.696805
0.82552
0.952344
1.07916
1.20782
1.3398
1.47562
1.61278
1.7425
1.8522
1.92909
1.96435
1.95701
1.91625
1.86023
1.81103
1.78708
1.79531
1.824
1.86197
1.89925
1.92599
1.93429
1.91914
1.87855
1.81318
1.72594
1.62315
1.51152
1.39699
1.28515
1.18108
1.08836
1.0094
0.945701
0.896763
0.860565
0.834268
0.814793
0.799276
0.785308
0.77098
0.754819
0.735734
0.713153
0.686975
0.657802
0.626974
0.59641
0.568198
0.544132
0.525606
0.512176
0.500992
0.488066
0.469478
0.442552
0.406561
0.362759
0.313825
0.26305
0.213565
0.167513
0.1268
0.0933165
0.0687104
0.0544637
0.0517527
0.0612574
0.0830023
0.116293
0.159768
0.211517
0.269072
0.329806
0.391151
0.450428
0.504859
0.551881
0.589255
0.615196
0.628434
0.628184
0.614042
0.585866
0.543704
0.487968
0.419636
0.34004
0.250842
0.153973
0.0524665
-0.0494329
-0.146988
-0.235633
-0.311184
-0.370274
-0.411965
-0.436953
-0.447467
-0.44709
-0.440443
0
0.915704
2.50194
4.90237
8.04723
11.513
14.5218
16.1706
15.8233
13.4552
9.72458
5.69912
2.38404
0.323916
-0.519102
-0.591285
-0.63944
-0.687059
-0.730885
-0.763875
-0.777014
-0.763005
-0.719703
-0.651338
-0.566885
-0.476554
-0.38832
-0.304795
-0.225567
-0.150431
-0.0794138
-0.0128666
0.0485884
0.104192
0.153395
0.196187
0.233294
0.266153
0.296694
0.327
0.358919
0.393762
0.432227
0.474376
0.519753
0.567576
0.616998
0.667365
0.718402
0.770289
0.823617
0.879233
0.938026
1.00071
1.0676
1.13859
1.21306
1.2897
1.36616
1.43875
1.50253
1.55218
1.58297
1.59151
1.57672
1.5404
1.48723
1.42395
1.35783
1.29484
1.23774
1.18592
1.13719
1.08833
1.0365
0.980369
0.920683
0.859977
0.801592
0.748431
0.701248
0.659664
0.622209
0.586786
0.551487
0.515313
0.478582
0.442876
0.410559
0.38402
0.365089
0.354811
0.351835
0.353161
0.355315
0.355445
0.35215
0.345734
0.337832
0.330553
0.325512
0.322943
0.321941
0.320724
0.317285
0.310218
0.299402
0.286313
0.273854
0.265729
0.265542
0.275509
0.295788
0.325905
0.363763
0.404971
0.444226
0.477058
0.500956
0.515974
0.524641
0.531185
0.540259
0.555557
0.578577
0.608943
0.642542
0.672164
0.68957
0.687293
0.660225
0.606705
0.528958
0.432789
0.326566
0.219658
0.12009
0.0320898
-0.043297
-0.105926
-0.156648
-0.197477
-0.231063
-0.260141
-0.28705
-0.313402
-0.339941
-0.366593
-0.392684
-0.376319
0
0.982567
2.80672
5.54511
8.96678
12.4633
15.1391
16.1116
14.9169
11.7944
7.6425
3.63052
0.682767
-0.863306
-1.25202
-1.02205
-0.931388
-0.851731
-0.791245
-0.753593
-0.737325
-0.736605
-0.742947
-0.747356
-0.742926
-0.726517
-0.697714
-0.657402
-0.607115
-0.548973
-0.485424
-0.418795
-0.350928
-0.282875
-0.214775
-0.14592
-0.0750151
-0.000568962
0.078653
0.163235
0.252867
0.34632
0.441666
0.536597
0.628812
0.716352
0.797804
0.87236
0.939732
1.00001
1.05352
1.10073
1.14231
1.17921
1.21268
1.2443
1.27595
1.30952
1.34671
1.38884
1.43648
1.48834
1.5397
1.58317
1.61093
1.61656
1.59658
1.55112
1.48357
1.39941
1.30494
1.20636
1.10857
1.01446
0.926073
0.845097
0.772721
0.709458
0.654504
0.605824
0.560892
0.517372
0.473758
0.429802
0.386554
0.346007
0.310475
0.281695
0.260278
0.246322
0.238958
0.236725
0.237982
0.241285
0.24559
0.250259
0.254877
0.258978
0.261744
0.261907
0.257966
0.24855
0.232918
0.211378
0.185456
0.157727
0.131339
0.109366
0.093939
0.0857878
0.0848921
0.0903488
0.10043
0.112732
0.124899
0.135423
0.144153
0.152549
0.163591
0.181352
0.210302
0.254489
0.316369
0.399234
0.509984
0.657918
0.844194
1.04372
1.21904
1.33151
1.3477
1.24947
1.04303
0.762084
0.462697
0.209717
0.0335697
-0.0895866
-0.182191
-0.249702
-0.294967
-0.324035
-0.343859
-0.360665
-0.378927
-0.400843
-0.426414
-0.45407
-0.481643
-0.502677
0
0.977528
2.58373
4.93672
7.96185
11.2334
13.9692
15.2784
14.5821
11.9607
8.17976
4.34237
1.37393
-0.343181
-0.988596
-1.03038
-0.993356
-0.957804
-0.924556
-0.893291
-0.86232
-0.828741
-0.788942
-0.739344
-0.677228
-0.601506
-0.51318
-0.415031
-0.310849
-0.205018
-0.101711
-0.00411854
0.0859938
0.168358
0.243908
0.314231
0.380977
0.445332
0.507868
0.568619
0.627368
0.684058
0.739112
0.793527
0.848748
0.906355
0.967712
1.03356
1.104
1.17863
1.25652
1.33638
1.41666
1.4958
1.57227
1.64476
1.71223
1.77385
1.82892
1.87686
1.91718
1.94922
1.97217
1.98492
1.98627
1.97525
1.95129
1.91438
1.86531
1.80564
1.73763
1.66388
1.58708
1.50962
1.43333
1.35952
1.28908
1.22271
1.16099
1.10458
1.05422
1.01064
0.974483
0.946115
0.925517
0.912248
0.90526
0.902865
0.903045
0.903755
0.903239
0.900319
0.894588
0.886476
0.877157
0.868308
0.861751
0.859053
0.861228
0.868501
0.880302
0.89527
0.911474
0.926716
0.938809
0.945796
0.946072
0.938423
0.922028
0.896479
0.861915
0.81871
0.767704
0.710926
0.652327
0.597827
0.554156
0.527863
0.524342
0.546976
0.59657
0.671216
0.766588
0.876603
0.99423
1.11218
1.2237
1.32032
1.39339
1.43547
1.43988
1.40193
1.32051
1.19953
1.04834
0.880616
0.711809
0.55464
0.413898
0.290381
0.184007
0.0923628
0.0117105
-0.0618822
-0.131475
-0.199031
-0.265347
-0.330339
-0.393656
-0.455071
0
0.979421
2.62891
5.02476
8.06003
11.3482
14.2119
15.8461
15.6426
13.5162
10.0156
6.11129
2.76449
0.537163
-0.542408
-0.826278
-0.825283
-0.824155
-0.822303
-0.818395
-0.810307
-0.795284
-0.770309
-0.732517
-0.679602
-0.610119
-0.523709
-0.421267
-0.305391
-0.177826
-0.0431464
0.0874096
0.200715
0.28521
0.333877
0.346265
0.328795
0.293273
0.254208
0.225843
0.216419
0.227438
0.258779
0.310082
0.380088
0.466268
0.564987
0.671909
0.782459
0.892287
0.997663
1.09574
1.18469
1.26361
1.33256
1.39238
1.44444
1.49031
1.53141
1.56842
1.60062
1.62537
1.63891
1.63657
1.61441
1.57082
1.50752
1.42947
1.34362
1.25683
1.17376
1.09496
1.01912
0.943896
0.866289
0.783491
0.69375
0.596972
0.494836
0.390825
0.290614
0.200428
0.125755
0.0703251
0.0355517
0.0205029
0.0223368
0.03699
0.0598828
0.0862565
0.112136
0.133953
0.148745
0.154307
0.149408
0.134
0.109284
0.0775599
0.0418448
0.00532618
-0.0292111
-0.0599757
-0.0861537
-0.107491
-0.124266
-0.137041
-0.146421
-0.152908
-0.156849
-0.158473
-0.158005
-0.155716
-0.151959
-0.147134
-0.141568
-0.135167
-0.127076
-0.115471
-0.0975945
-0.0701119
-0.0297514
0.0259146
0.0977536
0.185784
0.287592
0.39762
0.50668
0.60156
0.669763
0.700768
0.687163
0.626011
0.520187
0.378891
0.216562
0.049983
-0.105675
-0.24434
-0.367774
-0.477736
-0.575366
-0.66212
-0.739402
-0.808199
-0.868756
-0.920763
-0.963513
-0.996691
-1.02096
-1.03805
-0.727557
0
1.33125
3.46207
6.41781
9.88489
13.1546
15.296
15.5375
13.6653
10.183
6.10254
2.47942
-0.024005
-1.30446
-1.67336
-1.57585
-1.49877
-1.43275
-1.38009
-1.34061
-1.31155
-1.28817
-1.26484
-1.23629
-1.19898
-1.15241
-1.09777
-1.03688
-0.972115
-0.905966
-0.840494
-0.776945
-0.715545
-0.655489
-0.595119
-0.532239
-0.464513
-0.389879
-0.306901
-0.214978
-0.114403
-0.00619278
0.108147
0.226901
0.348368
0.470955
0.593147
0.713378
0.829869
0.940458
1.04279
1.13454
1.21369
1.27881
1.32929
1.36531
1.3878
1.39811
1.39771
1.38795
1.36987
1.34418
1.31145
1.27232
1.22746
1.17777
1.12424
1.06774
1.00878
0.947375
0.883104
0.815389
0.743911
0.669047
0.59211
0.515299
0.441324
0.372831
0.312079
0.260306
0.217173
0.181424
0.151566
0.126591
0.106477
0.0922753
0.0857401
0.0886225
0.101807
0.126388
0.160563
0.197944
0.230676
0.251541
0.255854
0.242632
0.214693
0.177783
0.139087
0.10563
0.0815369
0.0680254
0.0653897
0.073545
0.0913384
0.116784
0.1474
0.180614
0.214161
0.24644
0.27671
0.305143
0.332722
0.361001
0.391806
0.426919
0.467856
0.515685
0.570939
0.633568
0.703095
0.778749
0.859076
0.940412
1.01604
1.07773
1.11707
1.1271
1.10387
1.04749
0.962281
0.856056
0.738747
0.620738
0.509408
0.408499
0.319541
0.243146
0.178746
0.124533
0.0776167
0.0342381
-0.0092638
-0.0558182
-0.107308
-0.163703
-0.223464
-0.322401
0
1.03835
3.01055
5.92784
9.47092
12.9468
15.4264
16.073
14.533
11.162
6.91849
2.95062
0.107656
-1.34812
-1.69504
-1.47
-1.32498
-1.19506
-1.08905
-1.01157
-0.954931
-0.912364
-0.880371
-0.855066
-0.832244
-0.807737
-0.777732
-0.739042
-0.689385
-0.627539
-0.553405
-0.468069
-0.373774
-0.273689
-0.17152
-0.0714025
0.0230197
0.10925
0.186338
0.254986
0.317351
0.376601
0.436371
0.500252
0.571143
0.651056
0.741376
0.842559
0.953944
1.07367
1.19872
1.32515
1.44848
1.56422
1.66843
1.75807
1.83126
1.88711
1.92563
1.94738
1.95314
1.94371
1.91981
1.88219
1.83172
1.76955
1.69717
1.61638
1.52917
1.43753
1.3433
1.24819
1.1538
1.06172
0.973669
0.891506
0.817047
0.751893
0.697247
0.653601
0.620726
0.597741
0.58328
0.575686
0.573208
0.574166
0.576887
0.57994
0.582266
0.583301
0.583054
0.582071
0.581268
0.58164
0.583905
0.588171
0.593853
0.599415
0.602599
0.600925
0.592242
0.57522
0.549655
0.516506
0.477656
0.435501
0.392503
0.350762
0.311842
0.277013
0.247666
0.225443
0.211652
0.207497
0.213808
0.230775
0.257865
0.294009
0.338049
0.389297
0.447976
0.517669
0.615378
0.785973
1.03246
1.29118
1.47712
1.52599
1.42304
1.20561
0.942834
0.706481
0.545701
0.437609
0.349982
0.27024
0.193476
0.116611
0.0370021
-0.0468473
-0.134086
-0.220409
-0.299172
-0.364287
-0.412453
-0.444682
-0.461221
0
0.951646
2.56775
4.9385
7.95151
11.1869
13.921
15.3226
14.8065
12.3625
8.63969
4.68804
1.48974
-0.442608
-1.17647
-1.15951
-1.09046
-1.02499
-0.965966
-0.915087
-0.872666
-0.838056
-0.810124
-0.787875
-0.770125
-0.755902
-0.744152
-0.733356
-0.721272
-0.704939
-0.681021
-0.646358
-0.598694
-0.537858
-0.464847
-0.381351
-0.289952
-0.193902
-0.0966576
-0.001476
0.089129
0.173751
0.252262
0.325764
0.396309
0.466471
0.538853
0.615652
0.698283
0.787297
0.882406
0.98263
1.08638
1.19077
1.29073
1.37971
1.45103
1.4987
1.51861
1.50952
1.47368
1.41684
1.3477
1.27669
1.21384
1.1656
1.13796
1.14074
1.16853
1.20207
1.21837
1.19857
1.13448
1.03129
0.905244
0.777499
0.666809
0.577936
0.505872
0.447471
0.401173
0.364931
0.336774
0.315183
0.299241
0.288558
0.283032
0.282523
0.286659
0.294651
0.305187
0.316508
0.326592
0.333447
0.335445
0.331599
0.321754
0.306658
0.28787
0.267515
0.247923
0.231223
0.218921
0.211697
0.209516
0.211667
0.217005
0.224251
0.232255
0.240186
0.247588
0.254337
0.260554
0.266515
0.272616
0.279391
0.287582
0.298212
0.312614
0.332381
0.359331
0.396765
0.454097
0.564175
0.802621
1.166
1.56443
1.88834
2.02835
1.92397
1.59594
1.13641
0.666463
0.304264
0.107413
-0.00917692
-0.0950054
-0.162653
-0.213435
-0.248416
-0.269511
-0.279282
-0.280643
-0.277056
-0.271763
-0.267387
-0.265628
-0.267132
-0.279573
0
0.906622
2.67717
5.3976
8.87391
12.5358
15.4898
16.7963
15.8927
12.9303
8.78067
4.65893
1.56964
-0.0944017
-0.581908
-0.48198
-0.486684
-0.488067
-0.482889
-0.468173
-0.441572
-0.401775
-0.348751
-0.283733
-0.208974
-0.127424
-0.0427917
0.0417953
0.123322
0.199242
0.267956
0.329329
0.38502
0.438434
0.494201
0.557271
0.631881
0.720512
0.822703
0.93683
1.06092
1.19254
1.32904
1.46771
1.60591
1.74099
1.87023
1.9909
2.10051
2.19708
2.27936
2.34698
2.40052
2.44133
2.47128
2.49251
2.50717
2.51721
2.52424
2.5295
2.53374
2.5373
2.54001
2.54129
2.54013
2.53518
2.52487
2.50749
2.48142
2.44541
2.39894
2.34236
2.27713
2.20561
2.1308
2.05575
1.98305
1.91446
1.85066
1.79143
1.73605
1.68368
1.63369
1.58574
1.53976
1.49579
1.45385
1.414
1.37632
1.34101
1.30835
1.27865
1.25212
1.22865
1.20782
1.1889
1.171
1.15319
1.13463
1.11446
1.0918
1.06556
1.03465
0.997856
0.954114
0.90278
0.843898
0.778341
0.707819
0.634722
0.561972
0.492819
0.430866
0.380077
0.343744
0.3243
0.323408
0.341822
0.379313
0.434708
0.506031
0.590689
0.685572
0.788668
0.895106
0.993625
1.06908
1.10511
1.08829
1.01279
0.883439
0.715397
0.530267
0.349852
0.186984
0.0412176
-0.0904285
-0.207438
-0.30975
-0.398709
-0.476366
-0.54446
-0.604464
-0.657668
-0.705051
-0.748167
-0.788482
-0.827283
-0.679453
0
1.51136
4.02289
7.40626
11.1431
14.3805
16.1824
15.9097
13.5395
9.72361
5.52301
1.95494
-0.391936
-1.47965
-1.66756
-1.51718
-1.37744
-1.2572
-1.16235
-1.09503
-1.04814
-1.0173
-0.998527
-0.987325
-0.979152
-0.969821
-0.955857
-0.9345
-0.9036
-0.861747
-0.8083
-0.743393
-0.667856
-0.583084
-0.490762
-0.392553
-0.28997
-0.18432
-0.0767586
0.0315657
0.139374
0.245202
0.347448
0.444518
0.535379
0.619817
0.698614
0.773472
0.846661
0.920412
0.996238
1.07467
1.15417
1.23061
1.29892
1.35475
1.39587
1.42272
1.43803
1.4456
1.44898
1.45052
1.45107
1.45033
1.44737
1.44087
1.42923
1.41037
1.38182
1.3409
1.28529
1.21377
1.12694
1.02757
0.920433
0.811645
0.707474
0.612428
0.529999
0.462313
0.409908
0.371926
0.346529
0.331372
0.324003
0.322138
0.323798
0.327312
0.331132
0.333943
0.334788
0.333184
0.32921
0.32347
0.316909
0.310527
0.305078
0.300839
0.29759
0.294826
0.291889
0.288142
0.283105
0.27653
0.268432
0.259117
0.249235
0.239833
0.232406
0.22891
0.231531
0.242416
0.263285
0.295052
0.337533
0.389335
0.448078
0.510348
0.571878
0.627665
0.672335
0.70158
0.712206
0.702466
0.672286
0.623288
0.558527
0.481953
0.397715
0.309512
0.220259
0.131634
0.0447194
-0.0398302
-0.121928
-0.201938
-0.280732
-0.359687
-0.441073
-0.528213
-0.622585
-0.723334
-0.827071
-0.698124
0
1.46236
3.77648
6.82552
10.2163
13.2738
15.1792
15.2636
13.3374
9.85547
5.77862
2.17535
-0.21994
-1.2474
-1.25689
-1.12309
-1.00748
-0.912629
-0.842857
-0.798073
-0.774581
-0.766592
-0.767836
-0.772394
-0.776305
-0.776778
-0.771486
-0.758341
-0.735385
-0.700891
-0.653654
-0.593356
-0.520902
-0.43852
-0.349542
-0.257946
-0.16781
-0.0826035
-0.00464039
0.0652154
0.127552
0.184155
0.237604
0.290829
0.346724
0.407868
0.476385
0.553822
0.641029
0.738043
0.844114
0.958032
1.0769
1.19563
1.30753
1.40479
1.47937
1.52581
1.54095
1.52461
1.48009
1.41441
1.33775
1.26208
1.19886
1.15592
1.13397
1.13538
1.15318
1.17477
1.18675
1.17839
1.14411
1.08423
1.00425
0.913046
0.820669
0.73563
0.662161
0.60198
0.556191
0.525681
0.510343
0.50912
0.52031
0.541477
0.568548
0.595461
0.616039
0.625312
0.620565
0.602038
0.573007
0.539099
0.506938
0.48245
0.468411
0.464511
0.469821
0.480244
0.49061
0.496058
0.493257
0.481137
0.460973
0.435907
0.410116
0.387864
0.372178
0.36488
0.367196
0.379799
0.40267
0.435139
0.476023
0.523823
0.576913
0.633729
0.692866
0.753063
0.812918
0.870286
0.921516
0.961344
0.983718
0.982518
0.953065
0.893613
0.806304
0.697202
0.575235
0.450299
0.330746
0.220497
0.120089
0.0292093
-0.0539352
-0.13179
-0.206256
-0.278234
-0.346733
-0.408864
-0.460937
-0.500173
-0.526163
-0.522057
0
0.982619
2.6103
4.99805
8.04965
11.3362
14.1037
15.4914
14.9091
12.3725
8.57076
4.58528
1.40711
-0.462436
-1.11135
-1.01017
-0.948321
-0.893326
-0.850303
-0.821338
-0.805118
-0.797466
-0.792544
-0.784318
-0.768723
-0.743913
-0.709391
-0.665849
-0.615015
-0.559333
-0.501545
-0.443962
-0.387992
-0.333888
-0.280762
-0.226862
-0.170013
-0.108121
-0.0396068
0.0362332
0.119352
0.209085
0.304294
0.403584
0.505488
0.6086
0.711627
0.813389
0.912782
1.00874
1.1002
1.18613
1.26561
1.3381
1.40351
1.46234
1.51565
1.56481
1.61116
1.65535
1.69678
1.73243
1.75665
1.76233
1.74241
1.69207
1.61053
1.50193
1.37469
1.23983
1.10839
0.987719
0.879773
0.785809
0.705866
0.638839
0.583053
0.536697
0.498024
0.465407
0.437216
0.411435
0.385993
0.359065
0.329446
0.296852
0.261994
0.22636
0.191751
0.159734
0.131119
0.105956
0.0835551
0.0628012
0.0425641
0.0220602
0.00105629
-0.0201207
-0.040729
-0.0598255
-0.0765294
-0.090068
-0.0996934
-0.104679
-0.104242
-0.0975013
-0.0834957
-0.061313
-0.030243
0.0099658
0.0588684
0.115163
0.176902
0.241266
0.30492
0.364908
0.419352
0.467987
0.512402
0.555896
0.602978
0.658618
0.727375
0.820217
0.957418
1.13855
1.32542
1.47137
1.53847
1.51223
1.4067
1.25688
1.10221
0.970704
0.865367
0.775069
0.693806
0.619391
0.550732
0.486567
0.425259
0.36458
0.301704
0.233514
0.15542
0.0635369
-0.0421933
-0.158942
-0.28139
0
0.91118
2.59655
5.10193
8.29399
11.7696
14.8387
16.6731
16.6256
14.5687
11.0291
6.99469
3.48231
1.11888
-0.0265641
-0.310949
-0.32668
-0.344866
-0.363485
-0.380203
-0.391153
-0.391594
-0.376954
-0.343982
-0.291728
-0.222082
-0.137328
-0.0452008
0.0425886
0.115202
0.165289
0.190819
0.195642
0.188604
0.181438
0.186011
0.211332
0.258691
0.325121
0.407419
0.502464
0.606538
0.715591
0.825757
0.933764
1.03722
1.13476
1.22606
1.31168
1.39288
1.47123
1.54836
1.62557
1.70358
1.78239
1.86119
1.93838
2.01173
2.07871
2.13683
2.18379
2.21769
2.23611
2.23772
2.22221
2.19031
2.14406
2.08686
2.02321
1.95793
1.89512
1.83794
1.78624
1.73683
1.68498
1.62642
1.55915
1.48437
1.40629
1.3308
1.26373
1.2073
1.1614
1.12578
1.09899
1.07818
1.0596
1.03962
1.01536
0.985071
0.948277
0.905686
0.858896
0.810073
0.761689
0.716166
0.676113
0.644247
0.622894
0.613752
0.618279
0.637628
0.66909
0.706234
0.741487
0.767884
0.780699
0.778486
0.76326
0.739853
0.714677
0.694122
0.682571
0.681995
0.692535
0.713183
0.742395
0.778546
0.820192
0.866497
0.917462
0.973925
1.03784
1.1131
1.20571
1.31709
1.43303
1.5307
1.58623
1.58212
1.5125
1.38455
1.21605
1.03028
0.850442
0.690176
0.550678
0.43
0.328328
0.246158
0.182461
0.135397
0.101554
0.075949
0.0536154
0.0305308
0.00436034
-0.0252263
-0.0567876
0
0.568229
1.92323
4.23557
7.42158
11.0395
14.3081
16.3126
16.3551
14.2929
10.663
6.48418
2.82331
0.364067
-0.787104
-0.986183
-0.839376
-0.705389
-0.586283
-0.486737
-0.409012
-0.34832
-0.301918
-0.266972
-0.239833
-0.216454
-0.192846
-0.165524
-0.131861
-0.090587
-0.0415424
0.014763
0.0772364
0.144555
0.215176
0.287859
0.361911
0.437263
0.514355
0.593886
0.676509
0.762589
0.852115
0.944693
1.03989
1.13732
1.23666
1.3376
1.43962
1.54185
1.64294
1.74116
1.83458
1.92141
2.00023
2.07024
2.13131
2.18382
2.22847
2.26596
2.29694
2.32172
2.34018
2.35168
2.35517
2.34911
2.33188
2.30187
2.25778
2.19893
2.12554
2.03892
1.94159
1.83707
1.72974
1.62432
1.52557
1.43792
1.36488
1.30883
1.27077
1.25021
1.24527
1.25304
1.26984
1.29088
1.31131
1.32693
1.33459
1.33246
1.31999
1.2977
1.2668
1.22884
1.18553
1.13834
1.08833
1.03632
0.983086
0.929556
0.876954
0.827038
0.781993
0.74407
0.715291
0.697053
0.68983
0.693053
0.705217
0.724142
0.747316
0.772157
0.796444
0.81832
0.836431
0.8502
0.860013
0.867385
0.874965
0.8863
0.905304
0.93666
0.987979
1.06492
1.16046
1.2566
1.33303
1.37286
1.36652
1.31298
1.21873
1.09547
0.957733
0.820342
0.692898
0.579015
0.47902
0.391926
0.316437
0.250719
0.19214
0.137714
0.0845709
0.0301888
-0.0271827
-0.0879351
-0.151221
-0.215239
0
0.762451
2.25441
4.56106
7.57044
10.8949
13.8615
15.6597
15.6467
13.677
10.2415
6.29207
2.82379
0.463699
-0.701728
-0.999227
-0.916647
-0.837947
-0.765459
-0.700844
-0.644504
-0.595038
-0.550619
-0.509719
-0.470972
-0.433264
-0.395794
-0.358013
-0.319481
-0.279709
-0.238047
-0.193664
-0.145632
-0.0930896
-0.0354367
0.0274885
0.0953103
0.167117
0.241571
0.317118
0.392248
0.465781
0.537132
0.606514
0.675049
0.744751
0.81835
0.898984
0.989752
1.0932
1.21256
1.35382
1.52107
1.70122
1.86643
1.98854
2.04804
2.04078
1.98029
1.89421
1.81524
1.76941
1.7608
1.77307
1.79663
1.81931
1.82968
1.81974
1.78638
1.73114
1.65874
1.57502
1.48542
1.39412
1.30345
1.21481
1.1294
1.04833
0.97262
0.90314
0.840208
0.783925
0.734437
0.692228
0.658329
0.634142
0.621074
0.620007
0.632569
0.657435
0.688649
0.718768
0.740763
0.749829
0.744421
0.726177
0.698874
0.666927
0.634099
0.602607
0.573318
0.546756
0.523341
0.503477
0.487521
0.475624
0.467574
0.462649
0.45973
0.457543
0.454984
0.451429
0.446948
0.442401
0.439414
0.440174
0.447231
0.463403
0.491421
0.533615
0.59161
0.666173
0.758217
0.868565
0.998283
1.14799
1.31287
1.47596
1.61298
1.69584
1.69836
1.60608
1.42451
1.18084
0.917347
0.679663
0.492435
0.34591
0.227891
0.136635
0.0716283
0.030429
0.0106543
0.00686631
0.0121512
0.020097
0.0258504
0.0267811
0.0225532
0.0145946
0
0.483189
1.53342
3.28613
5.7922
8.90687
12.1735
14.8328
16.0475
15.2835
12.6332
8.84555
5.00336
2.02875
0.314279
-0.318257
-0.364687
-0.367224
-0.366005
-0.357943
-0.341151
-0.315325
-0.281838
-0.243483
-0.203861
-0.166576
-0.134403
-0.108352
-0.0881974
-0.0722476
-0.0576391
-0.0408047
-0.0182326
0.0131877
0.056064
0.112084
0.181884
0.265003
0.360114
0.465534
0.579407
0.699905
0.825334
0.954109
1.08465
1.21529
1.34422
1.46954
1.58938
1.70201
1.80596
1.89995
1.9827
2.05338
2.11167
2.15763
2.19178
2.21513
2.22917
2.2357
2.23659
2.23349
2.22763
2.21964
2.20947
2.19651
2.17977
2.158
2.12997
2.09463
2.05131
1.99982
1.94058
1.8746
1.80346
1.72917
1.65399
1.5802
1.5098
1.44433
1.38469
1.3311
1.28334
1.24101
1.20388
1.17223
1.14686
1.12897
1.11995
1.12094
1.1325
1.15424
1.18495
1.22236
1.26262
1.30056
1.33063
1.34756
1.34704
1.32634
1.28479
1.22409
1.14832
1.06357
0.97711
0.896918
0.830065
0.781733
0.754626
0.748911
0.762631
0.792367
0.83394
0.882529
0.933813
0.984301
1.03089
1.07117
1.10369
1.12827
1.14616
1.15997
1.17346
1.19098
1.21696
1.25537
1.31389
1.40722
1.556
1.75746
1.96756
2.13677
2.2206
2.19104
2.0454
1.80792
1.52368
1.2483
1.03177
0.871448
0.744446
0.637648
0.546202
0.466118
0.39261
0.320748
0.245827
0.162946
0.0697995
-0.0328324
-0.142018
-0.253436
0
0.768645
2.22659
4.51726
7.60698
11.1399
14.3932
16.452
16.5843
14.6253
11.1203
7.10157
3.61818
1.30287
0.212267
-0.0197564
4.88281e-005
-0.0312719
-0.0701176
-0.11512
-0.16255
-0.207358
-0.244354
-0.26924
-0.27934
-0.273798
-0.253239
-0.219103
-0.172983
-0.11705
-0.0531375
0.0174737
0.0934575
0.173004
0.253866
0.333383
0.409117
0.479535
0.544579
0.605989
0.66723
0.733002
0.808397
0.897862
1.004
1.1267
1.26366
1.41081
1.56222
1.71021
1.84669
1.96483
2.06013
2.13082
2.17785
2.20449
2.21552
2.21635
2.21216
2.20711
2.20386
2.20338
2.20538
2.20877
2.21196
2.21301
2.20989
2.20057
2.18336
2.15703
2.12108
2.07592
2.02292
1.96436
1.90311
1.84212
1.78396
1.73038
1.68195
1.63811
1.59742
1.55811
1.51855
1.47764
1.43501
1.39096
1.34621
1.30165
1.25805
1.21598
1.17589
1.13824
1.10376
1.07353
1.049
1.03175
1.02323
1.0244
1.03536
1.05537
1.08271
1.11427
1.14584
1.17298
1.19185
1.19983
1.1959
1.18079
1.15673
1.12708
1.09578
1.06673
1.04322
1.02751
1.02117
1.02548
1.04132
1.06907
1.10859
1.15911
1.21928
1.28726
1.36076
1.43664
1.51095
1.57912
1.63596
1.67569
1.69315
1.68388
1.64459
1.5739
1.47306
1.34641
1.20125
1.04708
0.894105
0.750659
0.620741
0.506361
0.408201
0.324379
0.250991
0.183367
0.117126
0.0490497
-0.0222555
-0.0962049
-0.170592
0
0.724875
2.12921
4.27515
7.09925
10.3455
13.5021
15.8347
16.6002
15.3895
12.405
8.45591
4.62228
1.77074
0.220661
-0.25646
-0.155575
-0.00896535
0.128807
0.25066
0.352671
0.437584
0.511255
0.576667
0.635632
0.689638
0.740022
0.788053
0.83506
0.88253
0.932108
0.985507
1.04433
1.10983
1.18268
1.26275
1.34904
1.4397
1.53235
1.62413
1.71219
1.79451
1.87028
1.9401
2.00567
2.06923
2.13265
2.19676
2.2602
2.31915
2.36874
2.40499
2.42659
2.43581
2.43818
2.44108
2.45165
2.47402
2.508
2.55347
2.60571
2.65687
2.69861
2.72388
2.72831
2.71078
2.67318
2.61945
2.55428
2.4819
2.40498
2.32421
2.2389
2.14772
2.04918
1.94227
1.82711
1.70528
1.5798
1.45481
1.33499
1.22491
1.12848
1.0482
0.985119
0.938798
0.90758
0.888871
0.879757
0.876757
0.8759
0.873289
0.865459
0.849718
0.824472
0.789458
0.745812
0.695922
0.643064
0.590854
0.54248
0.500297
0.465919
0.439714
0.420698
0.407096
0.396925
0.388568
0.381229
0.375146
0.371526
0.372228
0.3793
0.394358
0.418258
0.451038
0.492045
0.540041
0.593303
0.649837
0.707387
0.763332
0.814601
0.85758
0.888045
0.901754
0.894954
0.86481
0.809996
0.731109
0.630719
0.513032
0.383258
0.246913
0.109377
-0.0251431
-0.152492
-0.267591
-0.36671
-0.446929
-0.506687
-0.546258
-0.567877
-0.575346
-0.573206
-0.565766
-0.556373
-0.546908
-0.539167
0
1.22219
3.28298
6.19977
9.73423
13.3104
16.0757
17.1758
16.1499
13.2154
9.23175
5.32327
2.37989
0.732513
0.162119
0.173642
0.169522
0.166308
0.165078
0.167176
0.174119
0.187339
0.207844
0.235953
0.271205
0.312493
0.358381
0.407475
0.458815
0.511973
0.566944
0.623857
0.682706
0.743002
0.803309
0.86196
0.917822
0.971001
1.02312
1.07702
1.1359
1.20236
1.27755
1.36033
1.44916
1.54284
1.64051
1.7419
1.84741
1.95788
2.07409
2.1966
2.32543
2.45922
2.59408
2.72315
2.83737
2.92807
2.9882
3.01334
3.00275
2.96037
2.89512
2.82011
2.75032
2.69917
2.67248
2.66944
2.68793
2.71637
2.73819
2.73647
2.69779
2.61525
2.49007
2.3312
2.15294
1.97092
1.79674
1.63332
1.47862
1.33049
1.18566
1.04045
0.891711
0.737477
0.577322
0.412252
0.24435
0.0761441
-0.0898915
-0.251718
-0.407962
-0.557974
-0.701767
-0.83987
-0.97315
-1.10254
-1.22879
-1.35231
-1.47262
-1.5872
-1.68943
-1.76988
-1.81708
-1.81991
-1.77108
-1.67002
-1.52409
-1.34742
-1.1578
-0.973255
-0.806151
-0.668912
-0.570111
-0.515175
-0.505636
-0.538081
-0.603433
-0.687274
-0.771568
-0.837651
-0.874151
-0.880617
-0.858874
-0.804421
-0.71446
-0.598843
-0.479261
-0.377834
-0.312196
-0.292488
-0.320406
-0.390292
-0.491812
-0.613422
-0.745538
-0.881703
-1.01926
-1.1574
-1.29557
-1.43235
-1.56472
-1.68745
-1.79494
-1.88497
-1.95694
-2.01115
-1.92327
-1.30922
0
2.16034
5.16232
8.72851
12.2504
14.8728
15.7759
14.5579
11.4859
7.42455
3.4513
0.389423
-1.46465
-2.29492
-2.5045
-2.39409
-2.28075
-2.16364
-2.0451
-1.93028
-1.8246
-1.73012
-1.64617
-1.57042
-1.4998
-1.4309
-1.36017
-1.28403
-1.19906
-1.10258
-0.992979
-0.870004
-0.734678
-0.589136
-0.436313
-0.279519
-0.121972
0.0336641
0.185656
0.333487
0.477981
0.621227
0.766287
0.916663
1.07559
1.24526
1.4261
1.61635
1.81212
2.00752
2.19502
2.3673
2.51849
2.64513
2.74637
2.82373
2.87989
2.91826
2.94312
2.95856
2.96842
2.97629
2.98537
2.99813
3.01683
3.04022
3.06207
3.07323
3.06409
3.02719
2.9592
2.86155
2.73986
2.60266
2.46037
2.32167
2.19232
2.07765
1.98225
1.90898
1.8587
1.83046
1.82335
1.83126
1.84628
1.86069
1.8683
1.86535
1.85066
1.82518
1.79102
1.7506
1.70636
1.65985
1.61182
1.56265
1.51247
1.46128
1.40908
1.35599
1.30242
1.24927
1.19817
1.15149
1.11183
1.08169
1.0628
1.05568
1.05944
1.07196
1.0903
1.11142
1.13285
1.15329
1.17273
1.19226
1.2139
1.2403
1.27506
1.32558
1.41236
1.57872
1.83057
2.10307
2.31507
2.39463
2.30622
2.06424
1.72622
1.37387
1.0963
0.931902
0.835003
0.827061
0.973405
1.20784
1.43318
1.55051
1.49326
1.25284
0.881833
0.472299
0.115389
-0.157638
-0.406558
0
0.967509
2.66714
5.21262
8.52266
12.1909
15.4697
17.4528
17.4325
15.2655
11.5156
7.24861
3.57436
1.18698
0.16057
0.0754515
0.136724
0.181056
0.213344
0.232664
0.241276
0.244141
0.247888
0.259476
0.283297
0.321574
0.37492
0.441927
0.519987
0.603855
0.686725
0.762364
0.826467
0.87758
0.917363
0.950134
0.981831
1.01866
1.06552
1.1246
1.19571
1.27703
1.36548
1.45663
1.54491
1.62475
1.69212
1.74515
1.78452
1.81342
1.83689
1.8609
1.89111
1.93183
1.98457
2.04816
2.12012
2.19726
2.27566
2.35116
2.41984
2.47825
2.52324
2.55172
2.561
2.54905
2.51427
2.45574
2.37376
2.27026
2.14908
2.01597
1.87813
1.7434
1.61906
1.51128
1.42436
1.36022
1.31831
1.29587
1.28853
1.29103
1.29813
1.30477
1.30695
1.30218
1.28966
1.27016
1.24579
1.21951
1.19459
1.174
1.15959
1.15182
1.15051
1.15474
1.16213
1.16895
1.1713
1.16607
1.15167
1.12856
1.09924
1.06774
1.03871
1.0164
1.00303
0.998942
1.00389
1.01679
1.03599
1.05979
1.0868
1.11631
1.14836
1.18369
1.22348
1.26911
1.32197
1.38351
1.45465
1.53419
1.61686
1.69236
1.74809
1.77162
1.75296
1.68652
1.57259
1.41786
1.23468
1.03914
0.847922
0.671605
0.512833
0.372523
0.252011
0.150767
0.0667551
-0.00302162
-0.061473
-0.111838
-0.15669
-0.197761
-0.236047
0
0.713004
2.09635
4.29941
7.26731
10.6175
13.6332
15.4537
15.4196
13.4037
9.92254
5.93835
2.44696
0.0852786
-1.0395
-1.24747
-1.1686
-1.09595
-1.03386
-0.985214
-0.950637
-0.928548
-0.915589
-0.9073
-0.89889
-0.886296
-0.866441
-0.837293
-0.798091
-0.749413
-0.692916
-0.630774
-0.565664
-0.501331
-0.443117
-0.395894
-0.363177
-0.345882
-0.341236
-0.342435
-0.339447
-0.320951
-0.27687
-0.202256
-0.100924
0.0225088
0.165043
0.323873
0.496655
0.682409
0.882068
1.09865
1.33697
1.60297
1.90275
2.24142
2.62213
3.04523
3.50794
4.02899
4.64538
5.29559
5.86825
6.28887
6.53878
6.64647
6.65685
6.59741
6.46278
6.22475
5.86442
5.38024
4.75799
3.98712
3.10605
2.17066
1.20777
0.226389
-0.764849
-1.75693
-2.74104
-3.69885
-4.57387
-5.31443
-5.89711
-6.30342
-6.53451
-6.61844
-6.59958
-6.51654
-6.38424
-6.19276
-5.94099
-5.64261
-5.3081
-4.94539
-4.56361
-4.16713
-3.7595
-3.36077
-3.00122
-2.7184
-2.55083
-2.52167
-2.62637
-2.83324
-3.0988
-3.39017
-3.69688
-4.0078
-4.3082
-4.59299
-4.86027
-5.10839
-5.33451
-5.53777
78
225
374
523
671
821
971
1121
1272
1420
1567
1716
1864
2009
2155
2304
2454
2601
2752
2904
3053
3201
3350
3496
3641
0
0
0
0
0
0
0
0
0
0
0
0
0
0
0
0
0
0
0
0
0
0
0
0
0
0
0
0
0
0
0
0
0
0
0
0
0
0
0
0
0
0
0
0
0
0
0
0
0
0
0
0
0
0
0
0
0
0
0
0
0
0
0
0
0
0
0
0
0
0
0
0
0
0
0
0
0
0
0
0
0
0
0
0
0
0
0
0
0
0
0
0
0
0
0
0
0
0
0
0
0
0
0
0
0
0
0
0
0
0
0
0
0
0
0
0
0
0
0
0
0
0
0
0
0
0
0
0
0
0
0
0
0
0
0
0
0
0
0
0
0
0
0
0
0
0
0
0
0
0
0
0
0
0
0
0
0
0
0
0
0
0
0
0
0
0
0
0
0
0
0
0
0
0
0
0
0
0
0
0
0
0
0
0
0
0
0
0
0
0
0
0
0
0
0
0
0
0
0
0
0
0
0
0
0
0
0
0
0
0
0
0
0
0
0
0
0
0
0
0
0
0
0
0
0
0
0
0
0
0
0
0
0
0
0
0
0
0
0
0
0
0
0
0
0
0
0
0
0
0
0
0
0
0
0
0
0
0
0
0
0
0
0
0
0
0
0
0
0
0
0
0
0
0
0
0
0
0
0
0
0
0
0
0
0
0
0
0
0
0
0
0
0
0
0
0
0
0
0
0
0
0
0
0
0
0
0
0
0
0
0
0
0
0
0
0
0
0
0
0
0
0
0
0
0
0
0
0
0
0
0
0
0
0
0
0
0
0
0
0
0
0
0
0
0
0
0
0
0
0
0
0
0
0
0
0
0
0
0
0
0
0
0
0
0
0
0
0
0
0
0
0
0
0
0
0
0
0
0
0
0
0
0
0
0
0
0
0
0
0
0
0
0
0
0
0
0
0
0
0
0
0
0
0
0
0
0
0
0
0
0
0
0
0
0
0
0
0
0
0
0
0
0
0
0
0
0
0
0
0
0
0
0
0
0
0
0
0
0
0
0
0
0
0
0
0
0
0
0
0
0
0
0
0
0
0
0
0
0
0
0
0
0
0
0
0
0
0
0
0
0
0
0
0
0
0
0
0
0
0
0
0
0
0
0
0
0
0
0
0
0
0
0
0
0
0
0
0
0
0
0
0
0
0
0
0
0
0
0
0
0
0
0
0
0
0
0
0
0
0
0
0
0
0
0
0
0
0
0
0
0
0
0
0
0
0
0
0
0
0
0
0
0
0
0
0
0
0
0
0
0
0
0
0
0
0
0
0
0
0
0
0
0
0
0
0
0
0
0
0
0
0
0
0
0
0
0
0
0
0
0
0
0
0
0
0
0
0
0
0
0
0
0
0
0
0
0
0
0
0
0
0
0
0
0
0
0
0
0
0
0
0
0
0
0
0
0
0
0
0
0
0
0
0
0
0
0
0
0
0
0
0
0
0
0
0
0
0
0
0
0
0
0
0
0
0
0
0
0
0
0
0
0
0
0
0
0
0
0
0
0
0
0
0
0
0
0
0
0
0
0
0
0
0
0
0
0
0
0
0
0
0
0
0
0
0
0
0
0
0
0
0
0
0
0
0
0
0
0
0
0
0
0
0
0
0
0
0
0
0
0
0
0
0
0
0
0
0
0
0
0
0
0
0
0
0
0
0
0
0
0
0
0
0
0
0
0
0
0
0
0
0
0
0
0
0
0
0
0
0
0
0
0
0
0
0
0
0
0
0
0
0
0
0
0
0
0
0
0
0
0
0
0
0
0
0
0
0
0
0
0
0
0
0
0
0
0
0
0
0
0
0
0
0
0
0
0
0
0
0
0
0
0
0
0
0
0
0
0
0
0
0
0
0
0
0
0
0
0
0
0
0
0
0
0
0
0
0
0
0
0
0
0
0
0
0
0
0
0
0
0
0
0
0
0
0
0
0
0
0
0
0
0
0
0
0
0
0
0
0
0
0
0
0
0
0
0
0
0
0
0
0
0
0
0
0
0
0
0
0
0
0
0
0
0
0
0
0
0
0
0
0
0
0
0
0
0
0
0
0
0
0
0
0
0
0
0
0
0
0
0
0
0
0
0
0
0
0
0
0
0
0
0
0
0
0
0
0
0
0
0
0
0
0
0
0
0
0
0
0
0
0
0
0
0
0
0
0
0
0
0
0
0
0
0
0
0
0
0
0
0
0
0
0
0
0
0
0
0
0
0
0
0
0
0
0
0
0
0
0
0
0
0
0
0
0
0
0
0
0
0
0
0
0
0
0
0
0
0
0
0
0
0
0
0
0
0
0
0
0
0
0
0
0
0
0
0
0
0
0
0
0
0
0
0
0
0
0
0
0
0
0
0
0
0
0
0
0
0
0
0
0
0
0
0
0
0
0
0
0
0
0
0
0
0
0
0
0
0
0
0
0
0
0
0
0
0
0
0
0
0
0
0
0
0
0
0
0
0
0
0
0
0
0
0
0
0
0
0
0
0
0
0
0
0
0
0
0
0
0
0
0
0
0
0
0
0
0
0
0
0
0
0
0
0
0
0
0
0
0
0
0
0
0
0
0
0
0
0
0
0
0
0
0
0
0
0
0
0
0
0
0
0
0
0
0
0
0
0
0
0
0
0
0
0
0
0
0
0
0
0
0
0
0
0
0
0
0
0
0
0
0
0
0
0
0
0
0
0
0
0
0
0
0
0
0
0
0
0
0
0
0
0
0
0
0
0
0
0
0
0
0
0
0
0
0
0
0
0
0
0
0
0
0
0
0
0
0
0
0
0
0
0
0
0
0
0
0
0
0
0
0
0
0
0
0
0
0
0
0
0
0
0
0
0
0
0
0
0
0
0
0
0
0
0
0
0
0
0
0
0
0
0
0
0
0
0
0
0
0
0
0
0
0
0
0
0
0
0
0
0
0
0
0
0
0
0
0
0
0
0
0
0
0
0
0
0
0
0
0
0
0
0
0
0
0
0
0
0
0
0
0
0
0
0
0
0
0
0
0
0
0
0
0
0
0
0
0
0
0
0
0
0
0
0
0
0
0
0
0
0
0
0
0
0
0
0
0
0
0
0
0
0
0
0
0
0
0
0
0
0
0
0
0
0
0
0
0
0
0
0
0
0
0
0
0
0
0
0
0
0
0
0
0
0
0
0
0
0
0
0
0
0
0
0
0
0
0
0
0
0
0
0
0
0
0
0
0
0
0
0
0
0
0
0
0
0
0
0
0
0
0
0
0
0
0
0
0
0
0
0
0
0
0
0
0
0
0
0
0
0
0
0
0
0
0
0
0
0
0
0
0
0
0
0
0
0
0
0
0
0
0
0
0
0
0
0
0
0
0
0
0
0
0
0
0
0
0
0
0
0
0
0
0
0
0
0
0
0
0
0
0
0
0
0
0
0
0
0
0
0
0
0
0
0
0
0
0
0
0
0
0
0
0
0
0
0
0
0
0
0
0
0
0
0
0
0
0
0
0
0
0
0
0
0
0
0
0
0
0
0
0
0
0
0
0
0
0
0
0
0
0
0
0
0
0
0
0
0
0
0
0
0
0
0
0
0
0
0
0
0
0
0
0
0
0
0
0
0
0
0
0
0
0
0
0
0
0
0
0
0
0
0
0
0
0
0
0
0
0
0
0
0
0
0
0
0
0
0
0
0
0
0
0
0
0
0
0
0
0
0
0
0
0
0
0
0
0
0
0
0
0
0
0
0
0
0
0
0
0
0
0
0
0
0
0
0
0
0
0
0
0
0
0
0
0
0
0
0
0
0
0
0
0
0
0
0
0
0
0
0
0
0
0
0
0
0
0
0
0
0
0
0
0
0
0
0
0
0
0
0
0
0
0
0
0
0
0
0
0
0
0
0
0
0
0
0
0
0
0
0
0
0
0
0
0
0
0
0
0
0
0
0
0
0
0
0
0
0
0
0
0
0
0
0
0
0
0
0
0
0
0
0
0
0
0
0
0
0
0
0
0
0
0
0
0
0
0
0
0
0
0
0
0
0
0
0
0
0
0
0
0
0
0
0
0
0
0
0
0
0
0
0
0
0
0
0
0
0
0
0
0
0
0
0
0
0
0
0
0
0
0
0
0
0
0
0
0
0
0
0
0
0
0
0
0
0
0
0
0
0
0
0
0
0
0
0
0
0
0
0
0
0
0
0
0
0
0
0
0
0
0
0
0
0
0
0
0
0
0
0
0
0
0
0
0
0
0
0
0
0
0
0
0
0
0
0
0
0
0
0
0
0
0
0
0
0
0
0
0
0
0
0
0
0
0
0
0
0
0
0
0
0
0
0
0
0
0
0
0
0
0
0
0
0
0
0
0
0
0
0
0
0
0
0
0
0
0
0
0
0
0
0
0
0
0
0
0
0
0
0
0
0
0
0
0
0
0
0
0
0
0
0
0
0
0
0
0
0
0
0
0
0
0
0
0
0
0
0
0
0
0
0
0
0
0
0
0
0
0
0
0
0
0
0
0
0
0
0
0
0
0
0
0
0
0
0
0
0
0
0
0
0
0
0
0
0
0
0
0
0
0
0
0
0
0
0
0
0
0
0
0
0
0
0
0
0
0
0
0
0
0
0
0
0
0
0
0
0
0
0
0
0
0
0
0
0
0
0
0
0
0
0
0
0
0
0
0
0
0
0
0
0
0
0
0
0
0
0
0
0
0
0
0
0
0
0
0
0
0
0
0
0
0
0
0
0
0
0
0
0
0
0
0
0
0
0
0
0
0
0
0
0
0
0
0
0
0
0
0
0
0
0
0
0
0
0
0
0
0
0
0
0
0
0
0
0
0
0
0
0
0
0
0
0
0
0
0
0
0
0
0
0
0
0
0
0
0
0
0
0
0
0
0
0
0
0
0
0
0
0
0
0
0
0
0
0
0
0
0
0
0
0
0
0
0
0
0
0
0
0
0
0
0
0
0
0
0
0
0
0
0
0
0
0
0
0
0
0
0
0
0
0
0
0
0
0
0
0
0
0
0
0
0
0
0
0
0
0
0
0
0
0
0
0
0
0
0
0
0
0
0
0
0
0
0
0
0
0
0
0
0
0
0
0
0
0
0
0
0
0
0
0
0
0
0
0
0
0
0
0
0
0
0
0
0
0
0
0
0
0
0
0
0
0
0
0
0
0
0
0
0
0
0
0
0
0
0
0
0
0
0
0
0
0
0
0
0
0
0
0
0
0
0
0
0
0
0
0
0
0
0
0
0
0
0
0
0
0
0
0
0
0
0
0
0
0
0
0
0
0
0
0
0
0
0
0
0
0
0
0
0
0
0
0
0
0
0
0
0
0
0
0
0
0
0
0
0
0
0
0
0
0
0
0
0
0
0
0
0
0
0
0
0
0
0
0
0
0
0
0
0
0
0
0
0
0
0
0
0
0
0
0
0
0
0
0
0
0
0
0
0
0
0
0
0
0
0
0
0
0
0
0
0
0
0
0
0
0
0
0
0
0
0
0
0
0
0
0
0
0
0
0
0
0
0
0
0
0
0
0
0
0
0
0
0
0
0
0
0
0
0
0
0
0
0
0
0
0
0
0
0
0
0
0
0
0
0
0
0
0
0
0
0
0
0
0
0
0
0
0
0
0
0
0
0
0
0
0
0
0
0
0
0
0
0
0
0
0
0
0
0
0
0
0
0
0
0
0
0
0
0
0
0
0
0
0
0
0
0
0
0
0
0
0
0
0
0
0
0
0
0
0
0
0
0
0
0
0
0
0
0
0
0
0
0
0
0
0
0
0
0
0
0
0
0
0
0
0
0
0
0
0
0
0
0
0
0
0
0
0
0
0
0
0
0
0
0
0
0
0
0
0
0
0
0
0
0
0
0
0
0
0
0
0
0
0
0
0
0
0
0
0
0
0
0
0
0
0
0
0
0
0
0
0
0
0
0
0
0
0
0
0
0
0
0
0
0
0
0
0
0
0
0
0
0
0
0
0
0
0
0
0
0
0
0
0
0
0
0
0
0
0
0
0
0
0
0
0
0
0
0
0
0
0
0
0
0
0
0
0
0
0
0
0
0
0
0
0
0
0
0
0
0
0
0
0
0
0
0
0
0
0
0
0
0
0
0
0
0
0
0
0
0
0
0
0
0
0
0
0
0
0
0
0
0
0
0
0
0
0
0
0
0
0
0
0
0
0
0
0
0
0
0
0
0
0
0
0
0
0
0
0
0
0
0
0
0
0
0
0
0
0
0
0
0
0
0
0
0
0
0
0
0
0
0
0
0
0
0
0
0
0
0
0
0
0
0
0
0
0
0
0
0
0
0
0
0
0
0
0
0
0
0
0
0
0
0
0
0
0
0
0
0
0
0
0
0
0
0
0
0
0
0
0
0
0
0
0
0
0
0
0
0
0
0
0
0
0
0
0
0
0
0
0
0
0
0
0
0
0
0
0
0
0
0
0
0
0
0
0
0
0
0
0
0
0
0
0
0
0
0
0
0
0
0
0
0
0
0
0
0
0
0
0
0
0
0
0
0
0
0
0
0
0
0
0
0
0
0
0
0
0
0
0
0
0
0
0
0
0
0
0
0
0
0
0
0
0
0
0
0
0
0
0
0
0
0
0
0
0
0
0
0
0
0
0
0
0
0
0
0
0
0
0
0
0
0
0
0
0
0
0
0
0
0
0
0
0
0
0
0
0
0
0
0
0
0
0
0
0
0
0
0
0
0
0
0
0
0
0
0
0
0
0
0
0
0
0
0
0
0
0
0
0
0
0
0
0
0
0
0
0
0
0
0
0
0
0
0
0
0
0
0
0
0
0
0
0
0
0
0
0
0
0
0
0
0
0
0
0
0
0
0
0
0
0
0
0
0
0
0
0
0
0
0
0
0
0
0
0
0
0
0
0
0
0
0
0
0
0
0
0
0
0
0
0
0
0
0
0
0
0
0
0
0
0
0
0
0
0
0
0
0
0
0
0
0
0
0
0
0
0
0
0
0
0
0
0
0
0
0
0
0
0
0
0
0
0
0
0
0
0
0
0
0
0
0
0
0
0
0
0
0
0
0
0
0
0
0
0
0
0
0
0
0
0
0
0
0
0
0
0
0
0
0
0
0
0
0
0
0
0
0
0
0
0
0
0
0
0
0
0
0
0
0
0
0
0
0
0
0
0
0
0
0
0
0
0
0
0
0
0
0
0
0
0
0
0
0
0
0
0
0
0
0
0
0
0
0
0
0
0
0
0
0
0
0
0
0
0
0
0
0
0
0
0
0
0
0
0
0
0
0
0
0
0
0
0
0
0
0
0
0
0
0
0
0
0
0
0
0
0
0
0
0
0
0
0
0
0
0
0
0
0
0
0
0
0
0
0
0
0
0
0
0
0
0
0
0
0
0
0
0
0
0
0
0
0
0
0
0
0
0
0
0
0
0
0
0
0
0
0
0
0
0
0
0
0
0
0
0
0
0
0
0
0
0
0
0
0
0
0
0
0
0
0
0
0
0
0
0
0
0
0
0
0
0
0
0
0
0
0
0
0
0
0
0
0
0
0
0
0
0
0
0
0
0
0
0
0
0
0
0
0
0
0
0
0
0
0
0
0
0
0
0
0
0
0
0
0
0
0
0
0
0
0
0
0
0
0
0
0
0
0
0
0
0
0
0
0
0
0
0
0
0
0
0
0
0
0
0
0
0
0
0
0
0
0
0
0
0
0
0
0
0
0
0
0
0
0
0
0
0
0
0
0
0
0
0
0
0
0
0
0
0
0
0
0
0
0
0
0
0
0
0
0
0
0
0
0
0
0
0
0
0
0
0
0
0
0
0
0
0
0
0
0
0
0
0
0
0
0
0
0
0
0
0
0
0
0
0
0
0
0
0
0
0
0
0
0
0
0
0
0
0
0
0
0
0
0
0
0
0
0
0
0
0
0
0
0
0
0
0
0
0
0
0
0
0
0
0
0
0
0
0
0
0
0
0
0
0
0
0
0
0
0
0
0
0
0
0
0
0
0
0
0
0
0
0
0
0
0
0
0
0
0
0
0
0
0
0
0
0
0
0
0
0
0
0
0
0
0
0
0
0
0
0
0
0
0
0
0
0
0
0
0
0
0
0
0
0
0
0
0
0
0
0
0
0
0
0
0
0
0
0
0
0
0
0
0
0
0
0
0
0
0
0
0
0
0
0
0
0
0
0
0
0
0
0
0
0
0
0
0
0
0
0
0
0
0
0
0
0
0
0
0
0
0
0
0
0
0
0
0
0
0
0
0
0
0
0
0
0
0
0
0
0
0
0
0
0
0
0
0
0
0
0
0
0
0
0
0
0
0
0
0
0
0
0
0
0
0
0
0
0
0
0
0
0
0
0
0
0
0
0
0
0
0
0
0
0
0
0
0
0
0
0
0
0
0
0
0
0
0
0
0
0
0
0
0
0
0
0
0
0
0
0
0
0
0
0
0
0
0
0
0
0
