-1.18785
-1.11219
-1.02464
-0.928095
-0.826008
-0.72179
-0.618369
-0.517989
-0.422247
-0.332444
-0.250005
-0.176433
-0.113246
-0.0621315
-0.0246475
-0.00185013
0.00606842
0
-0.0499733
-0.109001
-0.173548
-0.240116
-0.305824
-0.36866
-0.427748
-0.483406
-0.534013
-0.548501
-0.187315
0.942439
2.99266
5.64957
8.15977
9.63113
9.45965
7.63756
4.76189
1.74737
-0.581669
-1.79793
-1.94375
-1.40237
-0.988522
-0.628088
-0.345102
-0.146817
0.0107925
0.143468
0.259583
0.366968
0.471846
0.578166
0.687547
0.799696
0.912958
1.02495
1.1332
1.23576
1.33149
1.42027
1.50292
1.58095
1.65621
1.73046
1.805
1.88049
1.95681
2.03316
2.10823
2.1804
2.24798
2.30923
2.36216
2.40398
2.43145
2.44252
2.43593
2.412
2.37327
2.32463
2.27268
2.22433
2.18518
2.1578
2.14193
2.13444
2.1307
2.1261
2.11734
2.10287
2.08248
2.05619
2.02297
1.97956
1.92099
1.8414
1.73577
1.60173
1.44079
1.25837
1.06278
0.86324
0.667705
0.480473
0.303862
0.138609
-0.0155685
-0.159074
-0.291132
-0.410277
-0.514241
-0.600435
-0.666801
-0.712514
-0.73844
-0.747197
-0.742912
-0.730809
-0.716693
-0.706648
-0.706471
-0.72083
-0.752693
-0.802782
-0.869267
-0.947861
-1.03239
-1.11581
-1.1914
-1.25425
-1.30144
-1.33154
-1.34445
-1.34085
-1.32153
-1.28755
-1.23943
-1.1776
-1.10304
-1.01775
-0.924753
-0.827806
-0.731825
-0.643109
-0.567192
-0.507875
-0.466327
-0.440646
-0.42607
-0.415831
-0.402461
-0.379128
-0.341345
-0.288158
-0.2196
-0.136143
-0.0390854
0.06978
0.18801
0.311704
0.433551
0.541957
0.624556
0.67014
0.671223
0.626154
0.539949
0.423492
0.291391
0.159346
0.0406219
-0.0587158
-0.13528
-0.185487
-0.208208
-0.204948
-0.179805
-0.139024
-0.0902237
-0.0413589
0
-0.061113
-0.0950394
0.542413
2.02694
4.07593
6.04484
7.24267
7.23721
5.98088
3.76893
1.12194
-1.35991
-3.17578
-4.09385
-4.13738
-3.84064
-3.36226
-2.85356
-2.3679
-1.96895
-1.73875
-1.60931
-1.52892
-1.47639
-1.44315
-1.42671
-1.42479
-1.43486
-1.45406
-1.47915
-1.50647
-1.53217
-1.55264
-1.565
-1.56734
-1.55912
-1.5412
-1.51509
-1.48198
-1.44128
-1.38969
-1.32091
-1.22623
-1.09604
-0.922063
-0.699786
-0.430399
-0.122978
0.213255
0.56084
0.902649
1.22592
1.52507
1.80228
2.06576
2.32623
2.5963
2.88143
3.15892
3.39198
3.54799
3.61376
3.60146
3.54403
3.48288
3.4529
3.46452
3.51211
3.57354
3.61761
3.61519
3.54955
3.4219
3.25008
3.06105
2.8809
2.72342
2.58573
2.46364
2.35607
2.26146
2.17812
2.10446
2.03923
1.98071
1.92717
1.8773
1.83078
1.78865
1.75332
1.72807
1.71606
1.71943
1.73978
1.77396
1.81534
1.8559
1.88798
1.90584
1.90656
1.88998
1.85817
1.81451
1.76347
1.70904
1.65439
1.60209
1.55424
1.51235
1.47725
1.4492
1.42774
1.41182
1.40051
1.39341
1.39117
1.39544
1.40862
1.43326
1.47267
1.5291
1.5992
1.67219
1.73536
1.77817
1.79606
1.79231
1.77716
1.76438
1.76657
1.79022
1.83197
1.88623
1.94396
1.99495
2.03028
2.04388
2.0333
1.99933
1.945
1.87461
1.79235
1.70141
1.60407
1.50206
1.39669
1.28907
1.18037
1.07161
0.963367
0.855399
0.74649
0.634605
0.517279
0.392148
0.255359
0
0.0255234
0.774042
2.37984
4.6447
7.04175
8.86008
9.45677
8.51751
6.20768
3.12508
0.0652863
-2.28532
-3.5793
-3.70232
-3.32761
-2.60983
-1.80006
-1.07478
-0.60923
-0.408371
-0.284335
-0.19006
-0.120828
-0.0762901
-0.0560028
-0.0590912
-0.0817741
-0.120334
-0.169203
-0.221056
-0.267768
-0.301881
-0.318439
-0.312882
-0.286453
-0.247059
-0.205007
-0.169952
-0.148222
-0.141399
-0.146468
-0.157345
-0.167052
-0.170222
-0.164857
-0.150249
-0.126008
-0.0922256
-0.0489876
0.00393677
0.0671295
0.141344
0.227159
0.324728
0.433424
0.551393
0.675462
0.80122
0.923028
1.03457
1.13045
1.20695
1.26281
1.29953
1.32109
1.3329
1.34034
1.34714
1.35431
1.36017
1.36112
1.35255
1.33002
1.2902
1.23159
1.15484
1.06274
0.960785
0.854897
0.751177
0.655801
0.574327
0.511124
0.468643
0.446838
0.443357
0.453984
0.473251
0.495121
0.513614
0.523311
0.519753
0.499795
0.462048
0.407158
0.337975
0.259531
0.178722
0.104351
0.0456085
0.0105129
0.00446281
0.0324856
0.0969276
0.190055
0.296593
0.400449
0.488394
0.552552
0.591067
0.606945
0.605723
0.592982
0.573098
0.548815
0.521774
0.493542
0.46648
0.444036
0.430424
0.430222
0.449623
0.495062
0.564298
0.643674
0.716092
0.766502
0.786726
0.777703
0.748414
0.712149
0.681707
0.663828
0.656942
0.657277
0.660788
0.662125
0.654552
0.631773
0.589218
0.525228
0.441801
0.344615
0.242221
0.144547
0.0610619
-0.00288506
-0.0443033
-0.062199
-0.0570759
-0.0326069
0
0.0123075
0.00507088
-0.0313995
-0.101387
-0.203184
-0.419304
-0.538263
0.0095583
1.42789
3.60572
6.06094
8.05492
8.86071
8.06931
5.78314
2.5938
-0.648812
-3.16404
-4.51321
-4.69319
-4.07966
-3.14972
-2.30336
-1.72912
-1.42734
-1.3086
-1.23736
-1.17947
-1.12942
-1.08545
-1.04611
-1.00954
-0.973305
-0.934535
-0.890328
-0.838273
-0.777094
-0.705975
-0.62611
-0.544448
-0.469403
-0.40819
-0.364313
-0.336218
-0.317678
-0.299699
-0.273149
-0.23122
-0.173937
-0.103129
-0.0206524
0.0705742
0.166768
0.263292
0.354379
0.434696
0.5004
0.550116
0.585611
0.61184
0.636225
0.667266
0.712817
0.777886
0.862904
0.965533
1.0817
1.20582
1.33049
1.44628
1.54399
1.61582
1.65603
1.66126
1.63054
1.56504
1.46766
1.34261
1.19499
1.03137
0.857498
0.67785
0.496024
0.315003
0.137626
-0.0311687
-0.182169
-0.305284
-0.38814
-0.419461
-0.393659
-0.314621
-0.196736
-0.062352
0.063662
0.161884
0.224016
0.248241
0.240978
0.214236
0.181817
0.155607
0.141868
0.140666
0.150315
0.169091
0.195091
0.22664
0.262576
0.302191
0.344926
0.390066
0.436423
0.482108
0.525191
0.564449
0.599995
0.633473
0.66766
0.705542
0.749149
0.798589
0.851548
0.902904
0.94553
0.971255
0.972939
0.945413
0.886309
0.796429
0.679683
0.542531
0.392958
0.239085
0.0877052
-0.0572891
-0.194942
-0.325365
-0.449395
-0.567221
-0.675985
-0.769438
-0.838687
-0.873995
-0.868423
-0.821046
-0.738302
-0.632821
-0.52007
-0.414111
-0.321711
-0.243996
-0.180386
-0.128106
-0.0837509
-0.0450432
-0.0116554
0.0142014
0.0282532
0.0251732
0
-0.0491135
-0.124629
-0.224823
-0.34552
-0.480704
-0.65594
-0.631684
-0.0867783
1.23392
3.35568
5.91193
8.17755
9.34039
8.88738
6.86859
3.86852
0.708991
-1.91543
-3.65142
-4.47509
-4.53861
-4.08674
-3.33424
-2.51506
-1.83797
-1.44103
-1.29785
-1.20336
-1.11952
-1.04095
-0.967039
-0.898154
-0.834895
-0.777973
-0.728097
-0.685506
-0.649902
-0.620198
-0.594337
-0.56927
-0.541157
-0.505824
-0.459412
-0.399139
-0.3242
-0.235594
-0.135719
-0.028672
0.079882
0.184418
0.280577
0.365881
0.439963
0.504327
0.561835
0.616091
0.670942
0.729912
0.796198
0.873454
0.968741
1.08808
1.21552
1.32338
1.38197
1.37298
1.29983
1.18867
1.07859
1.00562
0.988461
1.00482
1.04062
1.08182
1.11352
1.12257
1.0993
1.03821
0.938139
0.801889
0.635619
0.448542
0.250967
0.0524124
-0.139874
-0.321131
-0.487866
-0.637058
-0.765854
-0.871629
-0.953345
-1.01078
-1.04463
-1.05677
-1.05033
-1.02956
-0.999348
-0.964486
-0.928981
-0.895427
-0.865029
-0.83783
-0.813054
-0.789529
-0.766052
-0.741615
-0.715477
-0.687162
-0.656489
-0.623659
-0.589348
-0.554977
-0.522798
-0.495358
-0.474773
-0.46186
-0.455461
-0.452235
-0.447092
-0.434253
-0.40864
-0.365766
-0.302662
-0.223817
-0.142231
-0.0730026
-0.0288574
-0.0162598
-0.033287
-0.0698868
-0.110475
-0.138112
-0.139322
-0.111623
-0.0597198
0.0109772
0.0960075
0.191058
0.291917
0.395019
0.497583
0.597404
0.692393
0.779952
0.856399
0.917338
0.958464
0.976083
0.968111
0.934769
0.878654
0.804153
0.716393
0.620191
0.519733
0.418193
0.318098
0.222433
0.135778
0.063369
0.0104767
-0.0187302
-0.0224754
0
0.0707993
0.153587
0.238377
0.315735
0.291136
0.185955
0.754535
2.35514
4.92452
7.85716
10.1732
10.9411
9.73176
6.83995
3.14013
-0.322496
-2.76008
-3.87245
-3.80966
-3.04548
-2.05254
-1.21197
-0.70154
-0.486773
-0.281029
-0.0811012
0.107191
0.280302
0.43218
0.559014
0.65979
0.736135
0.791568
0.830478
0.857211
0.876399
0.891122
0.903374
0.914748
0.926561
0.939962
0.956016
0.975877
1.001
1.03301
1.07359
1.12427
1.18602
1.259
1.34224
1.43368
1.53029
1.62841
1.72405
1.81343
1.89355
1.96261
2.02025
2.06768
2.10752
2.14352
2.18004
2.22134
2.27072
2.32991
2.39967
2.47936
2.56563
2.65237
2.73271
2.80035
2.85052
2.88042
2.889
2.87625
2.84238
2.78743
2.71319
2.62176
2.51481
2.39445
2.26391
2.12718
1.98849
1.85174
1.72014
1.59617
1.48174
1.37847
1.28785
1.21117
1.14936
1.10259
1.06983
1.04845
1.03445
1.0233
1.01085
0.994088
0.971635
0.943772
0.912004
0.878396
0.844939
0.81319
0.784258
0.759189
0.739462
0.727284
0.725483
0.73693
0.763677
0.806982
0.865516
0.934476
1.00578
1.06972
1.11697
1.14029
1.13591
1.10438
1.05066
0.983403
0.913421
0.851343
0.804409
0.7807
0.780865
0.79683
0.817176
0.831467
0.833993
0.825492
0.812303
0.803507
0.80735
0.82582
0.85644
0.897879
0.947438
1.0021
1.05962
1.11919
1.18144
1.24794
1.32036
1.40077
1.48677
1.56827
1.63127
1.66211
1.65218
1.60119
1.51767
1.41657
1.3147
1.22486
1.14929
1.0856
1.03125
0.979323
0.920447
0.844756
0.743786
0.61203
0.447822
0.253419
0.034363
-0.201623
-0.456801
-0.423548
0
1.069
2.99596
5.70065
8.64641
10.9286
11.6449
10.3556
7.34456
3.50025
-0.10718
-2.68665
-3.9642
-4.12328
-3.57325
-2.70791
-1.80024
-1.00222
-0.394135
-0.0493729
0.0675278
0.147976
0.216934
0.278452
0.332404
0.377027
0.40934
0.425296
0.421158
0.394196
0.343889
0.272913
0.186495
0.0943958
0.0104015
-0.052565
-0.0857685
-0.0834133
-0.0512657
-0.000875092
0.0548309
0.106028
0.148762
0.185084
0.220792
0.262013
0.311649
0.367781
0.427672
0.487826
0.544812
0.59633
0.641879
0.682872
0.722213
0.763513
0.810173
0.864405
0.926818
0.996624
1.07185
1.14943
1.22535
1.29463
1.35176
1.39157
1.4094
1.40152
1.36561
1.30116
1.20976
1.09519
0.963239
0.821379
0.677498
0.53855
0.410334
0.29737
0.202306
0.125829
0.0667683
0.0223934
-0.0111797
-0.0384636
-0.0643677
-0.0935902
-0.130004
-0.176133
-0.232727
-0.298558
-0.370554
-0.444303
-0.514878
-0.577876
-0.629679
-0.668046
-0.694207
-0.711487
-0.724159
-0.73632
-0.751069
-0.770227
-0.794534
-0.8241
-0.858766
-0.897818
-0.940394
-0.984921
-1.02883
-1.06868
-1.10068
-1.12154
-1.12864
-1.11991
-1.098
-1.07131
-1.04942
-1.04003
-1.04651
-1.06709
-1.09586
-1.12535
-1.14957
-1.16678
-1.17997
-1.19367
-1.21396
-1.24715
-1.29854
-1.37152
-1.46703
-1.58355
-1.71712
-1.86223
-2.01326
-2.16501
-2.31309
-2.4539
-2.58285
-2.69224
-2.77307
-2.81767
-2.81853
-2.77115
-2.67697
-2.54487
-2.39007
-2.2308
-2.08409
-1.95829
-1.85492
-1.77861
-1.72875
-1.70199
-1.69242
-1.69169
-1.68929
-1.67357
-1.63328
-1.55957
-1.44879
-1.30551
-1.13374
-0.93975
-0.731289
-0.516531
-0.30231
-0.0966961
-0.090667
0
0.688028
2.2655
4.65479
7.31567
9.39679
10.0881
8.99976
6.35483
2.88848
-0.476313
-2.99362
-4.31502
-4.48701
-3.86775
-2.84663
-1.78458
-0.933285
-0.479813
-0.49634
-0.539944
-0.579956
-0.606163
-0.610836
-0.590488
-0.548609
-0.492016
-0.425718
-0.354102
-0.280614
-0.207383
-0.135347
-0.064724
0.00444183
0.0719223
0.137197
0.199552
0.258343
0.313182
0.364012
0.41093
0.454291
0.494976
0.534396
0.574727
0.619005
0.670907
0.734139
0.811557
0.90426
1.01072
1.12679
1.24719
1.36587
1.47643
1.57312
1.65211
1.71178
1.75279
1.77783
1.79096
1.79686
1.79976
1.80255
1.80606
1.80772
1.80118
1.77772
1.72819
1.64492
1.52317
1.36148
1.16114
0.925171
0.657232
0.364482
0.0533281
-0.272082
-0.607686
-0.94855
-1.28897
-1.62282
-1.94409
-2.24735
-2.52818
-2.78331
-3.01055
-3.20854
-3.37644
-3.51383
-3.62082
-3.69809
-3.74672
-3.76819
-3.76503
-3.74176
-3.70646
-3.67122
-3.64865
-3.64924
-3.67954
-3.74099
-3.8297
-3.93741
-4.05331
-4.16622
-4.26754
-4.35354
-4.42293
-4.47388
-4.5052
-4.51613
-4.50595
-4.47367
-4.41782
-4.33629
-4.22651
-4.08593
-3.91258
-3.70559
-3.4659
-3.19713
-2.90007
-2.58207
-2.26962
-1.9895
-1.76073
-1.58842
-1.46256
-1.36251
-1.26545
-1.15511
-1.02765
-0.892157
-0.756178
-0.626408
-0.507988
-0.403493
-0.3129
-0.234372
-0.165472
-0.104705
-0.0518315
-0.00796423
0.0246893
0.0437686
0.0476905
0.0362583
0.0108146
-0.0260153
-0.0708296
-0.119832
-0.169749
-0.218172
-0.263421
-0.304491
-0.340994
-0.37299
-0.400749
-0.424492
-0.444307
-0.46001
-0.471173
-0.477073
-0.473247
-0.358507
0
0.772568
2.15264
4.14931
6.39536
8.19417
8.80645
7.8276
5.41611
2.22865
-0.886237
-3.23929
-4.50398
-4.70562
-4.11748
-3.06591
-1.87733
-0.824558
-0.120413
0.00221596
-0.0268796
-0.0738045
-0.127801
-0.176363
-0.207616
-0.213441
-0.195037
-0.156007
-0.0994539
-0.0280672
0.0548739
0.145556
0.239871
0.332469
0.414685
0.477322
0.511668
0.511887
0.477527
0.414906
0.336412
0.257619
0.193215
0.152153
0.132011
0.131856
0.149445
0.181622
0.22532
0.278125
0.338318
0.404552
0.475249
0.548028
0.619444
0.684611
0.73743
0.772382
0.785284
0.774385
0.74112
0.690209
0.628917
0.565498
0.507102
0.457283
0.414467
0.37444
0.329014
0.267056
0.17626
0.0450916
-0.13535
-0.376352
-0.764117
-1.3525
-1.98503
-2.49683
-2.7768
-2.79861
-2.61521
-2.32293
-2.01522
-1.75043
-1.53755
-1.35295
-1.18485
-1.02971
-0.88694
-0.757059
-0.641253
-0.541513
-0.46011
-0.398297
-0.356688
-0.334716
-0.330123
-0.338699
-0.354435
-0.37014
-0.378431
-0.373079
-0.350967
-0.31015
-0.251043
-0.176243
-0.0898682
0.00270119
0.0956585
0.183485
0.26165
0.327014
0.378008
0.414623
0.438203
0.451114
0.456297
0.456816
0.455416
0.454148
0.45412
0.455605
0.458243
0.461255
0.463799
0.465349
0.465997
0.466569
0.468493
0.4734
0.482559
0.496448
0.514025
0.532018
0.545545
0.549445
0.539742
0.514938
0.47672
0.42981
0.380979
0.337527
0.305152
0.286453
0.282641
0.292626
0.313379
0.340522
0.368999
0.393448
0.409021
0.412077
0.4006
0.374351
0.334641
0.283696
0.223763
0.155843
0.0800766
-0.0045784
-0.099424
-0.204817
-0.319223
-0.441959
-0.503909
0
1.16923
2.99915
5.38373
8.00749
10.2919
11.5214
11.154
9.14791
6.05599
2.78692
0.176253
-1.35609
-1.86054
-1.54714
-0.973443
-0.19164
0.677058
1.4318
1.8026
1.97986
2.09593
2.16451
2.1959
2.20273
2.19744
2.19044
2.18735
2.19032
2.20005
2.21647
2.23806
2.26273
2.28843
2.31369
2.3379
2.36138
2.38506
2.4101
2.43751
2.46789
2.50171
2.53951
2.58208
2.63065
2.68677
2.75211
2.82806
2.91508
3.0129
3.1205
3.23621
3.35714
3.47795
3.59155
3.69068
3.76918
3.82321
3.8522
3.85922
3.85054
3.83462
3.82058
3.81568
3.82372
3.84598
3.88283
3.93018
3.9788
4.01652
4.03021
4.00804
3.94151
3.82737
3.66877
3.47562
3.26375
3.05304
2.86247
2.72769
2.74871
2.97285
3.29472
3.57722
3.71153
3.65974
3.46625
3.23386
3.07298
3.04527
3.09482
3.16142
3.22297
3.26163
3.26777
3.24115
3.18883
3.12113
3.04715
2.97179
2.89536
2.81624
2.73203
2.64007
2.53824
2.42548
2.30223
2.17062
2.03437
1.8985
1.76866
1.65028
1.54786
1.46467
1.40134
1.35297
1.3092
1.25762
1.18621
1.08583
0.951877
0.785056
0.590977
0.378991
0.160794
-0.0532852
-0.255615
-0.439923
-0.600847
-0.734305
-0.841942
-0.927188
-0.993581
-1.04316
-1.07525
-1.08716
-1.07511
-1.03628
-0.970671
-0.881664
-0.775945
-0.664964
-0.560085
-0.469682
-0.397244
-0.341138
-0.296059
-0.255559
-0.2147
-0.171594
-0.128769
-0.0915298
-0.0653915
-0.0537567
-0.0569809
-0.0730331
-0.0991608
-0.133524
-0.174825
-0.222723
-0.277515
-0.338638
-0.410522
-0.420665
0
1.01031
2.6914
4.88935
7.14222
8.76067
9.09571
7.86015
5.30475
2.12263
-0.862029
-3.03186
-4.16142
-4.22442
-3.91259
-3.46767
-2.98746
-2.56725
-2.29286
-2.13768
-2.03837
-1.96975
-1.92731
-1.90267
-1.8843
-1.85884
-1.81254
-1.73441
-1.61915
-1.46266
-1.26039
-1.00975
-0.711259
-0.363658
0.049765
0.516029
0.972588
1.35613
1.62075
1.749
1.75328
1.66902
1.54311
1.42113
1.33653
1.29229
1.27854
1.28738
1.31567
1.36147
1.42271
1.49695
1.58205
1.67449
1.76859
1.85928
1.94399
2.02411
2.10533
2.19635
2.30633
2.44174
2.60221
2.78545
2.9815
3.1692
3.3267
3.43727
3.49323
3.49667
3.45706
3.38684
3.2968
3.19397
3.08206
2.96216
2.83419
2.69895
2.55896
2.41846
2.28291
2.15804
2.04833
1.95706
1.88547
1.83265
1.79575
1.77075
1.75225
1.73371
1.70918
1.67458
1.62862
1.57332
1.51368
1.45667
1.40987
1.38436
1.38513
1.39878
1.4009
1.36228
1.25619
1.06431
0.780135
0.409916
-0.0282166
-0.504683
-0.987025
-1.45434
-1.8897
-2.2756
-2.59624
-2.84441
-3.02025
-3.12882
-3.17881
-3.18108
-3.14709
-3.08714
-3.00865
-2.91488
-2.80612
-2.68076
-2.53471
-2.36291
-2.16145
-1.9293
-1.66832
-1.38388
-1.08446
-0.781352
-0.48935
-0.222173
0.01008
0.202803
0.357629
0.481868
0.586875
0.685602
0.793922
0.940571
1.14873
1.38346
1.58562
1.69663
1.67784
1.5242
1.26856
0.974215
0.71537
0.547939
0.4496
0.380548
0.322239
0.262211
0.190313
0.100616
-0.00798416
-0.132536
-0.267715
-0.407726
-0.547995
-0.450245
0
1.07822
2.91782
5.31535
7.6979
9.29996
9.48202
8.03002
5.27313
1.95318
-1.08373
-3.21274
-4.21335
-4.24144
-3.68867
-2.91981
-2.1788
-1.55426
-1.04785
-0.716855
-0.55593
-0.454963
-0.385271
-0.338586
-0.313795
-0.309242
-0.322354
-0.34975
-0.387074
-0.42953
-0.471211
-0.505249
-0.525266
-0.526594
-0.507338
-0.467252
-0.412138
-0.351333
-0.29501
-0.251775
-0.226756
-0.220718
-0.230311
-0.249348
-0.27061
-0.287643
-0.296082
-0.294193
-0.281478
-0.257616
-0.222146
-0.174255
-0.113125
-0.0386978
0.0475685
0.142193
0.240403
0.33703
0.427441
0.508419
0.578456
0.63737
0.685002
0.719898
0.739811
0.740876
0.718346
0.668056
0.58792
0.478963
0.345538
0.194745
0.0352806
-0.123943
-0.276298
-0.417136
-0.542766
-0.650816
-0.740059
-0.810138
-0.861339
-0.894473
-0.9105
-0.910231
-0.8958
-0.872559
-0.847941
-0.829907
-0.825643
-0.840175
-0.875253
-0.928777
-0.994901
-1.06485
-1.12864
-1.17725
-1.20356
-1.20392
-1.17896
-1.13338
-1.07502
-1.01312
-0.956636
-0.912375
-0.885017
-0.876795
-0.887778
-0.916257
-0.958321
-1.01005
-1.0669
-1.12413
-1.17725
-1.2224
-1.25678
-1.27761
-1.28161
-1.26698
-1.23271
-1.17912
-1.10841
-1.02484
-0.934219
-0.842847
-0.756307
-0.677695
-0.608744
-0.549901
-0.50097
-0.46048
-0.426575
-0.397115
-0.369714
-0.341918
-0.31165
-0.277564
-0.239652
-0.200443
-0.163651
-0.132663
-0.109149
-0.0924965
-0.0804077
-0.0703949
-0.0613739
-0.0543823
-0.0521202
-0.0580048
-0.0747757
-0.103265
-0.141714
-0.185844
-0.229652
-0.266822
-0.292627
-0.304224
-0.300529
-0.282593
-0.25316
-0.216012
-0.175279
-0.135195
-0.193663
0
0.80051
2.39034
4.629
6.98029
8.65278
8.93074
7.53109
4.76794
1.41523
-1.64213
-3.75505
-4.68199
-4.51466
-3.74046
-2.73546
-1.88405
-1.41947
-1.32985
-1.25193
-1.17513
-1.09977
-1.02731
-0.959601
-0.898345
-0.844655
-0.79873
-0.759769
-0.726089
-0.695161
-0.663836
-0.628539
-0.585619
-0.531902
-0.465388
-0.385901
-0.295409
-0.198314
-0.0994347
-0.00353165
0.0853447
0.164542
0.233156
0.291997
0.343248
0.38996
0.435351
0.48228
0.532786
0.587842
0.647521
0.710912
0.776267
0.842228
0.908752
0.977531
1.05174
1.13504
1.23003
1.33992
1.46073
1.5802
1.6836
1.7587
1.7998
1.80853
1.79149
1.7558
1.70513
1.6408
1.56216
1.46609
1.35105
1.2183
1.07221
0.919695
0.7688
0.626339
0.496503
0.382394
0.28426
0.199255
0.123145
0.0516411
-0.0183891
-0.0881691
-0.156882
-0.222126
-0.280777
-0.330353
-0.369827
-0.399113
-0.419553
-0.434209
-0.447994
-0.466567
-0.495046
-0.536858
-0.59278
-0.660484
-0.73476
-0.808229
-0.872643
-0.920959
-0.948849
-0.955147
-0.942216
-0.914481
-0.876833
-0.83319
-0.785804
-0.735488
-0.682094
-0.626814
-0.573698
-0.529463
-0.502468
-0.501054
-0.531866
-0.59853
-0.700587
-0.832723
-0.98484
-1.14172
-1.28184
-1.38404
-1.43253
-1.42088
-1.35346
-1.24363
-1.10946
-0.968716
-0.833691
-0.70826
-0.593328
-0.488931
-0.39372
-0.305582
-0.222219
-0.141669
-0.0627266
0.0147179
0.089373
0.158604
0.21882
0.266144
0.297195
0.309808
0.30356
0.279983
0.24249
0.195994
0.146313
0.099231
0.0598038
0.031649
0.0161728
0.0123116
0.0180763
0.0305786
0.0463394
0.0618179
0.0739235
0.0803986
0.0792801
0.044191
0
0.406508
1.62512
3.66325
6.13619
8.34537
9.51569
9.10355
7.04528
3.82403
0.303793
-2.6081
-4.31625
-4.73419
-4.21229
-3.36815
-2.61233
-2.12516
-1.83887
-1.61021
-1.41796
-1.24618
-1.09453
-0.965643
-0.860676
-0.779407
-0.720874
-0.684522
-0.668312
-0.669675
-0.685404
-0.711285
-0.741925
-0.770986
-0.791845
-0.798548
-0.786748
-0.755227
-0.704823
-0.637653
-0.556945
-0.466497
-0.370165
-0.271539
-0.173906
-0.0803631
0.00604706
0.0823017
0.145557
0.193485
0.22464
0.238863
0.237867
0.225089
0.205385
0.184422
0.16782
0.160203
0.164349
0.180631
0.206889
0.238756
0.270609
0.296447
0.3108
0.309404
0.289313
0.249005
0.188881
0.110468
0.0158981
-0.0924958
-0.212483
-0.342124
-0.479926
-0.624486
-0.774307
-0.927456
-1.08124
-1.23204
-1.37552
-1.50719
-1.62321
-1.7211
-1.8003
-1.86227
-1.9101
-1.94789
-1.97985
-2.00929
-2.03808
-2.0665
-2.09337
-2.11675
-2.13472
-2.14623
-2.15147
-2.15189
-2.14944
-2.14562
-2.14088
-2.13422
-2.12326
-2.10484
-2.07585
-2.03409
-1.97899
-1.91146
-1.8336
-1.7481
-1.6577
-1.56473
-1.47113
-1.37864
-1.28921
-1.2057
-1.13155
-1.06994
-1.02315
-0.991776
-0.974303
-0.967259
-0.965901
-0.965138
-0.960363
-0.948314
-0.92706
-0.895282
-0.852615
-0.799757
-0.738625
-0.67217
-0.604905
-0.542281
-0.488821
-0.446606
-0.41424
-0.386784
-0.356873
-0.316759
-0.260714
-0.187222
-0.0994621
-0.00388031
0.0882263
0.165464
0.219383
0.246458
0.248424
0.231038
0.201859
0.167938
0.134245
0.102865
0.0741684
0.0477867
0.0231567
0
-0.0395721
-0.0766884
-0.110244
-0.139016
-0.1619
-0.178093
-0.187198
-0.186349
-0.0927841
0.278262
1.05164
2.42775
4.43811
6.77557
8.78181
9.67802
8.94366
6.61909
3.32751
-0.0059082
-2.56537
-3.94735
-4.21126
-3.71266
-2.90135
-2.03624
-1.23879
-0.577137
-0.244284
-0.0311951
0.139149
0.275697
0.378961
0.452474
0.502136
0.535264
0.55957
0.58227
0.609332
0.645204
0.692773
0.753442
0.82728
0.913231
1.00931
1.11284
1.22076
1.32995
1.4376
1.54158
1.64063
1.7344
1.82333
1.90839
1.99083
2.07203
2.15337
2.23634
2.32255
2.41371
2.51152
2.61736
2.73196
2.85497
2.98477
3.11838
3.25164
3.37964
3.49712
3.59914
3.68177
3.74237
3.77968
3.79373
3.78546
3.7563
3.70777
3.64126
3.55808
3.45976
3.34827
3.22649
3.09852
2.96971
2.8463
2.73482
2.64211
2.57642
2.54573
2.55052
2.57767
2.60565
2.61203
2.57881
2.49652
2.36647
2.20083
2.02036
1.85022
1.71256
1.61657
1.57861
1.62044
1.72298
1.83795
1.91578
1.92198
1.84834
1.71549
1.56503
1.44269
1.37815
1.36015
1.36391
1.37052
1.36291
1.33194
1.27915
1.21519
1.15514
1.11314
1.09477
1.09685
1.11691
1.15398
1.20701
1.27474
1.35568
1.44758
1.54453
1.63364
1.69831
1.722
1.69282
1.60802
1.47664
1.31883
1.16189
1.03389
0.950261
0.907072
0.900276
0.933231
1.00359
1.09558
1.18946
1.26709
1.31549
1.32889
1.30903
1.26364
1.20397
1.14187
1.08652
1.04203
1.00912
0.986479
0.971481
0.960468
0.948978
0.932361
0.906367
0.867691
0.81436
0.745978
0.663773
0.570479
0.470061
0.367355
0.267601
0.176434
0.0995438
0.041304
0.00473022
-0.00885162
0
0.0612579
0.1384
0.226067
0.320073
0.35374
0.605077
1.46378
3.08495
5.22456
7.28614
8.58057
8.61508
7.25265
4.73492
1.63146
-1.28484
-3.27752
-3.94393
-3.3393
-2.22989
-1.06889
-0.249394
0.0174011
0.00119476
-0.0357483
-0.0770981
-0.113461
-0.137152
-0.144124
-0.135974
-0.115465
-0.0851898
-0.0476135
-0.00562134
0.0382584
0.0825592
0.127339
0.174342
0.226698
0.288199
0.364143
0.461148
0.58042
0.710115
0.832782
0.93065
0.991275
1.01152
0.998541
0.967616
0.937776
0.92649
0.939952
0.975396
1.03153
1.10328
1.1813
1.25563
1.3181
1.3643
1.39461
1.41404
1.4312
1.45644
1.49903
1.56405
1.66522
1.82935
2.07517
2.36115
2.6253
2.80556
2.85912
2.77666
2.5855
2.33959
2.09957
1.90993
1.76156
1.63326
1.51461
1.40078
1.2884
1.17583
1.06362
0.954505
0.85284
0.763731
0.691921
0.641246
0.614761
0.612676
0.628511
0.65281
0.675904
0.690294
0.692416
0.683292
0.667941
0.653766
0.648479
0.656486
0.678936
0.716461
0.767929
0.829913
0.897821
0.966557
1.03107
1.08675
1.12973
1.15722
1.16791
1.16233
1.14328
1.11472
1.08474
1.06258
1.05678
1.07328
1.11431
1.17809
1.2597
1.35251
1.4498
1.54598
1.6375
1.72172
1.79641
1.85935
1.90864
1.94255
1.96
1.96111
1.94772
1.92338
1.89301
1.86211
1.83566
1.81705
1.80857
1.81114
1.82428
1.84686
1.87778
1.91638
1.96259
2.01664
2.07893
2.14914
2.22435
2.29794
2.36073
2.4027
2.41511
2.39247
2.33398
2.24392
2.13108
2.00714
1.88434
1.77148
1.67265
1.59003
1.52323
1.46591
1.40737
1.33541
1.23887
1.10982
0.945083
0.746646
0.520919
0.277243
0
0.0835049
0.6972
2.0749
4.23073
6.81525
9.16662
10.5608
10.5159
8.98146
6.32424
3.15708
0.126484
-2.24851
-3.66087
-4.03802
-3.5403
-2.47776
-1.22736
-0.118106
0.642221
0.892182
0.902942
0.90224
0.901112
0.903879
0.912415
0.926037
0.942274
0.95899
0.974923
0.990358
1.00715
1.02808
1.05592
1.09223
1.13659
1.18804
1.24478
1.30473
1.36606
1.42761
1.48899
1.55039
1.61235
1.67541
1.73982
1.80539
1.87142
1.93677
2.00003
2.05979
2.1149
2.16463
2.20884
2.24801
2.28327
2.3163
2.34929
2.38475
2.42533
2.47365
2.53191
2.60165
2.68363
2.77764
2.88118
2.9866
3.08064
3.14756
3.17203
3.14234
3.05345
2.90891
2.72087
2.50797
2.29141
2.08881
1.90772
1.7499
1.61709
1.50823
1.42032
1.34936
1.2912
1.24222
1.19973
1.16204
1.12848
1.09922
1.07491
1.05636
1.04416
1.03836
1.03825
1.04233
1.04839
1.05388
1.05618
1.05308
1.04298
1.02512
0.99962
0.967445
0.930278
0.890406
0.850523
0.813521
0.782254
0.759242
0.746368
0.744527
0.753446
0.771668
0.796589
0.824644
0.852052
0.875481
0.892549
0.902109
0.904274
0.900189
0.891628
0.880516
0.868535
0.856801
0.845904
0.836125
0.827741
0.821391
0.818414
0.821032
0.832304
0.855899
0.896833
0.964217
1.07068
1.21424
1.36879
1.50105
1.58138
1.59365
1.53989
1.43863
1.31809
1.20771
1.12735
1.07753
1.05266
1.04822
1.06124
1.08774
1.12198
1.15655
1.1836
1.19607
1.18849
1.15738
1.10135
1.02088
0.917963
0.795863
0.659536
0.515628
0.3707
0.23411
0.116004
0.0254902
-0.0313766
-0.0531651
-0.043548
-0.0104473
0.0358807
0.0937843
0
0.454283
1.85429
4.24437
7.14092
9.65333
10.8549
10.2123
7.82802
4.37012
0.758257
-2.1981
-4.02885
-4.64383
-4.25164
-3.22481
-1.9939
-0.938174
-0.288998
-0.0949204
-0.0524593
-0.0082634
0.0372681
0.0836464
0.129664
0.173407
0.212522
0.244867
0.269198
0.285604
0.295749
0.302659
0.310518
0.323688
0.345875
0.379535
0.42576
0.484636
0.555865
0.63928
0.734818
0.842292
0.960519
1.08811
1.21844
1.34281
1.45261
1.54175
1.60842
1.6556
1.69008
1.72039
1.75459
1.79701
1.84908
1.91112
1.98218
2.06022
2.1429
2.228
2.31366
2.39828
2.48002
2.55657
2.62485
2.68094
2.72028
2.73818
2.73047
2.69402
2.62726
2.53043
2.4064
2.25969
2.09539
1.91915
1.73679
1.55351
1.37361
1.20068
1.0376
0.886621
0.749598
0.628104
0.523546
0.43716
0.369925
0.322424
0.294621
0.285684
0.293827
0.316334
0.349803
0.389371
0.427838
0.457446
0.471555
0.46602
0.440197
0.397183
0.343079
0.285469
0.231572
0.186036
0.15048
0.125531
0.110592
0.104573
0.106519
0.115881
0.132428
0.155856
0.185463
0.219824
0.256622
0.293266
0.327508
0.357978
0.384425
0.40757
0.428661
0.448902
0.468976
0.488847
0.507922
0.525308
0.540173
0.55205
0.561037
0.567767
0.573207
0.578296
0.583598
0.589089
0.594064
0.597471
0.598537
0.597476
0.595964
0.597159
0.605132
0.624545
0.66219
0.719904
0.784367
0.834747
0.84905
0.811718
0.71963
0.584242
0.428984
0.282674
0.170965
0.0981674
0.0566238
0.0446297
0.0557938
0.0812828
0.111678
0.138638
0.156107
0.160901
0.152728
0.133767
0.0963852
0
0.359933
1.54931
3.63144
6.16541
8.31113
9.20579
8.38942
6.02446
2.79843
-0.402174
-2.84634
-4.17178
-4.39548
-3.84499
-2.90775
-1.94394
-1.1842
-0.725713
-0.575042
-0.508302
-0.45713
-0.411829
-0.368919
-0.324805
-0.276235
-0.221046
-0.158664
-0.0899788
-0.0188728
0.0494934
0.110133
0.159635
0.197086
0.224229
0.244856
0.263674
0.285051
0.311549
0.343955
0.38218
0.425369
0.472017
0.520692
0.570429
0.620902
0.672323
0.725184
0.779962
0.836873
0.895715
0.956045
1.01738
1.07934
1.14166
1.20409
1.26634
1.32816
1.38983
1.45262
1.51918
1.59327
1.68153
1.79622
1.93689
2.08364
2.20713
2.27913
2.28164
2.20991
2.06969
1.87257
1.63337
1.37424
1.11285
0.860451
0.625408
0.41354
0.228738
0.0751419
-0.044561
-0.12894
-0.175509
-0.176665
-0.120863
-0.0131538
0.11274
0.218076
0.269514
0.249648
0.163038
0.0345642
-0.0998665
-0.206873
-0.271542
-0.306668
-0.324191
-0.330621
-0.332051
-0.33234
-0.332251
-0.329707
-0.321014
-0.30247
-0.272144
-0.231242
-0.181852
-0.126392
-0.0679153
-0.0097084
0.0447884
0.0921143
0.129483
0.154902
0.167529
0.168002
0.158562
0.142833
0.125221
0.110081
0.100869
0.0992302
0.105691
0.119792
0.140511
0.166759
0.197675
0.232621
0.270947
0.311794
0.353577
0.394098
0.431089
0.462823
0.488618
0.508987
0.525363
0.539472
0.552627
0.565218
0.576576
0.585168
0.588974
0.585917
0.574243
0.552765
0.520971
0.479086
0.428139
0.370067
0.307812
0.244952
0.185377
0.132977
0.0920288
0.06595
0.0529732
0.0471756
0.0403587
0.024189
-0.00765762
-0.0580277
-0.125845
-0.206619
-0.296461
-0.321375
0
0.894464
2.4721
4.57532
6.73832
8.30851
8.69221
7.61708
5.28154
2.30524
-0.512671
-2.51215
-3.40679
-3.27425
-2.63192
-1.80986
-1.08338
-0.569471
-0.332357
-0.225304
-0.13709
-0.0529617
0.0306938
0.115614
0.202
0.287408
0.367016
0.434908
0.485667
0.515912
0.52536
0.517149
0.497379
0.473995
0.455234
0.447394
0.453783
0.474989
0.50995
0.556355
0.609824
0.665025
0.716892
0.761614
0.797379
0.824784
0.846841
0.868559
0.89614
0.935759
0.992194
1.06802
1.16316
1.27481
1.39826
1.52738
1.65533
1.77568
1.88349
1.97582
2.05181
2.11224
2.15884
2.1934
2.21676
2.22869
2.22781
2.21188
2.17842
2.12552
2.05238
1.95968
1.84954
1.72515
1.59068
1.45043
1.30837
1.16838
1.03425
0.909655
0.798007
0.702129
0.624177
0.565678
0.526706
0.504582
0.49555
0.495596
0.501167
0.50959
0.519095
0.528564
0.537167
0.54426
0.54956
0.553503
0.557539
0.563994
0.575458
0.593813
0.619406
0.650514
0.683624
0.714544
0.739731
0.757383
0.767874
0.773385
0.776939
0.781235
0.787533
0.79576
0.804852
0.813177
0.819281
0.82248
0.823119
0.822395
0.821788
0.822343
0.824074
0.825207
0.822673
0.813124
0.794205
0.765588
0.729351
0.689516
0.650859
0.617368
0.590331
0.569559
0.551944
0.532526
0.507108
0.474602
0.438296
0.407494
0.394886
0.4128
0.473802
0.59439
0.751489
0.90812
1.02694
1.08307
1.07072
1.00173
0.898257
0.783878
0.676945
0.583625
0.504151
0.438841
0.388306
0.353228
0.333977
0.32723
0.325449
0.319978
0.302874
0.268591
0.214931
0.0347389
0
0.61387
2.08685
4.29523
6.74756
8.71465
9.50626
8.76558
6.63486
3.70101
0.749136
-1.54634
-2.8435
-3.17096
-2.79201
-2.13694
-1.41267
-0.770857
-0.327054
-0.137996
-0.0211853
0.0764046
0.165105
0.247028
0.322174
0.38948
0.446899
0.492052
0.523307
0.540739
0.5466
0.545111
0.54163
0.541412
0.548177
0.563342
0.586781
0.616727
0.650814
0.687111
0.724944
0.765184
0.809919
0.86168
0.922493
0.992786
1.07135
1.15627
1.24513
1.33552
1.42564
1.51466
1.60284
1.69133
1.78162
1.87496
1.97176
2.07114
2.17085
2.26717
2.35524
2.43025
2.48829
2.52695
2.54554
2.54485
2.52658
2.4926
2.44433
2.38251
2.30746
2.21943
2.11921
2.00845
1.8896
1.7655
1.63895
1.51235
1.38775
1.26715
1.1532
1.04883
0.957066
0.88031
0.819514
0.773742
0.74035
0.715752
0.696466
0.679884
0.664941
0.651936
0.64204
0.636732
0.637341
0.644861
0.659631
0.681227
0.708476
0.739515
0.771849
0.802261
0.827123
0.843446
0.849472
0.845285
0.833096
0.817034
0.802388
0.794411
0.797061
0.811662
0.836521
0.86861
0.904498
0.940585
0.973823
1.00217
1.02465
1.04114
1.05198
1.05745
1.05777
1.053
1.04325
1.02905
1.01154
0.99264
0.974905
0.961198
0.954254
0.956158
0.967977
0.9897
1.02034
1.05807
1.10054
1.14515
1.18937
1.23099
1.26813
1.29915
1.32212
1.33446
1.33348
1.31693
1.28325
1.2325
1.16705
1.09179
1.0137
0.940558
0.879268
0.837835
0.819788
0.815594
0.809326
0.783215
0.722504
0.618931
0.471965
0.287919
0.0778137
-0.148426
-0.264634
0
0.907259
2.65711
5.08149
7.58172
9.3024
9.50915
7.96301
5.06378
1.67073
-1.29135
-3.2128
-3.97067
-3.80666
-3.25066
-2.58939
-2.00485
-1.55138
-1.27701
-1.11884
-0.990571
-0.874199
-0.765096
-0.663705
-0.572617
-0.496707
-0.442203
-0.415334
-0.419418
-0.452441
-0.506306
-0.568243
-0.62411
-0.662402
-0.679151
-0.678342
-0.665316
-0.644697
-0.620666
-0.595633
-0.569613
-0.540507
-0.505103
-0.460425
-0.405033
-0.340113
-0.268185
-0.192456
-0.11649
-0.0435436
0.0238743
0.083839
0.134426
0.174529
0.204879
0.227436
0.245944
0.266249
0.295921
0.343007
0.414142
0.512626
0.6358
0.775668
0.924633
1.07341
1.20985
1.32197
1.40142
1.44392
1.44955
1.42257
1.37043
1.30227
1.22695
1.15122
1.07844
1.00878
0.941339
0.874938
0.809232
0.745386
0.686075
0.634845
0.595142
0.569411
0.557396
0.558767
0.572329
0.596444
0.628951
0.668054
0.711872
0.758312
0.804998
0.849469
0.889688
0.92447
0.953697
0.978181
0.999039
1.01677
1.03062
1.03777
1.0335
1.01255
0.971005
0.907968
0.826497
0.733511
0.638711
0.552827
0.484332
0.437806
0.414412
0.413177
0.433059
0.47121
0.521553
0.574846
0.620666
0.649626
0.654873
0.633361
0.586936
0.522954
0.454042
0.39665
0.368274
0.383723
0.449446
0.559898
0.70241
0.865932
1.03676
1.20081
1.34638
1.4649
1.55191
1.60695
1.63272
1.63396
1.61607
1.58429
1.54259
1.49326
1.43699
1.3729
1.29895
1.21291
1.11295
0.998318
0.869947
0.730564
0.584372
0.436272
0.290851
0.151388
0.0196259
-0.0910504
0
0.406979
1.46228
3.3167
5.72442
8.03949
9.45397
9.36271
7.65169
4.754
1.45783
-1.41089
-3.27401
-3.94523
-3.59309
-2.67535
-1.60596
-0.68762
-0.0301518
0.311151
0.497882
0.630819
0.701261
0.713644
0.686227
0.647366
0.628183
0.653926
0.730859
0.8436
0.983105
1.1399
1.29364
1.42428
1.51594
1.55941
1.55256
1.49914
1.40656
1.284
1.14171
0.991466
0.843205
0.708072
0.596717
0.517637
0.475632
0.471033
0.500034
0.555954
0.630899
0.716078
0.805034
0.89377
0.97954
1.06038
1.13503
1.20283
1.26401
1.31961
1.37144
1.42181
1.47306
1.52722
1.58562
1.6446
1.69392
1.72055
1.71323
1.66638
1.5814
1.46462
1.32332
1.16247
0.98645
0.800122
0.606245
0.408495
0.212322
0.0242168
-0.149556
-0.304206
-0.437075
-0.548476
-0.640733
-0.717097
-0.780683
-0.833812
-0.877919
-0.913886
-0.942535
-0.965359
-0.983739
-0.998887
-1.01169
-1.0225
-1.0311
-1.03697
-1.03965
-1.03918
-1.0364
-1.0333
36
190
347
505
666
829
995
1164
1330
1495
1659
1823
1986
2152
2319
2490
2661
2834
2999
3165
3329
3494
3654
0
0
0
0
0
0
0
0
0
0
0
0
0
0
0
0
0
0
0
0
0
0
0
0
0
0
0
0
0
0
0
0
0
0
0
0
0
0
0
0
0
0
0
0
0
0
0
0
0
0
0
0
0
0
0
0
0
0
0
0
0
0
0
0
0
0
0
0
0
0
0
0
0
0
0
0
0
0
0
0
0
0
0
0
0
0
0
0
0
0
0
0
0
0
0
0
0
0
0
0
0
0
0
0
0
0
0
0
0
0
0
0
0
0
0
0
0
0
0
0
0
0
0
0
0
0
0
0
0
0
0
0
0
0
0
0
0
0
0
0
0
0
0
0
0
0
0
0
0
0
0
0
0
0
0
0
0
0
0
0
0
0
0
0
0
0
0
0
0
0
0
0
0
0
0
0
0
0
0
0
0
0
0
0
0
0
0
0
0
0
0
0
0
0
0
0
0
0
0
0
0
0
0
0
0
0
0
0
0
0
0
0
0
0
0
0
0
0
0
0
0
0
0
0
0
0
0
0
0
0
0
0
0
0
0
0
0
0
0
0
0
0
0
0
0
0
0
0
0
0
0
0
0
0
0
0
0
0
0
0
0
0
0
0
0
0
0
0
0
0
0
0
0
0
0
0
0
0
0
0
0
0
0
0
0
0
0
0
0
0
0
0
0
0
0
0
0
0
0
0
0
0
0
0
0
0
0
0
0
0
0
0
0
0
0
0
0
0
0
0
0
0
0
0
0
0
0
0
0
0
0
0
0
0
0
0
0
0
0
0
0
0
0
0
0
0
0
0
0
0
0
0
0
0
0
0
0
0
0
0
0
0
0
0
0
0
0
0
0
0
0
0
0
0
0
0
0
0
0
0
0
0
0
0
0
0
0
0
0
0
0
0
0
0
0
0
0
0
0
0
0
0
0
0
0
0
0
0
0
0
0
0
0
0
0
0
0
0
0
0
0
0
0
0
0
0
0
0
0
0
0
0
0
0
0
0
0
0
0
0
0
0
0
0
0
0
0
0
0
0
0
0
0
0
0
0
0
0
0
0
0
0
0
0
0
0
0
0
0
0
0
0
0
0
0
0
0
0
0
0
0
0
0
0
0
0
0
0
0
0
0
0
0
0
0
0
0
0
0
0
0
0
0
0
0
0
0
0
0
0
0
0
0
0
0
0
0
0
0
0
0
0
0
0
0
0
0
0
0
0
0
0
0
0
0
0
0
0
0
0
0
0
0
0
0
0
0
0
0
0
0
0
0
0
0
0
0
0
0
0
0
0
0
0
0
0
0
0
0
0
0
0
0
0
0
0
0
0
0
0
0
0
0
0
0
0
0
0
0
0
0
0
0
0
0
0
0
0
0
0
0
0
0
0
0
0
0
0
0
0
0
0
0
0
0
0
0
0
0
0
0
0
0
0
0
0
0
0
0
0
0
0
0
0
0
0
0
0
0
0
0
0
0
0
0
0
0
0
0
0
0
0
0
0
0
0
0
0
0
0
0
0
0
0
0
0
0
0
0
0
0
0
0
0
0
0
0
0
0
0
0
0
0
0
0
0
0
0
0
0
0
0
0
0
0
0
0
0
0
0
0
0
0
0
0
0
0
0
0
0
0
0
0
0
0
0
0
0
0
0
0
0
0
0
0
0
0
0
0
0
0
0
0
0
0
0
0
0
0
0
0
0
0
0
0
0
0
0
0
0
0
0
0
0
0
0
0
0
0
0
0
0
0
0
0
0
0
0
0
0
0
0
0
0
0
0
0
0
0
0
0
0
0
0
0
0
0
0
0
0
0
0
0
0
0
0
0
0
0
0
0
0
0
0
0
0
0
0
0
0
0
0
0
0
0
0
0
0
0
0
0
0
0
0
0
0
0
0
0
0
0
0
0
0
0
0
0
0
0
0
0
0
0
0
0
0
0
0
0
0
0
0
0
0
0
0
0
0
0
0
0
0
0
0
0
0
0
0
0
0
0
0
0
0
0
0
0
0
0
0
0
0
0
0
0
0
0
0
0
0
0
0
0
0
0
0
0
0
0
0
0
0
0
0
0
0
0
0
0
0
0
0
0
0
0
0
0
0
0
0
0
0
0
0
0
0
0
0
0
0
0
0
0
0
0
0
0
0
0
0
0
0
0
0
0
0
0
0
0
0
0
0
0
0
0
0
0
0
0
0
0
0
0
0
0
0
0
0
0
0
0
0
0
0
0
0
0
0
0
0
0
0
0
0
0
0
0
0
0
0
0
0
0
0
0
0
0
0
0
0
0
0
0
0
0
0
0
0
0
0
0
0
0
0
0
0
0
0
0
0
0
0
0
0
0
0
0
0
0
0
0
0
0
0
0
0
0
0
0
0
0
0
0
0
0
0
0
0
0
0
0
0
0
0
0
0
0
0
0
0
0
0
0
0
0
0
0
0
0
0
0
0
0
0
0
0
0
0
0
0
0
0
0
0
0
0
0
0
0
0
0
0
0
0
0
0
0
0
0
0
0
0
0
0
0
0
0
0
0
0
0
0
0
0
0
0
0
0
0
0
0
0
0
0
0
0
0
0
0
0
0
0
0
0
0
0
0
0
0
0
0
0
0
0
0
0
0
0
0
0
0
0
0
0
0
0
0
0
0
0
0
0
0
0
0
0
0
0
0
0
0
0
0
0
0
0
0
0
0
0
0
0
0
0
0
0
0
0
0
0
0
0
0
0
0
0
0
0
0
0
0
0
0
0
0
0
0
0
0
0
0
0
0
0
0
0
0
0
0
0
0
0
0
0
0
0
0
0
0
0
0
0
0
0
0
0
0
0
0
0
0
0
0
0
0
0
0
0
0
0
0
0
0
0
0
0
0
0
0
0
0
0
0
0
0
0
0
0
0
0
0
0
0
0
0
0
0
0
0
0
0
0
0
0
0
0
0
0
0
0
0
0
0
0
0
0
0
0
0
0
0
0
0
0
0
0
0
0
0
0
0
0
0
0
0
0
0
0
0
0
0
0
0
0
0
0
0
0
0
0
0
0
0
0
0
0
0
0
0
0
0
0
0
0
0
0
0
0
0
0
0
0
0
0
0
0
0
0
0
0
0
0
0
0
0
0
0
0
0
0
0
0
0
0
0
0
0
0
0
0
0
0
0
0
0
0
0
0
0
0
0
0
0
0
0
0
0
0
0
0
0
0
0
0
0
0
0
0
0
0
0
0
0
0
0
0
0
0
0
0
0
0
0
0
0
0
0
0
0
0
0
0
0
0
0
0
0
0
0
0
0
0
0
0
0
0
0
0
0
0
0
0
0
0
0
0
0
0
0
0
0
0
0
0
0
0
0
0
0
0
0
0
0
0
0
0
0
0
0
0
0
0
0
0
0
0
0
0
0
0
0
0
0
0
0
0
0
0
0
0
0
0
0
0
0
0
0
0
0
0
0
0
0
0
0
0
0
0
0
0
0
0
0
0
0
0
0
0
0
0
0
0
0
0
0
0
0
0
0
0
0
0
0
0
0
0
0
0
0
0
0
0
0
0
0
0
0
0
0
0
0
0
0
0
0
0
0
0
0
0
0
0
0
0
0
0
0
0
0
0
0
0
0
0
0
0
0
0
0
0
0
0
0
0
0
0
0
0
0
0
0
0
0
0
0
0
0
0
0
0
0
0
0
0
0
0
0
0
0
0
0
0
0
0
0
0
0
0
0
0
0
0
0
0
0
0
0
0
0
0
0
0
0
0
0
0
0
0
0
0
0
0
0
0
0
0
0
0
0
0
0
0
0
0
0
0
0
0
0
0
0
0
0
0
0
0
0
0
0
0
0
0
0
0
0
0
0
0
0
0
0
0
0
0
0
0
0
0
0
0
0
0
0
0
0
0
0
0
0
0
0
0
0
0
0
0
0
0
0
0
0
0
0
0
0
0
0
0
0
0
0
0
0
0
0
0
0
0
0
0
0
0
0
0
0
0
0
0
0
0
0
0
0
0
0
0
0
0
0
0
0
0
0
0
0
0
0
0
0
0
0
0
0
0
0
0
0
0
0
0
0
0
0
0
0
0
0
0
0
0
0
0
0
0
0
0
0
0
0
0
0
0
0
0
0
0
0
0
0
0
0
0
0
0
0
0
0
0
0
0
0
0
0
0
0
0
0
0
0
0
0
0
0
0
0
0
0
0
0
0
0
0
0
0
0
0
0
0
0
0
0
0
0
0
0
0
0
0
0
0
0
0
0
0
0
0
0
0
0
0
0
0
0
0
0
0
0
0
0
0
0
0
0
0
0
0
0
0
0
0
0
0
0
0
0
0
0
0
0
0
0
0
0
0
0
0
0
0
0
0
0
0
0
0
0
0
0
0
0
0
0
0
0
0
0
0
0
0
0
0
0
0
0
0
0
0
0
0
0
0
0
0
0
0
0
0
0
0
0
0
0
0
0
0
0
0
0
0
0
0
0
0
0
0
0
0
0
0
0
0
0
0
0
0
0
0
0
0
0
0
0
0
0
0
0
0
0
0
0
0
0
0
0
0
0
0
0
0
0
0
0
0
0
0
0
0
0
0
0
0
0
0
0
0
0
0
0
0
0
0
0
0
0
0
0
0
0
0
0
0
0
0
0
0
0
0
0
0
0
0
0
0
0
0
0
0
0
0
0
0
0
0
0
0
0
0
0
0
0
0
0
0
0
0
0
0
0
0
0
0
0
0
0
0
0
0
0
0
0
0
0
0
0
0
0
0
0
0
0
0
0
0
0
0
0
0
0
0
0
0
0
0
0
0
0
0
0
0
0
0
0
0
0
0
0
0
0
0
0
0
0
0
0
0
0
0
0
0
0
0
0
0
0
0
0
0
0
0
0
0
0
0
0
0
0
0
0
0
0
0
0
0
0
0
0
0
0
0
0
0
0
0
0
0
0
0
0
0
0
0
0
0
0
0
0
0
0
0
0
0
0
0
0
0
0
0
0
0
0
0
0
0
0
0
0
0
0
0
0
0
0
0
0
0
0
0
0
0
0
0
0
0
0
0
0
0
0
0
0
0
0
0
0
0
0
0
0
0
0
0
0
0
0
0
0
0
0
0
0
0
0
0
0
0
0
0
0
0
0
0
0
0
0
0
0
0
0
0
0
0
0
0
0
0
0
0
0
0
0
0
0
0
0
0
0
0
0
0
0
0
0
0
0
0
0
0
0
0
0
0
0
0
0
0
0
0
0
0
0
0
0
0
0
0
0
0
0
0
0
0
0
0
0
0
0
0
0
0
0
0
0
0
0
0
0
0
0
0
0
0
0
0
0
0
0
0
0
0
0
0
0
0
0
0
0
0
0
0
0
0
0
0
0
0
0
0
0
0
0
0
0
0
0
0
0
0
0
0
0
0
0
0
0
0
0
0
0
0
0
0
0
0
0
0
0
0
0
0
0
0
0
0
0
0
0
0
0
0
0
0
0
0
0
0
0
0
0
0
0
0
0
0
0
0
0
0
0
0
0
0
0
0
0
0
0
0
0
0
0
0
0
0
0
0
0
0
0
0
0
0
0
0
0
0
0
0
0
0
0
0
0
0
0
0
0
0
0
0
0
0
0
0
0
0
0
0
0
0
0
0
0
0
0
0
0
0
0
0
0
0
0
0
0
0
0
0
0
0
0
0
0
0
0
0
0
0
0
0
0
0
0
0
0
0
0
0
0
0
0
0
0
0
0
0
0
0
0
0
0
0
0
0
0
0
0
0
0
0
0
0
0
0
0
0
0
0
0
0
0
0
0
0
0
0
0
0
0
0
0
0
0
0
0
0
0
0
0
0
0
0
0
0
0
0
0
0
0
0
0
0
0
0
0
0
0
0
0
0
0
0
0
0
0
0
0
0
0
0
0
0
0
0
0
0
0
0
0
0
0
0
0
0
0
0
0
0
0
0
0
0
0
0
0
0
0
0
0
0
0
0
0
0
0
0
0
0
0
0
0
0
0
0
0
0
0
0
0
0
0
0
0
0
0
0
0
0
0
0
0
0
0
0
0
0
0
0
0
0
0
0
0
0
0
0
0
0
0
0
0
0
0
0
0
0
0
0
0
0
0
0
0
0
0
0
0
0
0
0
0
0
0
0
0
0
0
0
0
0
0
0
0
0
0
0
0
0
0
0
0
0
0
0
0
0
0
0
0
0
0
0
0
0
0
0
0
0
0
0
0
0
0
0
0
0
0
0
0
0
0
0
0
0
0
0
0
0
0
0
0
0
0
0
0
0
0
0
0
0
0
0
0
0
0
0
0
0
0
0
0
0
0
0
0
0
0
0
0
0
0
0
0
0
0
0
0
0
0
0
0
0
0
0
0
0
0
0
0
0
0
0
0
0
0
0
0
0
0
0
0
0
0
0
0
0
0
0
0
0
0
0
0
0
0
0
0
0
0
0
0
0
0
0
0
0
0
0
0
0
0
0
0
0
0
0
0
0
0
0
0
0
0
0
0
0
0
0
0
0
0
0
0
0
0
0
0
0
0
0
0
0
0
0
0
0
0
0
0
0
0
0
0
0
0
0
0
0
0
0
0
0
0
0
0
0
0
0
0
0
0
0
0
0
0
0
0
0
0
0
0
0
0
0
0
0
0
0
0
0
0
0
0
0
0
0
0
0
0
0
0
0
0
0
0
0
0
0
0
0
0
0
0
0
0
0
0
0
0
0
0
0
0
0
0
0
0
0
0
0
0
0
0
0
0
0
0
0
0
0
0
0
0
0
0
0
0
0
0
0
0
0
0
0
0
0
0
0
0
0
0
0
0
0
0
0
0
0
0
0
0
0
0
0
0
0
0
0
0
0
0
0
0
0
0
0
0
0
0
0
0
0
0
0
0
0
0
0
0
0
0
0
0
0
0
0
0
0
0
0
0
0
0
0
0
0
0
0
0
0
0
0
0
0
0
0
0
0
0
0
0
0
0
0
0
0
0
0
0
0
0
0
0
0
0
0
0
0
0
0
0
0
0
0
0
0
0
0
0
0
0
0
0
0
0
0
0
0
0
0
0
0
0
0
0
0
0
0
0
0
0
0
0
0
0
0
0
0
0
0
0
0
0
0
0
0
0
0
0
0
0
0
0
0
0
0
0
0
0
0
0
0
0
0
0
0
0
0
0
0
0
0
0
0
0
0
0
0
0
0
0
0
0
0
0
0
0
0
0
0
0
0
0
0
0
0
0
0
0
0
0
0
0
0
0
0
0
0
0
0
0
0
0
0
0
0
0
0
0
0
0
0
0
0
0
0
0
0
0
0
0
0
0
0
0
0
0
0
0
0
0
0
0
0
0
0
0
0
0
0
0
0
0
0
0
0
0
0
0
0
0
0
0
0
0
0
0
0
0
0
0
0
0
0
0
0
0
0
0
0
0
0
0
0
0
0
0
0
0
0
0
0
0
0
0
0
0
0
0
0
0
0
0
0
0
0
0
0
0
0
0
0
0
0
0
0
0
0
0
0
0
0
0
0
0
0
0
0
0
0
0
0
0
0
0
0
0
0
0
0
0
0
0
0
0
0
0
0
0
0
0
0
0
0
0
0
0
0
0
0
0
0
0
0
0
0
0
0
0
0
0
0
0
0
0
0
0
0
0
0
0
0
0
0
0
0
0
0
0
0
0
0
0
0
0
0
0
0
0
0
0
0
0
0
0
0
0
0
0
0
0
0
0
0
0
0
0
0
0
0
0
0
0
0
0
0
0
0
0
0
0
0
0
0
0
0
0
0
0
0
0
0
0
0
0
0
0
0
0
0
0
0
0
0
0
0
0
0
0
0
0
0
0
0
0
0
0
0
0
0
0
0
0
0
0
0
0
0
0
0
0
0
0
0
0
0
0
0
0
0
0
0
0
0
0
0
0
0
0
0
0
0
0
0
0
0
0
0
0
0
0
0
0
0
0
0
0
0
0
0
0
0
0
0
0
0
0
0
0
0
0
0
0
0
0
0
0
0
0
0
0
0
0
0
0
0
0
0
0
0
0
0
0
0
0
0
0
0
0
0
0
0
0
0
0
0
0
0
0
0
0
0
0
0
0
0
0
0
0
0
0
0
0
0
0
0
0
0
0
0
0
0
0
0
0
0
0
0
0
0
0
0
0
0
0
0
0
0
0
0
0
0
0
0
0
0
0
0
0
0
0
0
0
0
0
0
0
0
0
0
0
0
0
0
0
0
0
0
0
0
0
0
0
0
0
0
0
0
0
0
0
0
0
0
0
0
0
0
0
0
0
0
0
0
0
0
0
0
0
0
0
0
0
0
0
0
0
0
0
0
0
0
0
0
0
0
0
0
0
0
0
0
0
0
0
0
0
0
0
0
0
0
0
0
0
0
0
0
0
0
0
0
0
0
0
0
0
0
0
0
0
0
0
0
0
0
0
0
0
0
0
0
0
0
0
0
0
0
0
0
0
0
0
0
0
0
0
0
0
0
0
0
