0.800311
0.862876
0.935397
1.02251
1.12643
1.25022
1.394
1.54751
1.69257
1.81098
1.88955
1.9242
1.92183
1.89961
1.88176
1.89441
1.95716
2.07272
2.23486
2.4356
2.6668
2.91936
3.1828
3.44616
3.69918
3.93306
4.14081
4.31818
4.46361
4.57769
4.6625
4.7209
4.75582
4.76949
4.76315
4.73702
4.69031
4.62157
4.52916
4.41167
4.26829
4.09896
3.90447
3.68722
3.44995
3.19592
2.92926
2.65496
2.3788
2.1071
1.84628
1.60231
1.37993
1.18218
1.01058
0.864385
0.738618
0.626625
0.52198
0.420284
0.320519
0.22556
0.141615
0.0782452
0.0617559
0.129945
0.257257
0.390649
0.471636
0.46256
0.364012
0.214545
0.0724787
-0.0108395
-0.0118237
0.0323147
0.0969358
0.173876
0.257066
0.341814
0.42461
0.501652
0.569412
0.624174
0.662603
0.682973
0.686277
0.67654
0.66008
0.643971
0.634237
0.633037
0.639867
0.653405
0.670889
0.687933
0.699653
0.702015
0.69293
0.673066
0.646149
0.618611
0.598593
0.594511
0.61413
0.671872
0.785773
0.955092
1.13736
1.28329
1.35154
1.32203
1.20411
1.03464
0.863973
0.73564
0.669798
0.645599
0.645171
0.665468
0.705346
0.76377
0.838924
0.927309
1.02323
1.11973
1.20955
1.28648
1.34642
1.38784
1.41143
1.41916
1.4133
1.39647
1.36967
1.33255
1.2839
1.2219
1.14439
1.04934
0.935593
0.802936
0.65212
0.484587
0.302943
0.112299
-0.0809685
-0.270674
-0.448954
-0.461199
0
0.933612
2.35313
4.11243
5.8939
7.29042
7.92584
7.57158
6.23392
4.19119
1.94667
0.0695168
-1.03521
-1.30719
-1.075
-0.865658
-0.671714
-0.483906
-0.284475
-0.0645725
0.174401
0.433286
0.710069
0.998931
1.29051
1.57054
1.82188
2.02903
2.18258
2.28284
2.34064
2.37445
2.40395
2.44664
2.49906
2.53807
2.53721
2.48692
2.40626
2.33771
2.32737
2.40223
2.54029
2.70692
2.88787
3.07027
3.24615
3.41205
3.56767
3.71498
3.8569
3.99639
4.13557
4.27575
4.41755
4.56089
4.70487
4.84691
4.98114
5.09948
5.19246
5.25108
5.26847
5.24067
5.16615
5.04454
4.87543
4.65854
4.40164
4.11337
3.80034
3.46966
3.13077
2.7947
2.47284
2.17572
1.91172
1.68628
1.50287
1.36367
1.26506
1.19743
1.14945
1.10977
1.0686
1.01901
0.95775
0.885541
0.806864
0.72913
0.660279
0.607801
0.581618
0.599612
0.662663
0.748149
0.826052
0.869798
0.865428
0.815015
0.733459
0.641224
0.557028
0.489061
0.436422
0.398292
0.374924
0.366045
0.370915
0.38856
0.418165
0.459236
0.511553
0.575275
0.651571
0.740325
0.835733
0.925678
0.995596
1.03205
1.02654
0.978106
0.893793
0.786551
0.671175
0.559474
0.455542
0.357388
0.261662
0.164755
0.0644764
-0.038221
-0.138427
-0.227725
-0.295877
-0.320152
-0.259042
-0.125153
0.0314014
0.152234
0.197226
0.162077
0.0780186
-0.00599022
-0.0489361
-0.0370308
-0.000238419
0.0425747
0.0800106
0.104183
0.112291
0.106435
0.0920139
0.0754543
0.0618103
0.0531551
0.0497139
0.0506416
0.0540264
0.0574284
0.0583504
0.0545422
0.0441338
0.0256111
-0.0022541
-0.0404358
-0.0894131
-0.149134
-0.218992
-0.297466
-0.382038
-0.469297
-0.554911
-0.633286
-0.69828
-0.74478
-0.768952
-0.768789
-0.744449
-0.685328
-0.47892
0
0.715069
1.74366
3.03136
4.32644
5.2479
5.44427
4.76033
3.32027
1.4834
-0.301466
-1.66673
-2.42462
-2.23605
-1.99416
-1.73564
-1.48247
-1.25987
-1.08379
-0.94101
-0.81514
-0.698218
-0.583097
-0.465543
-0.345268
-0.224812
-0.107853
0.00220184
0.103471
0.196078
0.281754
0.362772
0.440348
0.514022
0.581236
0.638362
0.682814
0.715117
0.740064
0.766573
0.806309
0.871599
0.970487
1.10506
1.27579
1.48262
1.72625
2.0229
2.39364
2.79423
3.15289
3.4006
3.49727
3.4514
3.32004
3.18622
3.12459
3.1731
3.30978
3.50727
3.70547
3.84576
3.88598
3.80879
3.62263
3.35452
3.03648
2.69343
2.34313
1.99658
1.65888
1.33394
1.02669
0.741613
0.481802
0.248597
0.0416885
-0.140381
-0.299446
-0.436911
-0.553158
-0.647239
-0.717679
-0.761634
-0.772127
-0.745305
-0.690189
-0.620836
-0.553815
-0.505372
-0.489001
-0.513734
-0.582849
-0.69272
-0.832007
-0.982182
-1.11933
-1.21949
-1.26484
-1.24887
-1.17332
-1.05906
-0.933421
-0.82214
-0.743503
-0.706534
-0.71257
-0.758071
-0.836489
-0.934533
-1.04106
-1.1453
-1.23542
-1.29996
-1.33105
-1.32846
-1.28263
-1.18201
-1.02179
-0.822472
-0.627428
-0.47844
-0.408682
-0.43623
-0.558839
-0.752533
-0.976453
-1.18382
-1.3366
-1.43379
-1.4919
-1.52189
-1.52729
-1.51067
-1.47525
-1.42431
-1.36217
-1.29462
-1.22869
-1.17114
-1.12716
-1.09922
-1.08632
-1.08375
-1.08371
-1.07667
-1.05317
-1.00014
-0.897473
-0.743618
-0.573029
-0.429565
-0.351344
-0.358106
-0.444795
-0.582857
-0.728504
-0.835494
-0.8737
-0.853214
-0.794227
-0.710229
-0.607249
-0.494057
-0.381803
-0.282275
-0.205116
-0.156805
-0.139962
-0.153146
-0.191149
-0.245861
-0.30761
-0.366762
-0.415746
-0.451102
-0.4724
-0.480443
-0.476685
-0.463593
-0.444476
-0.423107
-0.403229
-0.388095
-0.380189
-0.381046
-0.391222
-0.41033
-0.437133
-0.469639
-0.505149
-0.540346
-0.571507
-0.594686
-0.605929
-0.600628
-0.571481
-0.511099
-0.42738
-0.342503
-0.281757
-0.264558
-0.296748
-0.367635
-0.45314
-0.52376
-0.554088
-0.539764
-0.492716
-0.422422
-0.332748
-0.230505
-0.127007
-0.03554
0.0322884
0.0684006
0.0698067
0.0395149
-0.0136597
-0.0766617
-0.134972
-0.175979
-0.194625
-0.192726
-0.173119
-0.140051
-0.0988464
-0.0545654
-0.0109947
0.0298004
0.0673828
0.102485
0.13646
0.170818
0.206927
0.246021
0.289111
0.336839
0.38932
0.44602
0.505753
0.567056
0.628438
0.688845
0.747946
0.806099
0.863992
0.922056
0.979264
1.03118
1.07044
1.08882
1.08039
1.04415
0.985077
0.913027
0.840035
0.777153
0.729393
0.696359
0.677065
0.670032
0.672477
0.680472
0.686523
0.680836
0.653698
0.597561
0.509139
0.39083
0.210842
0
0.419061
1.61148
3.42023
5.44482
7.16469
8.09159
7.91077
6.58815
4.40612
1.89507
-0.333076
-1.79213
-2.27359
-1.59834
-0.815604
-0.0153648
0.649588
1.03025
1.26115
1.4475
1.60077
1.73163
1.84987
1.96257
2.07247
2.17754
2.27179
2.34873
2.40483
2.4417
2.46612
2.48825
2.51871
2.56599
2.63109
2.71258
2.80921
2.91901
3.03943
3.16791
3.30232
3.44131
3.58455
3.73268
3.88711
4.04958
4.22158
4.40386
4.59613
4.797
5.00433
5.21563
5.42853
5.64115
5.85202
6.05996
6.26364
6.4608
6.64758
6.81784
6.96365
7.07727
7.15128
7.17912
7.15574
7.07813
6.9459
6.76174
6.53187
6.26604
5.97788
5.68158
5.38921
5.10915
4.84658
4.60461
4.38345
4.18063
3.99136
3.81006
3.63163
3.45276
3.27263
3.09307
2.91808
2.75282
2.60264
2.47244
2.36486
2.28078
2.21987
2.1813
2.16435
2.16913
2.19993
2.26477
2.3733
2.52211
2.67686
2.79408
2.83413
2.77379
2.61776
2.40346
2.1933
2.05324
2.02534
2.07485
2.15733
2.25316
2.34828
2.43028
2.49015
2.52324
2.52946
2.5127
2.47985
2.43943
2.40008
2.36892
2.3504
2.34597
2.35455
2.37347
2.39811
2.42328
2.44427
2.45779
2.46243
2.45873
2.44868
2.43487
2.41958
2.4038
2.38647
2.36409
2.33214
2.28704
2.22826
2.15935
2.0876
2.02219
1.97163
1.94056
1.92693
1.92863
1.94121
1.95896
1.97591
1.98664
1.98566
1.96995
1.93858
1.89305
1.83764
1.7792
1.72639
1.68977
1.69002
1.73599
1.80184
1.84584
1.82825
1.72989
1.56287
1.36864
1.20381
1.11869
1.11882
1.17139
1.26982
1.39121
1.51002
1.60388
1.65773
1.66545
1.62922
1.55752
1.4628
1.35965
1.26138
1.17806
1.11639
1.07918
1.06579
1.07669
1.11212
1.17053
1.24219
1.30707
1.34522
1.34228
1.29499
1.21402
1.12165
1.04373
0.998884
0.990344
1.00425
1.01687
1.00656
0.964462
0.898456
0.8288
0.778181
0.761664
0.773035
0.800269
0.836167
0.875538
0.91392
0.948251
0.977034
1.00047
1.02018
1.03867
1.05883
1.08339
1.11436
1.1526
1.19794
1.24774
1.29724
1.34058
1.37176
1.38564
1.37884
1.35024
1.30097
1.23406
1.15371
1.0644
0.969994
0.873163
0.775311
0.676916
0.57815
0.479535
0.382326
0.288563
0.200768
0.121421
0.0524004
-0.00541763
-0.0522832
-0.0894392
-0.118238
-0.132398
0
0.485508
1.38732
2.70215
4.30744
5.93235
7.15751
7.50778
6.64911
4.60184
1.81929
-0.960909
-3.03351
-4.02768
-3.99132
-3.40008
-2.66227
-2.07844
-1.71965
-1.48459
-1.24472
-1.02457
-0.824042
-0.644518
-0.487748
-0.354353
-0.244782
-0.157112
-0.0873366
-0.0300585
0.0205577
0.0697924
0.121558
0.177845
0.238804
0.303366
0.369824
0.436427
0.502033
0.566608
0.631422
0.698936
0.772425
0.855422
0.951136
1.06198
1.18925
1.3329
1.49212
1.66535
1.85047
2.04491
2.24588
2.45054
2.65643
2.86184
3.06615
3.26996
3.47546
3.68865
3.91936
4.16816
4.41001
4.60436
4.71125
4.6973
4.53762
4.22279
3.77299
3.24907
2.74446
2.34044
2.02924
1.76509
1.53203
1.31781
1.10943
0.896133
0.671892
0.436501
0.195107
-0.043716
-0.271111
-0.480994
-0.667017
-0.831082
-0.979154
-1.11834
-1.25352
-1.38364
-1.49962
-1.58673
-1.63138
-1.62793
-1.58243
-1.51147
-1.43683
-1.37823
-1.34712
-1.34464
-1.36286
-1.38893
-1.4101
-1.41949
-1.41692
-1.40423
-1.3836
-1.3578
-1.32947
-1.30054
-1.27194
-1.24379
-1.21585
-1.18823
-1.16226
-1.14123
-1.12979
-1.13254
-1.1521
-1.18735
-1.23255
-1.27784
-1.31083
-1.30689
-1.20601
-0.993358
-0.744692
-0.563269
-0.536166
-0.694897
-0.996857
-1.33938
-1.60411
-1.71275
-1.71952
-1.68999
-1.64456
-1.59232
-1.54064
-1.49447
-1.45654
-1.42836
-1.40963
-1.39936
-1.39608
-1.39801
-1.40307
-1.40922
-1.41482
-1.41922
-1.42308
-1.42833
-1.43781
-1.45466
-1.48153
-1.51991
-1.56965
-1.62872
-1.69311
-1.75737
-1.81522
-1.8523
-1.81027
-1.53349
-1.05702
-0.551658
-0.20286
-0.140242
-0.38593
-0.848388
-1.36072
-1.73895
-1.8433
-1.80706
-1.73418
-1.65001
-1.5612
-1.47067
-1.3795
-1.28734
-1.19314
-1.09676
-1.00338
-0.925529
-0.87944
-0.878946
-0.928974
-1.02133
-1.13493
-1.24093
-1.31128
-1.32833
-1.30172
-1.24573
-1.16772
-1.07691
-0.982665
-0.892744
-0.813197
-0.74794
-0.69892
-0.666379
-0.649212
-0.645341
-0.652059
-0.666276
-0.684652
-0.703616
-0.719428
-0.72786
-0.724637
-0.705682
-0.667672
-0.608644
-0.528506
-0.429273
-0.314963
-0.19118
-0.0645132
0.0581228
0.169702
0.264562
0.338738
0.390253
0.419131
0.427115
0.417154
0.392769
0.357479
0.314776
0.267582
0.218171
0.168687
0.121394
0.0786867
0.0428846
0.0158464
-0.00108109
-0.00707645
-0.00413551
0
-0.00959949
-0.038825
-0.0952572
-0.181298
-0.293117
-0.438763
-0.515143
-0.0938049
0.944034
2.56657
4.51488
6.29871
7.31158
7.06094
5.42139
2.76597
-0.136851
-2.44039
-3.59115
-3.52643
-2.71009
-1.80099
-1.15842
-0.934937
-0.879306
-0.747316
-0.591433
-0.410278
-0.211603
-0.0195992
0.138811
0.244548
0.29417
0.301309
0.291232
0.291185
0.320931
0.38033
0.459049
0.550155
0.648792
0.750957
0.854268
0.958745
1.06692
1.18337
1.31375
1.46353
1.63663
1.83422
2.05416
2.29076
2.53636
2.78222
3.02012
3.24394
3.45072
3.64089
3.81793
3.9873
4.15518
4.32725
4.50764
4.69941
4.90445
5.12332
5.35374
5.58438
5.7919
5.94819
6.02382
5.99678
5.86275
5.63935
5.35904
5.05288
4.73503
4.4042
4.06036
3.70487
3.33868
2.96473
2.58904
2.22016
1.86808
1.54268
1.25262
1.00645
0.811516
0.665501
0.55748
0.473455
0.399373
0.323861
0.240103
0.146568
0.0466
-0.0528904
-0.14397
-0.220778
-0.27915
-0.314248
-0.323737
-0.313338
-0.293244
-0.274348
-0.26524
-0.269959
-0.287188
-0.311056
-0.333142
-0.344974
-0.341536
-0.322144
-0.288465
-0.242899
-0.188431
-0.130159
-0.075415
-0.0311554
-0.00252495
0.00809097
0.00137024
-0.0194717
-0.0498741
-0.0853107
-0.122234
-0.15829
-0.191776
-0.220494
-0.241278
-0.249929
-0.241715
-0.211898
-0.149229
-0.0393703
0.112402
0.269612
0.389907
0.439479
0.405635
0.303075
0.170595
0.05816
0.00842552
0.0310684
0.0958817
0.184188
0.278952
0.36311
0.423484
0.45365
0.454969
0.435546
0.407496
0.383354
0.372585
0.377022
0.395232
0.423896
0.454801
0.476648
0.47905
0.455243
0.40421
0.331687
0.249594
0.173885
0.121297
0.105418
0.159295
0.332122
0.605972
0.892046
1.10265
1.17313
1.07932
0.849857
0.564615
0.330505
0.235476
0.266161
0.345139
0.43611
0.524842
0.600761
0.65766
0.693923
0.71167
0.715221
0.709469
0.699081
0.686769
0.67373
0.660098
0.645235
0.628306
0.608878
0.587453
0.565686
0.546172
0.531776
0.524881
0.527792
0.539484
0.556514
0.575735
0.596724
0.623257
0.662846
0.724228
0.813702
0.931853
1.07206
1.22209
1.36739
1.49524
1.59802
1.67423
1.72712
1.76184
1.78254
1.79127
1.78707
1.76804
1.73306
1.6831
1.62151
1.55319
1.48301
1.4142
1.34745
1.28178
1.21513
1.14496
1.06895
0.98567
0.894769
0.796883
0.693245
0.585208
0.473988
0.360264
0.244372
0.12613
0
0.120896
0.735549
1.89688
3.52159
5.39519
7.18442
8.46733
8.81237
7.92549
5.81453
2.87232
-0.202778
-2.64743
-3.92841
-3.93884
-3.00843
-1.69167
-0.511773
0.241729
0.537274
0.573466
0.606791
0.641509
0.67922
0.721866
0.771439
0.829808
0.898429
0.97797
1.06815
1.16856
1.27635
1.38576
1.49161
1.59118
1.68552
1.77921
1.87863
1.98939
2.11392
2.25001
2.39243
2.53641
2.67851
2.81808
2.95773
3.10259
3.2587
3.43118
3.62132
3.82783
4.04853
4.28008
4.51862
4.7607
5.00396
5.2475
5.49189
5.74017
5.99918
6.26638
6.51451
6.70224
6.79218
6.76719
6.6351
6.42047
6.14963
5.839
5.4996
5.14317
4.77803
4.40983
4.04344
3.68385
3.33604
3.00418
2.69108
2.39789
2.12411
1.86811
1.62788
1.4018
1.18926
0.99081
0.807871
0.642584
0.497061
0.370705
0.260011
0.159823
0.0646858
-0.0295204
-0.124182
-0.21724
-0.303387
-0.375121
-0.424669
-0.445438
-0.433859
-0.381131
-0.286275
-0.170295
-0.0590347
0.0241505
0.0648529
0.0611389
0.0231113
-0.031089
-0.0812397
-0.110887
-0.116817
-0.103144
-0.0745155
-0.0351017
0.0107857
0.0584202
0.1034
0.142314
0.172951
0.19422
0.205852
0.207972
0.200694
0.183915
0.157448
0.121348
0.0765247
0.0253006
-0.0283348
-0.0789459
-0.120408
-0.146906
-0.149405
-0.119
-0.0630688
-0.000940704
0.0460106
0.0623222
0.043998
-0.000861359
-0.0565842
-0.107291
-0.14339
-0.167181
-0.183818
-0.196412
-0.206753
-0.214222
-0.2159
-0.207777
-0.186557
-0.15197
-0.105318
-0.0522346
-0.00037384
0.0424751
0.0701973
0.0795517
0.0705273
0.045993
0.0109379
-0.028228
-0.065453
-0.0959652
-0.115843
-0.121833
-0.111618
-0.0861523
-0.0519005
-0.0189308
0.00289001
0.00682564
-0.00864182
-0.0393486
-0.076844
-0.111163
-0.133905
-0.141389
-0.135552
-0.118956
-0.0939404
-0.0628391
-0.0274475
0.0110653
0.0518887
0.0941681
0.136683
0.17786
0.215821
0.248412
0.274685
0.295171
0.312261
0.33011
0.353933
0.388721
0.437672
0.502641
0.57912
0.658165
0.728799
0.780706
0.806509
0.80291
0.770599
0.713282
0.636451
0.547884
0.453784
0.359073
0.268155
0.185103
0.113852
0.0578987
0.0196678
0.000401688
0
0.0184109
0.0511375
0.094088
0.142569
0.191908
0.23803
0.276241
0.235706
0.376241
1.06881
2.41826
4.26103
6.17158
7.57684
7.94809
7.00409
4.84783
1.96196
-0.955317
-3.25083
-4.54921
-4.83883
-4.38123
-3.52242
-2.5306
-1.54883
-0.647779
0.105505
0.580924
0.697927
0.747966
0.777364
0.792879
0.795987
0.78909
0.775356
0.758615
0.742993
0.732795
0.732317
0.745474
0.775358
0.824168
0.893288
0.982982
1.09247
1.2201
1.36364
1.52048
1.68785
1.86291
2.04275
2.22441
2.40495
2.5818
2.75337
2.91954
3.08193
3.24368
3.40888
3.58158
3.76475
3.95949
4.16406
4.3753
4.58811
4.79339
4.9788
5.13282
5.2453
5.30845
5.31731
5.26972
5.16577
5.00712
4.79651
4.53998
4.24745
3.92848
3.59175
3.24566
2.89854
2.55875
2.23425
1.93188
1.6566
1.41114
1.19588
1.00872
0.845667
0.701763
0.572043
0.452353
0.339883
0.233297
0.132476
0.0380123
-0.0494312
-0.129427
-0.202001
-0.267514
-0.326297
-0.378127
-0.421952
-0.455933
-0.477719
-0.484804
-0.475114
-0.447527
-0.402189
-0.340613
-0.265609
-0.180563
-0.0896839
-0.0013607
0.0733143
0.123616
0.141862
0.126286
0.0827358
0.0239056
-0.0341652
-0.0772869
-0.0982437
-0.100989
-0.093853
-0.0891373
-0.0990963
-0.13195
-0.189093
-0.264289
-0.344988
-0.415376
-0.460558
-0.47462
-0.458871
-0.414132
-0.345196
-0.259404
-0.16616
-0.0746037
0.00779953
0.0759888
0.127233
0.160444
0.173528
0.166211
0.138347
0.0907135
0.0261158
-0.0501476
-0.129694
-0.202773
-0.260246
-0.295444
-0.305163
-0.28952
-0.250893
-0.192598
-0.1192
-0.0343876
0.060421
0.161329
0.259795
0.344562
0.404364
0.431042
0.42225
0.382724
0.323641
0.260347
0.209176
0.182167
0.182945
0.210417
0.26241
0.336216
0.427873
0.53209
0.642546
0.752412
0.854878
0.943598
1.01343
1.06049
1.08215
1.07708
1.04521
0.987928
0.908243
0.810897
0.702332
0.590377
0.482963
0.387351
0.310126
0.258582
0.2334
0.226706
0.227088
0.222902
0.205436
0.170932
0.120965
0.0613674
0
0.00527649
0.356952
1.08627
2.29584
3.95027
5.78562
7.31919
7.99324
7.41811
5.59384
2.96543
0.247599
-1.8953
-3.12393
-3.48688
-3.28395
-2.8037
-2.20118
-1.50886
-0.747949
-0.0202415
0.464607
0.641998
0.734337
0.807938
0.87722
0.948157
1.02602
1.11666
1.22371
1.3349
1.42688
1.47603
1.46997
1.41661
1.3457
1.30046
1.32176
1.43177
1.60079
1.80378
2.02518
2.24964
2.46612
2.67062
2.86205
3.04265
3.21684
3.38973
3.56584
3.74816
3.93789
4.13461
4.33681
4.54265
4.75055
4.95963
5.16967
5.38081
5.59055
5.78681
5.94762
6.04744
6.06761
6.00487
5.87305
5.69625
5.49762
5.29054
5.07887
4.8632
4.64367
4.42013
4.19289
3.96271
3.73085
3.49895
3.26924
3.04476
2.82949
2.62808
2.44512
2.2854
2.15261
2.04592
1.95868
1.88166
1.80554
1.7238
1.63483
1.54275
1.45668
1.38844
1.34915
1.34596
1.38954
1.4896
1.63141
1.7813
1.90573
1.98115
2.00021
1.97265
1.92107
1.87302
1.85227
1.86694
1.9085
1.96738
2.03822
2.11338
2.18398
2.24204
2.28172
2.30018
2.298
2.27893
2.24917
2.2159
2.18568
2.16257
2.14732
2.13856
2.13217
2.12305
2.10688
2.08156
2.04805
2.01026
1.97402
1.94563
1.92969
1.92748
1.9388
1.96178
1.99267
2.02576
2.054
2.07089
2.07176
2.05471
2.0211
1.97534
1.92395
1.87404
1.83172
1.80011
1.78051
1.77243
1.77458
1.78609
1.80744
1.84066
1.8888
1.9552
2.04832
2.17102
2.30793
2.4367
2.53401
2.58128
2.56755
2.48933
2.34893
2.15366
1.91743
1.66437
1.41372
1.18067
0.978022
0.819625
0.721663
0.690073
0.712194
0.75992
0.802762
0.81428
0.776416
0.681513
0.532355
0.34065
0.12428
-0.143032
0
0.826289
2.44692
4.67767
6.97514
8.58831
8.8777
7.63279
5.19176
2.28516
-0.303267
-2.05576
-2.8556
-2.84637
-2.52826
-2.0557
-1.54324
-0.998417
-0.423956
0.010304
0.265924
0.425885
0.540854
0.625824
0.694199
0.75955
0.832514
0.917948
1.01432
1.11955
1.23192
1.34964
1.47118
1.59536
1.72123
1.84786
1.97412
2.09858
2.21997
2.33796
2.45381
2.57075
2.6938
2.82879
2.98096
3.15337
3.34584
3.55373
3.77071
3.99068
4.20823
4.41973
4.62392
4.82172
5.01531
5.20679
5.39698
5.58295
5.75643
5.90585
6.0195
6.08872
6.10958
6.08246
6.01007
5.89475
5.7365
5.53782
5.3029
5.03594
4.74124
4.42451
4.09384
3.75928
3.43155
3.12076
2.83456
2.57748
2.35088
2.1536
1.98287
1.83521
1.70703
1.59481
1.49501
1.40393
1.31777
1.23279
1.14585
1.05495
0.959795
0.862094
0.765526
0.675373
0.598267
0.540934
0.50914
0.506835
0.540264
0.619386
0.741124
0.881271
1.01191
1.10882
1.15772
1.1574
1.11871
1.0604
1.00321
0.963329
0.944357
0.94336
0.95632
0.979641
1.0088
1.03922
1.06709
1.08978
1.1058
1.11445
1.11516
1.10701
1.0887
1.05794
1.01256
0.951384
0.875294
0.788016
0.69608
0.609645
0.540158
0.505418
0.536341
0.635609
0.771687
0.901784
0.988535
1.0128
0.977963
0.906077
0.829109
0.779005
0.770558
0.804381
0.900597
1.04364
1.19205
1.30084
1.33798
1.29694
1.19977
1.08889
1.01023
0.99496
1.03068
1.0918
1.16406
1.23795
1.30464
1.35715
1.39088
1.40348
1.39429
1.36362
1.31209
1.24111
1.15228
1.0473
0.92828
0.798249
0.661095
0.521209
0.382885
0.249693
0.123981
0.00663452
-0.102861
-0.206076
-0.305127
-0.402186
-0.498985
-0.598655
-0.529684
0
1.12294
2.81607
4.83205
6.72454
7.95515
8.07635
6.91972
4.69432
1.92797
-0.731382
-2.75297
-3.88001
-4.13866
-3.76474
-3.02647
-2.16673
-1.36204
-0.726775
-0.32975
-0.090374
0.101485
0.26513
0.391813
0.475316
0.513934
0.512173
0.481356
0.438543
0.403748
0.39603
0.425871
0.491691
0.588047
0.709663
0.850982
1.00527
1.16514
1.3234
1.47304
1.60823
1.72645
1.82841
1.91821
2.00313
2.0928
2.19776
2.32766
2.48931
2.68398
2.90665
3.14997
3.40503
3.66142
3.90843
4.13603
4.33661
4.50585
4.64248
4.74771
4.82409
4.87424
4.89743
4.88908
4.84466
4.75728
4.61998
4.42846
4.18336
3.89144
3.56493
3.21964
2.8722
2.53483
2.21616
1.92243
1.65708
1.42112
1.21368
1.03272
0.875866
0.739829
0.620755
0.515045
0.419751
0.332876
0.253496
0.181633
0.117937
0.0632847
0.0183979
-0.0163841
-0.0412121
-0.0567627
-0.0642609
-0.0650234
-0.0612171
-0.056076
-0.0526989
-0.0532368
-0.0581177
-0.0656555
-0.0722557
-0.0732285
-0.0639912
-0.0417614
-0.00688171
0.0389824
0.0934307
0.152723
0.212042
0.266509
0.311822
0.344718
0.363213
0.366616
0.3554
0.330976
0.295549
0.251898
0.20288
0.151514
0.100885
0.0540852
0.0141376
-0.0157471
-0.0316738
-0.0301563
-0.0083828
0.0353291
0.10155
0.192809
0.302839
0.419257
0.528019
0.61609
0.673494
0.694249
0.676352
0.621463
0.534858
0.42739
0.310958
0.200268
0.11121
0.058387
0.0482811
0.0834152
0.162842
0.280664
0.427404
0.591954
0.76314
0.932607
1.09463
1.24372
1.37383
1.47922
1.55523
1.59619
1.5962
1.55055
1.4576
1.32033
1.14707
0.951188
0.749498
0.558588
0.390454
0.252558
0.149302
0.0803158
0.0409496
0.0234978
0.0188366
0.0180454
0.0140621
0.002211
-0.019643
-0.0513191
-0.0908688
-0.136032
-0.187776
0
0.568765
1.64282
3.20719
5.02319
6.63125
7.46914
7.08818
5.38135
2.6966
-0.258115
-2.69661
-4.08464
-4.33556
-3.78144
-2.92085
-2.15322
-1.61601
-1.21651
-0.80691
-0.490046
-0.252689
-0.0668957
0.0790649
0.187099
0.258709
0.298757
0.314837
0.316309
0.313048
0.314094
0.326428
0.354202
0.398005
0.455363
0.523854
0.601931
0.68871
0.784314
0.889916
1.00756
1.13986
1.28949
1.45907
1.65081
1.86582
2.1035
2.36087
2.63259
2.91137
3.1833
3.43304
3.64785
3.82061
3.95149
4.0476
4.1209
4.18498
4.25187
4.32849
4.4209
4.53117
4.64899
4.75052
4.80799
4.79534
4.69424
4.49932
4.22094
3.88359
3.5196
3.15987
2.81923
2.49766
2.19401
1.9097
1.64608
1.40527
1.19032
1.00453
0.851855
0.739477
0.672433
0.644651
0.640589
0.642211
0.633031
0.601412
0.542192
0.45652
0.350473
0.233234
0.115493
0.00606785
-0.0875204
-0.158752
-0.203139
-0.21886
-0.207083
-0.17175
-0.118785
-0.0548487
0.0140022
0.0833414
0.151066
0.216562
0.279853
0.341087
0.399804
0.454121
0.500134
0.533283
0.549203
0.545327
0.522252
0.484376
0.439506
0.397468
0.368087
0.359081
0.371252
0.401726
0.449379
0.510741
0.577136
0.637304
0.680346
0.69749
0.68349
0.637498
0.563337
0.469227
0.367021
0.270854
0.195208
0.152497
0.150449
0.189998
0.266795
0.367582
0.472305
0.561526
0.621446
0.647033
0.642288
0.617712
0.586003
0.557545
0.536313
0.521244
0.508875
0.494758
0.475838
0.452353
0.428536
0.411792
0.410572
0.431633
0.476939
0.542583
0.62255
0.708201
0.790095
0.859766
0.911052
0.940756
0.948742
0.937653
0.912679
0.880572
0.848548
0.823778
0.812308
0.818011
0.845749
0.893357
0.950255
1.00299
1.03876
1.04849
1.02853
0.980683
0.910939
0.82754
0.739388
0.652866
0.571248
0.495742
0.425959
0.359341
0.291853
0.21891
0.136469
0.0420467
-0.0645857
-0.181218
-0.310724
-0.370983
0
0.96419
2.5331
4.49387
6.40108
7.69255
7.88924
6.80841
4.68007
2.08312
-0.291732
-1.93364
-2.68542
-2.57764
-2.18816
-1.56513
-0.81909
-0.0769579
0.396535
0.59547
0.706922
0.787698
0.848491
0.901434
0.957802
1.02588
1.10757
1.20119
1.30437
1.41399
1.5263
1.63809
1.74759
1.85481
1.96139
2.06991
2.18298
2.3022
2.42777
2.55775
2.68774
2.81287
2.92995
3.03926
3.14539
3.25675
3.38381
3.53648
3.72146
3.93924
4.18406
4.44767
4.72185
4.99849
5.27014
5.52878
5.76437
5.97069
6.14344
6.27867
6.37284
6.4232
6.42809
6.38683
6.29963
6.16755
5.99795
5.79775
5.57079
5.32131
5.05406
4.77507
4.48955
4.20198
3.91704
3.6396
3.37469
3.12724
2.90166
2.70147
2.52918
2.3852
2.26779
2.17379
2.09928
2.04031
1.99359
1.95678
1.92855
1.90835
1.89583
1.89061
1.89209
1.89914
1.91001
1.92247
1.93412
1.94278
1.9468
1.94537
1.9386
1.9275
1.91374
1.89933
1.88624
1.87621
1.87051
1.86994
1.8749
1.88541
1.90115
1.92141
1.94506
1.97004
1.99372
2.01372
2.02869
2.03909
2.04743
2.05787
2.0752
2.10431
2.14986
2.2091
2.27099
2.32052
2.34305
2.32873
2.27571
2.19116
2.09004
1.9916
1.91331
1.86438
1.86278
1.90152
1.95924
2.01023
2.03415
2.02321
1.984
1.93365
1.89241
1.87559
1.88105
1.90248
1.93233
1.95812
1.96745
1.95154
1.90765
1.83964
1.7564
1.66884
1.58683
1.5158
1.45724
1.41284
1.38363
1.37018
1.37517
1.40226
1.44208
1.47954
1.49752
1.48275
1.43088
1.34851
1.25126
1.15923
1.09125
1.05097
1.03654
1.05533
1.11263
1.19757
1.28932
1.3663
1.41211
1.42008
1.39474
1.35019
1.30582
1.28141
1.288
1.3659
1.58206
1.91856
2.27335
2.53789
2.62501
2.49205
2.15412
1.68703
1.22147
0.918462
0.819427
0.821867
0.880915
0.977172
1.08719
1.18808
1.26131
1.29432
1.28023
1.2164
1.10322
0.945768
0.754108
0.536493
0.300998
0.0563904
-0.19098
0
0.675391
1.93763
3.72119
5.72553
7.4465
8.33067
7.99318
6.40049
3.91974
1.19268
-1.11383
-2.55742
-3.04384
-2.75927
-2.14419
-1.45495
-0.887322
-0.517526
-0.259189
0.00237579
0.259496
0.508539
0.745873
0.967093
1.16739
1.34288
1.49038
1.60715
1.69219
1.74789
1.77834
1.78934
1.78817
1.78325
1.78331
1.7964
1.82883
1.88401
1.96157
2.06117
2.18158
2.32148
2.47916
2.65399
2.84539
3.05219
3.27221
3.50203
3.73726
3.973
4.20435
4.42685
4.63673
4.83114
5.0081
5.16655
5.30635
5.42814
5.53319
5.62292
5.69798
5.75664
5.79338
5.80156
5.7729
5.69887
5.57343
5.39535
5.16925
4.9048
4.61457
4.31118
4.00536
3.70258
3.40619
3.11817
2.83984
2.57257
2.31828
2.07971
1.86057
1.66458
1.49491
1.35362
1.24125
1.15676
1.09771
1.06075
1.0422
1.03836
1.04568
1.06151
1.08247
1.10275
1.11575
1.11556
1.09861
1.065
1.01895
0.967957
0.921139
0.887075
0.869345
0.867608
0.881004
0.908573
0.947152
0.990333
1.03146
1.06499
1.08749
1.09809
1.09809
1.09011
1.07703
1.0612
1.04401
1.02589
1.00681
0.986564
0.965012
0.942225
0.918544
0.894635
0.871512
0.850552
0.833461
0.822117
0.818321
0.823469
0.838321
0.86263
0.89503
0.933043
0.972633
1.00761
1.03167
1.04018
1.03164
1.00864
0.977704
0.947574
0.926495
0.920309
0.929151
0.943942
0.951444
0.939667
0.902654
0.842549
0.768272
0.691758
0.623669
0.567676
0.522642
0.487723
0.461777
0.443448
0.431685
0.425934
0.425983
0.431648
0.442822
0.457337
0.470725
0.478057
0.475759
0.463271
0.443729
0.423236
0.408888
0.406297
0.416608
0.436374
0.461327
0.485199
0.500911
0.501889
0.483296
0.442846
0.381295
0.30253
0.213225
0.12201
0.0385956
-0.0278521
-0.0700474
-0.0835951
-0.0674736
-0.0239548
0.0419586
0.123421
0.212243
0.301532
0.385867
0.461256
0.525405
0.577664
0.618667
0.649717
0.671911
0.685514
0.689619
0.682343
0.661079
0.623188
0.566847
0.491735
0.399378
0.293105
0.177686
0.0587893
-0.0577093
-0.165854
-0.259772
-0.335114
-0.389042
-0.420591
-0.430879
-0.423036
-0.401727
-0.372312
-0.33981
-0.30796
-0.278473
-0.252189
-0.229995
0
0.546495
1.40007
2.54492
3.86916
5.08149
5.73338
5.40613
3.97526
1.76097
-0.576444
-2.35224
-3.18294
-2.90422
-2.47812
-2.0335
-1.67378
-1.45647
-1.34007
-1.24274
-1.14782
-1.0508
-0.949603
-0.844114
-0.73583
-0.627193
-0.520783
-0.41853
-0.321246
-0.228575
-0.139373
-0.0523562
0.0330938
0.116286
0.195011
0.266364
0.328215
0.380845
0.427951
0.476574
0.535903
0.615381
0.722735
0.859828
1.02446
1.21418
1.42603
1.65582
1.89846
2.14817
2.39866
2.64338
2.87523
3.08744
3.27548
3.4375
3.57501
3.69307
3.79981
3.90473
4.03497
4.23548
4.47247
4.6579
4.68937
4.50218
4.10849
3.60091
3.11321
2.75475
2.51674
2.32026
2.14341
1.97678
1.81254
1.64534
1.4726
1.29399
1.11064
0.924469
0.737288
0.550982
0.367853
0.190957
0.0247265
-0.126017
-0.256619
-0.359894
-0.426252
-0.462474
-0.481047
-0.495908
-0.517471
-0.549307
-0.587966
-0.625752
-0.654678
-0.669488
-0.67171
-0.661078
-0.637592
-0.601091
-0.551556
-0.485873
-0.412055
-0.344806
-0.300777
-0.2922
-0.321644
-0.380617
-0.452421
-0.517401
-0.557989
-0.571602
-0.560469
-0.524405
-0.463065
-0.374433
-0.260334
-0.132883
-0.0110394
0.0864552
0.145297
0.158866
0.129512
0.0676033
-0.0112076
-0.08968
-0.153355
-0.196093
-0.218331
-0.222946
-0.211837
-0.18976
-0.16332
-0.13895
-0.121606
-0.113782
-0.115102
-0.122629
-0.131884
-0.138355
-0.138851
-0.131977
-0.123917
-0.125925
-0.149721
-0.20219
-0.281234
-0.37466
-0.46291
-0.524867
-0.544636
-0.52588
-0.471858
-0.392375
-0.300882
-0.210867
-0.131514
-0.065798
-0.0150328
0.022185
0.0490303
0.0693249
0.0865914
0.103041
0.119388
0.134584
0.146045
0.150485
0.14495
0.127808
0.0994602
0.0626156
0.0220676
-0.0159559
-0.0447335
-0.0590636
-0.0557249
-0.0324768
0.0105961
0.072723
0.150566
0.235294
0.315513
0.381304
0.426617
0.450619
0.457456
0.454476
0.449551
0.44852
0.453304
0.462377
0.473708
0.485445
0.496633
0.507867
0.521502
0.541441
0.572577
0.619422
0.686231
0.778197
0.909491
1.10567
1.36352
1.62696
1.82973
1.91923
1.87794
1.73206
1.54094
1.36992
1.26038
1.20324
1.16723
1.13986
1.11467
1.08721
1.05472
1.01497
0.965218
0.902718
0.823722
0.7253
0.606545
0.469315
0.318167
0.159471
0
-0.139058
0.172402
0.853361
2.00876
3.65102
5.56667
7.27631
8.16816
7.77098
6.01626
3.32324
0.437516
-1.88602
-3.17256
-3.33251
-2.7054
-1.71716
-0.80817
-0.24864
-0.0676122
0.111424
0.296239
0.476615
0.646381
0.79948
0.932199
1.04446
1.14014
1.22614
1.31048
1.40004
1.50116
1.61053
1.71318
1.79066
1.82923
1.82654
1.79401
1.75436
1.73516
1.76103
1.83789
1.95539
2.10486
2.28077
2.47822
2.6922
2.91901
3.15684
3.40563
3.66634
3.93962
4.2246
4.51779
4.81296
5.09931
5.36309
5.59122
5.77343
5.90381
5.98134
6.00919
5.99331
5.94073
5.85794
5.7511
5.62449
5.4799
5.31711
5.13467
4.93059
4.70301
4.45084
4.17453
3.87654
3.56154
3.23631
2.90918
2.5893
2.28573
2.00665
1.75879
1.5462
1.37036
1.23035
1.1232
1.04425
0.988147
0.949604
0.924064
0.908023
0.899059
0.895564
0.896302
0.899942
0.904837
0.908684
0.908856
0.903007
0.889762
0.869293
0.843584
0.816242
0.791853
0.775034
0.769383
0.776096
0.795008
0.824297
0.860891
0.901153
0.941584
0.979391
1.01268
1.04039
1.06225
1.07879
1.09107
1.10058
1.10919
1.11887
1.13146
1.14816
1.16938
1.19383
1.21799
1.2368
1.24451
1.23591
1.20741
1.1581
1.09037
1.01
0.925727
0.84796
0.786683
0.749893
0.744802
0.78348
0.868391
0.981949
1.09805
1.19132
1.24313
1.24513
1.2001
1.12064
1.02627
0.939289
0.877303
0.847208
0.846686
0.869088
0.906442
0.948514
0.985191
1.00862
1.01453
1.00248
0.975111
0.937057
0.893938
0.850962
0.812425
0.781988
0.76243
0.755382
0.761106
0.778438
0.805002
0.837677
0.873193
0.908696
0.942192
0.972434
0.998692
1.02057
1.03772
1.04968
1.05578
1.05521
1.04701
1.0303
1.00435
0.968899
0.924354
0.871811
0.813654
0.753743
0.697456
0.651542
0.622745
0.6169
0.637982
0.687243
0.762675
0.858987
0.968181
1.08069
1.18685
1.27938
1.35311
1.40533
1.4361
1.44796
1.44547
1.43452
1.42163
1.4126
1.4121
1.42292
1.44689
1.48178
1.52193
1.56014
1.58927
1.60354
1.59928
1.57495
1.53066
1.46765
1.38944
1.29931
1.19965
1.09301
0.981936
0.868621
0.75469
0.641057
0.528135
0.416203
0.305796
0.198059
0.0948727
0
-0.0111322
0.453056
1.32003
2.63208
4.34967
6.24806
7.87328
8.64399
8.10382
6.19796
3.38682
0.48778
-1.69
-2.70622
-2.59855
-1.90946
-1.08949
-0.464536
-0.103317
0.0936956
0.262428
0.424911
0.584252
0.740881
0.894574
1.04461
1.18955
1.32713
1.45378
1.56411
1.65255
1.71553
1.75195
1.76481
1.76192
1.75542
1.75965
1.78797
1.84977
1.94568
2.06894
2.21576
2.38388
2.57155
2.77763
3.0011
3.24015
3.49143
3.74976
4.00919
4.26379
4.50908
4.74292
4.96568
5.17946
5.3868
5.5892
5.78558
5.97255
6.14467
6.29588
6.42078
6.51544
6.57728
6.60307
6.59073
6.53769
6.44125
6.29966
6.11324
5.88528
5.62209
5.33228
5.02601
4.71312
4.40012
4.09162
3.79034
3.49729
3.21228
2.93471
2.66438
2.40226
2.15097
1.91479
1.69932
1.51038
1.35351
1.23605
1.16612
1.14317
1.15168
1.17278
1.18896
1.18826
1.16651
1.12721
1.07923
1.03318
0.997399
0.973613
0.959953
0.953806
0.950234
0.944481
0.933806
0.91873
0.903239
0.893876
0.897989
0.921736
0.966411
1.03477
1.12809
1.24001
1.34847
1.42688
1.45169
1.40945
1.30316
1.15417
0.9974
0.870578
0.801775
0.782767
0.793964
0.82838
0.878544
0.934456
0.984814
1.02043
1.03572
1.02941
1.00451
0.967393
0.926176
0.888631
0.860323
0.842314
0.832412
0.828224
0.826735
0.824797
0.819732
0.809779
0.794346
0.774156
0.751136
0.728189
0.70893
0.697237
0.696683
0.709742
0.738309
0.784353
0.847118
0.915079
0.970192
0.994639
0.976611
0.914988
0.820809
0.714462
0.619332
0.554298
0.52055
0.509732
0.51818
0.538575
0.56295
0.584556
0.599189
0.605684
0.605552
0.601971
0.598491
0.597844
0.601065
0.607716
0.616759
0.626848
0.636871
0.646348
0.655589
0.665605
0.677826
0.69365
0.714045
0.739365
0.76931
0.80237
0.835199
0.86361
0.883818
0.893588
0.893037
0.884771
0.87329
0.863934
0.861785
0.870133
0.8907
0.925508
0.976123
1.0436
1.12957
1.23834
1.36717
1.50301
1.62885
1.7273
1.78436
1.79184
1.74826
1.65876
1.53439
1.39175
1.24885
1.12024
1.01619
0.939965
0.895089
0.875749
0.871465
0.869621
0.858144
0.827592
0.772243
0.690216
0.58291
0.454545
0.31169
0.160478
0
0.109311
0.644136
1.70139
3.3182
5.35796
7.42771
8.92413
9.24467
8.07621
5.58441
2.37543
-0.747523
-3.08752
-4.26376
-4.26261
-3.36926
-2.03744
-0.743565
0.162576
0.566379
0.653424
0.763535
0.869212
0.966437
1.05085
1.1198
1.17301
1.2128
1.2438
1.27216
1.30456
1.34668
1.40187
1.47259
1.56037
1.66542
1.78661
1.92172
2.06771
2.2212
2.37895
2.53841
2.69813
2.858
3.01925
3.18411
3.35537
3.53568
3.7269
3.92962
4.14287
4.36425
4.59027
4.81706
5.04105
5.25968
5.47175
5.67751
5.87828
6.07557
6.27031
6.46087
6.63845
6.78708
6.88741
6.92306
6.88536
6.77409
6.594
6.34983
6.04418
5.69006
5.30683
4.90746
4.50216
4.10201
3.71851
3.3625
3.0417
2.76019
2.51836
2.31354
2.14103
1.99518
1.87034
1.76147
1.66442
1.57626
1.4955
1.4223
1.35844
1.307
1.27274
1.26725
1.30594
1.37477
1.44373
159
340
611
861
1107
1348
1573
1772
1954
2137
2320
2518
2731
2959
3191
3426
3660
3588
3702
0
0
0
0
0
0
0
0
0
0
0
0
0
0
0
0
0
0
0
0
0
0
0
0
0
0
0
0
0
0
0
0
0
0
0
0
0
0
0
0
0
0
0
0
0
0
0
0
0
0
0
0
0
0
0
0
0
0
0
0
0
0
0
0
0
0
0
0
0
0
0
0
0
0
0
0
0
0
0
0
0
0
0
0
0
0
0
0
0
0
0
0
0
0
0
0
0
0
0
0
0
0
0
0
0
0
0
0
0
0
0
0
0
0
0
0
0
0
0
0
0
0
0
0
0
0
0
0
0
0
0
0
0
0
0
0
0
0
0
0
0
0
0
0
0
0
0
0
0
0
0
0
0
0
0
0
0
0
0
0
0
0
0
0
0
0
0
0
0
0
0
0
0
0
0
0
0
0
0
0
0
0
0
0
0
0
0
0
0
0
0
0
0
0
0
0
0
0
0
0
0
0
0
0
0
0
0
0
0
0
0
0
0
0
0
0
0
0
0
0
0
0
0
0
0
0
0
0
0
0
0
0
0
0
0
0
0
0
0
0
0
0
0
0
0
0
0
0
0
0
0
0
0
0
0
0
0
0
0
0
0
0
0
0
0
0
0
0
0
0
0
0
0
0
0
0
0
0
0
0
0
0
0
0
0
0
0
0
0
0
0
0
0
0
0
0
0
0
0
0
0
0
0
0
0
0
0
0
0
0
0
0
0
0
0
0
0
0
0
0
0
0
0
0
0
0
0
0
0
0
0
0
0
0
0
0
0
0
0
0
0
0
0
0
0
0
0
0
0
0
0
0
0
0
0
0
0
0
0
0
0
0
0
0
0
0
0
0
0
0
0
0
0
0
0
0
0
0
0
0
0
0
0
0
0
0
0
0
0
0
0
0
0
0
0
0
0
0
0
0
0
0
0
0
0
0
0
0
0
0
0
0
0
0
0
0
0
0
0
0
0
0
0
0
0
0
0
0
0
0
0
0
0
0
0
0
0
0
0
0
0
0
0
0
0
0
0
0
0
0
0
0
0
0
0
0
0
0
0
0
0
0
0
0
0
0
0
0
0
0
0
0
0
0
0
0
0
0
0
0
0
0
0
0
0
0
0
0
0
0
0
0
0
0
0
0
0
0
0
0
0
0
0
0
0
0
0
0
0
0
0
0
0
0
0
0
0
0
0
0
0
0
0
0
0
0
0
0
0
0
0
0
0
0
0
0
0
0
0
0
0
0
0
0
0
0
0
0
0
0
0
0
0
0
0
0
0
0
0
0
0
0
0
0
0
0
0
0
0
0
0
0
0
0
0
0
0
0
0
0
0
0
0
0
0
0
0
0
0
0
0
0
0
0
0
0
0
0
0
0
0
0
0
0
0
0
0
0
0
0
0
0
0
0
0
0
0
0
0
0
0
0
0
0
0
0
0
0
0
0
0
0
0
0
0
0
0
0
0
0
0
0
0
0
0
0
0
0
0
0
0
0
0
0
0
0
0
0
0
0
0
0
0
0
0
0
0
0
0
0
0
0
0
0
0
0
0
0
0
0
0
0
0
0
0
0
0
0
0
0
0
0
0
0
0
0
0
0
0
0
0
0
0
0
0
0
0
0
0
0
0
0
0
0
0
0
0
0
0
0
0
0
0
0
0
0
0
0
0
0
0
0
0
0
0
0
0
0
0
0
0
0
0
0
0
0
0
0
0
0
0
0
0
0
0
0
0
0
0
0
0
0
0
0
0
0
0
0
0
0
0
0
0
0
0
0
0
0
0
0
0
0
0
0
0
0
0
0
0
0
0
0
0
0
0
0
0
0
0
0
0
0
0
0
0
0
0
0
0
0
0
0
0
0
0
0
0
0
0
0
0
0
0
0
0
0
0
0
0
0
0
0
0
0
0
0
0
0
0
0
0
0
0
0
0
0
0
0
0
0
0
0
0
0
0
0
0
0
0
0
0
0
0
0
0
0
0
0
0
0
0
0
0
0
0
0
0
0
0
0
0
0
0
0
0
0
0
0
0
0
0
0
0
0
0
0
0
0
0
0
0
0
0
0
0
0
0
0
0
0
0
0
0
0
0
0
0
0
0
0
0
0
0
0
0
0
0
0
0
0
0
0
0
0
0
0
0
0
0
0
0
0
0
0
0
0
0
0
0
0
0
0
0
0
0
0
0
0
0
0
0
0
0
0
0
0
0
0
0
0
0
0
0
0
0
0
0
0
0
0
0
0
0
0
0
0
0
0
0
0
0
0
0
0
0
0
0
0
0
0
0
0
0
0
0
0
0
0
0
0
0
0
0
0
0
0
0
0
0
0
0
0
0
0
0
0
0
0
0
0
0
0
0
0
0
0
0
0
0
0
0
0
0
0
0
0
0
0
0
0
0
0
0
0
0
0
0
0
0
0
0
0
0
0
0
0
0
0
0
0
0
0
0
0
0
0
0
0
0
0
0
0
0
0
0
0
0
0
0
0
0
0
0
0
0
0
0
0
0
0
0
0
0
0
0
0
0
0
0
0
0
0
0
0
0
0
0
0
0
0
0
0
0
0
0
0
0
0
0
0
0
0
0
0
0
0
0
0
0
0
0
0
0
0
0
0
0
0
0
0
0
0
0
0
0
0
0
0
0
0
0
0
0
0
0
0
0
0
0
0
0
0
0
0
0
0
0
0
0
0
0
0
0
0
0
0
0
0
0
0
0
0
0
0
0
0
0
0
0
0
0
0
0
0
0
0
0
0
0
0
0
0
0
0
0
0
0
0
0
0
0
0
0
0
0
0
0
0
0
0
0
0
0
0
0
0
0
0
0
0
0
0
0
0
0
0
0
0
0
0
0
0
0
0
0
0
0
0
0
0
0
0
0
0
0
0
0
0
0
0
0
0
0
0
0
0
0
0
0
0
0
0
0
0
0
0
0
0
0
0
0
0
0
0
0
0
0
0
0
0
0
0
0
0
0
0
0
0
0
0
0
0
0
0
0
0
0
0
0
0
0
0
0
0
0
0
0
0
0
0
0
0
0
0
0
0
0
0
0
0
0
0
0
0
0
0
0
0
0
0
0
0
0
0
0
0
0
0
0
0
0
0
0
0
0
0
0
0
0
0
0
0
0
0
0
0
0
0
0
0
0
0
0
0
0
0
0
0
0
0
0
0
0
0
0
0
0
0
0
0
0
0
0
0
0
0
0
0
0
0
0
0
0
0
0
0
0
0
0
0
0
0
0
0
0
0
0
0
0
0
0
0
0
0
0
0
0
0
0
0
0
0
0
0
0
0
0
0
0
0
0
0
0
0
0
0
0
0
0
0
0
0
0
0
0
0
0
0
0
0
0
0
0
0
0
0
0
0
0
0
0
0
0
0
0
0
0
0
0
0
0
0
0
0
0
0
0
0
0
0
0
0
0
0
0
0
0
0
0
0
0
0
0
0
0
0
0
0
0
0
0
0
0
0
0
0
0
0
0
0
0
0
0
0
0
0
0
0
0
0
0
0
0
0
0
0
0
0
0
0
0
0
0
0
0
0
0
0
0
0
0
0
0
0
0
0
0
0
0
0
0
0
0
0
0
0
0
0
0
0
0
0
0
0
0
0
0
0
0
0
0
0
0
0
0
0
0
0
0
0
0
0
0
0
0
0
0
0
0
0
0
0
0
0
0
0
0
0
0
0
0
0
0
0
0
0
0
0
0
0
0
0
0
0
0
0
0
0
0
0
0
0
0
0
0
0
0
0
0
0
0
0
0
0
0
0
0
0
0
0
0
0
0
0
0
0
0
0
0
0
0
0
0
0
0
0
0
0
0
0
0
0
0
0
0
0
0
0
0
0
0
0
0
0
0
0
0
0
0
0
0
0
0
0
0
0
0
0
0
0
0
0
0
0
0
0
0
0
0
0
0
0
0
0
0
0
0
0
0
0
0
0
0
0
0
0
0
0
0
0
0
0
0
0
0
0
0
0
0
0
0
0
0
0
0
0
0
0
0
0
0
0
0
0
0
0
0
0
0
0
0
0
0
0
0
0
0
0
0
0
0
0
0
0
0
0
0
0
0
0
0
0
0
0
0
0
0
0
0
0
0
0
0
0
0
0
0
0
0
0
0
0
0
0
0
0
0
0
0
0
0
0
0
0
0
0
0
0
0
0
0
0
0
0
0
0
0
0
0
0
0
0
0
0
0
0
0
0
0
0
0
0
0
0
0
0
0
0
0
0
0
0
0
0
0
0
0
0
0
0
0
0
0
0
0
0
0
0
0
0
0
0
0
0
0
0
0
0
0
0
0
0
0
0
0
0
0
0
0
0
0
0
0
0
0
0
0
0
0
0
0
0
0
0
0
0
0
0
0
0
0
0
0
0
0
0
0
0
0
0
0
0
0
0
0
0
0
0
0
0
0
0
0
0
0
0
0
0
0
0
0
0
0
0
0
0
0
0
0
0
0
0
0
0
0
0
0
0
0
0
0
0
0
0
0
0
0
0
0
0
0
0
0
0
0
0
0
0
0
0
0
0
0
0
0
0
0
0
0
0
0
0
0
0
0
0
0
0
0
0
0
0
0
0
0
0
0
0
0
0
0
0
0
0
0
0
0
0
0
0
0
0
0
0
0
0
0
0
0
0
0
0
0
0
0
0
0
0
0
0
0
0
0
0
0
0
0
0
0
0
0
0
0
0
0
0
0
0
0
0
0
0
0
0
0
0
0
0
0
0
0
0
0
0
0
0
0
0
0
0
0
0
0
0
0
0
0
0
0
0
0
0
0
0
0
0
0
0
0
0
0
0
0
0
0
0
0
0
0
0
0
0
0
0
0
0
0
0
0
0
0
0
0
0
0
0
0
0
0
0
0
0
0
0
0
0
0
0
0
0
0
0
0
0
0
0
0
0
0
0
0
0
0
0
0
0
0
0
0
0
0
0
0
0
0
0
0
0
0
0
0
0
0
0
0
0
0
0
0
0
0
0
0
0
0
0
0
0
0
0
0
0
0
0
0
0
0
0
0
0
0
0
0
0
0
0
0
0
0
0
0
0
0
0
0
0
0
0
0
0
0
0
0
0
0
0
0
0
0
0
0
0
0
0
0
0
0
0
0
0
0
0
0
0
0
0
0
0
0
0
0
0
0
0
0
0
0
0
0
0
0
0
0
0
0
0
0
0
0
0
0
0
0
0
0
0
0
0
0
0
0
0
0
0
0
0
0
0
0
0
0
0
0
0
0
0
0
0
0
0
0
0
0
0
0
0
0
0
0
0
0
0
0
0
0
0
0
0
0
0
0
0
0
0
0
0
0
0
0
0
0
0
0
0
0
0
0
0
0
0
0
0
0
0
0
0
0
0
0
0
0
0
0
0
0
0
0
0
0
0
0
0
0
0
0
0
0
0
0
0
0
0
0
0
0
0
0
0
0
0
0
0
0
0
0
0
0
0
0
0
0
0
0
0
0
0
0
0
0
0
0
0
0
0
0
0
0
0
0
0
0
0
0
0
0
0
0
0
0
0
0
0
0
0
0
0
0
0
0
0
0
0
0
0
0
0
0
0
0
0
0
0
0
0
0
0
0
0
0
0
0
0
0
0
0
0
0
0
0
0
0
0
0
0
0
0
0
0
0
0
0
0
0
0
0
0
0
0
0
0
0
0
0
0
0
0
0
0
0
0
0
0
0
0
0
0
0
0
0
0
0
0
0
0
0
0
0
0
0
0
0
0
0
0
0
0
0
0
0
0
0
0
0
0
0
0
0
0
0
0
0
0
0
0
0
0
0
0
0
0
0
0
0
0
0
0
0
0
0
0
0
0
0
0
0
0
0
0
0
0
0
0
0
0
0
0
0
0
0
0
0
0
0
0
0
0
0
0
0
0
0
0
0
0
0
0
0
0
0
0
0
0
0
0
0
0
0
0
0
0
0
0
0
0
0
0
0
0
0
0
0
0
0
0
0
0
0
0
0
0
0
0
0
0
0
0
0
0
0
0
0
0
0
0
0
0
0
0
0
0
0
0
0
0
0
0
0
0
0
0
0
0
0
0
0
0
0
0
0
0
0
0
0
0
0
0
0
0
0
0
0
0
0
0
0
0
0
0
0
0
0
0
0
0
0
0
0
0
0
0
0
0
0
0
0
0
0
0
0
0
0
0
0
0
0
0
0
0
0
0
0
0
0
0
0
0
0
0
0
0
0
0
0
0
0
0
0
0
0
0
0
0
0
0
0
0
0
0
0
0
0
0
0
0
0
0
0
0
0
0
0
0
0
0
0
0
0
0
0
0
0
0
0
0
0
0
0
0
0
0
0
0
0
0
0
0
0
0
0
0
0
0
0
0
0
0
0
0
0
0
0
0
0
0
0
0
0
0
0
0
0
0
0
0
0
0
0
0
0
0
0
0
0
0
0
0
0
0
0
0
0
0
0
0
0
0
0
0
0
0
0
0
0
0
0
0
0
0
0
0
0
0
0
0
0
0
0
0
0
0
0
0
0
0
0
0
0
0
0
0
0
0
0
0
0
0
0
0
0
0
0
0
0
0
0
0
0
0
0
0
0
0
0
0
0
0
0
0
0
0
0
0
0
0
0
0
0
0
0
0
0
0
0
0
0
0
0
0
0
0
0
0
0
0
0
0
0
0
0
0
0
0
0
0
0
0
0
0
0
0
0
0
0
0
0
0
0
0
0
0
0
0
0
0
0
0
0
0
0
0
0
0
0
0
0
0
0
0
0
0
0
0
0
0
0
0
0
0
0
0
0
0
0
0
0
0
0
0
0
0
0
0
0
0
0
0
0
0
0
0
0
0
0
0
0
0
0
0
0
0
0
0
0
0
0
0
0
0
0
0
0
0
0
0
0
0
0
0
0
0
0
0
0
0
0
0
0
0
0
0
0
0
0
0
0
0
0
0
0
0
0
0
0
0
0
0
0
0
0
0
0
0
0
0
0
0
0
0
0
0
0
0
0
0
0
0
0
0
0
0
0
0
0
0
0
0
0
0
0
0
0
0
0
0
0
0
0
0
0
0
0
0
0
0
0
0
0
0
0
0
0
0
0
0
0
0
0
0
0
0
0
0
0
0
0
0
0
0
0
0
0
0
0
0
0
0
0
0
0
0
0
0
0
0
0
0
0
0
0
0
0
0
0
0
0
0
0
0
0
0
0
0
0
0
0
0
0
0
0
0
0
0
0
0
0
0
0
0
0
0
0
0
0
0
0
0
0
0
0
0
0
0
0
0
0
0
0
0
0
0
0
0
0
0
0
0
0
0
0
0
0
0
0
0
0
0
0
0
0
0
0
0
0
0
0
0
0
0
0
0
0
0
0
0
0
0
0
0
0
0
0
0
0
0
0
0
0
0
0
0
0
0
0
0
0
0
0
0
0
0
0
0
0
0
0
0
0
0
0
0
0
0
0
0
0
0
0
0
0
0
0
0
0
0
0
0
0
0
0
0
0
0
0
0
0
0
0
0
0
0
0
0
0
0
0
0
0
0
0
0
0
0
0
0
0
0
0
0
0
0
0
0
0
0
0
0
0
0
0
0
0
0
0
0
0
0
0
0
0
0
0
0
0
0
0
0
0
0
0
0
0
0
0
0
0
0
0
0
0
0
0
0
0
0
0
0
0
0
0
0
0
0
0
0
0
0
0
0
0
0
0
0
0
0
0
0
0
0
0
0
0
0
0
0
0
0
0
0
0
0
0
0
0
0
0
0
0
0
0
0
0
0
0
0
0
0
0
0
0
0
0
0
0
0
0
0
0
0
0
0
0
0
0
0
0
0
0
0
0
0
0
0
0
0
0
0
0
0
0
0
0
0
0
0
0
0
0
0
0
0
0
0
0
0
0
0
0
0
0
0
0
0
0
0
0
0
0
0
0
0
0
0
0
0
0
0
0
0
0
0
0
0
0
0
0
0
0
0
0
0
0
0
0
0
0
0
0
0
0
0
0
0
0
0
0
0
0
0
0
0
0
0
0
0
0
0
0
0
0
0
0
0
0
0
0
0
0
0
0
0
0
0
0
0
0
0
0
0
0
0
0
0
0
0
0
0
0
0
0
0
0
0
0
0
0
0
0
0
0
0
0
0
0
0
0
0
0
0
0
0
0
0
0
0
0
0
0
0
0
0
0
0
0
0
0
0
0
0
0
0
0
0
0
0
0
0
0
0
0
0
0
0
0
0
0
0
0
0
0
0
0
0
0
0
0
0
0
0
0
0
0
0
0
0
0
0
0
0
0
0
0
0
0
0
0
0
0
0
0
0
0
0
0
0
0
0
0
0
0
0
0
0
0
0
0
0
0
0
0
0
0
0
0
0
0
0
0
0
0
0
0
0
0
0
0
0
0
0
0
0
0
0
0
0
0
0
0
0
0
0
0
0
0
0
0
0
0
0
0
0
0
0
0
0
0
0
0
0
0
0
0
0
0
0
0
0
0
0
0
0
0
0
0
0
