-2.31886
-2.17924
-2.03973
-1.90172
-1.7675
-1.63965
-1.52036
-1.41081
-1.31092
-1.21947
-1.13465
-1.05462
-0.978055
-0.904164
-0.832833
-0.764158
-0.698106
-0.63424
-0.571605
-0.508447
-0.442318
-0.370184
-0.288705
-0.194736
-0.0860261
0.038026
0.175822
0.323327
0.474681
0.623805
0.764978
0.89388
1.00834
1.10864
1.19729
1.27845
1.35709
1.43806
1.52517
1.62161
1.73029
1.8487
1.96428
2.06111
2.12418
2.14333
2.11536
2.04361
1.9355
1.79958
1.64366
1.4772
1.30669
1.13671
0.971621
0.816125
0.674618
0.550739
0.446915
0.364111
0.301863
0.258558
0.231845
0.219065
0.217491
0.224685
0.238512
0.25712
0.278933
0.302684
0.327467
0.352806
0.378709
0.405672
0.434633
0.466855
0.503728
0.546513
0.596016
0.652277
0.71458
0.781263
0.848803
0.912995
0.969931
1.01677
1.0521
1.07577
1.08837
1.09008
1.08144
1.06315
1.03683
1.00592
0.976037
0.954441
0.948616
0.964465
1.00435
1.06717
1.14831
1.24094
1.33763
1.43233
1.52173
1.60416
1.67976
1.75022
1.81823
1.88694
1.95932
2.03766
2.12351
2.21746
2.31746
2.4169
2.50602
2.57426
2.61217
2.61303
2.57393
2.49626
2.38544
2.24999
2.10027
1.94659
1.79616
1.65283
1.51802
1.39222
1.27559
1.1679
1.06874
0.977525
0.89341
0.815009
0.739647
0.66348
0.582125
0.491513
0.387466
0.268492
0.137444
0
-0.142858
0.247898
1.40672
3.46011
6.22906
9.17784
11.5412
12.6007
11.99
9.8658
6.84692
3.74949
1.26341
-0.265816
-0.865725
-0.771787
-0.430524
-0.083999
0.217668
0.445333
0.596288
0.702842
0.783715
0.846432
0.895013
0.933018
0.963934
0.991928
1.02123
1.05538
1.09642
1.14461
1.19904
1.25664
1.31347
1.366
1.41219
1.45216
1.48824
1.52442
1.56543
1.61566
1.67754
1.75165
1.83736
1.93286
2.03532
2.14146
2.24794
2.352
2.45184
2.54674
2.63687
2.72301
2.80602
2.88652
2.96465
3.04002
3.11176
3.17857
3.23842
3.28729
3.3185
3.32558
3.30126
3.23904
3.1352
2.99038
2.81013
2.60404
2.38387
2.16131
1.94453
1.73799
1.54524
1.36844
1.20872
1.06664
0.942573
0.836993
0.750667
0.684145
0.638513
0.617148
0.620932
0.642204
0.669887
0.692208
0.699362
0.685674
0.650589
0.598312
0.536442
0.474109
0.419167
0.376215
0.347559
0.333699
0.333544
0.345311
0.365807
0.391081
0.416929
0.439214
0.454654
0.461536
0.459926
0.451663
0.439995
0.42882
0.42165
0.421842
0.429521
0.439384
0.443894
0.436763
0.416329
0.387251
0.359658
0.346039
0.357133
0.394942
0.453377
0.526827
0.610752
0.699829
0.788516
0.872697
0.950534
1.02265
1.09173
1.16154
1.23564
1.3176
1.40777
1.49884
1.57946
1.63773
1.66449
1.65519
1.60979
1.53124
1.42392
1.29395
1.14998
0.998642
0.845362
0.695648
0.555046
0.428187
0.318152
0.226876
0.154502
0.0993961
0.0583612
0.0269857
0
-0.0247904
-0.0569748
-0.102334
-0.170638
-0.290159
-0.499453
-0.783165
-1.10773
-1.42196
-1.10787
0.125504
2.38003
5.42752
8.69946
11.4023
12.7576
12.3007
10.1087
6.81717
3.37828
0.663856
-0.873165
-1.29822
-1.02613
-0.660273
-0.311151
0.0082653
0.290208
0.529334
0.719094
0.849825
0.911263
0.898664
0.819593
0.697728
0.570629
0.480441
0.459531
0.500228
0.578318
0.677437
0.790273
0.910219
1.03262
1.15533
1.27853
1.40386
1.53333
1.66829
1.80854
1.95284
2.09918
2.24497
2.38737
2.52299
2.64783
2.75919
2.85564
2.93737
3.00659
3.06751
3.1258
3.18754
3.25809
3.34104
3.43631
3.54221
3.65718
3.77927
3.90409
4.02042
4.11278
4.16405
4.15982
4.09341
3.96927
3.80219
3.61266
3.42022
3.23666
3.06285
2.8978
2.74154
2.59391
2.45501
2.32544
2.20626
2.09874
2.00407
1.92312
1.85632
1.80378
1.76509
1.73935
1.72536
1.72165
1.72652
1.73815
1.75476
1.7748
1.79707
1.82077
1.84538
1.87042
1.89512
1.91814
1.93738
1.95032
1.95479
1.94974
1.93598
1.91638
1.89637
1.88284
1.88232
1.8993
1.93499
1.98692
2.04958
2.11579
2.17832
2.23219
2.2738
2.30115
2.31364
2.31191
2.29768
2.27395
2.24362
2.21417
2.19514
2.1959
2.22347
2.28082
2.3664
2.47519
2.60064
2.73657
2.8771
3.01888
3.15922
3.29443
3.4201
3.53105
3.62202
3.68836
3.7267
3.73531
3.71417
3.66491
3.59102
3.49784
3.39026
3.27348
3.15244
3.03133
2.91284
2.79841
2.68878
2.58397
2.48349
2.38649
2.29199
2.19905
2.10698
2.01545
1.92452
1.83453
1.7458
1.6584
1.57136
1.46391
1.21263
0.789521
0.278307
0
0.5255
2.14861
4.84229
8.19945
11.5199
14.0043
14.9982
14.22
11.8798
8.62085
5.28264
2.58899
0.91757
0.256128
0.334323
0.801744
1.23054
1.57603
1.79701
1.89739
1.94679
1.95943
1.95032
1.93496
1.92644
1.9324
1.9532
1.98756
2.0346
2.09314
2.1617
2.23868
2.32188
2.40807
2.4926
2.56905
2.6306
2.67228
2.69232
2.69356
2.68411
2.67644
2.685
2.72261
2.79704
2.9054
3.03722
3.18331
3.33687
3.4917
3.64262
3.78582
3.91859
4.03887
4.14597
4.23991
4.32135
4.39154
4.45198
4.50341
4.54419
4.57055
4.57666
4.55473
4.49753
4.40115
4.26669
4.10006
3.91021
3.70646
3.49701
3.28685
3.07856
2.87427
2.67618
2.48681
2.30898
2.14558
1.99895
1.87072
1.76189
1.67257
1.6019
1.54853
1.51085
1.48702
1.47505
1.47279
1.47789
1.48783
1.50002
1.51154
1.5196
1.52179
1.51645
1.50283
1.4813
1.4532
1.42064
1.38607
1.3519
1.32002
1.29167
1.26762
1.24811
1.23303
1.22204
1.21469
1.21023
1.20758
1.20488
1.19896
1.18627
1.16397
1.13138
1.09113
1.04938
1.01476
0.996308
1.00095
1.03042
1.08264
1.1515
1.22864
1.30591
1.37821
1.44371
1.50371
1.56202
1.62369
1.69652
1.78821
1.8882
1.97547
2.0273
2.02906
1.98019
1.8932
1.78623
1.67361
1.55988
1.44232
1.31899
1.18767
1.04795
0.901624
0.752155
0.603748
0.460191
0.324397
0.198832
0.0856928
-0.012697
-0.0937256
-0.150784
-0.166495
-0.124973
-0.053647
0
-0.00969276
-0.131942
-0.380703
-0.738128
-1.19649
-1.54195
-1.08773
0.466842
3.06743
6.20299
9.02371
10.659
10.5903
8.87668
6.10902
3.12657
0.656
-0.933784
-1.66398
-1.79952
-1.6067
-1.42198
-1.24489
-1.08055
-0.932276
-0.797888
-0.673158
-0.554433
-0.43889
-0.324395
-0.209919
-0.0959839
0.0149986
0.119331
0.213064
0.293208
0.358694
0.410806
0.452952
0.489896
0.52673
0.567926
0.616448
0.673755
0.74087
0.818461
0.907038
1.00698
1.11832
1.24041
1.37163
1.50913
1.64929
1.78813
1.92165
2.04604
2.15793
2.25518
2.33725
2.40494
2.46035
2.50666
2.54789
2.58827
2.63167
2.68084
2.737
2.7997
2.86532
2.92652
2.97386
2.99764
2.98936
2.94308
2.8562
2.72972
2.56808
2.3787
2.17223
1.96013
1.75168
1.55445
1.37573
1.22126
1.09486
0.99809
0.931159
0.891999
0.876528
0.880147
0.898544
0.928229
0.966653
1.01195
1.06298
1.11808
1.17398
1.22705
1.27446
1.31537
1.35153
1.3868
1.42568
1.47142
1.52444
1.58139
1.63747
1.68701
1.72495
1.74803
1.75531
1.74801
1.72885
1.70127
1.66917
1.63589
1.60425
1.57686
1.55622
1.54446
1.54317
1.55348
1.57472
1.60412
1.63778
1.6713
1.70066
1.72296
1.73693
1.74323
1.74434
1.74428
1.74781
1.7598
1.78465
1.82577
1.88469
1.96153
2.05578
2.16633
2.29492
2.45074
2.66057
2.96197
3.31439
3.63621
3.83693
3.8517
3.66528
3.31702
2.88836
2.48106
2.19268
2.00377
1.86281
1.74856
1.6565
1.58461
1.53013
1.48971
1.45967
1.43612
1.41515
1.39294
1.36595
1.33083
1.28404
1.22128
1.13588
1.01447
0.835684
0.607361
0.350329
0.0876705
0
0.53562
1.94507
4.25919
7.13754
9.9321
11.9141
12.5486
11.6859
9.59657
6.85462
4.13036
1.9756
0.672157
0.192095
0.304859
0.432677
0.554984
0.66675
0.765212
0.85116
0.928668
1.00112
1.07173
1.14357
1.21901
1.29925
1.38418
1.47245
1.56131
1.64726
1.72696
1.79804
1.85955
1.91212
1.95783
1.99965
2.04105
2.08542
2.13581
2.19507
2.26572
2.34982
2.44876
2.563
2.69188
2.83336
2.98429
3.14086
3.29877
3.45356
3.60101
3.73761
3.86083
3.96924
4.06249
4.14105
4.20582
4.25832
4.30005
4.33222
4.35546
4.36966
4.37383
4.36567
4.34237
4.30072
4.23768
4.15103
4.04
3.90549
3.75014
3.57796
3.39406
3.20401
3.01288
2.82566
2.64729
2.48265
2.33695
2.21468
2.11922
2.05238
2.01708
2.01563
2.04283
2.08551
2.12976
2.16418
2.18258
2.1851
2.17757
2.16923
2.1695
2.18451
2.21405
2.25469
2.30282
2.35423
2.40463
2.45031
2.48832
2.51629
2.53138
2.53109
2.5128
2.4743
2.41476
2.33577
2.24009
2.13546
2.03965
1.9718
1.94728
1.9729
2.04527
2.15085
2.2663
2.36775
2.43752
2.46816
2.46278
2.43218
2.39052
2.35131
2.32221
2.3056
2.30294
2.31539
2.34308
2.38519
2.44017
2.50609
2.58097
2.66294
2.7505
2.84236
2.93696
3.0309
3.11629
3.18178
3.21408
3.20121
3.13609
3.01918
2.85897
2.67006
2.46974
2.27422
2.09215
1.92569
1.77754
1.64994
1.54455
1.46263
1.40229
1.35885
1.32636
1.29834
1.2684
1.23069
1.18005
1.11191
1.01615
0.844368
0.547139
0.145068
-0.312095
-0.546463
0
1.58113
4.19603
7.47984
10.7275
13.0758
13.812
12.6845
10.0447
6.71927
3.65715
1.5349
0.532529
0.380139
0.561688
0.634875
0.701224
0.760132
0.811984
0.858908
0.903193
0.947515
0.994794
1.04779
1.10869
1.17873
1.25797
1.3452
1.4382
1.53409
1.62975
1.72237
1.80978
1.89073
1.96488
2.03273
2.09533
2.15435
2.21195
2.27074
2.33374
2.40418
2.48517
2.57913
2.68716
2.80864
2.94087
3.07979
3.22039
3.35751
3.48721
3.60756
3.71898
3.82388
3.92588
4.02858
4.13506
4.24609
4.35742
4.46074
4.54572
4.60199
4.62046
4.59399
4.51763
4.38908
4.20969
3.98758
3.73557
3.46902
3.2049
2.95867
2.7416
2.57327
2.46227
2.39621
2.35519
2.31931
2.27529
2.21994
2.15932
2.10448
2.0658
2.04583
2.03947
2.04248
2.05062
2.05949
2.06546
2.06629
2.06133
2.05128
2.0378
2.02308
2.00937
1.99866
1.99265
1.99248
1.99868
2.01105
2.02876
2.05069
2.07575
2.10337
2.13374
2.16786
2.20729
2.25382
2.30984
2.3766
2.44882
2.51419
2.55826
2.56902
2.54099
2.47731
2.38894
2.29146
2.20087
2.12812
2.07476
2.03959
2.02321
2.02562
2.04593
2.0826
2.13358
2.19651
2.26893
2.34855
2.43339
2.52199
2.61359
2.70795
2.80514
2.90533
3.00851
3.11392
3.21819
3.31354
3.38948
3.43474
3.44017
3.40123
3.31929
3.20113
3.05696
2.89809
2.73538
2.57622
2.4247
2.28407
2.15772
2.04863
1.95949
1.8918
1.84533
1.8187
1.80948
1.81458
1.83127
1.85596
1.88403
1.91087
1.93092
1.89868
1.48909
0.758716
-0.10585
-0.841033
-0.937381
0
2.13871
5.29426
8.9119
12.1975
14.3523
14.832
13.5372
10.8618
7.56582
4.50242
2.30475
1.17604
0.888587
0.974421
1.01703
1.06562
1.12623
1.20177
1.29098
1.38841
1.4858
1.57446
1.64799
1.70702
1.7557
1.79713
1.8352
1.87404
1.91712
1.96676
2.02409
2.08923
2.16144
2.23944
2.32168
2.40665
2.49307
2.57996
2.66678
2.75348
2.84054
2.92892
3.01993
3.11499
3.21534
3.32171
3.43413
3.5518
3.67317
3.79622
3.91857
4.03774
4.15125
4.25727
4.35471
4.44324
4.5232
4.59524
4.65899
4.71331
4.75647
4.78534
4.79574
4.78313
4.74304
4.67156
4.56571
4.42415
4.25023
4.05167
3.83541
3.60962
3.38363
3.16679
2.96858
2.79429
2.64568
2.52182
2.42058
2.34004
2.27943
2.23908
2.21964
2.22074
2.2406
2.27554
2.32041
2.36949
2.41761
2.46136
2.49873
2.52877
2.55131
2.56654
2.57473
2.57621
2.5715
2.56153
2.54799
2.53335
2.52067
2.51314
2.51335
2.52292
2.54249
2.56995
2.6003
2.62767
2.64691
2.65474
2.6505
2.63596
2.61461
2.59056
2.5677
2.54879
2.53557
2.52972
2.53275
2.54583
2.57073
2.60976
2.66112
2.71552
2.761
2.78627
2.78457
2.75625
2.70908
2.65616
2.61219
2.58935
2.59034
2.61284
2.65459
2.7144
2.79095
2.88262
2.98779
3.10478
3.23177
3.36681
3.5077
3.65203
3.79698
3.93836
4.06826
4.17421
4.24202
4.25587
4.20246
4.07635
3.88394
3.64392
3.38317
3.12954
2.90025
2.69477
2.51097
2.34945
2.20983
2.09161
1.99482
1.92018
1.8716
1.85773
1.88951
1.96245
2.04379
2.09164
2.06482
1.93262
1.62534
1.1668
0.614645
-0.0336332
0
1.11822
3.49741
6.90659
10.68
13.8725
15.5748
15.2682
13.0535
9.62612
5.99694
3.08856
1.40028
0.89321
1.12531
1.27969
1.35133
1.4105
1.46084
1.50764
1.55606
1.61079
1.67496
1.7496
1.8351
1.93128
2.03525
2.13854
2.22948
2.29713
2.33432
2.34026
2.32164
2.29159
2.26651
2.26173
2.28577
2.33586
2.40567
2.48982
2.584
2.68438
2.78827
2.89456
3.00364
3.11687
3.23577
3.36131
3.49314
3.6295
3.7673
3.90252
4.03082
4.14823
4.25174
4.33966
4.41176
4.46922
4.51426
4.54965
4.57814
4.60184
4.6217
4.63697
4.64458
4.63906
4.61369
4.56134
4.47596
4.35408
4.19601
4.00626
3.79342
3.56909
3.34646
3.13666
2.94882
2.79044
2.66669
2.5882
2.56729
2.59463
2.64317
2.68483
2.69854
2.67602
2.62305
2.55564
2.49304
2.45041
2.42986
2.42484
2.43031
2.44306
2.4605
2.48071
2.50287
2.52741
2.55576
2.58985
2.63268
2.6889
2.75642
2.81933
2.85551
2.84457
2.77675
2.65841
2.51129
2.36558
2.24985
2.17456
2.12947
2.11265
2.12089
2.15001
2.19622
2.25639
2.33003
2.42233
2.53239
2.64214
2.72499
2.7555
2.7214
2.6308
2.51037
2.39561
2.31818
2.28798
2.29098
2.31735
2.36342
2.42662
2.50438
2.59437
2.69482
2.80438
2.92202
3.04693
3.17853
3.31643
3.46075
3.61214
3.76998
3.92749
4.06982
4.1776
4.23127
4.21609
4.1261
3.96595
3.75058
3.50273
3.24861
3.00977
2.79471
2.60401
2.4375
2.29741
2.18497
2.10153
2.05047
2.0337
2.04402
2.06802
2.09088
2.09873
2.0807
2.02982
1.94282
1.81917
1.62862
1.28007
0.804051
0.263106
-0.223126
0
1.28486
3.75914
7.15587
10.8225
13.8899
15.5547
15.3669
13.4038
10.2387
6.71283
3.61924
1.45471
0.341783
0.112293
0.502079
0.90315
1.25699
1.52321
1.68416
1.79155
1.87481
1.9431
2.00466
2.06527
2.12778
2.19094
2.25102
2.30458
2.35098
2.3936
2.43929
2.49612
2.57053
2.66455
2.77278
2.88898
3.00741
3.12241
3.22952
3.32627
3.41238
3.48942
3.56012
3.62764
3.69491
3.76428
3.83758
3.91642
4.00253
4.09794
4.20502
4.3262
4.46361
4.62007
4.80257
5.01876
5.25877
5.49101
5.68186
5.80492
5.84719
5.80999
5.70534
5.55008
5.36097
5.15258
4.93782
4.72408
4.51536
4.31403
4.12164
3.93953
3.76866
3.60917
3.46036
3.32098
3.18965
3.06533
2.94774
2.8375
2.73597
2.64487
2.56614
2.50106
2.44851
2.40585
2.36964
2.33656
2.30419
2.27153
2.23902
2.20822
2.18128
2.16015
2.14632
2.14123
2.14583
2.16057
2.18568
2.22026
2.25976
2.29628
2.32142
2.3285
2.31462
2.28156
2.23536
2.18448
2.13725
2.09913
2.07061
2.05017
2.03614
2.02623
2.01784
2.00848
1.99597
1.97856
1.95504
1.92479
1.8879
1.84492
1.79796
1.7519
1.71358
1.69043
1.68907
1.7139
1.76605
1.84306
1.93923
2.04673
2.15699
2.26335
2.3618
2.4502
2.52856
2.59857
2.66269
2.72292
2.78043
2.8344
2.88171
2.91639
2.93063
2.91717
2.86997
2.78563
2.66448
2.51109
2.33378
2.14332
1.95099
1.76609
1.59307
1.43506
1.29513
1.17548
1.07758
1.00272
0.953458
0.931782
0.932272
0.94029
0.938001
0.907729
0.835666
0.714827
0.546443
0.339486
0.108549
-0.187994
0
1.01507
3.01439
5.79498
8.76998
11.1451
12.2226
11.6886
9.73442
6.95518
4.08583
1.72017
0.15051
-0.624805
-0.772003
-0.385981
-0.000567722
0.366785
0.679414
0.894404
0.98229
0.942654
0.810023
0.648325
0.534168
0.531683
0.634538
0.793815
0.980117
1.17955
1.38237
1.57982
1.76464
1.93164
2.07753
2.20029
2.29905
2.37543
2.43274
2.47526
2.50823
2.53769
2.57011
2.61164
2.66732
2.74013
2.82952
2.93263
3.046
3.16551
3.28683
3.40597
3.51973
3.62567
3.72174
3.80593
3.87703
3.93471
3.97912
4.0111
4.03215
4.04418
4.04887
4.04689
4.03701
4.01622
3.97991
3.9229
3.84057
3.73004
3.5908
3.42501
3.23729
3.03495
2.82663
2.62009
2.42309
2.24328
2.08745
1.96108
1.86781
1.80929
1.78905
1.8161
1.89822
2.01718
2.13842
2.22821
2.26282
2.23625
2.16281
2.07263
2.00115
1.97628
2.00011
2.07494
2.16801
2.23649
2.24508
2.1816
2.06329
1.93013
1.82737
1.7858
1.79439
1.82702
1.87306
1.92542
1.97823
2.02738
2.0704
2.10525
2.1307
2.14545
2.1482
2.13808
2.11519
2.08092
2.03787
1.98934
1.93875
1.88913
1.84268
1.80136
1.7676
1.74426
1.73432
1.74091
1.76683
1.81387
1.88225
1.97021
2.074
2.18822
2.30645
2.42231
2.5303
2.62641
2.70858
2.77672
2.8324
2.8782
2.91679
2.9498
2.97749
2.99833
3.00914
3.00591
2.98482
2.94335
2.88082
2.7985
2.69919
2.5866
2.46489
2.33797
2.20876
2.07956
1.95254
1.82999
1.71452
1.60909
1.51688
1.44091
1.38458
1.35508
1.36091
1.38693
1.40228
1.3697
1.25538
0.992043
0.593924
0.116478
-0.371658
0
1.55498
4.27157
7.67373
10.9418
13.1963
13.8384
12.775
10.4199
7.4847
4.68605
2.51737
1.16722
0.566231
0.496656
0.603571
0.707945
0.809582
0.909467
1.00948
1.11073
1.21303
1.31525
1.41529
1.51069
1.59927
1.68045
1.75426
1.82105
1.88169
1.93737
1.98935
2.03886
2.08698
2.13463
2.18265
2.23188
2.28337
2.33848
2.39896
2.4668
2.54397
2.63202
2.73168
2.84261
2.96325
3.09138
3.22448
3.3602
3.4967
3.63287
3.76819
3.90237
4.03478
4.1635
4.2844
4.39128
4.47691
4.53422
4.55781
4.5451
4.4969
4.41736
4.3132
4.19249
4.06325
3.93144
3.79994
3.66912
3.53803
3.4052
3.26907
3.12854
2.98331
2.83398
2.68191
2.52901
2.37742
2.22932
2.08686
1.95229
1.82783
1.71556
1.61762
1.53639
1.47461
1.43472
1.41821
1.4257
1.45659
1.5086
1.57879
1.66215
1.74905
1.82897
1.89246
1.93276
1.94677
1.93525
1.90226
1.85408
1.79796
1.74085
1.68755
1.64086
1.60195
1.57074
1.54678
1.52968
1.51935
1.51621
1.52108
1.53482
1.55799
1.59029
1.63083
1.67812
1.73019
1.78481
1.83974
1.8925
1.94046
1.98095
2.01182
2.03212
2.04269
2.04668
2.04969
2.05916
2.08329
2.1294
2.20242
2.30284
2.42656
2.56888
2.72489
2.88947
3.05776
3.22172
3.36947
3.4884
3.56492
3.58736
3.54988
3.45474
3.31179
3.13603
2.94499
2.7563
2.57983
2.42046
2.28277
2.17464
2.10043
2.05258
2.01896
1.98565
1.94015
1.87373
1.78248
1.66675
1.52974
1.3759
1.2095
1.03049
0.836369
0.626019
0.40441
0.180061
0
0.298882
1.43084
3.62833
6.76901
10.2995
13.3607
15.0891
14.9616
13.0176
9.84576
6.33786
3.33185
1.32098
0.356535
0.157756
0.33217
0.489631
0.63882
0.774246
0.891264
0.992042
1.08029
1.15863
1.22955
1.29578
1.35978
1.42359
1.48825
1.55356
1.61813
1.67989
1.73679
1.78764
1.83271
1.87386
1.91428
1.95785
2.00822
2.06789
2.1378
2.21755
2.30553
2.39935
2.4964
2.59435
2.6915
2.78691
2.88034
2.97202
3.06243
3.15201
3.24102
3.32934
3.41642
3.50131
3.58269
3.65903
3.72881
3.79059
3.84314
3.88535
3.91593
3.93302
3.93298
3.90983
3.85801
3.77158
3.64548
3.47707
3.26739
3.02191
2.75038
2.46583
2.18291
1.91386
1.6691
1.45945
1.30081
1.20436
1.15297
1.12223
1.08772
1.03221
0.950318
0.849091
0.744316
0.653957
0.59095
0.55452
0.542369
0.541701
0.537045
0.515965
0.473559
0.41409
0.349187
0.293335
0.258521
0.246952
0.252337
0.268909
0.292081
0.31702
0.339501
0.356428
0.366011
0.367673
0.361791
0.349459
0.332127
0.311442
0.289092
0.266702
0.245823
0.228
0.214922
0.208665
0.211836
0.22698
0.256281
0.300919
0.360474
0.432606
0.513196
0.596966
0.678469
0.753232
0.818609
0.87432
0.922468
0.96705
1.01308
1.06552
1.1304
1.21464
1.31784
1.42542
1.51737
1.57353
1.57841
1.52401
1.41075
1.24691
1.04774
0.834074
0.627632
0.442072
0.284298
0.157254
0.0634701
0.00205688
-0.0308088
-0.0410408
-0.0356989
-0.0224384
-0.00838814
0
0.0043272
-0.0106417
-0.0507069
-0.12046
-0.222423
-0.370943
-0.557916
-0.76846
-1.26413
-1.19333
-0.0988141
2.16634
5.28967
8.52637
10.9403
11.7705
10.7522
8.22831
4.99152
1.9394
-0.277309
-1.44365
-1.74226
-1.52861
-1.27125
-1.01823
-0.777344
-0.554805
-0.353901
-0.17306
-0.0113101
0.13202
0.258621
0.370421
0.469671
0.55914
0.641414
0.71794
0.789497
0.85612
0.917685
0.97475
1.02918
1.08431
1.14452
1.21443
1.29796
1.39659
1.50989
1.63644
1.77382
1.91861
2.0667
2.21372
2.35545
2.48815
2.60896
2.71617
2.80938
2.88949
2.95862
3.01976
3.07646
3.13234
3.19068
3.25408
3.32423
3.40164
3.48523
3.57051
3.64779
3.70467
3.72844
3.70871
3.63987
3.52259
3.36375
3.17483
2.96927
2.76012
2.55522
2.35816
2.17168
1.99764
1.83721
1.69121
1.56038
1.44542
1.34691
1.26546
1.20106
1.15196
1.11543
1.08813
1.06676
1.0487
1.0326
1.01866
1.00854
1.00512
1.0114
1.02973
1.0609
1.10497
1.15823
1.21468
1.26763
1.31119
1.34133
1.35635
1.3567
1.34439
1.32235
1.29456
1.26455
1.23543
1.21031
1.19215
1.18335
1.18531
1.19842
1.22216
1.25412
1.28985
1.32443
1.35353
1.37426
1.3858
1.38947
1.38851
1.38741
1.39134
1.40473
1.43092
1.47269
1.53213
1.61008
1.70609
1.81856
1.94511
2.08202
2.22413
2.36443
2.49356
2.60016
2.67425
2.70695
2.69208
2.6281
2.51977
2.37836
2.21977
2.0609
1.915
1.78574
1.67083
1.56959
1.48028
1.40115
1.33103
1.26941
1.21592
1.16938
1.12681
1.08337
1.0314
0.961593
0.864495
0.732345
0.560838
0.342361
0.0850304
-0.223362
-0.484946
0
1.50552
3.98713
7.01998
9.8816
11.7908
12.1952
10.9783
8.49457
5.42778
2.54048
0.422622
-0.668143
-0.825382
-0.369472
0.0279371
0.379761
0.654613
0.8351
0.964388
1.04939
1.09758
1.11966
1.12878
1.13919
1.16409
1.21312
1.29007
1.38923
1.50114
1.6178
1.73208
1.83793
1.93121
2.01025
2.07569
2.13012
2.17739
2.22196
2.26818
2.31994
2.38043
2.45197
2.53593
2.63272
2.74183
2.86182
2.99049
3.12492
3.2617
3.39724
3.52815
3.65173
3.76635
3.87164
3.96839
4.0581
4.14188
4.21933
4.28687
4.33784
4.3624
4.35049
4.29536
4.19613
4.05816
3.89111
3.70574
3.51088
3.31285
3.11424
2.91644
2.72092
2.5296
2.34501
2.1702
2.00839
1.8627
1.73636
1.63204
1.55074
1.49211
1.45535
1.43832
1.43591
1.44245
1.45268
1.46277
1.47081
1.47677
1.48187
1.48754
1.49446
1.50206
1.5086
1.51135
1.50744
1.49469
1.47239
1.44177
1.40598
1.36949
1.33725
1.31345
1.30069
1.30072
1.3119
1.32831
1.34283
1.34916
1.34375
1.32676
1.30196
1.27544
1.25377
1.2421
1.24153
1.25031
1.26632
1.28691
1.30922
1.33072
1.34974
1.36588
1.38004
1.39422
1.41113
1.43362
1.46407
1.50395
1.55347
1.61153
1.67682
1.74796
1.82365
1.90281
1.98447
2.06662
2.14362
2.20622
2.24309
2.24398
2.20319
2.12177
2.00709
1.87012
1.72144
1.56856
1.41491
1.26157
1.10947
0.960226
0.816521
0.681901
0.560259
0.455643
0.370603
0.304455
0.253566
0.212306
0.174226
0.1334
0.085557
0.0287743
-0.0364256
-0.107542
-0.253587
0
1.0208
3.00107
5.79882
8.88518
11.4567
12.7051
12.153
9.89854
6.6176
3.28576
0.752056
-0.597826
-0.903042
-0.601853
-0.249406
0.0679009
0.321415
0.494526
0.619832
0.721612
0.807871
0.881596
0.942528
0.990285
1.02573
1.05054
1.06791
1.08298
1.10257
1.13405
1.18362
1.25456
1.34481
1.4495
1.5627
1.67788
1.78956
1.89436
1.99138
2.0817
2.1674
2.25053
2.33236
2.41343
2.49396
2.57472
2.65764
2.74584
2.84308
2.95265
3.07632
3.21278
3.35863
3.50991
3.66186
3.80898
3.94549
4.06549
4.16287
4.23224
4.27002
4.27366
4.24209
4.17632
4.07971
3.95776
3.81744
3.66606
3.51045
3.35549
3.20388
3.0574
2.91706
2.7832
2.65575
2.53434
2.41854
2.30812
2.20324
2.10469
2.01401
1.93304
1.86367
1.80738
1.76526
1.73713
1.72205
1.71868
1.72564
1.74185
1.7665
1.799
1.83876
1.88407
1.93045
1.97073
1.99741
2.00498
1.99206
1.9626
1.92548
1.89243
1.87484
1.88045
1.90725
1.94999
2.00349
2.05951
2.10961
2.14691
2.16722
2.16951
2.15547
2.12864
2.09329
2.05358
2.01291
1.97366
1.93788
1.90794
1.88707
1.87921
1.88821
1.91748
1.96914
2.04325
2.13744
2.24721
2.36675
2.49023
2.61296
2.73254
2.84818
2.95998
3.06847
3.1735
3.27167
3.35512
3.41265
3.43326
3.40973
3.3409
3.23181
3.09198
2.93282
2.76574
2.60022
2.44173
2.29408
2.1613
2.04739
1.95589
1.89105
1.85865
1.86092
1.88708
1.91884
1.93665
1.92373
1.86901
1.76823
1.62314
1.43959
1.19211
0.860689
0.478512
0.0847092
-0.287273
0
1.19218
3.44294
6.55095
9.92225
12.7181
14.1568
13.8349
11.8975
8.9645
5.85607
3.26761
1.55757
0.727889
0.552399
0.749865
0.914967
1.06473
1.19526
1.30683
1.40631
1.49901
1.58685
1.66997
1.74761
1.81833
1.88091
1.93506
1.98173
2.02296
2.06121
2.09871
2.13703
2.17699
2.21922
2.26449
2.31399
2.36936
2.43259
2.50561
2.58992
2.68625
2.79443
2.9135
3.04204
3.1784
3.32085
3.46765
3.61691
3.76646
3.91375
4.05589
4.18984
4.31277
4.42262
4.51835
4.6
4.66859
4.72559
4.77204
4.80807
4.83246
4.84245
4.83425
4.80357
4.74674
4.66177
4.54889
4.41061
4.25118
4.07567
3.88955
3.69792
3.50475
3.31355
3.12799
2.95212
2.79009
2.64564
2.52239
2.42325
2.34724
2.29072
2.24858
2.21545
2.18684
2.15999
2.13408
2.10998
2.08952
2.07438
2.06543
2.06321
2.06722
2.07509
2.08363
2.09013
2.09333
2.09398
2.09467
2.09881
2.10951
2.12965
2.15589
2.17919
2.18876
2.17641
2.14013
2.08519
2.02236
1.96389
1.91919
1.88932
1.87025
1.85936
1.85374
1.85092
1.84947
1.84912
1.85027
1.85338
1.85838
1.86444
1.87023
1.8743
1.87567
1.87418
1.87069
1.86679
1.8644
1.86516
1.87003
1.87941
1.89317
1.91128
1.93428
1.96378
2.00248
2.0539
2.12182
2.21016
2.33307
2.52629
2.83995
3.23983
3.63127
3.93004
4.06354
3.99057
3.72398
3.33643
2.93846
2.63481
2.45013
2.31713
2.2048
2.10472
2.0153
1.93668
1.86929
1.81313
1.76525
1.72001
1.67131
1.61432
1.54691
1.47016
1.38749
1.30283
1.21849
1.13361
1.042
0.896971
0.595602
0.145188
-0.375437
-0.605518
0
1.63616
4.25359
7.48969
10.7102
13.1544
14.1714
13.4651
11.2319
8.10087
4.88936
2.29397
0.667646
-0.0220731
-0.062406
0.193775
0.440129
0.66473
0.855203
1.00087
1.11533
1.21001
1.29113
1.36271
1.42792
1.48939
1.54935
1.60964
1.67145
1.73524
1.80069
1.86668
1.93128
1.99223
2.04793
2.09809
2.1444
2.19054
2.24164
2.30325
2.38006
2.47473
2.58603
2.71071
2.84526
2.98583
3.12859
3.2702
3.40814
3.54077
3.66726
3.78742
3.9015
4.01008
4.11386
4.21362
4.31008
4.4038
4.49502
4.58346
4.66788
4.74524
4.80934
4.85164
4.86263
4.83279
4.75477
4.62556
4.44772
4.22936
3.98289
3.72305
3.46465
3.21676
2.98642
2.77969
2.60087
2.45351
2.34004
2.25786
2.19775
2.14879
2.1007
2.04609
1.98208
1.91075
1.83833
1.77322
1.72322
1.69289
1.68976
1.71002
1.74127
1.76942
1.78376
1.78062
1.76402
1.74334
1.72913
1.72892
1.74195
1.76379
1.79077
1.81946
1.84647
1.86884
1.88426
1.89101
1.88773
1.87353
1.84805
1.8116
1.76555
1.71248
1.65624
1.60162
1.55371
1.51695
1.49422
1.48741
1.49601
1.515
1.53793
1.55863
1.57267
1.57807
1.57536
1.5668
1.55549
1.54456
1.53639
1.53299
1.53646
1.54896
1.57263
1.60933
1.66018
1.72516
1.80316
1.89244
1.99016
2.09364
2.20101
2.31177
2.4272
2.5521
2.69577
2.86019
3.0256
3.16091
3.23581
3.23217
3.14911
3.00115
2.81194
2.60717
2.40849
2.22558
2.05975
1.91073
1.77893
1.66583
1.5727
1.50108
1.45351
1.42853
1.41749
1.41012
1.39675
1.37029
1.32722
1.26698
1.19026
1.09695
0.986194
0.842456
0.627266
0.342052
0.0125944
-0.33326
0
1.41029
4.0131
7.47381
11.0289
13.7167
14.7387
13.7824
11.1489
7.62111
4.14537
1.48427
-0.00610504
-0.404506
-0.0801857
0.258912
0.560685
0.796678
0.953001
1.06063
1.13752
1.18953
1.22416
1.25012
1.27658
1.31204
1.36305
1.43299
1.52083
1.62153
1.73023
1.84243
1.9543
2.06321
2.16777
2.26746
2.36169
2.44935
2.52932
2.60047
2.66259
2.71738
2.76891
2.82327
2.8874
2.96756
3.06712
3.18498
3.31813
3.46256
3.61328
3.76495
3.91262
4.05229
4.18099
4.29611
4.39531
4.47782
4.54361
4.59303
4.62664
4.64504
4.64834
4.63561
4.60239
4.54456
4.45765
4.33873
4.18834
4.0116
3.81783
3.61868
3.42539
3.24468
3.07916
2.92871
2.79051
2.66035
2.53406
2.40871
2.28325
2.15868
2.03771
1.92453
1.82568
1.74657
1.69151
1.66261
1.65905
1.67701
1.71033
1.75196
1.79559
1.83712
1.87509
1.91028
1.94445
1.97888
2.01292
2.04283
2.06277
2.06666
2.05041
2.01348
1.95939
1.89507
1.82943
1.77166
1.72805
1.701
1.69142
1.7031
1.74225
1.80758
1.88063
1.93889
1.96262
1.94179
1.88008
1.79335
1.7032
1.62838
1.57647
1.54038
1.51484
1.49683
1.48399
1.47535
1.47141
1.47363
1.48374
1.50282
1.53086
1.56784
1.61325
1.66623
1.72556
1.78971
1.85697
1.92523
1.99267
2.05839
2.12288
2.18823
2.25785
2.33575
2.42703
2.53951
2.67864
2.83299
2.97552
3.07715
3.11564
3.08221
2.98374
2.8397
2.67482
2.51086
2.35958
2.22095
2.09236
1.97257
1.86143
1.75899
1.66523
1.57974
1.50177
1.43058
1.36583
1.30788
1.25775
1.21672
1.1857
1.16613
1.15455
1.13763
1.09648
1.0108
0.809025
0.49479
0.111296
-0.423243
0
1.82532
4.98097
8.82346
12.3422
14.5413
14.8174
13.1672
10.1552
6.67006
3.58592
1.47163
0.46049
0.313339
0.571637
0.691609
0.799034
0.890501
0.965358
1.02775
1.082
1.13375
1.18882
1.2519
1.32563
1.41058
1.50532
1.60691
1.71081
1.81149
1.90389
1.98444
2.0518
2.10704
2.15347
2.19588
2.23961
2.28948
2.34892
2.41915
2.49969
2.58924
2.68631
2.78952
2.89797
3.01145
3.13031
3.25519
3.38655
3.52419
3.66692
3.8124
3.95685
4.09475
4.22047
4.32931
4.41851
4.48768
4.53861
4.57431
4.59782
4.61102
4.61462
4.60698
4.58528
4.54623
4.48689
4.40528
4.30082
4.1745
4.02919
3.86938
3.69994
3.52568
3.35131
3.18117
3.01895
2.86745
2.72862
2.60367
2.49349
2.39899
2.32061
2.25867
2.2132
2.18381
2.16957
2.16909
2.18065
2.20239
2.23238
2.26875
2.30971
2.35292
2.39499
2.43198
2.46
2.47607
2.47894
2.46962
2.45156
2.43016
2.41187
2.40274
2.4066
2.42476
2.45839
2.50578
2.56148
2.61828
2.66846
2.70496
2.72234
2.71756
2.69044
2.64405
2.58469
2.52083
2.46565
2.43225
2.43055
2.46447
2.53241
2.62293
2.71977
2.8062
2.86907
2.90143
2.90316
2.87969
2.84004
2.79472
2.75343
2.72262
2.70759
2.71265
2.74025
2.79071
2.86219
2.95107
3.05264
3.1621
3.27534
3.38951
3.50313
3.61563
3.72681
3.83628
3.94314
4.04576
4.14184
4.22811
4.29929
4.34845
4.36971
4.35717
4.30591
4.21338
4.08052
3.9124
3.71785
3.50847
3.29722
3.09471
2.90854
2.74588
2.61335
2.52387
2.50545
2.58234
2.72713
2.89056
3.02351
3.08921
3.06674
2.94556
2.71762
2.37496
1.88799
1.2777
0.595351
-0.10009
0
1.35137
4.11548
7.97367
12.125
15.4935
17.107
16.491
13.8769
10.0996
6.23385
3.16459
1.31058
0.607977
0.697941
1.10168
1.40797
1.68818
1.93294
2.1404
2.3186
2.46931
2.59522
2.6975
2.77544
2.82971
2.86134
2.87119
2.86193
2.83959
2.8138
2.79632
2.79846
2.82823
2.88399
2.96371
3.06333
3.17733
3.29961
3.42507
3.55042
3.67326
3.79181
3.90461
4.01018
4.10706
4.19419
4.27174
4.3413
4.40616
4.4713
4.54288
4.6273
4.7301
4.85481
5.00418
5.17872
5.37475
5.58635
5.80332
6.00912
6.19736
6.34697
6.40938
6.33054
6.0893
5.72294
5.31836
4.96999
4.72944
4.541
4.36952
4.20669
4.04984
3.8981
3.75233
3.61453
3.48703
3.37136
3.26829
3.17735
3.09696
3.02481
2.95837
2.8953
2.83384
2.77296
2.71252
2.65327
2.59704
2.54737
2.5094
2.48788
2.48663
2.50699
2.54674
2.60006
2.65778
2.70977
2.74747
2.76585
2.76424
2.74578
2.71581
2.68003
2.64313
2.60755
2.5745
2.54476
2.51912
2.49879
2.4855
2.48146
2.48959
2.51519
2.56609
2.64099
2.72134
2.78285
2.8038
2.77301
2.69391
2.58252
2.46084
2.34902
2.25799
2.18612
2.13078
2.09391
2.07753
2.08365
2.11378
2.16843
2.24663
2.34585
2.46225
2.59127
2.72798
2.86818
3.00882
3.14736
3.28159
3.4094
3.52821
3.63352
3.71725
3.76988
3.78152
3.74267
3.64752
3.49746
3.30315
3.08359
2.8619
2.65907
2.48239
2.32711
2.19166
2.07412
1.97205
1.8836
1.80823
1.74676
1.70088
1.6745
1.67103
1.68995
1.72172
1.74482
1.73322
1.6623
1.51477
1.28084
0.971773
0.613583
0.0109467
0
1.05845
3.32268
6.47601
9.79717
12.3973
13.5505
12.9637
10.8636
7.87171
4.74275
2.10463
0.307919
-0.58447
-0.71462
-0.225296
0.25707
0.689583
1.00487
1.15152
1.22054
1.25972
1.27872
1.28383
1.28151
1.27787
1.2781
1.28615
1.30487
1.33607
1.38058
1.4383
1.50813
1.58799
1.67498
1.76561
1.85624
1.94359
2.02539
2.10074
2.17026
2.23596
2.30084
2.36835
2.44178
2.52372
2.61581
2.71849
2.831
2.95141
3.07684
3.20368
3.32792
3.44527
3.55183
3.64443
3.72083
3.77986
3.82137
3.84597
3.8547
3.84862
3.82835
3.79393
3.74426
3.67731
3.5903
3.48027
3.34511
3.18448
2.9997
2.7948
2.57653
2.3538
2.13665
1.93479
1.75739
1.613
1.50685
1.43542
1.38698
1.34784
1.30606
1.25432
1.19148
1.1223
1.05574
1.00226
0.969904
0.960283
0.972124
1.00573
1.05908
1.12326
1.18507
1.23259
1.25807
1.2599
1.24297
1.21716
1.19437
1.18482
1.19273
1.21462
1.24679
1.28259
1.31458
1.33642
1.34424
1.33722
1.31721
1.28766
1.25228
1.21408
1.17492
1.13575
1.09737
1.06106
1.02888
1.00363
0.988358
0.98796
1.00792
1.04574
1.0861
1.10924
1.09793
1.04456
0.955317
0.849756
0.755208
0.698085
0.690838
0.722503
0.78631
0.874573
0.977445
1.08494
1.18913
1.28389
1.36599
1.43495
1.49297
1.54462
1.59629
1.65519
1.72809
1.81986
1.94202
2.09684
2.2614
2.4056
2.50188
2.5332
2.49591
2.3972
2.24948
2.06569
1.85925
1.64588
1.43596
154
319
486
650
820
988
1159
1336
1513
1686
1861
2031
2197
2362
2529
2698
2875
3055
3237
3419
3595
3723
3183
3318
3456
3591
3732
3500
3620
3741
0
0
0
0
0
0
0
0
0
0
0
0
0
0
0
0
0
0
0
0
0
0
0
0
0
0
0
0
0
0
0
0
0
0
0
0
0
0
0
0
0
0
0
0
0
0
0
0
0
0
0
0
0
0
0
0
0
0
0
0
0
0
0
0
0
0
0
0
0
0
0
0
0
0
0
0
0
0
0
0
0
0
0
0
0
0
0
0
0
0
0
0
0
0
0
0
0
0
0
0
0
0
0
0
0
0
0
0
0
0
0
0
0
0
0
0
0
0
0
0
0
0
0
0
0
0
0
0
0
0
0
0
0
0
0
0
0
0
0
0
0
0
0
0
0
0
0
0
0
0
0
0
0
0
0
0
0
0
0
0
0
0
0
0
0
0
0
0
0
0
0
0
0
0
0
0
0
0
0
0
0
0
0
0
0
0
0
0
0
0
0
0
0
0
0
0
0
0
0
0
0
0
0
0
0
0
0
0
0
0
0
0
0
0
0
0
0
0
0
0
0
0
0
0
0
0
0
0
0
0
0
0
0
0
0
0
0
0
0
0
0
0
0
0
0
0
0
0
0
0
0
0
0
0
0
0
0
0
0
0
0
0
0
0
0
0
0
0
0
0
0
0
0
0
0
0
0
0
0
0
0
0
0
0
0
0
0
0
0
0
0
0
0
0
0
0
0
0
0
0
0
0
0
0
0
0
0
0
0
0
0
0
0
0
0
0
0
0
0
0
0
0
0
0
0
0
0
0
0
0
0
0
0
0
0
0
0
0
0
0
0
0
0
0
0
0
0
0
0
0
0
0
0
0
0
0
0
0
0
0
0
0
0
0
0
0
0
0
0
0
0
0
0
0
0
0
0
0
0
0
0
0
0
0
0
0
0
0
0
0
0
0
0
0
0
0
0
0
0
0
0
0
0
0
0
0
0
0
0
0
0
0
0
0
0
0
0
0
0
0
0
0
0
0
0
0
0
0
0
0
0
0
0
0
0
0
0
0
0
0
0
0
0
0
0
0
0
0
0
0
0
0
0
0
0
0
0
0
0
0
0
0
0
0
0
0
0
0
0
0
0
0
0
0
0
0
0
0
0
0
0
0
0
0
0
0
0
0
0
0
0
0
0
0
0
0
0
0
0
0
0
0
0
0
0
0
0
0
0
0
0
0
0
0
0
0
0
0
0
0
0
0
0
0
0
0
0
0
0
0
0
0
0
0
0
0
0
0
0
0
0
0
0
0
0
0
0
0
0
0
0
0
0
0
0
0
0
0
0
0
0
0
0
0
0
0
0
0
0
0
0
0
0
0
0
0
0
0
0
0
0
0
0
0
0
0
0
0
0
0
0
0
0
0
0
0
0
0
0
0
0
0
0
0
0
0
0
0
0
0
0
0
0
0
0
0
0
0
0
0
0
0
0
0
0
0
0
0
0
0
0
0
0
0
0
0
0
0
0
0
0
0
0
0
0
0
0
0
0
0
0
0
0
0
0
0
0
0
0
0
0
0
0
0
0
0
0
0
0
0
0
0
0
0
0
0
0
0
0
0
0
0
0
0
0
0
0
0
0
0
0
0
0
0
0
0
0
0
0
0
0
0
0
0
0
0
0
0
0
0
0
0
0
0
0
0
0
0
0
0
0
0
0
0
0
0
0
0
0
0
0
0
0
0
0
0
0
0
0
0
0
0
0
0
0
0
0
0
0
0
0
0
0
0
0
0
0
0
0
0
0
0
0
0
0
0
0
0
0
0
0
0
0
0
0
0
0
0
0
0
0
0
0
0
0
0
0
0
0
0
0
0
0
0
0
0
0
0
0
0
0
0
0
0
0
0
0
0
0
0
0
0
0
0
0
0
0
0
0
0
0
0
0
0
0
0
0
0
0
0
0
0
0
0
0
0
0
0
0
0
0
0
0
0
0
0
0
0
0
0
0
0
0
0
0
0
0
0
0
0
0
0
0
0
0
0
0
0
0
0
0
0
0
0
0
0
0
0
0
0
0
0
0
0
0
0
0
0
0
0
0
0
0
0
0
0
0
0
0
0
0
0
0
0
0
0
0
0
0
0
0
0
0
0
0
0
0
0
0
0
0
0
0
0
0
0
0
0
0
0
0
0
0
0
0
0
0
0
0
0
0
0
0
0
0
0
0
0
0
0
0
0
0
0
0
0
0
0
0
0
0
0
0
0
0
0
0
0
0
0
0
0
0
0
0
0
0
0
0
0
0
0
0
0
0
0
0
0
0
0
0
0
0
0
0
0
0
0
0
0
0
0
0
0
0
0
0
0
0
0
0
0
0
0
0
0
0
0
0
0
0
0
0
0
0
0
0
0
0
0
0
0
0
0
0
0
0
0
0
0
0
0
0
0
0
0
0
0
0
0
0
0
0
0
0
0
0
0
0
0
0
0
0
0
0
0
0
0
0
0
0
0
0
0
0
0
0
0
0
0
0
0
0
0
0
0
0
0
0
0
0
0
0
0
0
0
0
0
0
0
0
0
0
0
0
0
0
0
0
0
0
0
0
0
0
0
0
0
0
0
0
0
0
0
0
0
0
0
0
0
0
0
0
0
0
0
0
0
0
0
0
0
0
0
0
0
0
0
0
0
0
0
0
0
0
0
0
0
0
0
0
0
0
0
0
0
0
0
0
0
0
0
0
0
0
0
0
0
0
0
0
0
0
0
0
0
0
0
0
0
0
0
0
0
0
0
0
0
0
0
0
0
0
0
0
0
0
0
0
0
0
0
0
0
0
0
0
0
0
0
0
0
0
0
0
0
0
0
0
0
0
0
0
0
0
0
0
0
0
0
0
0
0
0
0
0
0
0
0
0
0
0
0
0
0
0
0
0
0
0
0
0
0
0
0
0
0
0
0
0
0
0
0
0
0
0
0
0
0
0
0
0
0
0
0
0
0
0
0
0
0
0
0
0
0
0
0
0
0
0
0
0
0
0
0
0
0
0
0
0
0
0
0
0
0
0
0
0
0
0
0
0
0
0
0
0
0
0
0
0
0
0
0
0
0
0
0
0
0
0
0
0
0
0
0
0
0
0
0
0
0
0
0
0
0
0
0
0
0
0
0
0
0
0
0
0
0
0
0
0
0
0
0
0
0
0
0
0
0
0
0
0
0
0
0
0
0
0
0
0
0
0
0
0
0
0
0
0
0
0
0
0
0
0
0
0
0
0
0
0
0
0
0
0
0
0
0
0
0
0
0
0
0
0
0
0
0
0
0
0
0
0
0
0
0
0
0
0
0
0
0
0
0
0
0
0
0
0
0
0
0
0
0
0
0
0
0
0
0
0
0
0
0
0
0
0
0
0
0
0
0
0
0
0
0
0
0
0
0
0
0
0
0
0
0
0
0
0
0
0
0
0
0
0
0
0
0
0
0
0
0
0
0
0
0
0
0
0
0
0
0
0
0
0
0
0
0
0
0
0
0
0
0
0
0
0
0
0
0
0
0
0
0
0
0
0
0
0
0
0
0
0
0
0
0
0
0
0
0
0
0
0
0
0
0
0
0
0
0
0
0
0
0
0
0
0
0
0
0
0
0
0
0
0
0
0
0
0
0
0
0
0
0
0
0
0
0
0
0
0
0
0
0
0
0
0
0
0
0
0
0
0
0
0
0
0
0
0
0
0
0
0
0
0
0
0
0
0
0
0
0
0
0
0
0
0
0
0
0
0
0
0
0
0
0
0
0
0
0
0
0
0
0
0
0
0
0
0
0
0
0
0
0
0
0
0
0
0
0
0
0
0
0
0
0
0
0
0
0
0
0
0
0
0
0
0
0
0
0
0
0
0
0
0
0
0
0
0
0
0
0
0
0
0
0
0
0
0
0
0
0
0
0
0
0
0
0
0
0
0
0
0
0
0
0
0
0
0
0
0
0
0
0
0
0
0
0
0
0
0
0
0
0
0
0
0
0
0
0
0
0
0
0
0
0
0
0
0
0
0
0
0
0
0
0
0
0
0
0
0
0
0
0
0
0
0
0
0
0
0
0
0
0
0
0
0
0
0
0
0
0
0
0
0
0
0
0
0
0
0
0
0
0
0
0
0
0
0
0
0
0
0
0
0
0
0
0
0
0
0
0
0
0
0
0
0
0
0
0
0
0
0
0
0
0
0
0
0
0
0
0
0
0
0
0
0
0
0
0
0
0
0
0
0
0
0
0
0
0
0
0
0
0
0
0
0
0
0
0
0
0
0
0
0
0
0
0
0
0
0
0
0
0
0
0
0
0
0
0
0
0
0
0
0
0
0
0
0
0
0
0
0
0
0
0
0
0
0
0
0
0
0
0
0
0
0
0
0
0
0
0
0
0
0
0
0
0
0
0
0
0
0
0
0
0
0
0
0
0
0
0
0
0
0
0
0
0
0
0
0
0
0
0
0
0
0
0
0
0
0
0
0
0
0
0
0
0
0
0
0
0
0
0
0
0
0
0
0
0
0
0
0
0
0
0
0
0
0
0
0
0
0
0
0
0
0
0
0
0
0
0
0
0
0
0
0
0
0
0
0
0
0
0
0
0
0
0
0
0
0
0
0
0
0
0
0
0
0
0
0
0
0
0
0
0
0
0
0
0
0
0
0
0
0
0
0
0
0
0
0
0
0
0
0
0
0
0
0
0
0
0
0
0
0
0
0
0
0
0
0
0
0
0
0
0
0
0
0
0
0
0
0
0
0
0
0
0
0
0
0
0
0
0
0
0
0
0
0
0
0
0
0
0
0
0
0
0
0
0
0
0
0
0
0
0
0
0
0
0
0
0
0
0
0
0
0
0
0
0
0
0
0
0
0
0
0
0
0
0
0
0
0
0
0
0
0
0
0
0
0
0
0
0
0
0
0
0
0
0
0
0
0
0
0
0
0
0
0
0
0
0
0
0
0
0
0
0
0
0
0
0
0
0
0
0
0
0
0
0
0
0
0
0
0
0
0
0
0
0
0
0
0
0
0
0
0
0
0
0
0
0
0
0
0
0
0
0
0
0
0
0
0
0
0
0
0
0
0
0
0
0
0
0
0
0
0
0
0
0
0
0
0
0
0
0
0
0
0
0
0
0
0
0
0
0
0
0
0
0
0
0
0
0
0
0
0
0
0
0
0
0
0
0
0
0
0
0
0
0
0
0
0
0
0
0
0
0
0
0
0
0
0
0
0
0
0
0
0
0
0
0
0
0
0
0
0
0
0
0
0
0
0
0
0
0
0
0
0
0
0
0
0
0
0
0
0
0
0
0
0
0
0
0
0
0
0
0
0
0
0
0
0
0
0
0
0
0
0
0
0
0
0
0
0
0
0
0
0
0
0
0
0
0
0
0
0
0
0
0
0
0
0
0
0
0
0
0
0
0
0
0
0
0
0
0
0
0
0
0
0
0
0
0
0
0
0
0
0
0
0
0
0
0
0
0
0
0
0
0
0
0
0
0
0
0
0
0
0
0
0
0
0
0
0
0
0
0
0
0
0
0
0
0
0
0
0
0
0
0
0
0
0
0
0
0
0
0
0
0
0
0
0
0
0
0
0
0
0
0
0
0
0
0
0
0
0
0
0
0
0
0
0
0
0
0
0
0
0
0
0
0
0
0
0
0
0
0
0
0
0
0
0
0
0
0
0
0
0
0
0
0
0
0
0
0
0
0
0
0
0
0
0
0
0
0
0
0
0
0
0
0
0
0
0
0
0
0
0
0
0
0
0
0
0
0
0
0
0
0
0
0
0
0
0
0
0
0
0
0
0
0
0
0
0
0
0
0
0
0
0
0
0
0
0
0
0
0
0
0
0
0
0
0
0
0
0
0
0
0
0
0
0
0
0
0
0
0
0
0
0
0
0
0
0
0
0
0
0
0
0
0
0
0
0
0
0
0
0
0
0
0
0
0
0
0
0
0
0
0
0
0
0
0
0
0
0
0
0
0
0
0
0
0
0
0
0
0
0
0
0
0
0
0
0
0
0
0
0
0
0
0
0
0
0
0
0
0
0
0
0
0
0
0
0
0
0
0
0
0
0
0
0
0
0
0
0
0
0
0
0
0
0
0
0
0
0
0
0
0
0
0
0
0
0
0
0
0
0
0
0
0
0
0
0
0
0
0
0
0
0
0
0
0
0
0
0
0
0
0
0
0
0
0
0
0
0
0
0
0
0
0
0
0
0
0
0
0
0
0
0
0
0
0
0
0
0
0
0
0
0
0
0
0
0
0
0
0
0
0
0
0
0
0
0
0
0
0
0
0
0
0
0
0
0
0
0
0
0
0
0
0
0
0
0
0
0
0
0
0
0
0
0
0
0
0
0
0
0
0
0
0
0
0
0
0
0
0
0
0
0
0
0
0
0
0
0
0
0
0
0
0
0
0
0
0
0
0
0
0
0
0
0
0
0
0
0
0
0
0
0
0
0
0
0
0
0
0
0
0
0
0
0
0
0
0
0
0
0
0
0
0
0
0
0
0
0
0
0
0
0
0
0
0
0
0
0
0
0
0
0
0
0
0
0
0
0
0
0
0
0
0
0
0
0
0
0
0
0
0
0
0
0
0
0
0
0
0
0
0
0
0
0
0
0
0
0
0
0
0
0
0
0
0
0
0
0
0
0
0
0
0
0
0
0
0
0
0
0
0
0
0
0
0
0
0
0
0
0
0
0
0
0
0
0
0
0
0
0
0
0
0
0
0
0
0
0
0
0
0
0
0
0
0
0
0
0
0
0
0
0
0
0
0
0
0
0
0
0
0
0
0
0
0
0
0
0
0
0
0
0
0
0
0
0
0
0
0
0
0
0
0
0
0
0
0
0
0
0
0
0
0
0
0
0
0
0
0
0
0
0
0
0
0
0
0
0
0
0
0
0
0
0
0
0
0
0
0
0
0
0
0
0
0
0
0
0
0
0
0
0
0
0
0
0
0
0
0
0
0
0
0
0
0
0
0
0
0
0
0
0
0
0
0
0
0
0
0
0
0
0
0
0
0
0
0
0
0
0
0
0
0
0
0
0
0
0
0
0
0
0
0
0
0
0
0
0
0
0
0
0
0
0
0
0
0
0
0
0
0
0
0
0
0
0
0
0
0
0
0
0
0
0
0
0
0
0
0
0
0
0
0
0
0
0
0
0
0
0
0
0
0
0
0
0
0
0
0
0
0
0
0
0
0
0
0
0
0
0
0
0
0
0
0
0
0
0
0
0
0
0
0
0
0
0
0
0
0
0
0
0
0
0
0
0
0
0
0
0
0
0
0
0
0
0
0
0
0
0
0
0
0
0
0
0
0
0
0
0
0
0
0
0
0
0
0
0
0
0
0
0
0
0
0
0
0
0
0
0
0
0
0
0
0
0
0
0
0
0
0
0
0
0
0
0
0
0
0
0
0
0
0
0
0
0
0
0
0
0
0
0
0
0
0
0
0
0
0
0
0
0
0
0
0
0
0
0
0
0
0
0
0
0
0
0
0
0
0
0
0
0
0
0
0
0
0
0
0
0
0
0
0
0
0
0
0
0
0
0
0
0
0
0
0
0
0
0
0
0
0
0
0
0
0
0
0
0
0
0
0
0
0
0
0
0
0
0
0
0
0
0
0
0
0
0
0
0
0
0
0
0
0
0
0
0
0
0
0
0
0
0
0
0
0
0
0
0
0
0
0
0
0
0
0
0
0
0
0
0
0
0
0
0
0
0
0
0
0
0
0
0
0
0
0
0
0
0
0
0
0
0
0
0
0
0
0
0
0
0
0
0
0
0
0
0
0
0
0
0
0
0
0
0
0
0
0
0
0
0
0
0
0
0
0
0
0
0
0
0
0
0
0
0
0
0
0
0
0
0
0
0
0
0
0
0
0
0
0
0
0
0
0
0
0
0
0
0
0
0
0
0
0
0
0
0
0
0
0
0
0
0
0
0
0
0
0
0
0
0
0
0
0
0
0
0
0
0
0
0
0
0
0
0
0
0
0
0
0
0
0
0
0
0
0
0
0
0
0
0
0
0
0
0
0
0
0
0
0
0
0
0
0
0
0
0
0
0
0
0
0
0
0
0
0
0
0
0
0
0
0
0
0
0
0
0
0
0
0
0
0
0
0
0
0
0
0
0
0
0
0
0
0
0
0
0
0
0
0
0
0
0
0
0
0
0
0
0
0
0
0
0
0
0
0
0
0
0
0
0
0
0
0
0
0
0
0
0
0
0
0
0
0
0
0
0
0
0
0
0
0
0
0
0
0
0
0
0
0
0
0
0
0
0
0
0
0
0
0
0
0
0
0
0
0
0
0
0
0
0
0
0
0
0
0
0
0
0
0
0
0
0
0
0
0
0
0
0
0
0
0
0
0
0
0
0
0
0
0
0
0
0
0
0
0
0
0
0
0
0
0
0
0
0
0
0
0
0
0
0
0
0
0
0
0
0
0
0
0
0
0
0
0
0
0
