4.79313
4.9112
5.0111
5.09296
5.15822
5.20939
5.24956
5.28206
5.30991
5.33526
5.35899
5.3804
5.39736
5.40663
5.40442
5.38689
5.35065
5.29302
5.21232
5.10807
4.98178
4.83696
4.67801
4.50998
4.33844
4.16892
4.0062
3.8538
3.71381
3.5871
3.47423
3.37604
3.29354
3.22753
3.17909
3.14898
3.13701
3.14169
3.16016
3.18853
3.22245
3.25763
3.29045
3.31827
3.33881
3.35068
3.35327
3.34686
3.33267
3.31278
3.28996
3.26718
3.24711
3.23166
3.22157
3.21671
3.2161
3.2183
3.22171
3.22489
3.22674
3.22644
3.22338
3.21713
3.20729
3.19356
3.17582
3.15431
3.12983
3.10382
3.07833
3.0559
3.0391
3.03027
3.03109
3.04192
3.06143
3.08646
3.11214
3.13333
3.14604
3.14836
3.14072
3.12548
3.10597
3.08523
3.06511
3.0459
3.0271
3.00826
2.99002
2.97472
2.9664
2.97027
2.99174
3.03446
3.09913
3.18715
3.29887
3.43338
3.58806
3.76154
3.95285
4.15361
4.34646
4.51248
4.63492
4.70197
4.70791
4.65263
4.54046
4.37944
4.18132
3.96444
3.7444
3.53271
3.33734
3.16163
3.00639
2.871
2.75268
2.6472
2.54965
2.45511
2.359
2.25719
2.14598
2.02202
1.88191
1.72242
1.54069
1.32686
1.0606
0.750267
0.411396
0
0.0391508
0.946425
2.90752
5.78847
9.07815
11.9767
13.6405
13.5061
11.5463
8.30785
4.68398
1.5314
-0.660579
-1.87463
-2.42129
-2.71461
-3.00458
-3.29051
-3.56898
-3.83598
-4.08726
-4.31893
-4.52789
-4.71193
-4.8708
-5.0069
-5.12425
-5.22785
-5.32309
-5.41505
-5.50811
-5.60561
-5.70965
-5.8208
-5.93883
-6.06116
-6.18037
-6.28566
-6.36546
-6.41023
-6.41514
-6.38184
-6.31851
-6.23821
-6.15592
-6.08446
-6.02912
-5.99104
-5.97002
-5.96295
-5.96452
-5.96833
-5.96804
-5.95848
-5.93646
-5.90122
-5.85452
-5.79962
-5.74063
-5.68217
-5.62939
-5.58739
-5.56015
-5.55059
-5.56051
-5.59064
-5.64084
-5.71043
-5.79848
-5.90403
-6.02587
-6.16243
-6.31253
-6.47539
-6.65049
-6.83796
-7.03978
-7.26192
-7.51468
-7.79675
-8.07405
-8.29278
-8.39368
-8.33186
-8.09287
-7.69835
-7.20064
-6.6691
-6.16574
-5.69781
-5.25317
-4.8288
-4.42544
-4.04249
-3.67848
-3.33175
-3.00105
-2.68611
-2.38798
-2.10904
-1.85353
-1.62735
-1.43619
-1.28344
-1.17077
-1.09764
-1.06117
-1.0563
-1.07606
-1.11204
-1.15499
-1.19546
-1.22504
-1.23711
-1.22674
-1.19163
-1.13225
-1.05173
-0.95518
-0.848834
-0.739056
-0.63141
-0.530395
-0.439915
-0.362962
-0.300693
-0.25251
-0.216245
-0.18811
-0.162908
-0.134635
-0.097464
-0.0468292
0.0197304
0.101673
0.196365
0.301335
0.414252
0.533408
0.657973
0.787844
0.923223
1.06414
1.21005
1.35978
1.51171
1.66375
1.81288
1.95427
2.08113
2.18605
2.26148
2.30047
2.29814
2.25298
2.16752
2.04818
1.90419
1.74593
1.58324
1.42276
1.26756
1.11852
0.975922
0.839996
0.711027
0.589621
0.476725
0.373411
0.280518
0.198222
0.125627
0.0606194
0
-0.0485901
-0.101346
-0.162732
-0.238677
-0.330279
-0.436031
-0.667433
-0.512425
0.489867
2.47181
5.17271
7.97226
10.1025
10.9428
10.2612
8.28893
5.59962
2.86537
0.616928
-0.887469
-1.65693
-1.8043
-1.70459
-1.58293
-1.44256
-1.28278
-1.10096
-0.90386
-0.706146
-0.520316
-0.356153
-0.218863
-0.107002
-0.0159935
0.0564659
0.112117
0.153392
0.183253
0.205029
0.222487
0.239879
0.261937
0.293382
0.338268
0.399223
0.4768
0.569175
0.672614
0.781718
0.889864
0.991335
1.08255
1.16279
1.2342
1.30111
1.36892
1.44267
1.52591
1.61927
1.72151
1.8304
1.94181
2.04917
2.14529
2.22386
2.28046
2.31339
2.32394
2.31611
2.2956
2.26823
2.23831
2.20743
2.17442
2.13622
2.0885
2.0267
1.94699
1.84701
1.72623
1.58592
1.42881
1.25869
1.08031
0.898065
0.71657
0.54064
0.375179
0.224866
0.0937012
-0.0153854
-0.100853
-0.162937
-0.20405
-0.228196
-0.239982
-0.243883
-0.243694
-0.242271
-0.241563
-0.242792
-0.246655
-0.253349
-0.262624
-0.273605
-0.284683
-0.293595
-0.297669
-0.294286
-0.281409
-0.25825
-0.225033
-0.183036
-0.134417
-0.0830803
-0.033889
0.00880661
0.0419449
0.0641312
0.0754608
0.0768509
0.0691422
0.0524643
0.0266747
-0.00872574
-0.0530273
-0.103254
-0.153699
-0.196472
-0.220886
-0.203046
-0.132399
-0.0310089
0.0653008
0.123354
0.127604
0.0859283
0.0241486
-0.026873
-0.0443916
-0.0304665
0.00241547
0.0475838
0.102206
0.164049
0.231847
0.30523
0.384309
0.469183
0.559545
0.654429
0.752702
0.853387
0.955824
1.05979
1.1654
1.27285
1.3817
1.48933
1.58968
1.67414
1.73309
1.75794
1.74301
1.68681
1.59236
1.46667
1.31948
1.16221
1.00437
0.851864
0.708072
0.575282
0.455205
0.348873
0.256858
0.179366
0.116147
0.0665401
0.0291569
0
-0.022187
-0.0524364
-0.10067
-0.192582
-0.394225
-0.697858
-1.07419
-1.48657
-1.42178
-0.539839
1.39018
4.30087
7.71002
10.7926
12.6628
12.7477
11.0498
8.14248
4.90298
2.13959
0.307338
-0.570269
-0.784967
-0.723816
-0.624482
-0.499733
-0.337012
-0.134491
0.0949421
0.325447
0.526654
0.675492
0.778569
0.852829
0.905895
0.947058
0.985187
1.02698
1.07559
1.13273
1.19951
1.27698
1.36637
1.46456
1.55899
1.63426
1.67727
1.68321
1.65974
1.62659
1.61008
1.63452
1.71391
1.83254
1.97497
2.13359
2.29996
2.46615
2.6261
2.7752
2.90992
3.02856
3.13071
3.21706
3.28939
3.35052
3.40415
3.45443
3.50543
3.56045
3.62208
3.69129
3.76248
3.8209
3.84801
3.8266
3.74632
3.60759
3.42215
3.20972
2.99193
2.78544
2.593
2.41232
2.24253
2.08199
1.92907
1.78291
1.64384
1.51337
1.3938
1.28762
1.19683
1.12246
1.06418
1.01989
0.985759
0.95717
0.929591
0.899492
0.865124
0.827017
0.788095
0.753344
0.729063
0.722865
0.754176
0.855479
1.01698
1.19199
1.32549
1.37651
1.3339
1.21849
1.07199
0.939341
0.852861
0.806308
0.782657
0.772784
0.772218
0.776948
0.783532
0.789515
0.793576
0.795391
0.795298
0.793842
0.791387
0.787898
0.782904
0.775663
0.765456
0.751922
0.73536
0.716937
0.698761
0.683968
0.676612
0.680801
0.700161
0.737154
0.792548
0.865192
0.952195
1.04947
1.1525
1.25701
1.35978
1.45852
1.55141
1.63676
1.71266
1.7766
1.82505
1.85366
1.85795
1.83372
1.77798
1.68974
1.57071
1.42558
1.26175
1.08861
0.916257
0.753262
0.605347
0.476718
0.369232
0.282581
0.214268
0.158846
0.109345
0.0585651
0
-0.0662273
-0.148726
-0.249043
-0.367082
-0.504454
-0.661604
-0.83293
-1.01172
-1.2023
-0.829572
0.476082
2.78823
5.74735
8.63115
10.6157
11.1032
9.95991
7.55463
4.59212
1.8248
-0.218994
-1.37261
-1.7914
-1.72381
-1.56872
-1.38051
-1.15943
-0.914674
-0.671038
-0.45586
-0.278934
-0.137487
-0.0230221
0.0718857
0.149992
0.213601
0.265713
0.30983
0.349662
0.388713
0.429745
0.474261
0.522591
0.572852
0.622023
0.667207
0.706978
0.742346
0.776973
0.816526
0.867335
0.934797
1.02044
1.12315
1.24065
1.36985
1.50723
1.64938
1.79349
1.9376
2.08045
2.22113
2.35867
2.49172
2.61839
2.73633
2.8431
2.93638
3.01424
3.07517
3.11804
3.14182
3.14563
3.12859
3.08993
3.02928
2.94696
2.84433
2.72396
2.58954
2.44563
2.29706
2.14816
2.00236
1.86192
1.72778
1.59997
1.4782
1.36253
1.25419
1.15565
1.07
1.00062
0.950323
0.920723
0.911937
0.922752
0.951064
0.994336
1.04942
1.11458
1.18771
1.26223
1.32796
1.37415
1.39264
1.38118
1.34518
1.29705
1.25309
1.22911
1.23259
1.26004
1.3098
1.38139
1.46509
1.54601
1.61012
1.64765
1.6553
1.63649
1.59983
1.55644
1.51705
1.48828
1.47144
1.46659
1.47442
1.49484
1.52485
1.55857
1.58941
1.6113
1.61985
1.61327
1.59263
1.56159
1.52557
1.49077
1.46256
1.44492
1.44082
1.45234
1.48076
1.52657
1.58901
1.66598
1.75484
1.85157
1.95015
2.04523
2.13358
2.21515
2.29333
2.37464
2.47644
2.63272
2.83677
3.04059
3.18297
3.21829
3.13427
2.95308
2.72018
2.48891
2.30603
2.17444
2.07505
1.99479
1.92783
1.86805
1.80905
1.74527
1.67291
1.59035
1.49798
1.39753
1.2911
1.18046
1.06627
0.947665
0.822107
0.68447
0.529837
0.360396
0.182255
0
0.234064
1.239
3.24254
6.11671
9.29344
11.9079
13.1293
12.5258
10.2738
7.09421
3.93804
1.58502
0.359388
0.0970356
0.344879
0.463889
0.575365
0.673367
0.753001
0.811546
0.848673
0.866685
0.870464
0.866988
0.864331
0.870225
0.890447
0.926896
0.976639
1.03664
1.1002
1.15927
1.20673
1.23814
1.25278
1.25394
1.2483
1.24474
1.25276
1.27968
1.32915
1.40241
1.49888
1.61577
1.74807
1.8891
2.03136
2.16726
2.29051
2.39707
2.48557
2.55749
2.6167
2.66875
2.71992
2.77629
2.8426
2.92177
3.01637
3.1284
3.25553
3.38601
3.5022
3.58655
3.62507
3.60977
3.53967
3.42028
3.26231
3.07979
2.88847
2.70157
2.52601
2.36453
2.21774
2.08578
1.96708
1.85889
1.75804
1.66148
1.56674
1.47208
1.37648
1.27952
1.18139
1.08286
0.986025
0.895371
0.816926
0.757404
0.72248
0.71501
0.733874
0.77387
0.826679
0.882566
0.932784
0.972569
0.998753
1.00989
1.00654
0.990919
0.966349
0.936639
0.905547
0.876228
0.85085
0.830803
0.816534
0.807738
0.80312
0.800766
0.798607
0.794847
0.788276
0.778394
0.765333
0.74964
0.732045
0.713353
0.694349
0.675929
0.659197
0.645438
0.635917
0.631622
0.633374
0.640557
0.649488
0.65505
0.652765
0.640821
0.621412
0.600711
0.587368
0.590053
0.615035
0.661612
0.725739
0.804549
0.895881
0.997947
1.1113
1.24267
1.41563
1.67101
1.97998
2.26513
2.44369
2.461
2.31012
2.03162
1.69665
1.38339
1.1568
1.00657
0.896232
0.807021
0.731279
0.664814
0.60374
0.544102
0.482343
0.41578
0.342955
0.263757
0.179102
0.0906742
0
-0.0950737
-0.193218
-0.297683
-0.414433
-0.562085
-0.769852
-1.03446
-1.33447
-1.66532
-1.36365
-0.193019
1.91924
4.76984
7.86129
10.4893
11.9431
11.7714
9.98993
7.10667
3.92595
1.22128
-0.545822
-1.32118
-1.35701
-1.12902
-0.966968
-0.831392
-0.726903
-0.653025
-0.598004
-0.556266
-0.521893
-0.489516
-0.45512
-0.416425
-0.372226
-0.322111
-0.266232
-0.205049
-0.139287
-0.0699509
0.00162277
0.0737888
0.14472
0.212642
0.276142
0.334448
0.387645
0.43675
0.483657
0.530972
0.581745
0.639168
0.70622
0.785321
0.877969
0.984445
1.10359
1.23275
1.36802
1.50444
1.6355
1.75517
1.85914
1.94569
2.016
2.07364
2.12346
2.17004
2.21622
2.26219
2.30509
2.33981
2.36034
2.36095
2.33706
2.28547
2.20445
2.09378
1.95759
1.80107
1.62888
1.44708
1.26276
1.08326
0.914657
0.761819
0.628016
0.514571
0.420941
0.345067
0.283878
0.233851
0.19156
0.154123
0.119516
0.0867378
0.0558315
0.0277546
0.00417023
-0.012841
-0.0211018
-0.0186691
-0.00417938
0.0228558
0.0631527
0.116936
0.178877
0.238109
0.283037
0.304547
0.298825
0.268626
0.222412
0.171779
0.128204
0.0986732
0.0832272
0.0802807
0.089209
0.108046
0.130702
0.149088
0.155919
0.146727
0.121297
0.0839348
0.0423103
0.00523567
-0.0198288
-0.0305763
-0.0287251
-0.0154892
0.00667534
0.0347981
0.0659222
0.0978699
0.129217
0.159264
0.187903
0.215418
0.242265
0.268901
0.295706
0.323016
0.351258
0.381158
0.413942
0.451448
0.496098
0.550672
0.617934
0.700056
0.799719
0.921991
1.06851
1.22888
1.38585
1.52141
1.62025
1.67163
1.66955
1.61226
1.50237
1.34786
1.1645
0.971014
0.786335
0.625821
0.493108
0.383263
0.293644
0.22193
0.164987
0.119691
0.083514
0.0547035
0.0320511
0.01437
0
-0.000437164
-0.00560226
-0.0215717
-0.0666458
-0.220895
-0.558636
-1.02127
-1.52551
-1.75631
-1.20404
0.332341
2.84776
6.00065
9.14339
11.4984
12.4284
11.6874
9.52252
6.56717
3.57977
1.16599
-0.384252
-1.09467
-1.17877
-0.87207
-0.565571
-0.2737
-0.0186913
0.17769
0.327354
0.44774
0.547937
0.632494
0.704338
0.766294
0.821779
0.874437
0.927728
0.984562
1.04693
1.11586
1.1916
1.27374
1.36136
1.45328
1.54824
1.64509
1.74289
1.8409
1.93854
2.03536
2.13098
2.22519
2.31807
2.41012
2.50238
2.59639
2.69404
2.79727
2.90765
3.02604
3.15224
3.28516
3.42283
3.56132
3.69358
3.81159
3.90807
3.97806
4.02028
4.03734
4.03487
4.01955
3.99681
3.96919
3.93636
3.89622
3.84552
3.78084
3.69972
3.60126
3.48642
3.35781
3.21921
3.0749
2.92889
2.78439
2.64373
2.50853
2.38013
2.26002
2.15039
2.05475
1.97629
1.91782
1.88122
1.86931
1.87894
1.90502
1.94178
1.98436
2.02974
2.07683
2.12569
2.17638
2.22754
2.27542
2.31508
2.34239
2.35608
2.35872
2.35605
2.35499
2.36101
2.3756
2.39682
2.42083
2.44284
2.45878
2.46649
2.46607
2.45939
2.44899
2.4371
2.42475
2.41195
2.39811
2.38253
2.36479
2.34501
2.32385
2.30237
2.28171
2.26281
2.2462
2.23205
2.22041
2.21155
2.20641
2.20631
2.21286
2.22743
2.25068
2.28217
2.3204
2.36323
2.40839
2.4542
2.49994
2.54602
2.59376
2.64514
2.70228
2.76704
2.84052
2.92283
3.01315
3.10843
3.2022
3.28629
3.35253
3.39399
3.40588
3.38561
3.33243
3.24688
3.13051
2.98832
2.82765
2.65549
2.47904
2.30643
2.14615
2.00642
1.89586
1.82333
1.79133
1.78731
1.79387
1.79307
1.77025
1.71644
1.62873
1.50903
1.36189
1.17059
0.915232
0.603597
0.257325
0
0.419529
1.9015
4.53375
7.93785
11.3182
13.7255
14.4309
13.2327
10.5438
7.20824
4.14087
1.97201
0.867234
0.587224
0.70623
0.784605
0.860001
0.93156
0.998906
1.06247
1.12313
1.18196
1.24021
1.29914
1.35978
1.42271
1.48797
1.5551
1.62313
1.69092
1.7577
1.82358
1.88978
1.95851
2.03244
2.11385
2.20382
2.30165
2.40506
2.50994
2.61184
2.70727
2.79467
2.87487
2.95075
3.02647
3.10641
3.19401
3.29098
3.39808
3.51553
3.64288
3.77919
3.92292
4.07214
4.224
4.37193
4.50661
4.61837
4.69955
4.7466
4.7609
4.7478
4.71422
4.66598
4.60611
4.53657
4.45753
4.36751
4.26559
4.15192
4.02781
3.89545
3.75772
3.61723
3.47614
3.33606
3.19818
3.06346
2.93297
2.80822
2.69154
2.58598
2.49452
2.41977
2.36344
2.32585
2.30578
2.30071
2.30719
2.32148
2.34003
2.35985
2.37871
2.39497
2.40732
2.41463
2.41589
2.41046
2.39823
2.37989
2.35711
2.33249
2.30935
2.29118
2.28103
2.28093
2.29152
2.31189
2.33964
2.37143
2.40231
2.4259
2.43621
2.42867
2.40124
2.35512
2.2949
2.2279
2.1628
2.10795
2.06807
2.04406
2.03661
2.04476
2.06606
2.09645
2.13083
2.16378
2.19053
2.20767
2.21376
2.20965
2.1986
2.18592
2.17835
2.18296
2.20609
2.25142
2.31926
2.40864
2.51636
2.63848
2.76855
2.89652
3.0115
3.10378
3.16577
3.19246
3.18148
3.13273
3.04793
2.9302
2.78399
2.61649
2.43535
2.24772
2.06011
1.87821
1.70682
1.5497
1.40921
1.28622
1.18035
1.09047
1.01508
0.95264
0.901585
0.860117
0.826091
0.795013
0.7581
0.703977
0.620317
0.4832
0.260185
-0.0378201
-0.379352
-0.630291
0
1.79957
4.69449
8.17244
11.4163
13.5805
14.0952
12.868
10.2968
7.09611
4.02649
1.64911
0.203613
-0.370618
-0.27335
0.00195999
0.259743
0.473894
0.63181
0.741594
0.830544
0.910228
0.9854
1.0591
1.13381
1.21147
1.29318
1.37909
1.46843
1.5588
1.64575
1.72393
1.78831
1.83551
1.8648
1.87861
1.88226
1.88318
1.88964
1.90868
1.94474
1.99998
2.07458
2.16679
2.27331
2.38988
2.51195
2.63544
2.75729
2.87587
2.99093
3.10337
3.21467
3.32628
3.43897
3.55242
3.665
3.77386
3.87536
3.96567
4.04136
4.09976
4.13914
4.15852
4.1574
4.13542
4.09227
4.02769
3.94164
3.83474
3.70851
3.56552
3.40929
3.24406
3.07438
2.90446
2.73797
2.57775
2.42574
2.283
2.14993
2.02665
1.91352
1.81173
1.72367
1.65261
1.60196
1.57509
1.57433
1.59995
1.64995
1.72035
1.80618
1.90256
2.00505
2.11002
2.21473
2.31476
2.40442
2.47746
2.52893
2.55732
2.56594
2.56246
2.55669
2.55735
2.56921
2.58976
2.61501
2.64001
2.65953
2.66944
2.66759
2.65423
2.63176
2.60399
2.57516
2.54875
2.5266
2.50909
2.4945
2.47959
2.46098
2.43658
2.40656
2.3737
2.3429
2.32002
2.31053
2.3171
2.33968
2.37819
2.43137
2.49726
2.57346
2.65784
2.7488
2.84505
2.94548
3.04899
3.15428
3.25943
3.36101
3.45265
3.52566
3.57031
3.57683
3.53754
3.44918
3.31459
3.14319
2.9501
2.75381
2.57133
2.41138
2.27713
2.17336
2.10316
2.06541
2.05309
2.05343
2.05281
2.03925
2.00398
1.9421
1.85223
1.73559
1.59464
1.43207
1.24944
1.03746
0.792814
0.526186
0.2524
0
0.293101
1.28805
3.11469
5.67574
8.5743
11.1524
12.6787
12.6354
10.972
8.16934
5.04989
2.42114
0.750071
0.0447023
-0.0186676
0.131272
0.284037
0.442545
0.608283
0.777981
0.942852
1.095
1.2275
1.33635
1.42183
1.48494
1.53004
1.56415
1.59546
1.63155
1.67756
1.73876
1.81094
1.88249
1.94047
1.97612
1.98861
1.98564
1.98079
1.9888
2.02108
2.07747
2.15258
2.24272
2.34487
2.45559
2.57121
2.68819
2.80336
2.91412
3.0188
3.11689
3.20915
3.29753
3.38482
3.47413
3.56818
3.66889
3.77729
3.89223
4.00907
4.1199
4.21511
4.28516
4.32194
4.31946
4.27452
4.18733
4.06185
3.90574
3.72959
3.54541
3.36456
3.19435
3.03731
2.89447
2.76632
2.65185
2.549
2.45488
2.36589
2.2787
2.19097
2.10184
2.01212
1.92464
1.84342
1.7728
1.71658
1.67749
1.65704
1.65573
1.67335
1.70863
1.75952
1.82468
1.90249
1.98923
2.07752
2.15688
2.21694
2.24966
2.25113
2.22246
2.16946
2.10116
2.02754
1.95748
1.89636
1.84571
1.80584
1.77753
1.7618
1.75966
1.77259
1.80105
1.8422
1.88787
1.92551
1.94179
1.92594
1.87292
1.7857
1.67579
1.56144
1.46355
1.40029
1.39626
1.45393
1.54245
1.62152
1.66028
1.65124
1.61224
1.57592
1.57329
1.62044
1.69968
1.79499
1.89955
2.00929
2.12147
2.23489
2.34968
2.46682
2.58768
2.71265
2.83671
2.94744
3.02885
3.06601
3.05002
2.98142
2.87075
2.73568
2.59536
2.46435
2.34546
2.23461
2.12784
2.0224
1.91628
1.80879
1.70084
1.59476
1.49373
1.40083
1.31821
1.24651
1.18449
1.12877
1.07334
1.01059
0.932844
0.829973
0.686919
0.507207
0.302359
0
0.244726
1.35044
3.39959
6.17929
9.17868
11.6903
13.013
12.7082
10.8065
7.84334
4.66917
2.10327
0.603369
0.129189
0.265179
0.308026
0.350061
0.391844
0.434686
0.480018
0.529015
0.582308
0.639504
0.699109
0.758709
0.815616
0.86718
0.911307
0.946958
0.9745
0.995818
1.01409
1.03324
1.05721
1.08916
1.13063
1.18162
1.24118
1.30789
1.38022
1.45714
1.53835
1.62426
1.71566
1.81315
1.91659
2.0248
2.13552
2.24576
2.35245
2.45313
2.54658
2.63315
2.71466
2.79395
2.87423
2.95824
3.04765
3.1426
3.24179
3.34246
3.44058
3.53132
3.60947
3.66948
3.70556
3.71269
3.68668
3.62413
3.52303
3.38356
3.2088
3.00509
2.78178
2.55035
2.32275
2.10822
1.91366
1.74438
1.60325
1.49075
1.40546
1.34461
1.30472
1.28206
1.27287
1.27373
1.2812
1.29161
1.30064
1.30371
1.29676
1.27689
1.24299
1.19613
1.13954
1.07815
1.01774
0.963978
0.920807
0.889889
0.871985
0.866785
0.872706
0.887309
0.907313
0.928928
0.948356
0.962053
0.966938
0.960775
0.942408
0.911828
0.870235
0.820017
0.76459
0.708113
0.655042
0.609629
0.575147
0.553356
0.544947
0.54994
0.567657
0.594777
0.622734
0.640968
0.640343
0.616047
0.569834
0.510645
0.453022
0.413609
0.406788
0.435853
0.494728
0.579952
0.687017
0.810356
0.944308
1.08407
1.22665
1.3693
1.50698
1.63047
1.72677
1.78164
1.78548
1.73819
1.64991
1.53673
1.41341
1.28743
1.15874
1.02607
0.888765
0.747688
0.606226
0.469954
0.345467
0.238787
0.155844
0.097895
0.061377
0.0392487
0.0222935
0
-0.0473492
-0.119859
-0.225113
-0.368458
-0.583374
-0.891132
-1.26634
-1.67078
-1.9833
-1.55245
-0.238441
1.95396
4.73403
7.58001
9.89039
11.1613
11.1253
9.80667
7.49554
4.66268
1.84242
-0.488426
-2.01059
-2.62378
-2.34819
-1.74218
-1.07624
-0.555779
-0.346732
-0.335212
-0.352821
-0.375935
-0.39843
-0.415528
-0.424135
-0.423335
-0.41289
-0.392899
-0.363783
-0.326183
-0.280996
-0.229531
-0.173633
-0.115747
-0.0590954
-0.00710297
0.0373566
0.0726658
0.0990067
0.11855
0.135202
0.153943
0.179901
0.217398
0.268815
0.334494
0.413262
0.502912
0.600527
0.702929
0.807114
0.910524
1.01114
1.10746
1.19837
1.28306
1.36085
1.43105
1.49266
1.54439
1.5849
1.61281
1.62663
1.6249
1.60647
1.57066
1.51738
1.44708
1.36058
1.25901
1.1433
1.01387
0.870698
0.70822
0.512991
0.277741
0.0299332
-0.189021
-0.33833
-0.393541
-0.353645
-0.236414
-0.0667595
0.133737
0.350483
0.572414
0.79395
1.01197
1.22406
1.42795
1.62115
1.80062
1.96323
2.10668
2.2294
2.33049
2.40915
2.46389
2.49386
2.50002
2.48398
2.4483
2.39679
2.33456
2.26764
2.20219
2.14366
2.09548
2.05821
2.03164
2.01472
2.00533
2.00051
1.99669
1.98885
1.9714
1.93915
1.88836
1.81783
1.72963
1.62913
1.52403
1.42279
1.33282
1.257
1.1967
1.15167
1.11938
1.09648
1.07981
1.06731
1.05839
1.05398
1.05618
1.06768
1.09103
1.12775
1.17855
1.24344
1.32141
1.41039
1.50741
1.60878
1.71021
1.80698
1.89395
1.96558
2.01648
2.04198
2.03789
2.00074
1.92831
1.82013
1.6779
1.5057
1.30986
1.09849
0.881058
0.666442
0.462202
0.275355
0.111849
-0.0236412
-0.127258
-0.195035
-0.221321
-0.198636
-0.130356
-0.0506371
0
-0.00670013
-0.112498
-0.347542
-0.742559
-1.24773
-1.79539
-2.02053
-1.38766
0.157683
2.55435
5.49502
8.42533
10.645
11.5237
10.7618
8.55758
5.5616
2.61376
0.395937
-0.81212
-1.15167
-1.01144
-0.916505
-0.824432
-0.736961
-0.655547
-0.580856
-0.513968
-0.455557
-0.405883
-0.364644
-0.330746
-0.302171
-0.276041
-0.248927
-0.217358
-0.178391
-0.130334
-0.0729912
-0.0073288
0.0648956
0.141415
0.219342
0.295571
0.36776
0.434851
0.497317
0.557066
0.616972
0.680161
0.749258
0.825868
0.909834
1.00024
1.09609
1.1962
1.29942
1.40467
1.511
1.61751
1.72344
1.82817
1.93129
2.03256
2.13165
2.2277
2.31869
2.40092
2.46962
2.51933
2.54516
2.54406
2.51566
2.46219
2.38763
2.29626
2.19163
2.07659
1.95254
1.81968
1.67782
1.52744
1.37018
1.20884
1.04723
0.88966
0.740409
0.603207
0.480941
0.375571
0.288239
0.219991
0.170699
0.139631
0.12561
0.127516
0.14174
0.163935
0.189605
0.214815
0.236789
0.25419
0.267022
0.276207
0.283042
0.288777
0.294185
0.299656
0.305347
0.311332
0.317699
0.324535
0.3318
0.339137
0.345701
0.350127
0.350781
0.346199
0.335659
0.319696
0.300365
0.281107
0.266188
0.260126
0.268156
0.293827
0.334654
0.38207
0.425416
0.455243
0.46625
0.458902
0.439262
0.417187
0.4035
0.406431
0.428048
0.466145
0.517553
0.579272
0.647904
0.719971
0.792484
0.863279
0.931216
0.996293
1.05959
1.12305
1.18922
1.26069
1.34063
1.43337
1.54031
1.6524
1.7555
1.83385
1.87402
1.8676
1.81196
1.70957
1.56695
1.39406
1.20705
1.01841
0.837385
0.671223
0.524364
0.399376
0.297479
0.218202
0.159255
0.114971
0.078281
0.0420414
0
-0.0416718
-0.0967232
-0.168388
-0.264064
-0.402778
-0.595396
-0.834697
-1.10156
-1.22019
-0.665306
0.868821
3.41009
6.60912
9.79128
12.1466
13.0044
12.0919
9.66204
6.41317
3.22165
0.807528
-0.504544
-0.823615
-0.537739
-0.318288
-0.118345
0.0495882
0.180388
0.286043
0.376875
0.457297
0.530358
0.598836
0.665008
0.73046
0.795923
0.86108
0.924115
0.982034
1.0315
1.07005
1.0972
1.11524
1.12917
1.14579
1.17232
1.2149
1.2755
1.35361
1.44891
1.56025
1.68573
1.82266
1.969
2.12234
2.27501
2.4175
2.54183
2.64468
2.72921
2.80445
2.88185
2.97077
3.07473
3.18791
3.30373
3.41686
3.52236
3.61642
3.69659
3.76154
3.81034
3.84192
3.85484
3.8471
3.8164
3.76073
3.6789
3.57099
3.43856
3.28452
3.11311
2.92939
2.73859
2.54591
2.35667
2.1761
2.0092
1.86028
1.73279
1.62935
1.55057
1.49422
1.45653
1.43286
1.4186
1.40989
1.40409
1.39988
1.39713
1.39656
1.39921
1.40613
1.41807
1.43521
1.45702
1.4819
1.50637
1.52565
1.53505
1.53139
1.51409
1.48572
1.45154
1.41818
1.39196
1.37681
1.37307
1.38008
1.39552
1.41612
1.43834
1.45919
1.47626
1.4877
1.4921
1.48854
1.4765
1.45594
1.42743
1.3922
1.35221
1.3102
1.26991
1.23618
1.21382
1.2071
1.21906
1.25094
1.30184
1.36876
1.44707
1.5314
1.61674
1.69959
1.77866
1.85408
1.92731
2.00075
2.07712
2.15881
2.2473
2.34274
2.44392
2.54861
2.65329
2.75267
2.84023
2.90976
2.95565
2.97349
2.96054
2.91595
2.84074
2.73768
2.61103
2.46735
2.31418
2.15824
2.00578
1.86286
1.73507
1.62707
1.54213
1.48171
1.44511
1.4295
1.42963
1.43667
1.43829
1.42159
1.37456
1.28749
1.11979
0.857769
0.524354
0.156596
0
0.634841
2.21175
4.68442
7.71137
10.7039
12.969
13.9125
13.2465
11.1193
8.09302
4.94963
2.40085
0.842752
0.278627
0.438415
0.667257
0.878267
1.05671
1.19477
1.29287
1.35887
1.40557
1.44723
1.49614
1.55852
1.63438
1.72184
1.81809
1.91925
2.02061
2.11734
2.2054
2.28209
2.34645
2.39932
2.44318
2.48179
2.5195
2.56064
2.60875
2.66623
2.73435
2.81342
2.90304
3.00243
3.11068
3.22683
3.34978
3.4781
3.6098
3.74234
3.87236
3.99633
4.11146
4.21643
4.31172
4.39945
4.48268
4.56423
4.64553
4.72542
4.79932
4.86056
4.90235
4.91974
4.91059
4.87537
4.81624
4.73589
4.63854
4.52866
4.40914
4.2821
4.14975
4.01425
3.87734
3.74016
3.60321
3.46669
3.33095
3.19702
3.06693
2.94367
2.83088
2.73223
2.651
2.58948
2.54891
2.52944
2.53036
2.55058
2.58976
2.64719
2.71896
2.79536
2.86346
2.91054
2.92676
2.90761
2.85518
2.77784
2.68859
2.60222
2.53125
2.4811
2.4519
2.44239
2.45144
2.47615
2.51255
2.55576
2.59918
2.63587
2.65972
2.66628
2.65336
2.62153
2.57409
2.51671
2.45659
2.40122
2.35629
2.32529
2.31142
2.31572
2.33586
2.36704
2.40293
2.43592
2.45905
2.46778
2.46101
2.44165
2.41645
2.39491
2.38749
2.40327
2.44788
2.51874
2.61078
2.72
2.84108
2.96813
3.0956
3.21779
3.32853
3.42306
3.49811
3.55203
3.58511
3.59958
3.599
3.5872
3.56703
3.5395
3.50426
3.45942
3.40217
3.32989
3.24078
3.13418
3.01067
2.87215
2.72277
2.5672
2.41062
2.25907
2.11895
1.99681
1.90179
1.84486
1.8239
1.82099
1.81215
1.77348
1.68676
1.50998
1.16769
0.727533
0.257859
-0.20815
0
1.09364
3.25338
6.35456
9.8815
13.0211
14.9278
15.053
13.3784
10.4269
7.03851
4.03012
1.91359
0.797035
0.478024
0.672376
0.897244
1.10873
1.29257
1.43951
1.55352
1.64558
1.72226
1.78695
1.84286
1.8925
1.93772
1.97971
2.01941
2.05797
2.09704
2.13892
2.18623
2.24157
2.30686
2.38265
2.46832
2.56227
2.6622
2.76547
2.86951
2.97227
3.07248
3.16969
3.26421
3.35691
3.44898
3.54159
3.63568
3.73179
3.82997
3.92979
4.03055
4.13137
4.2315
4.33039
4.42776
4.52352
4.61759
4.70969
4.79892
4.88323
4.95841
5.01834
5.0564
5.0657
5.04045
4.97725
4.87582
4.73906
4.57241
4.38287
4.17951
3.97033
3.76097
3.5565
3.36168
3.18077
3.01728
2.87404
2.7529
2.65307
2.57227
2.50719
2.45406
2.40911
2.36904
2.33129
2.29411
2.25688
2.22031
2.1865
2.15883
2.14143
2.13836
2.1535
2.19059
2.25024
2.3276
2.41111
2.48589
2.53836
2.55899
2.54415
2.49682
2.42607
2.34508
2.26813
2.20675
2.16473
2.1398
2.12846
2.12831
2.13627
2.149
2.16324
2.17601
2.18466
2.18701
2.1815
2.16736
2.14486
2.11553
2.08215
2.04857
2.01927
1.9987
1.99053
1.9969
2.01842
2.05465
2.10142
2.15261
2.20246
2.24723
2.28632
2.3224
2.36067
2.40729
2.46762
2.54365
2.63409
2.73748
2.84952
2.96258
3.06595
3.14878
3.20142
3.21616
3.18794
3.11476
2.99793
2.84208
2.65503
2.44749
2.2333
2.02424
1.82903
1.6553
1.51195
1.4145
1.3842
1.41943
1.48961
1.5582
1.59327
1.57515
1.49849
1.36862
1.19535
0.987776
0.75638
0.507999
0.246698
-0.0713078
0
0.895582
2.82555
5.62846
8.74262
11.364
12.7386
12.4598
10.6287
7.80014
4.74323
2.14309
0.384374
-0.499227
-0.72337
-0.51408
-0.286074
-0.0376881
0.220491
0.470125
0.68936
0.873254
1.02555
1.15148
1.25597
1.34285
1.41437
1.47329
1.52275
1.56598
1.6061
1.64599
1.68819
1.73478
1.78721
1.84608
1.91105
1.98082
2.05279
2.12282
2.18633
2.23983
2.28212
2.31514
2.34414
2.37688
2.422
2.4868
2.57516
2.6845
2.80957
2.94335
3.07767
3.20538
3.32193
3.42592
3.51856
3.60195
3.67639
3.74167
3.7946
3.83056
3.84597
3.84002
3.81461
3.77267
3.71576
3.64262
3.55322
3.44508
3.31626
3.16732
3.00159
2.8246
2.64266
2.46139
2.28407
2.11256
1.94756
1.78901
1.63655
1.48999
1.34966
1.21644
1.09186
0.978038
0.877893
0.794785
0.731405
0.689702
0.670284
0.672522
0.697013
0.737695
0.784214
0.826479
0.857111
0.872902
0.874682
0.865697
0.84937
0.827563
0.800888
0.768645
0.730777
0.688886
0.646359
0.60747
0.576067
0.555059
0.542004
0.531481
0.51778
0.497797
0.472652
0.447176
0.427509
0.417988
0.41841
0.424746
0.430204
0.427916
0.413709
0.387833
0.35498
0.322657
0.298697
0.288858
0.293707
0.311348
0.341379
0.383414
0.437404
0.503601
0.582069
0.671972
0.770954
0.87541
0.979026
1.07445
1.15548
1.21883
1.26537
1.3004
1.33283
1.37356
1.43865
1.569
1.78082
2.02223
2.22241
2.32412
2.30649
2.18724
2.00566
1.79931
1.5912
1.39209
1.20498
1.03082
0.871166
0.728233
0.603978
0.497543
0.406979
0.33027
0.266241
0.214867
0.176698
0.153193
0.145787
0.140861
0.116912
0.0500031
-0.0785111
-0.275325
-0.532277
-0.872965
-0.906431
0
1.9864
4.84012
8.00291
10.7301
12.3243
12.3695
10.8756
8.27101
5.2404
2.47337
0.439286
-0.716739
-1.12881
-0.971795
-0.71099
-0.439001
-0.182445
0.0253197
0.166861
0.263745
0.334491
0.388553
0.431463
0.468873
0.505436
0.543988
0.585425
0.628827
0.672558
0.715454
0.757697
0.801007
0.848073
0.901469
0.962528
1.03082
1.10392
1.17848
1.25138
1.32089
1.38695
1.45088
1.51449
1.57918
1.64536
1.71274
1.78099
1.85012
1.92082
1.99458
2.07346
2.15966
2.25489
2.3598
2.47413
2.59601
2.71992
2.8371
2.93802
3.01407
3.05895
3.0695
3.04584
2.99092
2.90966
2.80781
2.6913
2.56471
2.43058
2.28979
2.14225
1.98763
1.82583
1.65785
1.48606
1.31408
1.14618
0.986605
0.838989
0.705324
0.585687
0.479064
0.384406
0.303741
0.242014
0.205773
0.203578
0.243285
0.329058
0.45917
0.625314
0.813596
1.00716
1.18622
1.33386
1.4393
1.49935
1.51854
1.50794
1.48301
1.46065
1.45609
1.4789
1.52872
1.60143
1.69892
1.82115
1.95899
2.09196
2.19805
2.25869
2.26294
2.21067
2.11326
1.99155
1.87147
1.77858
1.72437
1.70536
1.7152
1.74954
1.80771
1.88243
1.96126
2.03232
2.08695
2.12163
2.13835
2.14344
2.14524
2.15144
2.1663
2.18984
2.22078
2.25768
2.29901
2.3439
2.39274
2.44728
2.51052
2.58619
2.68272
2.82136
3.04006
3.34867
3.68238
3.96586
4.14593
4.19607
4.11001
3.89308
3.5621
3.15754
2.757
2.44524
2.23123
2.07936
1.96305
1.87326
1.80655
1.75881
1.72553
1.70253
1.68618
1.67321
1.66039
1.64381
1.61827
1.57747
1.51422
1.40514
1.17571
0.833347
0.413582
-0.092782
0
1.03416
3.15901
6.18899
9.57022
12.4878
14.1244
13.9777
12.0873
9.03721
5.71375
2.93878
1.1699
0.413715
0.362202
0.543245
0.655418
0.752379
0.831809
0.893801
0.943535
0.98492
1.02124
1.05579
1.09148
1.13065
1.17503
1.22569
1.28306
1.34699
1.41658
1.49008
1.56486
1.63711
1.70144
1.75307
1.78888
1.80847
1.81497
1.815
1.8175
1.83177
1.86516
1.92147
1.99695
2.08652
2.18672
2.29438
2.40644
2.52005
2.63252
2.74103
2.84252
2.93419
3.01379
3.08016
3.1336
3.17601
3.21058
3.24119
3.27165
3.30478
3.3422
3.3835
3.42386
3.45414
3.46332
3.44091
3.37918
3.27479
3.12925
2.94837
2.74102
2.51808
2.291
2.06749
1.85343
1.65419
1.47425
1.31691
1.18411
1.07622
0.99227
0.930161
0.886242
0.854479
0.827395
0.798422
0.76323
0.720719
0.673302
0.626334
0.586705
0.560967
0.553695
0.569122
0.603307
0.647147
0.689326
0.718991
0.727915
0.711756
0.67042
0.607844
0.531424
0.451435
0.378212
0.321478
0.29807
0.346734
0.489351
0.677557
0.844181
0.929712
0.904033
0.775328
0.584305
0.388405
0.243121
0.173876
0.155344
0.16429
0.191979
0.230587
0.272743
0.313237
0.350096
0.3846
0.420196
0.460711
0.508599
0.563558
0.623139
0.68491
0.746864
0.808451
0.871072
0.937882
1.01298
1.10031
1.20262
1.31998
1.45085
1.59313
1.74456
1.90248
2.06039
2.2053
2.32142
2.39257
2.40694
2.36175
2.26451
2.12971
1.9728
1.8055
1.63615
1.4696
1.30949
1.16135
1.03097
0.92358
0.849541
0.816622
0.81513
0.829551
0.843898
0.846817
0.833821
0.805595
0.763456
0.704629
0.623028
0.511452
0.346656
0.103241
-0.209451
-0.562809
-0.758351
0
1.99574
5.11899
8.76795
12.0071
13.902
13.8968
12.0498
8.99907
5.67437
2.90315
1.11399
0.272466
0.0440712
0.10345
0.213594
0.339323
0.480963
0.632553
0.782199
0.916423
1.02436
1.10011
1.14422
1.1641
1.17159
1.179
1.19526
1.22243
1.2573
1.29683
1.338
1.3786
1.41792
1.45686
1.49749
1.5424
1.59379
1.65274
1.71958
1.79382
1.87405
1.95826
2.04406
2.12909
2.21154
2.29049
2.36605
2.43924
2.51167
2.5851
2.66098
2.74015
2.82272
2.90817
2.99538
3.08271
3.16795
3.24796
3.31866
3.37587
3.41557
3.43429
3.4296
3.40039
3.34686
3.27028
3.17252
3.05563
2.92242
2.77523
2.61546
2.44396
2.26169
2.07019
1.87198
1.67084
1.47179
1.28067
1.10336
0.946691
0.818548
0.720393
0.648331
0.59626
0.558024
0.529082
0.506993
0.490653
0.479499
0.470591
0.459369
0.44119
0.413534
0.377595
0.338318
0.302926
0.278736
0.27031
0.276786
0.297142
0.331226
0.378018
0.435642
0.501335
0.571636
0.642123
0.708129
0.765336
0.81037
0.841242
0.857573
0.860582
0.85293
0.838477
0.821856
0.808008
0.801627
0.80638
0.824203
0.85521
0.897638
0.946765
0.997149
1.0441
1.08483
1.11899
1.1484
1.17621
1.20588
1.24008
1.28027
1.32749
1.38244
1.4456
1.51724
1.59737
1.68555
1.78072
1.88106
1.9841
2.0869
2.18633
2.27939
2.36321
2.43488
2.49149
2.5307
2.55048
2.54893
2.5245
2.47637
2.40485
2.31166
2.19999
2.07439
1.94053
1.80414
1.67034
1.54335
1.42642
1.32181
1.23061
1.15273
1.08729
1.03214
0.982876
0.933512
0.877549
0.808854
0.722596
0.616015
0.487664
0.340022
0.177911
0
0.0647549
0.734445
2.30645
4.85911
8.09063
11.3079
13.6163
14.2629
12.9772
10.12
6.54811
3.25348
0.96727
-0.0711174
-0.094566
0.343924
0.497229
0.622618
0.715544
0.780885
0.837062
0.891182
0.948516
1.01176
1.08092
1.15398
1.22809
1.30063
1.36973
1.43423
1.49295
1.54525
1.59095
1.63062
1.66613
1.70106
1.74056
1.79042
1.85566
1.93901
2.03854
2.14959
2.26692
2.38329
2.4915
2.58605
145
326
509
684
862
1040
1220
1401
1580
1755
1934
2110
2288
2465
2644
2826
3000
3179
3355
3534
3711
3558
3722
3318
3456
3591
3732
3500
3620
3741
0
0
0
0
0
0
0
0
0
0
0
0
0
0
0
0
0
0
0
0
0
0
0
0
0
0
0
0
0
0
0
0
0
0
0
0
0
0
0
0
0
0
0
0
0
0
0
0
0
0
0
0
0
0
0
0
0
0
0
0
0
0
0
0
0
0
0
0
0
0
0
0
0
0
0
0
0
0
0
0
0
0
0
0
0
0
0
0
0
0
0
0
0
0
0
0
0
0
0
0
0
0
0
0
0
0
0
0
0
0
0
0
0
0
0
0
0
0
0
0
0
0
0
0
0
0
0
0
0
0
0
0
0
0
0
0
0
0
0
0
0
0
0
0
0
0
0
0
0
0
0
0
0
0
0
0
0
0
0
0
0
0
0
0
0
0
0
0
0
0
0
0
0
0
0
0
0
0
0
0
0
0
0
0
0
0
0
0
0
0
0
0
0
0
0
0
0
0
0
0
0
0
0
0
0
0
0
0
0
0
0
0
0
0
0
0
0
0
0
0
0
0
0
0
0
0
0
0
0
0
0
0
0
0
0
0
0
0
0
0
0
0
0
0
0
0
0
0
0
0
0
0
0
0
0
0
0
0
0
0
0
0
0
0
0
0
0
0
0
0
0
0
0
0
0
0
0
0
0
0
0
0
0
0
0
0
0
0
0
0
0
0
0
0
0
0
0
0
0
0
0
0
0
0
0
0
0
0
0
0
0
0
0
0
0
0
0
0
0
0
0
0
0
0
0
0
0
0
0
0
0
0
0
0
0
0
0
0
0
0
0
0
0
0
0
0
0
0
0
0
0
0
0
0
0
0
0
0
0
0
0
0
0
0
0
0
0
0
0
0
0
0
0
0
0
0
0
0
0
0
0
0
0
0
0
0
0
0
0
0
0
0
0
0
0
0
0
0
0
0
0
0
0
0
0
0
0
0
0
0
0
0
0
0
0
0
0
0
0
0
0
0
0
0
0
0
0
0
0
0
0
0
0
0
0
0
0
0
0
0
0
0
0
0
0
0
0
0
0
0
0
0
0
0
0
0
0
0
0
0
0
0
0
0
0
0
0
0
0
0
0
0
0
0
0
0
0
0
0
0
0
0
0
0
0
0
0
0
0
0
0
0
0
0
0
0
0
0
0
0
0
0
0
0
0
0
0
0
0
0
0
0
0
0
0
0
0
0
0
0
0
0
0
0
0
0
0
0
0
0
0
0
0
0
0
0
0
0
0
0
0
0
0
0
0
0
0
0
0
0
0
0
0
0
0
0
0
0
0
0
0
0
0
0
0
0
0
0
0
0
0
0
0
0
0
0
0
0
0
0
0
0
0
0
0
0
0
0
0
0
0
0
0
0
0
0
0
0
0
0
0
0
0
0
0
0
0
0
0
0
0
0
0
0
0
0
0
0
0
0
0
0
0
0
0
0
0
0
0
0
0
0
0
0
0
0
0
0
0
0
0
0
0
0
0
0
0
0
0
0
0
0
0
0
0
0
0
0
0
0
0
0
0
0
0
0
0
0
0
0
0
0
0
0
0
0
0
0
0
0
0
0
0
0
0
0
0
0
0
0
0
0
0
0
0
0
0
0
0
0
0
0
0
0
0
0
0
0
0
0
0
0
0
0
0
0
0
0
0
0
0
0
0
0
0
0
0
0
0
0
0
0
0
0
0
0
0
0
0
0
0
0
0
0
0
0
0
0
0
0
0
0
0
0
0
0
0
0
0
0
0
0
0
0
0
0
0
0
0
0
0
0
0
0
0
0
0
0
0
0
0
0
0
0
0
0
0
0
0
0
0
0
0
0
0
0
0
0
0
0
0
0
0
0
0
0
0
0
0
0
0
0
0
0
0
0
0
0
0
0
0
0
0
0
0
0
0
0
0
0
0
0
0
0
0
0
0
0
0
0
0
0
0
0
0
0
0
0
0
0
0
0
0
0
0
0
0
0
0
0
0
0
0
0
0
0
0
0
0
0
0
0
0
0
0
0
0
0
0
0
0
0
0
0
0
0
0
0
0
0
0
0
0
0
0
0
0
0
0
0
0
0
0
0
0
0
0
0
0
0
0
0
0
0
0
0
0
0
0
0
0
0
0
0
0
0
0
0
0
0
0
0
0
0
0
0
0
0
0
0
0
0
0
0
0
0
0
0
0
0
0
0
0
0
0
0
0
0
0
0
0
0
0
0
0
0
0
0
0
0
0
0
0
0
0
0
0
0
0
0
0
0
0
0
0
0
0
0
0
0
0
0
0
0
0
0
0
0
0
0
0
0
0
0
0
0
0
0
0
0
0
0
0
0
0
0
0
0
0
0
0
0
0
0
0
0
0
0
0
0
0
0
0
0
0
0
0
0
0
0
0
0
0
0
0
0
0
0
0
0
0
0
0
0
0
0
0
0
0
0
0
0
0
0
0
0
0
0
0
0
0
0
0
0
0
0
0
0
0
0
0
0
0
0
0
0
0
0
0
0
0
0
0
0
0
0
0
0
0
0
0
0
0
0
0
0
0
0
0
0
0
0
0
0
0
0
0
0
0
0
0
0
0
0
0
0
0
0
0
0
0
0
0
0
0
0
0
0
0
0
0
0
0
0
0
0
0
0
0
0
0
0
0
0
0
0
0
0
0
0
0
0
0
0
0
0
0
0
0
0
0
0
0
0
0
0
0
0
0
0
0
0
0
0
0
0
0
0
0
0
0
0
0
0
0
0
0
0
0
0
0
0
0
0
0
0
0
0
0
0
0
0
0
0
0
0
0
0
0
0
0
0
0
0
0
0
0
0
0
0
0
0
0
0
0
0
0
0
0
0
0
0
0
0
0
0
0
0
0
0
0
0
0
0
0
0
0
0
0
0
0
0
0
0
0
0
0
0
0
0
0
0
0
0
0
0
0
0
0
0
0
0
0
0
0
0
0
0
0
0
0
0
0
0
0
0
0
0
0
0
0
0
0
0
0
0
0
0
0
0
0
0
0
0
0
0
0
0
0
0
0
0
0
0
0
0
0
0
0
0
0
0
0
0
0
0
0
0
0
0
0
0
0
0
0
0
0
0
0
0
0
0
0
0
0
0
0
0
0
0
0
0
0
0
0
0
0
0
0
0
0
0
0
0
0
0
0
0
0
0
0
0
0
0
0
0
0
0
0
0
0
0
0
0
0
0
0
0
0
0
0
0
0
0
0
0
0
0
0
0
0
0
0
0
0
0
0
0
0
0
0
0
0
0
0
0
0
0
0
0
0
0
0
0
0
0
0
0
0
0
0
0
0
0
0
0
0
0
0
0
0
0
0
0
0
0
0
0
0
0
0
0
0
0
0
0
0
0
0
0
0
0
0
0
0
0
0
0
0
0
0
0
0
0
0
0
0
0
0
0
0
0
0
0
0
0
0
0
0
0
0
0
0
0
0
0
0
0
0
0
0
0
0
0
0
0
0
0
0
0
0
0
0
0
0
0
0
0
0
0
0
0
0
0
0
0
0
0
0
0
0
0
0
0
0
0
0
0
0
0
0
0
0
0
0
0
0
0
0
0
0
0
0
0
0
0
0
0
0
0
0
0
0
0
0
0
0
0
0
0
0
0
0
0
0
0
0
0
0
0
0
0
0
0
0
0
0
0
0
0
0
0
0
0
0
0
0
0
0
0
0
0
0
0
0
0
0
0
0
0
0
0
0
0
0
0
0
0
0
0
0
0
0
0
0
0
0
0
0
0
0
0
0
0
0
0
0
0
0
0
0
0
0
0
0
0
0
0
0
0
0
0
0
0
0
0
0
0
0
0
0
0
0
0
0
0
0
0
0
0
0
0
0
0
0
0
0
0
0
0
0
0
0
0
0
0
0
0
0
0
0
0
0
0
0
0
0
0
0
0
0
0
0
0
0
0
0
0
0
0
0
0
0
0
0
0
0
0
0
0
0
0
0
0
0
0
0
0
0
0
0
0
0
0
0
0
0
0
0
0
0
0
0
0
0
0
0
0
0
0
0
0
0
0
0
0
0
0
0
0
0
0
0
0
0
0
0
0
0
0
0
0
0
0
0
0
0
0
0
0
0
0
0
0
0
0
0
0
0
0
0
0
0
0
0
0
0
0
0
0
0
0
0
0
0
0
0
0
0
0
0
0
0
0
0
0
0
0
0
0
0
0
0
0
0
0
0
0
0
0
0
0
0
0
0
0
0
0
0
0
0
0
0
0
0
0
0
0
0
0
0
0
0
0
0
0
0
0
0
0
0
0
0
0
0
0
0
0
0
0
0
0
0
0
0
0
0
0
0
0
0
0
0
0
0
0
0
0
0
0
0
0
0
0
0
0
0
0
0
0
0
0
0
0
0
0
0
0
0
0
0
0
0
0
0
0
0
0
0
0
0
0
0
0
0
0
0
0
0
0
0
0
0
0
0
0
0
0
0
0
0
0
0
0
0
0
0
0
0
0
0
0
0
0
0
0
0
0
0
0
0
0
0
0
0
0
0
0
0
0
0
0
0
0
0
0
0
0
0
0
0
0
0
0
0
0
0
0
0
0
0
0
0
0
0
0
0
0
0
0
0
0
0
0
0
0
0
0
0
0
0
0
0
0
0
0
0
0
0
0
0
0
0
0
0
0
0
0
0
0
0
0
0
0
0
0
0
0
0
0
0
0
0
0
0
0
0
0
0
0
0
0
0
0
0
0
0
0
0
0
0
0
0
0
0
0
0
0
0
0
0
0
0
0
0
0
0
0
0
0
0
0
0
0
0
0
0
0
0
0
0
0
0
0
0
0
0
0
0
0
0
0
0
0
0
0
0
0
0
0
0
0
0
0
0
0
0
0
0
0
0
0
0
0
0
0
0
0
0
0
0
0
0
0
0
0
0
0
0
0
0
0
0
0
0
0
0
0
0
0
0
0
0
0
0
0
0
0
0
0
0
0
0
0
0
0
0
0
0
0
0
0
0
0
0
0
0
0
0
0
0
0
0
0
0
0
0
0
0
0
0
0
0
0
0
0
0
0
0
0
0
0
0
0
0
0
0
0
0
0
0
0
0
0
0
0
0
0
0
0
0
0
0
0
0
0
0
0
0
0
0
0
0
0
0
0
0
0
0
0
0
0
0
0
0
0
0
0
0
0
0
0
0
0
0
0
0
0
0
0
0
0
0
0
0
0
0
0
0
0
0
0
0
0
0
0
0
0
0
0
0
0
0
0
0
0
0
0
0
0
0
0
0
0
0
0
0
0
0
0
0
0
0
0
0
0
0
0
0
0
0
0
0
0
0
0
0
0
0
0
0
0
0
0
0
0
0
0
0
0
0
0
0
0
0
0
0
0
0
0
0
0
0
0
0
0
0
0
0
0
0
0
0
0
0
0
0
0
0
0
0
0
0
0
0
0
0
0
0
0
0
0
0
0
0
0
0
0
0
0
0
0
0
0
0
0
0
0
0
0
0
0
0
0
0
0
0
0
0
0
0
0
0
0
0
0
0
0
0
0
0
0
0
0
0
0
0
0
0
0
0
0
0
0
0
0
0
0
0
0
0
0
0
0
0
0
0
0
0
0
0
0
0
0
0
0
0
0
0
0
0
0
0
0
0
0
0
0
0
0
0
0
0
0
0
0
0
0
0
0
0
0
0
0
0
0
0
0
0
0
0
0
0
0
0
0
0
0
0
0
0
0
0
0
0
0
0
0
0
0
0
0
0
0
0
0
0
0
0
0
0
0
0
0
0
0
0
0
0
0
0
0
0
0
0
0
0
0
0
0
0
0
0
0
0
0
0
0
0
0
0
0
0
0
0
0
0
0
0
0
0
0
0
0
0
0
0
0
0
0
0
0
0
0
0
0
0
0
0
0
0
0
0
0
0
0
0
0
0
0
0
0
0
0
0
0
0
0
0
0
0
0
0
0
0
0
0
0
0
0
0
0
0
0
0
0
0
0
0
0
0
0
0
0
0
0
0
0
0
0
0
0
0
0
0
0
0
0
0
0
0
0
0
0
0
0
0
0
0
0
0
0
0
0
0
0
0
0
0
0
0
0
0
0
0
0
0
0
0
0
0
0
0
0
0
0
0
0
0
0
0
0
0
0
0
0
0
0
0
0
0
0
0
0
0
0
0
0
0
0
0
0
0
0
0
0
0
0
0
0
0
0
0
0
0
0
0
0
0
0
0
0
0
0
0
0
0
0
0
0
0
0
0
0
0
0
0
0
0
0
0
0
0
0
0
0
0
0
0
0
0
0
0
0
0
0
0
0
0
0
0
0
0
0
0
0
0
0
0
0
0
0
0
0
0
0
0
0
0
0
0
0
0
0
0
0
0
0
0
0
0
0
0
0
0
0
0
0
0
0
0
0
0
0
0
0
0
0
0
0
0
0
0
0
0
0
0
0
0
0
0
0
0
0
0
0
0
0
0
0
0
0
0
0
0
0
0
0
0
0
0
0
0
0
0
0
0
0
0
0
0
0
0
0
0
0
0
0
0
0
0
0
0
0
0
0
0
0
0
0
0
0
0
0
0
0
0
0
0
0
0
0
0
0
0
0
0
0
0
0
0
0
0
0
0
0
0
0
0
0
0
0
0
0
0
0
0
0
0
0
0
0
0
0
0
0
0
0
0
0
0
0
0
0
0
0
0
0
0
0
0
0
0
0
0
0
0
0
0
0
0
0
0
0
0
0
0
0
0
0
0
0
0
0
0
0
0
0
0
0
0
0
0
0
0
0
0
0
0
0
0
0
0
0
0
0
0
0
0
0
0
0
0
0
0
0
0
0
0
0
0
0
0
0
0
0
0
0
0
0
0
0
0
0
0
0
0
0
0
0
0
0
0
0
0
0
0
0
0
0
0
0
0
0
0
0
0
0
0
0
0
0
0
0
0
0
0
0
0
0
0
0
0
0
0
0
0
0
0
0
0
0
0
0
0
0
0
0
0
0
0
0
0
0
0
0
0
0
0
0
0
0
0
0
0
0
0
0
0
0
0
0
0
0
0
0
0
0
0
0
0
0
0
0
0
0
0
0
0
0
0
0
0
0
0
0
0
0
0
0
0
0
0
0
0
0
0
0
0
0
0
0
0
0
0
0
0
0
0
0
0
0
0
0
0
0
0
0
0
0
0
0
0
0
0
0
0
0
0
0
0
0
0
0
0
0
0
0
0
0
0
0
0
0
0
0
0
0
0
0
0
0
0
0
0
0
0
0
0
0
0
0
0
0
0
0
0
0
0
0
0
0
0
0
0
0
0
0
0
0
0
0
0
0
0
0
0
0
0
0
0
0
0
0
0
0
0
0
0
0
0
0
0
0
0
0
0
0
0
0
0
0
0
0
0
0
0
0
0
0
0
0
0
0
0
0
0
0
0
0
0
0
0
0
0
0
0
0
0
0
0
0
0
0
0
0
0
0
0
0
0
0
0
0
0
0
0
0
0
0
0
0
0
0
0
0
0
0
0
0
0
0
0
0
0
0
0
0
0
0
0
0
0
0
0
0
0
0
0
0
0
0
0
0
0
0
0
0
0
0
0
0
0
0
0
0
0
0
0
0
0
0
0
0
0
0
0
0
0
0
0
0
0
0
0
0
0
0
0
0
0
0
0
0
0
0
0
0
0
0
0
0
0
0
0
0
0
0
0
0
0
0
0
0
0
0
0
0
0
0
0
0
0
0
0
0
0
0
0
0
0
0
0
0
0
0
0
0
0
0
0
0
0
0
0
0
0
0
0
0
0
0
0
0
0
0
0
0
0
0
0
0
0
0
0
0
0
0
0
0
0
0
0
0
0
0
0
0
0
0
0
0
0
0
0
0
0
0
0
0
0
0
0
0
0
0
0
0
0
0
0
0
0
0
0
0
0
0
0
0
0
0
0
0
0
0
0
0
0
0
0
0
0
0
0
0
0
0
0
0
0
0
0
0
0
0
0
0
0
0
0
0
0
0
0
0
0
0
0
0
0
0
0
0
0
0
0
0
0
0
0
0
0
0
0
0
0
0
0
0
0
0
0
0
0
0
0
0
0
0
0
0
0
0
0
0
0
0
0
0
0
0
0
0
0
0
0
0
0
0
0
0
0
0
0
0
0
0
0
0
0
0
0
0
0
0
0
0
0
0
0
0
0
0
0
0
0
0
0
0
0
0
0
0
0
0
0
0
0
0
0
0
0
0
0
0
0
0
0
0
0
0
0
0
0
0
0
0
0
0
0
0
0
0
0
0
0
0
0
0
0
0
0
0
0
0
0
0
0
0
0
0
0
0
0
0
0
0
0
0
0
0
0
0
0
0
0
0
0
0
0
0
0
0
0
0
0
0
0
0
0
0
0
0
0
0
0
0
0
0
0
0
0
0
0
0
0
0
0
0
0
0
0
0
0
0
0
0
0
0
0
0
0
0
0
0
0
0
0
0
0
0
0
0
0
0
0
0
0
0
0
0
0
