1.50751
1.42229
1.38531
1.39661
1.43244
1.48043
1.53159
1.58068
1.62785
1.67802
1.73846
1.81571
1.91311
2.02596
2.14956
2.28067
2.41601
2.55225
2.68548
2.8098
2.91955
3.00916
3.07428
3.11312
3.12704
3.12023
3.0984
3.06706
3.03029
2.99033
2.9474
2.90052
2.84821
2.78874
2.72041
2.64174
2.55158
2.44896
2.33336
2.20482
2.06419
1.91339
1.75553
1.59492
1.43689
1.2876
1.15292
1.03772
0.945097
0.875923
0.829277
0.80206
0.789193
0.785106
0.784622
0.783604
0.779232
0.769935
0.755081
0.734608
0.708783
0.678197
0.643659
0.606262
0.567542
0.529347
0.493527
0.461773
0.435215
0.413495
0.395309
0.37934
0.36522
0.354193
0.349127
0.353776
0.371517
0.404017
0.45085
0.50876
0.572083
0.634989
0.693125
0.744443
0.788846
0.82516
0.849734
0.855213
0.830349
0.766115
0.662929
0.534536
0.405591
0.303326
0.247156
0.234624
0.257894
0.301621
0.349359
0.389283
0.418921
0.439151
0.453646
0.466902
0.482603
0.502926
0.529897
0.565019
0.612215
0.674841
0.744368
0.802601
0.828052
0.804249
0.727623
0.611028
0.480902
0.368929
0.301533
0.276546
0.285256
0.323046
0.381917
0.452532
0.526123
0.596639
0.661213
0.718217
0.767149
0.808484
0.843351
0.87323
0.899688
0.924186
0.947952
0.97192
0.996694
1.02252
1.04929
1.0765
1.10318
1.12789
1.14885
1.1642
1.17211
1.1711
1.16008
1.13841
1.10591
1.06275
1.00983
0.948479
0.880276
0.807333
0.732477
0.659181
0.591297
0.532721
0.487427
0.461275
0.46224
0.486719
0.513494
0.515766
0.469711
0.363026
0.199892
0
-0.322441
-0.224708
0.428124
1.56428
2.92482
4.13892
4.83462
4.75761
3.87166
2.39451
0.731408
-0.680782
-1.54556
-1.79432
-1.44006
-1.03104
-0.586301
-0.177656
0.104601
0.279161
0.409312
0.512483
0.591433
0.650539
0.694932
0.729484
0.757893
0.782191
0.803071
0.820304
0.833643
0.843584
0.851655
0.860149
0.871435
0.887166
0.907484
0.931239
0.956976
0.983191
1.00886
1.03388
1.05931
1.08724
1.12041
1.16151
1.21251
1.27419
1.34617
1.42743
1.51485
1.6048
1.69468
1.78368
1.87305
1.96545
2.06385
2.1701
2.28401
2.40246
2.52121
2.6351
2.73891
2.82748
2.89666
2.94466
2.97122
2.97718
2.96402
2.93338
2.88667
2.82471
2.74769
2.65557
2.54929
2.43048
2.30116
2.16453
2.02501
1.88768
1.75768
1.64027
1.53824
1.45034
1.37294
1.30154
1.23227
1.16298
1.09335
1.02436
0.957298
0.892855
0.831171
0.77234
0.716643
0.664889
0.61845
0.578962
0.547769
0.525691
0.512002
0.504792
0.50144
0.499295
0.496354
0.491698
0.485616
0.479402
0.474936
0.474066
0.478308
0.488758
0.50598
0.529918
0.559904
0.594724
0.632641
0.671107
0.705847
0.731457
0.742622
0.73529
0.708026
0.662938
0.60571
0.54458
0.488515
0.445196
0.418219
0.409113
0.416706
0.437946
0.468869
0.505016
0.542666
0.578887
0.611051
0.63693
0.6548
0.663586
0.663
0.6536
0.63676
0.614533
0.589503
0.564439
0.541887
0.524064
0.512712
0.508927
0.512806
0.52327
0.537987
0.553242
0.564445
0.567475
0.559759
0.541162
0.514447
0.485083
0.460303
0.447578
0.452818
0.482872
0.542043
0.618032
0.692132
0.746166
0.768433
0.75721
0.720741
0.674015
0.633696
0.613082
0.613508
0.630046
0.658193
0.694617
0.735541
0.77679
0.814574
0.846161
0.870212
0.88687
0.897592
0.90474
0.910988
0.918681
0.929501
0.944211
0.9623
0.982943
1.00586
1.03189
1.06298
1.10153
1.14929
1.20635
1.27025
1.33695
1.40178
1.45968
1.50571
1.5353
1.54139
1.51972
1.46698
1.38163
1.26513
1.12273
0.963532
0.799418
0.643056
0.503896
0.38608
0.295764
0.236351
0.202824
0.184982
0.171789
0.15394
0.125614
0.0850575
0.0340376
-0.0234632
-0.0827358
-0.136746
0
0.384577
1.05712
2.01594
3.12015
4.0916
4.60265
4.41748
3.51158
2.09778
0.543196
-0.776916
-1.61116
-1.83081
-1.60358
-1.24304
-0.835999
-0.503102
-0.321527
-0.224637
-0.14603
-0.0726267
-0.00186214
0.0665028
0.131581
0.191488
0.243737
0.285871
0.315965
0.333101
0.337677
0.331481
0.317527
0.299696
0.282243
0.26927
0.264143
0.269248
0.286321
0.316973
0.362559
0.424282
0.502993
0.60223
0.733838
0.910084
1.1099
1.29307
1.41881
1.46156
1.42247
1.33142
1.23812
1.19492
1.23743
1.34385
1.48248
1.63778
1.80158
1.96707
2.12836
2.28089
2.42128
2.54756
2.65874
2.75441
2.83417
2.89641
2.93709
2.95136
2.93514
2.88453
2.79736
2.67463
2.52149
2.34705
2.16316
1.98236
1.81441
1.66409
1.53564
1.43104
1.35039
1.29239
1.25508
1.23697
1.23565
1.24656
1.26304
1.27811
1.2859
1.28292
1.26903
1.24782
1.22607
1.21259
1.21643
1.24621
1.33115
1.49249
1.68804
1.86007
1.95722
1.95363
1.85848
1.71185
1.56759
1.47052
1.43371
1.4281
1.43572
1.44963
1.4658
1.48099
1.49295
1.50034
1.50275
1.50071
1.49573
1.4903
1.4878
1.49216
1.51173
1.56267
1.64348
1.72769
1.77807
1.76312
1.6731
1.5269
1.36565
1.23607
1.17145
1.1545
1.16522
1.19618
1.23856
1.28411
1.32683
1.36403
1.39417
1.41643
1.43008
1.43415
1.42755
1.40901
1.37748
1.33279
1.27618
1.21053
1.13995
1.07028
1.00757
0.957179
0.923001
0.90705
0.909462
0.928763
0.962249
1.00632
1.05738
1.11039
1.15906
1.19763
1.22198
1.2306
1.22496
1.20903
1.188
1.16661
1.14773
1.13149
1.11682
1.10214
1.08578
1.06649
1.04383
1.01826
0.991023
0.963895
0.938789
0.917493
0.901578
0.892504
0.891662
0.900401
0.92
0.952432
1.00149
1.07274
1.16678
1.26909
1.35775
1.41097
1.41415
1.36508
1.27561
1.16889
1.07307
1.01331
0.994368
1.01887
1.09617
1.20555
1.31075
1.37605
1.37588
1.30161
1.16417
0.991696
0.82185
0.690017
0.604866
0.551288
0.517664
0.498665
0.486985
0.475355
0.457879
0.43098
0.393737
0.347609
0.295658
0.241537
0.188494
0.13846
0.0921129
0.0494221
0.0102543
-0.0230551
0
0.263926
0.889641
1.88585
3.07038
4.08966
4.5468
4.18723
3.03924
1.42254
-0.188091
-1.36983
-1.91611
-1.76283
-1.44374
-1.03836
-0.683636
-0.455607
-0.338839
-0.243357
-0.152851
-0.064876
0.0206104
0.10275
0.180148
0.251178
0.314304
0.368373
0.412825
0.447769
0.474024
0.493049
0.506753
0.517316
0.527006
0.537991
0.552154
0.570934
0.595204
0.62521
0.660608
0.700614
0.744158
0.790067
0.837261
0.884947
0.932788
0.981048
1.03067
1.08326
1.14087
1.20574
1.27982
1.36434
1.45939
1.56374
1.67476
1.78888
1.90181
2.00891
2.10567
2.18871
2.25605
2.3073
2.34364
2.36746
2.38186
2.3898
2.39336
2.3921
2.3821
2.35641
2.306
2.2227
2.10223
1.94618
1.76218
1.56211
1.35911
1.16387
0.980177
0.81076
0.657513
0.521153
0.401551
0.298091
0.210447
0.13784
0.0767154
0.0222313
-0.0305357
-0.085549
-0.144887
-0.208305
-0.273466
-0.336784
-0.394536
-0.444679
-0.486294
-0.519144
-0.543844
-0.561485
-0.573327
-0.580695
-0.585012
-0.588042
-0.593211
-0.60491
-0.627488
-0.663909
-0.714557
-0.776786
-0.845509
-0.914611
-0.978599
-1.03496
-1.08364
-1.12436
-1.15748
-1.18362
-1.20337
-1.21722
-1.22537
-1.22778
-1.22452
-1.21538
-1.19972
-1.17647
-1.14437
-1.10235
-1.05
-0.987962
-0.918127
-0.843167
-0.765452
-0.687009
-0.609249
-0.532859
-0.457899
-0.384044
-0.310853
-0.237992
-0.165356
-0.0931145
-0.0217341
0.0479594
0.114621
0.176125
0.229407
0.271065
0.298222
0.309061
0.303744
0.285085
0.258646
0.232074
0.213691
0.210652
0.226227
0.258664
0.305583
0.362245
0.4221
0.479203
0.529757
0.572956
0.610849
0.647291
0.686871
0.73405
0.785816
0.830131
0.850989
0.83474
0.775944
0.680769
0.566926
0.460117
0.387852
0.364697
0.386005
0.449679
0.551468
0.682195
0.829282
0.978786
1.11699
1.23252
1.31741
1.36731
1.38103
1.35975
1.30599
1.22296
1.1145
0.985696
0.841523
0.685156
0.520843
0.35922
0.214503
0.100442
0.0274375
0
0.0111829
0.0559045
0.120402
0.18992
0.252442
0.303755
0.34535
0.380089
0.406656
0.424176
0.670992
1.20812
1.99414
2.86116
3.53825
3.73883
3.28455
2.20979
0.781233
-0.598367
-1.55792
-1.79883
-1.60183
-1.1082
-0.521345
-0.0429087
0.162478
0.179026
0.171828
0.16242
0.157513
0.162321
0.179946
0.20994
0.250423
0.299596
0.355603
0.416561
0.480574
0.545338
0.607137
0.65995
0.697261
0.713243
0.705205
0.675816
0.633911
0.593033
0.567892
0.569908
0.601697
0.65424
0.719885
0.792678
0.866723
0.937567
1.00263
1.06123
1.11445
1.16457
1.21444
1.26678
1.32366
1.38629
1.45503
1.52963
1.60974
1.69527
1.78667
1.88488
1.99194
2.11243
2.25117
2.40277
2.54797
2.66357
2.72973
2.7356
2.68136
2.57665
2.43652
2.27625
2.10732
1.9361
1.76493
1.59497
1.42739
1.26385
1.10648
0.957656
0.81962
0.694172
0.582422
0.484684
0.400513
0.328842
0.268159
0.216663
0.172345
0.133001
0.0962172
0.0593408
0.0194736
-0.0260641
-0.0792352
-0.140699
-0.20931
-0.281899
-0.353473
-0.417813
-0.468625
-0.499517
-0.500942
-0.467564
-0.407183
-0.337579
-0.277647
-0.24231
-0.239021
-0.266318
-0.314396
-0.367516
-0.408028
-0.422032
-0.406081
-0.36614
-0.311458
-0.249345
-0.186429
-0.12853
-0.0798239
-0.0425328
-0.0171362
-0.0028883
0.00160398
-0.00168715
-0.0111986
-0.0253511
-0.0424841
-0.0608254
-0.0785648
-0.0940531
-0.10611
-0.114101
-0.117801
-0.117668
-0.114644
-0.109731
-0.103662
-0.0966805
-0.0885402
-0.0786974
-0.066646
-0.052257
-0.0360313
-0.0190203
-0.00267715
0.0114777
0.0222424
0.0290684
0.0322538
0.0329477
0.0329565
0.0343809
0.0391504
0.0485544
0.0630632
0.0820095
0.10302
0.122814
0.137819
0.144794
0.141344
0.126228
0.0995369
0.0627481
0.018824
-0.0286856
-0.0744928
-0.113173
-0.140147
-0.15254
-0.149593
-0.132476
-0.103622
-0.0659512
-0.0224628
0.0241516
0.0707209
0.112532
0.14432
0.161524
0.162036
0.147468
0.123216
0.0971128
0.0771862
0.0690721
0.0725767
0.0854879
0.106023
0.131676
0.159245
0.185755
0.209602
0.231105
0.252639
0.278258
0.312822
0.360781
0.424923
0.507185
0.605912
0.713648
0.819702
0.911276
0.975888
1.00496
0.993728
0.941712
0.853338
0.738135
0.609754
0.4834
0.372242
0.281837
0.208616
0.149826
0.10337
0.0669464
0.0388231
0.0182001
0.00511398
0
0.00175495
0.0108471
0.0262135
0.0465162
0.0701479
0.0955738
0.121543
0.123305
0.35686
0.977612
1.9876
3.17848
4.17447
4.57946
4.16166
2.98039
1.37978
-0.156954
-1.21549
-1.60711
-1.23683
-0.814001
-0.383959
-0.0550362
0.0822479
0.106937
0.10438
0.0895826
0.0721848
0.0605326
0.0603121
0.072467
0.0960547
0.129474
0.170541
0.21612
0.262535
0.306545
0.345826
0.379209
0.406616
0.428742
0.446484
0.460503
0.4715
0.480022
0.486936
0.493937
0.503792
0.520086
0.546503
0.585855
0.63908
0.704087
0.777843
0.857369
0.939801
1.02302
1.10619
1.18986
1.27586
1.36671
1.46493
1.57236
1.68948
1.81515
1.94652
2.07937
2.20753
2.32427
2.42354
2.50074
2.55322
2.58022
2.5824
2.56118
2.51813
2.45459
2.37344
2.27696
2.16695
2.04585
1.91663
1.78247
1.6463
1.51039
1.37615
1.24429
1.11509
0.988756
0.8658
0.74721
0.634434
0.529141
0.432898
0.346868
0.271943
0.20824
0.154378
0.108619
0.0694345
0.0359533
0.00811234
-0.0135681
-0.0284948
-0.0365879
-0.0387791
-0.036833
-0.0331385
-0.030158
-0.0298475
-0.0332443
-0.0403265
-0.050127
-0.0610088
-0.0710106
-0.078269
-0.0811132
-0.0782007
-0.0686031
-0.0516323
-0.0276474
-9.15527e-006
0.0255539
0.0433426
0.0497515
0.0450054
0.0337902
0.0243799
0.0264269
0.0481487
0.0920816
0.153965
0.231235
0.318648
0.407834
0.487611
0.547748
0.580572
0.581968
0.552016
0.495098
0.419213
0.334444
0.250916
0.176876
0.1155
0.0665417
0.0305138
0.0084219
0.000978851
0.0114697
0.0458422
0.104775
0.173912
0.234188
0.267845
0.265163
0.228743
0.173194
0.1203
0.0917107
0.100877
0.166125
0.289105
0.429768
0.54121
0.584214
0.538725
0.411532
0.237171
0.0685139
-0.0424488
-0.0729858
-0.0549929
-0.0157118
0.035162
0.0893995
0.138519
0.175785
0.197032
0.201036
0.189471
0.166475
0.137852
0.109976
0.0885481
0.0767426
0.0758978
0.0869495
0.105099
0.123571
0.136627
0.142031
0.14225
0.143694
0.154138
0.179294
0.22193
0.275732
0.329402
0.371296
0.394286
0.398685
0.392138
0.386852
0.395589
0.425862
0.476187
0.557301
0.67686
0.813977
0.936469
1.01283
1.02232
0.962105
0.847158
0.70281
0.554471
0.421043
0.306106
0.206721
0.122127
0.0542118
0.00790863
-0.0121357
-0.012191
-0.00404263
0
-0.00747299
-0.0286785
-0.0570621
-0.0808561
-0.087678
-0.0692266
-0.0300026
0.0230331
0.0952766
0.208656
0.472961
1.05578
1.97429
3.02306
3.83255
4.0335
3.43583
2.12519
0.432284
-1.1995
-2.37919
-2.78173
-2.53083
-2.05822
-1.46159
-0.929998
-0.650796
-0.611493
-0.640711
-0.711019
-0.784369
-0.824101
-0.809327
-0.756255
-0.687297
-0.612355
-0.539187
-0.472398
-0.412777
-0.358056
-0.304869
-0.25005
-0.194803
-0.145652
-0.111492
-0.0991991
-0.109834
-0.137016
-0.167988
-0.186916
-0.179224
-0.140642
-0.0750853
0.0118732
0.115364
0.231093
0.354921
0.483091
0.612592
0.741273
0.867711
0.990983
1.1104
1.22536
1.33525
1.43951
1.53771
1.62965
1.71538
1.79521
1.86966
1.9394
2.00507
2.06707
2.12523
2.17811
2.22218
2.25238
2.26289
2.24791
2.20326
2.12765
2.02311
1.89442
1.74783
1.58962
1.42606
1.2614
1.09864
0.940816
0.791092
0.652676
0.528489
0.420864
0.331131
0.259087
0.20275
0.15933
0.125948
0.100282
0.0809237
0.0673422
0.0595015
0.0575136
0.0611383
0.0685305
0.0769289
0.0833738
0.0855587
0.082519
0.0748978
0.0647221
0.0548191
0.0481235
0.0467245
0.0517765
0.064006
0.0839237
0.111561
0.14673
0.189273
0.236995
0.282477
0.315853
0.327943
0.313748
0.275159
0.221432
0.166868
0.126459
0.111231
0.118932
0.144198
0.183493
0.232011
0.284846
0.337877
0.388503
0.435082
0.476581
0.511935
0.539958
0.55982
0.570745
0.572444
0.565545
0.551758
0.533607
0.513776
0.494309
0.476087
0.458453
0.439825
0.418768
0.395121
0.370642
0.348848
0.334051
0.329905
0.337999
0.358048
0.385598
0.41413
0.436772
0.448018
0.444961
0.427799
0.399631
0.36571
0.332372
0.305209
0.288102
0.283172
0.29076
0.310596
0.340073
0.374744
0.409612
0.440067
0.462701
0.475857
0.479823
0.476671
0.469799
0.463252
0.460826
0.465428
0.47866
0.500549
0.529766
0.564256
0.601497
0.638884
0.674168
0.705708
0.732506
0.754013
0.769798
0.779012
0.779931
0.77047
0.74829
0.711282
0.658292
0.589743
0.507962
0.417098
0.322661
0.230781
0.146785
0.0747316
0.0178982
-0.0203724
-0.0361778
-0.0311798
-0.0152533
0
0.00555077
-0.00630074
-0.0365776
-0.081263
-0.133103
-0.184006
-0.225865
-0.182371
0.117843
0.640293
1.39665
2.30127
3.14642
3.65031
3.56391
2.79199
1.46795
-0.069689
-1.40362
-2.2086
-2.35642
-2.06126
-1.5548
-1.09045
-0.796969
-0.651516
-0.503111
-0.36325
-0.238172
-0.129458
-0.039101
0.0317446
0.0832407
0.117381
0.137244
0.146199
0.147338
0.143647
0.137295
0.130379
0.125097
0.123795
0.128928
0.142766
0.166837
0.203149
0.253286
0.318046
0.39935
0.499978
0.613017
0.722834
0.813334
0.873842
0.903572
0.912446
0.91759
0.936896
0.982518
1.05269
1.13791
1.23207
1.3311
1.43167
1.5317
1.63021
1.7269
1.82146
1.91302
2.00009
2.08077
2.15319
2.21592
2.26814
2.30941
2.33834
2.35289
2.35058
2.32804
2.28177
2.20925
2.11002
1.98628
1.8429
1.68679
1.52606
1.36741
1.21554
1.07389
0.943991
0.825555
0.717202
0.617222
0.524315
0.438078
0.359114
0.288756
0.228551
0.179429
0.141964
0.115785
0.0995504
0.0914059
0.0894854
0.0922745
0.0987637
0.108347
0.120539
0.134822
0.149849
0.163417
0.172993
0.176388
0.172458
0.1616
0.145846
0.128543
0.113717
0.104939
0.104179
0.112712
0.132342
0.162151
0.196453
0.228695
0.253712
0.269699
0.279082
0.2878
0.30321
0.331473
0.378617
0.441776
0.507889
0.559963
0.582303
0.564971
0.50668
0.415801
0.309249
0.209104
0.137379
0.11496
0.173779
0.288778
0.414003
0.502777
0.52562
0.47827
0.37898
0.25951
0.154638
0.0905903
0.0644711
0.0648586
0.0833693
0.114722
0.15596
0.204789
0.259601
0.319577
0.384971
0.454944
0.524094
0.583586
0.623881
0.638452
0.62688
0.595664
0.55617
0.520547
0.497412
0.486548
0.483272
0.483951
0.484488
0.48125
0.47192
0.455954
0.434638
0.410803
0.388287
0.370918
0.36202
0.364294
0.379599
0.409195
0.453682
0.512823
0.582364
0.650569
0.703745
0.730491
0.725493
0.692278
0.643299
0.596524
0.569295
0.57178
0.600532
0.64555
0.691634
0.724179
0.734589
0.723135
0.698258
0.672883
0.659492
0.665015
0.686295
0.718633
0.758668
0.80337
0.849317
0.893042
0.931207
0.960541
0.977142
0.975948
0.953531
0.907535
0.837613
0.746254
0.639075
0.524282
0.411267
0.308956
0.227947
0.169536
0.129204
0.0994671
0.0735849
0.0483772
0.0249662
0.00738049
0
0.0066246
0.0221846
0.0439487
0.0697666
0.0988554
0.0677274
0.329437
1.04157
2.13848
3.31795
4.15652
4.30073
3.63173
2.32013
0.751166
-0.633796
-1.50428
-1.70636
-1.36062
-0.926159
-0.496517
-0.193919
-0.0796526
-0.0394402
-0.016991
-0.00181217
0.00860777
0.0160351
0.0219833
0.0278367
0.0349663
0.0447756
0.0586475
0.0778
0.103076
0.134761
0.172611
0.215892
0.263471
0.313974
0.365954
0.418034
0.468989
0.517801
0.563726
0.606314
0.645431
0.681269
0.714365
0.745574
0.776327
0.808669
0.845334
0.889766
0.945966
1.01811
1.10992
1.22401
1.36114
1.51913
1.69381
1.87993
2.07122
2.25915
2.433
2.58309
2.70252
2.78734
2.8367
2.85263
2.83937
2.80242
2.74746
2.67928
2.60177
2.51733
2.42703
2.33118
2.22983
2.12315
2.0116
1.89594
1.77707
1.65588
1.53312
1.4094
1.28539
1.162
1.04068
0.923558
0.813387
0.713274
0.626222
0.554601
0.500048
0.463975
0.446416
0.44283
0.446493
0.451025
0.451909
0.447367
0.43828
0.427163
0.416621
0.40787
0.399833
0.389971
0.374749
0.350616
0.314981
0.266941
0.207628
0.140163
0.0693804
0.00125046
-0.0571225
-0.0993126
-0.120525
-0.118509
-0.0940596
-0.050886
0.00524597
0.0679343
0.131716
0.193363
0.252335
0.309238
0.364858
0.419482
0.471069
0.514514
0.542846
0.549591
0.531215
0.488708
0.427802
0.3579
0.290199
0.234624
0.196306
0.184083
0.226427
0.368193
0.592075
0.828321
1.00105
1.05187
0.961094
0.755232
0.49655
0.261958
0.121987
0.0761498
0.0811183
0.113957
0.169843
0.248009
0.342621
0.439768
0.523257
0.579287
0.599403
0.582416
0.534481
0.467055
0.393306
0.324329
0.265354
0.21568
0.173577
0.138213
0.109699
0.0881948
0.0741307
0.0680231
0.07026
0.0809709
0.100027
0.127131
0.16189
0.203789
0.253214
0.30958
0.367887
0.419523
0.454843
0.466096
0.450239
0.410362
0.355116
0.296501
0.246979
0.21446
0.200132
0.203465
0.224438
0.26238
0.315321
0.380212
0.453242
0.53025
0.607173
0.680469
0.747397
0.806106
0.855505
0.894953
0.92349
0.939623
0.941745
0.927849
0.895906
0.844535
0.773701
0.685265
0.583189
0.473311
0.362695
0.258341
0.16599
0.0906633
0.0379297
0.00975227
8.58307e-005
0
0.00184364
-0.00470858
-0.0253382
-0.0626936
-0.11681
-0.185939
-0.266948
-0.355613
-0.450956
-0.580466
-0.455097
0.108235
1.11785
2.38058
3.54669
4.2253
4.13106
3.21057
1.69341
0.0258312
-1.30734
-1.99226
-1.98199
-1.58614
-1.20545
-0.894345
-0.683011
-0.564456
-0.477021
-0.40343
-0.340559
-0.288507
-0.247251
-0.216301
-0.194686
-0.181061
-0.173886
-0.171613
-0.172734
-0.175877
-0.179729
-0.182841
-0.183501
-0.179655
-0.169018
-0.149484
-0.119468
-0.0783409
-0.0267613
0.0333198
0.0988678
0.16565
0.229482
0.287092
0.33679
0.378741
0.414795
0.447909
0.481373
0.518017
0.559594
0.607219
0.661405
0.722476
0.79119
0.869106
0.958583
1.06234
1.18319
1.33184
1.5159
1.71604
1.90215
2.04526
2.12705
2.1444
2.10777
2.03555
1.94726
1.85801
1.77375
1.69368
1.61548
1.53685
1.45593
1.3714
1.28255
1.18921
1.09141
0.988908
0.88079
0.76555
0.641351
0.506766
0.361697
0.208141
0.0497614
-0.104624
-0.243454
-0.355647
-0.433297
-0.473564
-0.479185
-0.457498
-0.41835
-0.371562
-0.324771
-0.281613
-0.243497
-0.210338
-0.181659
-0.15775
-0.139398
-0.128409
-0.126595
-0.13449
-0.150462
-0.170713
-0.190188
-0.203988
-0.208651
-0.204252
-0.191187
-0.169841
-0.14063
-0.103758
-0.0586702
-0.00352044
0.0603336
0.124584
0.177642
0.208058
0.208643
0.179351
0.127688
0.0665928
0.0108054
-0.0273664
-0.0450754
-0.0443578
-0.0272388
0.0048148
0.0503271
0.106935
0.170179
0.233286
0.289131
0.331667
0.357016
0.364296
0.355934
0.337318
0.31578
0.299082
0.293143
0.300427
0.325605
0.364825
0.403743
0.425571
0.417264
0.375116
0.307441
0.23285
0.174323
0.151115
0.165522
0.210619
0.277997
0.352258
0.417697
0.462675
0.482348
0.479056
0.460494
0.436548
0.415974
0.402946
0.39721
0.397545
0.402413
0.410159
0.419694
0.430918
0.444785
0.463026
0.487634
0.520288
0.561703
0.611422
0.668291
0.730749
0.796953
0.86502
0.933188
0.999821
1.06314
1.12063
1.16881
1.20412
1.22262
1.22064
1.19558
1.14665
1.07527
0.985229
0.882408
0.774408
0.669009
0.572515
0.490662
0.430805
0.404097
0.418762
0.462902
0.514047
0.548341
0.547374
0.502846
0.417513
0.302455
0.172194
0.0399251
-0.0819109
0
0.358987
0.984912
1.83608
2.75974
3.50817
3.81149
3.48575
2.53058
1.16245
-0.246319
-1.30806
-1.76901
-1.48072
-1.00796
-0.427589
0.0889888
0.39096
0.489303
0.545232
0.588522
0.624648
0.65868
0.694438
0.733865
0.777152
0.822171
0.865823
0.905302
0.939113
0.967456
0.991861
1.01427
1.03599
1.05709
1.07638
1.09229
1.10404
1.11249
1.12037
1.13172
1.15092
1.18157
1.22403
1.27788
1.34278
1.41775
1.50172
1.59282
1.68584
1.77286
1.84631
1.90118
1.93697
1.95841
1.97452
1.99589
2.03139
2.08477
2.15152
2.22647
2.30323
2.37487
2.43582
2.48298
2.5161
2.53719
2.54931
2.55501
2.5541
2.54417
2.52008
2.47571
2.40615
2.30938
2.18692
2.04323
1.88447
1.71754
1.5488
1.3823
1.22158
1.06985
0.9298
0.803399
0.691638
0.594411
0.510474
0.437634
0.373415
0.315662
0.263027
0.215164
0.172571
0.136147
0.10754
0.0874908
0.0740928
0.0643385
0.0552234
0.0449008
0.033315
0.0219938
0.0131098
0.00827479
0.00736027
0.00882425
0.0106219
0.0104515
0.00636735
-0.00280843
-0.0173674
-0.0368407
-0.0602391
-0.0861471
-0.113101
-0.139617
-0.164046
-0.184637
-0.199681
-0.207731
-0.207834
-0.199728
-0.183952
-0.16182
-0.135276
-0.106644
-0.0783399
-0.0525528
-0.0310329
-0.01496
-0.0048645
-0.000646591
-0.0016727
-0.00692782
-0.0151898
-0.0251911
-0.0357337
-0.0457498
-0.0542996
-0.0604463
-0.0631678
-0.0612953
-0.0534883
-0.0383212
-0.0144795
0.0199264
0.0682696
0.131786
0.199839
0.256142
0.284574
0.275608
0.2309
0.163323
0.0917862
0.0330776
-0.00514979
-0.0310881
-0.0513458
-0.0730999
-0.100793
-0.134266
-0.168917
-0.19752
-0.212711
-0.211715
-0.196094
-0.166756
-0.124761
-0.0715725
-0.00922451
0.0569337
0.119132
0.170082
0.20458
0.220695
0.219943
0.206299
0.184474
0.15829
0.130114
0.101217
0.072643
0.0462844
0.0252455
0.0136088
0.015673
0.0349454
0.0719102
0.126469
0.196794
0.279804
0.371792
0.468845
0.567873
0.666311
0.761366
0.849173
0.924447
0.981528
1.01413
1.01659
0.985449
0.920651
0.826084
0.709222
0.58006
0.449729
0.327546
0.218882
0.127286
0.0568095
0.0131321
0.00721045
0.0538578
0.147332
0.253433
0.333616
0.35658
0.308977
0.20057
0.0605617
-0.0743466
-0.175214
-0.239672
-0.26172
0
0.455601
1.1456
2.05934
3.04419
3.83488
4.16192
3.86879
2.97673
1.67913
0.279173
-0.904991
-1.63879
-1.70339
-1.50652
-1.08774
-0.601651
-0.191536
0.0220933
0.100564
0.146137
0.181022
0.209985
0.235499
0.259282
0.282164
0.304229
0.325115
0.344451
0.362228
0.379039
0.396094
0.415044
0.437654
0.465426
0.499301
0.539577
0.585936
0.63757
0.693348
0.751988
0.812198
0.872797
0.932791
0.991568
1.0491
1.10608
1.1639
1.22449
1.2899
1.36176
1.44085
1.52682
1.61813
1.71286
1.80908
1.90532
2.00079
2.09535
2.18913
2.28206
2.37324
2.46042
2.54045
2.60983
2.6657
2.70656
2.73237
2.74412
2.74275
2.72813
2.69852
2.65045
2.57969
2.48277
2.35855
2.20927
2.04085
1.86195
1.68237
1.51073
1.35272
1.21116
1.08579
0.974088
0.872361
0.776982
0.685206
0.595527
0.507627
0.422014
0.339618
0.262174
0.192404
0.133854
0.0894947
0.0619368
0.0526351
0.0611498
0.0848179
0.119051
0.158219
0.1968
0.230506
0.257501
0.276643
0.286511
0.286171
0.275482
0.254825
0.225506
0.189949
0.151905
0.115721
0.0854361
0.0639343
0.0524951
0.0509209
0.0580984
0.0726664
0.0930394
0.117716
0.145922
0.176254
0.206316
0.232927
0.252648
0.262445
0.260317
0.245696
0.219505
0.183907
0.141875
0.0967473
0.0518464
0.0100517
-0.0261829
-0.0545732
-0.0728985
-0.0790605
-0.0704617
-0.0421381
0.0134325
0.0947216
0.181847
0.250466
0.280256
0.263399
0.208839
0.139416
0.0822197
0.0562896
0.0605188
0.0788328
0.0981488
0.106225
0.0960911
0.0680666
0.0287474
-0.0122717
-0.0462162
-0.0692776
-0.0828963
-0.0886414
-0.0872351
-0.079252
-0.0650262
-0.0446299
-0.018055
0.0144963
0.0523367
0.0942296
0.138057
0.18091
0.219561
0.251062
0.273245
0.28513
0.287138
0.281073
0.269844
0.256979
0.246009
0.239842
0.240234
0.247626
0.261492
0.281062
0.305487
0.334222
0.36725
0.40509
0.448604
0.498681
0.555869
0.620048
0.690506
0.765865
0.843937
0.921418
0.993309
1.05319
1.09503
1.11358
1.10538
1.0697
1.00901
0.928686
0.836089
0.739143
0.644752
0.55678
0.47657
0.404765
0.341596
0.28671
0.239407
0.198819
0.164025
0.134109
0.108193
0.0854575
0.0651799
0.0467787
0.0298591
0.0142322
0
-0.0118943
0.0151812
0.278552
0.861614
1.76723
2.84428
3.80334
4.31202
4.13448
3.25046
1.88644
0.430897
-0.730805
-1.37369
-1.4165
-1.18148
-0.903628
-0.619961
-0.373784
-0.202572
-0.0866196
0.000939274
0.0713008
0.129175
0.177251
0.218453
0.255836
0.292122
0.329291
0.368316
0.409159
0.450993
0.492504
0.53231
0.569347
0.603144
0.633954
0.662723
0.690951
0.720486
0.753291
0.791223
0.835854
0.888277
0.948922
1.01741
1.09251
1.17218
1.25387
1.33451
1.41134
1.48266
1.54842
1.61038
1.67193
1.73742
1.81126
1.89704
1.99677
2.11004
2.23497
2.36932
2.51055
2.65632
2.80419
2.94997
3.08526
3.19917
3.27897
3.31399
3.29997
3.24108
3.14784
3.03172
2.89961
2.753
2.59432
2.42625
2.25052
2.07027
1.89069
1.71837
1.56013
1.42143
1.30679
1.22053
1.16653
1.14113
1.13016
1.11787
1.09067
1.04039
0.966044
0.873741
0.774594
0.68135
0.603734
0.543014
0.501412
0.477793
0.46594
0.458706
0.450421
0.438622
0.424526
0.412081
0.406021
0.409712
0.422992
0.442907
0.466171
0.489144
0.508866
0.523697
0.533408
0.538803
0.541134
0.541679
0.541402
0.541012
0.541169
0.542575
0.54591
0.551635
0.559724
0.569426
0.579356
0.587622
0.592072
0.590646
0.581699
0.564495
0.539443
0.508232
0.473733
0.439622
0.409727
0.387238
0.375596
0.375885
0.384698
0.397029
0.40827
0.415914
0.420211
0.423537
0.428889
0.438345
0.451787
0.468194
0.486236
0.50475
0.523056
0.540778
0.557249
0.571007
0.579664
0.580443
0.571227
0.551652
0.523737
0.491761
0.461344
0.438023
0.424663
0.421482
0.428598
0.443119
0.460763
0.476863
0.487333
0.489351
0.481632
0.464356
0.438905
0.407644
0.373786
0.340814
0.31283
0.29387
0.28723
0.294737
0.316201
0.349271
0.389814
0.432758
0.473175
0.507777
0.534712
0.553934
0.567041
0.576782
0.586404
0.598975
0.616642
0.640485
0.670729
0.706779
0.747148
0.789406
0.83006
0.864707
0.888959
0.898972
0.892101
0.867458
0.826199
0.771399
0.707492
0.639361
0.571323
0.506071
0.444432
0.386214
0.330528
0.276253
0.222615
0.169677
0.11884
0.0728619
0.0353259
0.00997458
0
0.00907021
0.0362393
0.0806392
0.140029
0.211437
0.301597
0.464746
0.787236
1.35175
2.163
3.06435
3.75549
3.91033
3.3377
2.09669
0.49826
-1.01491
-2.05182
-2.41003
-2.2037
-1.65742
-1.05677
-0.601337
-0.354205
-0.234329
-0.128898
-0.0334417
0.0537146
0.13194
0.200223
0.258108
0.306133
0.345651
0.378505
0.406643
0.431794
0.455338
0.478197
0.500994
0.524187
0.548136
0.573108
0.599218
0.626371
0.654251
0.682422
0.710491
0.738311
0.766174
0.794946
0.826101
0.861607
0.903699
0.954537
1.01581
1.08834
1.17187
1.26495
1.3652
1.46973
1.57571
1.68087
1.78383
1.88416
1.98214
2.07839
2.17336
2.26699
2.35839
2.44545
2.52471
2.59271
2.64632
2.68335
2.70293
2.70539
2.69159
2.66198
2.61581
2.55089
2.46644
2.36062
2.23292
2.08551
1.92349
1.75433
1.58667
1.42838
1.28392
1.15664
1.04757
0.955599
0.878004
0.811078
0.750805
0.693422
0.635857
0.576031
0.513032
0.447184
0.380004
0.314081
0.253365
0.20238
0.165018
0.143875
0.139576
0.150525
0.173221
0.203108
0.235702
0.267638
0.297367
0.324842
0.351008
0.376996
0.403345
0.429483
0.453492
0.472682
0.484518
0.487593
0.482325
0.471119
0.457948
0.447435
0.44372
0.449055
0.463176
0.484559
0.510806
0.538807
0.565368
0.58774
0.603935
0.612826
0.614094
0.608111
0.595859
0.578873
0.559163
0.539042
0.520831
0.506471
0.497412
0.493986
0.495716
0.501726
0.511232
0.523915
0.53995
0.559702
0.583282
0.610181
0.637512
0.660258
0.67317
0.672804
0.6592
0.636401
0.611417
0.591887
0.584254
0.591248
0.606942
0.621122
0.623964
0.610313
0.581492
0.544063
0.506586
0.476285
0.455135
0.441926
0.436521
0.439027
0.449507
0.467919
0.493875
0.526378
0.564066
0.604338
0.643978
0.680294
0.711925
0.739289
0.764494
0.790714
0.821233
0.858509
0.903208
0.953982
1.00873
1.06472
1.11806
1.16226
1.18994
1.19378
1.16741
1.10713
1.01344
0.891937
0.752883
0.609682
0.476352
0.361061
0.271339
0.221059
0.213479
0.231079
0.251569
0.255627
0.233261
0.186406
0.126808
0.0703001
0.0301033
0.00896623
0
0.00564728
0.0768532
0.352223
0.982669
1.97078
3.1065
4.03533
4.41365
4.0648
3.05558
1.66561
0.273651
-0.783992
-1.32131
-1.18261
-0.965106
-0.750831
-0.561848
-0.413218
-0.308346
-0.224921
-0.152543
-0.0879994
-0.0294518
0.0239188
0.071874
0.113912
0.150168
0.182092
0.212663
0.246073
0.286979
0.339426
0.405214
0.487853
0.590382
0.705589
0.816108
0.903516
0.953832
0.961815
0.932523
0.879616
0.821154
0.774658
0.750869
0.749339
0.767167
0.803017
0.856307
0.925991
1.01036
1.10712
1.21343
1.3261
1.44181
1.55738
1.67008
1.7778
1.87918
1.97351
2.06061
2.1405
2.21284
2.27652
2.32978
2.37069
2.39672
2.40515
2.39351
2.35996
2.30358
2.22452
2.12407
2.00519
1.87254
1.7307
1.584
1.43666
1.29258
1.15507
1.02656
0.908451
0.801155
0.70424
0.61655
0.536611
0.462972
0.394482
0.330448
0.27064
0.215153
0.164254
0.118093
0.0766424
0.0397579
0.0073257
-0.0205687
-0.0435678
-0.0611423
-0.0728754
-0.07878
-0.0793881
-0.0768222
-0.0755748
-0.0809782
-0.0974663
-0.126848
-0.167091
-0.212315
-0.25317
-0.279556
-0.283458
-0.261362
-0.213889
-0.14792
-0.076771
-0.0142061
0.029386
0.0495224
0.0481875
0.0324477
0.0117482
-0.0051379
-0.0133466
-0.0128412
-0.0056349
0.00588262
0.0190003
0.0308969
0.0390306
0.0413504
0.0363714
0.0231968
0.00161622
-0.0277318
-0.0631331
-0.101618
-0.138963
-0.1698
-0.1833
-0.150075
-0.041657
0.109369
0.244316
0.305484
0.264821
0.138936
-0.0170654
-0.133841
-0.158972
-0.10353
-0.0155635
0.0872429
0.191363
0.284007
0.354853
0.397093
0.407813
0.387881
0.341576
0.276066
0.200658
0.1257
0.0605847
0.0117533
-0.0187531
-0.0290684
-0.0191394
0.0042685
0.0330196
0.0600995
0.0815253
0.0969429
0.108707
0.119889
0.132326
0.14419
0.150453
0.145526
0.126565
0.0957045
0.0601038
0.0298014
0.0144289
0.0184148
0.038439
0.0709687
0.113516
0.162849
0.215441
0.268077
0.318108
0.363618
0.403449
0.437115
0.46467
0.486553
0.503449
0.516216
0.525895
0.533708
0.541056
0.549464
0.560424
0.575178
0.594668
0.618973
0.646315
0.672784
0.693039
0.701232
0.692116
0.66217
0.610511
0.539395
0.454113
0.36225
0.272331
0.191865
0.125299
0.0744587
0.0401892
0.0197664
0.00902696
0.00361428
0
-0.00405731
-0.00949512
-0.0165694
-0.0254034
-0.0362432
-0.0494905
-0.065497
-0.0901283
-0.176145
0.127662
0.959828
2.17603
3.38229
4.11678
4.07207
3.23287
1.86544
0.3804
-0.846802
-1.60744
-1.83664
-1.71214
-1.5097
-1.2545
-0.996394
-0.78331
-0.634978
-0.523744
-0.431328
-0.350481
-0.278594
-0.215163
-0.160565
-0.115049
-0.0785993
-0.0506299
-0.0297599
-0.0137634
0.000264502
0.015535
0.0350598
0.0610522
0.0944789
0.135104
0.18176
0.232383
0.284489
0.335654
0.383946
0.428222
0.46814
0.504563
0.539504
0.575921
0.617481
0.668157
0.73164
0.810595
0.905926
1.01625
1.13966
1.26978
1.39767
1.51551
1.61884
1.70765
1.78608
1.86063
1.93775
2.02149
2.11144
2.20447
2.29669
2.38332
2.45952
2.52093
2.56367
2.58423
2.58021
2.54985
2.49205
2.40659
2.29433
2.15747
1.9995
1.82495
1.63901
1.44736
1.25499
1.06641
0.885716
0.716639
0.562341
0.425299
0.308059
0.213462
0.140739
0.0855882
0.0431227
0.00941515
-0.0173032
-0.0363421
-0.0453587
-0.0418911
-0.0209483
0.0127626
0.0491414
0.0764366
0.0858233
0.0748103
0.0478748
0.0141579
-0.016549
-0.0376168
-0.0500267
-0.0564915
-0.0594842
-0.061451
-0.063828
-0.0665046
-0.0678711
-0.0654006
-0.0565452
-0.0397847
-0.0155434
0.0147625
0.0488706
0.0835034
0.115321
0.141815
0.161876
0.175986
0.18596
0.194305
0.203362
0.214554
0.227837
0.24101
0.250512
0.252619
0.244757
0.226488
0.199848
0.168926
0.138828
0.11436
0.098257
0.090755
0.0908247
0.096899
0.106692
0.117861
0.128658
0.138359
0.147436
0.15745
0.17069
0.189652
0.216454
0.25271
0.299451
0.355976
0.417083
0.471985
0.508355
0.515522
0.487648
0.426157
0.34041
0.245972
0.160665
0.0995943
0.0655394
0.053561
0.0612109
0.0838938
0.116227
0.153205
0.190771
0.226199
0.257041
0.281381
0.297473
0.303805
0.299356
0.283874
0.258033
0.223452
0.182636
0.139054
0.0967069
0.0609184
0.0376486
0.0328939
0.0517228
0.0970445
0.174788
0.289938
0.422249
0.543535
0.628261
0.662237
0.6476
0.602279
0.554333
0.540365
0.646994
0.854066
1.08296
1.24448
1.28407
1.20139
1.03785
0.848088
0.680383
0.575062
0.522658
0.502557
0.50388
0.521419
0.545751
0.566683
0.575772
0.568228
0.543478
0.504314
0.455155
0.400308
0.34337
0.286209
0.229978
0.175897
0.125608
0.0811783
0.0447645
0.0183497
0.00330029
0
0.00767283
0.0276765
0.0868043
0.288722
0.72412
1.48724
2.52737
3.60715
4.37466
4.51493
3.90143
2.66371
1.13716
-0.278779
-1.28034
-1.74949
-1.66633
-1.43939
-1.08388
-0.665965
-0.256375
0.0279312
0.174403
0.255847
0.297181
0.305609
0.293982
0.277806
0.271203
0.282544
0.310137
0.349404
0.397195
0.450269
0.506094
0.563524
0.622882
0.685447
0.753027
0.827578
0.906214
0.980039
1.03828
1.0728
1.08204
1.0725
1.05712
1.05114
1.06725
1.10841
1.16851
1.24191
1.32469
1.4133
1.50469
1.59675
1.68848
1.77995
1.87189
1.96531
2.061
2.1592
2.25935
2.36014
2.45945
2.5547
2.64309
2.72164
2.78648
2.83337
2.8596
2.86278
2.84109
2.79344
2.71967
2.62056
2.49759
2.35285
2.18946
2.01226
1.82535
1.63285
1.43986
1.25282
1.07985
0.928358
0.80434
0.711361
0.649882
0.617188
0.607917
0.615043
0.631043
0.648911
0.663311
0.670444
0.667993
0.654977
0.631516
0.598614
0.557849
0.511187
0.460723
0.408425
0.355796
0.303623
0.251963
0.20014
0.147077
0.0919416
0.0345463
-0.0225421
-0.0713099
-0.100612
-0.0996579
-0.0621652
0.0106083
0.109393
0.219329
0.324265
0.411095
0.479201
0.527453
0.555839
0.565695
0.559037
0.538769
0.507762
0.469662
0.428974
0.390768
0.359951
0.340304
0.334485
0.342966
0.361302
0.382886
0.400686
0.408972
0.404475
0.386722
0.357582
0.320295
0.278389
0.234886
0.191484
0.14891
0.107394
0.0670524
0.028298
-0.00764666
-0.0383655
-0.0609239
-0.0722503
-0.0700845
-0.0538481
-0.0250856
0.0127228
0.0549311
0.0967946
0.134541
0.166582
0.192124
0.21095
0.223358
0.229887
0.231165
0.227864
0.220722
0.21054
0.198127
0.184194
0.169247
0.153549
0.137166
0.120133
0.102687
0.0855082
0.0699842
0.058266
0.0530855
0.0574865
0.0744488
0.106513
0.155465
0.222112
0.306125
0.405933
0.520231
0.647405
0.778797
177
404
634
847
1079
1310
1525
1759
1989
2204
2431
2659
2887
3101
3334
3568
2563
2711
2864
3020
3184
3339
3491
3640
3663
3689
2758
2882
3006
3130
3255
3381
3509
3559
3634
0
0
0
0
0
0
0
0
0
0
0
0
0
0
0
0
0
0
0
0
0
0
0
0
0
0
0
0
0
0
0
0
0
0
0
0
0
0
0
0
0
0
0
0
0
0
0
0
0
0
0
0
0
0
0
0
0
0
0
0
0
0
0
0
0
0
0
0
0
0
0
0
0
0
0
0
0
0
0
0
0
0
0
0
0
0
0
0
0
0
0
0
0
0
0
0
0
0
0
0
0
0
0
0
0
0
0
0
0
0
0
0
0
0
0
0
0
0
0
0
0
0
0
0
0
0
0
0
0
0
0
0
0
0
0
0
0
0
0
0
0
0
0
0
0
0
0
0
0
0
0
0
0
0
0
0
0
0
0
0
0
0
0
0
0
0
0
0
0
0
0
0
0
0
0
0
0
0
0
0
0
0
0
0
0
0
0
0
0
0
0
0
0
0
0
0
0
0
0
0
0
0
0
0
0
0
0
0
0
0
0
0
0
0
0
0
0
0
0
0
0
0
0
0
0
0
0
0
0
0
0
0
0
0
0
0
0
0
0
0
0
0
0
0
0
0
0
0
0
0
0
0
0
0
0
0
0
0
0
0
0
0
0
0
0
0
0
0
0
0
0
0
0
0
0
0
0
0
0
0
0
0
0
0
0
0
0
0
0
0
0
0
0
0
0
0
0
0
0
0
0
0
0
0
0
0
0
0
0
0
0
0
0
0
0
0
0
0
0
0
0
0
0
0
0
0
0
0
0
0
0
0
0
0
0
0
0
0
0
0
0
0
0
0
0
0
0
0
0
0
0
0
0
0
0
0
0
0
0
0
0
0
0
0
0
0
0
0
0
0
0
0
0
0
0
0
0
0
0
0
0
0
0
0
0
0
0
0
0
0
0
0
0
0
0
0
0
0
0
0
0
0
0
0
0
0
0
0
0
0
0
0
0
0
0
0
0
0
0
0
0
0
0
0
0
0
0
0
0
0
0
0
0
0
0
0
0
0
0
0
0
0
0
0
0
0
0
0
0
0
0
0
0
0
0
0
0
0
0
0
0
0
0
0
0
0
0
0
0
0
0
0
0
0
0
0
0
0
0
0
0
0
0
0
0
0
0
0
0
0
0
0
0
0
0
0
0
0
0
0
0
0
0
0
0
0
0
0
0
0
0
0
0
0
0
0
0
0
0
0
0
0
0
0
0
0
0
0
0
0
0
0
0
0
0
0
0
0
0
0
0
0
0
0
0
0
0
0
0
0
0
0
0
0
0
0
0
0
0
0
0
0
0
0
0
0
0
0
0
0
0
0
0
0
0
0
0
0
0
0
0
0
0
0
0
0
0
0
0
0
0
0
0
0
0
0
0
0
0
0
0
0
0
0
0
0
0
0
0
0
0
0
0
0
0
0
0
0
0
0
0
0
0
0
0
0
0
0
0
0
0
0
0
0
0
0
0
0
0
0
0
0
0
0
0
0
0
0
0
0
0
0
0
0
0
0
0
0
0
0
0
0
0
0
0
0
0
0
0
0
0
0
0
0
0
0
0
0
0
0
0
0
0
0
0
0
0
0
0
0
0
0
0
0
0
0
0
0
0
0
0
0
0
0
0
0
0
0
0
0
0
0
0
0
0
0
0
0
0
0
0
0
0
0
0
0
0
0
0
0
0
0
0
0
0
0
0
0
0
0
0
0
0
0
0
0
0
0
0
0
0
0
0
0
0
0
0
0
0
0
0
0
0
0
0
0
0
0
0
0
0
0
0
0
0
0
0
0
0
0
0
0
0
0
0
0
0
0
0
0
0
0
0
0
0
0
0
0
0
0
0
0
0
0
0
0
0
0
0
0
0
0
0
0
0
0
0
0
0
0
0
0
0
0
0
0
0
0
0
0
0
0
0
0
0
0
0
0
0
0
0
0
0
0
0
0
0
0
0
0
0
0
0
0
0
0
0
0
0
0
0
0
0
0
0
0
0
0
0
0
0
0
0
0
0
0
0
0
0
0
0
0
0
0
0
0
0
0
0
0
0
0
0
0
0
0
0
0
0
0
0
0
0
0
0
0
0
0
0
0
0
0
0
0
0
0
0
0
0
0
0
0
0
0
0
0
0
0
0
0
0
0
0
0
0
0
0
0
0
0
0
0
0
0
0
0
0
0
0
0
0
0
0
0
0
0
0
0
0
0
0
0
0
0
0
0
0
0
0
0
0
0
0
0
0
0
0
0
0
0
0
0
0
0
0
0
0
0
0
0
0
0
0
0
0
0
0
0
0
0
0
0
0
0
0
0
0
0
0
0
0
0
0
0
0
0
0
0
0
0
0
0
0
0
0
0
0
0
0
0
0
0
0
0
0
0
0
0
0
0
0
0
0
0
0
0
0
0
0
0
0
0
0
0
0
0
0
0
0
0
0
0
0
0
0
0
0
0
0
0
0
0
0
0
0
0
0
0
0
0
0
0
0
0
0
0
0
0
0
0
0
0
0
0
0
0
0
0
0
0
0
0
0
0
0
0
0
0
0
0
0
0
0
0
0
0
0
0
0
0
0
0
0
0
0
0
0
0
0
0
0
0
0
0
0
0
0
0
0
0
0
0
0
0
0
0
0
0
0
0
0
0
0
0
0
0
0
0
0
0
0
0
0
0
0
0
0
0
0
0
0
0
0
0
0
0
0
0
0
0
0
0
0
0
0
0
0
0
0
0
0
0
0
0
0
0
0
0
0
0
0
0
0
0
0
0
0
0
0
0
0
0
0
0
0
0
0
0
0
0
0
0
0
0
0
0
0
0
0
0
0
0
0
0
0
0
0
0
0
0
0
0
0
0
0
0
0
0
0
0
0
0
0
0
0
0
0
0
0
0
0
0
0
0
0
0
0
0
0
0
0
0
0
0
0
0
0
0
0
0
0
0
0
0
0
0
0
0
0
0
0
0
0
0
0
0
0
0
0
0
0
0
0
0
0
0
0
0
0
0
0
0
0
0
0
0
0
0
0
0
0
0
0
0
0
0
0
0
0
0
0
0
0
0
0
0
0
0
0
0
0
0
0
0
0
0
0
0
0
0
0
0
0
0
0
0
0
0
0
0
0
0
0
0
0
0
0
0
0
0
0
0
0
0
0
0
0
0
0
0
0
0
0
0
0
0
0
0
0
0
0
0
0
0
0
0
0
0
0
0
0
0
0
0
0
0
0
0
0
0
0
0
0
0
0
0
0
0
0
0
0
0
0
0
0
0
0
0
0
0
0
0
0
0
0
0
0
0
0
0
0
0
0
0
0
0
0
0
0
0
0
0
0
0
0
0
0
0
0
0
0
0
0
0
0
0
0
0
0
0
0
0
0
0
0
0
0
0
0
0
0
0
0
0
0
0
0
0
0
0
0
0
0
0
0
0
0
0
0
0
0
0
0
0
0
0
0
0
0
0
0
0
0
0
0
0
0
0
0
0
0
0
0
0
0
0
0
0
0
0
0
0
0
0
0
0
0
0
0
0
0
0
0
0
0
0
0
0
0
0
0
0
0
0
0
0
0
0
0
0
0
0
0
0
0
0
0
0
0
0
0
0
0
0
0
0
0
0
0
0
0
0
0
0
0
0
0
0
0
0
0
0
0
0
0
0
0
0
0
0
0
0
0
0
0
0
0
0
0
0
0
0
0
0
0
0
0
0
0
0
0
0
0
0
0
0
0
0
0
0
0
0
0
0
0
0
0
0
0
0
0
0
0
0
0
0
0
0
0
0
0
0
0
0
0
0
0
0
0
0
0
0
0
0
0
0
0
0
0
0
0
0
0
0
0
0
0
0
0
0
0
0
0
0
0
0
0
0
0
0
0
0
0
0
0
0
0
0
0
0
0
0
0
0
0
0
0
0
0
0
0
0
0
0
0
0
0
0
0
0
0
0
0
0
0
0
0
0
0
0
0
0
0
0
0
0
0
0
0
0
0
0
0
0
0
0
0
0
0
0
0
0
0
0
0
0
0
0
0
0
0
0
0
0
0
0
0
0
0
0
0
0
0
0
0
0
0
0
0
0
0
0
0
0
0
0
0
0
0
0
0
0
0
0
0
0
0
0
0
0
0
0
0
0
0
0
0
0
0
0
0
0
0
0
0
0
0
0
0
0
0
0
0
0
0
0
0
0
0
0
0
0
0
0
0
0
0
0
0
0
0
0
0
0
0
0
0
0
0
0
0
0
0
0
0
0
0
0
0
0
0
0
0
0
0
0
0
0
0
0
0
0
0
0
0
0
0
0
0
0
0
0
0
0
0
0
0
0
0
0
0
0
0
0
0
0
0
0
0
0
0
0
0
0
0
0
0
0
0
0
0
0
0
0
0
0
0
0
0
0
0
0
0
0
0
0
0
0
0
0
0
0
0
0
0
0
0
0
0
0
0
0
0
0
0
0
0
0
0
0
0
0
0
0
0
0
0
0
0
0
0
0
0
0
0
0
0
0
0
0
0
0
0
0
0
0
0
0
0
0
0
0
0
0
0
0
0
0
0
0
0
0
0
0
0
0
0
0
0
0
0
0
0
0
0
0
0
0
0
0
0
0
0
0
0
0
0
0
0
0
0
0
0
0
0
0
0
0
0
0
0
0
0
0
0
0
0
0
0
0
0
0
0
0
0
0
0
0
0
0
0
0
0
0
0
0
0
0
0
0
0
0
0
0
0
0
0
0
0
0
0
0
0
0
0
0
0
0
0
0
0
0
0
0
0
0
0
0
0
0
0
0
0
0
0
0
0
0
0
0
0
0
0
0
0
0
0
0
0
0
0
0
0
0
0
0
0
0
0
0
0
0
0
0
0
0
0
0
0
0
0
0
0
0
0
0
0
0
0
0
0
0
0
0
0
0
0
0
0
0
0
0
0
0
0
0
0
0
0
0
0
0
0
0
0
0
0
0
0
0
0
0
0
0
0
0
0
0
0
0
0
0
0
0
0
0
0
0
0
0
0
0
0
0
0
0
0
0
0
0
0
0
0
0
0
0
0
0
0
0
0
0
0
0
0
0
0
0
0
0
0
0
0
0
0
0
0
0
0
0
0
0
0
0
0
0
0
0
0
0
0
0
0
0
0
0
0
0
0
0
0
0
0
0
0
0
0
0
0
0
0
0
0
0
0
0
0
0
0
0
0
0
0
0
0
0
0
0
0
0
0
0
0
0
0
0
0
0
0
0
0
0
0
0
0
0
0
0
0
0
0
0
0
0
0
0
0
0
0
0
0
0
0
0
0
0
0
0
0
0
0
0
0
0
0
0
0
0
0
0
0
0
0
0
0
0
0
0
0
0
0
0
0
0
0
0
0
0
0
0
0
0
0
0
0
0
0
0
0
0
0
0
0
0
0
0
0
0
0
0
0
0
0
0
0
0
0
0
0
0
0
0
0
0
0
0
0
0
0
0
0
0
0
0
0
0
0
0
0
0
0
0
0
0
0
0
0
0
0
0
0
0
0
0
0
0
0
0
0
0
0
0
0
0
0
0
0
0
0
0
0
0
0
0
0
0
0
0
0
0
0
0
0
0
0
0
0
0
0
0
0
0
0
0
0
0
0
0
0
0
0
0
0
0
0
0
0
0
0
0
0
0
0
0
0
0
0
0
0
0
0
0
0
0
0
0
0
0
0
0
0
0
0
0
0
0
0
0
0
0
0
0
0
0
0
0
0
0
0
0
0
0
0
0
0
0
0
0
0
0
0
0
0
0
0
0
0
0
0
0
0
0
0
0
0
0
0
0
0
0
0
0
0
0
0
0
0
0
0
0
0
0
0
0
0
0
0
0
0
0
0
0
0
0
0
0
0
0
0
0
0
0
0
0
0
0
0
0
0
0
0
0
0
0
0
0
0
0
0
0
0
0
0
0
0
0
0
0
0
0
0
0
0
0
0
0
0
0
0
0
0
0
0
0
0
0
0
0
0
0
0
0
0
0
0
0
0
0
0
0
0
0
0
0
0
0
0
0
0
0
0
0
0
0
0
0
0
0
0
0
0
0
0
0
0
0
0
0
0
0
0
0
0
0
0
0
0
0
0
0
0
0
0
0
0
0
0
0
0
0
0
0
0
0
0
0
0
0
0
0
0
0
0
0
0
0
0
0
0
0
0
0
0
0
0
0
0
0
0
0
0
0
0
0
0
0
0
0
0
0
0
0
0
0
0
0
0
0
0
0
0
0
0
0
0
0
0
0
0
0
0
0
0
0
0
0
0
0
0
0
0
0
0
0
0
0
0
0
0
0
0
0
0
0
0
0
0
0
0
0
0
0
0
0
0
0
0
0
0
0
0
0
0
0
0
0
0
0
0
0
0
0
0
0
0
0
0
0
0
0
0
0
0
0
0
0
0
0
0
0
0
0
0
0
0
0
0
0
0
0
0
0
0
0
0
0
0
0
0
0
0
0
0
0
0
0
0
0
0
0
0
0
0
0
0
0
0
0
0
0
0
0
0
0
0
0
0
0
0
0
0
0
0
0
0
0
0
0
0
0
0
0
0
0
0
0
0
0
0
0
0
0
0
0
0
0
0
0
0
0
0
0
0
0
0
0
0
0
0
0
0
0
0
0
0
0
0
0
0
0
0
0
0
0
0
0
0
0
0
0
0
0
0
0
0
0
0
0
0
0
0
0
0
0
0
0
0
0
0
0
0
0
0
0
0
0
0
0
0
0
0
0
0
0
0
0
0
0
0
0
0
0
0
0
0
0
0
0
0
0
0
0
0
0
0
0
0
0
0
0
0
0
0
0
0
0
0
0
0
0
0
0
0
0
0
0
0
0
0
0
0
0
0
0
0
0
0
0
0
0
0
0
0
0
0
0
0
0
0
0
0
0
0
0
0
0
0
0
0
0
0
0
0
0
0
0
0
0
0
0
0
0
0
0
0
0
0
0
0
0
0
0
0
0
0
0
0
0
0
0
0
0
0
0
0
0
0
0
0
0
0
0
0
0
0
0
0
0
0
0
0
0
0
0
0
0
0
0
0
0
0
0
0
0
0
0
0
0
0
0
0
0
0
0
0
0
0
0
0
0
0
0
0
0
0
0
0
0
0
0
0
0
0
0
0
0
0
0
0
0
0
0
0
0
0
0
0
0
0
0
0
0
0
0
0
0
0
0
0
0
0
0
0
0
0
0
0
0
0
0
0
0
0
0
0
0
0
0
0
0
0
0
0
0
0
0
0
0
0
0
0
0
0
0
0
0
0
0
0
0
0
0
0
0
0
0
0
0
0
0
0
0
0
0
0
0
0
0
0
0
0
0
0
0
0
0
0
0
0
0
0
0
0
0
0
0
0
0
0
0
0
0
0
0
0
0
0
0
0
0
0
0
0
0
0
0
0
0
0
0
0
0
0
0
0
0
0
0
0
0
0
0
0
0
0
0
0
0
0
0
0
0
0
0
0
0
0
0
0
0
0
0
0
0
0
0
0
0
0
0
0
0
0
0
0
0
0
0
0
0
0
0
0
0
0
0
0
0
0
0
0
0
0
0
0
0
0
0
0
0
0
0
0
0
0
0
0
0
0
0
0
0
0
0
0
0
0
0
0
0
0
0
0
0
0
0
0
0
0
0
0
0
0
0
0
0
0
0
0
0
0
0
0
0
0
0
0
0
0
0
0
0
0
0
0
0
0
0
0
0
0
0
0
0
0
0
0
0
0
0
0
0
0
0
0
0
0
0
0
0
0
0
0
0
0
0
0
0
0
0
0
0
0
0
0
0
0
0
0
0
0
0
0
0
0
0
0
0
0
0
0
0
0
0
0
0
0
0
0
0
0
0
0
0
0
0
0
0
0
0
0
0
0
0
0
0
0
0
0
0
0
0
0
0
0
0
0
0
0
0
0
0
0
0
0
0
0
0
0
0
0
0
0
0
0
0
0
0
0
0
0
0
0
0
0
0
0
0
0
0
0
0
0
0
0
0
0
0
0
0
0
0
0
0
0
0
0
0
0
0
0
0
0
0
0
0
0
0
0
0
0
0
0
0
0
0
0
0
0
0
0
0
0
0
0
0
0
0
0
0
0
0
0
0
0
0
0
0
0
0
0
0
0
0
0
0
0
0
0
0
0
0
0
0
0
0
0
0
0
0
0
0
0
0
0
0
0
0
0
0
0
0
0
0
0
0
0
0
0
0
0
0
0
0
0
0
0
0
0
0
0
0
0
0
0
0
0
0
0
0
0
0
0
0
0
0
0
0
0
0
0
0
0
0
0
0
0
0
0
0
0
0
0
0
0
0
0
0
0
0
0
0
0
0
0
0
0
0
0
0
0
0
0
0
0
0
0
0
0
0
0
0
0
0
0
0
0
0
0
0
0
0
0
0
0
0
0
0
0
0
0
0
0
0
0
0
0
0
0
0
0
0
0
0
0
0
0
0
0
0
0
0
0
0
0
0
0
0
