2.1892
2.29538
2.37863
2.43501
2.46203
2.4584
2.42365
2.35782
2.26152
2.13654
1.98567
1.81318
1.625
1.42829
1.23076
1.03993
0.862808
0.706339
0.575513
0.469565
0.384797
0.31599
0.25797
0.206856
0.160646
0.119145
0.0834178
0.0548189
0.0338574
0.0213063
0.0174973
0.022219
0.0354539
0.0549762
0.0773024
0.0990302
0.117745
0.132657
0.144694
0.155985
0.169015
0.185806
0.206909
0.232092
0.261259
0.294167
0.330503
0.369849
0.411584
0.454643
0.497356
0.537432
0.572213
0.599346
0.617207
0.625293
0.624404
0.616528
0.604487
0.591398
0.580116
0.572731
0.570136
0.572361
0.579063
0.589659
0.603458
0.619887
0.638651
0.65993
0.68451
0.713828
0.749884
0.795037
0.851654
0.922205
1.01105
1.12456
1.26788
1.43379
1.59661
1.72719
1.80026
1.79962
1.72229
1.58014
1.3977
1.20623
1.03612
0.900311
0.79337
0.708091
0.640955
0.590928
0.55626
0.533956
0.519937
0.509593
0.498478
0.482813
0.459863
0.42816
0.387503
0.338795
0.283744
0.224396
0.163002
0.101899
0.0430713
-0.0119477
0
0.417932
1.39645
3.06886
5.37009
7.95922
10.2548
11.6081
11.5608
10.059
7.49832
4.56557
1.96303
0.15814
-0.726735
-0.866318
-0.626516
-0.40739
-0.225299
-0.0888805
0.00162296
0.0678238
0.120907
0.164643
0.20079
0.230692
0.255395
0.275803
0.292772
0.307196
0.320088
0.332566
0.345803
0.360932
0.378929
0.400497
0.425973
0.455288
0.487992
0.523349
0.560478
0.598525
0.636832
0.67511
0.713612
0.753285
0.795837
0.843704
0.899873
0.967549
1.0497
1.14857
1.26524
1.39925
1.54863
1.71064
1.88189
2.05873
2.23771
2.41591
2.59113
2.76207
2.92819
3.08945
3.2458
3.39682
3.54089
3.67384
3.78836
3.87518
3.92402
3.92609
3.87632
3.77491
3.62775
3.44563
3.24243
3.03322
2.82873
2.6337
2.45005
2.27956
2.12324
1.98098
1.8517
1.73356
1.62426
1.5214
1.423
1.3279
1.23635
1.15049
1.0741
1.0118
0.96814
0.9463
0.947085
0.968394
1.00536
1.05155
1.09894
1.14016
1.16983
1.18539
1.18728
1.17851
1.16376
1.14829
1.13666
1.13154
1.13382
1.14341
1.15939
1.1791
1.19834
1.21261
1.21786
1.21119
1.1913
1.15869
1.11562
1.06592
1.01464
0.967053
0.927723
0.902866
0.903663
0.939933
0.99957
1.06011
1.09691
1.09216
1.04159
0.956114
0.858019
0.773242
0.723039
0.706646
0.714919
0.742188
0.786278
0.844521
0.914169
0.992218
1.07616
1.16343
1.25113
1.33591
1.41413
1.48192
1.53482
1.56798
1.57769
1.56123
1.51723
1.44624
1.35119
1.23751
1.11277
0.985655
0.864669
0.755839
0.665011
0.59396
0.540787
0.501631
0.472152
0.448756
0.42916
0.412157
0.396784
0.381307
0.362484
0.335508
0.294684
0.234649
0.149579
0.0304894
-0.116854
-0.281061
-0.447625
-0.49691
0
1.0564
2.75322
5.03328
7.60642
9.94008
11.3985
11.4948
10.126
7.65006
4.74438
2.12596
0.286913
-0.629678
-0.783211
-0.602441
-0.450889
-0.328496
-0.240416
-0.184929
-0.15491
-0.140926
-0.134706
-0.131462
-0.129844
-0.130385
-0.133335
-0.13742
-0.139745
-0.136846
-0.126225
-0.107625
-0.0836338
-0.0567258
-0.0293159
-0.00291772
0.0221962
0.0467605
0.0719366
0.0987558
0.127709
0.159308
0.194322
0.234109
0.280695
0.336501
0.403812
0.4842
0.577595
0.682703
0.798072
0.922229
1.05383
1.19183
1.33554
1.4843
1.63723
1.79292
1.94924
2.10351
2.25274
2.39406
2.52507
2.64419
2.75068
2.84455
2.92616
2.9955
3.05147
3.09232
3.11603
3.11972
3.10019
3.05444
2.98032
2.87681
2.74435
2.58498
2.40339
2.20653
2.001
1.79351
1.59108
1.40027
1.22697
1.07598
0.948438
0.842404
0.75418
0.679587
0.615147
0.558839
0.510234
0.47004
0.439343
0.418461
0.407529
0.405672
0.411502
0.423544
0.440563
0.461629
0.485941
0.512655
0.540342
0.567132
0.591117
0.610859
0.625799
0.636373
0.643784
0.649577
0.655236
0.661899
0.670508
0.681968
0.697231
0.717193
0.742459
0.773635
0.809325
0.845405
0.87632
0.896351
0.901104
0.88876
0.860696
0.821359
0.777405
0.73631
0.703947
0.683502
0.675932
0.681144
0.697478
0.722326
0.752978
0.787474
0.825106
0.866748
0.914486
0.970996
1.03918
1.12538
1.2345
1.35534
1.4677
1.55028
1.58728
1.5725
1.50936
1.40791
1.28107
1.14255
1.0061
0.879453
0.767516
0.674504
0.60908
0.581125
0.587231
0.613032
0.641012
0.655526
0.646768
0.612259
0.555612
0.483523
0.402493
0.317288
0.229894
0.140633
0.049175
-0.0445121
-0.140068
-0.241284
0
0.754152
2.12965
4.09249
6.41837
8.6796
10.3179
10.8184
9.93171
7.82184
5.03639
2.29382
0.196129
-0.979998
-1.31566
-1.07571
-0.86294
-0.672923
-0.519817
-0.411555
-0.335836
-0.279213
-0.23686
-0.203419
-0.173937
-0.144634
-0.113414
-0.0798863
-0.0448208
-0.00968132
0.0236901
0.0533898
0.0776341
0.0951233
0.105323
0.108599
0.106391
0.101224
0.0968305
0.0978183
0.108671
0.13278
0.171605
0.224412
0.289088
0.360651
0.434066
0.505805
0.574888
0.643014
0.713805
0.791505
0.879671
0.979528
1.09028
1.21117
1.34154
1.48062
1.62762
1.78145
1.94037
2.10168
2.26162
2.41556
2.55861
2.68624
2.79484
2.88192
2.94518
2.98344
2.99647
2.98431
2.94721
2.88576
2.80108
2.69482
2.56913
2.42642
2.26959
2.10167
1.92522
1.74304
1.55856
1.37581
1.19933
1.03372
0.883178
0.75146
0.640652
0.550735
0.480322
0.427172
0.388711
0.362362
0.345727
0.337261
0.33401
0.332001
0.327431
0.31752
0.301303
0.279898
0.256025
0.232941
0.21324
0.197698
0.185846
0.176801
0.169731
0.164514
0.162048
0.164069
0.172542
0.188856
0.212699
0.243459
0.278085
0.312262
0.341918
0.364376
0.378987
0.387021
0.390838
0.392706
0.393746
0.393488
0.390282
0.382518
0.370081
0.355392
0.343538
0.341383
0.355934
0.392428
0.449935
0.527254
0.623855
0.736436
0.856323
0.968856
1.05879
1.11268
1.12028
1.07628
0.98199
0.846454
0.68601
0.52169
0.373803
0.251708
0.154096
0.0800432
0.0273542
-0.00829353
-0.0319189
-0.0478691
-0.0589127
-0.0660572
-0.0690903
-0.0675783
-0.0618444
-0.0536348
-0.0469442
-0.0468462
-0.058135
-0.0839209
-0.12467
-0.178017
-0.239395
-0.317862
0
0.886109
2.46003
4.63161
7.04772
9.14775
10.345
10.2661
8.92662
6.73734
4.32657
2.27302
0.894615
0.195102
-0.0318997
0.0200408
0.082173
0.144696
0.205597
0.262737
0.31425
0.359202
0.39735
0.428945
0.453861
0.472364
0.485347
0.494257
0.501332
0.509727
0.523358
0.546452
0.588402
0.662705
0.766466
0.875292
0.95836
0.990647
0.962998
0.885957
0.786489
0.699252
0.655498
0.662327
0.705184
0.771652
0.854801
0.95022
1.05436
1.16453
1.27907
1.39736
1.51941
1.64539
1.77521
1.90815
2.04284
2.17733
2.30941
2.43698
2.55828
2.67206
2.77758
2.87441
2.96179
3.03828
3.10258
3.15297
3.18726
3.20291
3.19714
3.16701
3.10948
3.02168
2.90139
2.74968
2.56861
2.36159
2.13452
1.89554
1.65417
1.41997
1.20141
1.00519
0.835723
0.695282
0.583308
0.496442
0.430125
0.379538
0.340377
0.309344
0.284323
0.26431
0.249197
0.239394
0.235601
0.238644
0.249064
0.266833
0.291574
0.321931
0.355012
0.387616
0.416993
0.44149
0.460814
0.4758
0.487752
0.497643
0.505435
0.509914
0.508942
0.500148
0.481765
0.453351
0.416185
0.37327
0.328929
0.287901
0.254021
0.231029
0.223508
0.230164
0.241739
0.246354
0.233605
0.198442
0.143268
0.0774094
0.0141775
-0.0332485
-0.0585844
-0.064154
-0.0518486
-0.0228035
0.0211304
0.0781315
0.146637
0.227972
0.330029
0.467048
0.629989
0.78439
0.885049
0.895452
0.80488
0.632903
0.419453
0.207783
0.030934
-0.111246
-0.230848
-0.333194
-0.418709
-0.487154
-0.540074
-0.580753
-0.61286
-0.639786
-0.664088
-0.687189
-0.709448
-0.730526
-0.749883
-0.767295
-0.782995
-0.797426
-0.811208
-0.824987
-0.841838
-0.644865
0
1.2882
3.25655
5.69049
8.10415
9.8605
10.4069
9.51946
7.42322
4.70765
2.07458
0.0548815
-1.15601
-1.67835
-1.76899
-1.73112
-1.68908
-1.64183
-1.58899
-1.53115
-1.47001
-1.40803
-1.34818
-1.29347
-1.24629
-1.20792
-1.17899
-1.15922
-1.14748
-1.14197
-1.14059
-1.14117
-1.1418
-1.14102
-1.13781
-1.13152
-1.12186
-1.10874
-1.09203
-1.07148
-1.04658
-1.01659
-0.980599
-0.937597
-0.886634
-0.827049
-0.758372
-0.680533
-0.594045
-0.500124
-0.400495
-0.297411
-0.193596
-0.0911518
0.00917215
0.108423
0.20942
0.316178
0.432898
0.562784
0.707035
0.863588
1.02879
1.19766
1.36337
1.51832
1.65524
1.76771
1.85069
1.90138
1.91822
1.90076
1.84971
1.7671
1.65634
1.52194
1.36908
1.20314
1.0296
0.852928
0.676527
0.503768
0.338386
0.184759
0.0476537
-0.0686456
-0.160745
-0.226776
-0.266859
-0.281987
-0.275023
-0.252099
-0.221107
-0.189593
-0.163671
-0.147255
-0.141716
-0.145966
-0.15694
-0.17034
-0.181558
-0.186823
-0.183838
-0.171856
-0.151469
-0.124178
-0.0921535
-0.0579527
-0.0241102
0.00719824
0.0343286
0.0561663
0.0719834
0.0812333
0.0832952
0.0774702
0.0632724
0.0406222
0.0102292
-0.0260885
-0.0652836
-0.103256
-0.135316
-0.156866
-0.164335
-0.154068
-0.122147
-0.0656471
0.00978928
0.0864038
0.144981
0.169829
0.153237
0.0979647
0.0167145
-0.0712584
-0.131766
0.0630339
0.574689
1.17572
1.65112
1.85716
1.77342
1.48483
1.11288
0.753478
0.469152
0.298361
0.192386
0.111189
0.0424406
-0.0176712
-0.0702991
-0.115662
-0.153818
-0.184918
-0.209403
-0.228146
-0.2425
-0.254258
-0.26548
-0.278197
-0.294111
-0.314346
-0.33938
-0.368929
-0.401771
-0.435951
-0.469177
-0.499134
-0.453474
0
0.990622
2.65359
4.93878
7.52932
9.86404
11.2954
11.3442
9.92473
7.40524
4.4577
1.77947
-0.155991
-1.20201
-1.48448
-1.18308
-0.90171
-0.661703
-0.483466
-0.380373
-0.352355
-0.383388
-0.445059
-0.505352
-0.539317
-0.542106
-0.526051
-0.501068
-0.473324
-0.448746
-0.432074
-0.426418
-0.43324
-0.452544
-0.483038
-0.521519
-0.565104
-0.608092
-0.643215
-0.6631
-0.66172
-0.635686
-0.584886
-0.512244
-0.422712
-0.321877
-0.215331
-0.10656
0.00288906
0.112651
0.223223
0.335688
0.451371
0.571499
0.6969
0.827802
0.963747
1.10363
1.24582
1.38834
1.529
1.66557
1.79579
1.9174
2.02814
2.12601
2.20915
2.27585
2.32441
2.35317
2.36068
2.34546
2.30608
2.24139
2.15079
2.03452
1.89398
1.73178
1.55187
1.35937
1.1598
0.958796
0.761926
0.574429
0.400899
0.245004
0.109315
-0.00428982
-0.0948605
-0.163967
-0.215122
-0.252436
-0.279788
-0.30011
-0.314967
-0.324553
-0.328086
-0.324437
-0.313079
-0.29442
-0.269501
-0.239778
-0.207247
-0.173943
-0.141566
-0.111252
-0.0835476
-0.0585754
-0.0364262
-0.0174187
-0.00202179
0.00911961
0.0154396
0.016799
0.0136751
0.00706654
-0.00185852
-0.0121986
-0.0235973
-0.0362021
-0.0502865
-0.0657208
-0.0815512
-0.0959269
-0.106448
-0.110809
-0.107475
-0.0968142
-0.0797546
-0.0575279
-0.0314695
-0.00255394
0.0290716
0.0641659
0.104278
0.151415
0.207575
0.274252
0.352227
0.442347
0.544778
0.655177
0.761426
0.848819
0.903858
0.917362
0.886458
0.81473
0.710705
0.58565
0.451803
0.320804
0.199173
0.0904713
-0.00183239
-0.071685
-0.115321
-0.138196
-0.149365
-0.158749
-0.174309
-0.199991
-0.235171
-0.275727
-0.316201
-0.352117
-0.382528
-0.408743
-0.432464
-0.455517
-0.479514
-0.505376
-0.536004
-0.516073
0
1.30698
3.48499
6.25399
9.00029
10.9768
11.589
10.6327
8.3701
5.41721
2.50625
0.231239
-1.11689
-1.57435
-1.39937
-1.18439
-0.998376
-0.863246
-0.787676
-0.765282
-0.777505
-0.800304
-0.812291
-0.801207
-0.772564
-0.73445
-0.692154
-0.649977
-0.611436
-0.578741
-0.552659
-0.532688
-0.517415
-0.50488
-0.493013
-0.479876
-0.463773
-0.44333
-0.417518
-0.385556
-0.346794
-0.300745
-0.246868
-0.184544
-0.11318
-0.0324411
0.0574837
0.155695
0.260601
0.370105
0.482211
0.595423
0.70908
0.823462
0.939616
1.05897
1.18285
1.31209
1.44677
1.58626
1.7293
1.87421
2.01914
2.16221
2.30146
2.43454
2.55824
2.66849
2.76089
2.83119
2.87485
2.88761
2.86593
2.80764
2.71228
2.58138
2.41827
2.22769
2.01593
1.78978
1.55589
1.31993
1.08704
0.863597
0.657841
0.476708
0.325801
0.208231
0.12383
0.069081
0.0378378
0.0226107
0.016012
0.0117397
0.00593061
-0.00352507
-0.0172195
-0.0344619
-0.0535979
-0.072503
-0.0887463
-0.0998966
-0.103878
-0.0993369
-0.0853624
-0.0620282
-0.031657
0.000359058
0.0275199
0.0441875
0.0471453
0.0365909
0.0162019
-0.00782166
-0.0284949
-0.0400576
-0.040567
-0.0308303
-0.013716
0.00502119
0.0189536
0.0226709
0.0131846
-0.00926809
-0.041157
-0.0762815
-0.106888
-0.125109
-0.125531
-0.105957
-0.0661506
-0.00667172
0.071124
0.165299
0.273021
0.389809
0.509538
0.624247
0.723918
0.798625
0.840321
0.842619
0.801917
0.71881
0.599138
0.453913
0.297781
0.146329
0.0112513
-0.104223
-0.200634
-0.276945
-0.332943
-0.369719
-0.388908
-0.392844
-0.385267
-0.371176
-0.355866
-0.343886
-0.338356
-0.340495
-0.349507
-0.362886
-0.377082
-0.388375
-0.393793
-0.392017
-0.383326
-0.343093
0
0.742457
2.05638
3.95094
6.17787
8.24674
9.56898
9.68762
8.48579
6.26096
3.61461
1.20923
-0.481196
-1.30569
-1.41161
-1.23459
-1.07033
-0.929017
-0.815986
-0.730892
-0.665403
-0.612189
-0.563207
-0.5115
-0.452955
-0.386845
-0.314219
-0.237176
-0.158771
-0.0828351
-0.0138293
0.0441534
0.0882507
0.116944
0.130343
0.130334
0.120497
0.105739
0.0916868
0.0839551
0.0869176
0.102931
0.133257
0.178688
0.23937
0.31466
0.403271
0.503393
0.612836
0.729182
0.849994
0.973079
1.0967
1.21983
1.34223
1.46433
1.58698
1.71105
1.837
1.96473
2.09345
2.22199
2.34904
2.4734
2.5939
2.70871
2.81455
2.9069
2.97999
3.02655
3.03972
3.01503
2.95142
2.85103
2.71808
2.55755
2.37709
2.1846
1.98566
1.78465
1.58578
1.39331
1.21118
1.04259
0.889818
0.753921
0.633973
0.528056
0.434008
0.350221
0.276425
0.213942
0.164868
0.131593
0.115743
0.117617
0.137219
0.169563
0.20639
0.239276
0.261652
0.270189
0.26517
0.249817
0.228897
0.207182
0.188111
0.173108
0.162597
0.156925
0.156348
0.16123
0.171999
0.188883
0.212165
0.240954
0.271653
0.298416
0.314725
0.314921
0.295669
0.256936
0.202261
0.138324
0.0739706
0.0183982
-0.0210126
-0.038007
-0.0290854
0.00582476
0.0632572
0.136744
0.217911
0.297858
0.368847
0.426347
0.465968
0.485367
0.483841
0.462203
0.422653
0.368628
0.304544
0.235382
0.166114
0.100954
0.0425392
-0.00754423
-0.0489544
-0.0825498
-0.109906
-0.132849
-0.153059
-0.171849
-0.19016
-0.20871
-0.228232
-0.249636
-0.27406
-0.302852
-0.337313
-0.378626
-0.427872
-0.484695
-0.546638
-0.609964
-0.670148
-0.587037
0
1.10266
2.74623
4.82136
7.02917
8.8904
9.87278
9.6112
8.10192
5.7394
3.15791
0.967117
-0.471093
-1.11829
-1.17385
-1.10413
-1.03482
-0.966488
-0.897596
-0.82544
-0.748848
-0.668216
-0.586628
-0.509359
-0.442384
-0.390529
-0.353596
-0.331255
-0.321225
-0.32001
-0.323754
-0.328806
-0.332527
-0.33293
-0.328499
-0.318187
-0.301459
-0.278357
-0.24955
-0.216333
-0.180231
-0.142764
-0.105168
-0.0680954
-0.031419
0.00584087
0.0454323
0.0896421
0.140951
0.201625
0.273321
0.356788
0.451752
0.557179
0.671247
0.791953
0.917512
1.04658
1.1782
1.31159
1.44573
1.5791
1.70959
1.83469
1.95161
2.05762
2.14997
2.22553
2.28037
2.31076
2.31374
2.28643
2.22666
2.13368
2.00874
1.85535
1.67901
1.48659
1.28607
1.08453
0.887543
0.700018
0.52606
0.368891
0.230757
0.112836
0.0153431
-0.0621825
-0.121283
-0.165047
-0.196814
-0.219582
-0.235539
-0.245842
-0.250767
-0.250161
-0.243538
-0.231035
-0.215567
-0.202056
-0.195607
-0.199605
-0.214155
-0.235578
-0.257264
-0.271627
-0.272473
-0.258614
-0.232961
-0.198643
-0.15922
-0.118538
-0.079918
-0.045587
-0.0164675
0.00769887
0.0279905
0.045857
0.0627385
0.0797244
0.097484
0.116295
0.136153
0.156902
0.178404
0.200799
0.224681
0.251162
0.281757
0.318098
0.361506
0.412559
0.47075
0.534309
0.600514
0.665771
0.725846
0.776013
0.811709
0.829449
0.826732
0.802266
0.756165
0.690079
0.60718
0.511965
0.409892
0.306911
0.20837
0.118585
0.041635
-0.0197105
-0.0640614
-0.0915827
-0.103645
-0.102531
-0.092864
-0.0797234
-0.0676619
-0.0598883
-0.0577646
-0.0607432
-0.0667443
-0.0728464
-0.0760829
-0.0744364
-0.0670368
-0.0538408
0
0.363458
1.16233
2.59322
4.68996
7.19056
9.5323
11.0323
11.181
9.88517
7.5131
4.7227
2.18256
0.342834
-0.654099
-0.930767
-0.794086
-0.676494
-0.575047
-0.49344
-0.432244
-0.385899
-0.34916
-0.31943
-0.294613
-0.273231
-0.254548
-0.238554
-0.225731
-0.216751
-0.21218
-0.212193
-0.216403
-0.223811
-0.232907
-0.241868
-0.248801
-0.251971
-0.249872
-0.241264
-0.225121
-0.2006
-0.167087
-0.124334
-0.0726391
-0.0129695
0.053099
0.123671
0.196995
0.272011
0.348768
0.428562
0.513725
0.60711
0.711416
0.828562
0.958985
1.10193
1.25568
1.4177
1.58493
1.75413
1.92196
2.08508
2.23979
2.38176
2.50626
2.60926
2.68733
2.73756
2.75777
2.74644
2.70271
2.6263
2.51772
2.37844
2.2125
2.02531
1.82258
1.61023
1.39445
1.18127
0.976282
0.78434
0.609474
0.454848
0.322731
0.214851
0.133694
0.0815796
0.0569143
0.05249
0.0584842
0.0650552
0.0643154
0.0519156
0.027805
-0.00403593
-0.0368218
-0.0628455
-0.0759962
-0.0738042
-0.0574585
-0.0301714
0.00473931
0.0432856
0.081191
0.114323
0.139665
0.15568
0.162501
0.161926
0.157182
0.152439
0.152076
0.159795
0.177754
0.20785
0.248246
0.291716
0.329737
0.355142
0.364274
0.357856
0.340362
0.318359
0.298697
0.286723
0.284689
0.294964
0.320381
0.363492
0.426238
0.509442
0.612306
0.732789
0.867421
1.00972
1.15014
1.27639
1.3767
1.44211
1.46626
1.44581
1.38138
1.2784
1.14757
1.00391
0.864393
0.74281
0.644159
0.567443
0.512749
0.478826
0.462959
0.4617
0.471482
0.488631
0.510106
0.532797
0.552671
0.5646
0.563216
0.543542
0.502021
0.437434
0.351356
0.247941
0.133116
0
0.328615
1.15071
2.57223
4.61736
7.1243
9.67728
11.6625
12.4749
11.7849
9.7164
6.82165
3.8614
1.50515
0.104805
-0.36525
-0.199324
-0.00688477
0.163133
0.293187
0.374588
0.408502
0.404537
0.377998
0.346881
0.32833
0.331995
0.36133
0.416345
0.501739
0.620223
0.755566
0.884662
0.98637
1.04794
1.06872
1.05981
1.03977
1.02814
1.03907
1.07223
1.12065
1.17898
1.24372
1.31194
1.38139
1.4507
1.5194
1.58768
1.65625
1.72611
1.79853
1.875
1.9572
2.04688
2.14559
2.25444
2.37379
2.50307
2.64075
2.78452
2.93146
3.07841
3.22215
3.35955
3.4874
3.60275
3.70341
3.78768
3.85431
3.90231
3.93063
3.93779
3.92154
3.87881
3.80632
3.70168
3.56319
3.39153
3.19048
2.96689
2.73007
2.49047
2.25791
2.04031
1.84334
1.67005
1.52119
1.39577
1.29176
1.20668
1.13804
1.08358
1.04081
1.00733
0.981002
0.960245
0.944093
0.932158
0.924353
0.920648
0.920608
0.922113
0.921845
0.916186
0.902299
0.879063
0.847475
0.810343
0.771404
0.734217
0.70077
0.671456
0.646086
0.62377
0.603213
0.583095
0.562386
0.540581
0.517795
0.494719
0.472453
0.45225
0.435203
0.421997
0.412728
0.406799
0.403027
0.40004
0.396679
0.392334
0.387111
0.381789
0.377574
0.375774
0.377641
0.38401
0.395479
0.412671
0.436535
0.468508
0.510431
0.566486
0.644688
0.753271
0.884766
1.01225
1.10312
1.12864
1.07275
0.937522
0.7438
0.525796
0.320423
0.150036
0.00958176
-0.110849
-0.214666
-0.302886
-0.376518
-0.436241
-0.482381
-0.514916
-0.533969
-0.540411
-0.53621
-0.524666
-0.510567
-0.499558
-0.496981
-0.50706
-0.53227
-0.573012
-0.627638
-0.692828
-0.781964
-0.625517
0
1.27098
3.23448
5.69905
8.19839
10.0862
10.7625
9.93985
7.8027
4.95414
2.16594
0.063773
-1.08791
-1.40667
-1.24803
-1.17639
-1.11032
-1.05302
-1.00621
-0.968751
-0.939011
-0.915276
-0.895594
-0.878099
-0.861308
-0.844123
-0.825772
-0.805685
-0.783383
-0.75844
-0.730552
-0.699598
-0.665769
-0.630074
-0.594802
-0.562721
-0.535957
-0.514965
-0.497927
-0.480973
-0.459264
-0.428623
-0.387054
-0.33526
-0.276784
-0.21608
-0.156269
-0.0972443
-0.0349567
0.0377262
0.128879
0.244843
0.386599
0.548302
0.723792
0.907148
1.09211
1.2729
1.445
1.60559
1.75369
1.88989
2.016
2.13452
2.24804
2.35866
2.46776
2.57324
2.66547
2.72862
2.74549
2.70396
2.60167
2.44674
2.25409
2.03978
1.81665
1.59265
1.37052
1.15205
0.939358
0.734925
0.541645
0.362992
0.203169
0.065913
-0.046413
-0.132745
-0.193634
-0.231359
-0.249739
-0.253693
-0.248583
-0.239494
-0.230604
-0.224763
-0.223502
-0.227199
-0.23543
-0.24733
-0.261847
-0.277944
-0.294705
-0.311202
-0.32645
-0.339399
-0.348978
-0.354201
-0.354302
-0.348727
-0.33727
-0.320134
-0.297979
-0.27187
-0.243363
-0.214527
-0.187841
-0.166037
-0.152006
-0.148593
-0.157978
-0.181464
-0.219077
-0.269218
-0.329968
-0.395691
-0.457436
-0.505832
-0.532895
-0.533504
-0.506056
-0.452116
-0.375285
-0.279821
-0.170467
-0.0497583
0.0836473
0.227607
0.368364
0.483944
0.550227
0.549049
0.475201
0.339514
0.167083
-0.00898876
-0.157202
-0.268439
-0.352563
-0.418889
-0.471271
-0.514397
-0.552615
-0.589044
-0.625182
-0.661077
-0.695876
-0.728478
-0.758288
-0.785172
-0.809027
-0.829871
-0.847746
-0.862703
-0.874861
-0.884534
-0.887971
-0.61519
0
1.09694
2.73364
4.78302
6.88242
8.49043
9.07448
8.35887
6.49034
4.00269
1.58181
-0.233233
-1.24089
-1.56852
-1.47528
-1.35556
-1.23729
-1.126
-1.02585
-0.937061
-0.856155
-0.780295
-0.707215
-0.635013
-0.562296
-0.488166
-0.413008
-0.340342
-0.277292
-0.232281
-0.212144
-0.218999
-0.248195
-0.288469
-0.324631
-0.342065
-0.331261
-0.295309
-0.243027
-0.180708
-0.112262
-0.0405762
0.0329283
0.108509
0.187873
0.273593
0.368352
0.474192
0.59195
0.721141
0.860029
1.00594
1.15576
1.30646
1.45556
1.60142
1.74332
1.88142
2.01647
2.14952
2.28154
2.41308
2.54405
2.67356
2.7996
2.91864
3.02578
3.11604
3.18483
3.22842
3.24438
3.23168
3.19046
3.1215
3.02584
2.90455
2.76046
2.59755
2.42015
2.23283
2.04083
1.85014
1.66693
1.4969
1.3446
1.21294
1.10308
1.01464
0.946057
0.894871
0.858394
0.834058
0.819565
0.812882
0.812563
0.816622
0.821674
0.824175
0.82104
0.810338
0.791719
0.766364
0.736442
0.70437
0.672196
0.641198
0.612187
0.585975
0.563447
0.545513
0.532862
0.5259
0.524243
0.525547
0.52604
0.521802
0.510037
0.490154
0.464272
0.436937
0.414097
0.401645
0.403028
0.418183
0.446444
0.486688
0.534262
0.581643
0.622057
0.651439
0.669801
0.68155
0.694578
0.718308
0.763045
0.851054
0.986679
1.13795
1.26343
1.32882
1.31865
1.23904
1.11179
0.963516
0.815587
0.677954
0.550257
0.43114
0.320834
0.220888
0.133566
0.0613153
0.00638695
-0.0290527
-0.0423691
-0.0311764
0.00242691
0.0475592
0.0891378
0.112244
0.10492
0.0601765
-0.0232737
-0.141565
-0.287126
-0.450358
-0.62023
-0.559433
0
1.25837
3.27421
5.83786
8.45629
10.4763
11.3113
10.6797
8.7362
6.02259
3.25176
1.0332
-0.325967
-0.857686
-0.81397
-0.694955
-0.581703
-0.479274
-0.390224
-0.314034
-0.24684
-0.187223
-0.134715
-0.0889626
-0.0506004
-0.0206799
0.000175095
0.0123787
0.0175001
0.0178787
0.0159853
0.0138653
0.0127771
0.0134962
0.0166182
0.022757
0.032637
0.0470594
0.0667923
0.0922724
0.123641
0.161169
0.205108
0.255695
0.313166
0.377776
0.449807
0.529543
0.617362
0.713697
0.81897
0.933482
1.05729
1.19014
1.33136
1.47999
1.63481
1.79454
1.9579
2.12374
2.29098
2.45859
2.62546
2.7902
2.95077
3.10431
3.24684
3.37309
3.4764
3.54979
3.58711
3.5825
3.53129
3.43113
3.28301
3.09191
2.86668
2.61928
2.36407
2.11334
1.87459
1.65544
1.4619
1.29803
1.16565
1.06446
0.991888
0.943804
0.915132
0.900514
0.894816
0.893511
0.892695
0.889184
0.880794
0.866524
0.846713
0.82309
0.798562
0.776743
0.761257
0.754803
0.758915
0.773665
0.79764
0.828254
0.862223
0.896102
0.926532
0.950809
0.967268
0.975267
0.975064
0.967551
0.953894
0.935208
0.912362
0.886044
0.857134
0.82685
0.797093
0.77036
0.749264
0.73755
0.737226
0.744916
0.754327
0.758517
0.752674
0.736233
0.713462
0.692388
0.682555
0.691656
0.721155
0.775359
0.862787
0.989655
1.14543
1.2982
1.41424
1.46287
1.42309
1.29075
1.08241
0.83206
0.580943
0.364743
0.186617
0.0346907
-0.0971935
-0.208875
-0.299613
-0.369448
-0.419182
-0.450108
-0.463714
-0.463284
-0.454152
-0.441911
-0.431618
-0.427069
-0.430319
-0.441556
-0.459324
-0.480993
-0.503303
-0.523041
-0.451975
0
0.950195
2.54366
4.77706
7.37605
9.76314
11.2087
11.1437
9.46867
6.65164
3.52448
0.898955
-0.760855
-1.43396
-1.40413
-1.22402
-1.0589
-0.920654
-0.815432
-0.742712
-0.696223
-0.666391
-0.643547
-0.620812
-0.595569
-0.569827
-0.548142
-0.534682
-0.530772
-0.533973
-0.538972
-0.539704
-0.531601
-0.514364
-0.490219
-0.460999
-0.428009
-0.392182
-0.353783
-0.31238
-0.267036
-0.216665
-0.160468
-0.0981884
-0.0302847
0.04205
0.117083
0.192837
0.267507
0.339977
0.410195
0.479358
0.549866
0.625016
0.708519
0.803892
0.913846
1.03961
1.18095
1.33611
1.50175
1.67322
1.84499
2.01079
2.16433
2.30014
2.41393
2.50261
2.56426
2.59776
2.6024
2.57769
2.52319
2.43907
2.32591
2.1851
2.01928
1.83243
1.62985
1.41803
1.2038
0.993771
0.794145
0.610227
0.445937
0.303573
0.183735
0.0851374
0.00442352
-0.0627039
-0.120447
-0.172065
-0.219334
-0.262452
-0.300402
-0.33164
-0.354515
-0.367931
-0.372487
-0.369572
-0.360611
-0.346296
-0.326146
-0.29864
-0.261921
-0.2121
-0.146354
-0.0726835
-0.00527172
0.0410074
0.0562012
0.0391273
-0.0023098
-0.0544064
-0.10291
-0.137828
-0.15974
-0.173027
-0.180605
-0.184946
-0.188361
-0.192505
-0.198061
-0.204607
-0.210689
-0.214116
-0.212394
-0.203281
-0.185369
-0.158508
-0.123352
-0.0823526
-0.0388996
0.0041132
0.0453966
0.0860147
0.129517
0.182541
0.271395
0.461435
0.729562
0.997914
1.17558
1.2032
1.08063
0.862087
0.621783
0.413338
0.254121
0.122054
0.00579758
-0.0968071
-0.183962
-0.25379
-0.303464
-0.333912
-0.348548
-0.351809
-0.348127
-0.341189
-0.333784
-0.328307
-0.328135
-0.338314
-0.365318
-0.416213
-0.496783
-0.609588
-0.75272
-0.919676
-1.11039
-0.852989
0
1.50211
3.59868
6.07476
8.51366
10.3386
10.9932
10.1974
8.12405
5.359
2.6455
0.562446
-0.672931
-1.18679
-1.24739
-1.15063
-1.05496
-0.964597
-0.884513
-0.81904
-0.771474
-0.743184
-0.732944
-0.736883
-0.749206
-0.763569
-0.774683
-0.779778
-0.778929
-0.77347
-0.765344
-0.75587
-0.74483
-0.730263
-0.709026
-0.677932
-0.634982
-0.581198
-0.519585
-0.453286
-0.385739
-0.320366
-0.259582
-0.204152
-0.152882
-0.102704
-0.049131
0.0129852
0.0885414
0.181307
0.293028
0.423034
0.569269
0.728947
0.898848
1.07583
1.25726
1.44117
1.62609
1.81082
1.99403
2.17402
2.34861
2.51534
2.67182
2.81586
2.94498
3.05547
3.14167
3.19792
3.21953
3.2012
3.13878
3.03139
2.88311
2.70328
2.50514
2.30309
2.10882
1.92677
1.75876
1.60564
1.46652
1.33944
1.22218
1.11299
1.01108
0.916934
0.83203
0.758249
0.697331
0.650825
0.618738
0.599249
0.589385
0.585672
0.584893
0.58476
0.584323
0.584046
0.585555
0.591054
0.602669
0.622011
0.649677
0.684909
0.725847
0.769599
0.81265
0.851376
0.882471
0.903253
0.9116
0.906588
0.888408
0.858479
0.819176
0.773805
0.728501
0.689653
0.662569
0.650249
0.652732
0.667264
0.68926
0.713681
0.736337
0.755298
0.769925
0.78043
0.787787
0.793504
0.799331
0.807229
0.819324
0.837953
0.866866
0.914978
1.0081
1.19878
1.48159
1.78248
2.01163
2.07932
1.93096
1.58007
1.11619
0.682368
0.434401
0.362937
0.347084
0.349025
0.361749
0.380195
0.40032
0.419327
0.43535
0.446776
0.451393
0.446491
0.428634
0.393916
0.338661
0.260153
0.146562
-0.0125292
-0.205646
-0.416984
-0.629758
-0.609028
0
1.25877
3.16358
5.5037
7.87981
9.77573
10.6919
10.318
8.68224
6.18796
3.4851
1.21364
-0.246807
-0.883157
-0.951074
-0.811992
-0.670932
-0.528867
-0.389132
-0.259
-0.144289
-0.048439
0.0256731
0.0753681
0.10117
0.107022
0.0996824
0.0874147
0.0783339
0.078611
0.090427
0.113171
0.145116
0.183869
0.226309
0.268734
0.307596
0.340313
0.365763
0.384584
0.399202
0.413542
0.432409
0.460631
0.502113
0.558623
0.629617
0.713171
0.806772
0.906198
1.00773
1.10915
1.21023
1.31254
1.41861
1.5308
1.65011
1.77547
1.9037
2.03081
2.15242
2.26451
2.3638
2.44824
2.51718
2.57093
2.6103
2.63606
2.64776
2.64413
2.62394
2.5854
2.52673
2.44671
2.34526
2.22371
2.08483
1.9327
1.77263
1.61022
1.45035
1.2975
1.15529
1.02641
0.912516
0.813645
0.727978
0.65308
0.58672
0.527563
0.475727
0.432201
0.398418
0.375359
0.362772
0.358992
0.360674
0.363731
0.364278
0.359492
0.34809
0.330357
0.307785
0.282525
0.256897
0.232825
0.211782
0.194901
0.182843
0.175797
0.173402
0.174207
0.175382
0.173318
0.164549
0.146708
0.119345
0.0843252
0.0456114
0.00843487
-0.0219222
-0.0416181
-0.0495376
-0.0460243
-0.0322816
-0.0100911
0.0190195
0.0544284
0.0966688
0.147192
0.209962
0.290552
0.391231
0.506345
0.621428
0.716273
0.772504
0.775552
0.716084
0.593156
0.418385
0.217377
0.0247214
-0.127256
-0.229401
-0.298749
-0.34891
-0.384481
-0.410541
-0.43179
-0.451968
-0.47358
-0.497842
-0.524758
-0.553275
-0.581677
-0.607848
-0.629697
-0.645599
-0.654755
-0.657529
-0.654966
-0.648708
-0.636778
-0.516873
0
1.11329
2.87698
5.09521
7.29868
8.86266
9.25208
8.27548
6.1899
3.58646
1.12819
-0.70212
-1.71889
-2.00205
-1.74061
-1.51591
-1.32205
-1.17181
-1.0722
-1.02235
-1.01348
-1.03098
-1.05813
-1.08025
-1.08981
-1.08705
-1.07495
-1.05668
-1.03639
-1.01832
-1.00602
-1.00171
-1.0061
-1.01844
-1.03679
-1.05833
-1.07975
-1.09762
-1.10865
-1.11008
-1.09995
-1.07739
-1.04261
-0.996708
-0.94125
-0.877714
-0.807188
-0.730057
-0.645634
-0.552635
-0.449629
-0.335528
-0.210055
-0.0740738
0.070301
0.219858
0.370706
0.518838
0.660836
0.794491
0.919165
1.03584
1.14679
1.25506
1.36373
1.47568
1.593
1.71595
1.84193
1.96365
2.06842
2.14244
2.17105
2.14055
2.04176
1.87422
1.64894
1.388
1.12034
0.87293
0.65382
0.459316
0.288372
0.141163
0.015745
-0.0912544
-0.183925
-0.266327
-0.341854
-0.412712
-0.479811
-0.542698
-0.599656
-0.648016
-0.684884
-0.707839
-0.715321
-0.70706
-0.684303
-0.649754
-0.607201
-0.560853
-0.51454
-0.470913
-0.430987
-0.394636
-0.36078
-0.327918
-0.294689
-0.260287
-0.224656
-0.188264
-0.151901
-0.116513
-0.0830709
-0.0525484
-0.0257389
-0.00312936
0.0151927
0.0297087
0.0416002
0.0527662
0.0656798
0.0830965
0.107684
0.141474
0.18565
0.240778
0.306915
0.383709
0.470617
0.567117
0.672857
0.786799
0.903133
1.00764
1.08154
1.1056
1.06657
0.963563
0.81115
0.637023
0.474303
0.35139
0.268611
0.21256
0.177244
0.160141
0.156855
0.162523
0.173055
0.185729
0.199372
0.214086
0.230589
0.249419
0.270284
0.290182
0.303129
0.301804
0.279672
0.233067
0.16243
0.0722229
-0.114582
0
0.76126
2.33123
4.63948
7.34617
9.88384
11.5963
11.9546
10.7792
8.35731
5.36289
2.59162
0.638289
-0.31101
-0.467512
-0.279648
-0.207321
-0.140249
-0.0778296
-0.0193917
0.0360914
0.0884634
0.136713
0.17934
0.214708
0.241537
0.259364
0.268833
0.271746
0.270857
0.269474
0.270892
0.27783
0.292184
0.314871
0.345745
0.383733
0.42709
0.473704
0.521431
0.568489
0.613797
0.657156
0.699278
0.741639
0.786219
0.835182
0.890564
0.954006
1.02661
1.10894
1.20103
1.30239
1.41212
1.52901
1.65163
1.77851
1.90822
2.03943
2.17104
2.30214
2.43208
2.56055
2.6876
2.81366
2.93948
3.06616
3.19506
3.32536
3.44896
3.55081
3.61259
3.61791
3.55679
3.42813
3.23994
3.00784
2.75217
2.49452
2.24784
2.0161
1.80026
1.60238
1.42377
1.26464
1.1243
1.00149
0.894717
0.802525
0.723696
0.657516
0.604029
0.564066
0.538315
0.526997
0.529646
0.544671
0.570275
0.6018
0.633435
0.659628
0.67629
0.681646
0.676485
0.663746
0.647632
0.632577
0.621898
0.617325
0.619706
0.629179
0.645106
0.665966
0.689262
0.711703
0.729893
0.740965
0.743106
0.735913
0.720489
0.699235
0.675415
0.652624
0.634235
0.622776
0.620029
0.627515
0.646661
0.678654
0.724349
0.784135
0.85833
0.947646
1.05229
1.16943
1.28992
1.39927
1.48253
1.52681
1.52339
1.46926
1.3679
1.22937
1.06943
0.907461
0.7613
0.639318
0.542197
0.468166
0.417481
0.389187
0.379107
0.380079
0.384497
0.385659
0.378708
0.361084
0.332449
0.294185
0.248701
0.198745
0.147029
0.095643
0.0461889
0
-0.0439473
0.038578
0.573916
1.65705
3.3685
5.62679
8.11308
10.2798
11.4968
11.3086
9.66951
7.00657
4.04903
1.51423
-0.169912
-0.961603
-1.10091
-0.99993
-0.903753
-0.816606
-0.740747
-0.676075
-0.61908
-0.566285
-0.514717
-0.461838
-0.406032
-0.346851
-0.285945
-0.227439
-0.176552
-0.138061
-0.114902
-0.107215
-0.112093
-0.124113
-0.136498
-0.142623
-0.138028
-0.121608
-0.0945156
-0.0589127
-0.0175283
0.0260572
0.0685225
0.107601
0.142625
0.174747
0.206815
0.242954
0.287935
0.34646
0.421898
0.516126
0.629756
0.761738
0.909214
1.06781
1.23232
1.39713
1.55733
1.70952
1.85227
1.98619
2.1134
2.23686
2.35943
2.48341
2.60985
2.73799
2.86514
2.98609
3.09138
3.16949
3.20748
3.18987
3.10272
2.94038
2.71116
2.4384
2.15518
1.89475
1.6689
1.46921
1.292
1.13643
1.00008
0.879655
0.771749
0.673385
0.582389
0.497486
0.418222
0.344649
0.277117
0.216063
0.162047
0.115428
0.0764565
0.0452936
0.0220206
0.00667372
-0.000711727
-7.84874e-005
0.00859699
0.0251347
0.0491
0.0801022
0.115455
0.149903
0.177536
0.193261
0.19426
0.18084
0.156394
0.126508
0.0975918
0.0751258
0.0615657
0.0576076
0.0632947
0.0784916
0.101534
0.128298
0.1544
0.176254
0.19197
0.201818
0.208116
0.214611
0.225601
0.24502
0.274721
0.315764
0.369229
0.436409
0.520289
0.625147
0.750754
0.88522
1.00937
1.1035
1.15153
1.14356
1.07661
0.95483
0.789871
0.600891
0.412272
0.243967
0.104885
-0.00628376
-0.0944176
-0.15968
-0.20318
-0.226589
-0.231814
-0.219987
-0.190368
-0.144633
-0.0909901
-0.0413844
-0.00795841
0
-0.0224785
-0.072022
-0.141017
-0.218989
-0.295475
-0.363406
-0.357208
0.0962015
1.00817
2.51243
4.60555
7.0313
9.25573
10.6094
10.5704
9.04384
6.45472
3.57393
1.16453
-0.340745
-0.950469
-0.979717
-0.869095
-0.762757
-0.664931
-0.579203
-0.508181
-0.450497
-0.404904
-0.370412
-0.345747
-0.329117
-0.318357
-0.311074
-0.304772
-0.296978
-0.285414
-0.268226
-0.244249
-0.213231
-0.175776
-0.133575
-0.0889476
-0.0444243
-0.00236511
0.035302
0.0664741
0.0904951
0.10825
0.12235
0.137405
0.159855
0.197101
0.255965
0.340883
0.452514
0.584337
0.730813
0.885261
1.04146
1.19528
1.34494
1.49079
1.63488
1.78001
1.9288
2.08278
2.24192
2.4044
2.56684
2.72414
2.86897
2.99423
3.09457
3.16671
3.20982
3.22536
3.21632
3.18609
3.1372
3.07048
2.98667
2.88597
2.76753
2.63055
2.47582
2.3062
2.12657
1.94342
1.764
1.59537
1.44349
1.31253
1.2046
1.12006
1.05754
1.01344
0.983253
0.962351
0.946681
0.933252
0.920424
0.90797
0.896875
0.888936
0.886096
0.889919
0.901189
0.919673
0.943988
0.971609
0.999683
1.02577
1.04851
1.06801
1.08597
1.10539
1.13002
1.16371
1.20945
1.27204
1.36026
1.48145
1.62067
1.74923
1.8374
1.86374
1.82219
1.72337
1.59032
1.45183
1.33695
1.25901
1.21482
1.20149
1.22097
1.27302
1.358
1.47109
1.60208
1.7331
1.84344
1.91645
1.93934
1.90411
1.80996
1.66588
1.49117
1.31262
1.15879
1.04291
0.95974
0.902894
0.874282
0.87012
0.881306
0.897086
0.907135
0.903182
0.880048
0.835958
0.772166
0.692101
0.600266
0.501443
0.399549
0.297135
0.195888
0.0967129
0
0.00958786
0.406379
1.31854
2.7873
4.71157
6.82243
8.68006
9.75501
9.61908
8.17325
5.76088
3.05697
0.76977
-0.66927
-1.24057
-1.22832
-1.13081
-1.03824
-0.955775
-0.887946
-0.838431
-0.80839
-0.799883
-0.814268
-0.852078
-0.912855
-0.995001
-1.09574
-1.21126
-1.33704
-1.46822
-1.60023
-1.72929
-1.85244
-1.96772
-2.07433
-2.17282
-2.26469
-2.35448
-2.45176
-2.56767
-2.71218
-2.89083
-3.10232
-3.3378
-3.58252
-3.81911
-4.03238
-4.21106
-4.34652
-4.43103
-4.46423
-4.44768
-4.38446
-4.2797
-4.14169
-3.98224
-3.81568
-3.65645
-3.51513
-3.39729
-3.30223
-3.2239
-3.1535
120
302
478
647
819
991
1164
1335
1502
1672
1841
2016
2184
2352
2521
2693
2863
3028
3194
3360
3529
3693
3632
3712
3725
3722
0
0
0
0
0
0
0
0
0
0
0
0
0
0
0
0
0
0
0
0
0
0
0
0
0
0
0
0
0
0
0
0
0
0
0
0
0
0
0
0
0
0
0
0
0
0
0
0
0
0
0
0
0
0
0
0
0
0
0
0
0
0
0
0
0
0
0
0
0
0
0
0
0
0
0
0
0
0
0
0
0
0
0
0
0
0
0
0
0
0
0
0
0
0
0
0
0
0
0
0
0
0
0
0
0
0
0
0
0
0
0
0
0
0
0
0
0
0
0
0
0
0
0
0
0
0
0
0
0
0
0
0
0
0
0
0
0
0
0
0
0
0
0
0
0
0
0
0
0
0
0
0
0
0
0
0
0
0
0
0
0
0
0
0
0
0
0
0
0
0
0
0
0
0
0
0
0
0
0
0
0
0
0
0
0
0
0
0
0
0
0
0
0
0
0
0
0
0
0
0
0
0
0
0
0
0
0
0
0
0
0
0
0
0
0
0
0
0
0
0
0
0
0
0
0
0
0
0
0
0
0
0
0
0
0
0
0
0
0
0
0
0
0
0
0
0
0
0
0
0
0
0
0
0
0
0
0
0
0
0
0
0
0
0
0
0
0
0
0
0
0
0
0
0
0
0
0
0
0
0
0
0
0
0
0
0
0
0
0
0
0
0
0
0
0
0
0
0
0
0
0
0
0
0
0
0
0
0
0
0
0
0
0
0
0
0
0
0
0
0
0
0
0
0
0
0
0
0
0
0
0
0
0
0
0
0
0
0
0
0
0
0
0
0
0
0
0
0
0
0
0
0
0
0
0
0
0
0
0
0
0
0
0
0
0
0
0
0
0
0
0
0
0
0
0
0
0
0
0
0
0
0
0
0
0
0
0
0
0
0
0
0
0
0
0
0
0
0
0
0
0
0
0
0
0
0
0
0
0
0
0
0
0
0
0
0
0
0
0
0
0
0
0
0
0
0
0
0
0
0
0
0
0
0
0
0
0
0
0
0
0
0
0
0
0
0
0
0
0
0
0
0
0
0
0
0
0
0
0
0
0
0
0
0
0
0
0
0
0
0
0
0
0
0
0
0
0
0
0
0
0
0
0
0
0
0
0
0
0
0
0
0
0
0
0
0
0
0
0
0
0
0
0
0
0
0
0
0
0
0
0
0
0
0
0
0
0
0
0
0
0
0
0
0
0
0
0
0
0
0
0
0
0
0
0
0
0
0
0
0
0
0
0
0
0
0
0
0
0
0
0
0
0
0
0
0
0
0
0
0
0
0
0
0
0
0
0
0
0
0
0
0
0
0
0
0
0
0
0
0
0
0
0
0
0
0
0
0
0
0
0
0
0
0
0
0
0
0
0
0
0
0
0
0
0
0
0
0
0
0
0
0
0
0
0
0
0
0
0
0
0
0
0
0
0
0
0
0
0
0
0
0
0
0
0
0
0
0
0
0
0
0
0
0
0
0
0
0
0
0
0
0
0
0
0
0
0
0
0
0
0
0
0
0
0
0
0
0
0
0
0
0
0
0
0
0
0
0
0
0
0
0
0
0
0
0
0
0
0
0
0
0
0
0
0
0
0
0
0
0
0
0
0
0
0
0
0
0
0
0
0
0
0
0
0
0
0
0
0
0
0
0
0
0
0
0
0
0
0
0
0
0
0
0
0
0
0
0
0
0
0
0
0
0
0
0
0
0
0
0
0
0
0
0
0
0
0
0
0
0
0
0
0
0
0
0
0
0
0
0
0
0
0
0
0
0
0
0
0
0
0
0
0
0
0
0
0
0
0
0
0
0
0
0
0
0
0
0
0
0
0
0
0
0
0
0
0
0
0
0
0
0
0
0
0
0
0
0
0
0
0
0
0
0
0
0
0
0
0
0
0
0
0
0
0
0
0
0
0
0
0
0
0
0
0
0
0
0
0
0
0
0
0
0
0
0
0
0
0
0
0
0
0
0
0
0
0
0
0
0
0
0
0
0
0
0
0
0
0
0
0
0
0
0
0
0
0
0
0
0
0
0
0
0
0
0
0
0
0
0
0
0
0
0
0
0
0
0
0
0
0
0
0
0
0
0
0
0
0
0
0
0
0
0
0
0
0
0
0
0
0
0
0
0
0
0
0
0
0
0
0
0
0
0
0
0
0
0
0
0
0
0
0
0
0
0
0
0
0
0
0
0
0
0
0
0
0
0
0
0
0
0
0
0
0
0
0
0
0
0
0
0
0
0
0
0
0
0
0
0
0
0
0
0
0
0
0
0
0
0
0
0
0
0
0
0
0
0
0
0
0
0
0
0
0
0
0
0
0
0
0
0
0
0
0
0
0
0
0
0
0
0
0
0
0
0
0
0
0
0
0
0
0
0
0
0
0
0
0
0
0
0
0
0
0
0
0
0
0
0
0
0
0
0
0
0
0
0
0
0
0
0
0
0
0
0
0
0
0
0
0
0
0
0
0
0
0
0
0
0
0
0
0
0
0
0
0
0
0
0
0
0
0
0
0
0
0
0
0
0
0
0
0
0
0
0
0
0
0
0
0
0
0
0
0
0
0
0
0
0
0
0
0
0
0
0
0
0
0
0
0
0
0
0
0
0
0
0
0
0
0
0
0
0
0
0
0
0
0
0
0
0
0
0
0
0
0
0
0
0
0
0
0
0
0
0
0
0
0
0
0
0
0
0
0
0
0
0
0
0
0
0
0
0
0
0
0
0
0
0
0
0
0
0
0
0
0
0
0
0
0
0
0
0
0
0
0
0
0
0
0
0
0
0
0
0
0
0
0
0
0
0
0
0
0
0
0
0
0
0
0
0
0
0
0
0
0
0
0
0
0
0
0
0
0
0
0
0
0
0
0
0
0
0
0
0
0
0
0
0
0
0
0
0
0
0
0
0
0
0
0
0
0
0
0
0
0
0
0
0
0
0
0
0
0
0
0
0
0
0
0
0
0
0
0
0
0
0
0
0
0
0
0
0
0
0
0
0
0
0
0
0
0
0
0
0
0
0
0
0
0
0
0
0
0
0
0
0
0
0
0
0
0
0
0
0
0
0
0
0
0
0
0
0
0
0
0
0
0
0
0
0
0
0
0
0
0
0
0
0
0
0
0
0
0
0
0
0
0
0
0
0
0
0
0
0
0
0
0
0
0
0
0
0
0
0
0
0
0
0
0
0
0
0
0
0
0
0
0
0
0
0
0
0
0
0
0
0
0
0
0
0
0
0
0
0
0
0
0
0
0
0
0
0
0
0
0
0
0
0
0
0
0
0
0
0
0
0
0
0
0
0
0
0
0
0
0
0
0
0
0
0
0
0
0
0
0
0
0
0
0
0
0
0
0
0
0
0
0
0
0
0
0
0
0
0
0
0
0
0
0
0
0
0
0
0
0
0
0
0
0
0
0
0
0
0
0
0
0
0
0
0
0
0
0
0
0
0
0
0
0
0
0
0
0
0
0
0
0
0
0
0
0
0
0
0
0
0
0
0
0
0
0
0
0
0
0
0
0
0
0
0
0
0
0
0
0
0
0
0
0
0
0
0
0
0
0
0
0
0
0
0
0
0
0
0
0
0
0
0
0
0
0
0
0
0
0
0
0
0
0
0
0
0
0
0
0
0
0
0
0
0
0
0
0
0
0
0
0
0
0
0
0
0
0
0
0
0
0
0
0
0
0
0
0
0
0
0
0
0
0
0
0
0
0
0
0
0
0
0
0
0
0
0
0
0
0
0
0
0
0
0
0
0
0
0
0
0
0
0
0
0
0
0
0
0
0
0
0
0
0
0
0
0
0
0
0
0
0
0
0
0
0
0
0
0
0
0
0
0
0
0
0
0
0
0
0
0
0
0
0
0
0
0
0
0
0
0
0
0
0
0
0
0
0
0
0
0
0
0
0
0
0
0
0
0
0
0
0
0
0
0
0
0
0
0
0
0
0
0
0
0
0
0
0
0
0
0
0
0
0
0
0
0
0
0
0
0
0
0
0
0
0
0
0
0
0
0
0
0
0
0
0
0
0
0
0
0
0
0
0
0
0
0
0
0
0
0
0
0
0
0
0
0
0
0
0
0
0
0
0
0
0
0
0
0
0
0
0
0
0
0
0
0
0
0
0
0
0
0
0
0
0
0
0
0
0
0
0
0
0
0
0
0
0
0
0
0
0
0
0
0
0
0
0
0
0
0
0
0
0
0
0
0
0
0
0
0
0
0
0
0
0
0
0
0
0
0
0
0
0
0
0
0
0
0
0
0
0
0
0
0
0
0
0
0
0
0
0
0
0
0
0
0
0
0
0
0
0
0
0
0
0
0
0
0
0
0
0
0
0
0
0
0
0
0
0
0
0
0
0
0
0
0
0
0
0
0
0
0
0
0
0
0
0
0
0
0
0
0
0
0
0
0
0
0
0
0
0
0
0
0
0
0
0
0
0
0
0
0
0
0
0
0
0
0
0
0
0
0
0
0
0
0
0
0
0
0
0
0
0
0
0
0
0
0
0
0
0
0
0
0
0
0
0
0
0
0
0
0
0
0
0
0
0
0
0
0
0
0
0
0
0
0
0
0
0
0
0
0
0
0
0
0
0
0
0
0
0
0
0
0
0
0
0
0
0
0
0
0
0
0
0
0
0
0
0
0
0
0
0
0
0
0
0
0
0
0
0
0
0
0
0
0
0
0
0
0
0
0
0
0
0
0
0
0
0
0
0
0
0
0
0
0
0
0
0
0
0
0
0
0
0
0
0
0
0
0
0
0
0
0
0
0
0
0
0
0
0
0
0
0
0
0
0
0
0
0
0
0
0
0
0
0
0
0
0
0
0
0
0
0
0
0
0
0
0
0
0
0
0
0
0
0
0
0
0
0
0
0
0
0
0
0
0
0
0
0
0
0
0
0
0
0
0
0
0
0
0
0
0
0
0
0
0
0
0
0
0
0
0
0
0
0
0
0
0
0
0
0
0
0
0
0
0
0
0
0
0
0
0
0
0
0
0
0
0
0
0
0
0
0
0
0
0
0
0
0
0
0
0
0
0
0
0
0
0
0
0
0
0
0
0
0
0
0
0
0
0
0
0
0
0
0
0
0
0
0
0
0
0
0
0
0
0
0
0
0
0
0
0
0
0
0
0
0
0
0
0
0
0
0
0
0
0
0
0
0
0
0
0
0
0
0
0
0
0
0
0
0
0
0
0
0
0
0
0
0
0
0
0
0
0
0
0
0
0
0
0
0
0
0
0
0
0
0
0
0
0
0
0
0
0
0
0
0
0
0
0
0
0
0
0
0
0
0
0
0
0
0
0
0
0
0
0
0
0
0
0
0
0
0
0
0
0
0
0
0
0
0
0
0
0
0
0
0
0
0
0
0
0
0
0
0
0
0
0
0
0
0
0
0
0
0
0
0
0
0
0
0
0
0
0
0
0
0
0
0
0
0
0
0
0
0
0
0
0
0
0
0
0
0
0
0
0
0
0
0
0
0
0
0
0
0
0
0
0
0
0
0
0
0
0
0
0
0
0
0
0
0
0
0
0
0
0
0
0
0
0
0
0
0
0
0
0
0
0
0
0
0
0
0
0
0
0
0
0
0
0
0
0
0
0
0
0
0
0
0
0
0
0
0
0
0
0
0
0
0
0
0
0
0
0
0
0
0
0
0
0
0
0
0
0
0
0
0
0
0
0
0
0
0
0
0
0
0
0
0
0
0
0
0
0
0
0
0
0
0
0
0
0
0
0
0
0
0
0
0
0
0
0
0
0
0
0
0
0
0
0
0
0
0
0
0
0
0
0
0
0
0
0
0
0
0
0
0
0
0
0
0
0
0
0
0
0
0
0
0
0
0
0
0
0
0
0
0
0
0
0
0
0
0
0
0
0
0
0
0
0
0
0
0
0
0
0
0
0
0
0
0
0
0
0
0
0
0
0
0
0
0
0
0
0
0
0
0
0
0
0
0
0
0
0
0
0
0
0
0
0
0
0
0
0
0
0
0
0
0
0
0
0
0
0
0
0
0
0
0
0
0
0
0
0
0
0
0
0
0
0
0
0
0
0
0
0
0
0
0
0
0
0
0
0
0
0
0
0
0
0
0
0
0
0
0
0
0
0
0
0
0
0
0
0
0
0
0
0
0
0
0
0
0
0
0
0
0
0
0
0
0
0
0
0
0
0
0
0
0
0
0
0
0
0
0
0
0
0
0
0
0
0
0
0
0
0
0
0
0
0
0
0
0
0
0
0
0
0
0
0
0
0
0
0
0
0
0
0
0
0
0
0
0
0
0
0
0
0
0
0
0
0
0
0
0
0
0
0
0
0
0
0
0
0
0
0
0
0
0
0
0
0
0
0
0
0
0
0
0
0
0
0
0
0
0
0
0
0
0
0
0
0
0
0
0
0
0
0
0
0
0
0
0
0
0
0
0
0
0
0
0
0
0
0
0
0
0
0
0
0
0
0
0
0
0
0
0
0
0
0
0
0
0
0
0
0
0
0
0
0
0
0
0
0
0
0
0
0
0
0
0
0
0
0
0
0
0
0
0
0
0
0
0
0
0
0
0
0
0
0
0
0
0
0
0
0
0
0
0
0
0
0
0
0
0
0
0
0
0
0
0
0
0
0
0
0
0
0
0
0
0
0
0
0
0
0
0
0
0
0
0
0
0
0
0
0
0
0
0
0
0
0
0
0
0
0
0
0
0
0
0
0
0
0
0
0
0
0
0
0
0
0
0
0
0
0
0
0
0
0
0
0
0
0
0
0
0
0
0
0
0
0
0
0
0
0
0
0
0
0
0
0
0
0
0
0
0
0
0
0
0
0
0
0
0
0
0
0
0
0
0
0
0
0
0
0
0
0
0
0
0
0
0
0
0
0
0
0
0
0
0
0
0
0
0
0
0
0
0
0
0
0
0
0
0
0
0
0
0
0
0
0
0
0
0
0
0
0
0
0
0
0
0
0
0
0
0
0
0
0
0
0
0
0
0
0
0
0
0
0
0
0
0
0
0
0
0
0
0
0
0
0
0
0
0
0
0
0
0
0
0
0
0
0
0
0
0
0
0
0
0
0
0
0
0
0
0
0
0
0
0
0
0
0
0
0
0
0
0
0
0
0
0
0
0
0
0
0
0
0
0
0
0
0
0
0
0
0
0
0
0
0
0
0
0
0
0
0
0
0
0
0
0
0
0
0
0
0
0
0
0
0
0
0
0
0
0
0
0
0
0
0
0
0
0
0
0
0
0
0
0
0
0
0
0
0
0
0
0
0
0
0
0
0
0
0
0
0
0
0
0
0
0
0
0
0
0
0
0
0
0
0
0
0
0
0
0
0
0
0
0
0
0
0
0
0
0
0
0
0
0
0
0
0
0
0
0
0
0
0
0
0
0
0
0
0
0
0
0
0
0
0
0
0
0
0
0
0
0
0
0
0
0
0
0
0
0
0
0
0
0
0
0
0
0
0
0
0
0
0
0
0
0
0
0
0
0
0
0
0
0
0
0
0
0
0
0
0
0
0
0
0
0
0
0
0
0
0
0
0
0
0
0
0
0
0
0
0
0
0
0
0
0
0
0
0
0
0
0
0
0
0
0
0
0
0
0
0
0
0
0
0
0
0
0
0
0
0
0
0
0
0
0
0
0
0
0
0
0
0
0
0
0
0
0
0
0
0
0
0
0
0
0
0
0
0
0
0
0
0
0
0
0
0
0
0
0
0
0
0
0
0
0
0
0
0
0
0
0
0
0
0
0
0
0
0
0
0
0
0
0
0
0
0
0
0
0
0
0
0
0
0
0
0
0
0
0
0
0
0
0
0
0
0
0
0
0
0
0
0
0
0
0
0
0
0
0
0
0
0
0
0
0
0
0
0
0
0
0
0
0
0
0
0
0
0
0
0
0
0
0
0
0
0
0
0
0
0
0
0
0
0
0
0
0
0
0
0
0
0
0
0
0
0
0
0
0
0
0
0
0
0
0
0
0
0
0
0
0
0
0
0
0
0
0
0
0
0
0
0
0
0
0
0
0
0
0
0
0
0
0
0
0
0
0
0
0
0
0
0
0
0
0
0
0
0
0
0
0
0
0
0
0
0
0
0
0
0
0
0
0
0
0
0
0
0
0
0
0
0
0
0
0
0
0
0
0
0
0
0
0
0
0
0
0
0
0
0
0
0
0
0
0
0
0
0
0
0
0
0
0
0
0
0
0
0
0
0
0
0
0
0
0
0
0
0
0
0
0
0
0
0
0
0
0
0
0
0
0
0
0
0
0
0
0
0
0
0
0
0
0
0
0
0
0
0
0
0
0
0
0
0
0
0
0
0
0
0
0
0
0
0
0
0
0
0
0
0
0
0
0
0
0
0
0
0
0
0
0
0
0
0
0
0
0
0
0
0
0
0
0
0
0
0
0
0
0
0
0
0
0
0
0
0
0
0
0
0
