2.33731
2.24997
2.14674
2.02818
1.89591
1.75251
1.6012
1.44546
1.28856
1.1333
0.981874
0.835996
0.697154
0.566994
0.448531
0.346024
0.262916
0.202036
0.167257
0.161968
0.178243
0.204829
0.230753
0.248951
0.258253
0.262895
0.269839
0.28521
0.311058
0.345963
0.382132
0.409786
0.420982
0.412656
0.387744
0.353944
0.320631
0.29524
0.280045
0.271785
0.267397
0.263628
0.258417
0.251633
0.2449
0.240656
0.240951
0.246167
0.255752
0.268445
0.283084
0.299437
0.318606
0.3428
0.374525
0.415479
0.465608
0.522781
0.582523
0.638944
0.685702
0.71686
0.726973
0.712424
0.671326
0.603852
0.512581
0.402628
0.2813
0.157183
0.0387856
-0.0674789
-0.159278
-0.234373
-0.292003
-0.332375
-0.356181
-0.364349
-0.355887
-0.327147
-0.281966
-0.233459
-0.197544
-0.188184
-0.212653
-0.269346
-0.349061
-0.43863
-0.524644
-0.445644
0
0.865119
2.38065
4.53958
7.00188
9.13338
10.2476
9.92206
8.20221
5.56944
2.70549
0.208237
-1.58321
-2.59995
-2.93384
-2.65199
-2.29578
-1.90414
-1.5879
-1.45524
-1.44176
-1.45744
-1.48212
-1.50673
-1.52375
-1.52802
-1.51892
-1.49708
-1.46283
-1.41678
-1.35973
-1.29263
-1.21662
-1.13308
-1.04376
-0.950822
-0.856739
-0.764191
-0.67585
-0.594194
-0.521517
-0.459778
-0.409618
-0.369645
-0.336655
-0.305634
-0.270147
-0.223177
-0.158385
-0.0715195
0.0384007
0.167903
0.310267
0.458352
0.604428
0.742274
0.86855
0.983449
1.09048
1.19545
1.30499
1.42763
1.57977
1.7615
1.93893
2.07
2.12194
2.08353
1.96693
1.79881
1.60638
1.40707
1.208
1.01142
0.818821
0.632726
0.456452
0.293548
0.147301
0.0205738
-0.0847637
-0.168314
-0.230738
-0.273512
-0.298673
-0.308595
-0.305843
-0.293103
-0.273142
-0.248817
-0.222968
-0.198184
-0.176802
-0.160592
-0.150505
-0.146476
-0.147375
-0.151166
-0.155284
-0.157164
-0.154803
-0.147266
-0.134778
-0.118394
-0.100109
-0.0821474
-0.0664791
-0.054512
-0.0470493
-0.0448383
-0.0488695
-0.059194
-0.0754995
-0.0965336
-0.119539
-0.140148
-0.152995
-0.152932
-0.136378
-0.102765
-0.055834
0.00190296
0.0677361
0.138965
0.213391
0.289229
0.364536
0.436403
0.501117
0.554239
0.591181
0.60789
0.601397
0.570118
0.514022
0.434772
0.336608
0.22477
0.105411
-0.0147829
-0.129533
-0.23404
-0.326744
-0.406486
-0.472351
-0.523687
-0.559761
-0.57837
-0.570248
-0.517684
-0.420181
-0.308649
-0.224454
-0.203852
-0.263701
-0.396151
-0.574829
-0.769052
-0.958522
-1.14159
-0.845578
0
1.5999
3.97138
6.82214
9.55997
11.4673
11.9718
10.8861
8.49966
5.47111
2.56928
0.384952
-0.852331
-1.27426
-1.20417
-1.02558
-0.851081
-0.688928
-0.547897
-0.43308
-0.338908
-0.261214
-0.197277
-0.144643
-0.10258
-0.0698151
-0.0446137
-0.0247565
-0.0075552
0.00994835
0.0305553
0.0563487
0.0882051
0.12562
0.166722
0.20963
0.25277
0.29543
0.337942
0.38144
0.427267
0.47628
0.528651
0.582991
0.636595
0.687123
0.734153
0.780266
0.831119
0.894301
0.977266
1.08498
1.21741
1.36829
1.53063
1.69788
1.86397
2.02451
2.17761
2.32376
2.46375
2.59933
2.73119
2.85147
2.94489
2.99599
2.99626
2.94732
2.85883
2.74339
2.61171
2.47205
2.32943
2.1862
2.0439
1.90398
1.76802
1.63766
1.51472
1.40111
1.29876
1.20943
1.1345
1.07494
1.03121
1.00231
0.984578
0.972627
0.960783
0.944307
0.920494
0.889385
0.8539
0.81928
0.791957
0.777683
0.780706
0.802476
0.843582
0.899125
0.960434
1.01899
1.06898
1.10876
1.1408
1.17002
1.20133
1.23795
1.2753
1.30313
1.31028
1.29035
1.24546
1.18617
1.12772
1.08418
1.06142
1.0539
1.05752
1.06613
1.07356
1.07556
1.07087
1.06142
1.0515
1.04654
1.05148
1.06873
1.10837
1.20703
1.43898
1.78458
2.14474
2.40535
2.48636
2.37538
2.12173
1.80095
1.48185
1.22157
1.03165
0.884276
0.761935
0.658024
0.570754
0.499281
0.442105
0.397295
0.362704
0.336114
0.315262
0.297778
0.281035
0.261942
0.237049
0.202772
0.155398
0.0879439
-0.00769262
-0.128106
-0.26524
-0.407772
-0.442412
0
1.08135
2.93569
5.49526
8.36855
10.8829
12.3129
12.1934
10.5402
7.84689
4.86074
2.26931
0.465535
-0.510171
-0.863391
-0.741544
-0.615716
-0.486309
-0.357317
-0.239969
-0.148773
-0.0964306
-0.0885944
-0.120695
-0.178651
-0.243696
-0.299288
-0.33701
-0.360863
-0.375924
-0.383014
-0.381285
-0.368235
-0.340229
-0.289018
-0.198636
-0.0712906
0.068692
0.190522
0.269169
0.295062
0.277309
0.239924
0.213107
0.222875
0.273477
0.353282
0.452497
0.565459
0.688675
0.819476
0.956465
1.09947
1.24911
1.40603
1.57027
1.74049
1.91429
2.0879
2.2553
2.40841
2.54018
2.64507
2.71968
2.7631
2.77665
2.763
2.72495
2.66411
2.5802
2.47411
2.34719
2.2003
2.03443
1.85218
1.65832
1.45951
1.26345
1.07791
0.909679
0.764103
0.64413
0.549788
0.479102
0.428891
0.395605
0.375955
0.367225
0.367232
0.374054
0.385818
0.400329
0.415001
0.427374
0.435655
0.43924
0.439015
0.437292
0.437344
0.442637
0.455951
0.478681
0.511054
0.550559
0.591852
0.628485
0.65414
0.663705
0.654022
0.624239
0.575847
0.512493
0.439663
0.364368
0.293052
0.231038
0.184076
0.160342
0.165584
0.19216
0.226693
0.254826
0.265938
0.256433
0.230315
0.196976
0.167369
0.15036
0.147361
0.15637
0.176969
0.209545
0.254779
0.316612
0.407517
0.54258
0.704562
0.858366
0.964526
0.995306
0.945818
0.834318
0.692259
0.550258
0.427776
0.322259
0.227302
0.140171
0.0602741
-0.0122433
-0.0770508
-0.133827
-0.182494
-0.223417
-0.257531
-0.28634
-0.311785
-0.336032
-0.361308
-0.389696
-0.42299
-0.462748
-0.510508
-0.567126
-0.631396
-0.701366
-0.777795
-0.639827
0
1.38966
3.59366
6.39088
9.258
11.4901
12.4345
11.7478
9.55755
6.43688
3.18854
0.539463
-1.1033
-1.72732
-1.6127
-1.36164
-1.13139
-0.938694
-0.793062
-0.689827
-0.622747
-0.582367
-0.557095
-0.53557
-0.509196
-0.474131
-0.427965
-0.370988
-0.309608
-0.252227
-0.206731
-0.178175
-0.167358
-0.170686
-0.181249
-0.190675
-0.191154
-0.179028
-0.153633
-0.115
-0.0634171
0.00037384
0.0752472
0.159941
0.253268
0.354242
0.462127
0.576408
0.69672
0.822729
0.953995
1.08984
1.22926
1.37087
1.51295
1.65356
1.79072
1.92253
2.0472
2.16284
2.26752
2.35957
2.43752
2.49981
2.54481
2.57132
2.57859
2.56649
2.53541
2.4861
2.41928
2.33529
2.23405
2.1157
1.9818
1.83436
1.67619
1.51172
1.34671
1.18748
1.04041
0.910716
0.801083
0.711956
0.641969
0.588688
0.549355
0.521445
0.502908
0.49216
0.487692
0.488303
0.493191
0.501678
0.513203
0.527261
0.543284
0.560507
0.577797
0.593404
0.60535
0.611962
0.612519
0.607739
0.59987
0.592222
0.58821
0.592154
0.604856
0.620348
0.629501
0.624114
0.600925
0.563564
0.521467
0.486227
0.467091
0.464623
0.475481
0.494711
0.514888
0.528616
0.530566
0.518914
0.495979
0.467938
0.443612
0.432572
0.443025
0.478373
0.536442
0.613098
0.705785
0.812127
0.931446
1.06595
1.21698
1.36925
1.49226
1.5457
1.49791
1.34508
1.11756
0.867812
0.646322
0.480455
0.345215
0.223967
0.113002
0.0110817
-0.0821259
-0.166177
-0.240243
-0.303497
-0.355598
-0.396763
-0.427704
-0.449484
-0.463393
-0.470901
-0.473647
-0.473504
-0.472501
-0.472527
-0.474995
-0.480538
-0.493742
-0.463706
0
1.14022
3.10075
5.75113
8.62726
10.9964
12.0938
11.4506
9.14718
5.83016
2.45345
-0.129721
-1.50272
-1.77797
-1.42908
-1.39388
-1.3718
-1.37001
-1.38793
-1.41808
-1.44965
-1.47299
-1.48479
-1.48756
-1.48293
-1.47276
-1.45909
-1.44362
-1.42749
-1.41135
-1.39555
-1.38023
-1.36556
-1.35166
-1.33863
-1.32629
-1.31405
-1.30073
-1.28447
-1.26287
-1.23328
-1.19324
-1.14106
-1.07629
-1.0002
-0.915009
-0.823687
-0.730403
-0.63839
-0.54874
-0.459801
-0.367389
-0.265836
-0.14962
-0.0151287
0.137992
0.305047
0.479515
0.654129
0.820922
0.972336
1.10228
1.20654
1.28236
1.3277
1.3412
1.32328
1.27461
1.19623
1.08981
0.957999
0.804441
0.633616
0.450442
0.25995
0.0671051
-0.123999
-0.309423
-0.485223
-0.647562
-0.792946
-0.917735
-1.01823
-1.09276
-1.14481
-1.18134
-1.20929
-1.2334
-1.2548
-1.27099
-1.27715
-1.26849
-1.24246
-1.20133
-1.15075
-1.09571
-1.04131
-0.991534
-0.948526
-0.912502
-0.882309
-0.856282
-0.833019
-0.811647
-0.792001
-0.774254
-0.758506
-0.744542
-0.731784
-0.719427
-0.706701
-0.69315
-0.678816
-0.664238
-0.650365
-0.638343
-0.62921
-0.623445
-0.620616
-0.619194
-0.61652
-0.609011
-0.592618
-0.563494
-0.518752
-0.457145
-0.379837
-0.290042
-0.191685
-0.0905201
0.00653381
0.0923355
0.160318
0.205595
0.2259
0.221155
0.193477
0.147122
0.088253
0.0243813
-0.0365883
-0.0875866
-0.124105
-0.145786
-0.154817
-0.153083
-0.143995
-0.131738
-0.12004
-0.111509
-0.107381
-0.107749
-0.112194
-0.120763
-0.135066
-0.158302
-0.19515
-0.250817
-0.329518
-0.433058
-0.559964
-0.705392
-0.875693
-0.74749
0
1.52175
3.77886
6.42688
8.86933
10.4379
10.6532
9.43549
7.14367
4.42051
1.92839
0.115001
-0.887936
-1.22051
-1.14352
-1.06542
-0.990385
-0.918456
-0.845369
-0.766623
-0.682363
-0.594458
-0.50614
-0.422036
-0.346811
-0.283279
-0.231935
-0.191211
-0.157766
-0.12756
-0.0969696
-0.063723
-0.027183
0.0125732
0.055035
0.0994513
0.145077
0.19134
0.237971
0.285112
0.333446
0.384287
0.439602
0.501903
0.573982
0.658506
0.75755
0.87214
1.00192
1.14499
1.29801
1.45651
1.61539
1.76957
1.91448
2.04688
2.1652
2.26957
2.36159
2.44378
2.5189
2.58899
2.65492
2.71626
2.77087
2.81524
2.84449
2.85199
2.83258
2.78246
2.69975
2.58545
2.44418
2.28444
2.11797
1.95824
1.81941
1.73302
1.72177
1.75734
1.79276
1.78321
1.7053
1.56703
1.40423
1.265
1.18836
1.1725
1.18691
1.21905
1.2604
1.30359
1.34376
1.37887
1.40911
1.43557
1.45899
1.47905
1.4942
1.50235
1.50171
1.49152
1.47236
1.44595
1.4147
1.38109
1.34734
1.31507
1.28567
1.26056
1.24125
1.22927
1.22588
1.23249
1.25082
1.28047
1.31317
1.33688
1.34081
1.32013
1.27955
1.23353
1.20274
1.20757
1.26107
1.36462
1.51745
1.68646
1.83367
1.92877
1.95729
1.92218
1.8394
1.73004
1.61234
1.49649
1.38411
1.27454
1.16773
1.06469
0.967826
0.880136
0.804621
0.743873
0.700096
0.670681
0.65058
0.633499
0.613332
0.585306
0.54649
0.495686
0.432972
0.35958
0.277524
0.18862
0.0952199
0
-0.00809169
0.408026
1.38422
2.97512
5.09026
7.43912
9.52375
10.7452
10.6316
9.08031
6.45771
3.47227
0.879088
-0.817294
-1.50711
-1.41778
-1.05695
-0.739701
-0.501702
-0.360503
-0.296061
-0.260237
-0.241435
-0.235259
-0.238488
-0.248984
-0.265738
-0.287913
-0.314057
-0.341663
-0.36488
-0.37589
-0.366738
-0.33157
-0.266261
-0.166545
-0.0466672
0.0704112
0.16325
0.219099
0.237957
0.23221
0.221976
0.2277
0.26274
0.324275
0.401266
0.486636
0.574143
0.659565
0.741652
0.821919
0.90354
0.989917
1.08346
1.18404
1.29113
1.40414
1.52205
1.64346
1.76665
1.88881
2.00593
2.11332
2.20608
2.27969
2.33034
2.35513
2.35203
2.31984
2.25839
2.16908
2.05484
1.92057
1.77301
1.62014
1.47005
1.32858
1.19962
1.08607
0.989665
0.908643
0.838032
0.772225
0.706651
0.639121
0.570451
0.50415
0.44529
0.398942
0.367243
0.351003
0.349469
0.360295
0.380102
0.405358
0.433044
0.460994
0.487903
0.513013
0.535842
0.556396
0.575162
0.59346
0.613727
0.639382
0.674123
0.721149
0.785545
0.864312
0.945367
1.01378
1.05711
1.06986
1.05522
1.02366
0.989185
0.965221
0.959313
0.971342
0.999649
1.04382
1.10392
1.18005
1.27283
1.38246
1.50816
1.64601
1.78352
1.90129
1.9783
1.99471
1.93661
1.80158
1.60273
1.3682
1.13471
0.935713
0.774318
0.63817
0.524354
0.428166
0.343996
0.267086
0.194806
0.127039
0.0655808
0.0128497
-0.0295657
-0.0622695
-0.0876615
-0.109826
-0.133603
-0.163479
-0.20262
-0.25226
-0.31153
-0.377627
-0.446413
-0.453119
0
1.14203
3.08413
5.69633
8.54462
10.9595
12.2471
11.9704
10.1563
7.30577
4.18731
1.52529
-0.253519
-1.10058
-1.24963
-1.05291
-0.866181
-0.69877
-0.558415
-0.450445
-0.368843
-0.307522
-0.264561
-0.239031
-0.229785
-0.235554
-0.25489
-0.285857
-0.327112
-0.375934
-0.426456
-0.471718
-0.504942
-0.520814
-0.516495
-0.492056
-0.450205
-0.395454
-0.332978
-0.267721
-0.202812
-0.139681
-0.0783728
-0.0178393
0.0437213
0.108671
0.179641
0.259137
0.349284
0.451545
0.566385
0.693068
0.829641
0.973137
1.12004
1.26686
1.41079
1.55028
1.68521
1.81676
1.94705
2.07946
2.21835
2.36555
2.5132
2.64386
2.73727
2.77556
2.74747
2.65129
2.49598
2.29988
2.08692
1.88108
1.69483
1.52798
1.37814
1.24528
1.12958
1.03032
0.946018
0.874694
0.814044
0.761712
0.715311
0.672555
0.631667
0.591646
0.552444
0.514988
0.480966
0.452424
0.431225
0.418485
0.414496
0.418477
0.428534
0.441879
0.455784
0.468308
0.478785
0.487948
0.49767
0.510333
0.528001
0.55213
0.582679
0.615968
0.645811
0.66589
0.671937
0.663287
0.643205
0.617831
0.594199
0.578201
0.572263
0.575545
0.587949
0.609331
0.639757
0.679644
0.729579
0.789961
0.860566
0.939867
1.02625
1.11794
1.21192
1.29987
1.3693
1.40573
1.39622
1.33411
1.2225
1.07437
0.908636
0.744078
0.592568
0.453215
0.324395
0.205966
0.0974339
-0.00152493
-0.0907747
-0.169726
-0.237576
-0.293702
-0.338024
-0.371243
-0.395046
-0.412323
-0.426951
-0.442966
-0.463906
-0.492203
-0.528746
-0.572712
-0.621684
-0.672059
-0.553125
0
1.14193
2.98524
5.4588
8.20562
10.6024
11.9421
11.7252
9.91294
6.98893
3.77191
1.06793
-0.651324
-1.37369
-1.42567
-1.2382
-1.05597
-0.889491
-0.75014
-0.651533
-0.605964
-0.617974
-0.6783
-0.763036
-0.840605
-0.884043
-0.881623
-0.852332
-0.811348
-0.764233
-0.714557
-0.664108
-0.613094
-0.560863
-0.506897
-0.453559
-0.406107
-0.370174
-0.348225
-0.336764
-0.325935
-0.301949
-0.251373
-0.165308
-0.0487019
0.0893414
0.243622
0.410465
0.586194
0.767593
0.951821
1.13624
1.31825
1.49518
1.66487
1.82603
1.9788
2.12496
2.26778
2.41148
2.56349
2.73341
2.91248
3.07612
3.19572
3.25072
3.23569
3.15935
3.03736
2.88392
2.7077
2.51846
2.32375
2.12854
1.9369
1.75261
1.57889
1.41859
1.27279
1.1406
1.02009
0.909306
0.807118
0.714492
0.633398
0.566717
0.517131
0.486041
0.47296
0.475537
0.490119
0.51257
0.538839
0.565695
0.590472
0.611005
0.625735
0.633785
0.635211
0.631221
0.624176
0.61728
0.61402
0.617544
0.629395
0.650002
0.679553
0.717492
0.762737
0.813768
0.866463
0.912412
0.941689
0.945325
0.918289
0.861904
0.784483
0.699602
0.622447
0.565529
0.529889
0.513132
0.513098
0.525883
0.547231
0.573774
0.603875
0.638133
0.678832
0.730658
0.807333
0.93749
1.12264
1.31898
1.46967
1.52883
1.48082
1.34448
1.15994
0.966702
0.787496
0.622864
0.468412
0.32324
0.189076
0.06917
-0.0326096
-0.111888
-0.159979
-0.165401
-0.130221
-0.0745041
-0.0221115
0.00632858
-0.000857544
-0.044075
-0.114088
-0.19654
-0.277353
-0.348161
-0.409004
-0.462492
-0.510997
-0.44548
0
1.08748
3.00042
5.63367
8.5151
10.906
12.0719
11.6049
9.62016
6.70832
3.6653
1.15657
-0.497537
-1.32741
-1.56063
-1.46467
-1.37729
-1.30607
-1.25572
-1.22726
-1.21786
-1.22161
-1.23093
-1.23841
-1.2383
-1.22885
-1.21066
-1.18449
-1.15145
-1.11314
-1.07116
-1.0272
-0.982893
-0.939355
-0.896999
-0.855435
-0.813594
-0.770036
-0.723355
-0.672536
-0.617241
-0.557578
-0.493441
-0.42433
-0.349198
-0.266484
-0.174423
-0.0715714
0.0426113
0.1673
0.300152
0.437612
0.575325
0.709059
0.835745
0.954202
1.0654
1.17222
1.27875
1.38928
1.50779
1.63857
1.78297
1.93551
2.08296
2.20741
2.29285
2.32682
2.3015
2.21492
2.07251
1.88799
1.68207
1.47849
1.29645
1.14041
1.00621
0.891692
0.796556
0.719295
0.657664
0.609562
0.571988
0.539844
0.508325
0.473766
0.434427
0.390934
0.346149
0.304443
0.270588
0.248344
0.239004
0.24305
0.259329
0.285397
0.317766
0.353036
0.38827
0.421001
0.449347
0.471928
0.487453
0.4956
0.496715
0.491983
0.483592
0.474704
0.469102
0.470502
0.481678
0.504061
0.537632
0.578403
0.619576
0.654151
0.676929
0.685974
0.683097
0.673252
0.663101
0.659277
0.66656
0.686427
0.71837
0.761726
0.816364
0.882234
0.959423
1.04945
1.15642
1.28213
1.41696
1.54292
1.64046
1.69375
1.69412
1.64091
1.54038
1.40404
1.24727
1.08804
0.94004
0.810556
0.701852
0.613178
0.544016
0.493487
0.458978
0.436774
0.423002
0.414114
0.407105
0.399412
0.388581
0.37156
0.344814
0.30434
0.246114
0.166353
0.055991
-0.0831749
-0.243832
-0.414667
-0.464056
0
1.18344
3.19196
5.83417
8.56636
10.6332
11.3747
10.5374
8.40211
5.65016
3.04716
1.12926
0.0521404
-0.356173
-0.402329
-0.3896
-0.370914
-0.342523
-0.301592
-0.243633
-0.166392
-0.0764671
0.0127762
0.0868519
0.133895
0.147543
0.128251
0.0829765
0.0236176
-0.035363
-0.0806133
-0.104751
-0.105986
-0.0862183
-0.0492756
0.000766754
0.0598721
0.123069
0.184856
0.240662
0.287877
0.32635
0.358497
0.388955
0.423814
0.469541
0.531838
0.614437
0.717358
0.838746
0.976324
1.12717
1.28774
1.45422
1.62284
1.79004
1.95257
2.10751
2.25224
2.38396
2.49984
2.59798
2.6769
2.7355
2.77308
2.78919
2.78352
2.75583
2.70595
2.63434
2.54225
2.4311
2.30324
2.16201
2.01147
1.85617
1.70058
1.54866
1.40379
1.26852
1.14456
1.03279
0.933314
0.845647
0.768873
0.701865
0.643507
0.592896
0.549502
0.513283
0.484722
0.464812
0.454962
0.456891
0.47311
0.509202
0.578114
0.696772
0.852717
1.00642
1.11264
1.13698
1.07078
0.937578
0.786911
0.676651
0.650085
0.691444
0.798655
0.93178
1.04157
1.08805
1.0556
0.95856
0.835183
0.732059
0.685431
0.694156
0.732551
0.785948
0.847919
0.914538
0.983064
1.0521
1.12145
1.19172
1.26385
1.33786
1.40909
1.46757
1.5007
1.4971
1.45014
1.35976
1.23169
1.07512
0.900149
0.717589
0.535488
0.361487
0.205489
0.0768292
-0.0165665
-0.0702679
-0.0848263
-0.0658291
-0.0223705
0.0353958
0.0984808
0.160248
0.217177
0.263948
0.293383
0.29764
0.267797
0.195642
0.0529697
-0.157246
-0.420689
-0.749102
-0.723416
0
1.5393
3.80439
6.46371
8.97748
10.7221
11.1899
10.194
7.97199
5.11694
2.35475
0.271546
-0.876887
-1.19062
-0.997478
-0.86069
-0.734668
-0.627501
-0.544358
-0.482058
-0.438348
-0.410377
-0.394038
-0.384621
-0.377499
-0.368754
-0.355619
-0.336798
-0.312519
-0.283809
-0.252018
-0.218665
-0.185161
-0.152598
-0.121529
-0.0918743
-0.0629208
-0.0334066
-0.00169945
0.033956
0.0751656
0.123154
0.178506
0.241303
0.311298
0.388034
0.471056
0.560109
0.655243
0.756791
0.865192
0.9807
1.10305
1.23121
1.36348
1.49745
1.63048
1.76072
1.88784
2.01339
2.14075
2.27919
2.44842
2.64274
2.82815
2.96068
3.00832
2.9643
2.84498
2.67641
2.48015
2.26775
2.04907
1.83049
1.61579
1.40803
1.21004
1.02424
0.852562
0.696229
0.556081
0.433679
0.330371
0.247154
0.184998
0.144351
0.124563
0.123447
0.138334
0.164393
0.194414
0.221557
0.240648
0.249063
0.24699
0.236995
0.223109
0.209724
0.200496
0.197301
0.201013
0.212145
0.230795
0.256672
0.289156
0.327334
0.370007
0.415333
0.46034
0.501155
0.533572
0.553596
0.558109
0.545524
0.516307
0.473247
0.421347
0.367283
0.318235
0.280565
0.258865
0.254966
0.270383
0.300103
0.337281
0.375461
0.410451
0.441139
0.468997
0.496596
0.525853
0.55669
0.587085
0.613833
0.63304
0.640773
0.633556
0.60871
0.564656
0.5013
0.420855
0.327217
0.226122
0.125142
0.0321678
-0.046015
-0.104982
-0.143375
-0.162877
-0.16755
-0.162821
-0.154587
-0.148008
-0.147187
-0.15588
-0.177332
-0.214342
-0.270208
-0.35403
-0.475712
-0.631123
-0.811849
-1.00775
-0.816217
0
1.553
3.78115
6.41532
8.98999
10.9272
11.6976
11.0181
8.99345
6.11621
3.10428
0.645119
-0.838979
-1.30033
-1.01517
-0.719779
-0.46786
-0.289932
-0.196306
-0.149185
-0.132105
-0.137707
-0.159429
-0.19088
-0.227244
-0.264766
-0.299122
-0.325984
-0.341704
-0.344124
-0.333128
-0.310606
-0.279789
-0.244205
-0.206658
-0.16867
-0.130513
-0.0917784
-0.0520071
-0.0111929
0.0300592
0.0709173
0.110614
0.148832
0.185988
0.223339
0.262914
0.307328
0.359461
0.422122
0.498008
0.589232
0.696943
0.820969
0.959576
1.10945
1.2659
1.42345
1.57644
1.71954
1.84793
1.958
2.04788
2.11681
2.16475
2.19193
2.1984
2.18366
2.14708
2.08797
2.00607
1.90207
1.77805
1.63764
1.48578
1.32829
1.17118
1.01959
0.877815
0.749109
0.635616
0.538506
0.458456
0.395437
0.348583
0.316488
0.298716
0.29278
0.295636
0.304572
0.317702
0.33419
0.354037
0.377603
0.405111
0.434629
0.462462
0.484025
0.495233
0.493871
0.480391
0.457825
0.430855
0.404316
0.381344
0.362779
0.347761
0.333035
0.314818
0.290573
0.260406
0.227477
0.197198
0.17549
0.166779
0.17082
0.185125
0.206815
0.23194
0.256418
0.2773
0.293552
0.306396
0.319171
0.336757
0.364711
0.408242
0.471264
0.559982
0.683417
0.846293
1.03741
1.22504
1.3763
1.46366
1.46469
1.36582
1.17003
0.903312
0.613063
0.35496
0.16033
0.0131121
-0.106671
-0.206123
-0.286064
-0.347142
-0.390429
-0.416988
-0.428166
-0.424596
-0.408884
-0.386117
-0.362499
-0.344522
-0.338089
-0.347759
-0.376265
-0.424324
-0.490714
-0.572523
-0.6652
-0.76783
-0.652564
0
1.4263
3.69608
6.57405
9.49343
11.6857
12.4566
11.4947
9.04459
5.82913
2.73975
0.461207
-0.765539
-1.12967
-1.03539
-0.973439
-0.915751
-0.866088
-0.82707
-0.799888
-0.784171
-0.77806
-0.778548
-0.782042
-0.785089
-0.785118
-0.780486
-0.771573
-0.761672
-0.755015
-0.754875
-0.761871
-0.773169
-0.783019
-0.78453
-0.772063
-0.74329
-0.701982
-0.652647
-0.60032
-0.549463
-0.502586
-0.459524
-0.417564
-0.372279
-0.318719
-0.253062
-0.173874
-0.0806574
0.0263573
0.145893
0.275804
0.413363
0.55556
0.699401
0.842211
0.981885
1.11707
1.24718
1.37222
1.4923
1.60712
1.71511
1.81205
1.89112
1.94294
1.95784
1.92873
1.85342
1.73563
1.58427
1.41122
1.22844
1.04547
0.866663
0.693484
0.527079
0.369005
0.221075
0.0856181
-0.0346848
-0.137635
-0.221848
-0.286229
-0.330186
-0.357778
-0.374606
-0.386552
-0.398624
-0.414119
-0.434318
-0.458642
-0.48505
-0.510438
-0.531449
-0.544415
-0.54542
-0.530856
-0.498072
-0.442933
-0.359393
-0.252149
-0.141023
-0.048051
0.00969353
0.0257953
0.00655375
-0.0314377
-0.0674258
-0.0841647
-0.0755266
-0.0473568
-0.0104012
0.0214355
0.0360693
0.0272797
-0.00349512
-0.0480111
-0.094214
-0.130282
-0.150276
-0.155571
-0.145998
-0.127413
-0.106898
-0.0898297
-0.0774765
-0.0660987
-0.0480248
-0.014359
0.0417689
0.122311
0.220749
0.330707
0.447539
0.566665
0.683606
0.790829
0.877505
0.930384
0.931243
0.863671
0.723428
0.52569
0.303694
0.0981888
-0.0571389
-0.164846
-0.24254
-0.292117
-0.317041
-0.321255
-0.308567
-0.279607
-0.235551
-0.184545
-0.138306
-0.109001
-0.105629
-0.130863
-0.180105
-0.24326
-0.308388
-0.365559
-0.411967
-0.449516
-0.480248
-0.430615
0
0.988268
2.66638
4.96281
7.54276
9.84384
11.2305
11.2346
9.77789
7.24504
4.34034
1.7893
0.0469806
-0.82817
-1.08802
-1.08387
-1.07669
-1.0666
-1.05285
-1.03503
-1.01327
-0.988217
-0.960475
-0.930183
-0.896808
-0.859208
-0.816042
-0.766388
-0.71038
-0.649357
-0.586385
-0.525824
-0.471951
-0.427761
-0.394086
-0.369292
-0.349629
-0.330092
-0.305491
-0.271851
-0.227446
-0.171936
-0.105797
-0.0304982
0.051758
0.138302
0.226213
0.313212
0.398165
0.481347
0.564397
0.649933
0.740899
0.83982
0.947986
1.06501
1.18931
1.31808
1.44766
1.57388
1.69259
1.80005
1.89274
1.96708
2.02002
2.0496
2.05408
2.032
1.9823
1.90453
1.79902
1.66711
1.51116
1.3352
1.14473
0.945273
0.742681
0.543338
0.353692
0.17961
0.0260243
-0.102018
-0.200578
-0.272533
-0.325126
-0.366591
-0.403886
-0.440937
-0.477991
-0.512219
-0.53929
-0.555246
-0.559521
-0.553311
-0.538328
-0.51737
-0.493681
-0.470349
-0.449807
-0.433819
-0.423465
-0.419249
-0.421234
-0.42916
-0.442516
-0.46057
-0.482358
-0.506664
-0.532203
-0.557734
-0.582219
-0.604915
-0.625639
-0.644715
-0.662559
-0.679205
-0.69395
-0.705278
-0.711176
-0.709729
-0.69978
-0.680307
-0.65278
-0.619437
-0.582248
-0.542011
-0.498053
-0.448718
-0.392453
-0.328158
-0.257905
-0.187265
-0.123572
-0.0741304
-0.0446878
-0.0386511
-0.057055
-0.0988803
-0.161308
-0.238078
-0.3237
-0.412358
-0.498261
-0.576601
-0.644719
-0.70284
-0.751521
-0.792145
-0.826235
-0.854906
-0.878654
-0.897522
-0.911534
-0.921275
-0.928146
-0.934016
-0.94132
-0.952449
-0.969185
-0.992276
-1.0213
-1.05483
-1.10371
-0.805942
0
1.38778
3.35157
5.65138
7.83155
9.30748
9.56536
8.40389
6.07877
3.23511
0.636933
-1.1595
-2.00137
-2.10431
-1.85808
-1.63285
-1.44675
-1.30397
-1.19364
-1.09596
-1.00707
-0.930774
-0.872575
-0.837668
-0.828889
-0.844783
-0.878824
-0.920359
-0.957183
-0.978907
-0.97983
-0.963663
-0.936551
-0.902934
-0.866816
-0.831217
-0.797583
-0.765676
-0.733858
-0.699606
-0.660068
-0.61289
-0.556069
-0.488211
-0.408771
-0.31811
-0.217434
-0.108571
0.00634956
0.125271
0.246456
0.368554
0.490461
0.611061
0.728995
0.842533
0.949836
1.04926
1.13973
1.22091
1.29318
1.35721
1.41356
1.46205
1.50147
1.52998
1.54516
1.54454
1.52602
1.48821
1.43055
1.35344
1.25815
1.14707
1.02329
0.890588
0.75319
0.615309
0.480623
0.351869
0.2306
0.116975
0.010294
-0.0903557
-0.185453
-0.274598
-0.356416
-0.428798
-0.489394
-0.536394
-0.568662
-0.585802
-0.588301
-0.577371
-0.554758
-0.522853
-0.483863
-0.439919
-0.393054
-0.345065
-0.297379
-0.250988
-0.206471
-0.164084
-0.123885
-0.0858398
-0.0498497
-0.0157318
0.0168354
0.0483307
0.0793278
0.110363
0.141748
0.17341
0.204815
0.235001
0.262601
0.286269
0.30555
0.321223
0.3356
0.352473
0.376625
0.412978
0.465598
0.536842
0.626079
0.731889
0.854156
0.99446
1.15506
1.33602
1.52049
1.66527
1.71114
1.61507
1.37925
1.05713
0.733047
0.487378
0.353982
0.278909
0.229021
0.193952
0.170269
0.155205
0.146066
0.140157
0.13497
0.128215
0.117693
0.101128
0.0766686
0.0431389
0
-0.0550964
-0.1186
-0.188884
-0.263943
-0.341711
-0.421124
0.0154411
0.917783
2.38377
4.41671
6.83764
9.24233
11.0663
11.7644
11.0413
9.01651
6.21926
3.39496
1.21097
0.00819702
-0.276265
0.00376358
0.19322
0.35087
0.458518
0.514375
0.547041
0.56964
0.585665
0.596961
0.604304
0.60741
0.605693
0.599096
0.58871
0.576984
0.567466
0.564137
0.570541
0.588449
0.617822
0.657177
0.704004
0.754883
0.806281
0.855371
0.900661
0.942329
0.982202
1.02338
1.06966
1.12481
1.19182
1.27253
1.3676
1.47644
1.59745
1.72841
1.86691
2.01083
2.15862
2.3094
2.46287
2.61895
2.77741
2.93749
3.09737
3.25339
3.39924
3.52636
3.62727
3.69572
3.72758
3.72127
3.67766
3.59946
3.49041
3.35464
3.19656
3.02313
2.84106
2.65591
2.47277
2.29673
2.13262
1.98433
1.85526
1.74816
1.66046
1.58561
1.51599
1.44504
1.36892
1.28736
1.20339
1.12221
1.04968
0.989198
0.943394
0.913949
0.901014
0.903297
0.918279
0.942591
0.972349
1.00373
1.03343
1.05905
1.07912
1.09299
1.10049
1.10168
1.09678
1.08593
1.06948
1.04815
1.02307
0.995715
0.967648
0.940304
0.914742
0.891674
0.871471
0.85421
0.839674
0.827377
0.816372
0.805273
0.792618
0.777316
0.75915
0.739111
0.719421
0.703181
0.693705
0.693329
0.703421
0.7239
0.753097
0.787997
0.8247
0.858947
0.886608
0.903982
0.908001
0.896372
0.867739
0.822079
0.761077
0.687386
0.605003
0.518828
0.433938
0.354961
0.285952
0.228031
0.179918
0.139166
0.10351
0.0719337
0.0449394
0.0238937
0.0109077
0.00560303
0
0.00722351
-0.0123222
-0.0686005
-0.173286
-0.316901
-0.48092
-0.644212
-0.724421
-0.21854
0.774368
2.35017
4.5054
7.02527
9.44973
11.1766
11.6842
10.7642
8.6322
5.84965
3.09657
0.916031
-0.44464
-1.04292
-1.04994
-0.934168
-0.815804
-0.699109
-0.58918
-0.490425
-0.406013
-0.337196
-0.282875
-0.239714
-0.202868
-0.167264
-0.12906
-0.0868317
-0.0419304
0.00273895
0.0434799
0.0770889
0.101974
0.118832
0.130691
0.142374
0.159422
0.186058
0.224672
0.278367
0.349643
0.43419
0.52317
0.607306
0.679831
0.738709
0.787371
0.833735
0.887937
0.959574
1.05189
1.16307
1.29104
1.43349
1.58696
1.74712
1.90935
2.06926
2.22302
2.3675
2.50016
2.61873
2.72079
2.80341
2.86345
2.89751
2.90219
2.87476
2.81393
2.7205
2.59765
2.45087
2.28744
2.11586
1.94389
1.77786
1.62258
1.48102
1.35429
1.24193
1.14237
1.05348
0.9731
0.899373
0.830956
0.767024
0.707191
0.651399
0.599836
0.552901
0.511185
0.475404
0.446265
0.42427
0.409496
0.401382
0.398682
0.399641
0.402302
0.404912
0.406291
0.406101
0.404909
0.404067
0.405406
0.410826
0.421912
0.439558
0.4637
0.493208
0.525916
0.558697
0.587847
0.609869
0.622197
0.62384
0.615766
0.600911
0.583744
0.56947
0.563023
0.568168
0.587502
0.621376
0.667265
0.719747
0.772588
0.820668
0.861323
0.895068
0.925582
0.958957
1.00241
1.0658
1.17048
1.33856
1.55355
1.76662
1.92769
1.998
1.95835
1.81404
1.59546
1.35152
1.13475
0.970457
0.844237
0.740513
0.653671
0.582407
0.524792
0.478574
0.440869
0.407554
0.374377
0.337553
0.294421
0.242755
0.183282
0.120194
0.0591283
0.00561911
-0.0357561
-0.0624707
-0.0747819
-0.0747787
-0.0656976
0
0.394806
1.31301
3.00832
5.54477
8.60081
11.4388
13.147
13.0694
11.1696
8.079
4.78144
2.13064
0.503372
-0.230069
-0.466204
-0.440193
-0.405395
-0.354316
-0.278654
-0.16626
-0.0279784
0.111971
0.228177
0.303196
0.333163
0.327438
0.302704
0.274702
0.251951
0.23308
0.215183
0.196879
0.17819
0.161369
0.150475
0.150201
0.164481
0.195472
0.243225
0.306067
0.38136
0.466218
0.557042
0.651335
0.747382
0.84354
0.938437
1.03135
1.12253
1.21342
1.3065
1.40491
1.51175
1.62927
1.75801
1.89663
2.0425
2.19185
2.34019
2.4827
2.61513
2.73436
2.83858
2.92727
3.00076
3.05963
3.10342
3.12999
3.13644
3.11832
3.07033
2.98747
2.8664
2.70669
2.51156
2.28811
2.04676
1.80029
1.56004
1.33614
1.13853
0.974408
0.844357
0.745359
0.672251
0.619346
0.581692
0.555663
0.538906
0.529876
0.526958
0.528696
0.534139
0.542682
0.554356
0.569974
0.591031
0.619306
0.657174
0.708339
0.772601
0.841102
0.901698
0.942695
0.956732
0.943172
0.908161
0.8626
0.819074
0.78803
0.77228
0.771168
0.78675
0.8199
0.864681
0.911679
0.950968
0.974367
0.977229
0.95924
0.924131
0.878576
0.830715
0.78803
0.755124
0.734791
0.729167
0.739391
0.765219
0.80509
0.856321
0.915391
0.978231
1.04074
1.09902
1.14948
1.18899
1.21484
1.2245
1.21618
1.18875
1.14198
1.07678
0.995375
0.901344
0.799341
0.69466
0.59256
0.497379
0.412513
0.339997
0.280619
0.233733
0.196592
0.165311
0.135667
0.103746
0.066396
0.0214035
-0.0326321
-0.0966228
-0.171346
-0.260186
-0.374651
-0.529441
-0.718937
-0.928502
-1.14287
-0.911826
0
1.75679
4.26877
7.16362
9.81085
11.4989
11.7003
10.3082
7.70866
4.63356
1.85939
-0.0896114
-1.08314
-1.32166
-1.15234
-1.02438
-0.905587
-0.799298
-0.707005
-0.628045
-0.559874
-0.498837
-0.441213
-0.384188
-0.326471
-0.26827
-0.21085
-0.155724
-0.10378
-0.0546135
-0.00626869
0.0445461
0.10185
0.169563
0.250259
0.344788
0.452556
0.571888
0.700185
0.834065
0.969774
1.10329
1.23094
1.35032
1.46079
1.5638
1.6629
1.76327
1.87091
1.99146
2.12901
2.2845
2.45589
2.63942
2.83018
3.02267
3.21185
3.39401
3.56734
3.73192
3.8888
4.0397
4.18682
4.33046
4.46476
4.57815
4.65727
4.69171
4.67751
4.61824
4.52348
4.40522
4.2738
4.13598
3.99435
3.84962
3.70216
3.55265
3.40286
3.25636
3.11979
3.00205
2.91157
2.85523
2.83678
2.85579
2.90744
2.98324
3.07245
3.16371
3.24709
3.31648
3.36658
3.39401
3.39725
3.37664
3.33429
3.2741
3.20091
3.1201
3.03673
2.95457
2.87566
2.80012
2.72632
2.65198
2.57531
2.49591
2.415
2.33489
2.25818
2.18665
2.11967
2.05492
1.98975
1.92288
1.85555
1.79157
1.73632
1.69507
1.66876
1.65655
1.65758
1.66969
1.68948
1.71213
1.73224
1.7449
1.74614
1.73311
1.70396
1.65742
1.59242
1.50782
1.40293
1.27902
1.13757
0.981516
0.815974
0.647993
0.485662
0.336823
0.209589
0.111419
0.0431702
-0.000973511
-0.0296219
-0.0516792
-0.0742889
-0.101871
-0.136322
-0.177995
-0.226822
-0.282447
-0.344338
-0.41271
-0.487024
-0.565788
-0.647495
-0.522282
0
0.925484
2.28178
3.99104
5.81904
7.35257
8.106
7.74085
6.26538
4.06836
1.74994
-0.145818
-1.33304
-1.82319
-1.77267
-1.61932
-1.47319
-1.34695
-1.25011
-1.18545
-1.14228
-1.11359
-1.09564
-1.08405
-1.07451
-1.06351
-1.04899
-1.03056
-1.00955
-0.988137
-0.968727
-0.953419
-0.94362
-0.939472
-0.939955
-0.94314
-0.946647
-0.948177
-0.945971
-0.939098
-0.927472
-0.911612
-0.892112
-0.869167
-0.842222
-0.809946
-0.770568
-0.722494
-0.665009
-0.598872
-0.526448
-0.451
-0.37638
-0.306125
-0.24269
-0.186959
-0.138147
-0.0940868
-0.0517792
-0.00804405
0.0398327
0.0938847
0.155811
0.226827
0.305974
0.386093
0.453113
0.490701
0.483788
0.422574
0.305894
0.142595
-0.0498856
-0.249581
-0.435394
-0.597201
-0.736954
-0.858422
-0.962674
-1.05014
-1.12169
-1.17839
-1.22131
-1.25147
-1.26998
-1.27814
-1.27766
-1.27074
-1.25987
-1.24808
-1.23842
-1.23363
-1.23574
-1.24582
-1.26378
-1.28815
-1.31628
-1.34457
-1.36886
-1.3849
-1.38893
-1.37819
-1.35133
-1.30879
-1.25262
-1.18552
-1.11064
-1.03128
-0.950587
-0.871212
-0.795195
-0.723821
-0.657544
-0.595948
-0.537754
-0.480955
-0.423076
-0.361606
-0.294509
-0.220757
-0.140728
-0.0560493
0.0296322
0.111261
0.183517
0.241759
0.282757
0.304268
0.306807
0.292585
0.265012
0.228103
0.185855
0.141626
0.0976191
0.0546402
0.0117769
-0.0329119
-0.0812662
-0.133822
-0.18899
-0.242953
-0.290361
-0.325664
-0.345426
-0.350138
-0.342095
-0.323147
-0.298877
-0.277647
-0.26739
-0.273577
-0.297694
-0.336701
-0.384867
-0.400908
0
0.833592
2.09607
3.67115
5.31376
6.64465
7.23867
6.80679
5.37365
3.31882
1.2302
-0.353457
-1.15784
-1.23138
-0.898703
-0.663163
-0.458117
-0.293707
-0.174237
-0.081263
-0.00960171
0.0439972
0.0829769
0.110578
0.129662
0.142638
0.151497
0.157806
0.162653
0.166572
0.169491
0.170822
0.1698
0.165967
0.159698
0.152613
0.147701
0.149048
0.161164
0.188042
0.232137
0.293074
0.369743
0.458554
0.549275
0.629929
0.690953
0.727988
0.743258
0.74506
0.745482
0.757091
0.789658
0.845212
0.919837
1.00918
1.10942
1.2165
1.32642
1.43546
1.53973
1.63577
1.72069
1.7919
1.84569
1.87653
1.881
1.85695
1.80321
1.72018
1.61039
1.47854
1.33098
1.17481
1.01701
0.863336
0.717058
0.581395
0.459663
0.35568
0.275818
0.226928
0.202751
0.185638
0.155725
0.0979898
0.00824986
-0.104655
-0.221706
-0.320533
-0.383286
-0.411457
-0.414506
-0.395807
-0.360349
-0.313442
-0.26043
-0.205061
-0.149886
-0.0970802
-0.0485798
-0.00583744
0.0302732
0.0597048
0.0834126
0.103343
0.122195
0.143015
0.168751
0.201777
0.243584
0.295064
0.356585
0.427845
0.507777
0.594427
0.685019
0.775647
0.861238
0.936704
0.997806
1.04194
1.06857
1.07915
1.07657
1.06425
1.0451
1.02077
0.991361
0.955546
0.911149
0.855934
0.788364
0.70812
0.61633
0.515548
0.40912
0.302107
0.202104
0.116806
0.0526825
0.0136284
0
0.00849495
0.0330593
0.0665691
0.102715
0.137642
0.170501
0.201895
0.232954
0.408897
0.919942
1.85154
3.20167
4.81641
6.39632
7.56963
8.01023
7.55724
6.28146
4.46759
2.52289
0.85125
-0.261898
-0.719666
-0.486683
-0.14505
0.221164
0.521986
0.682506
0.727664
0.73801
0.735546
0.726078
0.714171
0.70413
0.699652
0.703399
0.716942
0.740852
0.774716
0.817131
0.865835
0.917942
0.970206
1.01927
1.06212
1.09681
1.12269
1.14068
1.15317
1.16377
1.1768
1.19666
1.22725
1.27138
1.33016
1.40339
1.48994
1.58786
1.69437
1.80612
1.91959
2.03095
2.13707
2.23604
2.32753
2.41274
2.49396
2.57387
2.6548
2.73809
2.82371
2.91059
2.99643
3.07688
3.14399
3.18813
3.19948
3.16855
3.08891
99
260
423
591
759
923
1082
1241
1402
1566
1731
1892
2056
2220
2389
2552
2714
2881
3049
3218
3378
3534
3686
3712
3725
3722
0
0
0
0
0
0
0
0
0
0
0
0
0
0
0
0
0
0
0
0
0
0
0
0
0
0
0
0
0
0
0
0
0
0
0
0
0
0
0
0
0
0
0
0
0
0
0
0
0
0
0
0
0
0
0
0
0
0
0
0
0
0
0
0
0
0
0
0
0
0
0
0
0
0
0
0
0
0
0
0
0
0
0
0
0
0
0
0
0
0
0
0
0
0
0
0
0
0
0
0
0
0
0
0
0
0
0
0
0
0
0
0
0
0
0
0
0
0
0
0
0
0
0
0
0
0
0
0
0
0
0
0
0
0
0
0
0
0
0
0
0
0
0
0
0
0
0
0
0
0
0
0
0
0
0
0
0
0
0
0
0
0
0
0
0
0
0
0
0
0
0
0
0
0
0
0
0
0
0
0
0
0
0
0
0
0
0
0
0
0
0
0
0
0
0
0
0
0
0
0
0
0
0
0
0
0
0
0
0
0
0
0
0
0
0
0
0
0
0
0
0
0
0
0
0
0
0
0
0
0
0
0
0
0
0
0
0
0
0
0
0
0
0
0
0
0
0
0
0
0
0
0
0
0
0
0
0
0
0
0
0
0
0
0
0
0
0
0
0
0
0
0
0
0
0
0
0
0
0
0
0
0
0
0
0
0
0
0
0
0
0
0
0
0
0
0
0
0
0
0
0
0
0
0
0
0
0
0
0
0
0
0
0
0
0
0
0
0
0
0
0
0
0
0
0
0
0
0
0
0
0
0
0
0
0
0
0
0
0
0
0
0
0
0
0
0
0
0
0
0
0
0
0
0
0
0
0
0
0
0
0
0
0
0
0
0
0
0
0
0
0
0
0
0
0
0
0
0
0
0
0
0
0
0
0
0
0
0
0
0
0
0
0
0
0
0
0
0
0
0
0
0
0
0
0
0
0
0
0
0
0
0
0
0
0
0
0
0
0
0
0
0
0
0
0
0
0
0
0
0
0
0
0
0
0
0
0
0
0
0
0
0
0
0
0
0
0
0
0
0
0
0
0
0
0
0
0
0
0
0
0
0
0
0
0
0
0
0
0
0
0
0
0
0
0
0
0
0
0
0
0
0
0
0
0
0
0
0
0
0
0
0
0
0
0
0
0
0
0
0
0
0
0
0
0
0
0
0
0
0
0
0
0
0
0
0
0
0
0
0
0
0
0
0
0
0
0
0
0
0
0
0
0
0
0
0
0
0
0
0
0
0
0
0
0
0
0
0
0
0
0
0
0
0
0
0
0
0
0
0
0
0
0
0
0
0
0
0
0
0
0
0
0
0
0
0
0
0
0
0
0
0
0
0
0
0
0
0
0
0
0
0
0
0
0
0
0
0
0
0
0
0
0
0
0
0
0
0
0
0
0
0
0
0
0
0
0
0
0
0
0
0
0
0
0
0
0
0
0
0
0
0
0
0
0
0
0
0
0
0
0
0
0
0
0
0
0
0
0
0
0
0
0
0
0
0
0
0
0
0
0
0
0
0
0
0
0
0
0
0
0
0
0
0
0
0
0
0
0
0
0
0
0
0
0
0
0
0
0
0
0
0
0
0
0
0
0
0
0
0
0
0
0
0
0
0
0
0
0
0
0
0
0
0
0
0
0
0
0
0
0
0
0
0
0
0
0
0
0
0
0
0
0
0
0
0
0
0
0
0
0
0
0
0
0
0
0
0
0
0
0
0
0
0
0
0
0
0
0
0
0
0
0
0
0
0
0
0
0
0
0
0
0
0
0
0
0
0
0
0
0
0
0
0
0
0
0
0
0
0
0
0
0
0
0
0
0
0
0
0
0
0
0
0
0
0
0
0
0
0
0
0
0
0
0
0
0
0
0
0
0
0
0
0
0
0
0
0
0
0
0
0
0
0
0
0
0
0
0
0
0
0
0
0
0
0
0
0
0
0
0
0
0
0
0
0
0
0
0
0
0
0
0
0
0
0
0
0
0
0
0
0
0
0
0
0
0
0
0
0
0
0
0
0
0
0
0
0
0
0
0
0
0
0
0
0
0
0
0
0
0
0
0
0
0
0
0
0
0
0
0
0
0
0
0
0
0
0
0
0
0
0
0
0
0
0
0
0
0
0
0
0
0
0
0
0
0
0
0
0
0
0
0
0
0
0
0
0
0
0
0
0
0
0
0
0
0
0
0
0
0
0
0
0
0
0
0
0
0
0
0
0
0
0
0
0
0
0
0
0
0
0
0
0
0
0
0
0
0
0
0
0
0
0
0
0
0
0
0
0
0
0
0
0
0
0
0
0
0
0
0
0
0
0
0
0
0
0
0
0
0
0
0
0
0
0
0
0
0
0
0
0
0
0
0
0
0
0
0
0
0
0
0
0
0
0
0
0
0
0
0
0
0
0
0
0
0
0
0
0
0
0
0
0
0
0
0
0
0
0
0
0
0
0
0
0
0
0
0
0
0
0
0
0
0
0
0
0
0
0
0
0
0
0
0
0
0
0
0
0
0
0
0
0
0
0
0
0
0
0
0
0
0
0
0
0
0
0
0
0
0
0
0
0
0
0
0
0
0
0
0
0
0
0
0
0
0
0
0
0
0
0
0
0
0
0
0
0
0
0
0
0
0
0
0
0
0
0
0
0
0
0
0
0
0
0
0
0
0
0
0
0
0
0
0
0
0
0
0
0
0
0
0
0
0
0
0
0
0
0
0
0
0
0
0
0
0
0
0
0
0
0
0
0
0
0
0
0
0
0
0
0
0
0
0
0
0
0
0
0
0
0
0
0
0
0
0
0
0
0
0
0
0
0
0
0
0
0
0
0
0
0
0
0
0
0
0
0
0
0
0
0
0
0
0
0
0
0
0
0
0
0
0
0
0
0
0
0
0
0
0
0
0
0
0
0
0
0
0
0
0
0
0
0
0
0
0
0
0
0
0
0
0
0
0
0
0
0
0
0
0
0
0
0
0
0
0
0
0
0
0
0
0
0
0
0
0
0
0
0
0
0
0
0
0
0
0
0
0
0
0
0
0
0
0
0
0
0
0
0
0
0
0
0
0
0
0
0
0
0
0
0
0
0
0
0
0
0
0
0
0
0
0
0
0
0
0
0
0
0
0
0
0
0
0
0
0
0
0
0
0
0
0
0
0
0
0
0
0
0
0
0
0
0
0
0
0
0
0
0
0
0
0
0
0
0
0
0
0
0
0
0
0
0
0
0
0
0
0
0
0
0
0
0
0
0
0
0
0
0
0
0
0
0
0
0
0
0
0
0
0
0
0
0
0
0
0
0
0
0
0
0
0
0
0
0
0
0
0
0
0
0
0
0
0
0
0
0
0
0
0
0
0
0
0
0
0
0
0
0
0
0
0
0
0
0
0
0
0
0
0
0
0
0
0
0
0
0
0
0
0
0
0
0
0
0
0
0
0
0
0
0
0
0
0
0
0
0
0
0
0
0
0
0
0
0
0
0
0
0
0
0
0
0
0
0
0
0
0
0
0
0
0
0
0
0
0
0
0
0
0
0
0
0
0
0
0
0
0
0
0
0
0
0
0
0
0
0
0
0
0
0
0
0
0
0
0
0
0
0
0
0
0
0
0
0
0
0
0
0
0
0
0
0
0
0
0
0
0
0
0
0
0
0
0
0
0
0
0
0
0
0
0
0
0
0
0
0
0
0
0
0
0
0
0
0
0
0
0
0
0
0
0
0
0
0
0
0
0
0
0
0
0
0
0
0
0
0
0
0
0
0
0
0
0
0
0
0
0
0
0
0
0
0
0
0
0
0
0
0
0
0
0
0
0
0
0
0
0
0
0
0
0
0
0
0
0
0
0
0
0
0
0
0
0
0
0
0
0
0
0
0
0
0
0
0
0
0
0
0
0
0
0
0
0
0
0
0
0
0
0
0
0
0
0
0
0
0
0
0
0
0
0
0
0
0
0
0
0
0
0
0
0
0
0
0
0
0
0
0
0
0
0
0
0
0
0
0
0
0
0
0
0
0
0
0
0
0
0
0
0
0
0
0
0
0
0
0
0
0
0
0
0
0
0
0
0
0
0
0
0
0
0
0
0
0
0
0
0
0
0
0
0
0
0
0
0
0
0
0
0
0
0
0
0
0
0
0
0
0
0
0
0
0
0
0
0
0
0
0
0
0
0
0
0
0
0
0
0
0
0
0
0
0
0
0
0
0
0
0
0
0
0
0
0
0
0
0
0
0
0
0
0
0
0
0
0
0
0
0
0
0
0
0
0
0
0
0
0
0
0
0
0
0
0
0
0
0
0
0
0
0
0
0
0
0
0
0
0
0
0
0
0
0
0
0
0
0
0
0
0
0
0
0
0
0
0
0
0
0
0
0
0
0
0
0
0
0
0
0
0
0
0
0
0
0
0
0
0
0
0
0
0
0
0
0
0
0
0
0
0
0
0
0
0
0
0
0
0
0
0
0
0
0
0
0
0
0
0
0
0
0
0
0
0
0
0
0
0
0
0
0
0
0
0
0
0
0
0
0
0
0
0
0
0
0
0
0
0
0
0
0
0
0
0
0
0
0
0
0
0
0
0
0
0
0
0
0
0
0
0
0
0
0
0
0
0
0
0
0
0
0
0
0
0
0
0
0
0
0
0
0
0
0
0
0
0
0
0
0
0
0
0
0
0
0
0
0
0
0
0
0
0
0
0
0
0
0
0
0
0
0
0
0
0
0
0
0
0
0
0
0
0
0
0
0
0
0
0
0
0
0
0
0
0
0
0
0
0
0
0
0
0
0
0
0
0
0
0
0
0
0
0
0
0
0
0
0
0
0
0
0
0
0
0
0
0
0
0
0
0
0
0
0
0
0
0
0
0
0
0
0
0
0
0
0
0
0
0
0
0
0
0
0
0
0
0
0
0
0
0
0
0
0
0
0
0
0
0
0
0
0
0
0
0
0
0
0
0
0
0
0
0
0
0
0
0
0
0
0
0
0
0
0
0
0
0
0
0
0
0
0
0
0
0
0
0
0
0
0
0
0
0
0
0
0
0
0
0
0
0
0
0
0
0
0
0
0
0
0
0
0
0
0
0
0
0
0
0
0
0
0
0
0
0
0
0
0
0
0
0
0
0
0
0
0
0
0
0
0
0
0
0
0
0
0
0
0
0
0
0
0
0
0
0
0
0
0
0
0
0
0
0
0
0
0
0
0
0
0
0
0
0
0
0
0
0
0
0
0
0
0
0
0
0
0
0
0
0
0
0
0
0
0
0
0
0
0
0
0
0
0
0
0
0
0
0
0
0
0
0
0
0
0
0
0
0
0
0
0
0
0
0
0
0
0
0
0
0
0
0
0
0
0
0
0
0
0
0
0
0
0
0
0
0
0
0
0
0
0
0
0
0
0
0
0
0
0
0
0
0
0
0
0
0
0
0
0
0
0
0
0
0
0
0
0
0
0
0
0
0
0
0
0
0
0
0
0
0
0
0
0
0
0
0
0
0
0
0
0
0
0
0
0
0
0
0
0
0
0
0
0
0
0
0
0
0
0
0
0
0
0
0
0
0
0
0
0
0
0
0
0
0
0
0
0
0
0
0
0
0
0
0
0
0
0
0
0
0
0
0
0
0
0
0
0
0
0
0
0
0
0
0
0
0
0
0
0
0
0
0
0
0
0
0
0
0
0
0
0
0
0
0
0
0
0
0
0
0
0
0
0
0
0
0
0
0
0
0
0
0
0
0
0
0
0
0
0
0
0
0
0
0
0
0
0
0
0
0
0
0
0
0
0
0
0
0
0
0
0
0
0
0
0
0
0
0
0
0
0
0
0
0
0
0
0
0
0
0
0
0
0
0
0
0
0
0
0
0
0
0
0
0
0
0
0
0
0
0
0
0
0
0
0
0
0
0
0
0
0
0
0
0
0
0
0
0
0
0
0
0
0
0
0
0
0
0
0
0
0
0
0
0
0
0
0
0
0
0
0
0
0
0
0
0
0
0
0
0
0
0
0
0
0
0
0
0
0
0
0
0
0
0
0
0
0
0
0
0
0
0
0
0
0
0
0
0
0
0
0
0
0
0
0
0
0
0
0
0
0
0
0
0
0
0
0
0
0
0
0
0
0
0
0
0
0
0
0
0
0
0
0
0
0
0
0
0
0
0
0
0
0
0
0
0
0
0
0
0
0
0
0
0
0
0
0
0
0
0
0
0
0
0
0
0
0
0
0
0
0
0
0
0
0
0
0
0
0
0
0
0
0
0
0
0
0
0
0
0
0
0
0
0
0
0
0
0
0
0
0
0
0
0
0
0
0
0
0
0
0
0
0
0
0
0
0
0
0
0
0
0
0
0
0
0
0
0
0
0
0
0
0
0
0
0
0
0
0
0
0
0
0
0
0
0
0
0
0
0
0
0
0
0
0
0
0
0
0
0
0
0
0
0
0
0
0
0
0
0
0
0
0
0
0
0
0
0
0
0
0
0
0
0
0
0
0
0
0
0
0
0
0
0
0
0
0
0
0
0
0
0
0
0
0
0
0
0
0
0
0
0
0
0
0
0
0
0
0
0
0
0
0
0
0
0
0
0
0
0
0
0
0
0
0
0
0
0
0
0
0
0
0
0
0
0
0
0
0
0
0
0
0
0
0
0
0
0
0
0
0
0
0
0
0
0
0
0
0
0
0
0
0
0
0
0
0
0
0
0
0
0
0
0
0
0
0
0
0
0
0
0
0
0
0
0
0
0
0
0
0
0
0
0
0
0
0
0
0
0
0
0
0
0
0
0
0
0
0
0
0
0
0
0
0
0
0
0
0
0
0
0
0
0
0
0
0
0
0
0
0
0
0
0
0
0
0
0
0
0
0
0
0
0
0
0
0
0
0
0
0
0
0
0
0
0
0
0
0
0
0
0
0
0
0
0
0
0
0
0
0
0
0
0
0
0
0
0
0
0
0
0
0
0
0
0
0
0
0
0
0
0
0
0
0
0
0
0
0
0
0
0
0
0
0
0
0
0
0
0
0
0
0
0
0
0
0
0
0
0
0
0
0
0
0
0
0
0
0
0
0
0
0
0
0
0
0
0
0
0
0
0
0
0
0
0
0
0
0
0
0
0
0
0
0
0
0
0
0
0
0
0
0
0
0
0
0
0
0
0
0
0
0
0
0
0
0
0
0
0
0
0
0
0
0
0
0
0
0
0
0
0
0
0
0
0
0
0
0
0
0
0
0
0
0
0
0
0
0
0
0
0
0
0
0
0
0
0
0
0
0
0
0
0
0
0
0
0
0
0
0
0
0
0
0
0
0
0
0
0
0
0
0
0
0
0
0
0
0
0
0
0
0
0
0
0
0
0
0
0
0
0
0
0
0
0
0
0
0
0
0
0
0
0
0
0
0
0
0
0
0
0
0
0
0
0
0
0
0
0
0
0
0
0
0
0
0
0
0
0
0
0
0
0
0
0
0
0
0
0
0
0
0
0
0
0
0
0
0
0
0
0
0
0
0
0
0
0
0
0
0
0
0
0
0
0
0
0
0
0
0
0
0
0
0
0
0
0
0
0
0
0
0
0
0
0
0
0
0
0
0
0
0
0
0
0
0
0
0
0
0
0
0
0
0
0
0
0
0
0
0
0
0
0
0
0
0
0
0
0
0
0
0
0
0
0
0
0
0
0
0
0
0
0
0
0
0
0
0
0
0
0
0
0
0
0
0
0
0
0
0
0
0
0
0
0
0
0
0
0
0
0
0
0
0
0
0
0
0
0
0
0
0
0
0
0
0
0
0
0
0
0
0
0
0
0
0
0
0
0
0
0
0
0
0
0
0
0
0
0
0
0
0
0
0
0
0
0
0
0
0
0
0
0
0
0
0
0
0
0
0
0
0
0
0
0
0
0
0
0
0
0
0
0
0
0
0
0
0
0
0
0
0
0
0
0
0
0
0
0
0
0
0
0
0
0
0
0
0
0
0
0
0
0
0
0
0
0
0
0
0
0
0
0
0
0
0
0
0
0
0
0
0
0
0
0
0
0
0
0
0
0
0
0
0
0
0
0
0
0
0
0
0
0
0
0
0
0
0
0
0
0
0
0
0
0
0
0
0
0
0
0
0
0
0
0
0
0
0
0
0
0
0
0
0
0
0
0
0
0
0
0
0
0
0
0
0
0
0
0
0
0
0
0
0
0
0
0
0
0
0
0
0
0
0
0
0
0
0
0
0
0
0
0
0
0
0
0
0
0
0
0
0
0
0
0
0
0
0
0
0
0
0
0
0
0
0
0
0
0
0
0
0
0
0
0
0
0
0
0
0
0
0
0
0
0
0
0
0
0
0
0
0
0
0
0
0
0
0
0
0
0
0
0
0
0
0
0
0
0
0
0
0
0
0
0
0
0
0
0
0
0
0
0
0
0
0
0
0
0
0
0
0
0
0
0
0
0
0
0
0
0
0
0
0
0
0
0
