-0.597788
-0.561535
-0.520352
-0.477696
-0.437163
-0.401829
-0.37388
-0.354626
-0.34489
-0.344285
-0.351615
-0.364776
-0.380758
-0.395967
-0.406908
-0.411065
-0.406519
-0.39464
-0.378264
-0.360068
-0.340893
-0.318869
-0.289808
-0.24206
-0.160665
-0.0596285
0.0293282
0.0711364
0.0455404
-0.0415569
-0.159727
-0.267212
-0.327977
-0.331861
-0.30187
-0.251702
-0.185812
-0.106426
-0.0163581
0.0773064
0.163799
0.232147
0.273129
0.281615
0.258264
0.209713
0.147039
0.0829832
0.0287139
-0.0115623
-0.0384915
-0.0538107
-0.0590467
-0.056231
-0.0476306
-0.035326
-0.0209547
-0.0056311
0.010014
0.0257504
0.0417073
0.0583767
0.0766368
0.0977278
0.123131
0.154341
0.192564
0.2383
0.291198
0.350491
0.41427
0.478654
0.537293
0.582057
0.604638
0.597731
0.556776
0.481721
0.37825
0.257857
0.136292
0.0311638
-0.0428485
-0.0778179
-0.0727261
-0.0370473
0.0149542
0.0695356
0.118053
0.158998
0.19691
0.238989
0.291122
0.353638
0.42241
0.493717
0.562676
0.623721
0.671219
0.701198
0.711973
0.704411
0.682257
0.652149
0.623051
0.60497
0.607054
0.63552
0.691885
0.772801
0.870711
0.975803
1.07847
1.17232
1.25362
1.32144
1.37671
1.41907
1.44754
1.46039
1.45422
1.42585
1.37433
1.30212
1.21466
1.11886
1.02103
0.925285
0.832944
0.744951
0.662167
0.585648
0.516722
0.456748
0.406634
0.36647
0.335426
0.310619
0.287492
0.261105
0.227219
0.183276
0.129013
0.0665594
0
0.124432
0.76575
2.17304
4.48946
7.54859
10.7643
13.2456
14.1545
13.1346
10.537
7.27538
4.37886
2.51279
1.7506
1.68954
1.75181
1.39257
1.03653
0.690429
0.360967
0.0824808
0.0671615
0.471759
1.04458
1.53597
1.74735
1.60946
1.20998
0.735554
0.368819
0.217375
0.199121
0.214967
0.24507
0.28708
0.34242
0.412989
0.500398
0.605419
0.727437
0.864053
1.01271
1.1671
1.3165
1.45062
1.56213
1.64856
1.7129
1.76269
1.80787
1.8581
1.92023
1.99528
2.08208
2.17942
2.28607
2.40116
2.52467
2.6574
2.80063
2.95536
3.12156
3.29756
3.47982
3.6633
3.83993
4.00128
4.14024
4.25235
4.33609
4.39236
4.423
4.42777
4.40378
4.34671
4.25032
4.1089
3.91985
3.68555
3.41376
3.1166
2.80858
2.5038
2.21145
1.93998
1.69619
1.48519
1.31233
1.18583
1.11391
1.09153
1.09682
1.10614
1.09993
1.06751
1.00948
0.936908
0.867896
0.829119
0.907311
1.11463
1.36522
1.54428
1.56115
1.39204
1.09414
0.784223
0.590298
0.590017
0.673083
0.775246
0.880382
0.974974
1.04924
1.09824
1.12172
1.12282
1.10629
1.07697
1.04003
0.999409
0.958053
0.920129
0.890596
0.874517
0.875958
0.89684
0.936229
0.990393
1.05361
1.11942
1.18211
1.23829
1.28581
1.3229
1.34805
1.36
1.35845
1.34365
1.31673
1.28003
1.23714
1.19266
1.15158
1.11839
1.09617
1.08612
1.08732
1.09713
1.11162
1.1265
1.13789
1.14287
1.13975
1.12817
1.10884
1.08328
1.0535
1.02152
0.989122
0.957745
0.928531
0.902446
0.880593
0.864483
0.856201
0.858366
0.87466
0.917431
1.02113
1.2111
1.43925
1.63463
1.73297
1.70513
1.56854
1.37484
1.18239
1.03262
0.930495
0.854359
0.792786
0.741638
0.699295
0.664059
0.634566
0.610284
0.592166
0.582746
0.585171
0.602565
0.63676
0.687243
0.750718
0.821466
0.892369
0.956239
1.00736
1.04163
1.05702
1.05353
1.03295
0.999024
0.956085
0.909214
0.863643
0.824046
0.793806
0.773908
0.764451
0.763616
0.76779
0.772737
0.774871
0.772106
0.764261
0.752974
0.741158
0.73219
0.729067
0.733457
0.745309
0.763635
0.787083
0.813875
0.841474
0.866702
0.886747
0.899722
0.905064
0.903642
0.897438
0.888876
0.880032
0.872028
0.864801
0.857823
0.85062
0.843445
0.837822
0.836771
0.844626
0.866184
0.90542
0.965237
1.04982
1.16809
1.31605
1.47132
1.60872
1.70755
1.75669
1.75581
1.71276
1.63925
1.54691
1.44588
1.34326
1.24255
1.1457
1.05392
0.967717
0.886829
0.810562
0.738062
0.66846
0.601151
0.535998
0.473398
0.414234
0.359671
0.310599
0.267333
0.22932
0.19505
0.162245
0.128286
0.0907637
0.0481119
0
-0.06397
0.0550101
0.839061
2.58491
5.32609
8.66966
11.8043
13.7624
13.8535
12.0283
8.93337
5.60028
2.95445
1.4381
0.940602
1.01166
1.01369
0.943085
0.867336
0.789802
0.713947
0.642883
0.579042
0.523916
0.478499
0.443091
0.417489
0.401207
0.392423
0.387523
0.382119
0.37229
0.355787
0.333042
0.307593
0.285677
0.274979
0.282792
0.313046
0.377392
0.476557
0.588829
0.687645
0.751295
0.770767
0.752798
0.717261
0.690331
0.69624
0.744746
0.82632
0.931965
1.05635
1.19463
1.34135
1.49113
1.63928
1.7825
1.91933
2.05031
2.1779
2.30605
2.4395
2.58294
2.74023
2.91845
3.13123
3.38132
3.6355
3.85176
3.99528
4.04795
4.01139
3.90277
3.7456
3.55945
3.35298
3.12951
2.89168
2.64193
2.38217
2.11436
1.84104
1.56549
1.29165
1.0237
0.765884
0.522809
0.301632
0.111848
-0.0402426
-0.149231
-0.211118
-0.224558
-0.168228
-0.0217682
0.167389
0.341082
0.449644
0.468739
0.40675
0.299093
0.191297
0.118027
0.0848167
0.0654882
0.0450698
0.0114342
-0.0448287
-0.128185
-0.237057
-0.371408
-0.512137
-0.629234
-0.69355
-0.684648
-0.597283
-0.444446
-0.255084
-0.0660555
0.0895413
0.203961
0.281175
0.326728
0.350708
0.363399
0.371457
0.37643
0.375354
0.36291
0.333529
0.283387
0.211778
0.121654
0.0193658
-0.0861555
-0.185576
-0.271411
-0.333309
-0.345031
-0.267357
-0.117221
0.0452649
0.154041
0.159533
0.0469143
-0.156399
-0.388554
-0.575159
-0.657468
-0.65819
-0.532872
-0.314041
-0.085426
0.0744538
0.11444
0.0232503
-0.168133
-0.396029
-0.585982
-0.683754
-0.715073
-0.722814
-0.724005
-0.726434
-0.735769
-0.754654
-0.78263
-0.816779
-0.852787
-0.886007
-0.912977
-0.931716
-0.940717
-0.938641
-0.923154
-0.89138
-0.846314
-0.799049
-0.762961
-0.749617
-0.764538
-0.804671
-0.858814
-0.910978
-0.945458
-0.954281
-0.941176
-0.911742
-0.869764
-0.819013
-0.763347
-0.706105
-0.649834
-0.59657
-0.548464
-0.507529
-0.475744
-0.455124
-0.447018
-0.451246
-0.46547
-0.485111
-0.503918
-0.515071
-0.513482
-0.490638
-0.435868
-0.359362
-0.284915
-0.238312
-0.236524
-0.27941
-0.348172
-0.412142
-0.441425
-0.419587
-0.363858
-0.293243
-0.216541
-0.142421
-0.0778664
-0.0272247
0.00805397
0.0291542
0.0393799
0.0438059
0.0482233
0.0588686
0.0820587
0.123545
0.187747
0.276036
0.386374
0.515728
0.662025
0.819572
0.974334
1.11116
1.2179
1.288
1.32152
1.32398
1.30342
1.2669
1.21789
1.15796
1.08698
1.0031
0.905874
0.797106
0.680954
0.563282
0.450499
0.347573
0.257781
0.183019
0.123488
0.0781052
0.0450705
0.022401
0.00828686
0.0012291
0
0.00677338
0.0171347
0.030055
0.0445034
0.0594973
0.0741474
0.0693897
0.320982
1.16558
2.84918
5.34709
8.25038
10.821
12.2419
11.9735
10.0372
7.04874
3.95016
1.57997
0.327221
0.0605263
0.333361
0.425553
0.497396
0.533782
0.528285
0.484343
0.413996
0.334714
0.265096
0.216933
0.193076
0.191095
0.209064
0.243483
0.289411
0.341453
0.394601
0.445292
0.491135
0.530788
0.563957
0.59129
0.614153
0.63446
0.654494
0.676701
0.70346
0.73685
0.778447
0.829156
0.88918
0.958317
1.03607
1.1218
1.21487
1.31488
1.42169
1.53554
1.65697
1.78676
1.92561
2.07384
2.23107
2.39593
2.56595
2.73773
2.90719
3.06995
3.22115
3.35534
3.46907
3.56152
3.63389
3.68924
3.7319
3.76639
3.79532
3.81669
3.82136
3.79209
3.70917
3.55838
3.33812
3.06203
2.75582
2.44926
2.16552
1.90451
1.66627
1.45154
1.25929
1.08774
0.935267
0.800817
0.683946
0.584458
0.502016
0.435645
0.383418
0.342369
0.308621
0.277654
0.244522
0.204538
0.153905
0.0903132
0.0134089
-0.0749691
-0.170975
-0.269006
-0.362077
-0.44312
-0.505897
-0.545697
-0.559701
-0.547059
-0.508734
-0.445126
-0.354331
-0.237113
-0.103597
0.0258281
0.129678
0.190185
0.197683
0.15371
0.0712702
-0.0287157
-0.124165
-0.199141
-0.252895
-0.292496
-0.322882
-0.345299
-0.359803
-0.365536
-0.361067
-0.345065
-0.317031
-0.27782
-0.229813
-0.176705
-0.123029
-0.0737442
-0.0338901
-0.00749278
0.00260777
-0.00498571
-0.0300328
-0.0705302
-0.122717
-0.181274
-0.239763
-0.291374
-0.330563
-0.350539
-0.335139
-0.266883
-0.167676
-0.0719398
-0.0140265
-0.013665
-0.0663926
-0.144459
-0.208191
-0.218476
-0.10525
0.0938663
0.300265
0.436257
0.456104
0.35773
0.17814
-0.0206898
-0.172011
-0.231308
-0.233932
-0.214749
-0.18669
-0.156942
-0.129722
-0.105528
-0.0817927
-0.0546858
-0.0213441
0.0183295
0.0610194
0.1021
0.13635
0.1594
0.16878
0.164254
0.147481
0.121293
0.0889729
0.0541316
0.0196165
-0.0120488
-0.0383034
-0.0566575
-0.0649026
-0.0608351
-0.0421251
-0.00797167
0.0370466
0.0830819
0.11931
0.136839
0.131324
0.10442
0.0634786
0.0194548
-0.0164656
-0.0369748
-0.0410352
-0.0313792
-0.0153252
-0.00136526
0.00408325
-0.000963521
-0.0134525
-0.0265593
-0.0321862
-0.0236531
-0.000748765
0.0338868
0.0778738
0.128805
0.183604
0.238887
0.291871
0.341062
0.38658
0.43016
0.474795
0.524069
0.581287
0.648638
0.726351
0.812859
0.905274
0.99895
1.08803
1.16592
1.22604
1.26323
1.27354
1.25446
1.20523
1.1272
1.02408
0.901859
0.76842
0.632644
0.502461
0.382794
0.277087
0.188369
0.117834
0.0631543
0.0211492
-0.0108394
-0.0330968
-0.0448956
-0.0442046
-0.029244
0
0.0405413
0.0882786
0.137798
0.184485
0.213935
0.434529
1.41144
3.37763
6.23337
9.46553
12.2429
13.7094
13.3703
11.3609
8.40916
5.48728
3.34859
2.22579
1.85295
1.74667
1.52616
1.3374
1.16541
1.01518
0.889418
0.788517
0.711152
0.657913
0.627645
0.618531
0.629114
0.657309
0.699659
0.750285
0.801908
0.847387
0.881484
0.902117
0.910647
0.91116
0.909129
0.909866
0.916562
0.931
0.954436
0.987487
1.0302
1.08221
1.14287
1.2112
1.28588
1.36529
1.44765
1.53122
1.61484
1.69829
1.78266
1.8703
1.96461
2.06938
2.18801
2.3225
2.47321
2.63867
2.81557
2.99942
3.18498
3.36731
3.54251
3.70809
3.86235
4.00361
4.13168
4.24677
4.34797
4.43139
4.4896
4.5158
4.50227
4.44134
4.32718
4.15791
3.9374
3.67599
3.38963
3.09759
2.81637
2.55342
2.31532
2.1078
1.93396
1.79169
1.67633
1.58174
1.5014
1.42921
1.35986
1.28887
1.21252
1.12806
1.03406
0.929788
0.814227
0.695964
0.591942
0.520569
0.495288
0.519257
0.583577
0.670011
0.757174
0.827613
0.877383
0.90632
0.919449
0.923874
0.925407
0.9263
0.925236
0.918779
0.903395
0.87759
0.843334
0.806214
0.774179
0.755308
0.75523
0.772864
0.80623
0.850388
0.898598
0.943782
0.980365
1.00431
1.01367
1.00848
0.990562
0.963049
0.93019
0.896326
0.865565
0.841486
0.826655
0.822412
0.82908
0.844435
0.864659
0.885495
0.903266
0.915743
0.922638
0.925604
0.92777
0.932917
0.944284
0.964429
0.995481
1.03542
1.07771
1.11421
1.13746
1.14276
1.12947
1.10108
1.06405
1.02581
0.992515
0.966978
0.949023
0.937968
0.932761
0.932799
0.938407
0.950677
0.971229
1.00184
1.04007
1.07873
1.10809
1.11844
1.1028
1.05896
0.990375
0.905723
0.817255
0.738112
0.677942
0.640152
0.623184
0.626207
0.645895
0.67716
0.714182
0.751537
0.785359
0.813746
0.837043
0.857711
0.879844
0.908417
0.948388
1.0089
1.10959
1.25856
1.42217
1.55504
1.61747
1.59243
1.49396
1.36182
1.24432
1.17832
1.16575
1.17979
1.20614
1.23863
1.27184
1.3007
1.32124
1.33103
1.32947
1.31796
1.29984
1.27994
1.2643
1.25876
1.26772
1.2931
1.33389
1.38636
1.44493
1.50357
1.5572
1.60295
1.63995
1.66941
1.694
1.71693
1.74107
1.76848
1.80011
1.83569
1.87439
1.91546
1.95844
2.00318
2.04852
2.0873
2.10572
2.08615
2.01338
1.88129
1.69679
1.4791
1.25509
1.05267
0.880691
0.739318
0.633367
0.56409
0.530645
0.530226
0.555861
0.597619
0.642886
0.677196
0.687812
0.664844
0.602102
0.497996
0.356215
0.185758
0
-0.0116389
0.620116
2.14885
4.62324
7.75982
10.925
13.2906
14.1416
13.1996
10.7761
7.64538
4.69427
2.55039
1.38991
0.998829
0.994835
0.906329
0.819556
0.736191
0.659511
0.593272
0.54125
0.506324
0.489573
0.490128
0.506154
0.530779
0.555037
0.570774
0.572571
0.558918
0.532336
0.498475
0.464556
0.437641
0.422129
0.418995
0.428408
0.451408
0.487939
0.532062
0.57136
0.593183
0.588745
0.557262
0.508298
0.460714
0.437907
0.460772
0.537787
0.654221
0.795887
0.955005
1.12401
1.29545
1.46321
1.62304
1.77284
1.91255
2.0437
2.16866
2.28993
2.40946
2.52834
2.64671
2.76399
2.87919
2.99115
3.09792
3.19513
3.27517
3.32877
3.34302
3.30442
3.20351
3.03882
2.81857
2.55941
2.28271
2.009
1.74742
1.50166
1.27579
1.06951
0.880445
0.705531
0.542428
0.390391
0.250409
0.12466
0.0155779
-0.076322
-0.150486
-0.207675
-0.249893
-0.278568
-0.296995
-0.309944
-0.321422
-0.33365
-0.346247
-0.355991
-0.357401
-0.344063
-0.31035
-0.254597
-0.176432
-0.0753653
0.045435
0.179749
0.31555
0.434959
0.522051
0.557301
0.52025
0.402283
0.220481
0.0205294
-0.136368
-0.196483
-0.159375
-0.0695267
0.0498156
0.192346
0.357926
0.544022
0.734546
0.906028
1.0364
1.10975
1.12039
1.07415
0.986442
0.878075
0.770306
0.678514
0.605369
0.547318
0.499657
0.458483
0.419174
0.377501
0.330619
0.277673
0.219872
0.160064
0.101942
0.0488968
0.00298195
-0.0343922
-0.0626812
-0.0822182
-0.0939377
-0.099033
-0.098653
-0.0937275
-0.0850391
-0.0732235
-0.0589268
-0.0430729
-0.0271732
-0.0131767
-0.00289383
0.00254211
0.00309563
-5.6839e-005
-0.00476532
-0.00839386
-0.00833855
-0.00235901
0.0106861
0.0318325
0.0623264
0.103251
0.158171
0.233155
0.32653
0.42143
0.495705
0.529816
0.514956
0.457447
0.377452
0.302571
0.258904
0.257944
0.289376
0.342223
0.410155
0.487819
0.569431
0.649259
0.720457
0.774084
0.804614
0.808294
0.784201
0.735582
0.670486
0.600841
0.539773
0.49807
0.480458
0.481644
0.49828
0.525472
0.558332
0.59294
0.627285
0.660528
0.692631
0.724084
0.755751
0.788817
0.824845
0.865767
0.913716
0.970778
1.04001
1.12564
1.23053
1.34622
1.45237
1.5268
1.55226
1.52244
1.44538
1.34275
1.24501
1.18343
1.17493
1.20895
1.27109
1.36216
1.46866
1.57201
1.65484
1.70481
1.7162
1.68859
1.6237
1.52238
1.38375
1.21623
1.02531
0.816483
0.598785
0.386174
0.194008
0.0359146
-0.0791069
-0.14681
-0.163116
-0.135083
-0.0836773
-0.0323433
-0.00031662
0
-0.0249527
-0.0848198
-0.172833
-0.279113
-0.392466
-0.46021
-0.154324
0.778547
2.56026
5.12821
8.01344
10.4308
11.5835
11.0408
8.97314
6.09283
3.3183
1.35195
0.41477
0.269714
0.468809
0.409474
0.342472
0.263069
0.168557
0.0592468
-0.0615845
-0.188341
-0.314195
-0.433103
-0.539899
-0.630666
-0.703241
-0.757204
-0.793641
-0.814775
-0.8235
-0.822614
-0.815042
-0.803308
-0.788983
-0.772492
-0.753127
-0.72932
-0.699145
-0.660971
-0.613815
-0.557839
-0.49529
-0.430577
-0.369527
-0.317696
-0.278987
-0.254588
-0.242385
-0.236995
-0.230466
-0.213587
-0.177593
-0.116903
-0.0310963
0.077013
0.203973
0.345759
0.497502
0.65426
0.811907
0.967518
1.11954
1.26768
1.41244
1.55442
1.69365
1.82767
1.94955
2.04799
2.11017
2.12556
2.08876
1.99994
1.86291
1.68238
1.46241
1.21478
0.950273
0.675665
0.396394
0.118474
-0.151423
-0.406548
-0.640743
-0.849104
-1.02849
-1.17711
-1.29299
-1.3774
-1.43578
-1.47399
-1.49711
-1.50859
-1.51016
-1.50221
-1.48214
-1.45311
-1.42383
-1.40562
-1.40858
-1.43772
-1.49126
-1.56168
-1.63859
-1.71148
-1.77441
-1.82325
-1.85355
-1.86205
-1.84732
-1.81044
-1.75336
-1.68355
-1.61004
-1.54134
-1.48341
-1.4386
-1.40592
-1.3825
-1.36566
-1.35456
-1.35033
-1.35631
-1.37609
-1.41187
-1.46291
-1.52481
-1.5899
-1.64869
-1.69195
-1.71462
-1.71256
-1.68563
-1.63871
-1.5796
-1.51826
-1.46534
-1.42924
-1.4148
-1.42275
-1.44965
-1.48852
-1.53021
-1.56529
-1.58603
-1.59007
-1.57908
-1.55453
-1.51954
-1.47819
-1.43492
-1.3937
-1.35787
-1.33029
-1.31318
-1.30796
-1.31511
-1.33397
-1.3626
-1.39792
-1.43584
-1.47163
-1.50065
-1.519
-1.52413
-1.51517
-1.493
-1.45921
-1.41721
-1.3712
-1.32496
-1.28124
-1.24146
-1.20579
-1.17352
-1.14368
-1.11555
-1.08893
-1.06433
-1.04293
-1.02635
-1.01644
-1.01492
-1.02302
-1.04105
-1.06796
-1.10108
-1.13603
-1.167
-1.18395
-1.1595
-1.04473
-0.852888
-0.645227
-0.492653
-0.445901
-0.517107
-0.6774
-0.868679
-1.02453
-1.09391
-1.09608
-1.06402
-1.01251
-0.945598
-0.865242
-0.774553
-0.683221
-0.604277
-0.549774
-0.526568
-0.532259
-0.554172
-0.573146
-0.571143
-0.538879
-0.480461
-0.411976
-0.353475
-0.319421
-0.311704
-0.318182
-0.317014
-0.284766
-0.205097
-0.0886032
0.0536679
0.216756
0.382724
0.531762
0.647478
0.720423
0.749422
0.740416
0.703433
0.64894
0.584869
0.516169
0.444213
0.368558
0.287844
0.200382
0.104831
0.000678635
-0.111227
-0.22827
-0.345913
-0.457891
-0.553181
-0.601666
-0.552464
-0.41727
-0.251627
-0.120987
-0.0736761
-0.127223
-0.270236
-0.473253
-0.701488
-0.926946
-1.1427
-1.35346
-0.988402
0
1.74988
4.26145
7.28013
10.2353
12.3497
12.9385
11.768
9.23691
6.22074
3.64759
2.06002
1.43267
1.32638
1.14703
0.923585
0.708214
0.512816
0.353327
0.237247
0.159012
0.107373
0.0699742
0.0376375
0.00678978
-0.0206049
-0.0391031
-0.0425924
-0.0296701
-0.00244255
0.0379448
0.0903328
0.153125
0.224566
0.299923
0.372612
0.436731
0.488639
0.528193
0.559091
0.58804
0.623048
0.671467
0.73686
0.818315
0.914657
1.02498
1.1477
1.28043
1.42028
1.56404
1.70703
1.84485
1.97408
2.0928
2.20067
2.29852
2.38766
2.46921
2.54385
2.61231
2.6752
2.73387
2.79075
2.85104
2.97152
3.37798
3.9798
4.60974
5.08105
5.23588
5.02361
4.53909
3.97874
3.53181
3.28699
3.10789
2.90182
2.68934
2.47638
2.26729
2.06721
1.88154
1.71569
1.57893
1.48472
1.42087
1.36201
1.28001
1.15457
0.982011
0.777937
0.57195
0.396242
0.273182
0.194392
0.153597
0.138131
0.134301
0.132295
0.128969
0.127889
0.13717
0.182127
0.328734
0.565416
0.81359
0.973568
0.959759
0.742545
0.375023
-0.0178967
-0.289368
-0.341054
-0.296569
-0.214853
-0.114461
-0.0129868
0.0771109
0.154765
0.224297
0.289199
0.354998
0.445357
0.651755
0.968958
1.30532
1.5242
1.5
1.1858
0.653755
0.0817616
-0.306205
-0.326864
-0.213301
0.053326
0.400024
0.723242
0.940107
1.01162
0.945185
0.783314
0.586882
0.417621
0.319708
0.273458
0.250151
0.236212
0.226224
0.21649
0.205237
0.192774
0.181046
0.172731
0.170151
0.173853
0.183721
0.197844
0.212352
0.22328
0.227917
0.225774
0.218839
0.210974
0.206669
0.209622
0.221591
0.241244
0.267079
0.297317
0.330349
0.365062
0.400754
0.436777
0.471521
0.50202
0.524435
0.535273
0.532861
0.518352
0.495742
0.470806
0.449344
0.435299
0.428737
0.428493
0.43218
0.436976
0.440641
0.442224
0.442206
0.442023
0.44313
0.446254
0.449543
0.44791
0.435103
0.406544
0.361933
0.306346
0.249187
0.20135
0.171752
0.161048
0.165453
0.182009
0.206012
0.231698
0.252393
0.262478
0.258417
0.239442
0.207873
0.168945
0.130053
0.0994682
0.0847689
0.0900204
0.117066
0.165521
0.232664
0.314207
0.405172
0.500251
0.595032
0.684324
0.761724
0.821634
0.858931
0.870055
0.854358
0.815142
0.759844
0.699179
0.645485
0.625122
0.725463
0.988508
1.31282
1.57345
1.65648
1.49918
1.12044
0.6197
0.14232
-0.169569
-0.333254
-0.446987
-0.538653
-0.61186
-0.669278
-0.713211
-0.745667
-0.768449
-0.782887
-0.789996
-0.790653
-0.785723
-0.776093
-0.76263
-0.746117
-0.727269
-0.589382
0
1.25597
3.31733
6.08913
9.13683
11.7206
13.0359
12.5813
10.4451
7.31138
4.15048
1.76998
0.489535
0.110666
0.154358
0.0727631
-0.00366497
-0.072084
-0.129608
-0.174491
-0.206244
-0.225534
-0.233911
-0.233453
-0.226434
-0.215374
-0.202204
-0.188667
-0.176245
-0.166062
-0.158767
-0.154466
-0.152714
-0.152606
-0.15293
-0.152331
-0.149481
-0.143117
-0.132017
-0.115043
-0.0911798
-0.0595915
-0.0196707
0.02896
0.0864182
0.152762
0.228173
0.312939
0.407402
0.511839
0.626308
0.750542
0.883941
1.02567
1.17481
1.33049
1.4919
1.65819
1.82815
1.99997
2.17093
2.33675
2.49106
2.62791
2.74242
2.83182
2.89616
2.93799
2.96141
2.97043
2.9675
2.953
2.92487
2.87904
2.81089
2.71651
2.59363
2.44211
2.2639
2.06273
1.84441
1.61547
1.3819
1.1495
0.92434
0.712489
0.519621
0.352342
0.218964
0.122821
0.0561914
0.0076334
-0.0347225
-0.0797144
-0.130696
-0.184869
-0.234494
-0.269483
-0.281555
-0.269976
-0.234721
-0.169434
-0.0795265
0.0155769
0.0949055
0.14187
0.148668
0.117608
0.0590439
-0.0129416
-0.0850908
-0.149057
-0.203191
-0.247233
-0.280189
-0.30034
-0.305975
-0.294033
-0.253858
-0.169634
-0.0556576
0.0565187
0.131975
0.147043
0.100341
0.0138273
-0.0768375
-0.137313
-0.147356
-0.12455
-0.0855171
-0.0348166
0.0192295
0.066515
0.0985731
0.110079
0.0999182
0.0714792
0.0319115
-0.00960712
-0.0441126
-0.0651201
-0.0720766
-0.066993
-0.0515493
-0.0271029
0.00481834
0.0425949
0.0845659
0.129021
0.174017
0.217319
0.256514
0.289136
0.312839
0.325575
0.325747
0.312352
0.285158
0.244908
0.192809
0.130409
0.0641291
0.00590782
-0.0317108
-0.0389486
-0.0120167
0.0452019
0.121995
0.204207
0.279049
0.340154
0.391628
0.437949
0.486272
0.554197
0.682176
0.873208
1.07357
1.21338
1.23632
1.12245
0.897181
0.623582
0.3828
0.249002
0.210518
0.218753
0.254538
0.311351
0.381279
0.456329
0.529769
0.597611
0.657718
0.709714
0.754362
0.7927
0.825323
0.852307
0.873082
0.886828
0.893064
0.892126
0.885344
0.874859
0.863172
0.852621
0.844965
0.841451
0.843139
0.851412
0.868448
0.897401
0.942064
1.00604
1.09158
1.19849
1.32355
1.4624
1.60411
1.73643
1.84815
1.93087
1.97979
1.99344
1.97272
1.91985
1.83781
1.73293
1.61127
1.4783
1.34016
1.20393
1.07706
0.965878
0.875533
0.809693
0.770894
0.761804
0.783629
0.832694
0.898318
0.963996
1.01182
1.0254
0.991456
0.901262
0.751967
0.547359
0.291339
0.00250835
-0.296732
-0.466954
0
1.23577
3.32771
6.08584
8.98293
11.2635
12.2282
11.5632
9.51703
6.7954
4.22649
2.39768
1.46878
1.23211
1.32282
1.25338
1.18339
1.11412
1.04706
0.984049
0.927
0.877473
0.836621
0.805251
0.783732
0.77199
0.769678
0.776203
0.790728
0.812173
0.839243
0.870484
0.904341
0.93922
0.973431
1.00513
1.0331
1.05716
1.0787
1.10078
1.12765
1.16366
1.21177
1.27244
1.34437
1.42175
1.49818
1.56938
1.63518
1.69984
1.77047
1.85421
1.95543
2.07222
2.19927
2.33255
2.46821
2.60381
2.73901
2.87552
3.01622
3.1638
3.31941
3.48155
3.6466
3.80695
3.95312
4.07615
4.16918
4.22802
4.25064
4.23579
4.18175
4.08577
3.94598
3.76097
3.53288
3.26896
2.98155
2.68651
2.40037
2.13425
1.8938
1.68301
1.50228
1.34922
1.21985
1.10969
1.01463
0.931268
0.857459
0.791495
0.730892
0.673213
0.616255
0.558409
0.49893
0.437922
0.376036
0.314065
0.252686
0.192529
0.134621
0.081246
0.036293
0.00461845
-0.00868206
0.000272465
0.0327984
0.0869291
0.157617
0.23776
0.319656
0.39688
0.465737
0.523067
0.56615
0.593023
0.603646
0.599037
0.581387
0.55414
0.52179
0.489303
0.461211
0.44065
0.429489
0.426276
0.427674
0.429802
0.429673
0.426219
0.420569
0.415559
0.414715
0.42058
0.433859
0.455859
0.485722
0.516998
0.541397
0.551548
0.543395
0.517509
0.478707
0.434139
0.39076
0.353382
0.322282
0.297103
0.27745
0.262626
0.251712
0.24366
0.236664
0.228597
0.217713
0.203461
0.187059
0.171449
0.160528
0.157908
0.165694
0.182629
0.20656
0.23477
0.264129
0.291625
0.314639
0.330768
0.337183
0.331694
0.312347
0.277979
0.228991
0.168033
0.100272
0.0330585
-0.0250235
-0.0659073
-0.0795426
-0.0390194
0.0770974
0.232228
0.3757
0.46145
0.464499
0.389398
0.267336
0.142748
0.0547939
0.0198133
0.0147614
0.0224567
0.0360715
0.0511885
0.0651625
0.0774871
0.089577
0.104069
0.123861
0.150919
0.185738
0.227574
0.27481
0.325137
0.376114
0.425692
0.472544
0.516129
0.556475
0.59361
0.627499
0.658364
0.686636
0.713626
0.742142
0.776532
0.821895
0.882585
0.960541
1.05416
1.15746
1.26378
1.36622
1.4595
1.54116
1.61178
1.67407
1.72927
1.77664
1.80793
1.8062
1.75331
1.63975
1.47154
1.27046
1.06686
0.888842
0.746251
0.627142
0.529413
0.450139
0.385564
0.331999
0.286348
0.246272
0.210096
0.176489
0.14463
0.113976
0.0841465
0.0549499
0.0263134
0
0.330053
1.29645
3.16846
5.95746
9.26241
12.297
14.1556
14.2156
12.4558
9.4851
6.24568
3.57027
1.86115
1.0538
0.823382
0.838939
0.826306
0.81058
0.790732
0.76655
0.738806
0.709317
0.680489
0.654845
0.634587
0.621284
0.615733
0.61795
0.627275
0.642371
0.661738
0.683719
0.70669
0.729234
0.750268
0.769158
0.785628
0.79979
0.812164
0.823685
0.835721
0.850059
0.868764
0.893922
0.927268
0.969819
1.0215
1.08203
1.15021
1.22429
1.30345
1.38856
1.48237
1.58911
1.71338
1.8587
2.02622
2.21286
2.41283
2.61986
2.82717
3.02828
3.21801
3.39308
3.55221
3.69504
3.81973
3.92207
3.99863
4.04415
4.05074
4.01123
3.92284
3.78909
3.61896
3.42374
3.21318
2.99482
2.77209
2.54583
2.31657
2.0856
1.85538
1.62965
1.41307
1.21072
1.02749
0.867505
0.7339
0.62821
0.552433
0.514361
0.519048
0.551646
0.593372
0.625666
0.634614
0.613976
0.565567
0.497113
0.418786
0.339978
0.266039
0.198728
0.139161
0.0889806
0.0517864
0.0317493
0.0324219
0.0569991
0.107078
0.181431
0.275297
0.381511
0.488613
0.584407
0.658679
0.705144
0.722297
0.71307
0.683535
0.641163
0.593213
0.545679
0.502306
0.465332
0.436657
0.418566
0.413326
0.423102
0.452477
0.511833
0.613798
0.749193
0.887494
0.994884
1.04531
1.02866
0.953085
0.841427
0.724196
0.631506
0.577348
0.554772
0.560436
0.59018
0.628603
0.65842
0.666231
0.647357
0.607655
0.561362
0.525717
0.514517
0.528607
0.559181
0.601004
0.647909
0.693318
0.73208
0.761503
0.78164
0.794772
0.804269
0.813209
0.823488
0.834332
0.842966
0.846458
0.843643
0.836084
0.827505
0.821975
0.821983
0.82683
0.833098
0.836415
0.833554
0.82367
0.808086
0.788982
0.767983
0.745778
0.722663
0.699328
0.677598
0.660436
0.651221
0.65256
0.664944
0.686659
0.713745
0.74099
0.763265
0.776785
0.779854
0.772931
0.758135
0.738447
0.717034
0.696558
0.678974
0.666054
0.659454
0.660601
0.670569
0.689839
0.718061
0.753932
0.795382
0.839361
0.882587
0.922152
0.956078
0.983696
1.00579
1.02446
1.04278
1.06426
1.09221
1.12923
1.17697
1.23584
1.30512
1.38331
1.46748
1.55212
1.62938
1.69124
1.73076
1.7431
1.72629
1.68142
1.61232
1.52462
1.42463
1.31869
1.21163
1.10641
1.00496
0.90889
0.81978
0.739177
0.668621
0.609484
0.562683
0.528575
0.5074
0.497752
0.491535
0.475847
0.436786
0.36272
0.247362
0.0916823
-0.0958739
-0.300864
0
1.11638
3.1471
5.93051
9.00937
11.7072
13.3299
13.4357
12.04
9.62722
6.93945
4.65044
3.1097
2.28896
1.92445
1.73802
1.56093
1.38722
1.21973
1.06216
0.919803
0.798538
0.703286
0.638122
0.605404
0.60497
0.635641
0.699483
0.783867
0.868329
0.934197
0.96971
0.973152
0.952692
0.922906
0.899417
0.894014
0.907839
0.936332
0.97712
1.02938
1.09235
1.1653
1.24732
1.33746
1.43436
1.53434
1.63371
1.73014
1.82355
1.91632
2.01243
2.11596
2.22958
2.35317
2.48398
2.61965
2.75808
2.89759
3.03712
3.17614
3.31429
3.45105
3.58537
3.71602
3.84182
3.96214
4.07711
4.18671
4.28941
4.38147
4.45187
4.48142
4.45011
4.34643
4.17301
3.94501
3.68272
3.40352
3.11965
2.8362
2.55596
2.28236
2.01979
1.77349
1.54909
1.35186
1.1859
1.05356
0.956136
0.895972
0.875265
0.885543
0.907969
0.924278
0.920582
0.890223
0.834771
0.762739
0.686488
0.618496
0.566337
0.52982
0.507798
0.500755
0.508496
0.530511
0.566283
0.61616
0.684813
0.788076
0.955352
1.17701
1.39899
1.5505
1.57215
1.44284
1.19154
0.889671
0.627241
0.477546
0.410231
0.376149
0.357821
0.351294
0.353908
0.364836
0.385047
0.416716
0.465769
0.542655
0.655734
0.790146
0.914074
0.995063
1.01077
0.956843
0.849466
0.720776
0.607885
0.539706
0.515541
0.517067
0.532527
0.556181
0.583235
0.608496
0.62683
0.634377
0.628976
0.610653
0.581938
0.547862
0.515468
0.492815
0.497464
0.5644
0.696111
0.848707
0.965297
1.0011
0.942281
0.81073
0.653221
0.520231
0.444227
0.410973
0.397175
0.393388
0.396478
0.404807
0.418368
0.438261
0.466331
0.504736
0.551499
0.598289
0.633783
0.647056
0.631149
0.585642
0.517378
0.439067
0.36616
0.312974
0.285498
0.281633
0.298213
0.333911
0.386307
0.452321
0.530697
0.619034
0.707552
0.781062
0.823017
0.82028
0.768451
0.675122
0.559254
0.446557
0.362363
0.316518
0.301588
0.315692
0.358326
0.421237
0.492119
0.55898
0.612543
0.647944
0.6655
0.670471
0.671814
0.680068
0.704713
0.751384
0.81992
0.904348
0.997772
1.09375
1.18654
1.27203
1.34779
1.41015
1.45359
1.47293
1.46023
1.40723
1.309
1.16737
0.992406
0.801086
0.613793
0.447558
0.306295
0.201544
0.14808
0.139565
0.153488
0.165519
0.1578
0.124829
0.074842
0.026162
0
0.0134091
0.0615629
0.131972
0.217028
0.338589
0.614651
1.21361
2.41543
4.3744
6.93841
9.5772
11.5171
12.0606
10.9333
8.45342
5.40908
2.69952
0.942295
0.260941
0.344343
0.534302
0.632647
0.716668
0.787166
0.846835
0.898458
0.943225
0.981455
1.01192
1.03145
1.03604
1.02184
0.985971
0.927936
0.84619
0.747418
0.650825
0.578156
0.547307
0.566963
0.634489
0.73781
0.860191
0.985642
1.1042
1.21404
1.31489
1.40612
1.48787
1.56077
1.62585
1.6845
1.73852
1.79017
1.84232
1.89838
1.96209
2.03731
2.12759
2.23566
2.36295
2.50925
2.67247
2.84886
3.03385
3.22247
3.40995
3.59223
3.76627
3.93003
4.08205
4.22013
4.34011
4.4369
4.50633
4.54262
4.53964
4.49261
4.39928
4.26049
4.08004
3.86438
3.62443
3.37242
3.11598
2.86018
2.60877
2.36399
2.12665
1.89655
1.67331
1.45725
1.25008
1.05531
0.877868
0.723221
0.597068
0.507451
0.464144
0.478287
0.556839
0.681297
0.808884
0.90112
0.929026
0.880817
0.76989
0.635441
0.529788
0.494858
0.531542
0.604766
0.683301
0.735837
0.743725
0.708182
0.648692
0.593513
0.566857
0.57595
0.604822
0.643064
0.682565
0.716328
0.740234
0.753884
0.760328
0.764868
0.773391
0.790668
0.818124
0.855091
0.900269
0.9518
1.00724
1.06376
1.11813
1.16686
1.20691
1.23586
1.25208
1.25485
1.24437
1.22166
1.18836
1.14666
1.09935
1.04955
1.00009
0.953685
0.912715
0.879398
0.854645
0.837964
0.827962
0.822804
0.820661
0.819957
0.819362
0.817609
0.81322
0.80486
0.791722
0.774125
0.753911
0.734308
0.719189
0.711955
0.71476
0.727562
0.748677
0.775761
0.806883
0.8411
0.878246
0.918874
0.960725
0.998111
1.02352
1.03056
1.01682
0.984938
0.941467
0.894104
0.849067
0.808742
0.773267
0.743175
0.719627
0.704289
0.699172
0.707468
0.735325
0.786394
0.849996
0.909699
0.949492
0.960123
0.943
0.909698
0.877218
0.861329
0.871206
0.900808
0.942351
0.991772
1.04585
1.1015
1.15568
1.20525
1.24763
1.28102
1.30483
1.32012
1.3297
1.33766
1.34846
1.36579
1.39086
1.42282
1.46021
1.49946
1.53597
1.56586
1.58714
1.60063
1.61016
1.62213
1.65209
1.75444
1.96289
2.21518
2.40904
2.45053
2.29738
1.97656
1.57049
1.186
0.924274
0.771132
0.668087
0.612923
0.628471
0.711782
0.826866
0.934206
1.00191
1.01283
0.9648
0.864967
0.722695
0.545467
0.343069
0.126262
-0.0984874
-0.329318
0
1.08233
3.02996
5.71582
8.72569
11.4064
13.0449
13.1415
11.6501
9.04013
6.1131
3.66199
2.15212
1.59158
1.63397
1.63844
1.55727
1.47081
1.38363
1.29994
1.22358
1.15585
1.09564
1.04053
0.988161
0.937363
0.888803
0.844835
0.808782
0.784035
0.771723
0.773576
0.790627
0.823302
0.871106
0.932393
1.00549
1.08836
1.17739
1.26689
1.34978
1.41923
1.4697
1.49781
1.50291
1.48728
1.45618
1.41762
1.38193
1.36071
1.36435
1.40083
1.47823
1.60181
1.77298
1.98873
2.24149
2.52022
2.8147
3.10019
3.35409
3.56085
3.7153
3.823
3.89747
3.95508
4.00952
4.06782
4.12892
4.1859
4.22833
4.24483
4.2249
4.15988
4.04352
3.87295
3.65019
3.3881
3.10258
2.80894
2.5225
2.25679
2.02029
1.81941
1.65653
1.53014
1.43569
1.36644
1.31518
1.27405
1.23309
1.18348
1.11859
1.03514
0.93399
0.817629
0.696801
0.584897
0.494481
0.434561
0.409138
0.417229
0.454036
0.512601
0.585286
0.663996
0.742737
0.816729
0.881472
0.932981
0.968625
0.987268
0.989658
0.978614
0.958813
0.936098
0.916374
0.904343
0.902402
0.909603
0.923816
0.942002
0.961097
0.978906
0.994576
1.00855
1.02206
1.03645
1.05254
1.07038
1.08957
1.10939
1.12909
1.14808
1.16594
1.18233
1.19685
1.20887
1.21756
1.22187
1.22067
1.21288
1.19753
1.17378
1.14104
1.09876
1.04651
0.98419
0.91229
0.832324
0.747103
0.661112
0.582957
0.522756
0.490019
0.491172
0.542663
0.642158
0.762013
0.869578
0.938335
0.95571
0.92502
0.861774
0.786458
0.716627
0.659098
0.610282
0.565315
0.520515
0.472988
0.420811
0.36522
0.313819
0.277088
0.264676
0.281816
0.327324
0.393971
0.470893
0.546853
0.613857
0.670326
0.714676
0.74575
0.763333
0.767708
0.759502
0.73964
0.709345
0.670111
0.62368
0.572043
0.517596
0.463009
0.412494
0.371698
0.346455
0.341848
0.360735
0.402517
0.462677
0.533355
0.604808
0.667245
0.714305
0.740701
0.743481
0.721974
0.677591
0.613647
0.535041
0.447462
0.359491
0.280029
0.217196
0.177342
0.164421
0.179811
0.22251
0.289612
0.376732
0.478473
0.590497
0.709781
0.834405
0.963232
1.09691
1.23615
1.37526
1.50083
1.59598
1.64634
1.64522
1.59512
1.50478
1.38452
1.24294
1.08945
0.931548
0.774153
0.621519
0.477934
0.347272
0.232866
0.137058
0.0607972
0.00360773
-0.0361963
-0.061139
-0.0741184
-0.0780008
-0.0753499
-0.0683145
-0.0586392
-0.047708
-0.036623
-0.0261569
-0.0167029
-0.00824568
-0.00041092
0
0.441957
1.67486
3.87196
6.82248
9.87392
12.1275
12.8273
11.7321
9.2393
6.18294
3.43501
1.54951
0.628881
0.425517
0.53185
0.510814
0.482216
0.443476
0.393569
0.333396
0.265753
0.194897
0.125729
0.0626282
0.0091711
-0.0324434
-0.0613499
-0.0783549
-0.0852707
-0.0841942
-0.0768172
-0.0639142
-0.0451179
-0.0189995
0.0166129
0.0641856
0.125774
0.202645
0.295217
0.402903
0.523937
0.656878
0.796421
0.931976
1.0522
1.14777
1.21376
1.25125
1.26737
1.27403
1.28553
1.31585
1.37255
1.45716
1.56878
1.70549
1.86427
2.04063
2.22886
2.42255
2.61508
2.8
2.97087
3.12191
3.24962
3.35221
3.4295
3.4825
3.51274
3.52146
3.50888
3.47237
3.40897
3.31494
3.1871
3.02438
2.82899
2.6069
2.3674
2.12183
1.88141
1.65446
1.44782
1.2659
1.11053
0.981164
0.875343
0.789338
0.719214
0.660476
0.608216
0.558704
0.509925
0.461845
0.416223
0.375926
0.345001
0.328746
0.326134
0.329216
0.327261
0.311243
0.277956
0.231807
0.183415
0.145598
0.128518
0.132021
0.150006
0.17895
0.214168
0.250963
0.285471
0.314994
0.337618
0.351654
0.356189
0.35055
0.334662
0.309586
0.277896
0.243622
0.211727
0.187234
0.173171
0.170357
0.180434
0.205068
0.24175
0.281026
0.312218
0.326565
0.320259
0.296252
0.26394
0.236632
0.227505
0.244585
0.283616
0.34157
0.412965
0.485919
0.547987
0.588889
0.602309
0.586348
0.542744
0.475527
0.389897
0.29274
0.190013
0.0914823
0.00951204
-0.0439786
-0.0610999
-0.0411034
0.00878407
0.0755669
0.144942
0.20609
0.257465
0.301648
0.340968
0.378315
0.415922
0.454218
0.489858
0.516173
0.525433
0.511638
0.472965
0.413014
0.340383
0.266621
0.203196
0.157529
0.129572
0.117802
0.119409
0.130075
0.144965
0.159558
0.170532
0.17536
0.172415
0.161027
0.141569
0.115531
0.0855519
0.055316
0.0292726
0.0121479
0.00829374
0.0217111
0.0606563
0.131566
155
436
705
971
1240
1503
1767
2030
2284
2540
2797
3048
3299
3560
3016
3221
3420
3611
3222
3401
3579
3306
3453
3603
3556
3595
3713
0
0
0
0
0
0
0
0
0
0
0
0
0
0
0
0
0
0
0
0
0
0
0
0
0
0
0
0
0
0
0
0
0
0
0
0
0
0
0
0
0
0
0
0
0
0
0
0
0
0
0
0
0
0
0
0
0
0
0
0
0
0
0
0
0
0
0
0
0
0
0
0
0
0
0
0
0
0
0
0
0
0
0
0
0
0
0
0
0
0
0
0
0
0
0
0
0
0
0
0
0
0
0
0
0
0
0
0
0
0
0
0
0
0
0
0
0
0
0
0
0
0
0
0
0
0
0
0
0
0
0
0
0
0
0
0
0
0
0
0
0
0
0
0
0
0
0
0
0
0
0
0
0
0
0
0
0
0
0
0
0
0
0
0
0
0
0
0
0
0
0
0
0
0
0
0
0
0
0
0
0
0
0
0
0
0
0
0
0
0
0
0
0
0
0
0
0
0
0
0
0
0
0
0
0
0
0
0
0
0
0
0
0
0
0
0
0
0
0
0
0
0
0
0
0
0
0
0
0
0
0
0
0
0
0
0
0
0
0
0
0
0
0
0
0
0
0
0
0
0
0
0
0
0
0
0
0
0
0
0
0
0
0
0
0
0
0
0
0
0
0
0
0
0
0
0
0
0
0
0
0
0
0
0
0
0
0
0
0
0
0
0
0
0
0
0
0
0
0
0
0
0
0
0
0
0
0
0
0
0
0
0
0
0
0
0
0
0
0
0
0
0
0
0
0
0
0
0
0
0
0
0
0
0
0
0
0
0
0
0
0
0
0
0
0
0
0
0
0
0
0
0
0
0
0
0
0
0
0
0
0
0
0
0
0
0
0
0
0
0
0
0
0
0
0
0
0
0
0
0
0
0
0
0
0
0
0
0
0
0
0
0
0
0
0
0
0
0
0
0
0
0
0
0
0
0
0
0
0
0
0
0
0
0
0
0
0
0
0
0
0
0
0
0
0
0
0
0
0
0
0
0
0
0
0
0
0
0
0
0
0
0
0
0
0
0
0
0
0
0
0
0
0
0
0
0
0
0
0
0
0
0
0
0
0
0
0
0
0
0
0
0
0
0
0
0
0
0
0
0
0
0
0
0
0
0
0
0
0
0
0
0
0
0
0
0
0
0
0
0
0
0
0
0
0
0
0
0
0
0
0
0
0
0
0
0
0
0
0
0
0
0
0
0
0
0
0
0
0
0
0
0
0
0
0
0
0
0
0
0
0
0
0
0
0
0
0
0
0
0
0
0
0
0
0
0
0
0
0
0
0
0
0
0
0
0
0
0
0
0
0
0
0
0
0
0
0
0
0
0
0
0
0
0
0
0
0
0
0
0
0
0
0
0
0
0
0
0
0
0
0
0
0
0
0
0
0
0
0
0
0
0
0
0
0
0
0
0
0
0
0
0
0
0
0
0
0
0
0
0
0
0
0
0
0
0
0
0
0
0
0
0
0
0
0
0
0
0
0
0
0
0
0
0
0
0
0
0
0
0
0
0
0
0
0
0
0
0
0
0
0
0
0
0
0
0
0
0
0
0
0
0
0
0
0
0
0
0
0
0
0
0
0
0
0
0
0
0
0
0
0
0
0
0
0
0
0
0
0
0
0
0
0
0
0
0
0
0
0
0
0
0
0
0
0
0
0
0
0
0
0
0
0
0
0
0
0
0
0
0
0
0
0
0
0
0
0
0
0
0
0
0
0
0
0
0
0
0
0
0
0
0
0
0
0
0
0
0
0
0
0
0
0
0
0
0
0
0
0
0
0
0
0
0
0
0
0
0
0
0
0
0
0
0
0
0
0
0
0
0
0
0
0
0
0
0
0
0
0
0
0
0
0
0
0
0
0
0
0
0
0
0
0
0
0
0
0
0
0
0
0
0
0
0
0
0
0
0
0
0
0
0
0
0
0
0
0
0
0
0
0
0
0
0
0
0
0
0
0
0
0
0
0
0
0
0
0
0
0
0
0
0
0
0
0
0
0
0
0
0
0
0
0
0
0
0
0
0
0
0
0
0
0
0
0
0
0
0
0
0
0
0
0
0
0
0
0
0
0
0
0
0
0
0
0
0
0
0
0
0
0
0
0
0
0
0
0
0
0
0
0
0
0
0
0
0
0
0
0
0
0
0
0
0
0
0
0
0
0
0
0
0
0
0
0
0
0
0
0
0
0
0
0
0
0
0
0
0
0
0
0
0
0
0
0
0
0
0
0
0
0
0
0
0
0
0
0
0
0
0
0
0
0
0
0
0
0
0
0
0
0
0
0
0
0
0
0
0
0
0
0
0
0
0
0
0
0
0
0
0
0
0
0
0
0
0
0
0
0
0
0
0
0
0
0
0
0
0
0
0
0
0
0
0
0
0
0
0
0
0
0
0
0
0
0
0
0
0
0
0
0
0
0
0
0
0
0
0
0
0
0
0
0
0
0
0
0
0
0
0
0
0
0
0
0
0
0
0
0
0
0
0
0
0
0
0
0
0
0
0
0
0
0
0
0
0
0
0
0
0
0
0
0
0
0
0
0
0
0
0
0
0
0
0
0
0
0
0
0
0
0
0
0
0
0
0
0
0
0
0
0
0
0
0
0
0
0
0
0
0
0
0
0
0
0
0
0
0
0
0
0
0
0
0
0
0
0
0
0
0
0
0
0
0
0
0
0
0
0
0
0
0
0
0
0
0
0
0
0
0
0
0
0
0
0
0
0
0
0
0
0
0
0
0
0
0
0
0
0
0
0
0
0
0
0
0
0
0
0
0
0
0
0
0
0
0
0
0
0
0
0
0
0
0
0
0
0
0
0
0
0
0
0
0
0
0
0
0
0
0
0
0
0
0
0
0
0
0
0
0
0
0
0
0
0
0
0
0
0
0
0
0
0
0
0
0
0
0
0
0
0
0
0
0
0
0
0
0
0
0
0
0
0
0
0
0
0
0
0
0
0
0
0
0
0
0
0
0
0
0
0
0
0
0
0
0
0
0
0
0
0
0
0
0
0
0
0
0
0
0
0
0
0
0
0
0
0
0
0
0
0
0
0
0
0
0
0
0
0
0
0
0
0
0
0
0
0
0
0
0
0
0
0
0
0
0
0
0
0
0
0
0
0
0
0
0
0
0
0
0
0
0
0
0
0
0
0
0
0
0
0
0
0
0
0
0
0
0
0
0
0
0
0
0
0
0
0
0
0
0
0
0
0
0
0
0
0
0
0
0
0
0
0
0
0
0
0
0
0
0
0
0
0
0
0
0
0
0
0
0
0
0
0
0
0
0
0
0
0
0
0
0
0
0
0
0
0
0
0
0
0
0
0
0
0
0
0
0
0
0
0
0
0
0
0
0
0
0
0
0
0
0
0
0
0
0
0
0
0
0
0
0
0
0
0
0
0
0
0
0
0
0
0
0
0
0
0
0
0
0
0
0
0
0
0
0
0
0
0
0
0
0
0
0
0
0
0
0
0
0
0
0
0
0
0
0
0
0
0
0
0
0
0
0
0
0
0
0
0
0
0
0
0
0
0
0
0
0
0
0
0
0
0
0
0
0
0
0
0
0
0
0
0
0
0
0
0
0
0
0
0
0
0
0
0
0
0
0
0
0
0
0
0
0
0
0
0
0
0
0
0
0
0
0
0
0
0
0
0
0
0
0
0
0
0
0
0
0
0
0
0
0
0
0
0
0
0
0
0
0
0
0
0
0
0
0
0
0
0
0
0
0
0
0
0
0
0
0
0
0
0
0
0
0
0
0
0
0
0
0
0
0
0
0
0
0
0
0
0
0
0
0
0
0
0
0
0
0
0
0
0
0
0
0
0
0
0
0
0
0
0
0
0
0
0
0
0
0
0
0
0
0
0
0
0
0
0
0
0
0
0
0
0
0
0
0
0
0
0
0
0
0
0
0
0
0
0
0
0
0
0
0
0
0
0
0
0
0
0
0
0
0
0
0
0
0
0
0
0
0
0
0
0
0
0
0
0
0
0
0
0
0
0
0
0
0
0
0
0
0
0
0
0
0
0
0
0
0
0
0
0
0
0
0
0
0
0
0
0
0
0
0
0
0
0
0
0
0
0
0
0
0
0
0
0
0
0
0
0
0
0
0
0
0
0
0
0
0
0
0
0
0
0
0
0
0
0
0
0
0
0
0
0
0
0
0
0
0
0
0
0
0
0
0
0
0
0
0
0
0
0
0
0
0
0
0
0
0
0
0
0
0
0
0
0
0
0
0
0
0
0
0
0
0
0
0
0
0
0
0
0
0
0
0
0
0
0
0
0
0
0
0
0
0
0
0
0
0
0
0
0
0
0
0
0
0
0
0
0
0
0
0
0
0
0
0
0
0
0
0
0
0
0
0
0
0
0
0
0
0
0
0
0
0
0
0
0
0
0
0
0
0
0
0
0
0
0
0
0
0
0
0
0
0
0
0
0
0
0
0
0
0
0
0
0
0
0
0
0
0
0
0
0
0
0
0
0
0
0
0
0
0
0
0
0
0
0
0
0
0
0
0
0
0
0
0
0
0
0
0
0
0
0
0
0
0
0
0
0
0
0
0
0
0
0
0
0
0
0
0
0
0
0
0
0
0
0
0
0
0
0
0
0
0
0
0
0
0
0
0
0
0
0
0
0
0
0
0
0
0
0
0
0
0
0
0
0
0
0
0
0
0
0
0
0
0
0
0
0
0
0
0
0
0
0
0
0
0
0
0
0
0
0
0
0
0
0
0
0
0
0
0
0
0
0
0
0
0
0
0
0
0
0
0
0
0
0
0
0
0
0
0
0
0
0
0
0
0
0
0
0
0
0
0
0
0
0
0
0
0
0
0
0
0
0
0
0
0
0
0
0
0
0
0
0
0
0
0
0
0
0
0
0
0
0
0
0
0
0
0
0
0
0
0
0
0
0
0
0
0
0
0
0
0
0
0
0
0
0
0
0
0
0
0
0
0
0
0
0
0
0
0
0
0
0
0
0
0
0
0
0
0
0
0
0
0
0
0
0
0
0
0
0
0
0
0
0
0
0
0
0
0
0
0
0
0
0
0
0
0
0
0
0
0
0
0
0
0
0
0
0
0
0
0
0
0
0
0
0
0
0
0
0
0
0
0
0
0
0
0
0
0
0
0
0
0
0
0
0
0
0
0
0
0
0
0
0
0
0
0
0
0
0
0
0
0
0
0
0
0
0
0
0
0
0
0
0
0
0
0
0
0
0
0
0
0
0
0
0
0
0
0
0
0
0
0
0
0
0
0
0
0
0
0
0
0
0
0
0
0
0
0
0
0
0
0
0
0
0
0
0
0
0
0
0
0
0
0
0
0
0
0
0
0
0
0
0
0
0
0
0
0
0
0
0
0
0
0
0
0
0
0
0
0
0
0
0
0
0
0
0
0
0
0
0
0
0
0
0
0
0
0
0
0
0
0
0
0
0
0
0
0
0
0
0
0
0
0
0
0
0
0
0
0
0
0
0
0
0
0
0
0
0
0
0
0
0
0
0
0
0
0
0
0
0
0
0
0
0
0
0
0
0
0
0
0
0
0
0
0
0
0
0
0
0
0
0
0
0
0
0
0
0
0
0
0
0
0
0
0
0
0
0
0
0
0
0
0
0
0
0
0
0
0
0
0
0
0
0
0
0
0
0
0
0
0
0
0
0
0
0
0
0
0
0
0
0
0
0
0
0
0
0
0
0
0
0
0
0
0
0
0
0
0
0
0
0
0
0
0
0
0
0
0
0
0
0
0
0
0
0
0
0
0
0
0
0
0
0
0
0
0
0
0
0
0
0
0
0
0
0
0
0
0
0
0
0
0
0
0
0
0
0
0
0
0
0
0
0
0
0
0
0
0
0
0
0
0
0
0
0
0
0
0
0
0
0
0
0
0
0
0
0
0
0
0
0
0
0
0
0
0
0
0
0
0
0
0
0
0
0
0
0
0
0
0
0
0
0
0
0
0
0
0
0
0
0
0
0
0
0
0
0
0
0
0
0
0
0
0
0
0
0
0
0
0
0
0
0
0
0
0
0
0
0
0
0
0
0
0
0
0
0
0
0
0
0
0
0
0
0
0
0
0
0
0
0
0
0
0
0
0
0
0
0
0
0
0
0
0
0
0
0
0
0
0
0
0
0
0
0
0
0
0
0
0
0
0
0
0
0
0
0
0
0
0
0
0
0
0
0
0
0
0
0
0
0
0
0
0
0
0
0
0
0
0
0
0
0
0
0
0
0
0
0
0
0
0
0
0
0
0
0
0
0
0
0
0
0
0
0
0
0
0
0
0
0
0
0
0
0
0
0
0
0
0
0
0
0
0
0
0
0
0
0
0
0
0
0
0
0
0
0
0
0
0
0
0
0
0
0
0
0
0
0
0
0
0
0
0
0
0
0
0
0
0
0
0
0
0
0
0
0
0
0
0
0
0
0
0
0
0
0
0
0
0
0
0
0
0
0
0
0
0
0
0
0
0
0
0
0
0
0
0
0
0
0
0
0
0
0
0
0
0
0
0
0
0
0
0
0
0
0
0
0
0
0
0
0
0
0
0
0
0
0
0
0
0
0
0
0
0
0
0
0
0
0
0
0
0
0
0
0
0
0
0
0
0
0
0
0
0
0
0
0
0
0
0
0
0
0
0
0
0
0
0
0
0
0
0
0
0
0
0
0
0
0
0
0
0
0
0
0
0
0
0
0
0
0
0
0
0
0
0
0
0
0
0
0
0
0
0
0
0
0
0
0
0
0
0
0
0
0
0
0
0
0
0
0
0
0
0
0
0
0
0
0
0
0
0
0
0
0
0
0
0
0
0
0
0
0
0
0
0
0
0
0
0
0
0
0
0
0
0
0
0
0
0
0
0
0
0
0
0
0
0
0
0
0
0
0
0
0
0
0
0
0
0
0
0
0
0
0
0
0
0
0
0
0
0
0
0
0
0
0
0
0
0
0
0
0
0
0
0
0
0
0
0
0
0
0
0
0
0
0
0
0
0
0
0
0
0
0
0
0
0
0
0
0
0
0
0
0
0
0
0
0
0
0
0
0
0
0
0
0
0
0
0
0
0
0
0
0
0
0
0
0
0
0
0
0
0
0
0
0
0
0
0
0
0
0
0
0
0
0
0
0
0
0
0
0
0
0
0
0
0
0
0
0
0
0
0
0
0
0
0
0
0
0
0
0
0
0
0
0
0
0
0
0
0
0
0
0
0
0
0
0
0
0
0
0
0
0
0
0
0
0
0
0
0
0
0
0
0
0
0
0
0
0
0
0
0
0
0
0
0
0
0
0
0
0
0
0
0
0
0
0
0
0
0
0
0
0
0
0
0
0
0
0
0
0
0
0
0
0
0
0
0
0
0
0
0
0
0
0
0
0
0
0
0
0
0
0
0
0
0
0
0
0
0
0
0
0
0
0
0
0
0
0
0
0
0
0
0
0
0
0
0
0
0
0
0
0
0
0
0
0
0
0
0
0
0
0
0
0
0
0
0
0
0
0
0
0
0
0
0
0
0
0
0
0
0
0
0
0
0
0
0
0
0
0
0
0
0
0
0
0
0
0
0
0
0
0
0
0
0
0
0
0
0
0
0
0
0
0
0
0
0
0
0
0
0
0
0
0
0
0
0
0
0
0
0
0
0
0
0
0
0
0
0
0
0
0
0
0
0
0
0
0
0
0
0
0
0
0
0
0
0
0
0
0
0
0
0
0
0
0
0
0
0
0
0
0
0
0
0
0
0
0
0
0
0
0
0
0
0
0
0
0
0
0
0
0
0
0
0
0
0
0
0
0
0
0
0
0
0
0
0
0
0
0
0
0
0
0
0
0
0
0
0
0
0
0
0
0
0
0
0
0
0
0
0
0
0
0
0
0
0
0
0
0
0
0
0
0
0
0
0
0
0
0
0
0
0
0
0
0
0
0
0
0
0
0
0
0
0
0
0
0
0
0
0
0
0
0
0
0
0
0
0
0
0
0
0
0
0
0
0
0
0
0
0
0
0
0
0
0
0
0
0
0
0
0
0
0
0
0
0
0
0
0
0
0
0
0
0
0
0
0
0
0
0
0
0
0
0
0
0
0
0
0
0
0
0
0
0
0
0
0
0
0
0
0
0
0
0
0
0
0
0
0
0
0
0
0
0
0
0
0
0
0
0
0
0
0
0
0
0
0
0
0
0
0
0
0
0
0
0
0
0
0
0
0
0
0
0
0
0
0
0
0
0
0
0
0
0
0
0
0
0
0
0
0
0
0
0
0
0
0
0
0
0
0
0
0
0
0
0
0
0
0
0
0
0
0
0
0
0
0
0
0
0
0
0
0
0
0
0
0
0
0
0
0
0
0
0
0
0
0
0
0
0
0
0
0
0
0
0
0
0
0
0
0
0
0
0
0
0
0
0
0
0
0
0
0
0
0
0
0
0
0
0
0
0
0
0
