0.227214
0.194114
0.168753
0.151048
0.140185
0.134476
0.131709
0.12994
0.128078
0.126242
0.125846
0.129398
0.140015
0.160746
0.193837
0.241162
0.304608
0.381446
0.461014
0.529939
0.576147
0.591938
0.575865
0.53292
0.473062
0.408641
0.351509
0.308279
0.279512
0.263769
0.259619
0.265623
0.278787
0.295923
0.314254
0.331813
0.347561
0.361209
0.372768
0.382375
0.390228
0.396628
0.402304
0.408631
0.417482
0.430653
0.449067
0.472123
0.497502
0.521707
0.540966
0.5523
0.554326
0.547501
0.53377
0.515781
0.496011
0.476117
0.456718
0.437845
0.419396
0.401528
0.384954
0.370984
0.361274
0.357684
0.362671
0.376488
0.393538
0.405639
0.404702
0.385737
0.348959
0.300134
0.249149
0.207495
0.199843
0.310509
0.596029
0.953969
1.27169
1.43532
1.36969
1.08141
0.669514
0.290767
0.0949367
0.0936487
0.138731
0.192329
0.247992
0.303795
0.360154
0.419264
0.486059
0.566998
0.659335
0.748166
0.813612
0.838991
0.817692
0.755847
0.670131
0.582038
0.51104
0.464833
0.439245
0.428872
0.430297
0.441411
0.460353
0.485324
0.514582
0.546448
0.578841
0.609151
0.634635
0.652806
0.661876
0.661127
0.651071
0.633386
0.610677
0.586166
0.563243
0.54518
0.534927
0.534828
0.546326
0.569748
0.604215
0.64775
0.697558
0.750469
0.803468
0.854129
0.901323
0.945606
0.989338
1.03644
1.09174
1.16005
1.25546
1.39054
1.54393
1.68121
1.76869
1.78747
1.7402
1.64744
1.53602
1.42682
1.32791
1.23583
1.14805
1.0641
0.984349
0.909482
0.84067
0.77829
0.721616
0.669152
0.619082
0.569764
0.520023
0.469041
0.415954
0.359379
0.2976
0.228265
0.148227
0.051617
-0.0613351
-0.187609
-0.322284
-0.465277
0
1.08152
2.84807
5.20288
7.81345
10.1156
11.4673
11.4201
9.96042
7.55749
4.96138
2.86212
1.61107
1.14994
1.15148
1.14086
1.12278
1.1026
1.07929
1.05077
1.01417
0.965866
0.902582
0.818376
0.709107
0.587874
0.474167
0.387568
0.341427
0.339348
0.375621
0.438676
0.515485
0.594927
0.67066
0.740631
0.804095
0.860736
0.910671
0.954547
0.993589
1.02963
1.06511
1.10293
1.14623
1.1981
1.26117
1.33726
1.42716
1.53043
1.6455
1.76994
1.90079
2.03498
2.16967
2.3024
2.43104
2.5533
2.66596
2.76661
2.85339
2.92547
2.98377
3.03141
3.07355
3.11661
3.16709
3.23155
3.32147
3.44002
3.56662
3.67358
3.73544
3.73651
3.67385
3.55509
3.39333
3.20237
2.99514
2.78242
2.56876
2.35593
2.14468
1.93536
1.7284
1.52456
1.32534
1.13308
0.950975
0.78331
0.634865
0.509455
0.409959
0.338046
0.294027
0.276864
0.284258
0.312789
0.358817
0.418653
0.485948
0.551789
0.60698
0.64376
0.657087
0.645636
0.612172
0.563059
0.506931
0.452798
0.407877
0.374966
0.353153
0.340652
0.33597
0.336689
0.340336
0.345029
0.349745
0.354295
0.359001
0.364263
0.370208
0.376255
0.381561
0.385812
0.39008
0.39724
0.411614
0.438971
0.492683
0.573685
0.662016
0.729763
0.753948
0.727695
0.663383
0.586022
0.520692
0.481311
0.460466
0.448242
0.440731
0.435661
0.433244
0.4358
0.446394
0.467112
0.496994
0.533695
0.572619
0.608573
0.637355
0.656986
0.66813
0.673563
0.676866
0.680832
0.686145
0.690703
0.689615
0.676766
0.646899
0.597648
0.530912
0.452585
0.373188
0.305272
0.259973
0.24422
0.259061
0.299582
0.356346
0.417813
0.472902
0.515424
0.543027
0.553657
0.547215
0.525366
0.491291
0.449439
0.405028
0.363628
0.33054
0.309774
0.305868
0.324528
0.366739
0.420578
0.469756
0.499488
0.501496
0.477032
0.43662
0.396369
0.372088
0.37339
0.400519
0.443417
0.483892
0.503233
0.489112
0.44033
0.367681
0.290487
0.229897
0.201587
0.203822
0.226237
0.262378
0.308026
0.359156
0.412476
0.465498
0.51614
0.562163
0.601279
0.63101
0.649079
0.653952
0.645261
0.623911
0.591854
0.551677
0.506307
0.458749
0.411693
0.368187
0.332074
0.30725
0.297284
0.304803
0.330835
0.374507
0.433296
0.503835
0.582992
0.668793
0.7602
0.857218
0.962415
1.07754
1.19615
1.30493
1.38831
1.43354
1.43451
1.39258
1.31448
1.20884
1.08325
0.945421
0.801311
0.655368
0.511744
0.376442
0.255806
0.155824
0.0808378
0.0325018
0.00941119
0.00752983
0.021244
0.044614
0.072227
0.099986
0.125091
0.144974
0.157372
0.160308
0.152189
0.132128
0.100262
0.0579331
-0.0322891
0
0.57844
1.96599
4.15689
6.76267
9.08162
10.3606
10.1338
8.45721
5.89984
3.28191
1.30755
0.295657
0.138202
0.464557
0.574021
0.649202
0.667717
0.625115
0.533582
0.414658
0.290514
0.178096
0.0815856
0.00375307
-0.0508032
-0.0784646
-0.0776325
-0.0500039
-0.00127912
0.0593435
0.120986
0.173683
0.211558
0.23488
0.245111
0.246219
0.243562
0.242642
0.247476
0.260452
0.282848
0.314818
0.355728
0.403895
0.456279
0.509428
0.561067
0.611131
0.662375
0.720262
0.791987
0.884744
1.00367
1.14992
1.31848
1.50343
1.69483
1.88245
2.05822
2.21799
2.36195
2.49373
2.61854
2.74037
2.86104
2.97666
3.07884
3.15794
3.20594
3.21782
3.19128
3.12575
3.02187
2.88446
2.72181
2.54039
2.34648
2.14679
1.94725
1.75141
1.56084
1.37648
1.1988
1.02833
0.866159
0.713962
0.573735
0.447963
0.339636
0.247929
0.165149
0.0809773
-0.0145262
-0.127607
-0.258379
-0.40012
-0.540498
-0.657683
-0.640907
-0.35414
0.0620166
0.428851
0.60649
0.546981
0.303579
-0.0108051
-0.288213
-0.466417
-0.553332
-0.594481
-0.611167
-0.609822
-0.592715
-0.562159
-0.521672
-0.475514
-0.428051
-0.383095
-0.343312
-0.3102
-0.284031
-0.264055
-0.248863
-0.236809
-0.226435
-0.216841
-0.207935
-0.200579
-0.19653
-0.197973
-0.206993
-0.22497
-0.252128
-0.287342
-0.328278
-0.371805
-0.414555
-0.45352
-0.48669
-0.512746
-0.530709
-0.540143
-0.540975
-0.533382
-0.517719
-0.49448
-0.464245
-0.427617
-0.385164
-0.337408
-0.284932
-0.228309
-0.168326
-0.106585
-0.045639
0.0110755
0.0590656
0.0930897
0.109147
0.104711
0.0795451
0.0363099
-0.0192926
-0.07903
-0.133354
-0.173126
-0.192063
-0.190197
-0.167924
-0.125394
-0.0678648
-0.00698497
0.046357
0.0851281
0.108081
0.119737
0.128232
0.141968
0.168465
0.201288
0.223967
0.218116
0.173297
0.0934523
-0.00349652
-0.0928284
-0.15342
-0.180826
-0.188184
-0.182071
-0.168232
-0.151803
-0.136138
-0.122399
-0.109837
-0.0964785
-0.0798805
-0.0584132
-0.030543
0.00473698
0.0482097
0.100881
0.159938
0.217552
0.264655
0.29392
0.30258
0.293658
0.274816
0.2552
0.241693
0.235685
0.233876
0.231942
0.225266
0.210723
0.18785
0.159093
0.129202
0.104096
0.0888653
0.0860791
0.0968247
0.124568
0.173461
0.23979
0.30673
0.354512
0.36648
0.335309
0.266766
0.17893
0.0966133
0.042912
0.0275784
0.0391919
0.0682874
0.109175
0.15513
0.199869
0.23869
0.269213
0.29165
0.308628
0.32468
0.34549
0.376576
0.422456
0.486602
0.570933
0.675429
0.798231
0.936262
1.08585
1.24394
1.40861
1.57771
1.74523
1.89175
1.98082
1.97203
1.84403
1.61247
1.33096
1.07291
0.902195
0.813634
0.765984
0.749332
0.759917
0.793272
0.846929
0.92265
1.01144
1.09237
1.14052
1.13361
1.06006
0.923789
0.742851
0.542412
0.345726
0.163425
0
0.106311
0.746579
1.96686
3.82241
6.1657
8.59884
10.5385
11.4178
10.9496
9.29469
7.00435
4.75678
3.04664
2.0199
1.52651
1.30892
1.20436
1.10537
1.01015
0.920536
0.838441
0.765847
0.704683
0.656599
0.623272
0.607395
0.610646
0.626516
0.642772
0.646455
0.627852
0.583861
0.519363
0.445942
0.378375
0.330143
0.304874
0.29836
0.309856
0.337128
0.373745
0.412498
0.448175
0.479114
0.507749
0.539934
0.583184
0.644324
0.727333
0.829801
0.945973
1.07057
1.1986
1.32536
1.44702
1.56105
1.66631
1.76264
1.8511
1.93402
2.01446
2.09594
2.18214
2.27631
2.38075
2.49617
2.62161
2.75467
2.8905
3.02372
3.14941
3.26369
3.36065
3.42875
3.46029
3.44448
3.36891
3.22526
3.01544
2.75456
2.4684
2.18631
1.93263
1.70501
1.49994
1.31725
1.15475
1.00917
0.876366
0.752554
0.634959
0.52226
0.414885
0.314712
0.224556
0.147493
0.0860855
0.0417803
0.0146078
0.00321975
0.00518724
0.0174199
0.0364074
0.0588196
0.0816906
0.101995
0.117168
0.125445
0.126102
0.11962
0.107616
0.0924813
0.07682
0.0628922
0.0523092
0.045874
0.0443473
0.0486422
0.0599854
0.0797294
0.108857
0.147388
0.193844
0.245578
0.299023
0.350357
0.396249
0.434185
0.462622
0.480654
0.48807
0.485453
0.474071
0.456101
0.434801
0.414407
0.399625
0.394753
0.403342
0.430058
0.472543
0.520603
0.562297
0.588205
0.594749
0.585197
0.567972
0.553029
0.547841
0.553122
0.565853
0.580999
0.592583
0.595642
0.587661
0.569032
0.542505
0.511948
0.481011
0.452094
0.425964
0.402804
0.382938
0.366955
0.355902
0.351259
0.354683
0.367305
0.389582
0.421257
0.46169
0.50868
0.557206
0.601615
0.636707
0.658713
0.665849
0.658347
0.638062
0.607933
0.571694
0.533583
0.497408
0.467202
0.446773
0.439159
0.446005
0.467079
0.500229
0.541362
0.5852
0.625871
0.65733
0.675142
0.676926
0.662707
0.634932
0.598084
0.557837
0.519849
0.488477
0.467188
0.455036
0.448704
0.444437
0.440023
0.435855
0.434539
0.439228
0.452515
0.472594
0.493399
0.507304
0.508547
0.495883
0.47313
0.447375
0.425814
0.412806
0.406795
0.405102
0.405285
0.405464
0.40531
0.406483
0.412361
0.427115
0.454392
0.495559
0.549265
0.613082
0.681422
0.747865
0.806792
0.854791
0.891469
0.919458
0.943739
0.970535
1.00575
1.05322
1.11566
1.19624
1.30021
1.43367
1.59879
1.78525
1.96636
2.11295
2.19997
2.20822
2.12818
1.96605
1.74731
1.51252
1.30412
1.14318
1.01798
0.914446
0.827157
0.755732
0.700169
0.662043
0.643972
0.644515
0.656328
0.669777
0.674796
0.663121
0.630053
0.575203
0.502079
0.416795
0.32655
0.237202
0.15211
0.0727797
0
0.107981
0.611502
1.71078
3.56124
6.01549
8.56355
10.4897
11.1844
10.4377
8.54242
6.14465
3.93657
2.36545
1.5103
1.15967
1.01048
0.933278
0.865246
0.807678
0.764849
0.736944
0.719218
0.704693
0.686164
0.65819
0.61852
0.568644
0.513447
0.460146
0.416187
0.386505
0.374858
0.383323
0.411353
0.455848
0.511711
0.57282
0.63321
0.688402
0.735853
0.775127
0.807739
0.836613
0.865362
0.89754
0.935936
0.982591
1.03893
1.10581
1.18362
1.27247
1.37234
1.48308
1.60441
1.73584
1.87643
2.02465
2.17825
2.3343
2.48937
2.64
2.78315
2.91682
3.04051
3.15533
3.26386
3.36956
3.478
3.5993
3.74078
3.88814
4.01188
4.07928
4.06483
3.95747
3.76399
3.50838
3.22574
2.9506
2.69735
2.46009
2.23203
2.01049
1.79428
1.58304
1.37748
1.17923
0.990369
0.812841
0.647967
0.496092
0.357238
0.234421
0.133599
0.0589951
0.0176951
0.0168904
0.0600069
0.143602
0.261736
0.392272
0.510583
0.596386
0.638704
0.637635
0.603004
0.550896
0.499183
0.462421
0.445908
0.447781
0.463476
0.488611
0.518897
0.549886
0.577851
0.600407
0.6168
0.627831
0.635462
0.642227
0.650614
0.662534
0.679051
0.700479
0.726723
0.757562
0.792785
0.832275
0.876006
0.923752
0.974305
1.02355
1.06414
1.08759
1.0867
1.05809
1.00375
0.93092
0.850321
0.773504
0.710407
0.66358
0.632912
0.619786
0.624316
0.645368
0.680536
0.726163
0.777498
0.82904
0.875
0.909876
0.92869
0.926872
0.901888
0.853101
0.782189
0.693495
0.594073
0.49322
0.401929
0.330994
0.295911
0.334338
0.456889
0.615656
0.751514
0.817896
0.797283
0.705021
0.580138
0.467973
0.403075
0.386647
0.398339
0.427023
0.468625
0.520624
0.579106
0.637739
0.689296
0.72715
0.746414
0.74502
0.724292
0.688698
0.644818
0.599829
0.559917
0.528466
0.50645
0.493919
0.491031
0.497691
0.51345
0.537487
0.568554
0.604926
0.644389
0.684506
0.722726
0.756578
0.783774
0.802345
0.811039
0.809505
0.79835
0.779223
0.754755
0.728275
0.703303
0.683006
0.670441
0.666683
0.668526
0.670898
0.668889
0.65978
0.644225
0.626052
0.610761
0.603389
0.606619
0.618648
0.637036
0.659327
0.683356
0.707893
0.732789
0.75866
0.786328
0.816277
0.848308
0.882012
0.916926
0.952731
0.98939
1.02713
1.06625
1.1069
1.14889
1.19161
1.23411
1.27531
1.31417
1.34981
1.38165
1.40932
1.43266
1.45146
1.46543
1.47396
1.47609
1.47036
1.45486
1.42734
1.38544
1.32705
1.25083
1.15667
1.04606
0.922188
0.78978
0.654556
0.522648
0.400105
0.291626
0.20029
0.127485
0.0730124
0.0352075
0.0117719
0
-0.00537453
-0.0156135
-0.0389433
-0.080985
-0.143048
-0.221414
-0.308002
-0.296385
0.281751
1.57805
3.61093
6.15028
8.70755
10.6467
11.4027
10.7248
8.81773
6.28171
3.86105
2.12615
1.26023
1.06076
1.11134
0.933638
0.764125
0.607814
0.470408
0.359341
0.282872
0.239694
0.22056
0.214105
0.210429
0.203969
0.194551
0.186329
0.185194
0.195882
0.218221
0.249024
0.285444
0.324886
0.364896
0.40361
0.439957
0.473635
0.504927
0.534658
0.564067
0.594797
0.62889
0.668671
0.716489
0.774307
0.843271
0.923385
1.01328
1.11106
1.21438
1.3211
1.42971
1.53944
1.65016
1.76194
1.87475
1.98818
2.10148
2.214
2.32586
2.43819
2.55307
2.67284
2.79928
2.93416
3.0737
3.20659
3.31851
3.39625
3.43111
3.42027
3.36584
3.27225
3.14353
2.98183
2.7928
2.58333
2.35902
2.12466
1.88583
1.64918
1.42159
1.20919
1.01654
0.846012
0.697742
0.569961
0.459668
0.363437
0.278176
0.201675
0.132846
0.0716543
0.0187597
-0.0249239
-0.0586897
-0.0823602
-0.0963744
-0.101818
-0.10025
-0.0933265
-0.0825111
-0.0689249
-0.0533598
-0.0364342
-0.0187639
-0.00128345
0.0147248
0.0280221
0.0379129
0.0446923
0.0497607
0.0552345
0.0631037
0.0750775
0.0892795
0.0997384
0.0988474
0.0807323
0.0444387
-0.00456934
-0.0554122
-0.0950527
-0.112627
-0.0905223
-0.0386804
0.0199141
0.0595231
0.0631673
0.0299206
-0.025292
-0.0789475
-0.109343
-0.105287
-0.0790766
-0.0413496
0.00246325
0.047819
0.0905397
0.126896
0.15354
0.168464
0.170754
0.160723
0.140077
0.11191
0.0804121
0.0502356
0.0256595
0.00976553
0.00328989
0.00581446
0.015507
0.0296498
0.0453311
0.0598884
0.0715159
0.0794993
0.0841907
0.086763
0.0888056
0.091847
0.0969099
0.10421
0.113073
0.122132
0.129698
0.13428
0.135055
0.132158
0.126677
0.120331
0.114895
0.111518
0.110425
0.109672
0.10537
0.0929032
0.0684493
0.0304347
-0.0195714
-0.0768532
-0.134467
-0.184822
-0.222509
-0.244713
-0.247734
-0.232057
-0.204884
-0.176022
-0.154412
-0.145533
-0.149844
-0.162763
-0.176234
-0.181404
-0.171565
-0.146178
-0.108819
-0.0641111
-0.0183848
0.0217416
0.0507129
0.0650219
0.0636802
0.0481831
0.0220788
-0.00971005
-0.0416852
-0.0688617
-0.08734
-0.0948342
-0.0905844
-0.0745867
-0.0474404
-0.0104688
0.0345667
0.0857706
0.141472
0.200473
0.262178
0.326584
0.394093
0.4652
0.540083
0.618307
0.698549
0.777791
0.851702
0.915648
0.965659
0.999232
1.0157
1.01603
1.0021
0.975782
0.938163
0.890008
0.83145
0.762201
0.682177
0.592529
0.495975
0.3967
0.299834
0.210569
0.134452
0.0770136
0.0393882
0.0169551
0.00291309
-0.0092625
-0.0236101
-0.040515
-0.0569518
-0.0679552
-0.0686875
-0.057318
-0.0355894
0
0.249804
0.723641
1.4981
2.68923
4.31159
6.15772
7.76411
8.55364
8.12457
6.51453
4.24153
2.06229
0.594856
0.0489004
0.217424
0.546713
0.814238
0.986358
1.04691
1.00363
0.879682
0.704214
0.508834
0.328315
0.184992
0.0824081
0.0160584
-0.0146042
-0.00907903
0.0300159
0.0974613
0.186225
0.288277
0.395553
0.498564
0.587182
0.653086
0.690965
0.700003
0.684873
0.65547
0.625121
0.607658
0.614301
0.646243
0.698948
0.768705
0.852789
0.9481
1.05132
1.15943
1.27021
1.38254
1.4966
1.61378
1.73645
1.86748
2.00968
2.16518
2.33498
2.51905
2.7175
2.92842
3.14444
3.34973
3.52534
3.65535
3.72843
3.73978
3.69247
3.59738
3.47063
3.32895
3.18485
3.0435
2.90472
2.7676
2.63173
2.49712
2.36402
2.23264
2.10284
1.97371
1.84335
1.70897
1.56731
1.41541
1.25152
1.07595
0.890123
0.700021
0.519844
0.366308
0.25384
0.190686
0.176731
0.203668
0.25739
0.321774
0.382572
0.431918
0.468589
0.492059
0.503897
0.506978
0.504891
0.501072
0.498166
0.498137
0.502064
0.510139
0.52144
0.533946
0.545002
0.552049
0.55333
0.548495
0.538908
0.527573
0.518616
0.516454
0.524794
0.545355
0.578181
0.621764
0.672049
0.723746
0.771229
0.809401
0.834748
0.845685
0.842629
0.827786
0.804729
0.777871
0.751913
0.731346
0.719688
0.718769
0.729464
0.752396
0.787159
0.832321
0.885828
0.944643
1.0055
1.06531
1.12149
1.17204
1.21497
1.24825
1.27085
1.28209
1.28203
1.27188
1.25435
1.2334
1.21362
1.19924
1.19293
1.19507
1.2046
1.21833
1.23197
1.24119
1.24243
1.23357
1.21411
1.18508
1.1486
1.10732
1.06384
1.02009
0.977057
0.934854
0.8929
0.850169
0.805464
0.757763
0.706537
0.651989
0.59517
0.537949
0.482837
0.432712
0.390447
0.358548
0.338839
0.332401
0.339331
0.358627
0.388274
0.425026
0.463418
0.49593
0.515361
0.516342
0.4967
0.458276
0.406739
0.350295
0.297604
0.25563
0.22626
0.207625
0.198503
0.197207
0.201757
0.210223
0.22122
0.233824
0.247509
0.261952
0.276801
0.291455
0.304777
0.315191
0.321105
0.321506
0.316609
0.308267
0.299911
0.295933
0.300631
0.31704
0.344954
0.384206
0.43121
0.479352
0.521671
0.552625
0.569516
0.573243
0.568279
0.561897
0.562858
0.579755
0.61757
0.677516
0.758661
0.864102
0.993744
1.13436
1.26748
1.37587
1.44716
1.47585
1.46303
1.4146
1.33896
1.24523
1.14358
1.04126
0.942902
0.851727
0.769647
0.697013
0.633118
0.576467
0.524774
0.475394
0.425835
0.374265
0.3197
0.262241
0.204427
0.150314
0.103825
0.0673393
0.0408455
0.0220629
0.00748749
-0.00611467
-0.0204813
-0.0354139
0
0.597989
1.99439
4.1903
6.84212
9.30802
10.8737
11.067
9.88505
7.79116
5.47832
3.54692
2.28225
1.63105
1.34308
1.17691
1.06473
0.965376
0.885123
0.82834
0.796958
0.790427
0.806144
0.840129
0.8877
0.943554
1.00308
1.06047
1.10794
1.13809
1.14523
1.12758
1.08901
1.03925
0.991986
0.961376
0.95809
0.981556
1.0268
1.09029
1.16698
1.25161
1.33927
1.42695
1.51284
1.59606
1.67656
1.75496
1.83246
1.91067
1.99146
2.07686
2.16885
2.2693
2.37979
2.50155
2.63525
2.78065
2.93646
3.10188
3.27038
3.42946
3.56619
3.67131
3.7424
3.78501
3.81103
3.83505
3.87012
3.92901
4.02028
4.13087
4.23144
4.2911
4.28515
4.20039
4.03835
3.81573
3.56072
3.30512
3.07093
2.85835
2.66065
2.47425
2.29741
2.1281
1.96473
1.80653
1.65387
1.50822
1.37188
1.24765
1.13838
1.04676
0.975671
0.926596
0.899831
0.894423
0.911981
0.951958
1.00457
1.05728
1.09834
1.11979
1.11959
1.10196
1.07573
1.05127
1.03705
1.0346
1.04457
1.06032
1.07158
1.06834
1.04447
1.00013
0.941761
0.879968
0.825956
0.788213
0.766417
0.757707
0.76143
0.776498
0.801844
0.836376
0.879698
0.931746
0.98884
1.04367
1.08801
1.11516
1.12214
1.11061
1.0859
1.0546
1.02165
0.98838
0.953165
0.91303
0.865189
0.808562
0.744017
0.676889
0.614999
0.56682
0.539499
0.537388
0.561407
0.609249
0.67614
0.755626
0.840403
0.924675
1.00385
1.074
1.13214
1.17646
1.20634
1.22226
1.2257
1.21883
1.20423
1.18442
1.16156
1.13711
1.11177
1.08561
1.05832
1.02963
0.999583
0.968745
0.938269
0.909774
0.885137
0.866171
0.854646
0.852078
0.859646
0.878128
0.907833
0.948554
1.00028
1.06262
1.13312
1.20481
1.26765
1.31157
1.32905
1.3174
1.27994
1.22525
1.16474
1.10911
1.06483
1.03112
1.00422
0.981234
0.95927
0.93588
0.909595
0.880157
0.848515
0.816669
0.787302
0.763281
0.747679
0.743266
0.752342
0.778305
0.8242
0.886576
0.952365
1.00691
1.03854
1.0424
1.02183
0.986415
0.947511
0.91331
0.885771
0.861561
0.837926
0.814181
0.79324
0.780991
0.784504
0.814895
0.864263
0.914419
0.945928
0.948622
0.927146
0.898416
0.882986
0.895767
0.934881
0.989215
1.0539
1.12586
1.20215
1.28011
1.35726
1.43093
1.49841
1.55695
1.60395
1.63717
1.65484
1.65561
1.6385
1.60289
1.54919
1.4782
1.39186
1.29346
1.18742
1.07875
0.972408
0.87223
0.780854
0.699796
0.629331
0.568621
0.515865
0.468705
0.423706
0.376326
0.321801
0.255784
0.172613
0.0698999
-0.0507786
-0.185074
-0.328697
0
0.823921
2.21297
4.15119
6.43991
8.64276
10.1693
10.5092
9.50072
7.4525
5.01556
2.8732
1.44189
0.757878
0.583888
0.628114
0.669468
0.708723
0.743929
0.773347
0.795603
0.809951
0.816453
0.816033
0.810323
0.801368
0.791228
0.781637
0.773721
0.768095
0.765138
0.76518
0.768704
0.776433
0.789246
0.807969
0.833109
0.86466
0.902158
0.944688
0.99131
1.04142
1.095
1.15269
1.21553
1.28468
1.36102
1.44473
1.53532
1.63185
1.73306
1.83755
1.94399
2.05139
2.15917
2.26733
2.37654
2.48817
2.60428
2.72747
2.8606
3.00645
3.16723
3.34702
3.55629
3.80937
4.09829
4.37784
4.60198
4.73581
4.76287
4.6886
4.53739
4.34229
4.13165
3.91971
3.70729
3.4934
3.27819
3.06223
2.84635
2.63181
2.42023
2.21362
2.01429
1.82474
1.64759
1.48539
1.34034
1.21417
1.10872
1.02467
0.959616
0.909971
0.871746
0.841349
0.816271
0.795405
0.778937
0.767854
0.763194
0.764963
0.772433
0.784366
0.798051
0.809095
0.812985
0.806455
0.788695
0.762033
0.731779
0.70513
0.689383
0.689995
0.707971
0.742009
0.787975
0.840134
0.892675
0.941274
0.983352
1.01805
1.04568
1.06686
1.08204
1.09104
1.09322
1.08794
1.07525
1.0564
1.03406
1.01209
0.994851
0.985993
0.987983
1.00358
1.03238
1.07148
1.11643
1.16192
1.20177
1.2288
1.23776
1.22546
1.19171
1.14036
1.07956
1.02096
0.977373
0.95956
0.970421
1.01895
1.09604
1.18019
1.24864
1.28505
1.28405
1.25147
1.2003
1.14432
1.09247
1.0453
0.999772
0.953613
0.905462
0.855444
0.806623
0.764104
0.73362
0.719964
0.725855
0.751586
0.795441
0.854572
0.925834
1.0052
1.09045
1.17884
1.26284
1.33062
1.36912
1.36855
1.32741
1.25516
1.17058
1.09589
1.04854
1.04099
1.0612
1.0844
1.08589
1.05362
0.994286
0.930385
0.889565
0.891559
0.929587
0.986827
1.05249
1.11482
1.16403
1.1944
1.20479
1.19765
1.17722
1.14778
1.11327
1.0764
1.03906
1.00348
0.972808
0.950995
0.94248
0.951509
0.98822
1.07263
1.2122
1.37462
1.51881
1.60891
1.62581
1.57203
1.46915
1.34919
1.24356
1.17111
1.12569
1.0974
1.08098
1.07523
1.07987
1.09561
1.12362
1.16455
1.22062
1.28842
1.36126
1.43198
1.49548
1.55039
1.599
1.64568
1.69445
1.74722
1.80249
1.85811
1.91158
1.96014
2.00078
2.02849
2.03707
2.02075
1.97395
1.89304
1.77836
1.63561
1.47581
1.31365
1.16448
1.03872
0.942694
0.878026
0.841314
0.825459
0.821494
0.820325
0.814396
0.797756
0.7659
0.715706
0.645304
0.54575
0.418957
0.272716
0.11805
0
0.587727
1.98965
4.14252
6.70549
9.13374
10.8333
11.3613
10.6043
8.84741
6.66599
4.67347
3.25888
2.46945
2.09337
1.86009
1.67548
1.50424
1.34598
1.20544
1.08598
0.989494
0.916516
0.866436
0.837789
0.828247
0.83486
0.855478
0.887024
0.923752
0.959288
0.988198
1.00716
1.01581
1.017
1.01614
1.01994
1.03476
1.0638
1.10698
1.16289
1.22933
1.30321
1.38082
1.45843
1.53282
1.60188
1.66493
1.72293
1.77835
1.83485
1.8968
1.96859
2.05401
2.15562
2.27444
2.40997
2.56063
2.72407
2.89763
3.0787
3.26478
3.45366
3.64166
3.81994
3.97666
4.09908
4.17779
4.21054
4.20344
4.16859
4.11897
4.06296
4.00179
3.93283
3.85176
3.75324
3.63291
3.48817
3.31835
3.12465
2.91002
2.68089
2.44296
2.20223
1.96544
1.73949
1.53075
1.34521
1.18631
1.05493
0.949999
0.869105
0.809343
0.767947
0.742643
0.731686
0.733634
0.747044
0.770166
0.80076
0.836224
0.8733
0.907722
0.9353
0.95253
0.957116
0.948244
0.92647
0.893238
0.850206
0.798651
0.739928
0.674931
0.604003
0.527259
0.446664
0.369473
0.306566
0.26911
0.264922
0.295474
0.354928
0.431835
0.512961
0.587669
0.652535
0.710064
0.761987
0.809056
0.851159
0.885626
0.90688
0.90891
0.888306
0.846348
0.789231
0.726395
0.667766
0.620186
0.58409
0.558172
0.541718
0.532789
0.528845
0.527319
0.52611
0.523953
0.520617
0.516892
0.514357
0.514974
0.520492
0.532162
0.550737
0.575007
0.601695
0.626516
0.645068
0.653726
0.650294
0.634259
0.606638
0.569552
0.525818
0.478436
0.430116
0.383324
0.340805
0.305516
0.279979
0.266082
0.264591
0.27481
0.294585
0.320718
0.34966
0.378227
0.404299
0.426836
0.44502
0.457987
0.465121
0.466115
0.461032
0.450598
0.436356
0.420542
0.405658
0.393899
0.386666
0.38437
0.386612
0.392632
0.40179
0.413865
0.429013
0.44742
0.46882
0.492122
0.514866
0.53316
0.542808
0.54046
0.524824
0.497511
0.463253
0.429313
0.40413
0.399086
0.435327
0.514322
0.607706
0.677467
0.692342
0.641677
0.54063
0.424289
0.332949
0.295148
0.302464
0.332698
0.374866
0.424175
0.476933
0.531161
0.586641
0.644452
0.706176
0.773044
0.845174
0.921672
0.999924
1.07604
1.14523
1.20193
1.24097
1.25908
1.25473
1.22839
1.18255
1.12139
1.04999
0.973323
0.895262
0.817868
0.741411
0.665426
0.589177
0.512064
0.43394
0.35523
0.276869
0.200083
0.126153
0.0562808
-0.00856967
-0.0676495
-0.120536
-0.166953
-0.206535
-0.238472
-0.262043
-0.27635
-0.280543
-0.274139
-0.257333
-0.231206
-0.197751
-0.159699
0
0.53256
1.67734
3.55346
5.98971
8.46452
10.246
10.7154
9.69731
7.56996
5.06507
2.8897
1.42295
0.658937
0.369756
0.369632
0.366586
0.357623
0.337166
0.300355
0.243784
0.161482
0.0425514
-0.109305
-0.265217
-0.392378
-0.464053
-0.467561
-0.407283
-0.301642
-0.175637
-0.0525372
0.0532959
0.142191
0.217376
0.277365
0.322373
0.353797
0.374477
0.388804
0.402416
0.421378
0.450971
0.494471
0.55179
0.619589
0.694092
0.771767
0.849703
0.926437
1.00238
1.07975
1.16196
1.25275
1.35522
1.47086
1.59923
1.73797
1.88338
2.03107
2.17671
2.31666
2.44842
2.57081
2.68375
2.78794
2.8845
2.97428
3.05698
3.12982
3.18641
3.21904
3.21837
3.17609
3.08763
2.95414
2.7826
2.58418
2.37138
2.15565
1.9434
1.73739
1.53983
1.3519
1.17396
1.0057
0.846289
0.694712
0.550065
0.411948
0.281013
0.160427
0.0548835
-0.0310862
-0.0934219
-0.130027
-0.141777
-0.132587
-0.108455
-0.0758554
-0.0401427
-0.00458956
0.0295256
0.0617568
0.091436
0.117067
0.136028
0.144953
0.14089
0.12255
0.0911201
0.0503408
0.00585227
-0.0359214
-0.0694336
-0.0918019
-0.101973
-0.0993123
-0.0841768
-0.0577316
-0.0222537
0.0188512
0.0612578
0.0998943
0.129419
0.145323
0.14441
0.125367
0.089186
0.0392527
-0.0190001
-0.0788847
-0.133527
-0.177158
-0.206832
-0.221327
-0.21949
-0.201035
-0.16622
-0.111315
-0.0280883
0.0845804
0.204896
0.302545
0.347645
0.322194
0.227993
0.0869555
-0.0662668
-0.195677
-0.277855
-0.321429
-0.338442
-0.331816
-0.303632
-0.257398
-0.196688
-0.126628
-0.055441
0.00792837
0.0557635
0.0828375
0.0872385
0.070466
0.0367548
-0.0081202
-0.0581205
-0.107876
-0.153725
-0.19338
-0.224827
-0.245847
-0.254362
-0.248391
-0.224651
-0.177167
-0.101947
-0.0124575
0.0689329
0.120232
0.1276
0.0907218
0.0229484
-0.0542008
-0.119512
-0.159116
-0.176931
-0.180783
-0.174068
-0.15807
-0.13396
-0.102601
-0.0647255
-0.0218547
0.02218
0.0613072
0.0892684
0.101579
0.0974356
0.0807848
0.0600261
0.0462555
0.0544948
0.115802
0.227122
0.34982
0.433959
0.441615
0.364873
0.230326
0.0882051
-0.00878928
-0.0274364
0.00477204
0.0821785
0.175873
0.25301
0.287429
0.268339
0.204227
0.119898
0.0468189
0.0105276
0.0181021
0.0532555
0.103361
0.164079
0.233711
0.312012
0.401003
0.508775
0.655696
0.868568
1.11706
1.34113
1.47812
1.4803
1.34005
1.10858
0.88629
0.778227
0.834121
0.968667
1.11947
1.21652
1.21248
1.10064
0.911884
0.696029
0.500479
0.354295
0.243403
0.154317
0.0823586
0.0270025
-0.012788
-0.0386961
-0.0527413
-0.0575686
-0.0559046
-0.0502333
-0.0425231
-0.0340815
-0.0255713
-0.0171631
-0.00875111
0
0.322681
1.03489
2.3015
4.15243
6.3618
8.442
9.80055
9.99933
8.97047
7.05482
4.83686
2.87986
1.51777
0.796328
0.552157
0.527974
0.503864
0.480767
0.459546
0.44073
0.424236
0.408872
0.392784
0.374225
0.352357
0.327862
0.303108
0.28173
0.267749
0.264478
0.272552
0.291253
0.318859
0.352152
0.386518
0.417361
0.441314
0.457064
0.465808
0.471268
0.479228
0.496689
0.530731
0.586434
0.665526
0.767476
0.890134
1.02943
1.17975
1.33382
1.48345
1.62127
1.742
1.84322
1.92568
1.99308
2.05145
2.10811
2.17052
2.24522
2.33682
2.44725
2.57586
2.72058
2.87908
3.04897
3.22746
3.41069
3.5924
3.76131
3.90253
3.99637
4.02032
3.95618
3.79954
3.56613
3.28978
3.01031
2.75734
2.52896
2.314
2.10844
1.91199
1.72513
1.54905
1.38554
1.23775
1.10758
0.991519
0.884085
0.77982
0.675524
0.571712
0.472545
0.384178
0.312202
0.260936
0.228685
0.208129
0.18934
0.163084
0.123825
0.071491
0.0115038
-0.0468759
-0.0933597
-0.120795
-0.128111
-0.118182
-0.0941072
-0.0607439
-0.0234655
0.0130643
0.0459093
0.0737602
0.0967157
0.115669
0.131494
0.144409
0.153825
0.158314
0.156185
0.146256
0.128584
0.104912
0.0787192
0.0548249
0.0385185
0.0340154
0.0445033
0.0755652
0.130463
0.203072
0.279059
0.342719
0.381108
0.387251
0.361524
0.311029
0.247247
0.182724
0.127375
0.0846458
0.0531399
0.0300981
0.0133129
0.000486207
-0.0104946
-0.0212257
-0.0326901
-0.0453575
-0.0593819
-0.0747725
-0.0914692
-0.109398
-0.128379
-0.148049
-0.167837
-0.187023
-0.204833
-0.220568
-0.233678
-0.243735
-0.250432
-0.253547
-0.252953
-0.248679
-0.241039
-0.230736
-0.219108
-0.208415
-0.201437
-0.200702
-0.207655
-0.221903
-0.240862
-0.260009
-0.273751
-0.276727
-0.265179
-0.238451
-0.197966
-0.147329
-0.0913505
-0.0348425
0.0186554
0.0670906
0.109837
0.147359
0.180577
0.210267
0.236789
0.259877
0.278856
0.29315
0.302767
0.308637
0.312622
0.317144
0.324512
0.336926
0.354977
0.373726
0.385448
0.382571
0.36103
0.322552
0.274817
0.229357
0.198064
0.188692
0.198385
0.229055
0.280233
0.34251
0.399456
0.435011
0.437449
0.402704
0.335947
0.250451
0.163653
0.0916937
0.0429381
0.0136143
-0.00184329
-0.00511917
0.00236055
0.0197899
0.0470325
0.085823
0.140394
0.208237
0.277684
0.334902
0.370587
0.38579
0.39311
0.411805
0.458741
0.539662
0.641285
0.748121
0.84236
0.910267
0.946682
0.955848
0.948434
0.9362
0.926612
0.919212
0.908609
0.886207
0.843576
0.775882
0.684079
0.575027
0.459476
0.348755
0.251216
0.167018
0.0964035
0.0381103
-0.00990518
-0.0495188
-0.0818583
-0.107205
-0.125279
-0.135851
-0.139353
-0.136178
-0.126848
-0.112072
-0.0926657
-0.0694645
0
0.435095
1.41056
3.07217
5.34746
7.85226
9.94002
10.9303
10.4288
8.55682
5.93231
3.38512
1.5686
0.69578
0.542488
0.642897
0.577602
0.510441
0.443376
0.378479
0.317777
0.262988
0.215031
0.17457
0.141738
0.115581
0.095006
0.0792758
0.0683378
0.0628141
0.0636225
0.0717913
0.0882168
0.110613
0.135444
0.159326
0.180644
0.200621
0.223307
0.25445
0.299705
0.362345
0.440453
0.531107
0.631418
0.737894
0.846651
0.953866
1.05608
1.1506
1.23584
1.31186
1.38055
1.44551
1.51179
1.58523
1.67158
1.77544
1.8992
2.04245
2.2014
2.37008
2.54201
2.7106
2.86932
3.01253
3.13665
3.23972
3.32039
3.37692
3.40831
3.4141
3.39355
3.34585
3.27035
3.1668
3.03563
2.87805
2.69637
2.49565
2.2823
2.06204
1.84104
1.62594
1.42318
1.23821
1.07501
0.93584
0.820378
0.726024
0.648854
0.584437
0.52857
0.47776
0.429407
0.381737
0.333621
0.284473
0.234218
0.183418
0.133467
0.0866911
0.0462085
0.0154759
-0.000553989
0.00674059
0.0418852
0.0934205
0.144235
0.177656
0.183768
0.163129
0.126256
0.0892112
0.0672677
0.0680582
0.0863019
0.11566
0.152545
0.193287
0.23505
0.276272
0.316545
0.356044
0.39477
0.431885
0.465546
0.493294
0.512883
0.52309
0.524144
0.517573
0.5056
0.490364
0.47343
0.455515
0.436728
0.417003
0.39643
0.375452
0.354893
0.335834
0.319414
0.306556
0.297959
0.294004
0.294712
0.299716
0.308259
0.319241
0.330838
0.340703
0.346713
0.347634
0.343695
0.336765
0.329979
0.326828
0.330467
0.343539
0.36333
0.384604
0.402172
0.413537
0.420254
0.427225
0.440257
0.463734
0.497058
0.533689
0.563938
0.57869
0.572768
0.546673
0.506302
0.461029
0.420914
0.392218
0.376173
0.372718
0.380196
0.392512
0.402735
0.405414
0.398597
0.384863
0.370976
0.366224
0.385972
0.460087
0.591749
0.740967
0.855883
0.893984
0.83761
0.699668
0.519187
0.348852
0.238202
0.197099
0.199328
0.22613
0.275927
0.341434
0.409217
0.466306
0.50277
0.513707
0.500074
0.468081
0.427286
0.387957
0.358456
0.34126
0.335091
0.338147
0.348696
0.364892
0.384914
0.407282
0.431023
0.455701
0.481346
0.508375
0.537478
0.569539
0.605569
0.646573
0.693341
0.746152
0.804476
0.867101
0.931261
0.992883
1.04762
1.09171
1.12261
1.13928
1.14197
1.13161
1.10918
1.07563
1.03201
0.978537
0.915353
0.843023
0.762677
0.675994
0.585061
0.492257
0.399981
0.310646
0.226661
0.150351
0.0836801
0.0280193
-0.0157919
-0.0480621
-0.0707931
-0.087334
-0.101419
-0.116389
-0.134544
-0.156817
-0.182882
-0.243153
0
0.844555
2.48118
4.83005
7.45272
9.64546
10.7104
10.2822
8.51973
6.03517
3.59403
1.76972
0.753476
0.398489
0.413046
0.459166
0.498412
0.532428
0.560181
0.581594
0.597345
0.608488
0.616033
0.620548
0.622196
0.620756
0.615907
0.607554
0.596044
0.582214
0.567284
0.552693
0.539986
0.530702
0.526622
0.529859
0.542503
0.56637
0.602511
0.650749
0.709434
0.775593
0.845476
0.915402
0.982713
1.04636
1.10711
1.16751
1.23129
1.30272
1.38559
1.48257
1.59493
1.72237
1.86298
2.01347
2.16958
2.32661
2.47995
2.62554
2.76021
2.88192
2.98973
3.08355
3.16451
3.23464
3.29649
3.35281
3.40617
3.45834
3.50985
3.55812
3.59632
3.61422
3.60036
3.5448
3.44151
3.28989
3.09492
2.86621
2.61655
2.36126
2.11072
1.87222
1.65246
1.45671
1.2886
1.14996
1.04081
0.959564
0.90322
0.867689
0.848037
0.838575
0.832858
0.82445
0.808128
0.780631
0.741308
0.691112
0.635507
0.585093
0.551361
0.543671
0.56667
0.618933
0.693256
0.778398
0.861668
0.932556
0.983146
1.00873
1.00794
0.982115
0.934419
0.868836
0.789377
0.699826
0.603647
0.503695
0.40218
0.30102
0.203261
0.127929
0.273332
0.731043
1.37341
1.982
2.29093
2.12721
1.52749
0.739022
0.0872722
-0.183514
-0.100879
0.00109177
0.104002
0.206123
0.3063
0.403689
0.497414
0.58609
0.668325
0.742688
0.807996
0.863561
0.909236
0.94525
0.971295
0.987311
0.993016
0.988028
0.972356
0.94692
0.913878
0.876627
0.839457
0.806966
0.78273
0.769364
0.768679
0.781059
0.80569
0.841199
0.883503
0.926885
0.966153
0.997909
1.02138
1.0385
1.05314
1.06979
1.0921
1.12143
1.15655
1.1954
1.23576
1.27537
1.31244
1.34605
1.37625
1.40392
1.43038
1.45689
1.48416
1.51177
1.53709
1.55552
1.56174
1.55153
1.52364
1.48106
1.43111
1.38421
1.35147
1.34168
1.35904
1.40403
1.46957
1.54202
1.60739
1.65552
1.68271
1.69188
1.69061
1.6879
1.6911
1.70246
1.72071
1.7441
1.77079
1.79872
1.82603
1.85128
1.87362
1.89284
1.90934
1.92411
1.93854
1.95428
1.97287
1.99541
2.02277
2.05475
2.08834
2.11937
2.14393
2.15986
2.16767
2.17048
2.17307
2.1804
2.19625
2.22088
2.25331
2.29282
2.33869
2.39016
2.44658
2.50739
2.57195
2.63945
2.70878
2.77859
2.84729
2.91308
2.9738
3.02665
3.0685
3.09604
3.10572
3.09416
3.05884
2.99885
2.91557
2.81308
2.69805
2.57912
2.46523
2.36389
2.2832
2.23237
2.20999
2.2075
2.21445
2.22248
2.2282
2.23382
2.24547
2.27006
2.31215
2.36897
2.43527
2.50659
2.57853
2.61335
2.75206
3.45087
4.97552
7.28773
9.94501
12.2096
13.3464
12.9623
11.1991
8.66814
185
461
747
1025
1306
1568
1843
2118
2393
2663
2930
3205
3470
2812
3016
3221
3420
3611
3222
3401
3579
3306
3453
3603
3556
3595
3713
0
0
0
0
0
0
0
0
0
0
0
0
0
0
0
0
0
0
0
0
0
0
0
0
0
0
0
0
0
0
0
0
0
0
0
0
0
0
0
0
0
0
0
0
0
0
0
0
0
0
0
0
0
0
0
0
0
0
0
0
0
0
0
0
0
0
0
0
0
0
0
0
0
0
0
0
0
0
0
0
0
0
0
0
0
0
0
0
0
0
0
0
0
0
0
0
0
0
0
0
0
0
0
0
0
0
0
0
0
0
0
0
0
0
0
0
0
0
0
0
0
0
0
0
0
0
0
0
0
0
0
0
0
0
0
0
0
0
0
0
0
0
0
0
0
0
0
0
0
0
0
0
0
0
0
0
0
0
0
0
0
0
0
0
0
0
0
0
0
0
0
0
0
0
0
0
0
0
0
0
0
0
0
0
0
0
0
0
0
0
0
0
0
0
0
0
0
0
0
0
0
0
0
0
0
0
0
0
0
0
0
0
0
0
0
0
0
0
0
0
0
0
0
0
0
0
0
0
0
0
0
0
0
0
0
0
0
0
0
0
0
0
0
0
0
0
0
0
0
0
0
0
0
0
0
0
0
0
0
0
0
0
0
0
0
0
0
0
0
0
0
0
0
0
0
0
0
0
0
0
0
0
0
0
0
0
0
0
0
0
0
0
0
0
0
0
0
0
0
0
0
0
0
0
0
0
0
0
0
0
0
0
0
0
0
0
0
0
0
0
0
0
0
0
0
0
0
0
0
0
0
0
0
0
0
0
0
0
0
0
0
0
0
0
0
0
0
0
0
0
0
0
0
0
0
0
0
0
0
0
0
0
0
0
0
0
0
0
0
0
0
0
0
0
0
0
0
0
0
0
0
0
0
0
0
0
0
0
0
0
0
0
0
0
0
0
0
0
0
0
0
0
0
0
0
0
0
0
0
0
0
0
0
0
0
0
0
0
0
0
0
0
0
0
0
0
0
0
0
0
0
0
0
0
0
0
0
0
0
0
0
0
0
0
0
0
0
0
0
0
0
0
0
0
0
0
0
0
0
0
0
0
0
0
0
0
0
0
0
0
0
0
0
0
0
0
0
0
0
0
0
0
0
0
0
0
0
0
0
0
0
0
0
0
0
0
0
0
0
0
0
0
0
0
0
0
0
0
0
0
0
0
0
0
0
0
0
0
0
0
0
0
0
0
0
0
0
0
0
0
0
0
0
0
0
0
0
0
0
0
0
0
0
0
0
0
0
0
0
0
0
0
0
0
0
0
0
0
0
0
0
0
0
0
0
0
0
0
0
0
0
0
0
0
0
0
0
0
0
0
0
0
0
0
0
0
0
0
0
0
0
0
0
0
0
0
0
0
0
0
0
0
0
0
0
0
0
0
0
0
0
0
0
0
0
0
0
0
0
0
0
0
0
0
0
0
0
0
0
0
0
0
0
0
0
0
0
0
0
0
0
0
0
0
0
0
0
0
0
0
0
0
0
0
0
0
0
0
0
0
0
0
0
0
0
0
0
0
0
0
0
0
0
0
0
0
0
0
0
0
0
0
0
0
0
0
0
0
0
0
0
0
0
0
0
0
0
0
0
0
0
0
0
0
0
0
0
0
0
0
0
0
0
0
0
0
0
0
0
0
0
0
0
0
0
0
0
0
0
0
0
0
0
0
0
0
0
0
0
0
0
0
0
0
0
0
0
0
0
0
0
0
0
0
0
0
0
0
0
0
0
0
0
0
0
0
0
0
0
0
0
0
0
0
0
0
0
0
0
0
0
0
0
0
0
0
0
0
0
0
0
0
0
0
0
0
0
0
0
0
0
0
0
0
0
0
0
0
0
0
0
0
0
0
0
0
0
0
0
0
0
0
0
0
0
0
0
0
0
0
0
0
0
0
0
0
0
0
0
0
0
0
0
0
0
0
0
0
0
0
0
0
0
0
0
0
0
0
0
0
0
0
0
0
0
0
0
0
0
0
0
0
0
0
0
0
0
0
0
0
0
0
0
0
0
0
0
0
0
0
0
0
0
0
0
0
0
0
0
0
0
0
0
0
0
0
0
0
0
0
0
0
0
0
0
0
0
0
0
0
0
0
0
0
0
0
0
0
0
0
0
0
0
0
0
0
0
0
0
0
0
0
0
0
0
0
0
0
0
0
0
0
0
0
0
0
0
0
0
0
0
0
0
0
0
0
0
0
0
0
0
0
0
0
0
0
0
0
0
0
0
0
0
0
0
0
0
0
0
0
0
0
0
0
0
0
0
0
0
0
0
0
0
0
0
0
0
0
0
0
0
0
0
0
0
0
0
0
0
0
0
0
0
0
0
0
0
0
0
0
0
0
0
0
0
0
0
0
0
0
0
0
0
0
0
0
0
0
0
0
0
0
0
0
0
0
0
0
0
0
0
0
0
0
0
0
0
0
0
0
0
0
0
0
0
0
0
0
0
0
0
0
0
0
0
0
0
0
0
0
0
0
0
0
0
0
0
0
0
0
0
0
0
0
0
0
0
0
0
0
0
0
0
0
0
0
0
0
0
0
0
0
0
0
0
0
0
0
0
0
0
0
0
0
0
0
0
0
0
0
0
0
0
0
0
0
0
0
0
0
0
0
0
0
0
0
0
0
0
0
0
0
0
0
0
0
0
0
0
0
0
0
0
0
0
0
0
0
0
0
0
0
0
0
0
0
0
0
0
0
0
0
0
0
0
0
0
0
0
0
0
0
0
0
0
0
0
0
0
0
0
0
0
0
0
0
0
0
0
0
0
0
0
0
0
0
0
0
0
0
0
0
0
0
0
0
0
0
0
0
0
0
0
0
0
0
0
0
0
0
0
0
0
0
0
0
0
0
0
0
0
0
0
0
0
0
0
0
0
0
0
0
0
0
0
0
0
0
0
0
0
0
0
0
0
0
0
0
0
0
0
0
0
0
0
0
0
0
0
0
0
0
0
0
0
0
0
0
0
0
0
0
0
0
0
0
0
0
0
0
0
0
0
0
0
0
0
0
0
0
0
0
0
0
0
0
0
0
0
0
0
0
0
0
0
0
0
0
0
0
0
0
0
0
0
0
0
0
0
0
0
0
0
0
0
0
0
0
0
0
0
0
0
0
0
0
0
0
0
0
0
0
0
0
0
0
0
0
0
0
0
0
0
0
0
0
0
0
0
0
0
0
0
0
0
0
0
0
0
0
0
0
0
0
0
0
0
0
0
0
0
0
0
0
0
0
0
0
0
0
0
0
0
0
0
0
0
0
0
0
0
0
0
0
0
0
0
0
0
0
0
0
0
0
0
0
0
0
0
0
0
0
0
0
0
0
0
0
0
0
0
0
0
0
0
0
0
0
0
0
0
0
0
0
0
0
0
0
0
0
0
0
0
0
0
0
0
0
0
0
0
0
0
0
0
0
0
0
0
0
0
0
0
0
0
0
0
0
0
0
0
0
0
0
0
0
0
0
0
0
0
0
0
0
0
0
0
0
0
0
0
0
0
0
0
0
0
0
0
0
0
0
0
0
0
0
0
0
0
0
0
0
0
0
0
0
0
0
0
0
0
0
0
0
0
0
0
0
0
0
0
0
0
0
0
0
0
0
0
0
0
0
0
0
0
0
0
0
0
0
0
0
0
0
0
0
0
0
0
0
0
0
0
0
0
0
0
0
0
0
0
0
0
0
0
0
0
0
0
0
0
0
0
0
0
0
0
0
0
0
0
0
0
0
0
0
0
0
0
0
0
0
0
0
0
0
0
0
0
0
0
0
0
0
0
0
0
0
0
0
0
0
0
0
0
0
0
0
0
0
0
0
0
0
0
0
0
0
0
0
0
0
0
0
0
0
0
0
0
0
0
0
0
0
0
0
0
0
0
0
0
0
0
0
0
0
0
0
0
0
0
0
0
0
0
0
0
0
0
0
0
0
0
0
0
0
0
0
0
0
0
0
0
0
0
0
0
0
0
0
0
0
0
0
0
0
0
0
0
0
0
0
0
0
0
0
0
0
0
0
0
0
0
0
0
0
0
0
0
0
0
0
0
0
0
0
0
0
0
0
0
0
0
0
0
0
0
0
0
0
0
0
0
0
0
0
0
0
0
0
0
0
0
0
0
0
0
0
0
0
0
0
0
0
0
0
0
0
0
0
0
0
0
0
0
0
0
0
0
0
0
0
0
0
0
0
0
0
0
0
0
0
0
0
0
0
0
0
0
0
0
0
0
0
0
0
0
0
0
0
0
0
0
0
0
0
0
0
0
0
0
0
0
0
0
0
0
0
0
0
0
0
0
0
0
0
0
0
0
0
0
0
0
0
0
0
0
0
0
0
0
0
0
0
0
0
0
0
0
0
0
0
0
0
0
0
0
0
0
0
0
0
0
0
0
0
0
0
0
0
0
0
0
0
0
0
0
0
0
0
0
0
0
0
0
0
0
0
0
0
0
0
0
0
0
0
0
0
0
0
0
0
0
0
0
0
0
0
0
0
0
0
0
0
0
0
0
0
0
0
0
0
0
0
0
0
0
0
0
0
0
0
0
0
0
0
0
0
0
0
0
0
0
0
0
0
0
0
0
0
0
0
0
0
0
0
0
0
0
0
0
0
0
0
0
0
0
0
0
0
0
0
0
0
0
0
0
0
0
0
0
0
0
0
0
0
0
0
0
0
0
0
0
0
0
0
0
0
0
0
0
0
0
0
0
0
0
0
0
0
0
0
0
0
0
0
0
0
0
0
0
0
0
0
0
0
0
0
0
0
0
0
0
0
0
0
0
0
0
0
0
0
0
0
0
0
0
0
0
0
0
0
0
0
0
0
0
0
0
0
0
0
0
0
0
0
0
0
0
0
0
0
0
0
0
0
0
0
0
0
0
0
0
0
0
0
0
0
0
0
0
0
0
0
0
0
0
0
0
0
0
0
0
0
0
0
0
0
0
0
0
0
0
0
0
0
0
0
0
0
0
0
0
0
0
0
0
0
0
0
0
0
0
0
0
0
0
0
0
0
0
0
0
0
0
0
0
0
0
0
0
0
0
0
0
0
0
0
0
0
0
0
0
0
0
0
0
0
0
0
0
0
0
0
0
0
0
0
0
0
0
0
0
0
0
0
0
0
0
0
0
0
0
0
0
0
0
0
0
0
0
0
0
0
0
0
0
0
0
0
0
0
0
0
0
0
0
0
0
0
0
0
0
0
0
0
0
0
0
0
0
0
0
0
0
0
0
0
0
0
0
0
0
0
0
0
0
0
0
0
0
0
0
0
0
0
0
0
0
0
0
0
0
0
0
0
0
0
0
0
0
0
0
0
0
0
0
0
0
0
0
0
0
0
0
0
0
0
0
0
0
0
0
0
0
0
0
0
0
0
0
0
0
0
0
0
0
0
0
0
0
0
0
0
0
0
0
0
0
0
0
0
0
0
0
0
0
0
0
0
0
0
0
0
0
0
0
0
0
0
0
0
0
0
0
0
0
0
0
0
0
0
0
0
0
0
0
0
0
0
0
0
0
0
0
0
0
0
0
0
0
0
0
0
0
0
0
0
0
0
0
0
0
0
0
0
0
0
0
0
0
0
0
0
0
0
0
0
0
0
0
0
0
0
0
0
0
0
0
0
0
0
0
0
0
0
0
0
0
0
0
0
0
0
0
0
0
0
0
0
0
0
0
0
0
0
0
0
0
0
0
0
0
0
0
0
0
0
0
0
0
0
0
0
0
0
0
0
0
0
0
0
0
0
0
0
0
0
0
0
0
0
0
0
0
0
0
0
0
0
0
0
0
0
0
0
0
0
0
0
0
0
0
0
0
0
0
0
0
0
0
0
0
0
0
0
0
0
0
0
0
0
0
0
0
0
0
0
0
0
0
0
0
0
0
0
0
0
0
0
0
0
0
0
0
0
0
0
0
0
0
0
0
0
0
0
0
0
0
0
0
0
0
0
0
0
0
0
0
0
0
0
0
0
0
0
0
0
0
0
0
0
0
0
0
0
0
0
0
0
0
0
0
0
0
0
0
0
0
0
0
0
0
0
0
0
0
0
0
0
0
0
0
0
0
0
0
0
0
0
0
0
0
0
0
0
0
0
0
0
0
0
0
0
0
0
0
0
0
0
0
0
0
0
0
0
0
0
0
0
0
0
0
0
0
0
0
0
0
0
0
0
0
0
0
0
0
0
0
0
0
0
0
0
0
0
0
0
0
0
0
0
0
0
0
0
0
0
0
0
0
0
0
0
0
0
0
0
0
0
0
0
0
0
0
0
0
0
0
0
0
0
0
0
0
0
0
0
0
0
0
0
0
0
0
0
0
0
0
0
0
0
0
0
0
0
0
0
0
0
0
0
0
0
0
0
0
0
0
0
0
0
0
0
0
0
0
0
0
0
0
0
0
0
0
0
0
0
0
0
0
0
0
0
0
0
0
0
0
0
0
0
0
0
0
0
0
0
0
0
0
0
0
0
0
0
0
0
0
0
0
0
0
0
0
0
0
0
0
0
0
0
0
0
0
0
0
0
0
0
0
0
0
0
0
0
0
0
0
0
0
0
0
0
0
0
0
0
0
0
0
0
0
0
0
0
0
0
0
0
0
0
0
0
0
0
0
0
0
0
0
0
0
0
0
0
0
0
0
0
0
0
0
0
0
0
0
0
0
0
0
0
0
0
0
0
0
0
0
0
0
0
0
0
0
0
0
0
0
0
0
0
0
0
0
0
0
0
0
0
0
0
0
0
0
0
0
0
0
0
0
0
0
0
0
0
0
0
0
0
0
0
0
0
0
0
0
0
0
0
0
0
0
0
0
0
0
0
0
0
0
0
0
0
0
0
0
0
0
0
0
0
0
0
0
0
0
0
0
0
0
0
0
0
0
0
0
0
0
0
0
0
0
0
0
0
0
0
0
0
0
0
0
0
0
0
0
0
0
0
0
0
0
0
0
0
0
0
0
0
0
0
0
0
0
0
0
0
0
0
0
0
0
0
0
0
0
0
0
0
0
0
0
0
0
0
0
0
0
0
0
0
0
0
0
0
0
0
0
0
0
0
0
0
0
0
0
0
0
0
0
0
0
0
0
0
0
0
0
0
0
0
0
0
0
0
0
0
0
0
0
0
0
0
0
0
0
0
0
0
0
0
0
0
0
0
0
0
0
0
0
0
0
0
0
0
0
0
0
0
0
0
0
0
0
0
0
0
0
0
0
0
0
0
0
0
0
0
0
0
0
0
0
0
0
0
0
0
0
0
0
0
0
0
0
0
0
0
0
0
0
0
0
0
0
0
0
0
0
0
0
0
0
0
0
0
0
0
0
0
0
0
0
0
0
0
0
0
0
0
0
0
0
0
0
0
0
0
0
0
0
0
0
0
0
0
0
0
0
0
0
0
0
0
0
0
0
0
0
0
0
0
0
0
0
0
0
0
0
0
0
0
0
0
0
0
0
0
0
0
0
0
0
0
0
0
0
0
0
0
0
0
0
0
0
0
0
0
0
0
0
0
0
0
0
0
0
0
0
0
0
0
0
0
0
0
0
0
0
0
0
0
0
0
0
0
0
0
0
0
0
0
0
0
0
0
0
0
0
0
0
0
0
0
0
0
0
0
0
0
0
0
0
0
0
0
0
0
0
0
0
0
0
0
0
0
0
0
0
0
0
0
0
0
0
0
0
0
0
0
0
0
0
0
0
0
0
0
0
0
0
0
0
0
0
0
0
0
0
0
0
0
0
0
0
0
0
0
0
0
0
0
0
0
0
0
0
0
0
0
0
0
0
0
0
0
0
0
0
0
0
0
0
0
0
0
0
0
0
0
0
0
0
0
0
0
0
0
0
0
0
0
0
0
0
0
0
0
0
0
0
0
0
0
0
0
0
0
0
0
0
0
0
0
0
0
0
0
0
0
0
0
0
0
0
0
0
0
0
0
0
0
0
0
0
0
0
0
0
0
0
0
0
0
0
0
0
0
0
0
0
0
0
0
0
0
0
0
0
0
0
0
0
0
0
0
0
0
0
0
0
0
0
0
0
0
0
0
0
0
0
0
0
0
0
0
0
0
0
0
0
0
0
0
0
0
0
0
0
0
0
0
0
0
0
0
0
0
0
0
0
0
0
0
0
0
0
0
0
0
0
0
0
0
0
0
0
0
0
0
0
0
0
0
0
0
0
0
0
0
0
0
0
0
0
0
0
0
0
0
0
0
0
0
0
0
0
0
0
0
0
0
0
0
0
0
0
0
0
0
0
0
0
0
0
0
0
0
0
0
0
0
0
0
0
0
0
0
0
0
0
0
0
0
0
0
0
0
0
0
0
0
0
0
0
0
0
0
0
0
0
0
0
0
0
0
0
0
0
0
0
0
0
0
0
0
0
0
0
0
0
0
0
0
0
0
0
0
0
0
0
0
0
0
0
0
0
0
0
0
0
0
0
0
0
0
