2.01547
5.46629
9.85282
14.1422
17.1518
18.0621
16.7614
13.8214
10.1569
6.61254
3.71184
1.64229
0.380126
-0.190521
-0.0432595
0.0928463
0.217509
0.322289
0.400878
0.450678
0.473489
0.4751
0.463917
0.449057
0.438297
0.435895
0.443256
0.460104
0.484938
0.515394
0.54889
0.583247
0.617177
0.650557
0.684503
0.721254
0.763906
0.816001
0.881092
0.962191
1.06125
1.17873
1.31343
1.46259
1.62236
1.78833
1.95631
2.12281
2.28534
2.44226
2.59254
2.73499
2.86885
2.99362
3.10918
3.21608
3.3155
3.40857
3.49528
3.57461
3.64334
3.69589
3.72584
3.72783
3.69901
3.63951
3.55189
3.43994
3.30848
3.1618
3.00226
2.83091
2.64857
2.45646
2.25651
2.05176
1.84665
1.64662
1.45746
1.28462
1.13266
1.00416
0.899213
0.816324
0.753148
0.707357
0.677235
0.661848
0.660766
0.673468
0.699232
0.736104
0.779833
0.824613
0.864364
0.89402
0.910647
0.914154
0.907381
0.89551
0.884846
0.881193
0.890212
0.915087
0.946245
0.968514
0.967413
0.935794
0.877667
0.807134
0.742811
0.700473
0.686055
0.690543
0.708633
0.735602
0.767154
0.800201
0.83294
0.864464
0.894312
0.922353
0.948778
0.97448
1.00131
1.03206
1.07012
1.11892
1.1809
1.25673
1.34779
1.45617
1.58192
1.71437
1.83241
1.9121
1.93279
1.88367
1.7682
1.60431
1.42002
1.24546
1.10074
0.984474
0.891033
0.814132
0.74252
0.663945
0.56845
0.449361
0.304768
0.144098
-0.0194325
-0.173575
-0.310001
-0.425522
-0.524143
-0.613469
-0.674184
0
2.02518
5.59456
10.1979
14.6897
17.7537
18.5057
16.8746
13.5553
9.61244
6.0058
3.29285
1.59299
0.727537
0.402436
0.403064
0.403004
0.402035
0.399554
0.395139
0.388729
0.380759
0.37226
0.364827
0.360413
0.36109
0.368814
0.385278
0.411867
0.449709
0.499739
0.562689
0.638883
0.728107
0.829397
0.940856
1.05962
1.18203
1.30403
1.42172
1.53196
1.63281
1.72375
1.80577
1.8813
1.95398
2.02848
2.11017
2.20486
2.31839
2.4561
2.62235
2.81976
3.05135
3.33284
3.68326
4.07585
4.4462
4.73185
4.89108
4.91377
4.82101
4.65456
4.46094
4.2759
4.11035
3.95544
3.80302
3.64823
3.48783
3.31964
3.14296
2.95878
2.76985
2.58039
2.39568
2.22155
2.06378
1.92745
1.81632
1.7325
1.67637
1.64631
1.63865
1.64795
1.66704
1.68764
1.7022
1.70531
1.69467
1.67151
1.64049
1.60875
1.5844
1.57459
1.58315
1.61083
1.6571
1.71599
1.78025
1.84375
1.90318
1.9587
2.01311
2.06998
2.1318
2.19806
2.26355
2.32074
2.36278
2.38625
2.39238
2.38633
2.37497
2.36437
2.35728
2.35343
2.35154
2.34947
2.34457
2.33435
2.31707
2.29228
2.26089
2.22589
2.19432
2.17573
2.17969
2.21341
2.27979
2.3766
2.49725
2.63273
2.77425
2.9154
3.05376
3.18887
3.32092
3.44998
3.57429
3.68766
3.77968
3.83768
3.85083
3.81413
3.73045
3.61014
3.46832
3.32113
3.18147
3.05434
2.94092
2.84222
2.75884
2.69051
2.63629
2.5948
2.56438
2.54315
2.52901
2.51946
2.5116
2.50153
2.46751
2.17979
1.58208
0.776957
-0.0327362
0
1.55401
4.9382
9.75393
14.8866
18.904
20.6748
19.8567
16.9709
13.0552
9.14884
5.92382
3.6112
2.14695
1.35188
1.17338
1.15258
1.14217
1.1419
1.15095
1.16801
1.1914
1.21884
1.24776
1.27597
1.302
1.32528
1.34613
1.36539
1.38397
1.40247
1.421
1.43946
1.45818
1.47863
1.50365
1.53717
1.58327
1.64505
1.72365
1.81657
1.92048
2.03238
2.14936
2.2692
2.39067
2.51349
2.63802
2.76481
2.89422
3.02613
3.1599
3.29442
3.42833
3.56036
3.68959
3.81554
3.93806
4.0563
4.1677
4.26735
4.34799
4.40124
4.42067
4.40462
4.35704
4.28576
4.19888
4.10121
3.99408
3.87684
3.74757
3.60361
3.44366
3.26838
3.08044
2.88424
2.68525
2.48918
2.30147
2.12692
1.96976
1.83343
1.72039
1.63188
1.56795
1.52746
1.50802
1.50608
1.51723
1.53667
1.55981
1.58278
1.60292
1.61874
1.6298
1.63625
1.63848
1.63664
1.63046
1.61912
1.60167
1.57742
1.54646
1.51005
1.47082
1.43252
1.39946
1.3757
1.3648
1.36985
1.39056
1.42081
1.45283
1.47968
1.49753
1.50668
1.51095
1.51561
1.52457
1.53887
1.55215
1.55311
1.52935
1.47215
1.3799
1.25923
1.12351
0.989782
0.87419
0.78547
0.732199
0.719096
0.746507
0.810213
0.9019
1.01173
1.12511
1.22908
1.31542
1.38245
1.43475
1.48086
1.52965
1.58699
1.65245
1.72202
1.79051
1.85166
1.8992
1.92824
1.93582
1.92121
1.8858
1.83289
1.76719
1.69418
1.6194
1.54769
1.48217
1.42414
1.37364
1.3295
1.2895
1.25074
1.20998
1.16393
1.1092
1.041
0.94523
0.766567
0.442683
-0.00996895
-0.536413
-0.777978
0
2.30367
6.15585
10.8741
15.2159
17.8743
18.0742
15.9152
12.2565
8.24091
4.77974
2.29442
0.781227
0.0372467
-0.0528294
0.0109467
0.0757072
0.135817
0.187436
0.229213
0.262407
0.290424
0.317872
0.349369
0.388164
0.435466
0.491724
0.554593
0.619597
0.682572
0.741357
0.79687
0.853161
0.916347
0.992768
1.08693
1.19887
1.32428
1.45826
1.59427
1.72391
1.84002
1.93851
2.01937
2.08684
2.14858
2.2142
2.29341
2.39435
2.51976
2.66874
2.83964
3.0288
3.23103
3.43875
3.63914
3.81907
3.96766
4.07832
4.14971
4.1852
4.19128
4.17529
4.14352
4.10165
4.0523
3.9958
3.93138
3.85742
3.77151
3.67074
3.55259
3.41458
3.25521
3.07478
2.87596
2.66385
2.44578
2.23051
2.02724
1.84475
1.69027
1.56864
1.48189
1.42928
1.40958
1.41887
1.44863
1.48712
1.52286
1.54616
1.55034
1.53253
1.49395
1.43962
1.37748
1.31709
1.26744
1.23485
1.22218
1.23006
1.25636
1.29652
1.34414
1.39296
1.43821
1.47762
1.51154
1.54254
1.57442
1.61111
1.65516
1.70756
1.76847
1.83647
1.90717
1.97217
2.02158
2.04629
2.04029
2.00259
1.93813
1.85711
1.77293
1.69901
1.64434
1.61023
1.59496
1.59699
1.6133
1.64058
1.67621
1.71886
1.76911
1.82887
1.90074
1.98702
2.08883
2.20517
2.33309
2.46828
2.60505
2.73692
2.85829
2.96527
3.056
3.13029
3.1885
3.22798
3.24648
3.24052
3.20549
3.1377
3.03658
2.90601
2.75417
2.592
2.43092
2.27915
2.14031
2.01719
1.91113
1.82187
1.74776
1.6858
1.63178
1.58014
1.52376
1.45447
1.36303
1.21924
0.986082
0.673255
0.313206
0
0.865104
3.47613
7.72948
12.7016
16.9608
19.2142
18.9097
16.4304
12.7854
9.03709
5.84622
3.37716
1.51788
0.163122
-0.438391
-0.561415
-0.353364
0.114109
0.66779
1.12674
1.35469
1.43336
1.4648
1.47605
1.47417
1.4669
1.46178
1.46518
1.48103
1.51055
1.5529
1.60603
1.6672
1.73331
1.80161
1.87018
1.93841
2.00708
2.07816
2.15439
2.23857
2.33289
2.43837
2.55449
2.67926
2.80961
2.94191
3.07252
3.19838
3.31727
3.42795
3.53031
3.62533
3.71491
3.80157
3.88802
3.9767
4.06979
4.16681
4.25989
4.33603
4.38141
4.38628
4.34831
4.27266
4.16873
4.04514
3.90592
3.75286
3.58686
3.40741
3.21406
3.00821
2.79298
2.57265
2.35187
2.13484
1.92534
1.72687
1.54414
1.38134
1.24218
1.12965
1.04528
0.988481
0.956358
0.944078
0.945711
0.955312
0.967774
0.979934
0.990402
0.999407
1.00833
1.01904
1.03318
1.05166
1.07426
1.09965
1.12594
1.15084
1.17207
1.18798
1.19784
1.20192
1.20131
1.19762
1.19242
1.18678
1.18091
1.17408
1.16491
1.15215
1.13538
1.11548
1.09461
1.07572
1.06174
1.05471
1.05474
1.06087
1.07156
1.0846
1.09737
1.10737
1.11259
1.11168
1.10414
1.09031
1.07139
1.04944
1.02731
1.00867
0.997731
0.998417
1.01368
1.04481
1.09104
1.1497
1.21688
1.28846
1.3612
1.43341
1.505
1.57704
1.65114
1.72873
1.81035
1.89551
1.98259
2.06899
2.15148
2.22671
2.29171
2.3441
2.38212
2.40448
2.40997
2.39698
2.36441
2.31153
2.23853
2.14706
2.04051
1.92388
1.80299
1.6835
1.56964
1.46372
1.36547
1.27241
1.18055
1.0853
0.982377
0.867772
0.737223
0.583747
0.400636
0.194171
-0.0267674
-0.295426
0
1.5071
4.61226
9.06683
13.8727
17.6203
19.1259
17.9966
14.7785
10.6255
6.72727
3.83871
2.12716
1.32175
0.994538
0.881406
0.809194
0.751641
0.715516
0.705229
0.711564
0.720624
0.718776
0.697827
0.658179
0.608469
0.561804
0.530326
0.520698
0.527338
0.545557
0.571579
0.602312
0.63638
0.674339
0.718093
0.769815
0.830409
0.899821
0.976533
1.05596
1.1318
1.19911
1.25666
1.30846
1.36373
1.43515
1.53539
1.67312
1.84891
2.05154
2.26885
2.48707
2.69244
2.87392
3.02509
3.14475
3.23622
3.30567
3.35999
3.40514
3.44448
3.47814
3.50375
3.51702
3.51288
3.48662
3.43485
3.35617
3.25138
3.12326
2.97606
2.81516
2.64567
2.47147
2.29518
2.11856
1.94286
1.76927
1.5994
1.43557
1.28069
1.13807
1.01096
0.902244
0.815426
0.752616
0.713713
0.697433
0.701359
0.721999
0.754949
0.795215
0.837676
0.877583
0.911252
0.93638
0.951025
0.953626
0.943022
0.91854
0.88011
0.828622
0.766047
0.695479
0.6236
0.559937
0.514617
0.496546
0.511643
0.561588
0.643346
0.749526
0.872254
0.996315
1.10522
1.1861
1.23246
1.24545
1.23327
1.20849
1.18423
1.17044
1.16965
1.17878
1.19465
1.21427
1.23455
1.25296
1.26798
1.27934
1.2879
1.29525
1.30331
1.31377
1.32811
1.34699
1.37072
1.39978
1.43524
1.4788
1.53246
1.59779
1.67518
1.76321
1.85874
1.95831
2.05821
2.15517
2.2466
2.33066
2.40612
2.47219
2.5282
2.57339
2.60683
2.62737
2.63371
2.62474
2.59974
2.55873
2.50271
2.43383
2.35524
2.2708
2.18452
2.10009
2.02034
1.94696
1.8807
1.82089
1.76561
1.71193
1.65575
1.5866
1.44167
1.15085
0.709868
0.0852982
0
1.37139
4.57391
9.21305
14.1449
17.9184
19.4137
18.3226
15.2147
11.1867
7.33602
4.36346
2.46859
1.48765
1.10687
1.06769
1.06887
1.08508
1.12307
1.18777
1.28149
1.40452
1.55679
1.73244
1.91879
2.0951
2.23802
2.3272
2.34698
2.28933
2.15799
1.97145
1.76182
1.56763
1.42236
1.33108
1.27744
1.25351
1.25397
1.27356
1.30888
1.35919
1.42612
1.51259
1.62126
1.75168
1.90102
2.06634
2.24387
2.42948
2.61948
2.81176
3.00607
3.20367
3.4064
3.61541
3.83007
4.04748
4.2611
4.46216
4.64137
4.79053
4.90387
4.97858
5.01471
5.01473
4.98281
4.92539
4.8486
4.75818
4.65944
4.5566
4.45213
4.34641
4.2379
4.12375
4.00108
3.86834
3.7265
3.57942
3.43343
3.29609
3.1746
3.07354
2.99573
2.94143
2.90869
2.894
2.89338
2.90289
2.91753
2.93308
2.94656
2.95655
2.96328
2.96824
2.97355
2.98101
2.99121
3.003
3.01403
3.02065
3.0177
2.99943
2.9601
2.89479
2.80027
2.67584
2.52402
2.35072
2.16492
1.97786
1.80108
1.6453
1.52593
1.46976
1.49857
1.58377
1.67965
1.74081
1.73778
1.66685
1.55061
1.42856
1.34144
1.31511
1.33313
1.37471
1.42801
1.47992
1.51877
1.53635
1.52896
1.49755
1.44709
1.3858
1.32418
1.27246
1.23976
1.23463
1.26418
1.33275
1.441
1.58535
1.76141
1.96066
2.16189
2.34226
2.48311
2.57358
2.61213
2.60541
2.56495
2.50294
2.42847
2.34684
2.25949
2.1662
2.06643
1.96082
1.85189
1.74412
1.64341
1.55614
1.48869
1.44777
1.43933
1.46398
1.50493
1.52861
1.49798
1.38093
1.15838
0.83011
0.416439
-0.0449898
0
1.48247
4.70777
9.26016
14.0399
17.6788
19.1496
18.2146
15.4448
11.8346
8.29894
5.36995
3.20649
1.77871
1.01449
1.01658
1.08347
1.14991
1.20789
1.25078
1.27441
1.27892
1.26555
1.23737
1.19866
1.15442
1.1098
1.06978
1.03998
1.02579
1.03173
1.06081
1.11371
1.18815
1.27951
1.38057
1.48257
1.57797
1.66223
1.73488
1.79937
1.86198
1.92991
2.00939
2.10369
2.21294
2.3358
2.47055
2.61526
2.76829
2.92837
3.0941
3.26333
3.43261
3.59544
3.7437
3.86943
3.96688
4.03397
4.07269
4.08818
4.08681
4.07421
4.05409
4.02713
3.99161
3.94446
3.88227
3.80227
3.70296
3.5844
3.44827
3.29791
3.13787
2.97282
2.80704
2.64412
2.48688
2.33712
2.19549
2.06194
1.93632
1.81879
1.71015
1.61174
1.52502
1.45102
1.38992
1.3408
1.30162
1.26996
1.24383
1.22236
1.20624
1.19774
1.2002
1.21727
1.25442
1.32058
1.42375
1.5556
1.68669
1.7838
1.81925
1.77877
1.6661
1.5032
1.32622
1.17785
1.09546
1.08328
1.12575
1.21179
1.34888
1.52226
1.69381
1.82559
1.88995
1.87678
1.79532
1.66982
1.53072
1.40484
1.30569
1.2286
1.16655
1.11544
1.07253
1.03521
1.00185
0.972231
0.947686
0.930829
0.924968
0.933283
0.957878
0.998968
1.05505
1.12278
1.19433
1.25984
1.31102
1.34361
1.35877
1.363
1.36654
1.38046
1.41344
1.46798
1.54216
1.62963
1.71543
1.78327
1.81976
1.81736
1.77524
1.69789
1.59237
1.46541
1.32232
1.16829
1.00697
0.841222
0.67482
0.512978
0.361966
0.228294
0.118114
0.039009
0
-0.00119743
0.0226434
0.039717
0.0159897
-0.0769814
-0.255359
-0.518993
-0.850967
-1.22076
-1.38681
-0.473411
2.0251
6.08929
10.9481
15.2598
17.6819
17.5093
14.9843
11.0945
7.02909
3.66189
1.34289
0.00647526
-0.595237
-0.647056
-0.654959
-0.663345
-0.675824
-0.694797
-0.720951
-0.753132
-0.78862
-0.823643
-0.854024
-0.875968
-0.886271
-0.882101
-0.860855
-0.820157
-0.757747
-0.671544
-0.559807
-0.418509
-0.22862
0.0477787
0.399942
0.749487
1.00729
1.10606
1.02823
0.816212
0.559383
0.363236
0.311616
0.386494
0.52045
0.681502
0.855873
1.03383
1.20719
1.37006
1.51944
1.65522
1.77967
1.89646
2.00952
2.12187
2.23476
2.34633
2.45064
2.53972
2.60608
2.6451
2.65601
2.64137
2.60508
2.55013
2.47707
2.3867
2.27755
2.1483
1.99986
1.83605
1.66324
1.48919
1.32134
1.16409
1.02003
0.889974
0.772843
0.666301
0.567569
0.474343
0.385566
0.302187
0.227636
0.166654
0.12457
0.105762
0.112205
0.143787
0.196142
0.260495
0.32585
0.38117
0.417886
0.431349
0.42143
0.392262
0.351266
0.307687
0.270951
0.24919
0.246955
0.264737
0.30171
0.357203
0.429884
0.518311
0.621035
0.733891
0.845963
0.94282
1.01082
1.04076
1.03064
0.986003
0.917512
0.836689
0.751951
0.666941
0.582037
0.497229
0.413322
0.332576
0.258636
0.195815
0.147957
0.116887
0.104365
0.108619
0.12465
0.146904
0.170935
0.194557
0.218097
0.243771
0.274549
0.313049
0.360472
0.416694
0.482051
0.557354
0.643885
0.743664
0.862235
1.00728
1.17706
1.35101
1.5017
1.60303
1.6379
1.6021
1.50387
1.3606
1.19439
1.02763
0.875481
0.742246
0.626844
0.526451
0.438569
0.360341
0.288992
0.222613
0.160499
0.102829
0.0497177
0
-0.0389927
-0.0870234
-0.1562
-0.31541
-0.626801
-1.08522
-1.63366
-1.76214
-0.397172
2.77511
7.32479
12.1477
15.9075
17.6138
17.0087
14.5595
11.1245
7.54311
4.38527
1.92348
0.225561
-0.761436
-1.01693
-0.968484
-0.903222
-0.822718
-0.729947
-0.629144
-0.525339
-0.423445
-0.327046
-0.238295
-0.158028
-0.0859554
-0.0209784
0.0381088
0.0913685
0.137495
0.174523
0.200419
0.215009
0.2218
0.228774
0.24758
0.291032
0.36962
0.487078
0.646299
0.838009
1.03935
1.22654
1.38252
1.50208
1.59263
1.67082
1.75638
1.86571
2.00268
2.16214
2.33852
2.52631
2.7192
2.91069
3.09466
3.26532
3.41839
3.55089
3.66099
3.74778
3.81093
3.85036
3.86576
3.85647
3.82142
3.76051
3.67342
3.56071
3.42446
3.26829
3.09708
2.91632
2.73145
2.54703
2.36667
2.19303
2.02823
1.87427
1.73338
1.60818
1.50145
1.4157
1.35267
1.31288
1.29532
1.2977
1.31659
1.34724
1.3836
1.4196
1.45013
1.47157
1.48217
1.48198
1.47263
1.45686
1.43795
1.41923
1.40335
1.39222
1.38708
1.38847
1.39584
1.40761
1.42161
1.43546
1.44696
1.45442
1.45676
1.45351
1.44465
1.43049
1.4115
1.38813
1.36093
1.33081
1.2993
1.26874
1.2427
1.22594
1.22312
1.23807
1.27258
1.32777
1.40034
1.48041
1.5565
1.61863
1.66093
1.68303
1.68961
1.68868
1.68924
1.69865
1.72032
1.75577
1.80604
1.8716
1.95234
2.04845
2.15952
2.28081
2.40131
2.50749
2.5864
2.6285
2.6299
2.59315
2.52654
2.44221
2.35339
2.27075
2.19893
2.13805
2.08702
2.04168
1.99657
1.94675
1.88948
1.82494
1.75638
1.68841
1.62475
1.56612
1.50902
1.43783
1.23194
0.82812
0.282438
-0.297729
0
1.78087
5.24713
9.88661
14.5223
17.7541
18.5992
16.9548
13.5843
9.6569
6.16407
3.58066
1.90658
0.932704
0.465352
0.534581
0.608327
0.681229
0.750806
0.814201
0.868216
0.910244
0.9391
0.955248
0.961064
0.960803
0.960192
0.965617
0.983044
1.01687
1.06811
1.13473
1.21424
1.30296
1.3949
1.48456
1.56918
1.64976
1.73096
1.81969
1.92272
2.04411
2.18323
2.33438
2.48793
2.63293
2.76011
2.86414
2.94465
3.0056
3.05366
3.09636
3.14056
3.19098
3.25151
3.32545
3.41527
3.52487
3.66145
3.82326
3.9913
4.13992
4.24433
4.28725
4.26264
4.17542
4.03834
3.86747
3.67783
3.48115
3.28278
3.0842
2.88546
2.68639
2.48714
2.28853
2.09209
1.90004
1.71491
1.53913
1.37456
1.22215
1.08182
0.952528
0.832623
0.72041
0.61487
0.516502
0.427785
0.352803
0.296654
0.264379
0.259415
0.282252
0.329649
0.396384
0.472486
0.544387
0.600099
0.632151
0.639504
0.627872
0.608249
0.593931
0.598601
0.642935
0.720715
0.796433
0.824258
0.767252
0.61419
0.387168
0.136755
-0.0739079
-0.190202
-0.218977
-0.178452
-0.0461105
0.189098
0.507828
0.839487
1.13575
1.39666
1.58711
1.61988
1.40006
0.902121
0.225659
-0.410078
-0.726039
-0.678934
-0.511909
-0.311037
-0.0908492
0.137397
0.363497
0.580445
0.780436
0.955221
1.10012
1.2122
1.29065
1.33711
1.35543
1.35091
1.32901
1.294
1.24852
1.19392
1.12934
1.05336
0.965048
0.864596
0.753761
0.63596
0.516063
0.399361
0.290909
0.194915
0.114204
0.049947
0
-0.0459263
-0.103331
-0.189843
-0.32055
-0.50419
-0.740625
-1.02026
-1.34505
-1.12923
0.445573
3.64569
8.08158
12.6832
16.0821
17.2441
15.9765
12.9748
9.38507
6.18785
3.80787
2.14166
0.874961
-0.200642
-0.511661
-0.724065
-0.887462
-0.996672
-1.05478
-1.07058
-1.05503
-1.018
-0.968066
-0.909732
-0.84408
-0.77112
-0.690811
-0.603569
-0.51034
-0.413801
-0.320021
-0.236923
-0.172279
-0.13175
-0.117129
-0.125303
-0.148284
-0.174328
-0.18989
-0.183039
-0.147884
-0.0824093
0.01343
0.137791
0.287086
0.456612
0.641053
0.835159
1.03439
1.23527
1.43543
1.63329
1.82753
2.01648
2.19692
2.36376
2.51179
2.63579
2.73164
2.79731
2.83319
2.84165
2.8261
2.78986
2.73556
2.66589
2.58237
2.48546
2.37609
2.25592
2.12726
1.99265
1.85431
1.71365
1.57098
1.42583
1.27738
1.12528
0.970231
0.814465
0.662239
0.51948
0.392555
0.287198
0.20751
0.155352
0.130233
0.129642
0.149658
0.185639
0.232633
0.286008
0.341818
0.396778
0.44805
0.493273
0.53057
0.55856
0.576371
0.583636
0.580507
0.567692
0.546521
0.518985
0.487656
0.455471
0.425343
0.399895
0.381118
0.369495
0.364483
0.364996
0.369902
0.378259
0.389163
0.401314
0.4123
0.418235
0.414472
0.396878
0.363315
0.314669
0.254955
0.190402
0.1279
0.073271
0.0290443
-0.00395031
-0.024894
-0.0334837
-0.0295052
-0.0125982
0.0177347
0.0619091
0.119854
0.190879
0.273531
0.365511
0.463749
0.564669
0.664263
0.758183
0.842196
0.912461
0.965706
0.99942
1.01199
1.00279
0.972261
0.921864
0.854035
0.772165
0.68012
0.581915
0.481529
0.382708
0.288873
0.203287
0.129045
0.0689882
0.0254629
0.000993729
0
0.032225
0.0706892
0.0886143
0.0549603
-0.0750092
-0.409272
-0.924926
-1.54584
-1.90004
-0.958688
1.7314
6.01964
11.027
15.4019
17.8822
17.8634
15.6321
12.1379
8.47443
5.40586
3.19047
1.71093
0.729943
0.0867832
0.0458605
0.0278831
0.0308132
0.057349
0.105523
0.169719
0.242489
0.316551
0.386867
0.451293
0.509478
0.562082
0.610747
0.657695
0.705398
0.756313
0.812651
0.876172
0.947955
1.02822
1.11628
1.21091
1.31024
1.41263
1.51721
1.62425
1.73517
1.85209
1.97717
2.11187
2.25623
2.40875
2.56696
2.72765
2.88736
3.04284
3.1914
3.33106
3.46051
3.57896
3.68612
3.78216
3.86775
3.94398
4.01241
4.07488
4.13315
4.18851
4.24117
4.28964
4.33016
4.35729
4.3643
4.34434
4.29159
4.20233
4.07564
3.91368
3.72159
3.50718
3.28145
3.05467
2.83648
2.63629
2.46228
2.32081
2.21592
2.14908
2.1193
2.12338
2.15825
2.22172
2.3087
2.40256
2.48017
2.51954
2.50552
2.43558
2.32276
2.19351
2.08016
2.01047
1.98909
2.00487
2.05052
2.11478
2.18591
2.25494
2.31749
2.3738
2.4272
2.48176
2.54008
2.60137
2.66318
2.72127
2.76994
2.80288
2.81527
2.80442
2.77069
2.71806
2.65414
2.58924
2.53547
2.50337
2.49934
2.52397
2.57209
2.6345
2.70086
2.76271
2.81563
2.85949
2.89745
2.93404
2.97316
3.01623
3.06273
3.11142
3.16073
3.20938
3.25678
3.30331
3.35008
3.3986
3.45027
3.5059
3.56543
3.62755
3.68941
3.74655
3.79312
3.82277
3.82941
3.80795
3.75498
3.66933
3.55235
3.4078
3.24159
3.06133
2.87615
2.69474
2.52502
2.37547
2.26181
2.22774
2.33023
2.51864
2.70087
2.77263
2.65353
2.27641
1.65669
0.878793
0.0304136
0
1.39521
4.55491
9.17332
14.1903
18.1288
19.7616
18.7131
15.6053
11.669
8.09445
5.5419
4.05122
3.28449
2.85218
2.58937
2.35986
2.15094
1.97054
1.82443
1.71557
1.6438
1.60595
1.59622
1.60799
1.63263
1.66202
1.68961
1.71112
1.7249
1.73176
1.73463
1.73802
1.74742
1.76818
1.80546
1.86409
1.94758
2.05742
2.19316
2.35487
2.53575
2.72017
2.88998
3.02977
3.13046
3.19152
3.22134
3.23586
3.25557
3.30157
3.38921
3.52295
3.69827
3.90793
4.14835
4.40556
4.65647
4.87714
5.0489
5.1607
5.20978
5.20086
5.14424
5.05307
4.94033
4.81605
4.68611
4.55241
4.41487
4.27285
4.12543
3.97202
3.81242
3.64673
3.47538
3.29911
3.11935
2.9386
2.76062
2.59044
2.43368
2.29621
2.1856
2.1083
2.06088
2.03379
2.01489
1.99259
1.95849
1.90869
1.84356
1.76664
1.68315
1.59899
1.51877
1.44638
1.3857
1.34252
1.33206
1.40479
1.66706
2.0904
2.53908
2.86171
2.93567
2.71919
2.27948
1.7761
1.4062
1.3287
1.418
1.544
1.67384
1.79277
1.88932
1.95681
1.99385
2.00374
1.993
1.96948
1.9407
1.91231
1.88755
1.86799
1.85453
1.84787
1.84881
1.85859
1.87885
1.9115
1.95829
2.02032
2.0979
2.19008
2.29444
2.4072
2.52343
2.6374
2.74335
2.83611
2.91148
2.96633
2.99864
3.00718
2.99127
2.95061
2.88536
2.79636
2.68557
2.55649
2.41435
2.26611
2.11968
1.98331
1.86502
1.77181
1.70883
1.67992
1.68951
1.73975
1.80975
1.85631
1.83152
1.69414
1.42368
1.03114
0.559228
-0.199123
0
1.81421
5.38898
10.1327
14.8234
18.0774
18.9629
17.4081
14.1601
10.3439
6.91711
4.34306
2.61025
1.47803
0.725059
0.580572
0.515832
0.568803
0.737945
0.982392
1.23968
1.44836
1.58255
1.66458
1.71539
1.7446
1.75538
1.75101
1.73475
1.71002
1.68014
1.64879
1.62069
1.60084
1.59395
1.60369
1.63214
1.67952
1.7446
1.82532
1.91969
2.02569
2.14237
2.26992
2.40865
2.55834
2.71772
2.88491
3.05629
3.22791
3.39643
3.55992
3.71798
3.87124
4.02053
4.16518
4.30298
4.42966
4.53964
4.6274
4.68873
4.72141
4.72529
4.70171
4.65262
4.58077
4.48675
4.37002
4.22917
4.06329
3.87394
3.66339
3.43443
3.19174
2.94145
2.69044
2.44537
2.21201
1.99477
1.79644
1.61817
1.45984
1.32029
1.19782
1.0908
0.998566
0.920964
0.857912
0.809756
0.776748
0.7585
0.753594
0.759501
0.772844
0.789946
0.807467
0.823097
0.835774
0.845495
0.853189
0.860346
0.868545
0.878955
0.891942
0.906944
0.92213
0.934473
0.940829
0.939057
0.929027
0.913176
0.896324
0.884711
0.884474
0.9
0.931297
0.975892
1.02999
1.08798
1.14366
1.1915
1.22761
1.25022
1.2597
1.25823
1.24915
1.23632
1.22353
1.21399
1.21038
1.21497
1.22973
1.25664
1.2977
1.35504
1.4307
1.52618
1.64357
1.79107
1.96642
2.14401
2.29261
2.38623
2.41401
2.38399
2.31874
2.24485
2.18194
2.13347
2.09152
2.04997
2.00295
1.94528
1.87353
1.78658
1.68564
1.57399
1.45568
1.33445
1.21304
1.09265
0.972891
0.852053
0.727503
0.595899
0.453368
0.299556
0.136523
-0.0316531
0
0.923018
3.32115
7.29004
12.1536
16.616
19.3309
19.5481
17.4358
13.8974
10.0497
6.72178
4.25169
2.60229
1.60738
1.14656
1.27434
1.39341
1.50016
1.59018
1.66154
1.71483
1.75268
1.77862
1.79561
1.80512
1.80725
1.80117
1.7867
1.76581
1.74344
1.72709
1.72521
1.74506
1.7887
1.85356
1.93636
2.03288
2.13816
2.24763
2.35792
2.46719
2.575
2.68178
2.78833
2.8953
3.00295
3.1113
3.22011
3.32905
3.4376
3.54496
3.65
3.75122
3.84708
3.93637
4.01863
4.09457
4.16614
4.23632
4.30864
4.38699
4.47591
4.57794
4.68498
4.77858
4.8365
4.83887
4.77371
4.63996
4.4473
4.21336
3.95917
3.70434
3.45901
3.22632
3.00723
2.80275
2.61369
2.44077
2.28531
2.14897
2.03346
1.9402
1.86968
1.82127
1.79285
1.7804
1.77857
1.78159
1.78403
1.78168
1.77206
1.75478
1.73162
1.70619
1.68342
1.66872
1.66699
1.68448
1.72676
1.79301
1.87045
1.93937
1.98073
1.98192
1.94108
1.8684
1.78397
1.71246
1.67612
1.68377
1.75014
1.86729
2.00082
2.1115
2.16632
2.14566
2.04637
1.88216
1.68234
1.48765
1.34003
1.25828
1.23455
1.2524
1.30381
1.37646
1.45651
1.53153
1.59359
1.63915
1.66919
1.68808
1.70186
1.71665
1.73672
1.7646
1.80152
1.8474
1.90123
1.96127
2.02454
2.08805
2.14984
2.20952
2.26833
2.32848
2.39209
2.46032
2.53144
2.60017
2.65888
2.69918
2.71368
2.69718
2.64726
2.56442
2.45205
2.31829
2.17221
2.02221
1.87645
1.74216
1.62363
1.52359
1.44148
1.37039
1.29967
1.21718
1.11161
0.973792
0.786817
0.553943
0.286188
0
0.0852588
1.06069
3.373
7.10081
11.6809
15.9746
18.7209
19.1299
17.2447
13.8562
10.0591
6.75329
4.36606
2.87227
2.00129
1.46603
1.26117
1.07498
0.91543
0.790985
0.706241
0.661688
0.654039
0.677071
0.722804
0.782843
0.849471
0.917205
0.983203
1.0469
1.10969
1.1742
1.24332
1.31965
1.40466
1.4954
1.58371
1.65994
1.7164
1.75062
1.76707
1.77681
1.79505
1.83746
1.91643
2.03284
2.1805
2.35319
2.54538
2.75042
2.96108
3.16774
3.3601
3.52968
3.67117
3.78355
3.87045
3.93959
4.00125
4.06622
4.14376
4.23948
4.36215
4.51875
4.70082
4.87841
5.01688
5.08425
5.05837
4.93238
4.71658
4.43617
4.12593
3.82293
3.54802
3.30145
3.07936
2.88118
2.7049
2.54694
2.40337
2.27113
2.14883
2.03708
1.93803
1.85449
1.78872
1.74257
1.71516
1.70381
1.70494
1.71491
1.73089
1.75105
1.77434
1.79992
1.82656
1.85189
1.87267
1.88556
1.88835
1.88086
1.86547
1.84666
1.82998
1.82047
1.8209
1.83116
1.84996
1.87408
1.89954
1.92253
1.94019
1.951
1.95475
1.9523
1.94523
1.93566
1.92598
1.91863
1.91605
1.92034
1.93375
1.95762
1.98875
2.02044
2.04482
2.05518
2.04816
2.02492
1.99092
1.95467
1.92578
1.91104
1.91318
1.93426
1.97479
2.03379
2.10857
2.19457
2.28758
2.38493
2.48623
2.59335
2.71102
2.84858
3.0149
3.20616
3.3977
3.55446
3.64328
3.64026
3.53616
3.34095
3.08573
2.81822
2.58987
2.4299
2.32533
2.25442
2.20829
2.18066
2.16435
2.1523
2.13817
2.11673
2.08397
2.03693
1.97065
1.86543
1.64185
1.25599
0.740833
0.158774
0
1.04112
3.82164
8.24435
13.3545
17.6232
19.6486
18.8622
15.7845
11.6729
7.826
5.00404
3.27894
2.2929
1.64925
1.50299
1.44011
1.42725
1.47001
1.5383
1.58992
1.5892
1.52389
1.41176
1.29297
1.21152
1.19494
1.22542
1.27945
1.34417
1.40723
1.45999
1.49924
1.52698
1.54878
1.57144
1.60049
1.63832
1.68562
1.74267
1.8094
1.88568
1.97146
2.06692
2.17228
2.28766
2.41291
2.54747
2.69039
2.84021
2.99493
3.15189
3.30694
3.45445
3.58807
3.70139
3.78916
3.84797
3.87677
3.87722
3.85346
3.81149
3.75814
3.69978
3.64087
3.58292
3.52432
3.46151
3.38953
3.30302
3.19739
3.06976
2.91963
2.74904
2.56227
2.36517
2.1641
1.96497
1.77277
1.59143
1.42387
1.27214
1.13772
1.02155
0.924041
0.845371
0.785391
0.741893
0.710535
0.686974
0.668043
0.652622
0.641798
0.638143
0.644691
0.665565
0.697936
0.732407
0.75664
0.75948
0.734697
0.682796
0.61046
0.528256
0.447759
0.377273
0.319903
0.276768
0.248625
0.235497
0.23443
0.238051
0.237354
0.22436
0.194485
0.148279
0.0919012
0.0359566
-0.00707283
-0.0261274
-0.0175407
0.0236769
0.0954494
0.182367
0.265863
0.329721
0.364652
0.370619
0.356374
0.336462
0.326709
0.339593
0.377248
0.434964
0.506916
0.588017
0.673421
0.759056
0.842254
0.92191
0.998182
1.07189
1.14377
1.21387
1.281
1.34241
1.39369
1.42958
1.44513
1.43648
1.40186
1.34223
1.26161
1.16667
1.06594
0.968475
0.881888
0.810361
0.755555
0.718139
0.696732
0.685971
0.675488
0.652789
0.605166
0.52151
0.393866
0.190904
-0.0887598
-0.426613
-0.795538
-0.879111
0
2.30719
6.08162
10.6754
14.8835
17.4401
17.6231
15.585
12.2028
8.57082
5.48612
3.23089
1.69841
0.665834
0.00503178
-0.117406
-0.225962
-0.318997
-0.391279
-0.439969
-0.464127
-0.464549
-0.44343
-0.403867
-0.349227
-0.282507
-0.205831
-0.120584
-0.0278294
0.0717258
0.177486
0.288264
0.40199
0.515835
0.626535
0.730806
0.825914
0.910523
0.985124
1.05215
1.11584
1.18179
1.25623
1.34508
1.45308
1.58306
1.73513
1.90717
2.09566
2.2959
2.50238
2.70923
2.91069
3.10118
3.27577
3.43085
3.56423
3.67525
3.76465
3.83411
3.88526
3.91876
3.93472
3.93233
3.9096
3.86405
3.79364
3.69755
3.5767
3.43386
3.27328
3.10032
2.92037
2.73784
2.55599
2.37716
2.20296
2.03448
1.87271
1.71874
1.57392
1.43984
1.31806
1.20989
1.1161
1.03691
0.971904
0.920071
0.880331
0.851868
0.834302
0.827587
0.831645
0.846585
0.872029
0.904215
0.936451
0.961662
0.974443
0.972771
0.958631
0.937258
0.915296
0.898644
0.890274
0.88979
0.896001
0.907571
0.923124
0.941604
0.962258
0.984443
1.00688
1.02703
1.0418
1.04869
1.04725
1.03998
1.03217
1.03046
1.04083
1.06672
1.10646
1.15617
1.21295
1.27396
1.33719
1.4019
1.46847
1.53798
1.61156
1.68974
1.77234
1.85852
1.94686
2.03566
2.12329
2.20859
2.29113
2.3714
2.45072
2.53107
2.61457
2.70327
2.79897
2.90128
3.00389
3.09562
3.16331
3.19467
3.18092
3.11851
3.00982
2.86308
2.69174
2.51366
2.34541
2.19942
2.08461
2.02105
2.03065
2.1133
2.23346
2.34655
2.41188
2.39947
2.29194
2.08326
1.77681
1.37919
0.909209
0.390119
-0.153339
0
1.41103
4.41244
8.78357
13.65
17.7388
19.9001
19.6106
17.1682
13.4853
9.62833
6.38823
4.08487
2.63153
1.7467
1.3714
1.27462
1.21718
1.22356
1.27988
1.3496
1.39026
1.37084
1.2851
1.15491
1.02205
0.932425
0.919522
0.966252
1.04956
1.16108
1.29364
1.43953
1.59122
1.74267
1.88909
2.02646
2.15224
2.2654
2.36655
2.45792
2.54332
2.62769
2.71635
2.81415
2.92454
3.04851
3.18488
3.33098
3.48286
3.63588
3.78548
3.92783
4.0604
4.18217
4.29366
4.39667
4.49393
4.58861
4.68388
4.78251
4.88667
4.99783
5.11658
5.23983
5.35454
5.43913
5.46842
5.42051
5.28464
5.06689
4.79069
4.49091
4.20328
3.94874
3.72295
3.51999
3.33755
3.17201
3.01989
2.87898
2.74955
2.63376
2.53479
2.45608
2.40007
2.3674
2.35656
2.36412
2.38538
2.41523
2.44882
2.48237
2.51334
2.54017
2.56209
2.57881
2.59022
2.59614
2.59608
2.58941
2.57555
2.55424
2.52604
2.49263
2.45696
2.42315
2.39613
2.38088
2.38203
2.40487
2.45542
2.53798
2.64823
2.76632
2.86383
2.91326
2.89519
2.80494
2.65649
2.48153
2.3221
2.21829
2.18605
2.20821
2.27754
2.38544
2.52091
2.6766
2.84526
3.00913
3.14209
3.20952
3.18054
3.04794
2.84044
2.6164
2.4414
2.36301
2.35969
2.39691
2.46835
2.57016
2.69866
2.85274
3.04012
3.27627
3.57342
3.90436
4.20967
4.43097
4.52152
4.455
4.23401
3.89506
3.50482
3.14449
2.87267
2.67706
2.5278
2.40943
2.31801
2.25271
2.21322
2.19792
2.19748
2.19734
2.18174
2.13631
2.05028
1.88117
1.53114
1.06204
0.53939
0.00238705
0
1.086
3.75083
7.95933
12.9095
17.2329
19.5917
19.3174
16.6935
12.726
8.5942
5.15382
2.75062
1.33852
0.708626
0.747877
0.874278
0.991697
1.08615
1.14792
1.17304
1.16335
1.12512
1.06705
0.998275
0.927273
0.859544
0.798961
0.748745
0.711337
0.68842
0.681009
0.68963
0.714595
0.756293
0.81536
0.892165
0.987036
1.1001
1.23046
1.3757
1.53207
1.69477
1.85762
2.01352
2.15587
2.27977
2.38288
2.46596
2.53304
2.59125
2.65008
2.71999
2.81072
2.92918
3.07755
3.25952
3.46533
3.6711
3.85115
3.98524
4.06356
4.08766
4.06745
4.01607
3.94505
3.86361
3.7758
3.68217
3.58171
3.47286
3.35392
3.22347
3.08085
2.9264
2.76185
2.59051
2.4172
2.24774
2.08828
1.94434
1.82034
1.71948
1.64184
1.58349
1.53861
1.50078
1.46427
1.4252
1.38212
1.33618
1.29078
1.25074
1.22161
1.20831
1.21407
1.2396
1.2846
1.34439
1.4104
1.47397
1.5287
1.57195
1.60498
1.63161
1.65599
1.68037
1.70321
1.71962
1.72408
1.71372
1.6905
1.66106
1.63436
1.61824
1.61615
1.62423
1.63825
1.65358
1.66538
1.66941
1.66259
1.64326
1.61121
1.56822
1.51682
1.46048
1.40407
1.35332
1.31395
1.29082
1.28727
1.30458
1.34184
1.39634
1.46428
1.54166
1.62522
1.71282
1.80355
1.89713
1.99306
2.08987
2.18452
2.27262
2.34921
2.40981
2.4512
2.47182
2.47147
2.45084
2.41098
2.35437
2.28334
2.19992
2.10715
2.00924
1.91124
1.81834
1.73502
1.66465
1.60765
1.5591
1.50916
1.44519
1.35394
1.22018
0.99469
0.680121
0.296031
-0.126495
0
1.39843
4.40943
8.75529
13.463
17.1932
18.833
18.0109
15.2171
11.4836
7.85878
5.00464
3.0978
1.98245
1.39138
1.21914
1.10062
1.00191
0.930277
0.891616
0.890109
0.927647
1.00325
1.11266
1.24826
1.39958
1.55427
1.69933
1.82314
1.91751
1.97912
2.01017
2.01794
2.01325
2.00822
2.01381
2.03687
2.07894
2.13923
2.21697
2.31186
2.42381
2.5532
2.70062
2.86653
3.05064
3.2514
3.46578
3.68934
3.91673
4.14224
4.36055
4.56726
4.75925
4.93471
5.09302
5.23435
5.35906
5.46766
5.5607
5.63845
5.70092
5.74789
5.77886
5.7934
5.79105
5.77135
5.7339
5.67841
5.60481
5.51335
5.40479
5.28051
5.14297
4.99519
4.84074
4.68378
4.52883
4.38048
4.24299
4.12008
4.01457
3.92815
3.86151
3.81445
3.78488
3.76887
3.76183
3.75923
3.7573
3.7536
3.74732
3.73921
3.7312
3.72588
3.7257
3.73256
3.74751
3.77063
3.80113
3.83771
3.87867
3.92229
3.96723
4.01271
4.05859
4.10524
4.15325
4.20319
4.25534
4.30954
4.36517
8
168
336
511
685
867
1046
1222
1401
1578
1750
1920
2092
2265
2434
2604
2780
2953
3125
3298
3473
3644
3496
3654
3728
3370
3511
3650
0
0
0
0
0
0
0
0
0
0
0
0
0
0
0
0
0
0
0
0
0
0
0
0
0
0
0
0
0
0
0
0
0
0
0
0
0
0
0
0
0
0
0
0
0
0
0
0
0
0
0
0
0
0
0
0
0
0
0
0
0
0
0
0
0
0
0
0
0
0
0
0
0
0
0
0
0
0
0
0
0
0
0
0
0
0
0
0
0
0
0
0
0
0
0
0
0
0
0
0
0
0
0
0
0
0
0
0
0
0
0
0
0
0
0
0
0
0
0
0
0
0
0
0
0
0
0
0
0
0
0
0
0
0
0
0
0
0
0
0
0
0
0
0
0
0
0
0
0
0
0
0
0
0
0
0
0
0
0
0
0
0
0
0
0
0
0
0
0
0
0
0
0
0
0
0
0
0
0
0
0
0
0
0
0
0
0
0
0
0
0
0
0
0
0
0
0
0
0
0
0
0
0
0
0
0
0
0
0
0
0
0
0
0
0
0
0
0
0
0
0
0
0
0
0
0
0
0
0
0
0
0
0
0
0
0
0
0
0
0
0
0
0
0
0
0
0
0
0
0
0
0
0
0
0
0
0
0
0
0
0
0
0
0
0
0
0
0
0
0
0
0
0
0
0
0
0
0
0
0
0
0
0
0
0
0
0
0
0
0
0
0
0
0
0
0
0
0
0
0
0
0
0
0
0
0
0
0
0
0
0
0
0
0
0
0
0
0
0
0
0
0
0
0
0
0
0
0
0
0
0
0
0
0
0
0
0
0
0
0
0
0
0
0
0
0
0
0
0
0
0
0
0
0
0
0
0
0
0
0
0
0
0
0
0
0
0
0
0
0
0
0
0
0
0
0
0
0
0
0
0
0
0
0
0
0
0
0
0
0
0
0
0
0
0
0
0
0
0
0
0
0
0
0
0
0
0
0
0
0
0
0
0
0
0
0
0
0
0
0
0
0
0
0
0
0
0
0
0
0
0
0
0
0
0
0
0
0
0
0
0
0
0
0
0
0
0
0
0
0
0
0
0
0
0
0
0
0
0
0
0
0
0
0
0
0
0
0
0
0
0
0
0
0
0
0
0
0
0
0
0
0
0
0
0
0
0
0
0
0
0
0
0
0
0
0
0
0
0
0
0
0
0
0
0
0
0
0
0
0
0
0
0
0
0
0
0
0
0
0
0
0
0
0
0
0
0
0
0
0
0
0
0
0
0
0
0
0
0
0
0
0
0
0
0
0
0
0
0
0
0
0
0
0
0
0
0
0
0
0
0
0
0
0
0
0
0
0
0
0
0
0
0
0
0
0
0
0
0
0
0
0
0
0
0
0
0
0
0
0
0
0
0
0
0
0
0
0
0
0
0
0
0
0
0
0
0
0
0
0
0
0
0
0
0
0
0
0
0
0
0
0
0
0
0
0
0
0
0
0
0
0
0
0
0
0
0
0
0
0
0
0
0
0
0
0
0
0
0
0
0
0
0
0
0
0
0
0
0
0
0
0
0
0
0
0
0
0
0
0
0
0
0
0
0
0
0
0
0
0
0
0
0
0
0
0
0
0
0
0
0
0
0
0
0
0
0
0
0
0
0
0
0
0
0
0
0
0
0
0
0
0
0
0
0
0
0
0
0
0
0
0
0
0
0
0
0
0
0
0
0
0
0
0
0
0
0
0
0
0
0
0
0
0
0
0
0
0
0
0
0
0
0
0
0
0
0
0
0
0
0
0
0
0
0
0
0
0
0
0
0
0
0
0
0
0
0
0
0
0
0
0
0
0
0
0
0
0
0
0
0
0
0
0
0
0
0
0
0
0
0
0
0
0
0
0
0
0
0
0
0
0
0
0
0
0
0
0
0
0
0
0
0
0
0
0
0
0
0
0
0
0
0
0
0
0
0
0
0
0
0
0
0
0
0
0
0
0
0
0
0
0
0
0
0
0
0
0
0
0
0
0
0
0
0
0
0
0
0
0
0
0
0
0
0
0
0
0
0
0
0
0
0
0
0
0
0
0
0
0
0
0
0
0
0
0
0
0
0
0
0
0
0
0
0
0
0
0
0
0
0
0
0
0
0
0
0
0
0
0
0
0
0
0
0
0
0
0
0
0
0
0
0
0
0
0
0
0
0
0
0
0
0
0
0
0
0
0
0
0
0
0
0
0
0
0
0
0
0
0
0
0
0
0
0
0
0
0
0
0
0
0
0
0
0
0
0
0
0
0
0
0
0
0
0
0
0
0
0
0
0
0
0
0
0
0
0
0
0
0
0
0
0
0
0
0
0
0
0
0
0
0
0
0
0
0
0
0
0
0
0
0
0
0
0
0
0
0
0
0
0
0
0
0
0
0
0
0
0
0
0
0
0
0
0
0
0
0
0
0
0
0
0
0
0
0
0
0
0
0
0
0
0
0
0
0
0
0
0
0
0
0
0
0
0
0
0
0
0
0
0
0
0
0
0
0
0
0
0
0
0
0
0
0
0
0
0
0
0
0
0
0
0
0
0
0
0
0
0
0
0
0
0
0
0
0
0
0
0
0
0
0
0
0
0
0
0
0
0
0
0
0
0
0
0
0
0
0
0
0
0
0
0
0
0
0
0
0
0
0
0
0
0
0
0
0
0
0
0
0
0
0
0
0
0
0
0
0
0
0
0
0
0
0
0
0
0
0
0
0
0
0
0
0
0
0
0
0
0
0
0
0
0
0
0
0
0
0
0
0
0
0
0
0
0
0
0
0
0
0
0
0
0
0
0
0
0
0
0
0
0
0
0
0
0
0
0
0
0
0
0
0
0
0
0
0
0
0
0
0
0
0
0
0
0
0
0
0
0
0
0
0
0
0
0
0
0
0
0
0
0
0
0
0
0
0
0
0
0
0
0
0
0
0
0
0
0
0
0
0
0
0
0
0
0
0
0
0
0
0
0
0
0
0
0
0
0
0
0
0
0
0
0
0
0
0
0
0
0
0
0
0
0
0
0
0
0
0
0
0
0
0
0
0
0
0
0
0
0
0
0
0
0
0
0
0
0
0
0
0
0
0
0
0
0
0
0
0
0
0
0
0
0
0
0
0
0
0
0
0
0
0
0
0
0
0
0
0
0
0
0
0
0
0
0
0
0
0
0
0
0
0
0
0
0
0
0
0
0
0
0
0
0
0
0
0
0
0
0
0
0
0
0
0
0
0
0
0
0
0
0
0
0
0
0
0
0
0
0
0
0
0
0
0
0
0
0
0
0
0
0
0
0
0
0
0
0
0
0
0
0
0
0
0
0
0
0
0
0
0
0
0
0
0
0
0
0
0
0
0
0
0
0
0
0
0
0
0
0
0
0
0
0
0
0
0
0
0
0
0
0
0
0
0
0
0
0
0
0
0
0
0
0
0
0
0
0
0
0
0
0
0
0
0
0
0
0
0
0
0
0
0
0
0
0
0
0
0
0
0
0
0
0
0
0
0
0
0
0
0
0
0
0
0
0
0
0
0
0
0
0
0
0
0
0
0
0
0
0
0
0
0
0
0
0
0
0
0
0
0
0
0
0
0
0
0
0
0
0
0
0
0
0
0
0
0
0
0
0
0
0
0
0
0
0
0
0
0
0
0
0
0
0
0
0
0
0
0
0
0
0
0
0
0
0
0
0
0
0
0
0
0
0
0
0
0
0
0
0
0
0
0
0
0
0
0
0
0
0
0
0
0
0
0
0
0
0
0
0
0
0
0
0
0
0
0
0
0
0
0
0
0
0
0
0
0
0
0
0
0
0
0
0
0
0
0
0
0
0
0
0
0
0
0
0
0
0
0
0
0
0
0
0
0
0
0
0
0
0
0
0
0
0
0
0
0
0
0
0
0
0
0
0
0
0
0
0
0
0
0
0
0
0
0
0
0
0
0
0
0
0
0
0
0
0
0
0
0
0
0
0
0
0
0
0
0
0
0
0
0
0
0
0
0
0
0
0
0
0
0
0
0
0
0
0
0
0
0
0
0
0
0
0
0
0
0
0
0
0
0
0
0
0
0
0
0
0
0
0
0
0
0
0
0
0
0
0
0
0
0
0
0
0
0
0
0
0
0
0
0
0
0
0
0
0
0
0
0
0
0
0
0
0
0
0
0
0
0
0
0
0
0
0
0
0
0
0
0
0
0
0
0
0
0
0
0
0
0
0
0
0
0
0
0
0
0
0
0
0
0
0
0
0
0
0
0
0
0
0
0
0
0
0
0
0
0
0
0
0
0
0
0
0
0
0
0
0
0
0
0
0
0
0
0
0
0
0
0
0
0
0
0
0
0
0
0
0
0
0
0
0
0
0
0
0
0
0
0
0
0
0
0
0
0
0
0
0
0
0
0
0
0
0
0
0
0
0
0
0
0
0
0
0
0
0
0
0
0
0
0
0
0
0
0
0
0
0
0
0
0
0
0
0
0
0
0
0
0
0
0
0
0
0
0
0
0
0
0
0
0
0
0
0
0
0
0
0
0
0
0
0
0
0
0
0
0
0
0
0
0
0
0
0
0
0
0
0
0
0
0
0
0
0
0
0
0
0
0
0
0
0
0
0
0
0
0
0
0
0
0
0
0
0
0
0
0
0
0
0
0
0
0
0
0
0
0
0
0
0
0
0
0
0
0
0
0
0
0
0
0
0
0
0
0
0
0
0
0
0
0
0
0
0
0
0
0
0
0
0
0
0
0
0
0
0
0
0
0
0
0
0
0
0
0
0
0
0
0
0
0
0
0
0
0
0
0
0
0
0
0
0
0
0
0
0
0
0
0
0
0
0
0
0
0
0
0
0
0
0
0
0
0
0
0
0
0
0
0
0
0
0
0
0
0
0
0
0
0
0
0
0
0
0
0
0
0
0
0
0
0
0
0
0
0
0
0
0
0
0
0
0
0
0
0
0
0
0
0
0
0
0
0
0
0
0
0
0
0
0
0
0
0
0
0
0
0
0
0
0
0
0
0
0
0
0
0
0
0
0
0
0
0
0
0
0
0
0
0
0
0
0
0
0
0
0
0
0
0
0
0
0
0
0
0
0
0
0
0
0
0
0
0
0
0
0
0
0
0
0
0
0
0
0
0
0
0
0
0
0
0
0
0
0
0
0
0
0
0
0
0
0
0
0
0
0
0
0
0
0
0
0
0
0
0
0
0
0
0
0
0
0
0
0
0
0
0
0
0
0
0
0
0
0
0
0
0
0
0
0
0
0
0
0
0
0
0
0
0
0
0
0
0
0
0
0
0
0
0
0
0
0
0
0
0
0
0
0
0
0
0
0
0
0
0
0
0
0
0
0
0
0
0
0
0
0
0
0
0
0
0
0
0
0
0
0
0
0
0
0
0
0
0
0
0
0
0
0
0
0
0
0
0
0
0
0
0
0
0
0
0
0
0
0
0
0
0
0
0
0
0
0
0
0
0
0
0
0
0
0
0
0
0
0
0
0
0
0
0
0
0
0
0
0
0
0
0
0
0
0
0
0
0
0
0
0
0
0
0
0
0
0
0
0
0
0
0
0
0
0
0
0
0
0
0
0
0
0
0
0
0
0
0
0
0
0
0
0
0
0
0
0
0
0
0
0
0
0
0
0
0
0
0
0
0
0
0
0
0
0
0
0
0
0
0
0
0
0
0
0
0
0
0
0
0
0
0
0
0
0
0
0
0
0
0
0
0
0
0
0
0
0
0
0
0
0
0
0
0
0
0
0
0
0
0
0
0
0
0
0
0
0
0
0
0
0
0
0
0
0
0
0
0
0
0
0
0
0
0
0
0
0
0
0
0
0
0
0
0
0
0
0
0
0
0
0
0
0
0
0
0
0
0
0
0
0
0
0
0
0
0
0
0
0
0
0
0
0
0
0
0
0
0
0
0
0
0
0
0
0
0
0
0
0
0
0
0
0
0
0
0
0
0
0
0
0
0
0
0
0
0
0
0
0
0
0
0
0
0
0
0
0
0
0
0
0
0
0
0
0
0
0
0
0
0
0
0
0
0
0
0
0
0
0
0
0
0
0
0
0
0
0
0
0
0
0
0
0
0
0
0
0
0
0
0
0
0
0
0
0
0
0
0
0
0
0
0
0
0
0
0
0
0
0
0
0
0
0
0
0
0
0
0
0
0
0
0
0
0
0
0
0
0
0
0
0
0
0
0
0
0
0
0
0
0
0
0
0
0
0
0
0
0
0
0
0
0
0
0
0
0
0
0
0
0
0
0
0
0
0
0
0
0
0
0
0
0
0
0
0
0
0
0
0
0
0
0
0
0
0
0
0
0
0
0
0
0
0
0
0
0
0
0
0
0
0
0
0
0
0
0
0
0
0
0
0
0
0
0
0
0
0
0
0
0
0
0
0
0
0
0
0
0
0
0
0
0
0
0
0
0
0
0
0
0
0
0
0
0
0
0
0
0
0
0
0
0
0
0
0
0
0
0
0
0
0
0
0
0
0
0
0
0
0
0
0
0
0
0
0
0
0
0
0
0
0
0
0
0
0
0
0
0
0
0
0
0
0
0
0
0
0
0
0
0
0
0
0
0
0
0
0
0
0
0
0
0
0
0
0
0
0
0
0
0
0
0
0
0
0
0
0
0
0
0
0
0
0
0
0
0
0
0
0
0
0
0
0
0
0
0
0
0
0
0
0
0
0
0
0
0
0
0
0
0
0
0
0
0
0
0
0
0
0
0
0
0
0
0
0
0
0
0
0
0
0
0
0
0
0
0
0
0
0
0
0
0
0
0
0
0
0
0
0
0
0
0
0
0
0
0
0
0
0
0
0
0
0
0
0
0
0
0
0
0
0
0
0
0
0
0
0
0
0
0
0
0
0
0
0
0
0
0
0
0
0
0
0
0
0
0
0
0
0
0
0
0
0
0
0
0
0
0
0
0
0
0
0
0
0
0
0
0
0
0
0
0
0
0
0
0
0
0
0
0
0
0
0
0
0
0
0
0
0
0
0
0
0
0
0
0
0
0
0
0
0
0
0
0
0
0
0
0
0
0
0
0
0
0
0
0
0
0
0
0
0
0
0
0
0
0
0
0
0
0
0
0
0
0
0
0
0
0
0
0
0
0
0
0
0
0
0
0
0
0
0
0
0
0
0
0
0
0
0
0
0
0
0
0
0
0
0
0
0
0
0
0
0
0
0
0
0
0
0
0
0
0
0
0
0
0
0
0
0
0
0
0
0
0
0
0
0
0
0
0
0
0
0
0
0
0
0
0
0
0
0
0
0
0
0
0
0
0
0
0
0
0
0
0
0
0
0
0
0
0
0
0
0
0
0
0
0
0
0
0
0
0
0
0
0
0
0
0
0
0
0
0
0
0
0
0
0
0
0
0
0
0
0
0
0
0
0
0
0
0
0
0
0
0
0
0
0
0
0
0
0
0
0
0
0
0
0
0
0
0
0
0
0
0
0
0
0
0
0
0
0
0
0
0
0
0
0
0
0
0
0
0
0
0
0
0
0
0
0
0
0
0
0
0
0
0
0
0
0
0
0
0
0
0
0
0
0
0
0
0
0
0
0
0
0
0
0
0
0
0
0
0
0
0
0
0
0
0
0
0
0
0
0
0
0
0
0
0
0
0
0
0
0
0
0
0
0
0
0
0
0
0
0
0
0
0
0
0
0
0
0
0
0
0
0
0
0
0
0
0
0
0
0
0
0
0
0
0
0
0
0
0
0
0
0
0
0
0
0
0
0
0
0
0
0
0
0
0
0
0
0
0
0
0
0
0
0
0
0
0
0
0
0
0
0
0
0
0
0
0
0
0
0
0
0
0
0
0
0
0
0
0
0
0
0
0
0
0
0
0
0
0
0
0
0
0
0
0
0
0
0
0
0
0
0
0
0
0
0
0
0
0
0
0
0
0
0
0
0
0
0
0
0
0
0
0
0
0
0
0
0
0
0
0
0
0
0
0
0
0
0
0
0
0
0
0
0
0
0
0
0
0
0
0
0
0
0
0
0
0
0
0
0
0
0
0
0
0
0
0
0
0
0
0
0
0
0
0
0
0
0
0
0
0
0
0
0
0
0
0
0
0
0
0
0
0
0
0
0
0
0
0
0
0
0
0
0
0
0
0
0
0
0
0
0
0
0
0
0
0
0
0
0
0
0
0
0
0
0
0
0
0
0
0
0
0
0
0
0
0
0
0
0
0
0
0
0
0
0
0
0
0
0
0
0
0
0
0
0
0
0
0
0
0
0
0
0
0
0
0
0
0
0
0
0
0
0
0
0
0
0
0
0
0
0
0
0
0
0
0
0
0
0
0
0
0
0
0
0
0
0
0
0
0
0
0
0
0
0
0
0
0
0
0
0
0
0
0
0
0
0
0
0
0
0
0
0
0
0
0
0
0
0
0
0
0
0
0
0
0
0
0
0
0
0
0
0
0
0
0
0
0
0
0
0
0
0
0
0
0
0
