1.82131
1.71157
1.59868
1.48449
1.37161
1.26267
1.16017
1.066
0.981396
0.906916
0.842572
0.788002
0.742593
0.705552
0.67597
0.652799
0.634709
0.620207
0.607882
0.596597
0.585658
0.574895
0.564632
0.555555
0.548524
0.544323
0.543503
0.546393
0.552972
0.562865
0.575382
0.589449
0.603696
0.61656
0.626373
0.631463
0.630154
0.621238
0.60405
0.578684
0.545659
0.506622
0.465161
0.425677
0.39286
0.371157
0.364332
0.375194
0.405405
0.45533
0.523724
0.606986
0.703813
0.808023
0.907342
0.99016
1.04915
1.08417
1.1032
1.12041
1.15206
1.2114
1.30357
1.43542
1.60374
1.78679
1.9509
2.07437
2.14422
2.14687
2.06637
1.89166
1.62758
1.30285
0.969287
0.684412
0.457883
0.268539
0.105917
-0.0303959
-0.142615
-0.234896
-0.312611
-0.381775
-0.448447
-0.518723
-0.601643
-0.700274
-0.812938
-0.933823
-0.878363
0
2.17868
5.83767
10.577
15.4014
19.0206
20.3729
19.1018
15.7086
11.2955
7.05924
3.82993
1.8737
0.984181
0.728505
0.680362
0.530146
0.380516
0.23275
0.0878822
-0.0531929
-0.189176
-0.317459
-0.433634
-0.53305
-0.609581
-0.657025
-0.671548
-0.653609
-0.608273
-0.543665
-0.468246
-0.388192
-0.306399
-0.223116
-0.137794
-0.0497162
0.0415878
0.135938
0.232341
0.32902
0.423565
0.513295
0.595937
0.670135
0.735881
0.794687
0.849467
0.904134
0.963
1.03012
1.10841
1.19954
1.30528
1.42857
1.57284
1.74008
1.92394
2.10369
2.25651
2.3556
2.37004
2.27805
2.08649
1.84156
1.61837
1.48935
1.45813
1.46624
1.48946
1.51726
1.53666
1.53571
1.50527
1.44059
1.34245
1.21765
1.07794
0.937566
0.809764
0.70051
0.607056
0.527252
0.459209
0.399849
0.345443
0.292153
0.236503
0.175798
0.108552
0.0347439
-0.0450157
-0.127205
-0.204174
-0.266655
-0.305449
-0.309062
-0.227666
-0.0455254
0.171465
0.346921
0.424355
0.386708
0.259486
0.0970001
-0.0421844
-0.119017
-0.144382
-0.145312
-0.132601
-0.108787
-0.0751392
-0.0331177
0.0162136
0.0704643
0.124834
0.174342
0.215226
0.246212
0.269063
0.288115
0.308961
0.336819
0.374373
0.421052
0.4759
0.537905
0.605838
0.678603
0.755505
0.836324
0.921179
1.01026
1.1035
1.20033
1.2996
1.39962
1.49833
1.59356
1.68302
1.76382
1.83206
1.88346
1.9146
1.92181
1.90183
1.85281
1.77508
1.67155
1.54728
1.40865
1.26246
1.11452
0.968447
0.826754
0.691612
0.565314
0.449812
0.346206
0.254713
0.174284
0.102361
0.0363636
-0.0343513
-0.210514
-0.513452
-0.88496
-1.25805
-1.09984
0
2.43103
6.28961
11.1148
15.8622
19.2091
20.1117
18.3068
14.4488
9.78382
5.56848
2.57783
0.948998
0.35194
0.300434
0.238221
0.175773
0.113231
0.0511539
-0.00952911
-0.0677162
-0.122323
-0.172841
-0.219155
-0.26124
-0.298714
-0.330478
-0.354625
-0.368715
-0.37034
-0.357824
-0.331261
-0.291636
-0.241129
-0.182558
-0.118637
-0.0513912
0.0185673
0.0920149
0.170844
0.257575
0.354713
0.464105
0.586434
0.72097
0.865648
1.0173
1.17203
1.32564
1.47396
1.61315
1.73953
1.85058
1.94471
2.02148
2.08156
2.12667
2.15925
2.18209
2.19789
2.20884
2.21622
2.22043
2.22095
2.21661
2.20585
2.18711
2.15906
2.12082
2.07203
2.01269
1.943
1.86317
1.77321
1.67316
1.56322
1.44365
1.31507
1.17896
1.03773
0.894695
0.753844
0.619754
0.497065
0.389394
0.299188
0.22753
0.17415
0.137644
0.115821
0.106123
0.106027
0.113357
0.126308
0.143681
0.164771
0.189091
0.21619
0.245358
0.274914
0.301828
0.322781
0.335351
0.339296
0.337391
0.335358
0.340688
0.360625
0.399948
0.457217
0.529705
0.61161
0.693239
0.764661
0.817872
0.848235
0.85504
0.841216
0.812414
0.775752
0.738508
0.706792
0.684539
0.673602
0.674623
0.688421
0.716057
0.758306
0.815452
0.887007
0.971475
1.06631
1.16799
1.273
1.37817
1.48118
1.5809
1.67727
1.77096
1.86252
1.95168
2.03644
2.11279
2.17529
2.21837
2.23748
2.22961
2.19319
2.12763
2.03312
1.91209
1.76985
1.61199
1.44417
1.27244
1.10289
0.940666
0.789417
0.65115
0.525839
0.411594
0.305381
0.203606
0.101995
-0.00391407
-0.115285
-0.230217
-0.335639
0
1.27558
3.90978
7.8945
12.5671
16.7038
18.9854
18.6194
15.7548
11.4219
7.02385
3.68871
1.85621
1.28429
1.38018
1.57307
1.43894
1.30428
1.17104
1.04178
0.919633
0.808013
0.70905
0.625905
0.560875
0.515223
0.489352
0.482823
0.494399
0.522128
0.56347
0.615509
0.675245
0.739839
0.807144
0.876056
0.94652
1.01938
1.09612
1.17852
1.26805
1.36549
1.47056
1.5823
1.69855
1.81696
1.93568
2.05389
2.17183
2.29044
2.41068
2.5328
2.65586
2.77769
2.8954
3.00579
3.10591
3.19351
3.26722
3.32636
3.37049
3.39888
3.4108
3.40588
3.38376
3.34457
3.2893
3.22006
3.13998
3.05283
2.96235
2.87166
2.78261
2.69598
2.61153
2.52814
2.44406
2.35712
2.26502
2.16556
2.05701
1.93844
1.81014
1.67386
1.53282
1.39145
1.25493
1.12852
1.01684
0.923297
0.849705
0.796247
0.76166
0.743552
0.738843
0.744152
0.755892
0.770595
0.785168
0.797092
0.804643
0.807016
0.804402
0.797973
0.789741
0.782259
0.778185
0.779774
0.788374
0.803974
0.825679
0.851209
0.877493
0.901168
0.919057
0.928568
0.92794
0.916362
0.894017
0.862088
0.82254
0.778083
0.732904
0.692389
0.662095
0.646948
0.650485
0.67423
0.717414
0.777159
0.849157
0.928755
1.01216
1.09732
1.18423
1.27431
1.36993
1.47369
1.58888
1.72246
1.87949
2.04989
2.21321
2.3496
2.44508
2.4929
2.49147
2.44157
2.34537
2.20772
2.039
1.85375
1.66659
1.48884
1.32408
1.17113
1.02987
0.901889
0.787905
0.687508
0.599075
0.51954
0.44438
0.367896
0.278053
0.149726
-0.0201983
-0.219002
-0.458415
0
1.68125
4.91214
9.49174
14.563
18.811
20.9728
20.4173
17.4525
13.1602
8.8567
5.51261
3.45742
2.46964
2.09289
1.93137
1.7363
1.54506
1.36174
1.19017
1.03342
0.893861
0.773275
0.674435
0.600241
0.550735
0.525135
0.521927
0.538521
0.571017
0.614497
0.663445
0.713138
0.760918
0.807015
0.854503
0.90831
0.973568
1.05389
1.14932
1.25627
1.37106
1.49028
1.61068
1.72971
1.8458
1.95829
2.06717
2.17272
2.27516
2.37448
2.47044
2.56262
2.65065
2.73422
2.81309
2.88686
2.95442
3.01433
3.06549
3.10697
3.13853
3.16085
3.17553
3.18447
3.18902
3.18855
3.18078
3.16152
3.126
3.07073
2.9949
2.90088
2.79356
2.67883
2.56189
2.4459
2.33188
2.2203
2.11148
2.00595
1.90471
1.80917
1.72078
1.64072
1.56965
1.50696
1.44988
1.39475
1.33804
1.27742
1.2121
1.14422
1.07903
1.02297
0.981926
0.959947
0.958718
0.977834
1.01546
1.06889
1.13811
1.22087
1.30365
1.36956
1.40342
1.39832
1.35972
1.30446
1.25465
1.22921
1.23363
1.2558
1.29148
1.33028
1.36179
1.37888
1.37992
1.36907
1.35444
1.34467
1.34537
1.35744
1.37439
1.38671
1.38698
1.37412
1.35502
1.3428
1.35274
1.3977
1.47517
1.57773
1.70123
1.84265
1.99818
2.16386
2.33561
2.50653
2.66478
2.79872
2.89822
2.95603
2.96951
2.94149
2.87968
2.79429
2.69474
2.58662
2.47177
2.34971
2.21943
2.07979
1.9301
1.77071
1.6034
1.4308
1.25715
1.08735
0.925408
0.773511
0.632314
0.502999
0.383344
0.261739
0.133145
0
-0.137346
0.408935
1.9548
4.79974
8.88787
13.63
17.952
20.6385
20.8542
18.5572
14.5399
10.0534
6.23476
3.67477
2.33996
1.81171
1.62832
1.49213
1.35672
1.22294
1.09183
0.964695
0.843261
0.729355
0.624736
0.531267
0.451266
0.387581
0.342358
0.316653
0.310907
0.324593
0.355914
0.401743
0.457958
0.520134
0.584429
0.648382
0.711345
0.773752
0.836698
0.901686
0.970279
1.04381
1.12315
1.20868
1.30015
1.39678
1.49729
1.60003
1.70305
1.80437
1.90209
1.99456
2.08051
2.1591
2.22986
2.29262
2.34742
2.39424
2.43288
2.46326
2.48531
2.49897
2.50421
2.50112
2.48986
2.47059
2.44343
2.40837
2.36544
2.31441
2.25481
2.18611
2.10779
2.01953
1.92139
1.81379
1.69771
1.57476
1.44717
1.31774
1.18967
1.06632
0.9509
0.846161
0.754072
0.675874
0.61205
0.561401
0.520539
0.48549
0.452557
0.419113
0.384131
0.348321
0.31387
0.283859
0.26142
0.248425
0.246445
0.255876
0.275894
0.304796
0.340009
0.378809
0.41883
0.4584
0.496599
0.532915
0.566428
0.595296
0.616662
0.626771
0.622429
0.60268
0.569855
0.529419
0.488602
0.454408
0.431273
0.418964
0.41615
0.422092
0.435527
0.454922
0.47924
0.506961
0.53544
0.562471
0.587223
0.611152
0.638288
0.674488
0.725739
0.79614
0.886335
0.990438
1.10292
1.21984
1.33801
1.45537
1.57114
1.68602
1.80366
1.93342
2.08251
2.23312
2.35499
2.41592
2.39137
2.27253
2.07035
1.81438
1.54767
1.31799
1.13721
0.989056
0.862196
0.753547
0.661476
0.583214
0.515044
0.452866
0.392599
0.330407
0.261685
0.182602
0.0940843
0
-0.117034
0.222871
1.47995
4.03602
7.90899
12.522
16.7419
19.2704
19.2355
16.6399
12.3763
7.79
4.06111
1.77069
0.847935
0.825071
1.17167
1.19256
1.1766
1.10259
0.973605
0.815687
0.666943
0.561874
0.503616
0.482137
0.492183
0.525482
0.574128
0.633047
0.698739
0.770407
0.849025
0.935516
1.03004
1.13236
1.24153
1.35585
1.47322
1.59117
1.70709
1.81868
1.92448
2.02432
2.11956
2.21304
2.30874
2.41106
2.52412
2.65103
2.79297
2.94982
3.12044
3.3027
3.49367
3.68994
3.88758
4.07766
4.24836
4.38806
4.48783
4.54449
4.5624
4.55293
4.53145
4.51316
4.50898
4.51906
4.54001
4.56928
4.60149
4.62665
4.63292
4.60879
4.54523
4.43826
4.29085
4.11322
3.92082
3.73055
3.55531
3.39637
3.25322
3.12673
3.01635
2.92043
2.83677
2.7628
2.69513
2.63062
2.56681
2.50234
2.43727
2.37302
2.31208
2.25753
2.21244
2.1789
2.15852
2.15198
2.15957
2.18292
2.22187
2.26955
2.31568
2.34979
2.36375
2.35398
2.32258
2.2768
2.22727
2.1853
2.15788
2.14593
2.1501
2.17106
2.20361
2.23991
2.27149
2.29094
2.29316
2.27608
2.24076
2.19102
2.13273
2.07293
2.01759
1.97118
1.93604
1.91236
1.89963
1.89717
1.90386
1.91816
1.93863
1.96467
1.99674
2.03627
2.08533
2.14592
2.21919
2.30549
2.40505
2.51178
2.61539
2.70482
2.77032
2.8047
2.80354
2.76463
2.68733
2.57241
2.42539
2.25469
2.06868
1.87606
1.68603
1.50684
1.34517
1.20764
1.09927
1.02109
0.968072
0.928989
0.890762
0.840838
0.769341
0.654554
0.500148
0.320728
0
0.193909
1.43166
4.10998
8.19429
13.0204
17.3843
19.9666
19.9206
17.2964
13.0282
8.48298
4.84036
2.66213
1.84506
1.88595
2.23025
2.18581
2.12901
2.05255
1.9565
1.84788
1.73765
1.6367
1.54832
1.47216
1.41123
1.3698
1.35073
1.3554
1.3848
1.43846
1.51329
1.60437
1.7022
1.79644
1.87865
1.94458
1.99531
2.03679
2.07793
2.12819
2.19441
2.27747
2.37621
2.48946
2.61573
2.75288
2.89845
3.04999
3.2052
3.36203
3.51855
3.67257
3.82054
3.95675
4.07524
4.17039
4.23795
4.27683
4.29016
4.28486
4.26965
4.25204
4.23567
4.21917
4.19944
4.17256
4.13485
4.08361
4.01729
3.9353
3.83735
3.72318
3.59415
3.45094
3.29407
3.12536
2.94838
2.76838
2.59191
2.42591
2.27699
2.15302
2.06421
2.01222
1.98371
1.96133
1.92922
1.87778
1.80631
1.72233
1.63806
1.56551
1.50955
1.46884
1.44168
1.42453
1.41365
1.40651
1.40234
1.40191
1.40665
1.4175
1.43351
1.45334
1.47424
1.49311
1.50738
1.51571
1.51823
1.51636
1.51216
1.50762
1.5041
1.50191
1.50083
1.5003
1.49959
1.49793
1.49454
1.48864
1.47948
1.46653
1.4495
1.42832
1.40409
1.37966
1.35906
1.34702
1.34824
1.36663
1.40467
1.46283
1.53918
1.62938
1.72842
1.8269
1.91576
1.98862
2.04369
2.08455
2.11941
2.16185
2.25725
2.44766
2.68072
2.88066
2.98581
2.96878
2.83853
2.62851
2.37891
2.12361
1.88698
1.67528
1.48447
1.312
1.15885
1.02719
0.917773
0.829505
0.758989
0.701158
0.649916
0.597988
0.504582
0.283318
-0.0531483
-0.45262
-0.629783
0
1.99454
5.61865
10.5409
15.747
19.8255
21.5472
20.4404
17.014
12.4833
8.17224
4.95794
3.0543
2.16867
1.83337
1.67644
1.50171
1.32959
1.16302
1.00554
0.861935
0.737929
0.637746
0.564198
0.518506
0.499863
0.505334
0.53021
0.568855
0.615862
0.667269
0.721204
0.777963
0.839544
0.90864
0.987703
1.078
1.17906
1.29037
1.40565
1.51687
1.61715
1.70298
1.77516
1.83838
1.89945
1.96513
2.04033
2.12517
2.21821
2.31831
2.424
2.53352
2.64485
2.75569
2.86305
2.96276
3.05074
3.12309
3.17662
3.20929
3.22029
3.20991
3.17921
3.12992
3.06475
2.98823
2.90418
2.81657
2.7296
2.64718
2.57288
2.50801
2.45067
2.39657
2.34006
2.27548
2.19838
2.10642
1.99972
1.88072
1.75398
1.62458
1.49684
1.37429
1.25963
1.15452
1.05949
0.974305
0.898329
0.831268
0.773625
0.725925
0.689025
0.663718
0.650183
0.647575
0.653937
0.666438
0.681881
0.697251
0.71023
0.719236
0.72338
0.722299
0.716004
0.704867
0.689618
0.671497
0.652298
0.634225
0.619524
0.610097
0.607598
0.611783
0.619272
0.625048
0.624066
0.612881
0.590905
0.560857
0.528282
0.500279
0.483813
0.482565
0.496594
0.525142
0.56694
0.619648
0.680398
0.746213
0.814638
0.884043
0.953532
1.02292
1.09263
1.16347
1.23652
1.31281
1.39336
1.47905
1.57074
1.67004
1.7818
1.91939
2.10026
2.30565
2.48008
2.54711
2.44903
2.18229
1.80458
1.41114
1.09878
0.893585
0.734676
0.596734
0.476704
0.373297
0.284181
0.205185
0.131371
0.0576317
-0.0210581
-0.110616
-0.21261
-0.324802
-0.442026
-0.469915
0
1.41032
4.16231
8.26971
13.1052
17.4692
20.0409
19.9926
17.4001
13.1923
8.6772
4.95
2.52298
1.32064
0.935024
0.916151
0.766031
0.615432
0.464166
0.312614
0.161882
0.0139421
-0.127469
-0.254695
-0.358278
-0.430505
-0.464114
-0.455024
-0.405428
-0.324951
-0.228358
-0.130546
-0.0415714
0.038068
0.112062
0.181801
0.248053
0.311141
0.371076
0.427806
0.481733
0.534036
0.586738
0.642448
0.703876
0.773275
0.851743
0.939299
1.03509
1.13757
1.24477
1.35454
1.4648
1.57371
1.67972
1.78162
1.87855
1.96995
2.05526
2.13313
2.20089
2.25575
2.29494
2.3156
2.3159
2.296
2.25838
2.20723
2.14732
2.08265
2.0161
1.94901
1.88213
1.81629
1.75266
1.69279
1.63826
1.59058
1.55091
1.51739
1.48354
1.4408
1.38091
1.29854
1.1933
1.07037
0.93961
0.813359
0.702699
0.611817
0.545692
0.506617
0.494271
0.506112
0.537911
0.586636
0.647721
0.711965
0.768744
0.809002
0.826805
0.820696
0.794238
0.755338
0.71445
0.682118
0.664796
0.662305
0.672608
0.694851
0.727284
0.765586
0.805212
0.842334
0.874482
0.900665
0.920968
0.935806
0.944739
0.946859
0.940586
0.924499
0.898342
0.863726
0.824183
0.78458
0.750188
0.725337
0.7122
0.713516
0.731515
0.76795
0.823737
0.898935
0.992138
1.10021
1.2184
1.3412
1.46261
1.57788
1.68448
1.78243
1.87353
1.95951
2.04426
2.12561
2.1926
2.23034
2.22703
2.17885
2.09036
1.97122
1.83176
1.6809
1.52611
1.37143
1.21965
1.07358
0.93636
0.810962
0.69955
0.603101
0.521625
0.452053
0.387306
0.318303
0.227248
0.075573
-0.137995
-0.390559
-0.62608
0
2.0466
5.69751
10.4915
15.3317
18.8328
19.8864
18.1696
14.3074
9.58049
5.33501
2.43148
1.01887
0.694988
0.869913
0.825577
0.779871
0.732694
0.685643
0.64156
0.603242
0.573766
0.550435
0.526552
0.49363
0.444631
0.376835
0.293296
0.202517
0.116737
0.0496098
0.0135174
0.0173309
0.0646725
0.152988
0.27379
0.414294
0.560233
0.699086
0.825676
0.940709
1.04422
1.13752
1.22305
1.30388
1.38328
1.46438
1.54987
1.64177
1.74122
1.84829
1.96194
2.08002
2.19955
2.317
2.42871
2.53118
2.62148
2.69773
2.75906
2.80561
2.83832
2.85873
2.86863
2.86983
2.86396
2.85233
2.83587
2.81514
2.79034
2.76136
2.7278
2.689
2.64416
2.59232
2.53257
2.46407
2.38623
2.29878
2.20189
2.09635
1.98368
1.86624
1.7473
1.63107
1.52262
1.42667
1.34687
1.28528
1.24391
1.22004
1.20938
1.20736
1.21019
1.21545
1.22203
1.22958
1.23788
1.24653
1.2551
1.26369
1.27344
1.28654
1.30568
1.33308
1.36942
1.41242
1.45902
1.5051
1.54602
1.57776
1.5977
1.60503
1.60074
1.58728
1.56789
1.54593
1.52433
1.5051
1.48926
1.47731
1.46956
1.46618
1.46721
1.47253
1.48179
1.49435
1.50915
1.52448
1.53805
1.54793
1.55326
1.55509
1.55671
1.56362
1.58276
1.62123
1.68472
1.77395
1.88552
2.01772
2.16806
2.32625
2.47996
2.61832
2.73338
2.81561
2.85956
2.86405
2.82785
2.74984
2.63057
2.4742
2.28929
2.08772
1.88206
1.6816
1.48878
1.30412
1.12867
0.963918
0.811567
0.671848
0.544075
0.427578
0.321382
0.227156
0.134509
0.0227703
-0.10912
-0.305382
0
1.38723
4.29444
8.64779
13.6751
18.0521
20.4054
19.9437
16.8597
12.2454
7.56248
3.97956
1.9514
1.22712
1.19259
1.27408
1.10667
0.940648
0.77801
0.621189
0.474281
0.342826
0.230819
0.141676
0.0776068
0.0392157
0.0254667
0.0340405
0.0618814
0.105671
0.161596
0.224905
0.292052
0.360199
0.426553
0.488795
0.545548
0.596775
0.643959
0.689965
0.738595
0.793925
0.859597
0.938106
1.03042
1.13609
1.25361
1.38059
1.51389
1.64993
1.78402
1.90877
2.01736
2.10439
2.16752
2.20872
2.2346
2.25533
2.28244
2.32637
2.41055
2.53838
2.67852
2.79171
2.8474
2.83404
2.76025
2.64887
2.52785
2.42176
2.34079
2.27987
2.23272
2.19511
2.16369
2.1351
2.10399
2.06376
2.00794
1.93157
1.83257
1.71271
1.57779
1.43684
1.30039
1.17817
1.07804
1.01113
0.978544
0.968242
0.965052
0.956225
0.935577
0.904857
0.87197
0.846845
0.836759
0.841508
0.856256
0.875858
0.89541
0.912287
0.926934
0.94212
0.961139
0.985934
1.01566
1.04754
1.07929
1.10876
1.13433
1.15505
1.17061
1.18103
1.18671
1.18831
1.18695
1.18437
1.18301
1.18597
1.19731
1.22697
1.29639
1.4119
1.53979
1.63269
1.64873
1.57249
1.42805
1.27493
1.18499
1.20826
1.3126
1.44549
1.58847
1.73384
1.87569
2.01058
2.13776
2.25866
2.37598
2.49228
2.6099
2.72626
2.83283
2.91851
2.97343
2.99149
2.97074
2.91219
2.81836
2.69268
2.54275
2.37737
2.20439
2.03132
1.86495
1.71003
1.56986
1.44736
1.34474
1.26104
1.18885
1.11781
1.03619
0.910961
0.708783
0.436501
0.123025
0
0.67856
2.609
5.98151
10.5099
15.3673
19.3764
21.4287
20.9444
18.1248
13.8567
9.32089
5.52626
2.99782
1.72663
1.33842
1.34316
1.14341
0.947019
0.757261
0.577342
0.410188
0.258238
0.123013
0.00507402
-0.0957465
-0.179687
-0.247335
-0.299754
-0.33802
-0.362995
-0.3755
-0.376503
-0.367177
-0.348787
-0.322456
-0.288922
-0.248617
-0.201741
-0.148006
-0.0871892
-0.0193143
0.0552686
0.136035
0.222525
0.314352
0.411118
0.512157
0.616337
0.721655
0.823697
0.917328
0.998357
1.06521
1.11994
1.16803
1.21717
1.28293
1.37519
1.47842
1.5645
1.60713
1.59269
1.52342
1.4142
1.28632
1.16079
1.04988
0.952491
0.863834
0.780238
0.69943
0.620081
0.541488
0.463582
0.386819
0.311947
0.239701
0.170587
0.104788
0.0421805
-0.0175861
-0.0750205
-0.13077
-0.185645
-0.240651
-0.296954
-0.355762
-0.41811
-0.484591
-0.555094
-0.628753
-0.703695
-0.776024
-0.840676
-0.892478
-0.92709
-0.941738
-0.935513
-0.909158
-0.864472
-0.803637
-0.728918
-0.634355
-0.514454
-0.386221
-0.277708
-0.219959
-0.232576
-0.311786
-0.429358
-0.544339
-0.621348
-0.644536
-0.639367
-0.621956
-0.597897
-0.569889
-0.540072
-0.510133
-0.481962
-0.458457
-0.443017
-0.43936
-0.450334
-0.476406
-0.514502
-0.557716
-0.596166
-0.618818
-0.61588
-0.58593
-0.526941
-0.440091
-0.329689
-0.202251
-0.0654638
0.0736177
0.210285
0.341672
0.466821
0.58657
0.702924
0.819167
0.94204
1.08445
1.25617
1.43643
1.59034
1.68248
1.68287
1.5771
1.3758
1.11529
0.847975
0.629137
0.47472
0.358605
0.263069
0.183108
0.115571
0.0561825
0
-0.0670104
-0.140651
-0.22496
-0.328301
-0.467816
-0.641467
-0.841965
-1.07714
-0.861994
0.44649
3.28989
7.61571
12.6913
17.2433
19.9319
19.9417
17.3599
13.1123
8.49809
4.61287
1.98604
0.57829
0.0326363
-0.0483992
-0.0791456
-0.115998
-0.163614
-0.224186
-0.296917
-0.378177
-0.462458
-0.542876
-0.613143
-0.668781
-0.707734
-0.730243
-0.738142
-0.733894
-0.719752
-0.698057
-0.669947
-0.635968
-0.596522
-0.552082
-0.502773
-0.448337
-0.388057
-0.320842
-0.245542
-0.161418
-0.0686077
0.0314175
0.136024
0.24183
0.344918
0.440979
0.526678
0.6004
0.662546
0.715576
0.763638
0.81181
0.86508
0.927279
1.00021
1.0826
1.17234
1.26434
1.35165
1.42723
1.48513
1.52105
1.53261
1.51921
1.48175
1.4224
1.34462
1.25288
1.15229
1.04844
0.946724
0.85116
0.763509
0.684589
0.614151
0.549002
0.483671
0.412186
0.32948
0.232616
0.121526
-0.000915909
-0.129418
-0.257203
-0.377829
-0.486611
-0.579135
-0.652183
-0.698184
-0.70885
-0.691065
-0.661087
-0.636603
-0.631955
-0.65475
-0.705062
-0.777048
-0.861649
-0.948921
-1.03051
-1.10224
-1.16172
-1.20708
-1.23312
-1.23406
-1.21247
-1.18125
-1.15556
-1.1483
-1.16614
-1.20791
-1.26584
-1.32924
-1.38894
-1.44084
-1.48628
-1.52682
-1.56256
-1.59215
-1.61268
-1.62048
-1.61249
-1.58761
-1.54735
-1.49549
-1.43683
-1.37559
-1.31416
-1.25276
-1.1902
-1.12435
-1.05286
-0.973849
-0.886143
-0.78904
-0.682198
-0.565413
-0.438418
-0.300812
-0.152174
0.00941391
0.188258
0.389265
0.615782
0.856603
1.07025
1.28485
1.52005
1.72365
1.78989
1.63129
1.25323
0.770271
0.350782
0.148901
0.103221
0.076733
0.0524174
0.0274403
0
-0.0160072
-0.0357273
-0.0591579
-0.0862198
-0.117559
-0.154165
-0.195056
-0.238258
-0.371777
-0.0168121
1.36964
4.17267
8.30473
13.0421
17.1693
19.4211
19.0346
16.126
11.6724
7.08296
3.58083
1.73014
1.34962
1.80006
2.4014
2.65261
2.70729
2.55711
2.28622
1.9952
1.77633
1.71071
1.71997
1.75482
1.80238
1.85991
1.92717
2.00397
2.09108
2.18622
2.28232
2.37115
2.44574
2.50296
2.54516
2.58013
2.61944
2.67549
2.75815
2.86777
3.00017
3.15132
3.31797
3.49692
3.68493
3.87908
4.07684
4.27594
4.47413
4.66872
4.85567
5.02951
5.18573
5.32087
5.43347
5.52453
5.59749
5.65728
5.70896
5.7561
5.79955
5.83704
5.86351
5.87284
5.85983
5.82166
5.75854
5.67344
5.57115
5.45815
5.34014
5.22046
5.10089
4.98215
4.86394
4.74505
4.62378
4.49833
4.36733
4.23024
4.0875
3.94055
3.79148
3.64263
3.49615
3.35363
3.21603
3.0838
2.95712
2.83632
2.72213
2.61584
2.51925
2.43441
2.36325
2.30718
2.26681
2.24165
2.22989
2.22847
2.23324
2.23932
2.24191
2.23713
2.22251
2.19729
2.16225
2.11926
2.07047
2.01756
1.96127
1.90099
1.83527
1.76235
1.68102
1.59129
1.49483
1.395
1.29642
1.20391
1.12193
1.05417
1.00415
0.974728
0.962924
0.960412
0.958123
0.948934
0.929797
0.902551
0.87315
0.849649
0.839776
0.848382
0.87806
0.929127
1.00076
1.09214
1.20089
1.33102
1.50038
1.71642
1.9477
2.15433
2.3043
2.38397
2.39637
2.35047
2.2508
2.09651
1.89197
1.66182
1.42981
1.21408
1.02348
0.857025
0.713763
0.595443
0.50246
0.432796
0.380761
0.338877
0.298622
0.246735
0.125339
-0.0967056
-0.397578
-0.738946
-0.788002
0
2.12798
5.78518
10.5504
15.3539
18.8144
19.8325
18.1192
14.3365
9.75777
5.65933
2.8092
1.30757
0.781459
0.722731
0.635996
0.551594
0.470086
0.392699
0.320239
0.252819
0.188893
0.125951
0.0611928
-0.00884695
-0.0861068
-0.163032
-0.226169
-0.2608
-0.256287
-0.209552
-0.125279
-0.0132487
0.115462
0.251111
0.387017
0.52038
0.649174
0.770836
0.883871
0.988041
1.08471
1.17708
1.26989
1.36847
1.47741
1.59914
1.73297
1.87406
2.01685
2.15512
2.28309
2.39665
2.49411
2.57636
2.6464
2.70842
2.7667
2.82454
2.88369
2.94224
2.99535
3.03692
3.06119
3.06402
3.04346
2.99997
2.93637
2.85787
2.77165
2.68397
2.59991
2.52276
2.45283
2.38846
2.32609
2.26126
2.18978
2.10874
2.01701
1.91519
1.805
1.68863
1.56815
1.44464
1.31844
1.18959
1.0582
0.924704
0.790113
0.656035
0.524612
0.398365
0.280087
0.17381
0.0848455
0.0161935
-0.0301369
-0.0537423
-0.0563508
-0.0410963
-0.0143017
0.0167117
0.0450897
0.0658416
0.0767558
0.0786011
0.0746006
0.0693471
0.0672239
0.0708483
0.0832851
0.103412
0.125618
0.142948
0.149805
0.144118
0.128073
0.107179
0.0881909
0.0768917
0.0745966
0.0802126
0.0930846
0.112748
0.138833
0.171376
0.21102
0.259045
0.317213
0.387462
0.471528
0.57054
0.684722
0.813235
0.954247
1.1052
1.26324
1.42567
1.59042
1.75633
1.92336
2.09424
2.27268
2.44534
2.58507
2.66326
2.66256
2.58257
2.43744
2.24915
2.04137
1.83674
1.64953
1.48189
1.33213
1.199
1.08267
0.982991
0.899329
0.829195
0.765085
0.698246
0.620334
0.518826
0.391389
0.24197
0
0.37911
1.97372
5.10149
9.58409
14.6336
19.0178
21.4935
21.329
18.644
14.3631
9.79732
6.08198
3.77114
2.77002
2.5717
2.61112
2.41482
2.22444
2.04568
1.8833
1.74094
1.62105
1.52494
1.45302
1.4059
1.3849
1.39001
1.42117
1.47792
1.55885
1.66121
1.78084
1.91254
2.0507
2.19002
2.32644
2.45693
2.57944
2.69257
2.79595
2.89004
2.97606
3.05612
3.1331
3.21042
3.29166
3.3801
3.47814
3.58688
3.70622
3.83479
3.97011
4.10897
4.24727
4.37956
4.49878
4.59815
4.67318
4.72113
4.74157
4.73674
4.71165
4.67334
4.62969
4.58768
4.55145
4.52107
4.49454
4.46926
4.44195
4.40909
4.3676
4.31528
4.25121
4.1758
4.09065
3.99815
3.90094
3.80129
3.70068
3.59962
3.49776
3.39396
3.28659
3.17376
3.05367
2.92475
2.78597
2.63705
2.47874
2.31272
2.14121
1.97353
1.82448
1.70908
1.63814
1.61453
1.63189
1.67636
1.73086
1.78001
1.81583
1.83976
1.85169
1.85303
1.84581
1.83213
1.81419
1.79345
1.77122
1.74884
1.72764
1.7088
1.6931
1.68076
1.67146
1.66428
1.65785
1.65041
1.63992
1.62436
1.60192
1.5714
1.53197
1.48332
1.4285
1.37473
1.33102
1.30596
1.30597
1.33409
1.38983
1.46997
1.56991
1.68509
1.81089
1.94358
2.08063
2.22038
2.36062
2.49641
2.62046
2.72485
2.80231
2.84741
2.8572
2.83098
2.76984
2.67629
2.55432
2.41194
2.25794
2.09963
1.94301
1.7927
1.65133
1.52021
1.39931
1.28766
1.18329
1.08305
0.982635
0.875689
0.750155
0.589176
0.383934
0.143979
-0.0957684
0
0.903923
3.11258
6.80463
11.5209
16.1341
19.2389
19.8039
17.6908
13.7053
9.1553
5.22183
2.52762
1.09027
0.562586
0.526404
0.502808
0.475127
0.440322
0.397155
0.346418
0.29061
0.233202
0.177745
0.126787
0.0820768
0.0444351
0.0140486
-0.00908597
-0.0246041
-0.0317291
-0.0292362
-0.0156497
0.0103652
0.0495939
0.10197
0.166453
0.241119
0.32343
0.410606
0.500344
0.590913
0.681744
0.773504
0.867807
0.966579
1.07122
1.18363
1.30192
1.41894
1.52678
1.62054
1.70102
1.77476
1.85128
1.93876
2.04024
2.15012
2.26186
2.36972
2.46844
2.5543
2.62554
2.6822
2.72529
2.75585
2.77531
2.78443
2.78332
2.77171
2.74923
2.71568
2.67112
2.61597
2.55146
2.47942
2.40153
2.31943
2.23487
2.14952
2.06486
1.98208
1.90217
1.82603
1.75469
1.68929
1.63098
1.58137
1.54277
1.51456
1.49164
1.46752
1.43672
1.39701
1.35058
1.30346
1.26346
1.23777
1.22823
1.23464
1.25728
1.29564
1.34887
1.4206
1.52007
1.64567
1.77479
1.87751
1.92761
1.91373
1.84478
1.74755
1.65792
1.60926
1.61209
1.64921
1.73046
1.84322
1.95672
2.03979
2.07038
2.04239
1.96759
1.87178
1.78602
1.73578
1.72345
1.73522
1.76164
1.79918
1.84627
1.90204
1.96631
2.03918
2.12046
2.20914
2.30319
2.39973
2.49583
2.58899
2.67767
2.76156
2.84097
2.91649
2.98834
3.05351
3.10343
3.12477
3.10337
3.02906
2.89976
2.72336
2.51675
2.30187
2.09989
1.91888
1.75672
1.61352
1.48908
1.3814
1.28702
1.20145
1.12018
1.03548
0.916329
0.700438
0.41824
0.12506
-0.147499
0
0.806713
2.65053
5.7724
10.0038
14.5864
18.301
19.935
18.8688
15.4286
10.7647
6.31077
3.14045
1.58443
1.27957
1.5392
1.41707
1.28532
1.14242
0.99022
0.835706
0.689013
0.559673
0.450005
0.370717
0.327422
0.309636
0.301652
0.287052
0.253051
0.193475
0.109737
0.00983338
-0.0941505
-0.189311
-0.268284
-0.329545
-0.371999
-0.394711
-0.397876
-0.382289
-0.34896
-0.299563
-0.236636
-0.162369
-0.0790345
0.0104815
0.102922
0.195053
0.28418
0.36855
0.44754
0.521592
0.591932
0.660199
0.728091
0.797119
0.868478
0.942996
1.02106
1.10246
1.18656
1.27126
1.35112
1.41895
1.46761
1.49203
1.49068
1.46569
1.42189
1.36491
1.29973
1.23066
1.16021
1.08991
1.0213
0.956162
0.896559
0.844669
0.802238
0.770252
0.749059
0.738525
0.735762
0.736079
0.734599
0.727306
0.711791
0.687485
0.655343
0.617181
0.574991
0.530686
0.485751
0.441408
0.399233
0.361287
0.329779
0.306698
0.293235
0.289309
0.293405
0.302833
0.314287
0.324537
0.331182
0.332674
0.328075
0.316929
0.29915
0.274899
0.244643
0.209296
0.170339
0.129795
0.0900497
0.0535456
0.0223795
-0.0022604
-0.019455
-0.0289595
-0.0311155
-0.02651
-0.0166903
-0.00481033
0.00520248
0.010051
0.00818253
0.000637436
-0.00876083
-0.0140562
-0.00851231
0.0137815
0.0555916
0.114908
0.188882
0.275386
0.371422
0.473353
0.577552
0.68037
0.778372
0.868573
0.948503
1.01616
1.06959
1.10466
1.11668
1.10277
1.06042
0.988689
0.889523
0.768532
0.634741
0.499198
0.372764
0.261974
0.171067
0.100458
0.0459217
0
-0.0355326
-0.0804752
-0.142353
-0.232412
-0.363258
-0.527259
-0.709228
-0.872973
-0.391562
1.19892
4.21424
8.54274
13.4853
17.8594
20.4037
20.3261
17.6955
13.4273
8.8526
5.12076
2.78029
1.73464
1.50909
1.59752
1.44695
1.29527
1.14175
0.987377
0.837538
0.700708
0.586102
0.50145
0.451565
0.437926
0.458961
0.510528
0.586361
0.67842
0.778468
0.87921
0.975867
1.06758
1.15678
1.24592
1.33762
1.43389
1.5356
1.64241
1.75389
1.86976
1.99012
2.11557
2.24712
2.3859
2.53269
2.68742
2.8496
3.01787
3.18467
3.33796
3.46611
3.56167
3.62415
3.66053
3.68302
3.70494
3.73624
3.77933
3.83016
3.8858
3.94344
4.00067
4.0557
4.10711
4.15129
4.18157
4.18906
4.16334
4.09687
3.99006
3.854
3.7093
3.58073
3.48983
3.47391
3.52139
3.59893
3.66815
3.70192
3.69205
3.64688
3.58222
3.51207
3.44392
3.37891
3.31717
3.25953
3.20751
3.16312
3.12839
3.105
3.09397
3.09554
3.1093
3.13365
3.16545
3.20132
3.23866
3.27624
3.31438
3.35472
3.39939
3.4527
3.51643
3.58156
3.63356
3.65844
3.64951
3.61131
3.55825
3.50869
3.47749
3.46748
3.47034
3.48345
3.50394
3.5289
3.55565
3.58154
3.60344
3.61841
3.62451
3.62211
3.61483
3.60963
3.61543
3.64097
3.69235
3.76978
3.87086
3.98991
4.11952
4.25199
4.3815
4.50262
4.60972
4.6984
4.76488
4.80524
4.81545
4.79156
4.73005
4.62825
4.48487
4.30049
4.08097
3.83492
3.57095
3.29713
3.02138
2.7517
2.49576
2.26026
2.05147
1.87283
1.7254
1.60778
1.51612
1.44665
1.42904
1.38651
1.01483
0.365193
-0.325995
-0.623306
0
1.99301
5.50032
10.1597
15.066
18.995
20.8521
20.1375
17.1687
12.9188
8.56561
5.01528
2.65077
1.37522
0.840509
0.675227
0.518395
0.36359
0.213306
0.0702997
-0.0625013
-0.182354
-0.287007
-0.374828
-0.445394
-0.499161
-0.537157
-0.560406
-0.5699
-0.566671
-0.551734
-0.526388
-0.492235
-0.45136
-0.407461
-0.364394
-0.325393
-0.292348
-0.265388
-0.242899
-0.221921
-0.198766
-0.169665
-0.13196
-0.0837975
-0.0235546
0.0499054
0.136936
0.23696
0.348358
0.468465
0.593733
0.720076
0.84335
0.959866
1.06682
1.16254
1.24648
1.31893
1.38053
1.43185
1.47322
1.50467
1.52573
1.53549
1.53305
1.51794
1.49053
1.45223
1.4054
1.35305
1.29841
1.24419
1.19218
1.14326
1.09746
1.05417
1.01238
0.971055
0.929224
0.88604
0.840634
0.79199
0.739064
0.68077
0.616267
0.545471
0.469365
0.389959
0.312953
0.24638
0.19801
0.172996
0.172365
0.193678
0.228292
0.266337
0.300016
0.325804
0.344659
0.360327
0.376692
0.395482
0.415173
0.432927
0.445393
0.450054
0.446238
0.435507
0.421355
0.408396
0.401041
0.401964
0.412067
0.431242
0.458963
0.491677
0.524644
0.553609
0.576019
0.591764
0.603205
0.61449
0.630441
0.655394
0.691152
0.737691
0.794726
0.861745
0.937772
1.02145
1.11113
1.20493
1.30084
1.39694
1.49168
1.58416
1.67445
1.76353
1.85342
1.94914
2.06105
2.18411
2.29303
2.35237
2.3326
2.22462
2.04435
1.82554
1.60595
1.41556
1.25349
1.11039
0.984549
0.877283
0.789343
0.721226
0.672133
0.63829
0.614549
0.59526
0.566064
0.340761
-0.0743336
-0.593701
-1.09203
-1.05289
0
2.46886
6.38341
11.2041
15.8357
18.9669
19.6217
17.6304
13.7283
9.20237
5.29114
2.69014
1.41477
1.02382
0.985451
0.851735
0.72218
0.600461
0.490761
0.396413
0.319817
0.262039
0.224502
0.205223
0.200768
0.20752
0.222653
0.244805
0.274227
0.312435
0.361505
0.423286
0.497455
0.583026
0.678877
0.783091
0.893175
1.00645
1.12034
1.2329
1.34325
1.45177
1.56011
1.67084
1.787
1.91142
2.04607
2.1915
2.34681
2.50959
2.67611
2.84177
3.00165
3.15115
3.28645
3.40494
3.50533
3.58756
3.65244
3.70117
3.73503
3.75519
3.76229
3.75631
3.73667
3.70238
3.65234
3.58563
3.50185
3.40147
3.28611
3.15823
3.02105
2.87841
2.73444
2.59312
2.45799
2.33194
2.21704
2.11455
2.02488
1.94797
1.88355
1.82984
1.78438
1.74467
1.70877
1.67558
1.64506
1.61798
1.59549
1.5785
1.56679
1.55983
1.55631
1.55431
1.55206
1.54859
1.54415
1.54032
1.53967
1.54584
1.56618
1.60225
1.64191
1.66688
1.66111
1.61946
1.55154
1.47848
1.42373
1.40283
1.40732
1.42903
1.45858
1.48542
1.50038
1.49736
1.47393
1.43098
1.37184
1.30129
1.22498
1.14771
1.07282
1.00267
0.939489
0.885921
0.845548
0.822134
0.818345
0.836567
0.878159
0.942619
1.02702
1.12604
1.23264
1.33923
1.43937
1.53002
1.60885
1.67401
1.7245
1.75975
1.77938
1.78282
1.76926
1.73766
1.68705
1.61727
1.52877
1.42323
1.30369
1.17432
1.03997
0.90549
0.775008
0.651662
0.537278
0.432109
0.334908
0.24328
0.153017
0.0514038
-0.0800274
-0.243925
-0.428832
-0.513521
0
1.63058
4.71426
9.08601
13.9189
17.9054
19.7705
18.8735
15.5469
10.9488
6.50663
3.28315
1.62001
1.2034
1.41849
1.65174
1.57785
1.48857
1.3853
1.27366
1.16284
1.06338
0.981319
0.91636
0.869641
0.842183
0.834086
0.844976
0.874381
0.921696
0.985996
1.06668
1.16278
1.27264
1.39392
1.52371
1.6588
1.79622
1.93367
2.06971
2.20398
2.33713
2.47066
2.60665
2.74744
2.89528
3.05205
3.2189
3.39593
3.58196
3.77435
3.96909
4.16043
4.34143
4.5056
4.64809
4.76657
4.86156
4.93611
4.99485
5.04292
5.0848
5.12394
5.16189
5.19887
5.23407
5.26601
5.29287
5.31282
5.32422
5.32578
5.31662
5.29626
5.26466
5.22223
5.17002
5.10938
5.04151
4.96751
4.88828
4.80443
4.71631
4.62418
4.5285
4.43028
4.33129
4.23419
4.14258
4.06078
3.99307
3.94313
3.91361
3.90571
3.91902
3.95374
4.00926
4.08029
4.15653
4.22595
4.27779
4.30422
4.3017
4.27185
4.22165
100
269
437
606
775
944
1114
1284
1453
1624
1795
1965
2136
2306
2476
2644
2813
2982
3150
3317
3484
3652
3610
0
0
0
0
0
0
0
0
0
0
0
0
0
0
0
0
0
0
0
0
0
0
0
0
0
0
0
0
0
0
0
0
0
0
0
0
0
0
0
0
0
0
0
0
0
0
0
0
0
0
0
0
0
0
0
0
0
0
0
0
0
0
0
0
0
0
0
0
0
0
0
0
0
0
0
0
0
0
0
0
0
0
0
0
0
0
0
0
0
0
0
0
0
0
0
0
0
0
0
0
0
0
0
0
0
0
0
0
0
0
0
0
0
0
0
0
0
0
0
0
0
0
0
0
0
0
0
0
0
0
0
0
0
0
0
0
0
0
0
0
0
0
0
0
0
0
0
0
0
0
0
0
0
0
0
0
0
0
0
0
0
0
0
0
0
0
0
0
0
0
0
0
0
0
0
0
0
0
0
0
0
0
0
0
0
0
0
0
0
0
0
0
0
0
0
0
0
0
0
0
0
0
0
0
0
0
0
0
0
0
0
0
0
0
0
0
0
0
0
0
0
0
0
0
0
0
0
0
0
0
0
0
0
0
0
0
0
0
0
0
0
0
0
0
0
0
0
0
0
0
0
0
0
0
0
0
0
0
0
0
0
0
0
0
0
0
0
0
0
0
0
0
0
0
0
0
0
0
0
0
0
0
0
0
0
0
0
0
0
0
0
0
0
0
0
0
0
0
0
0
0
0
0
0
0
0
0
0
0
0
0
0
0
0
0
0
0
0
0
0
0
0
0
0
0
0
0
0
0
0
0
0
0
0
0
0
0
0
0
0
0
0
0
0
0
0
0
0
0
0
0
0
0
0
0
0
0
0
0
0
0
0
0
0
0
0
0
0
0
0
0
0
0
0
0
0
0
0
0
0
0
0
0
0
0
0
0
0
0
0
0
0
0
0
0
0
0
0
0
0
0
0
0
0
0
0
0
0
0
0
0
0
0
0
0
0
0
0
0
0
0
0
0
0
0
0
0
0
0
0
0
0
0
0
0
0
0
0
0
0
0
0
0
0
0
0
0
0
0
0
0
0
0
0
0
0
0
0
0
0
0
0
0
0
0
0
0
0
0
0
0
0
0
0
0
0
0
0
0
0
0
0
0
0
0
0
0
0
0
0
0
0
0
0
0
0
0
0
0
0
0
0
0
0
0
0
0
0
0
0
0
0
0
0
0
0
0
0
0
0
0
0
0
0
0
0
0
0
0
0
0
0
0
0
0
0
0
0
0
0
0
0
0
0
0
0
0
0
0
0
0
0
0
0
0
0
0
0
0
0
0
0
0
0
0
0
0
0
0
0
0
0
0
0
0
0
0
0
0
0
0
0
0
0
0
0
0
0
0
0
0
0
0
0
0
0
0
0
0
0
0
0
0
0
0
0
0
0
0
0
0
0
0
0
0
0
0
0
0
0
0
0
0
0
0
0
0
0
0
0
0
0
0
0
0
0
0
0
0
0
0
0
0
0
0
0
0
0
0
0
0
0
0
0
0
0
0
0
0
0
0
0
0
0
0
0
0
0
0
0
0
0
0
0
0
0
0
0
0
0
0
0
0
0
0
0
0
0
0
0
0
0
0
0
0
0
0
0
0
0
0
0
0
0
0
0
0
0
0
0
0
0
0
0
0
0
0
0
0
0
0
0
0
0
0
0
0
0
0
0
0
0
0
0
0
0
0
0
0
0
0
0
0
0
0
0
0
0
0
0
0
0
0
0
0
0
0
0
0
0
0
0
0
0
0
0
0
0
0
0
0
0
0
0
0
0
0
0
0
0
0
0
0
0
0
0
0
0
0
0
0
0
0
0
0
0
0
0
0
0
0
0
0
0
0
0
0
0
0
0
0
0
0
0
0
0
0
0
0
0
0
0
0
0
0
0
0
0
0
0
0
0
0
0
0
0
0
0
0
0
0
0
0
0
0
0
0
0
0
0
0
0
0
0
0
0
0
0
0
0
0
0
0
0
0
0
0
0
0
0
0
0
0
0
0
0
0
0
0
0
0
0
0
0
0
0
0
0
0
0
0
0
0
0
0
0
0
0
0
0
0
0
0
0
0
0
0
0
0
0
0
0
0
0
0
0
0
0
0
0
0
0
0
0
0
0
0
0
0
0
0
0
0
0
0
0
0
0
0
0
0
0
0
0
0
0
0
0
0
0
0
0
0
0
0
0
0
0
0
0
0
0
0
0
0
0
0
0
0
0
0
0
0
0
0
0
0
0
0
0
0
0
0
0
0
0
0
0
0
0
0
0
0
0
0
0
0
0
0
0
0
0
0
0
0
0
0
0
0
0
0
0
0
0
0
0
0
0
0
0
0
0
0
0
0
0
0
0
0
0
0
0
0
0
0
0
0
0
0
0
0
0
0
0
0
0
0
0
0
0
0
0
0
0
0
0
0
0
0
0
0
0
0
0
0
0
0
0
0
0
0
0
0
0
0
0
0
0
0
0
0
0
0
0
0
0
0
0
0
0
0
0
0
0
0
0
0
0
0
0
0
0
0
0
0
0
0
0
0
0
0
0
0
0
0
0
0
0
0
0
0
0
0
0
0
0
0
0
0
0
0
0
0
0
0
0
0
0
0
0
0
0
0
0
0
0
0
0
0
0
0
0
0
0
0
0
0
0
0
0
0
0
0
0
0
0
0
0
0
0
0
0
0
0
0
0
0
0
0
0
0
0
0
0
0
0
0
0
0
0
0
0
0
0
0
0
0
0
0
0
0
0
0
0
0
0
0
0
0
0
0
0
0
0
0
0
0
0
0
0
0
0
0
0
0
0
0
0
0
0
0
0
0
0
0
0
0
0
0
0
0
0
0
0
0
0
0
0
0
0
0
0
0
0
0
0
0
0
0
0
0
0
0
0
0
0
0
0
0
0
0
0
0
0
0
0
0
0
0
0
0
0
0
0
0
0
0
0
0
0
0
0
0
0
0
0
0
0
0
0
0
0
0
0
0
0
0
0
0
0
0
0
0
0
0
0
0
0
0
0
0
0
0
0
0
0
0
0
0
0
0
0
0
0
0
0
0
0
0
0
0
0
0
0
0
0
0
0
0
0
0
0
0
0
0
0
0
0
0
0
0
0
0
0
0
0
0
0
0
0
0
0
0
0
0
0
0
0
0
0
0
0
0
0
0
0
0
0
0
0
0
0
0
0
0
0
0
0
0
0
0
0
0
0
0
0
0
0
0
0
0
0
0
0
0
0
0
0
0
0
0
0
0
0
0
0
0
0
0
0
0
0
0
0
0
0
0
0
0
0
0
0
0
0
0
0
0
0
0
0
0
0
0
0
0
0
0
0
0
0
0
0
0
0
0
0
0
0
0
0
0
0
0
0
0
0
0
0
0
0
0
0
0
0
0
0
0
0
0
0
0
0
0
0
0
0
0
0
0
0
0
0
0
0
0
0
0
0
0
0
0
0
0
0
0
0
0
0
0
0
0
0
0
0
0
0
0
0
0
0
0
0
0
0
0
0
0
0
0
0
0
0
0
0
0
0
0
0
0
0
0
0
0
0
0
0
0
0
0
0
0
0
0
0
0
0
0
0
0
0
0
0
0
0
0
0
0
0
0
0
0
0
0
0
0
0
0
0
0
0
0
0
0
0
0
0
0
0
0
0
0
0
0
0
0
0
0
0
0
0
0
0
0
0
0
0
0
0
0
0
0
0
0
0
0
0
0
0
0
0
0
0
0
0
0
0
0
0
0
0
0
0
0
0
0
0
0
0
0
0
0
0
0
0
0
0
0
0
0
0
0
0
0
0
0
0
0
0
0
0
0
0
0
0
0
0
0
0
0
0
0
0
0
0
0
0
0
0
0
0
0
0
0
0
0
0
0
0
0
0
0
0
0
0
0
0
0
0
0
0
0
0
0
0
0
0
0
0
0
0
0
0
0
0
0
0
0
0
0
0
0
0
0
0
0
0
0
0
0
0
0
0
0
0
0
0
0
0
0
0
0
0
0
0
0
0
0
0
0
0
0
0
0
0
0
0
0
0
0
0
0
0
0
0
0
0
0
0
0
0
0
0
0
0
0
0
0
0
0
0
0
0
0
0
0
0
0
0
0
0
0
0
0
0
0
0
0
0
0
0
0
0
0
0
0
0
0
0
0
0
0
0
0
0
0
0
0
0
0
0
0
0
0
0
0
0
0
0
0
0
0
0
0
0
0
0
0
0
0
0
0
0
0
0
0
0
0
0
0
0
0
0
0
0
0
0
0
0
0
0
0
0
0
0
0
0
0
0
0
0
0
0
0
0
0
0
0
0
0
0
0
0
0
0
0
0
0
0
0
0
0
0
0
0
0
0
0
0
0
0
0
0
0
0
0
0
0
0
0
0
0
0
0
0
0
0
0
0
0
0
0
0
0
0
0
0
0
0
0
0
0
0
0
0
0
0
0
0
0
0
0
0
0
0
0
0
0
0
0
0
0
0
0
0
0
0
0
0
0
0
0
0
0
0
0
0
0
0
0
0
0
0
0
0
0
0
0
0
0
0
0
0
0
0
0
0
0
0
0
0
0
0
0
0
0
0
0
0
0
0
0
0
0
0
0
0
0
0
0
0
0
0
0
0
0
0
0
0
0
0
0
0
0
0
0
0
0
0
0
0
0
0
0
0
0
0
0
0
0
0
0
0
0
0
0
0
0
0
0
0
0
0
0
0
0
0
0
0
0
0
0
0
0
0
0
0
0
0
0
0
0
0
0
0
0
0
0
0
0
0
0
0
0
0
0
0
0
0
0
0
0
0
0
0
0
0
0
0
0
0
0
0
0
0
0
0
0
0
0
0
0
0
0
0
0
0
0
0
0
0
0
0
0
0
0
0
0
0
0
0
0
0
0
0
0
0
0
0
0
0
0
0
0
0
0
0
0
0
0
0
0
0
0
0
0
0
0
0
0
0
0
0
0
0
0
0
0
0
0
0
0
0
0
0
0
0
0
0
0
0
0
0
0
0
0
0
0
0
0
0
0
0
0
0
0
0
0
0
0
0
0
0
0
0
0
0
0
0
0
0
0
0
0
0
0
0
0
0
0
0
0
0
0
0
0
0
0
0
0
0
0
0
0
0
0
0
0
0
0
0
0
0
0
0
0
0
0
0
0
0
0
0
0
0
0
0
0
0
0
0
0
0
0
0
0
0
0
0
0
0
0
0
0
0
0
0
0
0
0
0
0
0
0
0
0
0
0
0
0
0
0
0
0
0
0
0
0
0
0
0
0
0
0
0
0
0
0
0
0
0
0
0
0
0
0
0
0
0
0
0
0
0
0
0
0
0
0
0
0
0
0
0
0
0
0
0
0
0
0
0
0
0
0
0
0
0
0
0
0
0
0
0
0
0
0
0
0
0
0
0
0
0
0
0
0
0
0
0
0
0
0
0
0
0
0
0
0
0
0
0
0
0
0
0
0
0
0
0
0
0
0
0
0
0
0
0
0
0
0
0
0
0
0
0
0
0
0
0
0
0
0
0
0
0
0
0
0
0
0
0
0
0
0
0
0
0
0
0
0
0
0
0
0
0
0
0
0
0
0
0
0
0
0
0
0
0
0
0
0
0
0
0
0
0
0
0
0
0
0
0
0
0
0
0
0
0
0
0
0
0
0
0
0
0
0
0
0
0
0
0
0
0
0
0
0
0
0
0
0
0
0
0
0
0
0
0
0
0
0
0
0
0
0
0
0
0
0
0
0
0
0
0
0
0
0
0
0
0
0
0
0
0
0
0
0
0
0
0
0
0
0
0
0
0
0
0
0
0
0
0
0
0
0
0
0
0
0
0
0
0
0
0
0
0
0
0
0
0
0
0
0
0
0
0
0
0
0
0
0
0
0
0
0
0
0
0
0
0
0
0
0
0
0
0
0
0
0
0
0
0
0
0
0
0
0
0
0
0
0
0
0
0
0
0
0
0
0
0
0
0
0
0
0
0
0
0
0
0
0
0
0
0
0
0
0
0
0
0
0
0
0
0
0
0
0
0
0
0
0
0
0
0
0
0
0
0
0
0
0
0
0
0
0
0
0
0
0
0
0
0
0
0
0
0
0
0
0
0
0
0
0
0
0
0
0
0
0
0
0
0
0
0
0
0
0
0
0
0
0
0
0
0
0
0
0
0
0
0
0
0
0
0
0
0
0
0
0
0
0
0
0
0
0
0
0
0
0
0
0
0
0
0
0
0
0
0
0
0
0
0
0
0
0
0
0
0
0
0
0
0
0
0
0
0
0
0
0
0
0
0
0
0
0
0
0
0
0
0
0
0
0
0
0
0
0
0
0
0
0
0
0
0
0
0
0
0
0
0
0
0
0
0
0
0
0
0
0
0
0
0
0
0
0
0
0
0
0
0
0
0
0
0
0
0
0
0
0
0
0
0
0
0
0
0
0
0
0
0
0
0
0
0
0
0
0
0
0
0
0
0
0
0
0
0
0
0
0
0
0
0
0
0
0
0
0
0
0
0
0
0
0
0
0
0
0
0
0
0
0
0
0
0
0
0
0
0
0
0
0
0
0
0
0
0
0
0
0
0
0
0
0
0
0
0
0
0
0
0
0
0
0
0
0
0
0
0
0
0
0
0
0
0
0
0
0
0
0
0
0
0
0
0
0
0
0
0
0
0
0
0
0
0
0
0
0
0
0
0
0
0
0
0
0
0
0
0
0
0
0
0
0
0
0
0
0
0
0
0
0
0
0
0
0
0
0
0
0
0
0
0
0
0
0
0
0
0
0
0
0
0
0
0
0
0
0
0
0
0
0
0
0
0
0
0
0
0
0
0
0
0
0
0
0
0
0
0
0
0
0
0
0
0
0
0
0
0
0
0
0
0
0
0
0
0
0
0
0
0
0
0
0
0
0
0
0
0
0
0
0
0
0
0
0
0
0
0
0
0
0
0
0
0
0
0
0
0
0
0
0
0
0
0
0
0
0
0
0
0
0
0
0
0
0
0
0
0
0
0
0
0
0
0
0
0
0
0
0
0
0
0
0
0
0
0
0
0
0
0
0
0
0
0
0
0
0
0
0
0
0
0
0
0
0
0
0
0
0
0
0
0
0
0
0
0
0
0
0
0
0
0
0
0
0
0
0
0
0
0
0
0
0
0
0
0
0
0
0
0
0
0
0
0
0
0
0
0
0
0
0
0
0
0
0
0
0
0
0
0
0
0
0
0
0
0
0
0
0
0
0
0
0
0
0
0
0
0
0
0
0
0
0
0
0
0
0
0
0
0
0
0
0
0
0
0
0
0
0
0
0
0
0
0
0
0
0
0
0
0
0
0
0
0
0
0
0
0
0
0
0
0
0
0
0
0
0
0
0
0
0
0
0
0
0
0
0
0
0
0
0
0
0
0
0
0
0
0
0
0
0
0
0
0
0
0
0
0
0
0
0
0
0
0
0
0
0
0
0
0
0
0
0
0
0
0
0
0
0
0
0
0
0
0
0
0
0
0
0
0
0
0
0
0
0
0
0
0
0
0
0
0
0
0
0
0
0
0
0
0
0
0
0
0
0
0
0
0
0
0
0
0
0
0
0
0
0
0
0
0
0
0
0
0
0
0
0
0
0
0
0
0
0
0
0
0
0
0
0
0
0
0
0
0
0
0
0
0
0
0
0
0
0
0
0
0
0
0
0
0
0
0
0
0
0
0
0
0
0
0
0
0
0
0
0
0
0
0
0
0
0
0
0
0
0
0
0
0
0
0
0
0
0
0
0
0
0
0
0
0
0
0
0
0
0
0
0
0
0
0
0
0
0
0
0
0
0
0
0
0
0
0
0
0
0
0
0
0
0
0
0
0
0
0
0
0
0
0
0
0
0
0
0
0
0
0
0
0
0
0
0
0
0
0
0
0
0
0
0
0
0
0
0
0
0
0
0
0
0
0
0
0
0
0
0
0
0
0
0
0
0
0
0
0
0
0
0
0
0
0
0
0
0
0
0
0
0
0
0
0
0
0
0
0
0
0
0
0
0
0
0
0
0
0
0
0
0
0
0
0
0
0
0
0
0
0
0
0
0
0
0
0
0
0
0
0
0
0
0
0
0
0
0
0
0
0
0
0
0
0
0
0
0
0
0
0
0
0
0
0
0
0
0
0
0
0
0
0
0
0
0
0
0
0
0
0
0
0
0
0
0
0
0
0
0
0
0
0
0
0
0
0
0
0
0
0
0
0
0
0
0
0
0
0
0
0
0
0
0
0
0
0
0
0
0
0
0
0
0
0
0
0
0
0
0
0
0
0
0
0
0
0
0
0
0
0
0
0
0
0
0
0
0
0
0
0
0
0
0
0
0
0
0
0
0
0
0
0
0
0
0
0
0
0
0
0
0
0
0
0
0
0
0
0
0
0
0
0
0
0
0
0
0
0
0
0
0
0
0
0
0
0
0
0
0
0
0
0
0
0
0
0
0
0
0
0
0
0
0
0
0
0
