12.5608
10.007
6.61145
3.41644
1.18202
0.123139
-0.0341278
0.228446
0.326668
0.413421
0.479827
0.521126
0.544693
0.554681
0.554695
0.549223
0.543027
0.540538
0.545371
0.559745
0.584567
0.61982
0.664663
0.717618
0.776882
0.840671
0.90752
0.976498
1.0473
1.12015
1.19561
1.2742
1.35611
1.44113
1.5286
1.61728
1.70648
1.79696
1.89139
1.99422
2.11079
2.24591
2.40252
2.5804
2.77485
2.98098
3.19371
3.40798
3.61953
3.82534
4.02376
4.21411
4.39619
4.56971
4.73339
4.88377
5.01334
5.10915
5.15309
5.12817
5.02606
4.85226
4.62614
4.37595
4.13139
3.9121
3.719
3.55484
3.42446
3.3308
3.27447
3.25333
3.26222
3.29319
3.33633
3.3811
3.41787
3.441
3.44759
3.4355
3.40429
3.35492
3.28933
3.21057
3.12241
3.0288
2.93365
2.84072
2.75331
2.67404
2.60466
2.54568
2.49652
2.45579
2.42152
2.39136
2.36273
2.33293
2.29921
2.25924
2.21152
2.15576
2.09221
2.02465
1.95952
1.90393
1.86395
1.84334
1.84302
1.86144
1.89559
1.94227
1.99832
2.06134
2.13004
2.20422
2.28331
2.3656
2.44776
2.5239
2.58509
2.62272
2.62918
2.59973
2.53458
2.44013
2.32836
2.21402
2.11011
2.0229
1.94811
1.88035
1.81523
1.74853
1.67737
1.60084
1.51978
1.43599
1.35102
1.26514
1.17693
1.08194
0.963689
0.786125
0.547627
0.271181
0
0.248321
1.31306
3.34584
6.19232
9.31559
11.8899
13.0863
12.4462
10.131
6.87989
3.67448
1.30312
0.0745926
-0.183402
0.104003
0.430783
0.709464
0.908589
1.01942
1.0903
1.14524
1.19103
1.23047
1.26551
1.29797
1.32954
1.36178
1.396
1.43314
1.47367
1.51753
1.56406
1.61208
1.65998
1.70597
1.74838
1.78592
1.81787
1.84443
1.86672
1.88672
1.90707
1.9308
1.96088
1.9998
2.04912
2.10921
2.17902
2.25673
2.33994
2.42598
2.51233
2.59695
2.67849
2.7563
2.83026
2.90015
2.96459
3.02043
3.06325
3.08684
3.08446
3.05057
2.98211
2.87898
2.7437
2.5803
2.39406
2.19255
1.98097
1.76252
1.5403
1.31769
1.09839
0.886201
0.684838
0.497655
0.3274
0.176016
0.0444987
-0.0671773
-0.159331
-0.232079
-0.288051
-0.331389
-0.365604
-0.392532
-0.41169
-0.420335
-0.414374
-0.389837
-0.344432
-0.278995
-0.196662
-0.102527
-0.0023063
0.098986
0.198357
0.294283
0.386232
0.473892
0.556452
0.632574
0.700697
0.759511
0.809129
0.852022
0.89325
0.939821
0.999341
1.07838
1.17961
1.30105
1.43958
1.59153
1.75196
1.91512
2.07371
2.22037
2.34867
2.45371
2.53229
2.5828
2.60494
2.59927
2.56714
2.51101
2.43499
2.3436
2.24278
2.13949
2.04075
1.95253
1.88014
1.82605
1.78596
1.75125
1.71157
1.65745
1.58234
1.48368
1.36275
1.22354
1.07127
0.910196
0.742113
0.567491
0.385904
0.198016
0
0.132769
0.923333
2.59827
5.11475
8.03946
10.6009
11.9581
11.5888
9.58054
6.62879
3.71671
1.66105
0.784194
0.876181
1.41739
1.50173
1.57766
1.64553
1.70402
1.75288
1.79224
1.82214
1.84261
1.85397
1.8577
1.8571
1.85741
1.86541
1.8884
1.93151
1.9969
2.08625
2.19999
2.3368
2.49401
2.66828
2.85635
3.05564
3.26458
3.48256
3.70956
3.94564
4.19047
4.44309
4.70222
4.9668
5.23699
5.51514
5.8065
6.11957
6.46564
6.85777
7.30912
7.83088
8.43023
9.10856
9.86037
10.673
11.5276
12.4005
13.2662
14.0996
14.8792
15.589
16.2198
16.7696
17.2429
17.6494
18.002
18.3152
18.6028
18.877
19.1465
19.4181
19.6945
19.9661
20.2098
20.4012
20.5245
20.5732
20.5471
20.4509
20.2932
20.0853
19.8374
19.5523
19.2266
18.8587
18.4514
18.0047
17.5134
16.9698
16.367
15.6985
14.9586
14.142
13.2442
12.262
11.1939
10.04
8.80304
7.48768
6.10105
4.65243
3.1529
1.61497
0.0520081
-1.53651
-3.11262
-4.37182
-5.29061
-5.98079
-6.55519
-7.06644
-7.46829
-7.64873
-7.50819
-7.02369
-6.26285
-5.35572
-4.45481
-3.70561
-3.33609
-3.14568
-2.96684
-2.78975
-2.60998
-2.42393
-2.22939
-2.0259
-1.81471
-1.59863
-1.38146
-1.16744
-0.960738
-0.765029
-0.58344
-0.419699
-0.279074
-0.165387
-0.080703
-0.0259888
-0.000286865
0
-0.00398407
-0.0186459
0.139847
0.958932
2.69156
5.30115
8.32594
10.9516
12.322
11.9529
10.0052
7.22979
4.60309
2.86918
2.26019
2.52489
3.17662
3.44469
3.6789
3.85564
3.96418
4.00744
3.99879
3.9567
3.89919
3.83986
3.78462
3.7339
3.68622
3.63954
3.59144
3.53927
3.48027
3.41192
3.33213
3.23959
3.1341
3.01693
2.89097
2.76071
2.63191
2.51096
2.40402
2.31689
2.25532
2.2231
2.21641
2.22251
2.22597
2.21198
2.16933
2.09235
1.98147
1.84244
1.68465
1.51924
1.35553
1.19847
1.05107
0.914737
0.788899
0.671211
0.557966
0.444703
0.326917
0.200749
0.0635761
-0.0856081
-0.246029
-0.415219
-0.5893
-0.763438
-0.932383
-1.09106
-1.2351
-1.36131
-1.4678
-1.55394
-1.62083
-1.67059
-1.70585
-1.72938
-1.74375
-1.75122
-1.75376
-1.75347
-1.7528
-1.75445
-1.76133
-1.77624
-1.80154
-1.83888
-1.88889
-1.95109
-2.02353
-2.10435
-2.18958
-2.27107
-2.33681
-2.37489
-2.37571
-2.33455
-2.25341
-2.14119
-2.01194
-1.88142
-1.76344
-1.66402
-1.58105
-1.51386
-1.46138
-1.42138
-1.39073
-1.3656
-1.34171
-1.31476
-1.2809
-1.23751
-1.18387
-1.12086
-1.05113
-0.979227
-0.910154
-0.848267
-0.796398
-0.755332
-0.723762
-0.698642
-0.675814
-0.650747
-0.619501
-0.579268
-0.528332
-0.465957
-0.392002
-0.307056
-0.213697
-0.116595
-0.0214719
0.0655509
0.138409
0.19236
0.224129
0.232179
0.216889
0.180617
0.127632
0.0337348
0
0.482213
1.81029
4.12293
7.1351
10.0935
12.0204
12.1694
10.4337
7.43401
4.20564
1.67858
0.274898
-0.153428
-0.0719582
-0.053653
-0.0380608
-0.0249865
-0.0150926
-0.00887623
-0.00684385
-0.00969563
-0.0183756
-0.0342715
-0.0589796
-0.0940012
-0.140337
-0.198065
-0.266018
-0.342098
-0.422366
-0.501341
-0.573126
-0.631997
-0.672945
-0.693104
-0.691507
-0.668952
-0.627632
-0.570583
-0.501002
-0.421528
-0.333593
-0.237082
-0.130965
-0.013645
0.117129
0.263133
0.424875
0.601167
0.789284
0.985529
1.18589
1.38679
1.5857
1.78119
1.97229
2.1581
2.33669
2.50144
2.63973
2.73666
2.78076
2.76797
2.70208
2.59154
2.44474
2.26626
2.06207
1.83865
1.6012
1.35374
1.10029
0.84567
0.595387
0.355011
0.129467
-0.077462
-0.263336
-0.426956
-0.568071
-0.68699
-0.784459
-0.861505
-0.918908
-0.957814
-0.980802
-0.990967
-0.991368
-0.984583
-0.972394
-0.955747
-0.934993
-0.910336
-0.882283
-0.851968
-0.821063
-0.791584
-0.765487
-0.744229
-0.72844
-0.717772
-0.710966
-0.706095
-0.700938
-0.693479
-0.682246
-0.6664
-0.64591
-0.621861
-0.59631
-0.571665
-0.550029
-0.532661
-0.519665
-0.510024
-0.502023
-0.493914
-0.484637
-0.47421
-0.464514
-0.45866
-0.460032
-0.471215
-0.493213
-0.525218
-0.564954
-0.609361
-0.655243
-0.699902
-0.74111
-0.77627
-0.801888
-0.812754
-0.803217
-0.768309
-0.704443
-0.610817
-0.486632
-0.338132
-0.177871
-0.0183064
0.132209
0.260431
-0.113952
0
1.11631
3.39789
6.45942
9.44258
11.3507
11.4966
9.82684
6.9398
3.78113
1.1981
-0.392262
-1.05836
-1.15545
-1.05647
-0.961736
-0.870967
-0.786122
-0.708947
-0.639754
-0.578324
-0.524197
-0.476505
-0.434128
-0.395877
-0.360482
-0.326574
-0.292749
-0.257611
-0.219805
-0.178051
-0.131168
-0.078125
-0.018108
0.0493904
0.124473
0.206758
0.295369
0.389025
0.486239
0.585626
0.686225
0.78777
0.890819
0.996688
1.10721
1.22439
1.35002
1.48545
1.63142
1.78817
1.9555
2.13293
2.31976
2.51626
2.72428
2.94145
3.15437
3.34407
3.49203
3.58512
3.61735
3.58805
3.49861
3.35099
3.14957
2.90916
2.64869
2.38564
2.13439
1.9025
1.69087
1.50111
1.33474
1.1919
1.07169
0.972594
0.892751
0.830158
0.782719
0.748279
0.724668
0.709552
0.700272
0.694213
0.689438
0.685106
0.681724
0.68111
0.685975
0.699185
0.725026
0.769201
0.827385
0.885585
0.927822
0.942645
0.928094
0.892515
0.850771
0.817762
0.802631
0.802297
0.810367
0.823863
0.841011
0.861256
0.885418
0.915289
0.952875
0.999509
1.05489
1.11738
1.18441
1.25258
1.31826
1.37804
1.42876
1.46721
1.4912
1.49988
1.49327
1.47239
1.43932
1.39719
1.34974
1.30071
1.25309
1.20833
1.16642
1.12627
1.08593
1.04301
0.995086
0.939981
0.875861
0.80125
0.715289
0.616605
0.501874
0.363043
0.19519
0.00425987
-0.199617
-0.370922
0
1.26076
3.57145
6.64598
9.77823
12.0653
12.7756
11.6824
9.17446
6.07068
3.24136
1.25309
0.221019
-0.093804
-0.0552269
-0.0355013
-0.0178057
-0.0032486
0.0079567
0.0166964
0.0240503
0.0307703
0.0372755
0.0436209
0.0495325
0.0545464
0.0582064
0.0602329
0.0606369
0.0597616
0.0582028
0.0566451
0.0556652
0.0555782
0.0563975
0.0579301
0.0600142
0.0628387
0.0672303
0.0748111
0.0879673
0.109626
0.142894
0.190641
0.255015
0.337327
0.437966
0.556319
0.690839
0.839147
0.998129
1.16402
1.33245
1.49856
1.65652
1.79921
1.92066
2.01588
2.08132
2.11516
2.11721
2.08846
2.03055
1.94531
1.83501
1.70304
1.55155
1.38341
1.2024
1.01326
0.821445
0.632536
0.451474
0.282684
0.129343
-0.00685167
-0.124134
-0.222047
-0.30365
-0.372193
-0.429863
-0.476858
-0.51116
-0.529153
-0.526918
-0.501771
-0.454464
-0.389548
-0.311393
-0.225784
-0.139059
-0.0570736
0.015329
0.0752964
0.122179
0.157522
0.184731
0.208441
0.233673
0.26491
0.305264
0.355625
0.414861
0.480443
0.548832
0.615987
0.678207
0.732875
0.778896
0.816803
0.848514
0.876798
0.904529
0.934266
0.967557
1.00364
1.03799
1.06289
1.06981
1.0516
1.00445
0.929107
0.830964
0.719086
0.604283
0.496879
0.403043
0.323598
0.25751
0.203934
0.161823
0.128932
0.101122
0.0735554
0.0413368
0
-0.0395653
-0.0946911
-0.167179
-0.257933
-0.366979
-0.498115
-0.650199
-0.818739
-1.11865
-1.1634
-0.478105
1.23127
3.92276
7.08283
9.81603
11.1916
10.6928
8.49877
5.40155
2.39894
0.222271
-0.91326
-1.23161
-1.11971
-0.959009
-0.804488
-0.661366
-0.531952
-0.413712
-0.301968
-0.193435
-0.0856279
0.0236101
0.136268
0.25419
0.3791
0.512585
0.656015
0.810413
0.97632
1.15371
1.34196
1.53996
1.74623
1.95904
2.17652
2.39686
2.61848
2.84029
3.0619
3.28374
3.50701
3.73343
3.96487
4.20282
4.44802
4.70021
4.95803
5.21917
5.48058
5.73879
5.99013
6.23078
6.45701
6.66546
6.85308
7.01695
7.15421
7.26263
7.34093
7.38773
7.40155
7.38091
7.32458
7.23184
7.10276
6.93838
6.74161
6.51817
6.27457
6.01659
5.75052
5.48333
5.22229
4.97455
4.74739
4.54728
4.3786
4.244
4.14525
4.0834
4.05747
4.0651
4.10333
4.16861
4.2566
4.36213
4.47928
4.60183
4.72399
4.84137
4.95196
5.05528
5.15247
5.24626
5.34047
5.43945
5.54733
5.66744
5.80166
5.95033
6.11348
6.29006
6.47666
6.66511
6.84166
6.99214
7.10375
7.1666
7.17541
7.13073
7.03893
6.91019
6.75544
6.58375
6.40289
6.21768
6.03085
5.84436
5.66026
5.48061
5.30727
5.14163
4.98437
4.83539
4.69372
4.55737
4.42326
4.28702
4.14288
3.98371
3.80136
3.58729
3.33353
3.03374
2.6844
2.28575
1.82939
1.32303
0.788098
0.0855832
0
0.846214
2.73859
5.41232
8.23233
10.3645
11.0953
10.1552
7.86109
4.97256
2.3347
0.513575
-0.372944
-0.562453
-0.35355
-0.0541841
0.239774
0.507557
0.724936
0.892804
1.02133
1.11244
1.17394
1.21781
1.25729
1.30361
1.3627
1.43331
1.513
1.59933
1.68965
1.7817
1.87414
1.96665
2.05976
2.15438
2.25135
2.35104
2.45326
2.5575
2.66339
2.77117
2.88219
2.99901
3.12514
3.26456
3.421
3.59724
3.79471
4.01338
4.25205
4.5088
4.78154
5.06847
5.36818
5.67955
6.00144
6.33255
6.673
7.02095
7.362
7.66485
7.90056
8.04667
8.09112
8.03509
7.89341
7.69098
7.45622
7.21396
6.9795
6.75509
6.53876
6.32916
6.12605
5.93011
5.7426
5.56499
5.39879
5.24527
5.10518
4.97851
4.86425
4.76065
4.66553
4.57669
4.49235
4.41141
4.33355
4.25905
4.18847
4.12218
4.06014
4.00143
3.94372
3.88376
3.81838
3.74533
3.66397
3.57548
3.4826
3.38879
3.29739
3.21051
3.12899
3.05303
2.98228
2.91612
2.85402
2.79557
2.74042
2.68797
2.63718
2.58607
2.53187
2.47134
2.40119
2.31855
2.22135
2.10852
1.97999
1.83664
1.68072
1.51513
1.34278
1.16701
0.991626
0.820717
0.658382
0.508323
0.373419
0.255675
0.155901
0.0723787
0
-0.0657265
-0.135991
-0.218892
-0.321145
-0.453182
-0.629952
-0.843165
-1.07695
-1.34752
-1.16916
-0.20435
1.73913
4.50378
7.50154
9.85729
10.763
9.87034
7.48328
4.41228
1.57174
-0.43513
-1.5031
-1.91534
-2.05446
-2.10646
-2.15329
-2.19206
-2.22069
-2.24024
-2.25405
-2.26623
-2.28021
-2.29745
-2.31672
-2.33406
-2.34331
-2.337
-2.30936
-2.25639
-2.17395
-2.05774
-1.90426
-1.71096
-1.47626
-1.19954
-0.88125
-0.523065
-0.128143
0.298674
0.750795
1.22009
1.6974
2.17331
2.63903
3.08722
3.51246
3.91141
4.28253
4.62545
4.93833
5.21789
5.46274
5.67213
5.84515
5.98013
6.07603
6.1337
6.15451
6.14
6.09157
6.01031
5.89697
5.75207
5.57626
5.37167
5.14313
4.89617
4.63588
4.36786
4.09878
3.83578
3.58597
3.3557
3.15009
2.97268
2.82521
2.70765
2.61852
2.55591
2.51706
2.49611
2.48515
2.47612
2.4617
2.43585
2.39426
2.33443
2.25545
2.15775
2.04374
1.91689
1.78025
1.63662
1.48896
1.34029
1.19348
1.05112
0.91529
0.787382
0.668006
0.55692
0.453127
0.354827
0.259907
0.166417
0.0730463
-0.0205164
-0.11346
-0.203999
-0.289743
-0.368202
-0.437281
-0.49544
-0.541945
-0.576899
-0.600829
-0.614784
-0.620809
-0.621124
-0.617597
-0.61132
-0.602352
-0.589684
-0.571501
-0.545654
-0.510217
-0.464548
-0.408641
-0.343466
-0.270569
-0.19284
-0.116363
-0.0493982
0
0.0530663
0.080781
0.0861532
0.0763487
0.0602924
0.0454779
0.0354206
0.0284039
0.990119
2.68737
5.23981
8.53684
12.1029
15.1399
16.8035
16.603
14.6846
11.7966
8.93509
6.88598
5.93769
5.90415
6.37419
6.88476
7.38241
7.87363
8.35652
8.82967
9.29197
9.74237
10.1796
10.6019
11.0069
11.3918
11.7538
12.0901
12.3986
12.6788
12.9319
13.1612
13.372
13.571
13.7657
13.9636
14.1715
14.3946
14.6362
14.8979
15.1795
15.4797
15.7964
16.1269
16.468
16.8166
17.1693
17.5226
17.8727
18.2148
18.5421
18.8452
19.1133
19.3395
19.5112
19.6067
19.5992
19.4645
19.1883
18.77
18.2204
17.5557
16.8173
16.045
15.257
14.461
13.6661
12.8833
12.1247
11.403
10.7303
10.1165
9.56887
9.09133
8.68413
8.34436
8.06655
7.84346
7.66689
7.52835
7.41963
7.3332
7.26251
7.20213
7.14786
7.09666
7.04655
6.99635
6.94555
6.89406
6.84215
6.79037
6.73961
6.69112
6.64656
6.60794
6.57757
6.55792
6.55132
6.5598
6.58557
6.63182
6.70083
6.7885
6.88261
6.96889
7.03398
7.06814
7.06686
7.03103
6.96555
6.87703
6.77149
6.65391
6.52636
6.38877
6.23971
6.07694
5.89858
5.70384
5.49355
5.27034
5.03854
4.80349
4.57077
4.34512
4.12961
3.92493
3.7294
3.53933
3.3497
3.15489
2.94924
2.72744
2.4847
2.21709
1.92129
1.59513
1.23799
0.851206
0.436647
0
-0.635383
-1.00815
-0.580299
0.938437
3.49212
6.55043
9.20463
10.5156
9.9606
7.71683
4.58812
1.603
-0.472591
-1.42076
-1.52276
-1.2878
-1.22731
-1.17132
-1.1213
-1.07857
-1.04382
-1.01797
-1.00173
-0.995539
-0.999461
-1.01309
-1.0355
-1.06535
-1.101
-1.14069
-1.18293
-1.22668
-1.27148
-1.31738
-1.36474
-1.41393
-1.465
-1.5165
-1.56339
-1.59791
-1.61145
-1.59728
-1.55278
-1.48022
-1.3857
-1.27664
-1.15918
-1.03725
-0.91203
-0.782913
-0.648483
-0.507281
-0.358159
-0.200517
-0.0344055
0.139498
0.320621
0.507942
0.696688
0.874885
1.02725
1.13838
1.19638
1.19561
1.13725
1.02763
0.875626
0.69068
0.48484
0.270519
0.0562683
-0.151954
-0.349397
-0.531918
-0.696005
-0.839595
-0.962257
-1.06515
-1.1511
-1.22416
-1.28891
-1.34976
-1.41045
-1.4736
-1.54061
-1.61155
-1.68539
-1.76002
-1.8312
-1.89315
-1.93996
-1.96657
-1.96985
-1.94941
-1.90776
-1.84961
-1.7806
-1.7057
-1.62823
-1.5489
-1.46657
-1.3788
-1.28262
-1.17515
-1.05449
-0.920186
-0.77342
-0.617175
-0.454941
-0.290207
-0.126235
0.0341591
0.188599
0.334939
0.470823
0.593878
0.701953
0.793217
0.866475
0.921395
0.958598
0.979544
0.986316
0.981372
0.967429
0.947293
0.923671
0.89915
0.876106
0.856483
0.841602
0.832039
0.82675
0.82226
0.813863
0.796634
0.766484
0.720952
0.65948
0.583151
0.494053
0.391575
0.274334
0.145091
0.00649567
-0.145299
0
0.8439
2.65665
5.41206
8.661
11.5988
13.3487
13.3459
11.6116
8.7483
5.65397
3.12536
1.57467
0.98354
1.05617
1.34432
1.50977
1.65208
1.76583
1.85148
1.91235
1.95353
1.98134
2.00162
2.0186
2.03415
2.04811
2.05909
2.06513
2.06432
2.05533
2.03779
2.01246
1.98117
1.9467
1.91225
1.88098
1.85573
1.83879
1.83191
1.83609
1.85169
1.87887
1.91793
1.96941
2.03413
2.11291
2.20628
2.31418
2.43572
2.5695
2.7142
2.86872
3.03239
3.20504
3.38799
3.58571
3.80298
4.03212
4.24906
4.42653
4.54295
4.58803
4.56287
4.47545
4.33435
4.1451
3.91342
3.65512
3.38587
3.11722
2.85763
2.61315
2.38823
2.18647
2.00944
1.85631
1.7246
1.61094
1.51193
1.42471
1.34732
1.27877
1.21929
1.16861
1.12605
1.09078
1.06203
1.03932
1.02246
1.01136
1.00607
1.00544
1.00746
1.00992
1.01136
1.01181
1.01315
1.01864
1.03193
1.05588
1.09049
1.134
1.18421
1.23869
1.29501
1.3511
1.40553
1.45754
1.50681
1.55326
1.59661
1.63639
1.67197
1.70273
1.72831
1.74874
1.76443
1.77602
1.7841
1.78903
1.79076
1.7889
1.78275
1.7715
1.75435
1.73041
1.69903
1.65981
1.61274
1.5583
1.49754
1.43204
1.36366
1.29435
1.22588
1.15968
1.09674
1.0375
0.98175
0.928351
0.875291
0.817764
0.749242
0.662936
0.553584
0.41897
0.260527
-0.0280075
0
0.759528
2.5314
5.2292
8.37983
11.1837
12.7729
12.5785
10.6116
7.47865
4.10721
1.33985
-0.377847
-1.0722
-1.09317
-0.969543
-0.906303
-0.847353
-0.789473
-0.731294
-0.673628
-0.618849
-0.571518
-0.536649
-0.518159
-0.517011
-0.529826
-0.548472
-0.560866
-0.55289
-0.511024
-0.425188
-0.29383
-0.120929
0.0870184
0.321997
0.574953
0.83731
1.1024
1.36628
1.62785
1.88826
2.15005
2.4161
2.68894
2.97031
3.26113
3.56165
3.87166
4.19057
4.51741
4.85072
5.18846
5.52803
5.86637
6.20014
6.52591
6.8401
7.13589
7.40075
7.61668
7.767
7.84553
7.84794
7.77315
7.62474
7.41242
7.15268
6.86784
6.58284
6.31969
6.08667
5.87986
5.69303
5.52232
5.36672
5.22564
5.09874
4.98581
4.88655
4.80032
4.72575
4.661
4.60393
4.55215
4.50337
4.45551
4.40686
4.35607
4.30208
4.24396
4.18124
4.11414
4.04367
3.97177
3.90118
3.83511
3.77656
3.72764
3.68891
3.65888
3.63461
3.61211
3.58691
3.55511
3.51417
3.46327
3.40323
3.33607
3.26436
3.19058
3.11671
3.04422
2.97416
2.90747
2.84514
2.78825
2.73767
2.69378
2.65612
2.62324
2.59308
2.56342
2.53187
2.49603
2.45383
2.40366
2.34415
2.27406
2.19214
2.09753
1.98979
1.86902
1.73595
1.59186
1.43847
1.27774
1.11176
0.942848
0.773191
0.60512
0.44177
0.285871
0.138853
0
-0.097245
-0.196113
-0.313874
-0.458354
-0.623077
-0.868253
-0.614946
0.46405
2.45461
5.1111
7.90225
10.1743
11.3485
11.0903
9.42135
6.7502
3.7744
1.23848
-0.36026
-0.94974
-0.832946
-0.743989
-0.667884
-0.61572
-0.592468
-0.596677
-0.622059
-0.6601
-0.702588
-0.743275
-0.779401
-0.80949
-0.832601
-0.84833
-0.856666
-0.857912
-0.852711
-0.842123
-0.827744
-0.811868
-0.797691
-0.789021
-0.789868
-0.803822
-0.833336
-0.879083
-0.939606
-1.01135
-1.08912
-1.16692
-1.23926
-1.30145
-1.34976
-1.38261
-1.39979
-1.40165
-1.38839
-1.35947
-1.31358
-1.24864
-1.15746
-1.03417
-0.883415
-0.718102
-0.554261
-0.407685
-0.291592
-0.215905
-0.187582
-0.211017
-0.287851
-0.415053
-0.586427
-0.793235
-1.02293
-1.26258
-1.50366
-1.74122
-1.97136
-2.19089
-2.39721
-2.58799
-2.761
-2.91396
-3.04455
-3.15063
-3.23046
-3.28306
-3.30852
-3.30792
-3.28204
-3.23278
-3.16738
-3.09524
-3.02507
-2.96317
-2.91203
-2.87004
-2.83217
-2.79164
-2.74195
-2.68031
-2.60704
-2.52254
-2.42871
-2.3284
-2.22502
-2.12191
-2.02196
-1.92747
-1.84003
-1.76058
-1.68949
-1.62648
-1.57058
-1.52008
-1.47267
-1.42555
-1.37564
-1.31997
-1.25623
-1.18279
-1.09919
-1.00676
-0.908322
-0.807223
-0.706654
-0.609045
-0.515777
-0.427246
-0.343237
-0.263445
-0.187891
-0.117093
-0.0521009
0.00587978
0.056012
0.098266
0.133655
0.164156
0.192312
0.220611
0.250748
0.283144
0.316822
0.349362
0.377168
0.395968
0.401426
0.389807
0.358572
0.305114
0.229255
0.13495
0
-0.014981
0.481456
1.76237
3.97645
6.97313
10.1822
12.7048
13.6588
12.6263
9.91684
6.44578
3.28685
1.18123
0.298731
0.340623
0.821115
1.12668
1.39368
1.60147
1.74576
1.86313
1.96427
2.05662
2.14625
2.23672
2.32903
2.42045
2.50592
2.58022
2.63985
2.68422
2.7157
2.73872
2.75832
2.77873
2.80209
2.82858
2.85803
2.89009
2.92438
2.96069
2.99908
3.03995
3.08392
3.13194
3.18523
3.24515
3.31306
3.39003
3.47654
3.57224
3.67572
3.78459
3.89577
4.00561
4.10985
4.20364
4.28247
4.34183
4.37709
4.38339
4.35549
4.28791
4.17529
4.01314
3.79889
3.53512
3.22744
2.8834
2.51263
2.12664
1.73739
1.35609
0.992256
0.653023
0.343006
0.0645895
-0.181502
-0.39559
-0.5786
-0.731879
-0.856843
-0.954281
-1.0258
-1.07652
-1.1132
-1.14259
-1.17042
-1.20064
-1.23513
-1.274
-1.31632
-1.36098
-1.40722
-1.45476
-1.50357
-1.55343
-1.60313
-1.64942
-1.68732
-1.71098
-1.71507
-1.69614
-1.65341
-1.58882
-1.50629
-1.41069
-1.30704
-1.19977
-1.09151
-0.983889
-0.878112
-0.775091
-0.675535
-0.57996
-0.488674
-0.401784
-0.319267
-0.241258
-0.168619
-0.103519
-0.0490408
-0.00865021
0.0142067
0.0174747
0.00167065
-0.029668
-0.0704712
-0.113321
-0.150794
-0.177692
-0.191953
-0.191883
-0.175467
-0.141553
-0.0845459
0.00282784
0.110554
0.214653
0.288156
0.309586
0.270099
0.176154
0.0467915
-0.152359
0
0.789671
2.45239
4.9708
7.90503
10.4399
11.6994
11.1864
9.07325
6.14012
3.38156
1.52715
0.765274
0.801088
1.14497
1.23992
1.33485
1.43038
1.52728
1.62641
1.72846
1.83382
1.94236
2.05354
2.16655
2.28061
2.39521
2.51033
2.62649
2.74463
2.86579
2.99079
3.11983
3.25225
3.38648
3.52019
3.65068
3.77526
3.8919
3.99949
4.09807
4.18875
4.27348
4.35471
4.43505
4.517
4.6029
4.69485
4.79481
4.90452
5.02545
5.1586
5.30436
5.46243
5.63188
5.81182
6.00314
6.21123
6.44914
6.72465
7.00388
7.22791
7.33862
7.30699
7.14459
6.89285
6.59973
6.29861
5.99971
5.7019
5.40572
5.11252
4.82436
4.54448
4.2767
4.02506
3.79323
3.58396
3.39863
3.23719
3.09755
2.9762
2.86889
2.7713
2.67979
2.59179
2.50604
2.4225
2.34214
2.26654
2.19784
2.13868
2.09204
2.0607
2.04681
2.05174
2.07549
2.11778
2.17782
2.2481
2.3177
2.37588
2.41431
2.42865
2.41899
2.38911
2.34503
2.2934
2.24039
2.18968
2.14304
2.10116
2.0637
2.02935
1.99598
1.9609
1.92129
1.87462
1.81907
1.75383
1.67924
1.59665
1.50821
1.41633
1.32326
1.23082
1.14029
1.05249
0.968091
0.887975
0.813553
0.746803
0.690032
0.645999
0.618807
0.611785
0.618504
0.624112
0.611333
0.565778
0.48085
0.360331
0.217589
-0.0818382
0
0.793306
2.51039
5.06658
7.95857
10.3556
11.422
10.724
8.47321
5.43592
2.55212
0.498308
-0.544611
-0.817058
-0.702824
-0.535623
-0.371671
-0.21685
-0.0769096
0.0468067
0.156738
0.254726
0.342227
0.420461
0.490024
0.551645
0.60668
0.657203
0.705961
0.756157
0.811069
0.873589
0.945646
1.02776
1.11941
1.21912
1.32478
1.43378
1.54372
1.65291
1.76059
1.86704
1.97329
2.08085
2.19139
2.30642
2.42716
2.55462
2.68967
2.83287
2.98443
3.14385
3.30982
3.47996
3.65092
3.81853
3.97804
4.12462
4.2536
4.36089
4.44368
4.50038
4.53024
4.53322
4.50983
4.46108
4.38854
4.29439
4.18143
4.0535
3.91497
3.77031
3.62396
3.4805
3.34451
3.22039
3.11204
3.02275
2.95715
2.92423
2.92806
2.95199
2.97413
2.974
2.9394
2.87083
2.78105
2.69013
2.61817
2.57618
2.557
2.55579
2.56954
2.59393
2.6242
2.65577
2.68518
2.70993
2.72861
2.7408
2.74704
2.74862
2.7474
2.74557
2.74532
2.74845
2.75612
2.76896
2.78607
2.80481
2.82196
2.8347
2.84127
2.8412
2.83492
2.82289
2.80481
2.77909
2.74312
2.69411
2.63035
2.55225
2.46277
2.36712
2.27172
2.18265
2.10296
2.03399
1.97613
1.9278
1.88548
1.84447
1.79944
1.74492
1.67571
1.58717
1.47558
1.33841
1.17488
0.977442
0.747215
0.492393
0.0971531
0
0.621859
2.24068
4.80299
7.84096
10.5457
12.0485
11.7988
9.83771
6.7934
3.5902
1.03716
-0.472236
-1.00719
-0.922588
-0.754452
-0.608054
-0.501403
-0.446313
-0.446633
-0.497739
-0.58736
-0.6978
-0.809407
-0.904734
-0.975222
-1.02322
-1.0549
-1.07542
-1.08858
-1.09853
-1.1092
-1.12352
-1.14305
-1.16777
-1.1962
-1.22575
-1.25318
-1.27517
-1.28888
-1.29239
-1.28467
-1.26535
-1.23443
-1.19197
-1.13806
-1.0728
-0.996347
-0.90905
-0.811542
-0.704697
-0.589519
-0.466921
-0.337603
-0.202011
-0.0599965
0.0894255
0.247994
0.416762
0.588333
0.741864
0.850788
0.887247
0.830547
0.676803
0.4428
0.160132
-0.136962
-0.421849
-0.6868
-0.935264
-1.16966
-1.38943
-1.59159
-1.77364
-1.93396
-2.07174
-2.18705
-2.28084
-2.35483
-2.41128
-2.45278
-2.48198
-2.50156
-2.51401
-2.52139
-2.52528
-2.52677
-2.52644
-2.52435
-2.52007
-2.51282
-2.50155
-2.48517
-2.46272
-2.43351
-2.39726
-2.35411
-2.30465
-2.2497
-2.19019
-2.12696
-2.06056
-1.99121
-1.91875
-1.84271
-1.76241
-1.67705
-1.58584
-1.48812
-1.38344
-1.2717
-1.15317
-1.02859
-0.899166
-0.766588
-0.633041
-0.5012
-0.374375
-0.25704
-0.154205
-0.0697474
-0.00638256
0.0350275
0.0559046
0.0599388
0.0525394
0.0398312
0.02742
0.0192272
0.0164688
0.0185768
0.0224113
0.0235287
0.0173111
0
-0.0389133
-0.0915684
-0.156797
-0.232263
-0.314963
-0.401442
-0.488584
-0.482672
-0.0880838
0.996404
2.9994
5.83798
8.98258
11.5511
12.6584
11.8566
9.39711
6.12554
3.06026
0.917697
-0.129896
-0.361226
-0.206006
-0.0508553
0.0918175
0.210763
0.298257
0.36124
0.407557
0.441648
0.466478
0.484089
0.496455
0.50547
0.512946
0.520749
0.530952
0.54591
0.568206
0.600466
0.645073
0.703669
0.777111
0.865639
0.968776
1.08545
1.2142
1.35332
1.50102
1.65534
1.81421
1.97534
2.13633
2.29489
2.44914
2.59796
2.74129
2.88019
3.01667
3.15333
3.2928
3.43716
3.58746
3.74389
3.90499
4.06585
4.21813
4.35106
4.45327
4.51642
4.53476
4.50547
4.42881
4.30816
4.14976
3.96218
3.75554
3.54134
3.32984
3.12735
2.94102
2.7768
2.63917
2.53058
2.45108
2.39829
2.36786
2.35418
2.35132
2.35365
2.35694
2.35855
2.35716
2.3527
2.34609
2.3389
2.33296
2.32995
2.33102
2.33653
2.34609
2.35868
2.37248
2.38529
2.395
2.40001
2.39946
2.39335
2.38245
2.36807
2.35175
2.33501
2.3192
2.30537
2.29443
2.28704
2.28364
2.28434
2.28892
2.29682
2.30718
2.31895
2.33103
2.34228
2.35151
2.35732
2.35831
2.3531
2.34057
2.32016
2.29212
2.25767
2.21881
2.17796
2.13731
2.09819
2.06078
2.0237
1.98417
1.93866
1.88365
1.81638
1.73517
1.63952
1.5297
1.40627
1.26745
1.10007
0.878082
0.605363
0.30129
0
0.171127
1.18115
3.24457
6.22335
9.52051
12.1987
13.3444
12.5117
9.97759
6.62536
3.51255
1.38901
0.44492
0.389547
0.737624
0.796941
0.846219
0.878181
0.889199
0.879728
0.853655
0.816847
0.775453
0.73446
0.696592
0.66297
0.634039
0.609766
0.590014
0.574754
0.564058
0.557972
0.556353
0.558799
0.564731
0.573875
0.586441
0.603337
0.626153
0.656896
0.697512
0.749317
0.812408
0.885492
0.966075
1.05076
1.1357
1.21724
1.29248
1.35965
1.41839
1.46966
1.51557
1.55894
1.6029
1.65073
1.70615
1.77332
1.85218
1.93031
1.98728
2.00069
1.95226
1.83325
1.64704
1.40825
1.13886
0.86294
0.598405
0.34966
0.11653
-0.0998512
-0.298827
-0.481003
-0.647909
-0.801565
-0.943967
-1.07664
-1.20012
-1.31344
-1.41439
-1.50078
-1.57042
-1.62182
-1.65474
-1.67041
-1.67121
-1.66014
-1.64007
-1.61318
-1.5811
-1.54451
-1.50343
-1.45787
-1.40812
-1.35488
-1.29916
-1.24217
-1.18507
-1.12883
-1.07399
-1.02066
-0.968451
-0.916541
-0.863777
-0.808832
-0.750404
-0.687451
-0.619426
-0.546465
-0.469467
-0.390082
-0.310532
-0.233552
-0.162303
-0.0998932
-0.0487457
-0.0105568
0.0139145
0.0249802
0.0240875
0.0137474
-0.00267715
-0.0213013
-0.0381836
-0.0500061
-0.0545601
-0.0508911
-0.039006
-0.0205742
0
0.0486298
0.0825645
0.0927536
0.0721107
0.017202
-0.0706299
-0.184993
-0.334354
-0.491486
-0.112533
1.10692
3.26129
6.06558
8.83556
10.7004
10.9904
9.59117
7.02894
4.20917
1.96227
0.683523
0.270235
0.337731
0.476314
0.609357
0.741607
0.872751
1.00219
1.12909
1.25201
1.36897
1.47774
1.57643
1.66383
1.73954
1.80413
1.85898
1.9059
1.94657
1.98191
2.01178
2.03537
2.05139
2.05785
2.05133
2.03186
2.00883
1.99701
2.01155
2.06338
2.1561
2.28516
2.43953
2.60511
2.7688
2.92331
3.06838
3.20641
3.33993
3.47109
3.60174
3.7328
3.86272
3.98638
4.09601
4.18265
4.23791
4.25524
4.23071
4.16295
4.0528
3.90266
3.71986
3.51246
3.28672
3.04734
2.7984
2.54436
2.29
2.04024
1.79978
1.5728
1.3626
1.17134
0.999963
0.848251
0.715061
0.598616
0.496828
0.407602
0.329077
0.259812
0.198912
0.146085
0.101614
0.0662371
0.0409193
0.0265394
0.0235401
0.0316071
0.0495039
0.0750798
0.105248
0.1363
0.164737
0.187958
0.204829
0.215983
0.22374
0.231662
0.243834
0.263956
0.29449
0.336635
0.390002
0.45297
0.52242
0.592982
0.658334
0.712672
0.751665
0.773175
0.777564
0.767491
0.747235
0.721726
0.695536
0.671544
0.651367
0.635747
0.624574
0.617209
0.612815
0.610624
0.610051
0.610645
0.611891
0.612951
0.612438
0.608314
0.597934
0.578278
0.54631
0.499137
0.430868
0.333232
0.210233
0.0694595
-0.127777
0
0.779233
2.41897
4.86892
7.67618
10.0527
11.1825
10.6274
8.5795
5.78047
3.14428
1.32519
0.49096
0.397494
0.628448
0.751291
0.865964
0.969557
1.06057
1.13906
1.20633
1.26424
1.31451
1.3576
1.39382
1.42308
1.44593
1.46427
1.48172
1.50303
1.53285
1.57424
1.62886
1.69328
1.76123
1.8257
1.88116
1.9254
1.96019
1.99089
2.02514
2.07081
2.13248
2.21201
2.30981
2.42483
2.55449
2.695
2.84197
2.99115
3.13921
3.28422
3.4258
3.56475
3.70264
3.84161
3.98303
4.12442
4.25727
4.3692
4.4467
4.47724
4.45076
4.36086
4.20588
3.98986
3.72274
3.41979
3.10134
2.78388
2.47636
2.18468
1.91513
1.67259
1.46037
1.28152
1.13764
1.0254
0.940062
0.876406
0.829681
0.796143
0.773149
0.758805
0.751823
0.750219
0.751666
0.753746
0.754408
0.752338
0.747082
0.738889
0.728411
0.716524
0.704132
0.69216
0.681756
0.674335
0.671355
0.674047
0.683069
0.698297
0.718673
0.742199
0.766462
0.789165
0.808632
0.824155
0.836128
0.845935
0.855651
0.867577
0.883673
0.9053
0.933327
0.967351
1.00423
1.03802
1.06185
1.06935
1.05629
1.0217
0.968234
0.901675
0.82972
0.76035
0.699427
0.649609
0.611969
0.587148
0.574557
0.572485
0.578428
0.588916
0.596878
0.592553
0.565131
0.504525
0.396916
0.224592
-0.00112228
-0.256724
-0.426614
0
1.3047
3.56005
6.48467
9.405
11.4521
11.9339
10.6837
8.16414
5.24409
2.78127
1.26033
0.680467
0.708013
0.857181
0.943523
1.02187
1.0929
1.15803
1.2196
1.27908
1.33767
1.39648
1.45663
1.51931
1.58577
1.65716
1.73429
1.81734
1.90571
1.99807
2.09263
2.18753
2.28118
2.37257
2.46127
2.5474
2.63151
2.71451
2.79757
2.88209
2.9695
3.061
3.15712
3.25746
3.36062
3.46421
3.56544
3.6622
3.75405
3.84271
3.93201
4.02713
4.1334
4.25545
4.40293
4.57717
4.76074
4.93062
5.06564
5.15153
5.1823
5.15817
5.08224
4.95803
4.78901
4.58539
4.35769
4.11558
3.86845
3.62468
3.39087
3.17343
2.97853
2.81061
2.67239
2.56471
2.48659
2.43551
2.40784
2.3993
2.40538
2.42166
2.44404
2.46887
2.49285
2.51305
2.52682
2.53177
2.52565
2.50643
2.47232
2.42196
2.35487
2.27174
2.17442
2.066
1.9508
1.83406
1.7214
1.61817
1.52875
1.45621
1.4022
1.36707
1.35023
1.3508
1.3673
1.39804
1.44102
1.49385
1.55406
1.61785
1.68128
1.74097
1.79468
1.84155
1.88194
1.91671
1.94636
1.96948
1.98288
1.98166
1.96013
1.91353
1.83972
1.74022
1.62042
1.48881
1.35557
1.22998
1.11761
1.02268
0.947963
0.894859
0.863981
0.851861
0.846491
0.833201
0.797218
0.726102
0.595032
0.383075
0.107867
-0.200146
-0.368506
0
1.16724
3.33605
6.41524
9.86988
12.7807
14.1738
13.4851
10.8853
7.23981
3.70021
1.16855
-0.0508835
-0.234844
0.0604553
0.156013
0.244037
0.321313
0.389059
0.453167
0.516252
0.579603
0.643616
0.707858
0.771355
0.83303
0.89204
0.947714
0.99949
1.04694
1.08979
1.12803
1.16196
1.1923
1.22026
1.24743
1.27547
1.30583
1.33943
1.37656
1.41595
1.45493
1.49096
1.5231
1.55327
1.58688
1.63237
1.6998
1.79878
1.93563
2.10869
2.31264
2.54152
2.78978
3.05046
3.31352
3.56564
3.79139
3.97637
4.11252
4.19529
4.21846
4.17562
4.06428
3.89046
3.67034
3.42691
3.18217
2.94774
2.7225
2.50319
2.28882
2.07969
1.87702
1.68284
1.49976
1.33041
1.17673
1.03983
0.920346
0.819827
0.739719
0.680624
0.643643
0.629855
0.639469
0.671011
0.720832
0.783212
0.851007
0.916724
0.974325
1.01928
1.04908
1.06336
1.06352
1.05214
1.0323
1.007
0.978906
0.950062
0.92205
0.896299
0.874113
0.85668
0.84497
0.839594
0.840738
0.848209
0.861663
0.880792
0.905624
0.936636
0.974624
1.02034
1.07394
1.13586
1.2039
1.27145
1.33036
1.37278
1.39307
1.38887
1.36124
1.31376
1.25125
1.17863
1.10069
1.02058
0.940435
0.862171
0.787704
0.718995
0.657891
0.605873
0.563993
0.532896
0.510527
0.488823
0.456868
0.40377
0.321716
0.208576
0.0690994
-0.0883865
-0.27779
0
1.00837
2.8929
5.526
8.39846
10.6961
11.6041
10.7097
8.25303
5.04387
2.07511
0.0687363
-0.781871
-0.762079
-0.410794
-0.306419
-0.218368
-0.150916
-0.103194
-0.0658218
-0.0352058
-0.00894318
0.0152382
0.0392395
0.0644417
0.0916092
0.120844
0.151607
0.18273
0.212511
0.238885
0.259956
0.274483
0.28223
0.284193
0.282603
0.280665
0.282103
0.290605
0.309337
0.340131
0.383699
0.440426
0.510591
0.594344
0.691809
0.803076
0.928074
1.06633
1.2167
1.37713
1.54456
1.71509
1.88277
2.03901
2.17553
2.2851
2.36241
2.40447
2.41042
2.38082
2.31691
2.22009
2.09287
1.93974
1.76475
1.57154
1.36409
1.14728
0.926361
0.70622
0.491524
0.286694
0.0957329
-0.0779568
-0.231805
-0.364096
-0.473114
-0.557959
-0.621701
-0.670165
-0.709883
-0.74687
-0.785555
-0.828133
-0.874499
-0.922683
-0.969574
-1.01194
-1.04729
-1.07362
-1.08891
-1.09176
-1.08147
-1.05814
-1.02286
-0.977664
-0.924883
-0.86804
-0.810517
-0.754884
-0.702386
-0.652738
-0.604287
-0.554463
-0.500361
-0.439299
-0.369714
-0.290697
-0.201891
-0.10371
0.00348091
0.118068
0.234904
0.345875
0.441936
0.514521
0.556877
0.565062
0.53857
0.48058
0.397789
2
156
306
452
599
743
888
1033
1175
1319
1462
1605
1750
1899
2050
2200
2344
2488
2631
2775
2919
3059
3199
3342
3488
3634
0
0
0
0
0
0
0
0
0
0
0
0
0
0
0
0
0
0
0
0
0
0
0
0
0
0
0
0
0
0
0
0
0
0
0
0
0
0
0
0
0
0
0
0
0
0
0
0
0
0
0
0
0
0
0
0
0
0
0
0
0
0
0
0
0
0
0
0
0
0
0
0
0
0
0
0
0
0
0
0
0
0
0
0
0
0
0
0
0
0
0
0
0
0
0
0
0
0
0
0
0
0
0
0
0
0
0
0
0
0
0
0
0
0
0
0
0
0
0
0
0
0
0
0
0
0
0
0
0
0
0
0
0
0
0
0
0
0
0
0
0
0
0
0
0
0
0
0
0
0
0
0
0
0
0
0
0
0
0
0
0
0
0
0
0
0
0
0
0
0
0
0
0
0
0
0
0
0
0
0
0
0
0
0
0
0
0
0
0
0
0
0
0
0
0
0
0
0
0
0
0
0
0
0
0
0
0
0
0
0
0
0
0
0
0
0
0
0
0
0
0
0
0
0
0
0
0
0
0
0
0
0
0
0
0
0
0
0
0
0
0
0
0
0
0
0
0
0
0
0
0
0
0
0
0
0
0
0
0
0
0
0
0
0
0
0
0
0
0
0
0
0
0
0
0
0
0
0
0
0
0
0
0
0
0
0
0
0
0
0
0
0
0
0
0
0
0
0
0
0
0
0
0
0
0
0
0
0
0
0
0
0
0
0
0
0
0
0
0
0
0
0
0
0
0
0
0
0
0
0
0
0
0
0
0
0
0
0
0
0
0
0
0
0
0
0
0
0
0
0
0
0
0
0
0
0
0
0
0
0
0
0
0
0
0
0
0
0
0
0
0
0
0
0
0
0
0
0
0
0
0
0
0
0
0
0
0
0
0
0
0
0
0
0
0
0
0
0
0
0
0
0
0
0
0
0
0
0
0
0
0
0
0
0
0
0
0
0
0
0
0
0
0
0
0
0
0
0
0
0
0
0
0
0
0
0
0
0
0
0
0
0
0
0
0
0
0
0
0
0
0
0
0
0
0
0
0
0
0
0
0
0
0
0
0
0
0
0
0
0
0
0
0
0
0
0
0
0
0
0
0
0
0
0
0
0
0
0
0
0
0
0
0
0
0
0
0
0
0
0
0
0
0
0
0
0
0
0
0
0
0
0
0
0
0
0
0
0
0
0
0
0
0
0
0
0
0
0
0
0
0
0
0
0
0
0
0
0
0
0
0
0
0
0
0
0
0
0
0
0
0
0
0
0
0
0
0
0
0
0
0
0
0
0
0
0
0
0
0
0
0
0
0
0
0
0
0
0
0
0
0
0
0
0
0
0
0
0
0
0
0
0
0
0
0
0
0
0
0
0
0
0
0
0
0
0
0
0
0
0
0
0
0
0
0
0
0
0
0
0
0
0
0
0
0
0
0
0
0
0
0
0
0
0
0
0
0
0
0
0
0
0
0
0
0
0
0
0
0
0
0
0
0
0
0
0
0
0
0
0
0
0
0
0
0
0
0
0
0
0
0
0
0
0
0
0
0
0
0
0
0
0
0
0
0
0
0
0
0
0
0
0
0
0
0
0
0
0
0
0
0
0
0
0
0
0
0
0
0
0
0
0
0
0
0
0
0
0
0
0
0
0
0
0
0
0
0
0
0
0
0
0
0
0
0
0
0
0
0
0
0
0
0
0
0
0
0
0
0
0
0
0
0
0
0
0
0
0
0
0
0
0
0
0
0
0
0
0
0
0
0
0
0
0
0
0
0
0
0
0
0
0
0
0
0
0
0
0
0
0
0
0
0
0
0
0
0
0
0
0
0
0
0
0
0
0
0
0
0
0
0
0
0
0
0
0
0
0
0
0
0
0
0
0
0
0
0
0
0
0
0
0
0
0
0
0
0
0
0
0
0
0
0
0
0
0
0
0
0
0
0
0
0
0
0
0
0
0
0
0
0
0
0
0
0
0
0
0
0
0
0
0
0
0
0
0
0
0
0
0
0
0
0
0
0
0
0
0
0
0
0
0
0
0
0
0
0
0
0
0
0
0
0
0
0
0
0
0
0
0
0
0
0
0
0
0
0
0
0
0
0
0
0
0
0
0
0
0
0
0
0
0
0
0
0
0
0
0
0
0
0
0
0
0
0
0
0
0
0
0
0
0
0
0
0
0
0
0
0
0
0
0
0
0
0
0
0
0
0
0
0
0
0
0
0
0
0
0
0
0
0
0
0
0
0
0
0
0
0
0
0
0
0
0
0
0
0
0
0
0
0
0
0
0
0
0
0
0
0
0
0
0
0
0
0
0
0
0
0
0
0
0
0
0
0
0
0
0
0
0
0
0
0
0
0
0
0
0
0
0
0
0
0
0
0
0
0
0
0
0
0
0
0
0
0
0
0
0
0
0
0
0
0
0
0
0
0
0
0
0
0
0
0
0
0
0
0
0
0
0
0
0
0
0
0
0
0
0
0
0
0
0
0
0
0
0
0
0
0
0
0
0
0
0
0
0
0
0
0
0
0
0
0
0
0
0
0
0
0
0
0
0
0
0
0
0
0
0
0
0
0
0
0
0
0
0
0
0
0
0
0
0
0
0
0
0
0
0
0
0
0
0
0
0
0
0
0
0
0
0
0
0
0
0
0
0
0
0
0
0
0
0
0
0
0
0
0
0
0
0
0
0
0
0
0
0
0
0
0
0
0
0
0
0
0
0
0
0
0
0
0
0
0
0
0
0
0
0
0
0
0
0
0
0
0
0
0
0
0
0
0
0
0
0
0
0
0
0
0
0
0
0
0
0
0
0
0
0
0
0
0
0
0
0
0
0
0
0
0
0
0
0
0
0
0
0
0
0
0
0
0
0
0
0
0
0
0
0
0
0
0
0
0
0
0
0
0
0
0
0
0
0
0
0
0
0
0
0
0
0
0
0
0
0
0
0
0
0
0
0
0
0
0
0
0
0
0
0
0
0
0
0
0
0
0
0
0
0
0
0
0
0
0
0
0
0
0
0
0
0
0
0
0
0
0
0
0
0
0
0
0
0
0
0
0
0
0
0
0
0
0
0
0
0
0
0
0
0
0
0
0
0
0
0
0
0
0
0
0
0
0
0
0
0
0
0
0
0
0
0
0
0
0
0
0
0
0
0
0
0
0
0
0
0
0
0
0
0
0
0
0
0
0
0
0
0
0
0
0
0
0
0
0
0
0
0
0
0
0
0
0
0
0
0
0
0
0
0
0
0
0
0
0
0
0
0
0
0
0
0
0
0
0
0
0
0
0
0
0
0
0
0
0
0
0
0
0
0
0
0
0
0
0
0
0
0
0
0
0
0
0
0
0
0
0
0
0
0
0
0
0
0
0
0
0
0
0
0
0
0
0
0
0
0
0
0
0
0
0
0
0
0
0
0
0
0
0
0
0
0
0
0
0
0
0
0
0
0
0
0
0
0
0
0
0
0
0
0
0
0
0
0
0
0
0
0
0
0
0
0
0
0
0
0
0
0
0
0
0
0
0
0
0
0
0
0
0
0
0
0
0
0
0
0
0
0
0
0
0
0
0
0
0
0
0
0
0
0
0
0
0
0
0
0
0
0
0
0
0
0
0
0
0
0
0
0
0
0
0
0
0
0
0
0
0
0
0
0
0
0
0
0
0
0
0
0
0
0
0
0
0
0
0
0
0
0
0
0
0
0
0
0
0
0
0
0
0
0
0
0
0
0
0
0
0
0
0
0
0
0
0
0
0
0
0
0
0
0
0
0
0
0
0
0
0
0
0
0
0
0
0
0
0
0
0
0
0
0
0
0
0
0
0
0
0
0
0
0
0
0
0
0
0
0
0
0
0
0
0
0
0
0
0
0
0
0
0
0
0
0
0
0
0
0
0
0
0
0
0
0
0
0
0
0
0
0
0
0
0
0
0
0
0
0
0
0
0
0
0
0
0
0
0
0
0
0
0
0
0
0
0
0
0
0
0
0
0
0
0
0
0
0
0
0
0
0
0
0
0
0
0
0
0
0
0
0
0
0
0
0
0
0
0
0
0
0
0
0
0
0
0
0
0
0
0
0
0
0
0
0
0
0
0
0
0
0
0
0
0
0
0
0
0
0
0
0
0
0
0
0
0
0
0
0
0
0
0
0
0
0
0
0
0
0
0
0
0
0
0
0
0
0
0
0
0
0
0
0
0
0
0
0
0
0
0
0
0
0
0
0
0
0
0
0
0
0
0
0
0
0
0
0
0
0
0
0
0
0
0
0
0
0
0
0
0
0
0
0
0
0
0
0
0
0
0
0
0
0
0
0
0
0
0
0
0
0
0
0
0
0
0
0
0
0
0
0
0
0
0
0
0
0
0
0
0
0
0
0
0
0
0
0
0
0
0
0
0
0
0
0
0
0
0
0
0
0
0
0
0
0
0
0
0
0
0
0
0
0
0
0
0
0
0
0
0
0
0
0
0
0
0
0
0
0
0
0
0
0
0
0
0
0
0
0
0
0
0
0
0
0
0
0
0
0
0
0
0
0
0
0
0
0
0
0
0
0
0
0
0
0
0
0
0
0
0
0
0
0
0
0
0
0
0
0
0
0
0
0
0
0
0
0
0
0
0
0
0
0
0
0
0
0
0
0
0
0
0
0
0
0
0
0
0
0
0
0
0
0
0
0
0
0
0
0
0
0
0
0
0
0
0
0
0
0
0
0
0
0
0
0
0
0
0
0
0
0
0
0
0
0
0
0
0
0
0
0
0
0
0
0
0
0
0
0
0
0
0
0
0
0
0
0
0
0
0
0
0
0
0
0
0
0
0
0
0
0
0
0
0
0
0
0
0
0
0
0
0
0
0
0
0
0
0
0
0
0
0
0
0
0
0
0
0
0
0
0
0
0
0
0
0
0
0
0
0
0
0
0
0
0
0
0
0
0
0
0
0
0
0
0
0
0
0
0
0
0
0
0
0
0
0
0
0
0
0
0
0
0
0
0
0
0
0
0
0
0
0
0
0
0
0
0
0
0
0
0
0
0
0
0
0
0
0
0
0
0
0
0
0
0
0
0
0
0
0
0
0
0
0
0
0
0
0
0
0
0
0
0
0
0
0
0
0
0
0
0
0
0
0
0
0
0
0
0
0
0
0
0
0
0
0
0
0
0
0
0
0
0
0
0
0
0
0
0
0
0
0
0
0
0
0
0
0
0
0
0
0
0
0
0
0
0
0
0
0
0
0
0
0
0
0
0
0
0
0
0
0
0
0
0
0
0
0
0
0
0
0
0
0
0
0
0
0
0
0
0
0
0
0
0
0
0
0
0
0
0
0
0
0
0
0
0
0
0
0
0
0
0
0
0
0
0
0
0
0
0
0
0
0
0
0
0
0
0
0
0
0
0
0
0
0
0
0
0
0
0
0
0
0
0
0
0
0
0
0
0
0
0
0
0
0
0
0
0
0
0
0
0
0
0
0
0
0
0
0
0
0
0
0
0
0
0
0
0
0
0
0
0
0
0
0
0
0
0
0
0
0
0
0
0
0
0
0
0
0
0
0
0
0
0
0
0
0
0
0
0
0
0
0
0
0
0
0
0
0
0
0
0
0
0
0
0
0
0
0
0
0
0
0
0
0
0
0
0
0
0
0
0
0
0
0
0
0
0
0
0
0
0
0
0
0
0
0
0
0
0
0
0
0
0
0
0
0
0
0
0
0
0
0
0
0
0
0
0
0
0
0
0
0
0
0
0
0
0
0
0
0
0
0
0
0
0
0
0
0
0
0
0
0
0
0
0
0
0
0
0
0
0
0
0
0
0
0
0
0
0
0
0
0
0
0
0
0
0
0
0
0
0
0
0
0
0
0
0
0
0
0
0
0
0
0
0
0
0
0
0
0
0
0
0
0
0
0
0
0
0
0
0
0
0
0
0
0
0
0
0
0
0
0
0
0
0
0
0
0
0
0
0
0
0
0
0
0
0
0
0
0
0
0
0
0
0
0
0
0
0
0
0
0
0
0
0
0
0
0
0
0
0
0
0
0
0
0
0
0
0
0
0
0
0
0
0
0
0
0
0
0
0
0
0
0
0
0
0
0
0
0
0
0
0
0
0
0
0
0
0
0
0
0
0
0
0
0
0
0
0
0
0
0
0
0
0
0
0
0
0
0
0
0
0
0
0
0
0
0
0
0
0
0
0
0
0
0
0
0
0
0
0
0
0
0
0
0
0
0
0
0
0
0
0
0
0
0
0
0
0
0
0
0
0
0
0
0
0
0
0
0
0
0
0
0
0
0
0
0
0
0
0
0
0
0
0
0
0
0
0
0
0
0
0
0
0
0
0
0
0
0
0
0
0
0
0
0
0
0
0
0
0
0
0
0
0
0
0
0
0
0
0
0
0
0
0
0
0
0
0
0
0
0
0
0
0
0
0
0
0
0
0
0
0
0
0
0
0
0
0
0
0
0
0
0
0
0
0
0
0
0
0
0
0
0
0
0
0
0
0
0
0
0
0
0
0
0
0
0
0
0
0
0
0
0
0
0
0
0
0
0
0
0
0
0
0
0
0
0
0
0
0
0
0
0
0
0
0
0
0
0
0
0
0
0
0
0
0
0
0
0
0
0
0
0
0
0
0
0
0
0
0
0
0
0
0
0
0
0
0
0
0
0
0
0
0
0
0
0
0
0
0
0
0
0
0
0
0
0
0
0
0
0
0
0
0
0
0
0
0
0
0
0
0
0
0
0
0
0
0
0
0
0
0
0
0
0
0
0
0
0
0
0
0
0
0
0
0
0
0
0
0
0
0
0
0
0
0
0
0
0
0
0
0
0
0
0
0
0
0
0
0
0
0
0
0
0
0
0
0
0
0
0
0
0
0
0
0
0
0
0
0
0
0
0
0
0
0
0
0
0
0
0
0
0
0
0
0
0
0
0
0
0
0
0
0
0
0
0
0
0
0
0
0
0
0
0
0
0
0
0
0
0
0
0
0
0
0
0
0
0
0
0
0
0
0
0
0
0
0
0
0
0
0
0
0
0
0
0
0
0
0
0
0
0
0
0
0
0
0
0
0
0
0
0
0
0
0
0
0
0
0
0
0
0
0
0
0
0
0
0
0
0
0
0
0
0
0
0
0
0
0
0
0
0
0
0
0
0
0
0
0
0
0
0
0
0
0
0
0
0
0
0
0
0
0
0
0
0
0
0
0
0
0
0
0
0
0
0
0
0
0
0
0
0
0
0
0
0
0
0
0
0
0
0
0
0
0
0
0
0
0
0
0
0
0
0
0
0
0
0
0
0
0
0
0
0
0
0
0
0
0
0
0
0
0
0
0
0
0
0
0
0
0
0
0
0
0
0
0
0
0
0
0
0
0
0
0
0
0
0
0
0
0
0
0
0
0
0
0
0
0
0
0
0
0
0
0
0
0
0
0
0
0
0
0
0
0
0
0
0
0
0
0
0
0
0
0
0
0
0
0
0
0
0
0
0
0
0
0
0
0
0
0
0
0
0
0
0
0
0
0
0
0
0
0
0
0
0
0
0
0
0
0
0
0
0
0
0
0
0
0
0
0
0
0
0
0
0
0
0
0
0
0
0
0
0
0
0
0
0
0
0
0
0
0
0
0
0
0
0
0
0
0
0
0
0
0
0
0
0
0
0
0
0
0
0
0
0
0
0
0
0
0
0
0
0
0
0
0
0
0
0
0
0
0
0
0
0
0
0
0
0
0
0
0
0
0
0
0
0
0
0
0
0
0
0
0
0
0
0
0
0
0
0
0
0
0
0
0
0
0
0
0
0
0
0
0
0
0
0
0
0
0
0
0
0
0
0
0
0
0
0
0
0
0
0
0
0
0
0
0
0
0
0
0
0
0
0
0
0
0
0
0
0
0
0
0
0
0
0
0
0
0
0
0
0
0
0
0
0
0
0
0
0
0
0
0
0
0
0
0
0
0
0
0
0
0
0
0
0
0
0
0
0
0
0
0
0
0
0
0
0
0
0
0
0
0
0
0
0
0
0
0
0
0
0
0
0
0
0
0
0
0
0
0
0
0
0
0
0
0
0
0
0
0
0
0
0
0
0
0
0
0
0
0
0
0
0
0
0
0
0
0
0
0
0
0
0
0
0
0
0
0
0
0
0
0
0
0
0
0
0
0
0
0
0
0
0
0
0
0
0
0
0
0
0
0
0
0
0
0
0
0
0
0
0
0
0
0
0
0
0
0
0
0
0
0
0
0
0
0
0
0
0
0
0
0
0
0
0
0
0
0
0
0
0
0
0
0
0
0
0
0
0
0
0
0
0
0
0
0
0
0
0
0
0
0
0
0
0
0
0
0
0
0
0
0
0
0
0
0
0
0
0
0
0
0
0
0
0
0
0
0
0
0
0
0
0
0
0
0
0
0
0
0
0
0
0
0
0
0
0
0
0
0
0
0
0
0
0
