2.09745
1.90041
1.71325
1.53885
1.37898
1.2346
1.10619
0.993361
0.895625
0.812851
0.746314
0.698965
0.67381
0.673588
0.700692
0.75613
0.838538
0.945902
1.07327
1.20677
1.32718
1.41766
1.46807
1.47773
1.45573
1.41823
1.38329
1.36488
1.36839
1.38702
1.41366
1.443
1.47079
1.49451
1.51301
1.52523
1.52998
1.52545
1.51001
1.48344
1.44788
1.40784
1.36918
1.3374
1.31558
1.30287
1.29788
1.29873
1.3032
1.30924
1.31558
1.32183
1.32856
1.33708
1.34908
1.36641
1.39082
1.42389
1.46693
1.52099
1.58684
1.66482
1.75443
1.85405
1.96183
2.07244
2.17825
2.27162
2.34682
2.40143
2.43683
2.45752
2.46952
2.47847
2.48806
2.49931
2.51152
2.52271
2.53027
2.53157
2.52436
2.50685
2.47758
2.43527
2.37733
2.28266
2.05396
1.5725
0.981573
0.427724
0
0.156805
1.1833
3.28617
6.34865
9.79319
12.6711
14.0164
13.3132
10.8025
7.41063
4.30358
2.32073
1.62737
1.77605
2.05781
1.99389
1.93243
1.87827
1.83384
1.79834
1.76853
1.74023
1.71008
1.67697
1.64275
1.61188
1.59039
1.58399
1.59418
1.62176
1.66653
1.72759
1.80111
1.88131
1.96254
2.04048
2.11286
2.17947
2.24171
2.30186
2.36255
2.42635
2.49594
2.57418
2.66385
2.76727
2.88557
3.01812
3.1624
3.31445
3.46675
3.60543
3.71485
3.78272
3.8018
3.77256
3.70547
3.62101
3.54626
3.50856
3.58479
3.77202
3.99284
4.14846
4.16984
4.04948
3.83486
3.5889
3.34851
3.11726
2.89377
2.68297
2.49671
2.34843
2.24868
2.22293
2.25456
2.31056
2.35438
2.35996
2.31975
2.24351
2.15057
2.06128
1.98982
1.93699
1.9053
1.8986
1.91924
1.96804
2.04787
2.15532
2.27893
2.3993
2.49552
2.55135
2.55798
2.5153
2.43186
2.32332
2.20926
2.10861
2.03487
1.98738
1.95806
1.94095
1.93065
1.91998
1.90137
1.86876
1.81878
1.75162
1.67125
1.58493
1.50173
1.43049
1.38304
1.36597
1.36842
1.37236
1.36077
1.32501
1.26757
1.1989
1.13032
1.06771
1.00931
0.952272
0.896516
0.84675
0.812812
0.807217
0.840781
0.942657
1.10127
1.27843
1.42978
1.52173
1.54176
1.49859
1.41513
1.31927
1.23633
1.17689
1.14113
1.12742
1.13343
1.15653
1.1935
1.23945
1.28679
1.32527
1.345
1.33794
1.29919
1.22776
1.12645
1.00072
0.856928
0.70069
0.535238
0.361789
0.18246
0
-0.129056
0.389725
1.91153
4.45893
7.60013
10.5428
12.4284
12.6967
11.3254
8.81152
5.91322
3.31527
1.41038
0.276752
-0.204327
-0.0761894
0.101978
0.273193
0.425388
0.550524
0.6464
0.716686
0.769092
0.812346
0.852594
0.892255
0.928909
0.958797
0.98108
1.00029
1.02547
1.06632
1.1283
1.20795
1.29704
1.38423
1.45913
1.51638
1.55789
1.59248
1.63302
1.69239
1.77912
1.89187
2.02575
2.17673
2.34197
2.51906
2.70619
2.90203
3.10639
3.31868
3.53094
3.72756
3.89055
4.00508
4.06416
4.07061
4.03559
3.97516
3.90634
3.84352
3.79312
3.75667
3.73542
3.73091
3.73651
3.73674
3.71331
3.65019
3.53879
3.38157
3.19253
2.99427
2.81256
2.66529
2.5538
2.48126
2.45188
2.47026
2.54112
2.65997
2.79894
2.92392
3.00619
3.02889
2.99258
2.91615
2.83061
2.76744
2.74713
2.76324
2.80002
2.84937
2.90794
2.97276
3.04155
3.11209
3.18179
3.247
3.30242
3.34259
3.36282
3.36067
3.33733
3.29809
3.25178
3.20891
3.17914
3.16867
3.1777
3.20292
3.23633
3.26803
3.28859
3.29106
3.27209
3.23218
3.17528
3.10794
3.03857
2.97498
2.92347
2.8889
2.87935
2.9075
2.98035
3.07613
3.16383
3.2132
3.20493
3.13717
3.02536
2.89495
2.77034
2.66521
2.57321
2.48602
2.39874
2.30707
2.20793
2.10006
1.98433
1.86373
1.74318
1.62886
1.53079
1.49018
1.63191
1.98985
2.42473
2.78033
2.97167
3.00674
2.93753
2.794
2.565
2.24481
1.90815
1.64255
1.49607
1.46024
1.57236
1.76436
1.93978
2.01104
1.9269
1.68306
1.31614
0.88401
0.437874
0
0.240177
1.13402
2.77418
5.13799
7.98425
10.7772
12.7612
13.2412
11.9479
9.24163
5.98278
3.11909
1.24948
0.432635
0.322121
0.511823
0.701316
0.882023
1.0453
1.18412
1.29995
1.39672
1.4768
1.54352
1.59758
1.64077
1.67295
1.69251
1.6988
1.69437
1.68553
1.68057
1.68668
1.70702
1.73716
1.77278
1.80921
1.84301
1.87327
1.90197
1.93321
1.97175
2.02132
2.08303
2.15513
2.23546
2.32203
2.41305
2.50724
2.60381
2.70217
2.80142
2.90007
2.9959
3.08591
3.16641
3.2336
3.28431
3.3161
3.3274
3.31758
3.2869
3.23645
3.16798
3.08361
2.98566
2.8764
2.75742
2.62957
2.49325
2.34891
2.19763
2.04172
1.88504
1.73303
1.59208
1.46862
1.36793
1.29445
1.25305
1.24518
1.26077
1.28341
1.29783
1.29385
1.2687
1.22691
1.17791
1.13247
1.09925
1.08048
1.07373
1.077
1.08921
1.10962
1.13806
1.17498
1.22136
1.27925
1.35301
1.4471
1.55061
1.6376
1.67768
1.64759
1.54269
1.38227
1.20498
1.05478
0.963437
0.920509
0.912941
0.924083
0.935506
0.933711
0.914799
0.88544
0.85997
0.854843
0.905794
1.01755
1.1489
1.24257
1.25302
1.16775
1.01219
0.836466
0.692484
0.614122
0.585939
0.584967
0.601732
0.632477
0.673792
0.722615
0.774661
0.82507
0.869789
0.906406
0.93478
0.957152
0.97758
1.00084
1.03119
1.07091
1.11985
1.17705
1.24136
1.31148
1.38633
1.46521
1.54771
1.63318
1.71961
1.80216
1.87177
1.91707
1.92586
1.88782
1.79761
1.6576
1.47929
1.28257
1.09247
0.933895
0.840091
0.851354
0.936529
1.03754
1.09445
1.06787
0.948836
0.754396
0.514207
0.256462
0
0.124428
0.851853
2.48766
5.10314
8.33339
11.3775
13.2683
13.3103
11.445
8.3086
4.9255
2.21961
0.632824
0.057629
0.0624233
0.1543
0.250897
0.350085
0.452543
0.556879
0.656525
0.741009
0.799064
0.82265
0.810361
0.768687
0.710582
0.651984
0.607771
0.584845
0.581847
0.596415
0.627991
0.675607
0.735514
0.799561
0.857818
0.901849
0.927197
0.935371
0.934532
0.938265
0.962476
1.02105
1.15239
1.34791
1.55994
1.73222
1.82798
1.84826
1.82961
1.8223
1.86256
1.95548
2.06479
2.17346
2.26899
2.34213
2.38782
2.40493
2.39552
2.36398
2.31837
2.26627
2.21529
2.17395
2.16181
2.19957
2.26392
2.30576
2.27067
2.12661
1.88314
1.59105
1.32209
1.13911
1.03862
1.01639
1.06822
1.16394
1.26354
1.33322
1.35152
1.31207
1.22385
1.10851
0.993735
0.903565
0.846253
0.811586
0.788294
0.771529
0.758208
0.748218
0.744383
0.751211
0.772921
0.811218
0.862759
0.924366
0.991016
1.05711
1.11756
1.16856
1.20785
1.23449
1.24849
1.25043
1.2416
1.2233
1.19735
1.16617
1.13265
1.09974
1.06994
1.04458
1.02372
1.00642
0.99078
0.974474
0.955628
0.933516
0.908931
0.88409
0.862016
0.846404
0.841186
0.844398
0.848216
0.842374
0.818357
0.77327
0.711623
0.644215
0.584643
0.545002
0.527465
0.529417
0.550319
0.588179
0.640361
0.704018
0.777392
0.859841
0.943106
1.01282
1.05377
1.05703
1.02667
0.981295
0.948287
0.953058
1.02129
1.14184
1.28294
1.40771
1.48829
1.51177
1.47765
1.39226
1.26545
1.11218
0.95079
0.794706
0.653405
0.530924
0.42451
0.331124
0.248103
0.169816
0.0912094
0
0.0626656
0.721052
2.24841
4.66709
7.59525
10.2613
11.7602
11.4734
9.41965
6.29839
3.16222
0.904194
-0.125091
-0.15839
0.213587
0.259775
0.278169
0.257792
0.196751
0.103626
-0.00392761
-0.102918
-0.1733
-0.206436
-0.167356
-0.0250659
0.180091
0.390549
0.554747
0.64377
0.654356
0.600018
0.498861
0.366911
0.220408
0.076162
-0.0545318
-0.162467
-0.240697
-0.288263
-0.308142
-0.301114
-0.270237
-0.220529
-0.158399
-0.0908602
-0.0248351
0.0340379
0.0822477
0.118886
0.145612
0.166067
0.184867
0.206355
0.233335
0.268131
0.30815
0.343637
0.362544
0.354718
0.315563
0.247629
0.159427
0.0621078
-0.0343116
-0.124173
-0.207283
-0.283499
-0.352625
-0.414625
-0.469556
-0.517362
-0.558978
-0.596062
-0.630859
-0.665811
-0.703028
-0.743779
-0.78813
-0.834776
-0.881086
-0.923238
-0.956655
-0.976972
-0.980857
-0.966852
-0.935887
-0.891276
-0.838137
-0.782346
-0.729314
-0.68229
-0.642884
-0.610747
-0.583785
-0.558739
-0.532006
-0.500528
-0.462498
-0.416563
-0.364881
-0.311654
-0.261228
-0.216584
-0.17853
-0.145949
-0.116936
-0.0902399
-0.0662672
-0.0470411
-0.0356731
-0.0352699
-0.0481136
-0.0753328
-0.116994
-0.172288
-0.238991
-0.313239
-0.39119
-0.467609
-0.536196
-0.590414
-0.624635
-0.634099
-0.61563
-0.569547
-0.500171
-0.419093
-0.345081
-0.295829
-0.284267
-0.315775
-0.385769
-0.47873
-0.570058
-0.63143
-0.638781
-0.591498
-0.505869
-0.38457
-0.245274
-0.108629
0.00713139
0.0906384
0.139353
0.158506
0.157751
0.147124
0.133987
0.121571
0.110362
0.100023
0.0897879
0.0787548
0.0658932
0.0498449
0.0287693
0
-0.0477697
-0.110473
-0.191892
-0.302227
-0.456748
-0.649204
-0.865883
-1.08841
-1.22049
-0.648116
0.60454
2.55027
5.00747
7.52509
9.4362
10.1012
9.23926
7.12888
4.50805
2.20812
0.750707
0.158276
0.0756838
0.0120417
-0.0820801
-0.179477
-0.279124
-0.378962
-0.472219
-0.545128
-0.579358
-0.556011
-0.463315
-0.304175
-0.09918
0.117727
0.309854
0.449928
0.549849
0.61365
0.647766
0.661728
0.665999
0.670341
0.681462
0.704345
0.742965
0.79982
0.875615
0.971041
1.08738
1.21397
1.33477
1.43516
1.50689
1.5511
1.5779
1.60275
1.64122
1.70445
1.79058
1.89443
2.01386
2.14829
2.29878
2.46619
2.64315
2.80732
2.92827
2.97624
2.93422
2.80697
2.62164
2.41828
2.23319
2.08196
1.95044
1.82578
1.70265
1.57868
1.45355
1.32893
1.20775
1.09324
0.987674
0.892694
0.809096
0.737225
0.677576
0.630925
0.598476
0.581596
0.581382
0.598213
0.631413
0.679063
0.740133
0.811601
0.882764
0.938455
0.963724
0.948107
0.889733
0.79725
0.688256
0.584568
0.506048
0.459049
0.43691
0.443007
0.475938
0.519231
0.554171
0.564861
0.542647
0.488372
0.411528
0.326636
0.248338
0.186732
0.140258
0.10468
0.07724
0.05429
0.0309059
0.00261803
-0.033474
-0.0777935
-0.128374
-0.179502
-0.223146
-0.251563
-0.259638
-0.246506
-0.215833
-0.17463
-0.131022
-0.0917973
-0.0597954
-0.0351933
-0.0155025
0.00331764
0.0255169
0.0539799
0.089801
0.133007
0.182755
0.237423
0.294888
0.352787
0.408614
0.46003
0.505116
0.542522
0.571555
0.592119
0.60454
0.609132
0.606242
0.596217
0.579345
0.556061
0.527149
0.493815
0.457585
0.420053
0.382572
0.345974
0.310516
0.275966
0.2417
0.206863
0.170568
0.132103
0.0911194
0.0477791
0
-0.0558426
0.389741
1.66614
3.86178
6.68856
9.48698
11.4152
11.7857
10.4018
7.7006
4.58035
1.97826
0.440339
-0.0632217
0.0105225
-0.011393
-0.0150402
-0.00281715
0.033226
0.0957268
0.180277
0.276418
0.37117
0.453589
0.519229
0.568517
0.605724
0.636185
0.663924
0.691014
0.718462
0.747946
0.782877
0.828296
0.889533
0.970168
1.06972
1.18168
1.30035
1.41882
1.53023
1.62974
1.71573
1.7903
1.85885
1.92884
2.00803
2.10251
2.21427
2.34319
2.48768
2.63656
2.77749
2.90113
3.00421
3.09054
3.16942
3.25291
3.35695
3.48433
3.6173
3.72894
3.79422
3.79743
3.73477
3.61375
3.45127
3.27047
3.09539
2.94126
2.80922
2.69263
2.58504
2.48171
2.37823
2.27087
2.15749
2.03807
1.91501
1.79293
1.67829
1.57836
1.50022
1.45846
1.48692
1.59881
1.751
1.88601
1.95419
1.93284
1.83287
1.68991
1.54604
1.43341
1.3571
1.30519
1.27204
1.25794
1.26338
1.28824
1.33132
1.39081
1.46411
1.54379
1.62084
1.68721
1.73768
1.77072
1.78818
1.79395
1.79212
1.78554
1.77569
1.7625
1.74549
1.72458
1.70044
1.67444
1.64819
1.62286
1.59865
1.5749
1.55041
1.52366
1.49327
1.4584
1.41903
1.37608
1.33129
1.28701
1.24581
1.21014
1.18205
1.16293
1.15329
1.15274
1.15992
1.17272
1.18811
1.20228
1.21185
1.21494
1.21204
1.20648
1.20421
1.2128
1.23994
1.29159
1.37965
1.51236
1.6766
1.84088
1.9732
2.04986
2.0604
2.00845
1.90914
1.78461
1.65869
1.55074
1.46655
1.40298
1.35539
1.32047
1.29277
1.26477
1.2281
1.17461
1.09744
0.986711
0.819794
0.604683
0.357684
0
0.0933075
1.08967
3.19871
6.18306
9.34848
11.785
12.7472
11.9703
9.75987
6.83054
3.99482
1.86365
0.683796
0.34895
0.539431
0.632876
0.711755
0.765626
0.789777
0.785794
0.760377
0.723038
0.683583
0.64939
0.623737
0.607888
0.602255
0.60672
0.620047
0.640103
0.664314
0.690075
0.715125
0.738037
0.758726
0.778635
0.800605
0.82836
0.865667
0.915346
0.980413
1.06073
1.15179
1.24805
1.34504
1.44084
1.53614
1.63299
1.73284
1.8349
1.93578
2.03066
2.1142
2.1816
2.22947
2.25612
2.2616
2.24754
2.21713
2.17446
2.1243
2.07139
2.01978
1.97214
1.92893
1.88982
1.85369
1.81881
1.78315
1.7445
1.70063
1.64964
1.58989
1.51997
1.43899
1.3468
1.24397
1.13192
1.01294
0.890017
0.766811
0.647523
0.536417
0.437348
0.353366
0.286744
0.23828
0.207922
0.195283
0.199819
0.221013
0.258131
0.312074
0.381092
0.459478
0.53943
0.61242
0.670758
0.709004
0.724829
0.719152
0.695579
0.659295
0.615678
0.569017
0.521749
0.474502
0.42711
0.379688
0.333331
0.290533
0.255085
0.231384
0.227413
0.256101
0.315132
0.386345
0.447268
0.4809
0.483001
0.462718
0.436143
0.416765
0.408758
0.405503
0.401547
0.39354
0.382199
0.371454
0.365522
0.36594
0.370262
0.374038
0.372892
0.364529
0.349289
0.329245
0.306833
0.284143
0.262799
0.244848
0.233065
0.230649
0.241404
0.269449
0.312488
0.361403
0.403837
0.427832
0.425415
0.394853
0.341015
0.274021
0.206869
0.160164
0.241437
0.633247
1.20447
1.7685
2.15041
2.22799
1.96533
1.42338
0.750047
0.154332
-0.0803587
0.0188078
0.194637
0.418944
0.648432
0.835573
0.943377
0.953929
0.86889
0.70497
0.487712
0.24511
0
0.219029
1.17764
3.08305
5.80622
8.7826
11.1607
12.1724
11.5136
9.48188
6.78866
4.19262
2.19826
0.967551
0.40806
0.320118
0.421882
0.520694
0.614915
0.702488
0.781854
0.852454
0.913477
0.964659
1.0062
1.03889
1.06419
1.08426
1.10182
1.11988
1.14137
1.16875
1.20349
1.24619
1.29695
1.355
1.41834
1.48382
1.54756
1.606
1.65712
1.70139
1.74226
1.786
1.84052
1.91354
2.01033
2.13191
2.27816
2.4375
2.59364
2.73022
2.83482
2.90144
2.93096
2.92982
2.90769
2.87482
2.84003
2.80828
2.78138
2.75887
2.73882
2.71835
2.69381
2.66098
2.61552
2.55331
2.47091
2.36595
2.23758
2.0868
1.91674
1.73268
1.54207
1.35378
1.17807
1.02481
0.904914
0.838707
0.832475
0.872584
0.937708
1.00437
1.05171
1.06385
1.03019
0.944797
0.806458
0.624278
0.408619
0.172297
-0.0696383
-0.267428
0.00468922
0.678356
1.4925
2.22003
2.68494
2.79079
2.52407
1.94828
1.19622
0.45431
-0.052978
-0.053207
0.269347
0.676078
1.12246
1.52185
1.80299
1.93829
1.93814
1.82688
1.62828
1.37537
1.13198
0.973379
0.92071
0.943498
1.00268
1.07695
1.15641
1.2325
1.2989
1.35152
1.38778
1.40456
1.39973
1.37127
1.31824
1.2421
1.14321
1.0328
0.929349
0.851689
0.813774
0.820882
0.868586
0.944652
1.033
1.11825
1.19181
1.25252
1.29958
1.33454
1.36064
1.38174
1.40144
1.42226
1.44503
1.46905
1.49212
1.5097
1.51549
1.50333
1.46859
1.40978
1.32949
1.23413
1.1321
1.03113
0.935548
0.844288
0.752751
0.653874
0.540478
0.40753
0.254151
0.0840649
-0.095738
0
0.669094
2.08917
4.27886
6.9564
9.5155
11.2068
11.469
10.2187
7.90001
5.25079
2.94602
1.34602
0.470386
0.14236
0.277974
0.426126
0.572452
0.709258
0.828341
0.923605
0.997133
1.05325
1.09486
1.12529
1.14853
1.16854
1.18849
1.21067
1.23589
1.26373
1.29356
1.32545
1.36057
1.40079
1.44778
1.50187
1.56175
1.62392
1.68423
1.73947
1.78853
1.83278
1.87535
1.91984
1.96906
2.02345
2.0822
2.14421
2.20776
2.27019
2.3267
2.37194
2.40095
2.41099
2.4036
2.38576
2.3692
2.36766
2.40287
2.49605
2.6243
2.74522
2.81729
2.81814
2.75048
2.63379
2.4898
2.33247
2.16987
2.00714
1.84754
1.69488
1.55325
1.42636
1.31599
1.22323
1.14785
1.08849
1.04299
1.00886
0.983672
0.965025
0.95072
0.93871
0.926959
0.913278
0.894892
0.868487
0.831552
0.783069
0.72474
0.661916
0.603718
0.562371
0.595288
0.794728
1.10295
1.38992
1.52853
1.46884
1.26175
1.02187
0.861405
0.841317
0.906912
1.00208
1.112
1.22945
1.34416
1.44624
1.52751
1.58237
1.60831
1.60603
1.57902
1.53287
1.47432
1.4107
1.34763
1.28898
1.23719
1.19323
1.15715
1.12895
1.10891
1.09799
1.09791
1.11074
1.1382
1.18121
1.24176
1.31664
1.39484
1.46362
1.51208
1.53443
1.53175
1.51183
1.48695
1.47047
1.4726
1.4946
1.53717
1.59736
1.66286
1.7197
1.75649
1.76759
1.75413
1.72232
1.68005
1.6333
1.5841
1.53137
1.47228
1.40317
1.32053
1.22149
1.10405
0.967121
0.811476
0.637138
0.444987
0.238701
0
-0.0903106
0.438445
1.8939
4.33717
7.41601
10.3665
12.2559
12.3823
10.6238
7.52862
4.08312
1.27992
-0.28154
-0.566635
0.00295448
0.408921
0.759899
1.01652
1.16428
1.25391
1.29682
1.30674
1.29689
1.27893
1.26045
1.24566
1.23737
1.23773
1.24842
1.2709
1.30685
1.3579
1.42661
1.52005
1.64623
1.79188
1.93067
2.03592
2.09267
2.10656
2.10382
2.12088
2.18831
2.3175
2.48184
2.65932
2.83916
3.01302
3.17458
3.32003
3.4469
3.55582
3.64909
3.7302
3.80359
3.87444
3.94831
4.03169
4.13551
4.27462
4.45065
4.63526
4.79044
4.88031
4.88082
4.78517
4.60463
4.36566
4.10437
3.85878
3.64812
3.47036
3.31975
3.19433
3.09355
3.01517
2.95562
2.91053
2.87529
2.84576
2.81875
2.79247
2.76659
2.74204
2.72056
2.70433
2.69563
2.69512
2.70146
2.71231
2.72519
2.73826
2.75061
2.76193
2.7718
2.77904
2.78187
2.77798
2.76553
2.74404
2.71499
2.68178
2.64898
2.62117
2.60151
2.59182
2.59132
2.59746
2.60695
2.61695
2.62606
2.63478
2.64546
2.66175
2.68755
2.72564
2.77835
2.84961
2.94265
3.05212
3.16089
3.24898
3.2991
3.3022
3.26116
3.19097
3.11493
3.05771
3.03616
3.04671
3.08899
3.15088
3.21593
3.26861
3.29889
3.30486
3.29258
3.27355
3.2611
3.26547
3.28903
3.33084
3.39212
3.4717
3.56353
3.6514
3.71291
3.72523
3.67035
3.54068
3.34303
3.09861
2.83825
2.5944
2.38723
2.21328
2.07099
1.97221
1.95904
2.05616
2.19771
2.28392
2.20853
1.90081
1.35521
0.627935
-0.191579
-0.491187
0
1.27127
3.25581
5.78621
8.46828
10.6419
11.5767
10.8384
8.57861
5.51364
2.57808
0.480947
-0.557999
-0.765681
-0.553403
-0.379272
-0.216155
-0.0720636
0.0462338
0.137332
0.198731
0.229934
0.232493
0.209949
0.167685
0.112679
0.0531942
-0.00245762
-0.0470734
-0.0745802
-0.0756561
-0.0382828
0.0411526
0.146245
0.252268
0.335481
0.380148
0.38315
0.355268
0.318925
0.30254
0.332137
0.414832
0.539144
0.694133
0.861994
1.02239
1.1578
1.25765
1.31979
1.34924
1.35522
1.34815
1.33814
1.33142
1.33263
1.34798
1.38703
1.44184
1.49085
1.50728
1.47055
1.37678
1.24227
1.09753
0.974425
0.892827
0.838463
0.802226
0.77317
0.739317
0.690714
0.621649
0.531623
0.425072
0.310098
0.196521
0.0920879
0.0012886
-0.0706986
-0.119675
-0.148498
-0.164452
-0.176394
-0.192387
-0.217664
-0.253464
-0.296941
-0.341974
-0.380534
-0.40583
-0.413693
-0.40038
-0.356143
-0.267041
-0.13165
0.0235229
0.164554
0.260809
0.293169
0.258424
0.169441
0.0522892
-0.0585926
-0.127103
-0.137297
-0.0939789
-0.00848389
0.108468
0.250538
0.410215
0.577382
0.738795
0.878635
0.984867
1.04885
1.0655
1.03372
0.956903
0.843247
0.705413
0.55933
0.422043
0.305106
0.216751
0.162482
0.143046
0.154659
0.190245
0.241352
0.300114
0.360574
0.41956
0.475598
0.528243
0.57772
0.624718
0.670293
0.715761
0.762492
0.811578
0.863528
0.918096
0.974248
1.03085
1.08682
1.14133
1.19376
1.24353
1.28964
1.33001
1.36097
1.37826
1.37737
1.35486
1.30965
1.24391
1.16297
1.07437
0.985981
0.903845
0.829348
0.761009
0.694151
0.621213
0.533475
0.422945
0.275883
0.0863424
-0.13692
-0.37752
-0.552695
0
1.53298
4.09131
7.24921
10.1746
11.9441
11.9847
10.3748
7.80265
5.19041
3.222
2.07064
1.46969
1.02723
0.694826
0.482037
0.350722
0.31412
0.362857
0.470038
0.603742
0.739436
0.866366
0.985033
1.0889
1.17032
1.21837
1.22251
1.17844
1.09256
0.982478
0.872871
0.788944
0.75069
0.754076
0.789657
0.855472
0.950115
1.06994
1.21476
1.37574
1.53484
1.67429
1.78135
1.85213
1.89257
1.91643
1.94067
1.98022
2.04094
2.11962
2.21233
2.31432
2.41846
2.51561
2.5954
2.65038
2.67608
2.67156
2.63948
2.5858
2.51891
2.44823
2.38251
2.32816
2.28621
2.25423
2.23048
2.20854
2.17531
2.11615
2.01881
1.87755
1.696
1.48731
1.27117
1.0685
0.896184
0.752357
0.637904
0.552939
0.495989
0.464931
0.456386
0.468088
0.497363
0.54077
0.5939
0.651492
0.707796
0.756748
0.793454
0.814859
0.82022
0.811204
0.791591
0.766636
0.742176
0.723672
0.715288
0.718461
0.732585
0.756643
0.788492
0.822246
0.850545
0.867
0.867797
0.852619
0.824515
0.788718
0.750895
0.715505
0.684261
0.656841
0.632584
0.610655
0.590314
0.57123
0.553651
0.538405
0.526795
0.520377
0.520655
0.528899
0.546131
0.572424
0.605325
0.639281
0.666196
0.675508
0.656989
0.602026
0.505644
0.368548
0.186553
-0.0149204
-0.199297
-0.326394
-0.243308
0.149795
0.677948
1.10535
1.2689
1.15268
0.866818
0.558894
0.328728
0.205882
0.134152
0.0872128
0.0606512
0.0562193
0.0755148
0.118677
0.188745
0.285575
0.395436
0.501539
0.587596
0.640937
0.654122
0.624843
0.554861
0.449015
0.315096
0.166898
0.0157854
-0.12702
-0.250135
-0.327314
-0.315946
-0.216449
-0.0870962
0
-0.0145567
-0.160422
-0.4286
-0.77877
-1.15629
-1.44689
-0.998611
0.202656
2.18146
4.78343
7.59675
9.94695
11.0759
10.4914
8.28954
5.19218
2.212
0.13902
-0.812371
-0.975848
-0.935712
-0.920845
-0.901084
-0.871893
-0.82979
-0.775706
-0.716705
-0.661663
-0.61785
-0.588244
-0.570694
-0.559208
-0.546719
-0.528031
-0.50255
-0.472797
-0.441506
-0.411587
-0.38539
-0.364135
-0.347772
-0.335231
-0.324899
-0.315117
-0.304603
-0.292534
-0.278371
-0.26163
-0.241566
-0.216838
-0.185316
-0.144085
-0.0896488
-0.0161289
0.107987
0.398087
0.943018
1.56268
2.07688
2.38567
2.46782
2.34592
2.05212
1.63061
1.17202
0.850882
0.796514
0.885921
1.00861
1.13088
1.2239
1.26633
1.24977
1.17924
1.06869
0.934014
0.787569
0.637808
0.489185
0.344795
0.208208
0.08388
-0.022978
-0.105492
-0.157309
-0.177183
-0.169571
-0.143158
-0.111213
-0.0892803
-0.0901768
-0.121388
-0.183068
-0.267046
-0.357538
-0.434103
-0.476559
-0.470618
-0.412626
-0.299175
-0.154097
-0.00793133
0.11125
0.184521
0.204556
0.17454
0.105543
0.0138983
-0.0811462
-0.163659
-0.224071
-0.258137
-0.267437
-0.256859
-0.229799
-0.190182
-0.141493
-0.0863043
-0.026012
0.0385719
0.102492
0.15666
0.190582
0.196987
0.176202
0.137434
0.0959198
0.0672497
0.0617376
0.075341
0.100734
0.133675
0.169962
0.205507
0.236887
0.261527
0.277805
0.285157
0.28399
0.275617
0.262141
0.24622
0.230726
0.218289
0.210991
0.210005
0.215157
0.225396
0.239347
0.255962
0.275017
0.297299
0.324364
0.357944
0.399159
0.448202
0.503964
0.561844
0.616099
0.661526
0.69514
0.717279
0.731762
0.745037
0.764619
0.797032
0.844348
0.9063
0.981551
1.06729
1.15832
1.24859
1.33213
1.40375
1.45954
1.49695
1.51462
1.51206
1.48953
1.44762
1.38715
1.30955
1.21705
1.11023
0.992762
0.872489
0.756843
0.650896
0.555955
0.469403
0.387275
0.300468
0.202199
0
0.125154
1.07567
3.07223
5.93072
9.01388
11.4178
12.3456
11.4855
9.16558
6.1817
3.4008
1.38622
0.259671
-0.176596
-0.147322
0.0615841
0.262052
0.438261
0.577592
0.673893
0.730078
0.758214
0.776087
0.801014
0.843441
0.90215
0.967574
1.03025
1.08155
1.11649
1.13485
1.14057
1.1399
1.13946
1.14384
1.15555
1.17672
1.20859
1.25171
1.30609
1.37136
1.44651
1.53116
1.62492
1.72737
1.83777
1.95485
2.07663
2.20035
2.32275
2.44004
2.54785
2.64223
2.72072
2.78244
2.8285
2.86205
2.88805
2.91262
2.94215
2.98216
3.03923
3.11891
3.21972
3.32884
3.42595
3.49047
3.50555
3.46119
3.3563
3.19946
3.00751
2.80148
2.60061
2.41468
2.24292
2.0821
1.93133
1.792
1.66792
1.5636
1.48442
1.43532
1.42281
1.4638
1.55148
1.65575
1.74341
1.79005
1.78862
1.75049
1.6992
1.65955
1.64751
1.65813
1.68076
1.70739
1.72686
1.72865
1.70598
1.65796
1.59075
1.51721
1.45433
1.41876
1.42161
1.46276
1.53005
1.61266
1.69806
1.77501
1.83653
1.87856
1.89983
1.90064
1.8819
1.84548
1.79277
1.72602
1.6488
1.56606
1.48378
1.4083
1.34455
1.29577
1.26647
1.26863
1.31564
1.38906
1.46136
1.50618
1.51044
1.48046
1.43661
1.39891
1.37287
1.34571
1.30123
1.22743
1.12478
1.00843
0.90326
0.834396
0.818868
0.875373
0.97345
1.06705
1.11543
1.10036
1.0322
0.942459
0.868009
0.835796
0.846007
0.882044
0.935953
1.00583
1.09263
1.19983
1.32532
1.45554
1.5722
1.65647
1.69386
1.6773
1.60755
1.49185
1.34247
1.17588
1.01008
0.857228
0.723969
0.611671
0.519479
0.444313
0.379745
0.318175
0.252674
0.178509
0.093927
0
-0.128571
0.115866
0.96213
2.48082
4.51832
6.6951
8.49245
9.4029
9.10906
7.62748
5.34115
2.87268
0.836037
-0.405321
-0.837963
-0.622153
-0.312916
-0.00385647
0.280923
0.515114
0.674006
0.739721
0.707974
0.593878
0.432582
0.271911
0.158092
0.11135
0.11104
0.135996
0.176085
0.226105
0.281871
0.341043
0.403409
0.470517
0.545436
0.633498
0.73788
0.851139
0.956673
1.03548
1.07265
1.06264
1.01172
0.93729
0.864743
0.822576
0.83067
0.890715
0.99571
1.13859
1.31851
1.53492
1.77241
2.00564
2.2108
2.36998
2.47359
2.5204
2.51586
2.46953
2.39259
2.29601
2.19024
2.08277
1.97821
1.87888
1.78543
1.69723
1.61243
1.52766
1.4381
1.33853
1.2246
1.09424
0.948865
0.793943
0.638683
0.494817
0.379898
0.339063
0.412045
0.56222
0.727166
0.846943
0.886747
0.844322
0.742912
0.617481
0.502066
0.417316
0.361043
0.326843
0.310319
0.308523
0.319933
0.343619
0.379435
0.428079
0.494767
0.595418
0.73888
0.897763
1.02792
1.08749
1.05948
0.962487
0.841378
0.743187
0.69366
0.677244
0.672013
0.670483
0.667549
0.661245
0.652881
0.646182
0.645832
0.655267
0.675327
0.705591
0.745246
0.791118
0.836498
0.873188
0.893675
0.89301
0.870339
0.82958
0.778899
0.728981
0.690505
0.670104
0.66832
0.686296
0.719946
0.76263
0.806874
0.846083
0.875872
0.894778
0.904295
0.908351
0.912409
0.922018
0.941564
0.973914
1.02029
1.0814
1.15376
1.2283
1.29457
1.34353
1.36978
1.37271
1.3561
1.32647
1.2908
1.25453
1.22016
1.18772
1.15656
1.12583
1.09479
1.06298
1.03017
0.99613
0.960205
0.920957
0.875881
0.821759
0.755057
0.669731
0.557
0.419188
0.263354
0
0.211493
1.18971
3.0206
5.50852
8.14893
10.2231
11.0467
10.2909
8.18378
5.42761
2.85279
1.02676
0.0685539
-0.25187
-0.215466
-0.133985
-0.0413556
0.0650686
0.185073
0.314851
0.447013
0.573057
0.68509
0.778208
0.850826
0.904346
0.943326
0.974086
1.00284
1.03395
1.06879
1.10588
1.14119
1.17
1.18866
1.19582
1.19279
1.18315
1.1719
1.16463
1.16594
1.17897
1.20765
1.25542
1.32489
1.41741
1.53271
1.66799
1.82029
1.98581
2.15874
2.32965
2.48521
2.61341
2.70471
2.75398
2.76261
2.73971
2.70086
2.66401
2.64356
2.64505
2.66081
2.68041
2.69155
2.68437
2.65415
2.60132
2.52914
2.44085
2.33857
2.2252
2.10177
1.96797
1.82446
1.67324
1.51714
1.36221
1.21941
1.10042
1.01558
0.971427
0.968954
1.00303
1.0635
1.13764
1.21312
1.2812
1.33913
1.38677
1.42437
1.45227
1.47108
1.48125
1.48315
1.47714
1.46383
1.44447
1.42132
1.39774
1.37821
1.36768
1.37062
1.39003
1.43089
1.49466
1.57034
1.64322
1.69909
1.72817
1.72752
1.70121
1.65852
1.61124
1.57096
1.54379
1.53163
1.53605
1.56071
1.60588
1.66403
1.72365
1.77227
1.79891
1.79608
1.76081
1.69474
1.60343
1.49526
1.38083
1.2697
1.16959
1.08616
1.02339
0.985303
0.974452
0.991842
1.04279
1.13516
1.26674
1.41282
1.54365
1.63311
1.66535
1.6388
1.56619
1.47092
1.38088
1.32125
1.29806
1.30386
1.33235
1.37745
1.42953
1.47929
1.52011
1.54944
1.5685
1.58052
1.58857
1.59362
1.59432
1.58746
1.56955
1.53814
1.49266
1.4344
1.36598
1.29052
1.21118
1.1297
1.04648
0.960866
0.871116
0.774413
0.663534
0.523719
0.354137
0.161368
-0.164886
0
1.07166
3.17427
6.01637
8.9108
10.9904
11.5615
10.4301
8.00787
5.11511
2.5908
0.942484
0.222863
0.153049
0.275169
0.354285
0.422246
0.475945
0.513978
0.536625
0.54596
0.545774
0.541256
0.538422
0.543309
0.561593
0.601766
0.67284
0.76922
0.863534
0.923848
0.925969
0.865216
0.762369
0.659074
0.602157
0.623172
0.712142
0.831245
0.962282
1.09404
1.21772
1.32818
1.42413
1.50731
1.58123
1.6498
1.71626
1.78246
1.84924
1.91684
1.98538
2.05537
2.1281
2.20599
2.29461
2.4093
2.58557
2.84782
3.13841
3.37968
3.49945
3.45052
3.22658
2.87172
2.47574
2.14909
1.96989
1.87903
1.82055
1.7757
1.73693
1.6973
1.65126
1.59518
1.5275
1.44848
1.35977
1.26393
1.16375
1.06196
0.961315
0.865468
0.780084
0.711551
0.666886
0.652758
0.673865
0.731321
0.821592
0.944083
1.08362
1.21401
1.31084
1.35805
1.35241
1.30422
1.23395
1.166
1.12172
1.10853
1.11956
1.15989
1.22549
1.29501
1.3439
1.35113
1.3056
1.20971
1.0783
0.933482
0.797674
0.68547
0.595643
0.536648
0.567844
0.831851
1.29295
1.79429
2.14693
2.21286
1.97279
1.52826
1.04383
0.674097
0.524696
0.494469
0.501376
0.524075
0.557066
0.597883
0.644222
0.693711
0.743965
0.792515
0.836499
0.872447
0.897135
0.908107
0.904166
0.886098
0.857118
0.822775
0.790161
0.766548
0.757795
0.765791
0.79034
0.829034
0.877844
0.932305
0.988572
1.04404
1.09726
1.14683
1.19083
1.22691
1.25212
1.26462
1.26573
1.26113
1.26037
1.27477
1.33006
1.4432
1.5855
1.7085
1.76441
1.72442
1.58749
1.3788
1.14084
0.920815
0.749381
0.619445
0.516735
0.433221
0.363962
0.303054
0.2447
0.183973
0.117465
0
0.0894205
0.840365
2.53035
5.16475
8.29847
11.0638
12.4885
11.9788
9.66642
6.37151
3.17944
0.904055
-0.221884
-0.478144
-0.307493
-0.0672019
0.165761
0.379904
0.56357
0.707339
0.807373
0.867945
0.901349
0.924484
0.953467
1.00099
1.05997
1.10919
1.12485
1.09326
1.01845
0.921616
0.833563
0.78362
0.783341
0.861112
0.983638
1.0964
1.14918
1.12207
1.03795
0.952825
0.927354
0.995559
1.12943
1.28379
1.4418
1.59063
1.72073
1.82721
1.91027
1.97452
2.02765
2.07858
2.13722
2.21582
2.31542
2.41775
2.49565
2.52276
2.48244
2.37352
2.21149
2.02483
1.8466
1.70064
1.5864
1.49822
1.42206
1.33893
1.2317
1.09177
0.922806
0.739935
0.564712
0.417751
0.304589
0.226518
0.180556
0.159105
0.152335
0.150422
0.145041
0.130047
0.101778
0.0591988
0.00404338
-0.0592707
-0.124311
-0.183996
-0.232325
-0.265811
-0.284727
-0.290802
-0.286734
-0.274992
-0.25723
-0.234503
-0.207284
-0.17818
-0.150894
-0.128975
-0.114138
-0.105249
-0.0986729
-0.0898226
-0.0749888
-0.0530291
-0.0252289
0.00797083
0.0462158
0.0894871
0.137879
0.19102
0.247993
0.30531
0.358034
0.401095
0.430744
0.445535
0.446389
0.435781
0.416519
0.390764
0.360449
0.326525
0.289916
0.252321
0.216455
0.185936
0.164814
0.156578
0.164043
0.188565
0.229695
0.285103
0.350944
0.422089
0.492226
0.555111
0.605471
0.639656
0.656044
0.655116
0.639265
0.612392
0.579371
0.545485
0.515616
0.493547
0.481752
0.481598
0.494515
0.519856
0.553758
0.592065
0.631776
0.672089
0.714599
0.762463
0.818833
0.885143
0.959531
1.03761
1.11399
1.18275
1.23869
1.27823
1.29989
1.30414
1.29293
1.26895
1.23522
1.19429
1.14789
1.09699
1.04204
0.983197
0.920532
0.854189
0.784376
0.711506
0.636079
0.558391
0.478361
0.395198
0.307061
0.212609
0.110964
-0.0255271
0
0.689099
2.36814
5.02638
8.17827
10.9609
12.4763
12.2131
10.2933
7.38829
4.36842
1.91994
0.348801
-0.377413
-0.462799
-0.149698
0.124689
0.356075
0.530004
0.640597
0.692357
0.699376
0.681735
0.660135
0.650514
0.657097
0.676387
0.70591
0.741404
0.778819
0.815795
0.852478
0.891421
0.936613
0.99193
1.05954
1.13834
1.22588
1.31599
1.40156
1.47729
1.54163
1.59781
1.65313
1.71709
1.79857
1.90308
2.03289
2.18469
2.34481
2.49676
2.6254
2.71982
2.77408
2.78813
2.76678
2.7192
2.65867
2.60174
2.56597
2.59307
2.7128
2.88205
3.02492
3.07433
3.01015
2.86717
2.70792
2.58139
2.49846
2.42829
2.35679
2.27632
2.18116
2.06807
1.9365
1.78855
1.62966
1.46553
1.30582
1.16067
1.03895
0.946696
0.886446
0.85743
0.856408
0.878554
0.916262
0.963967
1.01537
1.06422
1.10484
1.13267
1.14446
1.13813
1.11246
1.06694
1.00304
0.922891
0.830993
0.734613
0.643488
0.568718
0.521085
0.531887
0.661358
0.904486
1.17882
1.39864
1.50598
1.48462
1.35648
1.16729
0.971873
0.823102
0.7415
0.707662
0.706261
0.724391
0.745319
0.754051
0.742846
0.71404
0.678541
0.650458
0.640386
0.649501
0.668271
0.689589
0.70634
0.71293
0.706513
0.68726
0.65774
0.621821
0.583585
0.54604
0.510876
0.479069
0.45111
0.42714
0.407469
0.392856
0.384538
0.383889
0.391885
0.410541
0.437838
0.467227
0.490555
0.500597
0.493405
0.469434
0.433028
0.390671
0.348898
0.311989
0.281447
0.258288
0.24348
0.237743
0.241686
0.255736
0.279917
0.313593
0.356153
0.405466
0.458811
0.514136
0.571026
0.631513
0.710068
0.875053
1.13768
1.41531
1.56541
1.48004
1.16086
0.721552
0.323419
0.0918747
0.0269001
0.00580149
0.00204926
0
-0.0152051
-0.0560961
-0.131731
-0.24698
-0.402197
-0.599343
-0.828112
-1.07401
-1.36969
-1.0764
0.260901
2.81856
6.24101
9.635
11.8881
12.1835
10.4209
7.2854
3.9056
1.30268
-0.0430736
-0.28431
0.0344954
-0.0523858
-0.156337
-0.263907
-0.362617
-0.436501
-0.472195
-0.464503
-0.418887
-0.34982
-0.275843
-0.213559
-0.168983
-0.142106
-0.130576
-0.128511
-0.127773
-0.119844
-0.0980276
-0.0571617
0.00861607
0.112368
0.25932
0.425925
0.578454
0.685709
0.72906
0.708279
0.641569
0.5601
0.498875
0.486722
0.525889
0.603893
0.709765
0.836893
0.980862
1.13762
1.30417
1.47792
1.65512
1.83055
1.99662
2.14095
2.24882
2.30771
2.30645
2.2389
2.10927
1.93594
1.74972
1.58487
1.46634
1.38929
1.33713
1.29777
1.25765
1.20554
1.13475
1.04347
0.933456
0.808269
0.672733
0.532597
0.392456
0.25839
0.137595
0.0374569
-0.035821
-0.0785116
-0.0900764
-0.0731234
-0.0328104
0.0239229
0.0897747
0.154871
0.207233
0.236068
0.23416
0.200308
0.140453
0.0665037
-0.00711555
-0.0679691
-0.110742
-0.139295
-0.156796
-0.16686
-0.172973
-0.177385
-0.180569
-0.181317
-0.17734
-0.166146
-0.1467
-0.117445
-0.0769342
-0.0326626
-0.00196571
-0.00408249
-0.0522188
-0.145891
-0.267887
-0.388741
-0.477725
-0.515403
-0.514321
-0.487042
-0.447369
-0.409589
-0.384386
-0.376002
-0.383407
-0.40172
-0.424927
-0.448444
-0.470878
-0.493044
-0.517415
-0.547208
-0.585316
100
265
437
613
784
951
1120
1293
1471
1642
1808
1975
2147
2328
2516
2698
2875
3055
3238
3428
3622
3580
3739
3437
3583
3727
3736
0
0
0
0
0
0
0
0
0
0
0
0
0
0
0
0
0
0
0
0
0
0
0
0
0
0
0
0
0
0
0
0
0
0
0
0
0
0
0
0
0
0
0
0
0
0
0
0
0
0
0
0
0
0
0
0
0
0
0
0
0
0
0
0
0
0
0
0
0
0
0
0
0
0
0
0
0
0
0
0
0
0
0
0
0
0
0
0
0
0
0
0
0
0
0
0
0
0
0
0
0
0
0
0
0
0
0
0
0
0
0
0
0
0
0
0
0
0
0
0
0
0
0
0
0
0
0
0
0
0
0
0
0
0
0
0
0
0
0
0
0
0
0
0
0
0
0
0
0
0
0
0
0
0
0
0
0
0
0
0
0
0
0
0
0
0
0
0
0
0
0
0
0
0
0
0
0
0
0
0
0
0
0
0
0
0
0
0
0
0
0
0
0
0
0
0
0
0
0
0
0
0
0
0
0
0
0
0
0
0
0
0
0
0
0
0
0
0
0
0
0
0
0
0
0
0
0
0
0
0
0
0
0
0
0
0
0
0
0
0
0
0
0
0
0
0
0
0
0
0
0
0
0
0
0
0
0
0
0
0
0
0
0
0
0
0
0
0
0
0
0
0
0
0
0
0
0
0
0
0
0
0
0
0
0
0
0
0
0
0
0
0
0
0
0
0
0
0
0
0
0
0
0
0
0
0
0
0
0
0
0
0
0
0
0
0
0
0
0
0
0
0
0
0
0
0
0
0
0
0
0
0
0
0
0
0
0
0
0
0
0
0
0
0
0
0
0
0
0
0
0
0
0
0
0
0
0
0
0
0
0
0
0
0
0
0
0
0
0
0
0
0
0
0
0
0
0
0
0
0
0
0
0
0
0
0
0
0
0
0
0
0
0
0
0
0
0
0
0
0
0
0
0
0
0
0
0
0
0
0
0
0
0
0
0
0
0
0
0
0
0
0
0
0
0
0
0
0
0
0
0
0
0
0
0
0
0
0
0
0
0
0
0
0
0
0
0
0
0
0
0
0
0
0
0
0
0
0
0
0
0
0
0
0
0
0
0
0
0
0
0
0
0
0
0
0
0
0
0
0
0
0
0
0
0
0
0
0
0
0
0
0
0
0
0
0
0
0
0
0
0
0
0
0
0
0
0
0
0
0
0
0
0
0
0
0
0
0
0
0
0
0
0
0
0
0
0
0
0
0
0
0
0
0
0
0
0
0
0
0
0
0
0
0
0
0
0
0
0
0
0
0
0
0
0
0
0
0
0
0
0
0
0
0
0
0
0
0
0
0
0
0
0
0
0
0
0
0
0
0
0
0
0
0
0
0
0
0
0
0
0
0
0
0
0
0
0
0
0
0
0
0
0
0
0
0
0
0
0
0
0
0
0
0
0
0
0
0
0
0
0
0
0
0
0
0
0
0
0
0
0
0
0
0
0
0
0
0
0
0
0
0
0
0
0
0
0
0
0
0
0
0
0
0
0
0
0
0
0
0
0
0
0
0
0
0
0
0
0
0
0
0
0
0
0
0
0
0
0
0
0
0
0
0
0
0
0
0
0
0
0
0
0
0
0
0
0
0
0
0
0
0
0
0
0
0
0
0
0
0
0
0
0
0
0
0
0
0
0
0
0
0
0
0
0
0
0
0
0
0
0
0
0
0
0
0
0
0
0
0
0
0
0
0
0
0
0
0
0
0
0
0
0
0
0
0
0
0
0
0
0
0
0
0
0
0
0
0
0
0
0
0
0
0
0
0
0
0
0
0
0
0
0
0
0
0
0
0
0
0
0
0
0
0
0
0
0
0
0
0
0
0
0
0
0
0
0
0
0
0
0
0
0
0
0
0
0
0
0
0
0
0
0
0
0
0
0
0
0
0
0
0
0
0
0
0
0
0
0
0
0
0
0
0
0
0
0
0
0
0
0
0
0
0
0
0
0
0
0
0
0
0
0
0
0
0
0
0
0
0
0
0
0
0
0
0
0
0
0
0
0
0
0
0
0
0
0
0
0
0
0
0
0
0
0
0
0
0
0
0
0
0
0
0
0
0
0
0
0
0
0
0
0
0
0
0
0
0
0
0
0
0
0
0
0
0
0
0
0
0
0
0
0
0
0
0
0
0
0
0
0
0
0
0
0
0
0
0
0
0
0
0
0
0
0
0
0
0
0
0
0
0
0
0
0
0
0
0
0
0
0
0
0
0
0
0
0
0
0
0
0
0
0
0
0
0
0
0
0
0
0
0
0
0
0
0
0
0
0
0
0
0
0
0
0
0
0
0
0
0
0
0
0
0
0
0
0
0
0
0
0
0
0
0
0
0
0
0
0
0
0
0
0
0
0
0
0
0
0
0
0
0
0
0
0
0
0
0
0
0
0
0
0
0
0
0
0
0
0
0
0
0
0
0
0
0
0
0
0
0
0
0
0
0
0
0
0
0
0
0
0
0
0
0
0
0
0
0
0
0
0
0
0
0
0
0
0
0
0
0
0
0
0
0
0
0
0
0
0
0
0
0
0
0
0
0
0
0
0
0
0
0
0
0
0
0
0
0
0
0
0
0
0
0
0
0
0
0
0
0
0
0
0
0
0
0
0
0
0
0
0
0
0
0
0
0
0
0
0
0
0
0
0
0
0
0
0
0
0
0
0
0
0
0
0
0
0
0
0
0
0
0
0
0
0
0
0
0
0
0
0
0
0
0
0
0
0
0
0
0
0
0
0
0
0
0
0
0
0
0
0
0
0
0
0
0
0
0
0
0
0
0
0
0
0
0
0
0
0
0
0
0
0
0
0
0
0
0
0
0
0
0
0
0
0
0
0
0
0
0
0
0
0
0
0
0
0
0
0
0
0
0
0
0
0
0
0
0
0
0
0
0
0
0
0
0
0
0
0
0
0
0
0
0
0
0
0
0
0
0
0
0
0
0
0
0
0
0
0
0
0
0
0
0
0
0
0
0
0
0
0
0
0
0
0
0
0
0
0
0
0
0
0
0
0
0
0
0
0
0
0
0
0
0
0
0
0
0
0
0
0
0
0
0
0
0
0
0
0
0
0
0
0
0
0
0
0
0
0
0
0
0
0
0
0
0
0
0
0
0
0
0
0
0
0
0
0
0
0
0
0
0
0
0
0
0
0
0
0
0
0
0
0
0
0
0
0
0
0
0
0
0
0
0
0
0
0
0
0
0
0
0
0
0
0
0
0
0
0
0
0
0
0
0
0
0
0
0
0
0
0
0
0
0
0
0
0
0
0
0
0
0
0
0
0
0
0
0
0
0
0
0
0
0
0
0
0
0
0
0
0
0
0
0
0
0
0
0
0
0
0
0
0
0
0
0
0
0
0
0
0
0
0
0
0
0
0
0
0
0
0
0
0
0
0
0
0
0
0
0
0
0
0
0
0
0
0
0
0
0
0
0
0
0
0
0
0
0
0
0
0
0
0
0
0
0
0
0
0
0
0
0
0
0
0
0
0
0
0
0
0
0
0
0
0
0
0
0
0
0
0
0
0
0
0
0
0
0
0
0
0
0
0
0
0
0
0
0
0
0
0
0
0
0
0
0
0
0
0
0
0
0
0
0
0
0
0
0
0
0
0
0
0
0
0
0
0
0
0
0
0
0
0
0
0
0
0
0
0
0
0
0
0
0
0
0
0
0
0
0
0
0
0
0
0
0
0
0
0
0
0
0
0
0
0
0
0
0
0
0
0
0
0
0
0
0
0
0
0
0
0
0
0
0
0
0
0
0
0
0
0
0
0
0
0
0
0
0
0
0
0
0
0
0
0
0
0
0
0
0
0
0
0
0
0
0
0
0
0
0
0
0
0
0
0
0
0
0
0
0
0
0
0
0
0
0
0
0
0
0
0
0
0
0
0
0
0
0
0
0
0
0
0
0
0
0
0
0
0
0
0
0
0
0
0
0
0
0
0
0
0
0
0
0
0
0
0
0
0
0
0
0
0
0
0
0
0
0
0
0
0
0
0
0
0
0
0
0
0
0
0
0
0
0
0
0
0
0
0
0
0
0
0
0
0
0
0
0
0
0
0
0
0
0
0
0
0
0
0
0
0
0
0
0
0
0
0
0
0
0
0
0
0
0
0
0
0
0
0
0
0
0
0
0
0
0
0
0
0
0
0
0
0
0
0
0
0
0
0
0
0
0
0
0
0
0
0
0
0
0
0
0
0
0
0
0
0
0
0
0
0
0
0
0
0
0
0
0
0
0
0
0
0
0
0
0
0
0
0
0
0
0
0
0
0
0
0
0
0
0
0
0
0
0
0
0
0
0
0
0
0
0
0
0
0
0
0
0
0
0
0
0
0
0
0
0
0
0
0
0
0
0
0
0
0
0
0
0
0
0
0
0
0
0
0
0
0
0
0
0
0
0
0
0
0
0
0
0
0
0
0
0
0
0
0
0
0
0
0
0
0
0
0
0
0
0
0
0
0
0
0
0
0
0
0
0
0
0
0
0
0
0
0
0
0
0
0
0
0
0
0
0
0
0
0
0
0
0
0
0
0
0
0
0
0
0
0
0
0
0
0
0
0
0
0
0
0
0
0
0
0
0
0
0
0
0
0
0
0
0
0
0
0
0
0
0
0
0
0
0
0
0
0
0
0
0
0
0
0
0
0
0
0
0
0
0
0
0
0
0
0
0
0
0
0
0
0
0
0
0
0
0
0
0
0
0
0
0
0
0
0
0
0
0
0
0
0
0
0
0
0
0
0
0
0
0
0
0
0
0
0
0
0
0
0
0
0
0
0
0
0
0
0
0
0
0
0
0
0
0
0
0
0
0
0
0
0
0
0
0
0
0
0
0
0
0
0
0
0
0
0
0
0
0
0
0
0
0
0
0
0
0
0
0
0
0
0
0
0
0
0
0
0
0
0
0
0
0
0
0
0
0
0
0
0
0
0
0
0
0
0
0
0
0
0
0
0
0
0
0
0
0
0
0
0
0
0
0
0
0
0
0
0
0
0
0
0
0
0
0
0
0
0
0
0
0
0
0
0
0
0
0
0
0
0
0
0
0
0
0
0
0
0
0
0
0
0
0
0
0
0
0
0
0
0
0
0
0
0
0
0
0
0
0
0
0
0
0
0
0
0
0
0
0
0
0
0
0
0
0
0
0
0
0
0
0
0
0
0
0
0
0
0
0
0
0
0
0
0
0
0
0
0
0
0
0
0
0
0
0
0
0
0
0
0
0
0
0
0
0
0
0
0
0
0
0
0
0
0
0
0
0
0
0
0
0
0
0
0
0
0
0
0
0
0
0
0
0
0
0
0
0
0
0
0
0
0
0
0
0
0
0
0
0
0
0
0
0
0
0
0
0
0
0
0
0
0
0
0
0
0
0
0
0
0
0
0
0
0
0
0
0
0
0
0
0
0
0
0
0
0
0
0
0
0
0
0
0
0
0
0
0
0
0
0
0
0
0
0
0
0
0
0
0
0
0
0
0
0
0
0
0
0
0
0
0
0
0
0
0
0
0
0
0
0
0
0
0
0
0
0
0
0
0
0
0
0
0
0
0
0
0
0
0
0
0
0
0
0
0
0
0
0
0
0
0
0
0
0
0
0
0
0
0
0
0
0
0
0
0
0
0
0
0
0
0
0
0
0
0
0
0
0
0
0
0
0
0
0
0
0
0
0
0
0
0
0
0
0
0
0
0
0
0
0
0
0
0
0
0
0
0
0
0
0
0
0
0
0
0
0
0
0
0
0
0
0
0
0
0
0
0
0
0
0
0
0
0
0
0
0
0
0
0
0
0
0
0
0
0
0
0
0
0
0
0
0
0
0
0
0
0
0
0
0
0
0
0
0
0
0
0
0
0
0
0
0
0
0
0
0
0
0
0
0
0
0
0
0
0
0
0
0
0
0
0
0
0
0
0
0
0
0
0
0
0
0
0
0
0
0
0
0
0
0
0
0
0
0
0
0
0
0
0
0
0
0
0
0
0
0
0
0
0
0
0
0
0
0
0
0
0
0
0
0
0
0
0
0
0
0
0
0
0
0
0
0
0
0
0
0
0
0
0
0
0
0
0
0
0
0
0
0
0
0
0
0
0
0
0
0
0
0
0
0
0
0
0
0
0
0
0
0
0
0
0
0
0
0
0
0
0
0
0
0
0
0
0
0
0
0
0
0
0
0
0
0
0
0
0
0
0
0
0
0
0
0
0
0
0
0
0
0
0
0
0
0
0
0
0
0
0
0
0
0
0
0
0
0
0
0
0
0
0
0
0
0
0
0
0
0
0
0
0
0
0
0
0
0
0
0
0
0
0
0
0
0
0
0
0
0
0
0
0
0
0
0
0
0
0
0
0
0
0
0
0
0
0
0
0
0
0
0
0
0
0
0
0
0
0
0
0
0
0
0
0
0
0
0
0
0
0
0
0
0
0
0
0
0
0
0
0
0
0
0
0
0
0
0
0
0
0
0
0
0
0
0
0
0
0
0
0
0
0
0
0
0
0
0
0
0
0
0
0
0
0
0
0
0
0
0
0
0
0
0
0
0
0
0
0
0
0
0
0
0
0
0
0
0
0
0
0
0
0
0
0
0
0
0
0
0
0
0
0
0
0
0
0
0
0
0
0
0
0
0
0
0
0
0
0
0
0
0
0
0
0
0
0
0
0
0
0
0
0
0
0
0
0
0
0
0
0
0
0
0
0
0
0
0
0
0
0
0
0
0
0
0
0
0
0
0
0
0
0
0
0
0
0
0
0
0
0
0
0
0
0
0
0
0
0
0
0
0
0
0
0
0
0
0
0
0
0
0
0
0
0
0
0
0
0
0
0
0
0
0
0
0
0
0
0
0
0
0
0
0
0
0
0
0
0
0
0
0
0
0
0
0
0
0
0
0
0
0
0
0
0
0
0
0
0
0
0
0
0
0
0
0
0
0
0
0
0
0
0
0
0
0
0
0
0
0
0
0
0
0
0
0
0
0
0
0
0
0
0
0
0
0
0
0
0
0
0
0
0
0
0
0
0
0
0
0
0
0
0
0
0
0
0
0
0
0
0
0
0
0
0
0
0
0
0
0
0
0
0
0
0
0
0
0
0
0
0
0
0
0
0
0
0
0
0
0
0
0
0
0
0
0
0
0
0
0
0
0
0
0
0
0
0
0
0
0
0
0
0
0
0
0
0
0
0
0
0
0
0
0
0
0
0
0
0
0
0
0
0
0
0
0
0
0
0
0
0
0
0
0
0
0
0
0
0
0
0
0
0
0
0
0
0
0
0
0
0
0
0
0
0
0
0
0
0
0
0
0
0
0
0
0
0
0
0
0
0
0
0
0
0
0
0
0
0
0
0
0
0
0
0
0
0
0
0
0
0
0
0
0
0
0
0
0
0
0
0
0
0
0
0
0
0
0
0
0
0
0
0
0
0
0
0
0
0
0
0
0
0
0
0
0
0
0
0
0
0
0
0
0
0
0
0
0
0
0
0
0
0
0
0
0
0
0
0
0
0
0
0
0
0
0
0
0
0
0
0
0
0
0
0
0
0
0
0
0
0
0
0
0
0
0
0
0
0
0
0
0
0
0
0
0
0
0
0
0
0
0
0
0
0
0
0
0
0
0
0
0
0
0
0
0
0
0
0
0
0
0
0
0
0
0
0
0
0
0
0
0
0
0
0
0
0
0
0
0
0
0
0
0
0
0
0
0
0
0
0
0
0
0
0
0
0
0
0
0
0
0
0
0
0
0
0
0
0
0
0
0
0
0
0
0
0
0
0
0
0
0
0
0
0
0
0
0
0
0
0
0
0
0
0
0
0
0
0
0
0
0
0
0
0
0
0
0
0
0
0
0
0
0
0
0
0
0
0
0
0
0
0
0
0
0
0
0
0
0
0
0
0
0
0
0
0
0
0
0
0
0
0
0
0
0
0
0
0
0
0
0
0
0
0
0
0
0
0
0
0
0
0
0
0
0
0
0
0
0
0
0
0
0
0
0
0
0
0
0
0
0
0
0
0
0
0
0
0
0
0
0
0
0
0
0
0
0
0
0
0
0
0
0
0
0
0
0
0
0
0
0
0
0
0
0
0
0
0
0
0
0
0
0
0
0
0
0
0
0
0
0
0
0
0
0
0
0
0
0
0
0
0
0
0
0
0
0
0
0
0
0
0
0
0
0
0
0
0
0
0
0
0
0
0
0
0
0
0
0
0
0
0
0
0
0
0
0
0
0
0
0
0
0
0
0
0
0
0
0
0
0
0
0
0
0
0
0
0
0
0
0
0
0
0
0
0
0
0
0
0
0
0
0
0
0
0
0
0
0
0
0
0
0
0
0
0
0
0
0
0
0
0
0
0
0
0
0
0
0
0
0
0
0
0
0
0
0
0
0
0
0
0
0
0
0
0
0
0
0
0
0
0
0
0
0
0
0
0
0
0
0
0
0
0
