0.217798
0.293318
0.369088
0.440525
0.503584
0.55553
0.595688
0.625972
0.650872
0.676797
0.71087
0.759536
0.82688
0.9125
1.01489
1.13262
1.26355
1.40477
1.55281
1.70386
1.85402
1.99967
2.13792
2.26716
2.38735
2.50018
2.6089
2.7179
2.83232
2.95974
3.11376
3.31505
3.57021
3.83902
4.06734
4.20501
4.2153
4.08691
3.84326
3.53978
3.24472
3.00952
2.82445
2.6605
2.50442
2.35126
2.19814
2.04285
1.88381
1.7202
1.55196
1.37996
1.20625
1.03426
0.869747
0.720578
0.594499
0.498193
0.435829
0.408102
0.412103
0.442134
0.491246
0.553019
0.622972
0.698645
0.779631
0.867678
0.964411
1.06309
1.15068
1.21275
1.23992
1.23258
1.20122
1.1619
1.12906
1.10941
1.09727
1.08597
1.06839
1.03915
0.996666
0.943791
0.887104
0.835176
0.796133
0.773614
0.76834
0.781277
0.813066
0.862292
0.92305
0.984735
1.03594
1.067
1.07196
1.04987
1.00502
0.945897
0.883222
0.827343
0.784441
0.755099
0.737869
0.730373
0.727166
0.722139
0.710078
0.687974
0.655774
0.616384
0.574969
0.537781
0.510554
0.496154
0.495764
0.511591
0.544104
0.58663
0.627452
0.654682
0.65952
0.638762
0.595594
0.538372
0.478016
0.425224
0.386688
0.363912
0.358673
0.373543
0.410526
0.47094
0.555179
0.662491
0.790879
0.93716
1.09711
1.26536
1.43689
1.6019
1.74876
1.86619
1.94541
1.982
1.97664
1.93425
1.86198
1.76729
1.65832
1.54295
1.42649
1.31368
1.20935
1.11885
1.05051
1.01103
0.992032
0.978831
0.95539
0.909977
0.838958
0.747006
0.643883
0.539645
0.440435
0.34603
0.255706
0.168325
0.0829632
0
-0.0663776
0.0724007
0.758231
2.18354
4.51775
7.68331
11.2512
14.474
16.4835
16.5935
14.5987
10.9261
6.5271
2.51858
-0.261805
-1.54872
-1.6379
-1.39004
-1.16105
-0.965769
-0.812017
-0.699306
-0.617649
-0.554498
-0.495287
-0.426424
-0.340187
-0.234064
-0.108507
0.0335915
0.187693
0.345951
0.497226
0.63074
0.738368
0.816034
0.864334
0.888331
0.896621
0.899957
0.909728
0.935937
0.983935
1.05621
1.15451
1.27869
1.42592
1.59105
1.76728
1.94472
2.11338
2.26506
2.39479
2.50154
2.58823
2.66094
2.72755
2.79621
2.87351
2.96353
3.06802
3.18667
3.31746
3.45729
3.60263
3.75016
3.89732
4.04249
4.18497
4.32449
4.4605
4.59127
4.7129
4.81968
4.90413
4.95848
4.97613
4.95266
4.88619
4.77703
4.62721
4.44038
4.22411
3.98561
3.7307
3.4644
3.19147
2.9167
2.64539
2.38339
2.13713
1.91269
1.71538
1.54954
1.4169
1.31682
1.2465
1.2014
1.17621
1.16591
1.16484
1.1684
1.17334
1.17782
1.18115
1.18341
1.18479
1.18507
1.18327
1.1776
1.16576
1.14549
1.11534
1.07526
1.02699
0.974021
0.921209
0.874028
0.8377
0.815617
0.809819
0.822591
0.856584
0.904045
0.942953
0.948424
0.90033
0.791056
0.630135
0.443293
0.265844
0.148782
0.195998
0.401307
0.663733
0.879673
0.986978
0.972356
0.85321
0.657221
0.418123
0.186243
0.0150589
-0.0806412
-0.114108
-0.106519
-0.0737236
-0.0222122
0.0410381
0.109782
0.179264
0.246652
0.31028
0.368342
0.418517
0.458809
0.487059
0.5022
0.505651
0.502033
0.498674
0.503993
0.525371
0.566378
0.624213
0.696615
0.780816
0.873069
0.96913
1.06468
1.15523
1.23713
1.30795
1.36682
1.41441
1.45253
1.48334
1.50834
1.5271
1.53706
1.53362
1.51097
1.46362
1.3879
1.2832
1.15247
1.00203
0.840634
0.678246
0.523143
0.381599
0.258959
0.158919
0.083001
0.0310211
0.00149956
-0.00790634
0
0.0260349
0.0635555
0.109846
0.162348
0.3577
1.00596
2.30371
4.42225
7.35546
10.7937
14.0792
16.33
16.7455
14.9689
11.3093
6.67515
2.22797
-1.07423
-2.81026
-3.15371
-2.59336
-2.03073
-1.56699
-1.28445
-1.17262
-1.09819
-1.03346
-0.976021
-0.926619
-0.886659
-0.857515
-0.839195
-0.829343
-0.823016
-0.813368
-0.793031
-0.755691
-0.69919
-0.625028
-0.534502
-0.429607
-0.313366
-0.189262
-0.0609245
0.0680374
0.194094
0.313558
0.423315
0.522065
0.610413
0.691136
0.769026
0.850156
0.940651
1.04524
1.16602
1.30107
1.44567
1.59479
1.74344
1.88727
2.02341
2.15083
2.27028
2.38375
2.49373
2.60232
2.71049
2.81761
2.92097
3.01664
3.10079
3.17117
3.22834
3.27602
3.32072
3.37047
3.43784
3.54532
3.7088
3.89764
4.05901
4.13754
4.09017
3.89794
3.57377
3.16326
2.73402
2.35246
2.02893
1.73949
1.47199
1.22351
0.990786
0.771102
0.563125
0.367298
0.185818
0.022164
-0.119713
-0.235509
-0.317009
-0.351084
-0.34042
-0.308191
-0.281038
-0.279694
-0.311031
-0.3653
-0.420278
-0.450884
-0.424479
-0.348278
-0.257688
-0.198415
-0.203238
-0.275909
-0.390149
-0.503106
-0.574937
-0.583964
-0.555596
-0.508088
-0.448609
-0.381991
-0.313156
-0.246348
-0.184192
-0.127625
-0.0761913
-0.0286491
0.01588
0.0571518
0.0933279
0.121034
0.137349
0.142059
0.138838
0.134507
0.136511
0.149781
0.173719
0.204188
0.234359
0.257291
0.268621
0.26836
0.261258
0.255694
0.261477
0.286234
0.332401
0.398611
0.481362
0.577058
0.680162
0.78537
0.888953
0.989701
1.08921
1.19146
1.30202
1.43436
1.62694
1.9515
2.37436
2.79136
3.1078
3.23276
3.11264
2.77545
2.33684
1.94755
1.71414
1.59433
1.50665
1.42962
1.35904
1.29449
1.23651
1.18581
1.14277
1.10706
1.07696
1.04774
1.01246
0.963518
0.894247
0.793517
0.648597
0.472567
0.291098
0.128855
0
-0.0522728
0.556885
1.65503
3.40895
5.93625
9.15166
12.6363
15.6361
17.2647
16.8595
14.3231
10.2439
5.69796
1.81095
-0.686997
-1.68159
-1.5753
-0.987263
-0.440624
0.00600758
0.303492
0.441992
0.525068
0.57189
0.585935
0.575452
0.552121
0.528603
0.515903
0.519805
0.539981
0.575218
0.625153
0.689651
0.768679
0.86241
0.971167
1.09679
1.24452
1.42065
1.61485
1.79602
1.92895
1.98675
1.96303
1.87773
1.77254
1.69623
1.6861
1.74219
1.83505
1.94697
2.06983
2.198
2.32702
2.4538
2.57672
2.69538
2.81044
2.92338
3.03639
3.15216
3.27365
3.40362
3.54412
3.69581
3.85757
4.02732
4.19837
4.35903
4.49715
4.60301
4.67145
4.70229
4.69904
4.66635
4.60743
4.52321
4.41673
4.28771
4.13473
3.95815
3.76058
3.54677
3.32277
3.09509
2.86898
2.64825
2.43526
2.23111
2.03615
1.85052
1.67453
1.50876
1.35399
1.21085
1.07963
0.960289
0.852675
0.756915
0.673824
0.6047
0.551355
0.515792
0.499672
0.503741
0.527379
0.569809
0.628806
0.698575
0.768715
0.827419
0.864287
0.872168
0.848409
0.79514
0.718564
0.627484
0.531645
0.440058
0.358411
0.289717
0.236681
0.201769
0.186373
0.190709
0.21412
0.255178
0.31193
0.379693
0.447617
0.503047
0.535643
0.540544
0.520717
0.487129
0.456032
0.443962
0.462295
0.508636
0.572951
0.649234
0.73198
0.816745
0.901274
0.985875
1.07295
1.16586
1.26747
1.37892
1.49839
1.622
1.74473
1.86044
1.96292
2.04699
2.10894
2.14656
2.15902
2.14643
2.10949
2.0493
1.96725
1.86598
1.74836
1.61722
1.47575
1.32716
1.17437
1.01978
0.865116
0.711977
0.562265
0.418499
0.284389
0.165926
0.0725391
0.0142635
0
0.0401993
0.138135
0.293665
0.498445
0.768819
1.54101
2.55656
3.99565
6.06015
8.76408
11.7446
14.2616
15.4426
14.6761
11.9338
7.82657
3.36563
-0.432701
-2.89252
-3.83405
-3.5216
-2.49564
-1.32461
-0.437475
-0.0212656
-0.0406019
-0.0516308
-0.0525419
-0.041358
-0.0138601
0.0321547
0.0899349
0.148589
0.198461
0.235225
0.26191
0.287827
0.324667
0.381392
0.460238
0.55283
0.650841
0.746638
0.834836
0.91391
0.986262
1.0568
1.13063
1.21084
1.29646
1.38471
1.47038
1.54793
1.61342
1.666
1.70846
1.74682
1.78908
1.84332
1.91564
2.00772
2.11803
2.2436
2.38076
2.52543
2.67401
2.82401
2.9743
3.12485
3.27646
3.42715
3.56579
3.67387
3.73298
3.734
3.683
3.60038
3.51348
3.44552
3.40334
3.37421
3.34588
3.30569
3.24075
3.14056
2.9991
2.81597
2.59638
2.34987
2.0886
1.82445
1.56501
1.31518
1.07755
0.852456
0.638581
0.433929
0.237461
0.0501093
-0.123723
-0.275514
-0.395563
-0.474747
-0.507787
-0.495466
-0.445065
-0.368833
-0.281025
-0.194552
-0.117728
-0.0518944
0.00399094
0.0506121
0.0900446
0.125083
0.158908
0.194736
0.235374
0.282681
0.337086
0.397359
0.460786
0.523761
0.582693
0.634879
0.679057
0.715496
0.745643
0.771554
0.795383
0.819134
0.844623
0.873782
0.908798
0.952007
1.00719
1.0814
1.17692
1.2779
1.36068
1.40232
1.39028
1.3286
1.23748
1.14698
1.08805
1.08069
1.116
1.18321
1.27757
1.39751
1.54053
1.69242
1.8377
1.96346
2.06248
2.13468
2.18644
2.22792
2.26948
2.31837
2.37728
2.44353
2.50659
2.55181
2.56492
2.53535
2.4584
2.33592
2.17519
1.98653
1.78057
1.56711
1.35307
1.14227
0.938077
0.744456
0.565317
0.4045
0.266324
0.155287
0.0737833
0.0222872
0
0.00469074
0.03358
0.0827023
0.147345
0.222305
0.3208
0.688095
1.55993
3.14548
5.51505
8.50605
11.6531
14.2152
15.3785
14.5969
11.8964
7.93625
3.75131
0.309983
-1.85559
-2.75646
-2.67964
-2.41228
-2.13307
-1.89578
-1.71123
-1.55471
-1.4076
-1.26881
-1.13968
-1.02198
-0.916594
-0.82286
-0.739375
-0.666399
-0.604843
-0.555187
-0.51799
-0.493568
-0.481106
-0.477942
-0.479414
-0.479441
-0.471713
-0.451145
-0.416452
-0.369318
-0.31119
-0.24542
-0.177219
-0.111183
-0.0495928
0.00854206
0.0675217
0.133924
0.214685
0.314807
0.435409
0.571536
0.716275
0.860048
0.993125
1.10781
1.19998
1.26963
1.32023
1.35736
1.38708
1.41467
1.44355
1.4758
1.51276
1.55567
1.60608
1.66602
1.74133
1.84364
1.9794
2.13044
2.26726
2.35857
2.38121
2.32566
2.19596
2.00647
1.77776
1.53213
1.2873
1.0488
0.815694
0.585191
0.354721
0.122198
-0.113257
-0.35059
-0.5865
-0.815634
-1.03115
-1.2256
-1.39189
-1.52446
-1.6201
-1.67808
-1.6998
-1.68413
-1.63163
-1.55055
-1.45792
-1.37266
-1.31127
-1.28539
-1.30018
-1.35368
-1.43725
-1.53694
-1.63569
-1.71727
-1.77189
-1.79678
-1.79353
-1.762
-1.70055
-1.61162
-1.50834
-1.41126
-1.33962
-1.30778
-1.32245
-1.38166
-1.47521
-1.58667
-1.6958
-1.78273
-1.83765
-1.8577
-1.83693
-1.77377
-1.67162
-1.53096
-1.36596
-1.19847
-1.04967
-0.936141
-0.867624
-0.846578
-0.869089
-0.926381
-1.00642
-1.09516
-1.18004
-1.25164
-1.30416
-1.33623
-1.3489
-1.34287
-1.31963
-1.28074
-1.22752
-1.16089
-1.08075
-0.986375
-0.877137
-0.752842
-0.614038
-0.462169
-0.299613
-0.129646
0.0436777
0.215716
0.381314
0.53537
0.673318
0.791526
0.887601
0.960479
1.01032
1.03827
1.04615
1.03633
1.0117
0.975459
0.931254
0.882939
0.834233
0.788186
0.74676
0.710506
0.677629
0.644446
0.606508
0.559791
0.501774
0.432142
0.352953
0.268246
0.183657
0.107311
0.0472933
0.0101686
0
0.0191853
0.0624634
0.15137
0.662571
1.49034
2.9373
5.3165
8.66424
12.4968
15.8287
17.5215
16.8191
13.7652
9.23779
4.55779
0.893425
-1.19774
-1.85341
-1.63166
-1.19835
-0.810779
-0.508522
-0.319866
-0.211009
-0.134125
-0.07463
-0.0272148
0.0108736
0.0421328
0.0686361
0.0922949
0.11478
0.137918
0.164079
0.196302
0.238027
0.292418
0.361454
0.445085
0.54111
0.645113
0.749494
0.846359
0.929443
0.995721
1.04625
1.08602
1.12279
1.16529
1.22102
1.29341
1.38181
1.48619
1.5998
1.71454
1.82347
1.92283
2.01288
2.09714
2.18066
2.26789
2.36117
2.45959
2.56191
2.66683
2.77366
2.88272
2.99496
3.1113
3.23162
3.35411
3.47494
3.5886
3.68896
3.77044
3.82877
3.86144
3.86742
3.84662
3.79925
3.72628
3.62881
3.5075
3.36304
3.1969
3.01196
2.81271
2.60469
2.39385
2.18587
1.98566
1.79645
1.61854
1.45012
1.2883
1.13037
0.974862
0.822239
0.674942
0.536968
0.412232
0.304576
0.217854
0.155394
0.121128
0.119173
0.151791
0.216175
0.299436
0.379724
0.436136
0.453387
0.425711
0.358979
0.270046
0.18307
0.123672
0.137537
0.311861
0.597066
0.886106
1.07224
1.08685
0.923586
0.642428
0.348086
0.145974
0.0926687
0.114
0.160898
0.218732
0.282773
0.349682
0.416869
0.481683
0.541168
0.59233
0.632534
0.660495
0.677263
0.686689
0.695007
0.70952
0.736937
0.789062
0.86729
0.948556
1.00018
0.992768
0.913293
0.77244
0.602076
0.443048
0.32868
0.262417
0.223495
0.205967
0.203961
0.213373
0.233297
0.266184
0.316901
0.391187
0.491832
0.618261
0.770872
0.949412
1.15213
1.37629
1.61836
1.87441
2.14055
2.41344
2.69063
2.97087
3.25412
3.54242
3.84821
4.24625
4.83203
5.49222
6.09175
6.49173
6.57911
6.31715
5.78105
5.14626
4.62181
4.37844
4.24468
4.05584
3.82925
3.57032
3.27562
2.9464
2.58896
2.2138
1.8342
1.46381
1.11635
0.805079
0.541732
0.332656
0.17814
0.0751081
0.0180773
0
0.0165004
0.0557202
0.10942
0.182765
0.382455
1.01462
2.41011
4.7708
7.99292
11.5607
14.6168
16.2312
15.7776
13.225
9.18356
4.67258
0.735351
-1.91516
-3.0784
-3.03402
-2.49744
-2.03215
-1.6924
-1.49851
-1.42262
-1.3745
-1.33625
-1.29612
-1.24531
-1.18054
-1.10079
-1.00569
-0.901746
-0.799788
-0.710162
-0.639861
-0.59087
-0.56029
-0.542126
-0.529913
-0.519014
-0.507645
-0.495877
-0.484236
-0.47247
-0.458838
-0.440199
-0.412754
-0.372976
-0.319401
-0.252398
-0.171845
-0.0775726
0.0300907
0.15011
0.280439
0.418288
0.559099
0.696948
0.826333
0.943519
1.04751
1.14025
1.22593
1.30959
1.39552
1.48563
1.57939
1.67416
1.76518
1.8475
1.91766
1.97504
2.02241
2.06568
2.11272
2.17642
2.28156
2.44194
2.62432
2.77765
2.85288
2.82013
2.67764
2.45048
2.17928
1.90256
1.6404
1.38986
1.14626
0.90854
0.678407
0.458926
0.254009
0.0677359
-0.0966216
-0.237481
-0.355285
-0.45244
-0.532837
-0.601076
-0.661617
-0.718004
-0.772322
-0.824943
-0.874597
-0.918735
-0.954125
-0.977434
-0.9848
-0.971344
-0.935848
-0.888806
-0.845155
-0.818913
-0.818123
-0.841514
-0.878438
-0.912385
-0.926921
-0.911809
-0.872992
-0.815256
-0.750768
-0.69322
-0.65376
-0.638041
-0.645327
-0.669695
-0.702659
-0.736074
-0.764751
-0.7874
-0.804445
-0.816535
-0.824964
-0.831449
-0.83799
-0.846945
-0.860559
-0.880468
-0.907062
-0.938922
-0.972617
-1.00303
-1.02426
-1.03091
-1.02009
-0.98838
-0.935761
-0.870463
-0.803387
-0.745426
-0.705024
-0.686616
-0.690147
-0.711439
-0.742992
-0.774955
-0.797932
-0.804511
-0.788086
-0.743951
-0.670516
-0.569754
-0.447047
-0.310372
-0.168999
-0.0318546
0.0937783
0.202937
0.293604
0.366616
0.425208
0.474262
0.519389
0.565998
0.618475
0.68017
0.752664
0.8352
0.922692
1.00321
1.06176
1.08402
1.05992
0.987013
0.872499
0.732506
0.58833
0.460551
0.360116
0.283237
0.225301
0.183565
0.154162
0.133128
0.117132
0.103734
0.091222
0.0781981
0.063192
0.044572
0.0206188
-0.0100432
-0.0479786
-0.117221
0
0.731986
2.27983
4.71175
7.89506
11.4063
14.5047
16.2913
16.0521
13.6206
9.53013
4.83242
0.672472
-2.14784
-3.39883
-3.36943
-2.62142
-1.70633
-0.975992
-0.537107
-0.31472
-0.139631
0.030638
0.183309
0.318572
0.435036
0.532285
0.611834
0.675461
0.72605
0.76745
0.803922
0.83958
0.877838
0.921125
0.970755
1.02686
1.0885
1.1539
1.2208
1.28693
1.35045
1.41033
1.4666
1.52049
1.57426
1.6309
1.69373
1.76575
1.84907
1.94441
2.05093
2.16679
2.28694
2.40388
2.51068
2.60286
2.67975
2.74469
2.80395
2.86475
2.93284
3.01043
3.09539
3.18324
3.26769
3.34289
3.40538
3.45533
3.49682
3.53709
3.58554
3.6631
3.811
4.04293
4.30107
4.51375
4.622
4.59593
4.43939
4.18488
3.88128
3.57531
3.28797
3.00914
2.73184
2.45518
2.1808
1.91253
1.65616
1.41871
1.20728
1.02792
0.884533
0.778222
0.707412
0.670039
0.663439
0.67807
0.696916
0.704276
0.688835
0.646223
0.580202
0.501864
0.426883
0.371638
0.347349
0.352706
0.389265
0.469549
0.609948
0.790559
0.966638
1.09204
1.13351
1.08315
0.961455
0.808555
0.668528
0.575577
0.528254
0.510205
0.513225
0.53365
0.568225
0.612584
0.661501
0.709939
0.753625
0.789447
0.815583
0.831365
0.836984
0.833187
0.821285
0.802787
0.779454
0.753511
0.727604
0.704582
0.687106
0.677095
0.675626
0.682813
0.697078
0.715526
0.735043
0.753145
0.768608
0.781702
0.793969
0.807644
0.824969
0.847513
0.875797
0.909704
0.948891
0.992781
1.04067
1.09168
1.14485
1.1985
1.25034
1.29816
1.34077
1.37894
1.41595
1.45754
1.51101
1.58366
1.68102
1.81947
2.00641
2.2131
2.40174
2.5383
2.60256
2.59157
2.51652
2.39614
2.25068
2.09856
1.95202
1.81494
1.68775
1.5692
1.45706
1.34788
1.23779
1.1235
1.00307
0.876238
0.74431
0.609697
0.475369
0.345596
0.226406
0.122769
0.0396261
-0.019032
-0.0519018
0
0.637831
1.71779
3.40207
5.8237
8.91413
12.2437
15.0322
16.3934
15.7261
13.0298
8.94756
4.50602
0.705794
-1.81974
-2.93397
-2.87949
-2.21349
-1.47573
-0.870296
-0.524947
-0.459394
-0.441047
-0.431657
-0.425332
-0.418075
-0.405937
-0.385564
-0.354517
-0.310788
-0.254443
-0.188396
-0.119439
-0.0589526
-0.0189491
-0.00874748
-0.03187
-0.0836719
-0.150656
-0.212178
-0.244488
-0.206283
0.0129018
0.360075
0.715769
0.9607
1.02721
0.920261
0.706696
0.48488
0.348492
0.353025
0.433033
0.5431
0.66665
0.795869
0.92501
1.04989
1.16806
1.27917
1.38458
1.48676
1.58862
1.69271
1.80044
1.91211
2.02527
2.13441
2.23328
2.31714
2.38452
2.43791
2.48304
2.52684
2.57529
2.6319
2.6916
2.74113
2.76357
2.74341
2.67081
2.54397
2.36911
2.15847
1.92702
1.68976
1.45629
1.23089
1.01628
0.814997
0.628792
0.458734
0.305163
0.167697
0.0454298
-0.0635234
-0.161653
-0.25121
-0.333522
-0.408474
-0.474337
-0.528079
-0.566089
-0.583
-0.572833
-0.530989
-0.459762
-0.375386
-0.301817
-0.261695
-0.270831
-0.333817
-0.441719
-0.572976
-0.698163
-0.787949
-0.828281
-0.828052
-0.777871
-0.69157
-0.596464
-0.520527
-0.484503
-0.496987
-0.553649
-0.640202
-0.737531
-0.827085
-0.898274
-0.950515
-0.986354
-1.0079
-1.01591
-1.0134
-1.00399
-0.990491
-0.974193
-0.954755
-0.930767
-0.899138
-0.858474
-0.814985
-0.779053
-0.760746
-0.764936
-0.789212
-0.826155
-0.868707
-0.915268
-0.969726
-1.03637
-1.12008
-1.22682
-1.35425
-1.4829
-1.58787
-1.64762
-1.65122
-1.60137
-1.51247
-1.40486
-1.29823
-1.20534
-1.12757
-1.06329
-1.01332
-0.976811
-0.951833
-0.935345
-0.92309
-0.909775
-0.889631
-0.857371
-0.809314
-0.744795
-0.665771
-0.576057
-0.482257
-0.392014
-0.311732
-0.244905
-0.191093
-0.145773
-0.101066
-0.0472008
0.0297739
0.168878
0.393285
0.654501
0.882252
1.01678
1.03251
0.941854
0.780177
0.5838
0.374774
0.161458
-0.0518398
-0.261559
-0.463878
-0.654299
-0.828131
-0.980968
-1.10778
-1.20145
-1.2604
-1.29304
-1.31009
-1.32103
-1.331
-1.3392
-1.33962
-1.32349
-1.28267
-1.21492
-1.12486
-0.825331
0
1.2644
3.14275
5.70807
8.77115
11.7804
13.9142
14.3873
12.834
9.53901
5.35511
1.34143
-1.665
-3.31123
-3.72517
-3.17544
-2.6499
-2.18692
-1.83319
-1.623
-1.56199
-1.62556
-1.76777
-1.93216
-2.06169
-2.11962
-2.11565
-2.07104
-2.00123
-1.91555
-1.81935
-1.71639
-1.60877
-1.49643
-1.37587
-1.23974
-1.09389
-0.965114
-0.890601
-0.899466
-0.99418
-1.14224
-1.28339
-1.35026
-1.29372
-1.14664
-0.924703
-0.621725
-0.296541
-0.0167299
0.166041
0.229696
0.187595
0.0849551
-0.0150421
-0.0531452
0.00387211
0.123412
0.271585
0.433502
0.602115
0.772413
0.941698
1.10837
1.27229
1.42628
1.54954
1.61728
1.61868
1.57021
1.51414
1.50208
1.57283
1.72592
1.91731
2.12684
2.34183
2.54829
2.73324
2.88314
2.98217
3.02093
2.99265
2.89288
2.7221
2.48878
2.21088
1.91434
1.62825
1.37846
1.16874
0.999973
0.873201
0.78571
0.732432
0.707272
0.70256
0.713008
0.733901
0.761077
0.790853
0.819967
0.845664
0.865504
0.877373
0.880087
0.873397
0.858176
0.836503
0.811524
0.787062
0.766993
0.754533
0.751402
0.757456
0.771729
0.791943
0.814276
0.834268
0.848212
0.853861
0.850694
0.839659
0.8225
0.800913
0.775905
0.747698
0.715962
0.680413
0.641358
0.599845
0.557333
0.515071
0.473518
0.432153
0.38995
0.346016
0.300307
0.254032
0.209481
0.169285
0.136446
0.11248
0.0928185
0.0699893
0.0367004
-0.0110784
-0.0727552
-0.144173
-0.220301
-0.297781
-0.375642
-0.453908
-0.531786
-0.606394
-0.672594
-0.723991
-0.7546
-0.763492
-0.75052
-0.716566
-0.66446
-0.596951
-0.519459
-0.44054
-0.370334
-0.318473
-0.292544
-0.296591
-0.329999
-0.387175
-0.45825
-0.530785
-0.592027
-0.631611
-0.645162
-0.633254
-0.596268
-0.532601
-0.441364
-0.322651
-0.178084
-0.0114036
0.17534
0.372025
0.56198
0.729085
0.861742
0.955627
1.01415
1.04647
1.06399
1.07656
1.08981
1.10445
1.1188
1.12977
1.1334
1.12545
1.10171
1.05854
0.993077
0.903611
0.789973
0.653838
0.498823
0.330282
0.154802
-0.0204985
-0.18895
-0.344444
-0.482383
-0.599742
-0.69501
-0.767933
-0.819117
-0.849179
-0.859416
-0.851214
-0.826141
-0.786131
-0.733645
-0.671688
-0.487594
0
1.11693
3.21932
6.37294
10.1678
13.7293
15.9828
16.0881
13.8427
9.83009
5.20403
1.1972
-1.38557
-2.42817
-2.40481
-2.30309
-2.20957
-2.1249
-2.03998
-1.94166
-1.82157
-1.67975
-1.52586
-1.37476
-1.24022
-1.12588
-1.0267
-0.942406
-0.87306
-0.817884
-0.775799
-0.745115
-0.72311
-0.705809
-0.688179
-0.664841
-0.631159
-0.584653
-0.524114
-0.450768
-0.372408
-0.298023
-0.234568
-0.184309
-0.143764
-0.104658
-0.0564557
0.0105876
0.10164
0.214113
0.344966
0.492007
0.652481
0.823197
1.00111
1.18226
1.3585
1.51696
1.64466
1.73176
1.77608
1.78614
1.78031
1.7815
1.80897
1.87084
1.95567
2.04951
2.14177
2.22386
2.29186
2.34768
2.39854
2.4564
2.55437
2.73988
2.97798
3.19707
3.32242
3.30457
3.13377
2.83845
2.47237
2.09743
1.76661
1.48106
1.22354
0.985222
0.764415
0.560403
0.372176
0.198687
0.0390576
-0.107296
-0.240577
-0.360546
-0.466391
-0.556282
-0.626912
-0.674804
-0.696847
-0.69037
-0.649965
-0.556908
-0.411998
-0.249651
-0.111573
-0.0325449
-0.0284636
-0.0921393
-0.198069
-0.31298
-0.406924
-0.467355
-0.500908
-0.514158
-0.510639
-0.492892
-0.463814
-0.426823
-0.385817
-0.345339
-0.310136
-0.283987
-0.269028
-0.265176
-0.269886
-0.278468
-0.284991
-0.283634
-0.270095
-0.243443
-0.205963
-0.160793
-0.111645
-0.0625534
-0.0169537
0.0230247
0.0569863
0.0863712
0.114237
0.144777
0.182646
0.23217
0.296491
0.377249
0.476702
0.594945
0.724043
0.847896
0.949497
1.01525
1.03826
1.01976
0.968051
0.895375
0.813862
0.732096
0.653267
0.577129
0.503222
0.432403
0.367125
0.31159
0.271188
0.25115
0.25501
0.283392
0.333484
0.399347
0.473009
0.546095
0.612071
0.666808
0.709361
0.742012
0.769586
0.798223
0.833902
0.880698
0.939835
1.01048
1.09042
1.17651
1.26511
1.35266
1.43607
1.51288
1.58125
1.63968
1.68661
1.72065
1.74131
1.74864
1.74352
1.72771
1.70356
1.67342
1.63878
1.59934
1.55346
1.49846
1.43198
1.35331
1.26401
1.16759
1.06829
0.969534
0.872757
0.777842
0.683822
0.589649
0.494963
0.400522
0.308198
0.221098
0.143653
0.0793325
0.0308957
0
-0.0198189
0.0541516
0.737275
1.89961
3.64508
6.05375
9.03341
12.1618
14.6858
15.75
14.7792
11.7962
7.47823
2.90792
-0.851655
-3.13815
-3.8542
-3.37348
-2.33192
-1.28377
-0.590688
-0.381161
-0.400342
-0.379865
-0.34432
-0.290792
-0.219371
-0.133904
-0.0395811
0.0590761
0.157786
0.252974
0.341941
0.422754
0.49471
0.557977
0.613489
0.662828
0.708024
0.751254
0.794472
0.83911
0.8859
0.934968
0.986234
1.03966
1.09545
1.15411
1.21635
1.28285
1.35402
1.42994
1.5103
1.59457
1.68211
1.7723
1.86459
1.95851
2.05371
2.15001
2.24753
2.34671
2.44822
2.5527
2.6602
2.77008
2.87941
2.98226
3.07158
3.14129
3.18841
3.21411
3.22345
3.2236
3.22142
3.22121
3.22303
3.2243
3.22067
3.20649
3.17547
3.12134
3.03832
2.92163
2.76811
2.57743
2.35207
2.09748
1.82218
1.53681
1.2526
0.980256
0.731064
0.512971
0.327125
0.170671
0.0387341
-0.0734291
-0.168908
-0.248693
-0.312251
-0.35864
-0.388592
-0.402764
-0.402655
-0.390115
-0.366915
-0.335102
-0.2959
-0.24995
-0.198124
-0.142237
-0.0863008
-0.036529
0.000550079
0.0197561
0.0188301
-0.000664902
-0.033514
-0.0721188
-0.108454
-0.136027
-0.152339
-0.158175
-0.154784
-0.143003
-0.123663
-0.0973925
-0.0644848
-0.0246656
0.0200884
0.0622963
0.0912722
0.0961002
0.0694384
0.0106579
-0.0731234
-0.168641
-0.260128
-0.333624
-0.385323
-0.417941
-0.432992
-0.43303
-0.421942
-0.40431
-0.384935
-0.368275
-0.358637
-0.359659
-0.373866
-0.402395
-0.444657
-0.498181
-0.55881
-0.621296
-0.680221
-0.731007
-0.770981
-0.798906
-0.815432
-0.822192
-0.820873
-0.812394
-0.796438
-0.771475
-0.735216
-0.68533
-0.620752
-0.541696
-0.449336
-0.345987
-0.23503
-0.12049
-0.00647697
0.10341
0.206627
0.302069
0.390204
0.472941
0.55323
0.634492
0.71999
0.812474
0.9142
1.02597
1.14672
1.27409
1.40407
1.5278
1.63114
1.69671
1.70532
1.64317
1.51109
1.32882
1.12955
0.946073
0.79677
0.670609
0.554318
0.443769
0.336969
0.235037
0.14308
0.0687119
0.0194233
0
0.016456
0.0583115
0.135521
0.682006
1.56215
2.88399
4.77729
7.28333
10.1956
12.9699
14.825
15.0328
13.2696
9.82523
5.53788
1.46773
-1.52413
-3.07374
-3.34972
-2.84522
-2.07707
-1.36757
-0.808424
-0.360071
-0.0214415
0.132516
0.228092
0.297963
0.35106
0.388119
0.409172
0.41506
0.407693
0.390578
0.369141
0.350585
0.343114
0.354639
0.391224
0.455051
0.544998
0.656681
0.783797
0.913165
1.03164
1.12895
1.19991
1.2454
1.27203
1.29057
1.31359
1.35277
1.41327
1.49567
1.5998
1.72739
1.8707
2.01465
2.14496
2.25251
2.33593
2.40161
2.46098
2.52628
2.60663
2.70325
2.81206
2.9296
3.05271
3.17795
3.30195
3.42118
3.5324
3.6328
3.72002
3.79235
3.84885
3.88937
3.91431
3.92426
3.91947
3.90001
3.86419
3.80902
3.73037
3.62348
3.48395
3.30917
3.0988
2.85601
2.58772
2.30421
2.01797
1.74176
1.48687
1.26241
1.07426
0.924635
0.812351
0.734662
0.687913
0.663463
0.648341
0.63121
0.604528
0.565991
0.518745
0.47008
0.428881
0.402597
0.394897
0.405061
0.426672
0.450833
0.469036
0.475386
0.467425
0.44555
0.41167
0.367997
0.317533
0.262899
0.206286
0.150596
0.0993357
0.0561779
0.0243237
0.00531883
-0.000264931
0.0069418
0.0251038
0.0519671
0.0843638
0.118073
0.149057
0.173995
0.190818
0.199132
0.200427
0.197975
0.196411
0.200957
0.215927
0.245304
0.294308
0.367719
0.466841
0.580967
0.683308
0.743265
0.733829
0.640322
0.468348
0.247214
0.0250889
-0.144651
-0.223093
-0.232
-0.180219
-0.075316
0.0594415
0.195938
0.309959
0.385164
0.414508
0.399948
0.351223
0.28396
0.216908
0.168267
0.149996
0.163153
0.201285
0.2577
0.327987
0.408043
0.494042
0.582938
0.672557
0.761354
0.848018
0.930976
1.0082
1.0775
1.13668
1.18396
1.21836
1.23973
1.24871
1.24628
1.23352
1.21146
1.18133
1.144
1.10049
1.05208
1.00022
0.946292
0.891307
0.835792
0.779732
0.72271
0.664113
0.603338
0.539972
0.473907
0.405252
0.334529
0.262939
0.1923
0.124376
0.0602703
0
-0.0549022
0.289856
1.11089
2.6415
5.03481
8.21344
11.7606
14.9363
16.861
16.833
14.653
10.7833
6.22188
2.1185
-0.687552
-1.96142
-2.04402
-1.5304
-1.00207
-0.546202
-0.160916
0.135087
0.325873
0.462997
0.558605
0.611822
0.627644
0.615628
0.587505
0.554549
0.525061
0.502585
0.488453
0.483683
0.489013
0.505402
0.534413
0.578212
0.639111
0.718738
0.817318
0.937163
1.07176
1.20864
1.33423
1.43739
1.51223
1.55936
1.58532
1.60065
1.61739
1.64504
1.68856
1.75064
1.83212
1.93152
2.04528
2.16893
2.29784
2.42782
2.55582
2.68053
2.80263
2.92453
3.04984
3.18341
3.33567
3.51381
3.69713
3.8526
3.94953
3.97538
3.94387
3.89012
3.85492
3.866
3.92341
4.00546
4.07585
4.09782
4.04701
3.9188
3.72823
3.50373
3.2769
3.06971
2.8835
2.71283
2.55454
2.4069
2.26822
2.13747
2.01465
1.90071
1.79722
1.7061
1.62898
1.56628
1.51766
1.48227
1.45917
1.4476
1.44699
1.45669
1.47656
1.50499
1.53675
1.56411
1.57971
1.57915
1.56314
1.5382
1.51542
1.50775
1.54485
1.64029
1.76361
1.86532
1.90102
1.85292
1.7378
1.59808
1.48055
1.41297
1.3783
1.354
1.32556
1.28239
1.22269
1.15504
1.09585
1.06321
1.06974
1.11597
1.19303
1.28448
1.37195
1.44058
1.4827
1.49644
1.48413
1.44983
1.39943
1.33893
1.27112
1.19903
1.12585
1.05481
0.988781
0.929488
0.878249
0.836287
0.804266
0.782349
0.770284
0.767664
0.772818
0.783566
0.797668
0.813198
0.828745
0.84336
0.856285
0.866419
0.872437
0.872879
0.866771
0.854435
0.838107
0.822033
0.811873
0.813489
0.831338
0.865795
0.916327
0.980838
1.05091
1.11732
1.17283
1.21465
1.24563
1.27369
1.3275
1.564
2.02301
2.53175
2.90089
3.01867
2.88318
2.5728
2.19243
1.84056
1.61157
1.49886
1.43134
1.37819
1.32869
1.27773
1.22191
1.15975
1.0917
1.0197
0.946293
0.87375
0.803188
0.734546
0.666703
0.597775
0.525544
0.447713
0.362095
0.268047
0.16803
0.0662158
-0.0322648
0
0.570147
1.81016
3.91901
6.96669
10.7077
14.4503
17.1555
17.828
16.0242
12.1579
7.36148
2.96091
-0.116983
-1.64724
-1.99069
-1.62093
-1.24709
-0.880329
-0.55055
-0.299714
-0.118429
0.00219655
0.0607142
0.0666221
0.0398093
0.00673223
-0.00594468
0.0216118
0.0889022
0.183847
0.296462
0.418757
0.539565
0.646107
0.728496
0.781179
0.80373
0.800804
0.78128
0.756689
0.739262
0.740046
0.765181
0.81456
0.887167
0.98239
1.09826
1.23099
1.37656
1.52802
1.67539
1.8096
1.92457
2.01865
2.09501
2.16077
2.22515
2.2972
2.38367
2.48592
2.60322
2.73442
2.87738
3.02948
3.18781
3.34766
3.50014
3.63384
3.73735
3.8014
3.82166
3.80067
3.74775
3.67676
3.60205
3.53379
3.47307
3.4147
3.35196
3.27657
3.18001
3.05514
2.89752
2.7062
2.48383
2.23615
1.97101
1.69802
1.42519
1.1594
0.90641
0.670618
0.454878
0.260564
0.0878787
-0.0641993
-0.197182
-0.312475
-0.410849
-0.492125
-0.555208
-0.597947
-0.615076
-0.598437
-0.542866
-0.457684
-0.365928
-0.292374
-0.256714
-0.268346
-0.32396
-0.408241
-0.497589
-0.566448
-0.596945
-0.590308
-0.555599
-0.501414
-0.443149
-0.396674
-0.373922
-0.379928
-0.412277
-0.46291
-0.52124
-0.577197
-0.624821
-0.662408
-0.688757
-0.703003
-0.7053
-0.696809
-0.679066
-0.655156
-0.628681
-0.603058
-0.580935
-0.563866
-0.552388
-0.546441
-0.54597
-0.551672
-0.564635
-0.586195
-0.61716
-0.656974
-0.703221
-0.751709
-0.797182
-0.834425
-0.85943
-0.870142
-0.866712
-0.851184
-0.826815
-0.797332
-0.766336
-0.736502
-0.709923
-0.687851
-0.670669
-0.657834
-0.647892
-0.638615
-0.627283
-0.611061
-0.587341
-0.554007
-0.509779
-0.453344
-0.38361
-0.299745
-0.201422
-0.0892243
0.0349353
0.167639
0.304024
0.437729
0.562121
0.671266
0.760764
0.828112
0.873146
0.897698
0.905156
0.899872
0.886497
0.869309
0.851577
0.835084
0.819922
0.804265
0.784932
0.758171
0.720546
0.66971
0.604921
0.527248
0.439525
0.346226
0.252681
0.165783
0.0923995
0.0383204
0.00723472
0
0.0161622
0.0493509
0.0934044
0.141915
0.189339
0.207918
0.427458
1.26244
2.95184
5.53208
8.74686
12.024
14.563
15.5655
14.5496
11.6051
7.42709
3.06941
-0.473851
-2.63835
-3.41886
-3.20943
-2.55963
-1.8373
-1.22757
-0.783322
-0.561743
-0.469823
-0.394098
-0.323123
-0.255954
-0.194625
-0.142622
-0.104367
-0.0834809
-0.080948
-0.093957
-0.115923
-0.137754
-0.149931
-0.145143
-0.121785
-0.0810652
-0.0243238
0.046969
0.130805
0.224976
0.327461
0.436383
0.549887
0.666
0.782565
0.897285
1.00791
1.11246
1.20948
1.29819
1.37845
1.45056
1.51566
1.57587
1.6341
1.69402
1.75985
1.83604
1.92659
2.03429
2.16004
2.30222
2.45678
2.61871
2.78244
2.9423
3.09285
3.22877
3.34599
3.44239
3.51715
3.57056
3.60363
3.61762
3.61333
3.59055
3.54761
3.48212
3.39083
3.27026
3.11821
2.93455
2.72175
2.48472
2.23029
1.96648
1.70133
1.44196
1.19481
0.9654
0.758178
0.57632
0.422276
0.2987
0.20582
0.138103
0.0887725
0.0514066
0.0214
-0.00328352
-0.0223813
-0.0345404
-0.0383387
-0.0344283
-0.02832
-0.0280752
-0.0414735
-0.0727426
-0.120205
-0.17586
-0.227196
-0.260743
-0.267499
-0.248355
-0.202422
-0.136788
-0.064156
0.0021558
0.0517359
0.079354
0.0853229
0.0740085
0.0512253
0.0215952
-0.0124767
-0.0509839
-0.0953964
-0.147299
-0.207172
-0.273522
-0.34247
-0.407895
-0.462153
-0.490094
-0.448494
-0.279666
-0.0332021
0.207342
0.359903
0.376285
0.258776
0.0556006
-0.160447
-0.318798
-0.37492
-0.364846
-0.321316
-0.254334
-0.167193
-0.070859
0.0179677
0.084332
0.119024
0.121827
0.102312
0.0770515
0.0637943
0.0749365
0.111686
0.163737
0.224279
0.288632
0.354269
0.421554
0.493328
0.573618
0.666012
0.771328
0.88953
1.01903
1.15524
1.28806
1.40268
1.4849
1.52311
1.51103
1.45009
1.34955
1.22351
1.0856
0.944232
0.801688
0.657823
0.512831
0.367702
0.224778
0.0878914
-0.038285
-0.149149
-0.240985
-0.311573
-0.360377
-0.388311
-0.397189
-0.389078
-0.365769
-0.328837
-0.279254
-0.217446
0
0.702409
1.85461
3.62177
6.0997
9.14649
12.2539
14.5996
15.3255
13.937
10.6004
6.13622
1.68995
-1.7367
-3.63879
-4.08461
-3.53434
-2.59286
-1.71203
-1.12441
-0.840821
-0.691077
-0.578524
-0.49192
-0.439616
-0.422584
-0.431869
-0.44948
-0.453349
-0.424777
-0.355126
-0.256871
-0.144902
-0.0283138
0.0856925
0.19114
0.283953
0.362085
0.425034
0.474042
0.511488
0.540294
0.563649
0.584854
0.607249
0.634144
0.668735
0.714016
0.772379
0.845677
0.935489
1.04274
1.16745
1.30853
1.46371
1.62948
1.80129
1.97385
2.14084
2.29479
2.42918
2.54001
2.62613
2.68961
2.73569
2.77203
2.80741
2.85005
2.90605
2.97723
3.06156
3.15609
3.25703
3.35806
3.45014
3.52403
3.57116
3.58414
3.55727
3.4866
3.37004
3.20746
3.00105
2.75769
2.4885
2.2042
1.9147
1.62954
1.35763
1.10649
0.881539
0.685852
0.519693
0.381128
0.267084
0.174359
0.101663
0.0477017
0.0119193
-0.005935
-0.00671692
0.00870347
0.0367495
0.0712731
0.105844
0.135312
0.156991
0.170999
0.179589
0.185723
0.191441
0.19659
0.197864
0.190155
0.169187
0.134225
0.089623
0.0443703
0.00966837
-0.00458784
0.00588515
0.0411338
0.0943419
0.154556
0.209506
0.248349
0.263631
0.252242
0.215478
0.158412
0.0890333
0.0158844
-0.053493
-0.113778
-0.163332
-0.203546
-0.236248
-0.263633
-0.287302
-0.307714
-0.324241
-0.335717
-0.341232
-0.341303
-0.337002
-0.330185
-0.323506
-0.319262
-0.318554
-0.320758
-0.32352
-0.323375
-0.316807
-0.301292
-0.274732
-0.239728
-0.201898
-0.16674
-0.136886
-0.110417
-0.0811346
-0.0407812
0.0176938
0.0972701
0.193294
0.29886
0.40869
0.518081
0.624008
0.725465
0.82298
0.917557
1.00927
1.09636
1.1752
1.24116
1.29023
1.32046
1.33242
1.32853
1.31145
1.28237
1.24047
1.18268
1.10455
1.00251
0.875673
0.727064
0.563761
0.395921
0.234976
0.0897313
-0.0337958
-0.131241
-0.20111
-0.244488
-0.264314
-0.264452
-0.248738
-0.220233
-0.180976
-0.13156
-0.0715602
0
0.348954
1.25126
2.69146
4.81342
7.63667
10.8894
13.9349
15.9136
16.0869
14.2123
10.7224
6.57183
2.82719
0.230603
-1.02907
-1.24811
-1.07751
-0.918345
-0.779082
-0.663326
-0.569594
-0.488399
-0.413952
-0.342824
-0.272589
-0.202062
-0.131157
-0.06048
0.00917631
0.0772156
0.143332
0.20741
0.269245
0.328152
0.382563
0.429946
0.467651
0.493614
0.507438
0.511229
0.50981
0.510135
0.519963
0.546162
0.593076
0.660087
0.743543
0.83968
0.945033
1.05629
1.17085
1.28708
1.40412
1.52165
1.63945
1.75715
1.87411
1.98955
2.10277
2.21346
2.32195
2.42933
2.5374
2.64828
2.76404
2.88602
3.01451
3.14866
3.2844
3.41304
3.52441
3.60965
3.66368
3.68652
3.68287
3.65993
3.62429
3.57897
3.52296
3.45258
3.3613
3.24297
3.09356
2.91239
2.70233
2.46929
2.22115
1.96732
1.7151
1.47072
184
385
575
758
943
1140
1348
1551
1754
1970
2194
2416
2626
2836
3051
3263
3464
3668
1721
1809
1875
1964
1999
2044
2099
2188
2267
2305
2383
2574
2644
2770
2879
2970
3166
3231
3275
3359
3489
3555
3606
3753
3708
3735
0
0
0
0
0
0
0
0
0
0
0
0
0
0
0
0
0
0
0
0
0
0
0
0
0
0
0
0
0
0
0
0
0
0
0
0
0
0
0
0
0
0
0
0
0
0
0
0
0
0
0
0
0
0
0
0
0
0
0
0
0
0
0
0
0
0
0
0
0
0
0
0
0
0
0
0
0
0
0
0
0
0
0
0
0
0
0
0
0
0
0
0
0
0
0
0
0
0
0
0
0
0
0
0
0
0
0
0
0
0
0
0
0
0
0
0
0
0
0
0
0
0
0
0
0
0
0
0
0
0
0
0
0
0
0
0
0
0
0
0
0
0
0
0
0
0
0
0
0
0
0
0
0
0
0
0
0
0
0
0
0
0
0
0
0
0
0
0
0
0
0
0
0
0
0
0
0
0
0
0
0
0
0
0
0
0
0
0
0
0
0
0
0
0
0
0
0
0
0
0
0
0
0
0
0
0
0
0
0
0
0
0
0
0
0
0
0
0
0
0
0
0
0
0
0
0
0
0
0
0
0
0
0
0
0
0
0
0
0
0
0
0
0
0
0
0
0
0
0
0
0
0
0
0
0
0
0
0
0
0
0
0
0
0
0
0
0
0
0
0
0
0
0
0
0
0
0
0
0
0
0
0
0
0
0
0
0
0
0
0
0
0
0
0
0
0
0
0
0
0
0
0
0
0
0
0
0
0
0
0
0
0
0
0
0
0
0
0
0
0
0
0
0
0
0
0
0
0
0
0
0
0
0
0
0
0
0
0
0
0
0
0
0
0
0
0
0
0
0
0
0
0
0
0
0
0
0
0
0
0
0
0
0
0
0
0
0
0
0
0
0
0
0
0
0
0
0
0
0
0
0
0
0
0
0
0
0
0
0
0
0
0
0
0
0
0
0
0
0
0
0
0
0
0
0
0
0
0
0
0
0
0
0
0
0
0
0
0
0
0
0
0
0
0
0
0
0
0
0
0
0
0
0
0
0
0
0
0
0
0
0
0
0
0
0
0
0
0
0
0
0
0
0
0
0
0
0
0
0
0
0
0
0
0
0
0
0
0
0
0
0
0
0
0
0
0
0
0
0
0
0
0
0
0
0
0
0
0
0
0
0
0
0
0
0
0
0
0
0
0
0
0
0
0
0
0
0
0
0
0
0
0
0
0
0
0
0
0
0
0
0
0
0
0
0
0
0
0
0
0
0
0
0
0
0
0
0
0
0
0
0
0
0
0
0
0
0
0
0
0
0
0
0
0
0
0
0
0
0
0
0
0
0
0
0
0
0
0
0
0
0
0
0
0
0
0
0
0
0
0
0
0
0
0
0
0
0
0
0
0
0
0
0
0
0
0
0
0
0
0
0
0
0
0
0
0
0
0
0
0
0
0
0
0
0
0
0
0
0
0
0
0
0
0
0
0
0
0
0
0
0
0
0
0
0
0
0
0
0
0
0
0
0
0
0
0
0
0
0
0
0
0
0
0
0
0
0
0
0
0
0
0
0
0
0
0
0
0
0
0
0
0
0
0
0
0
0
0
0
0
0
0
0
0
0
0
0
0
0
0
0
0
0
0
0
0
0
0
0
0
0
0
0
0
0
0
0
0
0
0
0
0
0
0
0
0
0
0
0
0
0
0
0
0
0
0
0
0
0
0
0
0
0
0
0
0
0
0
0
0
0
0
0
0
0
0
0
0
0
0
0
0
0
0
0
0
0
0
0
0
0
0
0
0
0
0
0
0
0
0
0
0
0
0
0
0
0
0
0
0
0
0
0
0
0
0
0
0
0
0
0
0
0
0
0
0
0
0
0
0
0
0
0
0
0
0
0
0
0
0
0
0
0
0
0
0
0
0
0
0
0
0
0
0
0
0
0
0
0
0
0
0
0
0
0
0
0
0
0
0
0
0
0
0
0
0
0
0
0
0
0
0
0
0
0
0
0
0
0
0
0
0
0
0
0
0
0
0
0
0
0
0
0
0
0
0
0
0
0
0
0
0
0
0
0
0
0
0
0
0
0
0
0
0
0
0
0
0
0
0
0
0
0
0
0
0
0
0
0
0
0
0
0
0
0
0
0
0
0
0
0
0
0
0
0
0
0
0
0
0
0
0
0
0
0
0
0
0
0
0
0
0
0
0
0
0
0
0
0
0
0
0
0
0
0
0
0
0
0
0
0
0
0
0
0
0
0
0
0
0
0
0
0
0
0
0
0
0
0
0
0
0
0
0
0
0
0
0
0
0
0
0
0
0
0
0
0
0
0
0
0
0
0
0
0
0
0
0
0
0
0
0
0
0
0
0
0
0
0
0
0
0
0
0
0
0
0
0
0
0
0
0
0
0
0
0
0
0
0
0
0
0
0
0
0
0
0
0
0
0
0
0
0
0
0
0
0
0
0
0
0
0
0
0
0
0
0
0
0
0
0
0
0
0
0
0
0
0
0
0
0
0
0
0
0
0
0
0
0
0
0
0
0
0
0
0
0
0
0
0
0
0
0
0
0
0
0
0
0
0
0
0
0
0
0
0
0
0
0
0
0
0
0
0
0
0
0
0
0
0
0
0
0
0
0
0
0
0
0
0
0
0
0
0
0
0
0
0
0
0
0
0
0
0
0
0
0
0
0
0
0
0
0
0
0
0
0
0
0
0
0
0
0
0
0
0
0
0
0
0
0
0
0
0
0
0
0
0
0
0
0
0
0
0
0
0
0
0
0
0
0
0
0
0
0
0
0
0
0
0
0
0
0
0
0
0
0
0
0
0
0
0
0
0
0
0
0
0
0
0
0
0
0
0
0
0
0
0
0
0
0
0
0
0
0
0
0
0
0
0
0
0
0
0
0
0
0
0
0
0
0
0
0
0
0
0
0
0
0
0
0
0
0
0
0
0
0
0
0
0
0
0
0
0
0
0
0
0
0
0
0
0
0
0
0
0
0
0
0
0
0
0
0
0
0
0
0
0
0
0
0
0
0
0
0
0
0
0
0
0
0
0
0
0
0
0
0
0
0
0
0
0
0
0
0
0
0
0
0
0
0
0
0
0
0
0
0
0
0
0
0
0
0
0
0
0
0
0
0
0
0
0
0
0
0
0
0
0
0
0
0
0
0
0
0
0
0
0
0
0
0
0
0
0
0
0
0
0
0
0
0
0
0
0
0
0
0
0
0
0
0
0
0
0
0
0
0
0
0
0
0
0
0
0
0
0
0
0
0
0
0
0
0
0
0
0
0
0
0
0
0
0
0
0
0
0
0
0
0
0
0
0
0
0
0
0
0
0
0
0
0
0
0
0
0
0
0
0
0
0
0
0
0
0
0
0
0
0
0
0
0
0
0
0
0
0
0
0
0
0
0
0
0
0
0
0
0
0
0
0
0
0
0
0
0
0
0
0
0
0
0
0
0
0
0
0
0
0
0
0
0
0
0
0
0
0
0
0
0
0
0
0
0
0
0
0
0
0
0
0
0
0
0
0
0
0
0
0
0
0
0
0
0
0
0
0
0
0
0
0
0
0
0
0
0
0
0
0
0
0
0
0
0
0
0
0
0
0
0
0
0
0
0
0
0
0
0
0
0
0
0
0
0
0
0
0
0
0
0
0
0
0
0
0
0
0
0
0
0
0
0
0
0
0
0
0
0
0
0
0
0
0
0
0
0
0
0
0
0
0
0
0
0
0
0
0
0
0
0
0
0
0
0
0
0
0
0
0
0
0
0
0
0
0
0
0
0
0
0
0
0
0
0
0
0
0
0
0
0
0
0
0
0
0
0
0
0
0
0
0
0
0
0
0
0
0
0
0
0
0
0
0
0
0
0
0
0
0
0
0
0
0
0
0
0
0
0
0
0
0
0
0
0
0
0
0
0
0
0
0
0
0
0
0
0
0
0
0
0
0
0
0
0
0
0
0
0
0
0
0
0
0
0
0
0
0
0
0
0
0
0
0
0
0
0
0
0
0
0
0
0
0
0
0
0
0
0
0
0
0
0
0
0
0
0
0
0
0
0
0
0
0
0
0
0
0
0
0
0
0
0
0
0
0
0
0
0
0
0
0
0
0
0
0
0
0
0
0
0
0
0
0
0
0
0
0
0
0
0
0
0
0
0
0
0
0
0
0
0
0
0
0
0
0
0
0
0
0
0
0
0
0
0
0
0
0
0
0
0
0
0
0
0
0
0
0
0
0
0
0
0
0
0
0
0
0
0
0
0
0
0
0
0
0
0
0
0
0
0
0
0
0
0
0
0
0
0
0
0
0
0
0
0
0
0
0
0
0
0
0
0
0
0
0
0
0
0
0
0
0
0
0
0
0
0
0
0
0
0
0
0
0
0
0
0
0
0
0
0
0
0
0
0
0
0
0
0
0
0
0
0
0
0
0
0
0
0
0
0
0
0
0
0
0
0
0
0
0
0
0
0
0
0
0
0
0
0
0
0
0
0
0
0
0
0
0
0
0
0
0
0
0
0
0
0
0
0
0
0
0
0
0
0
0
0
0
0
0
0
0
0
0
0
0
0
0
0
0
0
0
0
0
0
0
0
0
0
0
0
0
0
0
0
0
0
0
0
0
0
0
0
0
0
0
0
0
0
0
0
0
0
0
0
0
0
0
0
0
0
0
0
0
0
0
0
0
0
0
0
0
0
0
0
0
0
0
0
0
0
0
0
0
0
0
0
0
0
0
0
0
0
0
0
0
0
0
0
0
0
0
0
0
0
0
0
0
0
0
0
0
0
0
0
0
0
0
0
0
0
0
0
0
0
0
0
0
0
0
0
0
0
0
0
0
0
0
0
0
0
0
0
0
0
0
0
0
0
0
0
0
0
0
0
0
0
0
0
0
0
0
0
0
0
0
0
0
0
0
0
0
0
0
0
0
0
0
0
0
0
0
0
0
0
0
0
0
0
0
0
0
0
0
0
0
0
0
0
0
0
0
0
0
0
0
0
0
0
0
0
0
0
0
0
0
0
0
0
0
0
0
0
0
0
0
0
0
0
0
0
0
0
0
0
0
0
0
0
0
0
0
0
0
0
0
0
0
0
0
0
0
0
0
0
0
0
0
0
0
0
0
0
0
0
0
0
0
0
0
0
0
0
0
0
0
0
0
0
0
0
0
0
0
0
0
0
0
0
0
0
0
0
0
0
0
0
0
0
0
0
0
0
0
0
0
0
0
0
0
0
0
0
0
0
0
0
0
0
0
0
0
0
0
0
0
0
0
0
0
0
0
0
0
0
0
0
0
0
0
0
0
0
0
0
0
0
0
0
0
0
0
0
0
0
0
0
0
0
0
0
0
0
0
0
0
0
0
0
0
0
0
0
0
0
0
0
0
0
0
0
0
0
0
0
0
0
0
0
0
0
0
0
0
0
0
0
0
0
0
0
0
0
0
0
0
0
0
0
0
0
0
0
0
0
0
0
0
0
0
0
0
0
0
0
0
0
0
0
0
0
0
0
0
0
0
0
0
0
0
0
0
0
0
0
0
0
0
0
0
0
0
0
0
0
0
0
0
0
0
0
0
0
0
0
0
0
0
0
0
0
0
0
0
0
0
0
0
0
0
0
0
0
0
0
0
0
0
0
0
0
0
0
0
0
0
0
0
0
0
0
0
0
0
0
0
0
0
0
0
0
0
0
0
0
0
0
0
0
0
0
0
0
0
0
0
0
0
0
0
0
0
0
0
0
0
0
0
0
0
0
0
0
0
0
0
0
0
0
0
0
0
0
0
0
0
0
0
0
0
0
0
0
0
0
0
0
0
0
0
0
0
0
0
0
0
0
0
0
0
0
0
0
0
0
0
0
0
0
0
0
0
0
0
0
0
0
0
0
0
0
0
0
0
0
0
0
0
0
0
0
0
0
0
0
0
0
0
0
0
0
0
0
0
0
0
0
0
0
0
0
0
0
0
0
0
0
0
0
0
0
0
0
0
0
0
0
0
0
0
0
0
0
0
0
0
0
0
0
0
0
0
0
0
0
0
0
0
0
0
0
0
0
0
0
0
0
0
0
0
0
0
0
0
0
0
0
0
0
0
0
0
0
0
0
0
0
0
0
0
0
0
0
0
0
0
0
0
0
0
0
0
0
0
0
0
0
0
0
0
0
0
0
0
0
0
0
0
0
0
0
0
0
0
0
0
0
0
0
0
0
0
0
0
0
0
0
0
0
0
0
0
0
0
0
0
0
0
0
0
0
0
0
0
0
0
0
0
0
0
0
0
0
0
0
0
0
0
0
0
0
0
0
0
0
0
0
0
0
0
0
0
0
0
0
0
0
0
0
0
0
0
0
0
0
0
0
0
0
0
0
0
0
0
0
0
0
0
0
0
0
0
0
0
0
0
0
0
0
0
0
0
0
0
0
0
0
0
0
0
0
0
0
0
0
0
0
0
0
0
0
0
0
0
0
0
0
0
0
0
0
0
0
0
0
0
0
0
0
0
0
0
0
0
0
0
0
0
0
0
0
0
0
0
0
0
0
0
0
0
0
0
0
0
0
0
0
0
0
0
0
0
0
0
0
0
0
0
0
0
0
0
0
0
0
0
0
0
0
0
0
0
0
0
0
0
0
0
0
0
0
0
0
0
0
0
0
0
0
0
0
0
0
0
0
0
0
0
0
0
0
0
0
0
0
0
0
0
0
0
0
0
0
0
0
0
0
0
0
0
0
0
0
0
0
0
0
0
0
0
0
0
0
0
0
0
0
0
0
0
0
0
0
0
0
0
0
0
0
0
0
0
0
0
0
0
0
0
0
0
0
0
0
0
0
0
0
0
0
0
0
0
0
0
0
0
0
0
0
0
0
0
0
0
0
0
0
0
0
0
0
0
0
0
0
0
0
0
0
0
0
0
0
0
0
0
0
0
0
0
0
0
0
0
0
0
0
0
0
0
0
0
0
0
0
0
0
0
0
0
0
0
0
0
0
0
0
0
0
0
0
0
0
0
0
0
0
0
0
0
0
0
0
0
0
0
0
0
0
0
0
0
0
0
0
0
0
0
0
0
0
0
0
0
0
0
0
0
0
0
0
0
0
0
0
0
0
0
0
0
0
0
0
0
0
0
0
0
0
0
0
0
0
0
0
0
0
0
0
0
0
0
0
0
0
0
0
0
0
0
0
0
0
0
0
0
0
0
0
0
0
0
0
0
0
0
0
0
0
0
0
0
0
0
0
0
0
0
0
0
0
0
0
0
0
0
0
0
0
0
0
0
0
0
0
0
0
0
0
0
0
0
0
0
0
0
0
0
0
0
0
0
0
0
0
0
0
0
0
0
0
0
0
0
0
0
0
0
0
0
0
0
0
0
0
0
0
0
0
0
0
0
0
0
0
0
0
0
0
0
0
0
0
0
0
0
0
0
0
0
0
0
0
0
0
0
0
0
0
0
0
0
0
0
0
0
0
0
0
0
0
0
0
0
0
0
0
0
0
0
0
0
0
0
0
0
0
0
0
0
0
0
0
0
0
0
0
0
0
0
0
0
0
0
0
0
0
0
0
0
0
0
0
0
0
0
0
0
0
0
0
0
0
0
0
0
0
0
0
0
0
0
0
0
0
0
0
0
0
0
0
0
0
0
0
0
0
0
0
0
0
0
0
0
0
0
0
0
0
0
0
0
0
0
0
0
0
0
0
0
0
0
0
0
0
0
0
0
0
0
0
0
0
0
0
0
0
0
0
0
0
0
0
0
0
0
0
0
0
0
0
0
0
0
0
0
0
0
0
0
0
0
0
0
0
0
0
0
0
0
0
0
0
0
0
0
0
0
0
0
0
0
0
0
0
0
0
0
0
0
0
0
0
0
0
0
0
0
0
0
0
0
0
0
0
0
0
0
0
0
0
0
0
0
0
0
0
0
0
0
0
0
0
0
0
0
0
0
0
0
0
0
0
0
0
0
0
0
0
0
0
0
0
0
0
0
0
0
0
0
0
0
0
0
0
0
0
0
0
0
0
0
0
0
0
0
0
0
0
0
0
0
0
0
0
0
0
0
0
0
0
0
0
0
0
0
0
0
0
0
0
0
0
0
0
0
0
0
0
0
0
0
0
0
0
0
0
0
0
0
0
0
0
0
0
0
0
0
0
0
0
0
0
0
0
0
0
0
0
0
0
0
0
0
0
0
0
0
0
0
0
0
0
0
0
0
0
0
0
0
0
0
0
0
0
0
0
0
0
0
0
0
0
0
0
0
0
0
0
0
0
0
0
0
0
0
0
0
0
0
0
0
0
0
0
0
0
0
0
0
0
0
0
0
0
0
0
0
0
0
0
0
0
0
0
0
0
0
0
0
0
0
0
0
0
0
0
0
0
0
0
0
0
0
0
0
0
0
0
0
0
0
0
0
0
0
0
0
0
0
0
0
0
0
0
0
0
0
0
0
0
