1.35796
1.2571
1.13617
0.993311
0.827313
0.632044
0.41019
-0.0337391
-0.418069
0
1.72368
4.83341
8.86827
12.8408
15.5661
16.1464
14.372
10.8221
6.60515
2.87778
0.394669
-0.689954
-0.713701
-0.210951
0.196444
0.55905
0.843301
1.03307
1.18483
1.31485
1.42628
1.52194
1.60415
1.67488
1.7356
1.78713
1.82986
1.86426
1.8914
1.91334
1.93326
1.95531
1.98414
2.0241
2.07849
2.14893
2.23542
2.33665
2.45001
2.5721
2.6992
2.82793
2.95557
3.08012
3.2002
3.31488
3.42331
3.52447
3.61705
3.69953
3.7705
3.82867
3.87317
3.90373
3.9209
3.92595
3.92074
3.90739
3.88783
3.86346
3.83476
3.80124
3.76168
3.71458
3.65878
3.59397
3.52102
3.44196
3.35959
3.27685
3.19617
3.11909
3.04606
2.97694
2.91177
2.85153
2.79924
2.7588
2.7345
2.72958
2.74888
2.79201
2.8492
2.90815
2.95803
2.99282
3.01253
3.02198
3.02786
3.03554
3.04656
3.0593
3.07157
3.08075
3.08442
3.08077
3.06867
3.04754
3.01715
2.97822
2.93171
2.8787
2.82093
2.76085
2.7016
2.64682
2.59997
2.56396
2.54073
2.5311
2.53475
2.55039
2.576
2.60911
2.64703
2.68701
2.72648
2.76315
2.79496
2.82019
2.83747
2.84579
2.84438
2.83269
2.81023
2.77664
2.73175
2.67582
2.6096
2.53447
2.4525
2.36657
2.28013
2.19699
2.1211
2.05621
2.00571
1.97314
1.96548
1.99774
2.08183
2.18961
2.27881
2.30218
2.21891
1.89237
1.34933
0.679922
-0.0407146
0
1.275
3.96374
7.70366
11.6252
14.6236
15.7844
14.7666
11.946
8.24071
4.70854
2.12379
0.744367
0.354976
0.511022
0.7055
0.875731
1.02721
1.15448
1.2597
1.34639
1.41608
1.47143
1.51574
1.55243
1.58452
1.6143
1.64322
1.67194
1.70062
1.72925
1.75802
1.7876
1.81928
1.85504
1.89743
1.94925
2.01318
2.09136
2.18486
2.29337
2.415
2.54634
2.6828
2.8191
2.94993
3.07056
3.17741
3.26842
3.3431
3.40228
3.44765
3.48114
3.50393
3.51695
3.52105
3.51653
3.50363
3.48291
3.4554
3.42249
3.38548
3.34515
3.30154
3.25399
3.20162
3.14383
3.08075
3.0134
2.9434
2.87251
2.80205
2.73255
2.66397
2.59607
2.52887
2.4632
2.40086
2.34449
2.29712
2.2614
2.23889
2.22968
2.23221
2.24352
2.25993
2.2777
2.29387
2.30662
2.31536
2.32057
2.32337
2.325
2.3265
2.32846
2.33106
2.33425
2.33784
2.34156
2.34497
2.34721
2.3467
2.34136
2.32929
2.30955
2.28294
2.25245
2.2229
2.19991
2.18856
2.19215
2.21008
2.23964
2.27861
2.32485
2.37618
2.43052
2.48591
2.54036
2.59166
2.63745
2.67531
2.70285
2.7179
2.71916
2.70644
2.68058
2.64327
2.59688
2.54399
2.48701
2.42778
2.36734
2.30599
2.24365
2.18035
2.11672
2.05419
1.99482
1.94069
1.8938
1.85434
1.81871
1.78036
1.73081
1.61721
1.26327
0.720299
0.0856795
-0.328642
0
1.45088
4.15388
7.77791
11.5457
14.4572
15.6597
14.7996
12.1764
8.61381
5.11225
2.45716
0.97174
0.511929
0.659591
0.813224
0.880531
0.933318
0.971655
0.999021
1.01855
1.0339
1.04887
1.06683
1.09022
1.1204
1.15763
1.20111
1.24926
1.29946
1.34708
1.38699
1.41505
1.42956
1.43235
1.42894
1.42772
1.43801
1.46771
1.52046
1.59283
1.67975
1.77643
1.87774
1.97866
2.075
2.16393
2.24413
2.31558
2.37913
2.43582
2.48612
2.5295
2.56455
2.58965
2.60335
2.60531
2.597
2.58162
2.5633
2.54567
2.53089
2.5166
2.49568
2.45857
2.39666
2.3055
2.18667
2.04775
1.90051
1.75799
1.62893
1.51587
1.41998
1.34267
1.28285
1.23754
1.2032
1.17665
1.15561
1.1389
1.12618
1.11745
1.11251
1.11062
1.1105
1.11072
1.11026
1.10908
1.10846
1.11093
1.11975
1.1381
1.16805
1.20948
1.26186
1.32192
1.38212
1.43369
1.46888
1.48258
1.47329
1.44309
1.39682
1.34074
1.28133
1.22405
1.17218
1.12797
1.09309
1.0685
1.05449
1.05081
1.05674
1.07114
1.09247
1.11883
1.14796
1.17682
1.20176
1.21903
1.22506
1.21686
1.1924
1.15074
1.09214
1.01798
0.930673
0.833617
0.730884
0.626548
0.524318
0.427457
0.338733
0.260234
0.193182
0.137824
0.0933456
0.0578167
0.0282345
0
-0.024778
-0.0638113
-0.126672
-0.223069
-0.405249
-0.861285
-1.5394
-2.33569
-2.78002
-2.12845
-0.0183273
3.43663
7.57101
11.328
13.6194
13.7445
11.6824
8.11094
4.12475
0.782592
-1.29276
-2.06621
-1.94849
-1.51537
-1.3453
-1.19113
-1.05998
-0.95061
-0.854826
-0.770121
-0.694216
-0.624918
-0.560764
-0.500877
-0.444868
-0.392777
-0.344671
-0.300308
-0.258986
-0.219595
-0.180807
-0.141286
-0.0998699
-0.0556202
-0.007617
0.0450052
0.103023
0.167025
0.23728
0.313644
0.3955
0.48206
0.572481
0.66598
0.7619
0.859639
0.958487
1.05742
1.15473
1.24802
1.33475
1.41271
1.48051
1.53783
1.58525
1.6237
1.65338
1.67453
1.68692
1.69033
1.68514
1.6725
1.65392
1.63042
1.60162
1.56542
1.51846
1.45746
1.38092
1.29046
1.19131
1.09154
1.00045
0.925513
0.870113
0.836852
0.825883
0.835497
0.862965
0.905326
0.959674
1.02353
1.0954
1.17255
1.24949
1.32021
1.37957
1.42489
1.45688
1.47941
1.49808
1.51826
1.54323
1.57277
1.60535
1.639
1.67141
1.70044
1.72462
1.74335
1.75691
1.76631
1.77303
1.77867
1.78459
1.79185
1.80125
1.81331
1.8287
1.84856
1.87501
1.91047
1.95732
2.01703
2.08943
2.17237
2.26159
2.35163
2.43683
2.5124
2.57483
2.62202
2.65284
2.66671
2.66396
2.64502
2.61074
2.56318
2.50583
2.44352
2.38183
2.32619
2.28063
2.24913
2.23305
2.22956
2.23396
2.24093
2.24579
2.2451
2.23666
2.21886
2.18996
2.14799
2.05725
1.72947
1.16006
0.449392
0
0.570421
2.6018
6.04043
10.2273
14.0867
16.5353
16.9032
15.1678
11.9101
8.05385
4.52561
1.97448
0.63391
0.343243
0.692284
0.957822
1.18874
1.36239
1.47308
1.55261
1.6167
1.66977
1.71546
1.75635
1.79382
1.8285
1.86067
1.89068
1.91918
1.94717
1.97591
2.00668
2.04047
2.07802
2.11974
2.16565
2.21586
2.27097
2.33228
2.40168
2.48128
2.57274
2.67666
2.79179
2.91497
3.04242
3.16881
3.28812
3.39461
3.48363
3.55207
3.59853
3.62325
3.62784
3.61498
3.58791
3.54998
3.50419
3.45294
3.39799
3.34047
3.28101
3.22008
3.15818
3.09587
3.03366
2.97191
2.91068
2.8498
2.7889
2.72768
2.6661
2.60462
2.5442
2.48622
2.43218
2.38344
2.34099
2.30498
2.27471
2.24898
2.22649
2.20619
2.18751
2.17031
2.15476
2.14102
2.12902
2.11851
2.10918
2.10082
2.09361
2.08818
2.08565
2.0873
2.09421
2.10687
2.12507
2.1476
2.17222
2.19617
2.2167
2.23142
2.23854
2.23689
2.22594
2.20586
2.17799
2.14387
2.10668
2.07264
2.04932
2.04382
2.06087
2.10128
2.16137
2.23378
2.30935
2.37946
2.43903
2.48661
2.52155
2.54441
2.55605
2.55648
2.5453
2.52155
2.48453
2.43463
2.37394
2.30636
2.23706
2.17151
2.11433
2.0676
2.03247
2.00902
1.99631
1.99279
1.99663
2.00609
2.01898
2.03297
2.0456
2.04805
1.88451
1.4105
0.684333
-0.110102
-0.531662
0
1.91491
5.26763
9.49189
13.5347
16.2372
16.8119
15.1743
11.9511
8.1693
4.8049
2.43168
1.12725
0.625785
0.568248
0.707911
0.839365
0.9596
1.06366
1.14783
1.21484
1.2683
1.31101
1.34533
1.37411
1.40049
1.42753
1.45795
1.49376
1.53619
1.58562
1.64166
1.70332
1.76917
1.83751
1.90656
1.97457
2.04004
2.10186
2.15954
2.21325
2.26387
2.31269
2.36119
2.41051
2.46115
2.51269
2.56382
2.61252
2.65648
2.69356
2.72216
2.74141
2.75117
2.75179
2.74383
2.72775
2.70383
2.67225
2.63305
2.58621
2.53187
2.47031
2.40186
2.32672
2.24484
2.15593
2.0599
1.95674
1.84708
1.73251
1.6156
1.49971
1.38862
1.28592
1.19452
1.11633
1.05212
1.00158
0.963558
0.936252
0.917428
0.904507
0.894849
0.885938
0.87537
0.861192
0.842184
0.818087
0.789697
0.758759
0.72767
0.699035
0.675185
0.657671
0.647092
0.643173
0.644897
0.650697
0.658683
0.66684
0.673035
0.675029
0.670842
0.65904
0.638913
0.610779
0.576257
0.538337
0.501174
0.469573
0.44824
0.440664
0.448321
0.470752
0.505904
0.550512
0.60043
0.651048
0.697688
0.736204
0.763388
0.777068
0.776014
0.759728
0.728168
0.681524
0.620141
0.544598
0.456059
0.356302
0.248081
0.135202
0.0223778
-0.0851429
-0.182244
-0.264341
-0.326917
-0.364935
-0.372245
-0.341863
-0.271402
-0.17665
-0.0797657
0
0.0540855
-0.113704
-0.749611
-1.70149
-2.68986
-3.07491
-2.20475
0.295695
4.25361
8.88085
12.992
15.4356
15.551
13.4265
9.83143
5.86112
2.4874
0.240737
-0.847889
-1.08198
-0.853711
-0.656895
-0.482046
-0.346024
-0.256144
-0.195537
-0.151174
-0.116171
-0.0831604
-0.0454376
0.00170441
0.0608089
0.135381
0.224392
0.31627
0.39707
0.455278
0.486001
0.493083
0.488152
0.486784
0.503226
0.54577
0.60858
0.683825
0.766069
0.850636
0.933295
1.0108
1.08097
1.14306
1.19796
1.24778
1.29548
1.34455
1.39842
1.4619
1.54175
1.63531
1.72737
1.79819
1.83155
1.82198
1.77725
1.71469
1.65336
1.60621
1.57222
1.54443
1.51804
1.48883
1.45293
1.40733
1.35027
1.28133
1.20155
1.113
1.01817
0.919769
0.820455
0.722704
0.628711
0.54042
0.459607
0.388051
0.327595
0.279663
0.245235
0.224592
0.217117
0.221419
0.235171
0.25561
0.27994
0.305667
0.330755
0.353575
0.372691
0.386592
0.393457
0.391299
0.378153
0.352458
0.313469
0.261542
0.198203
0.125977
0.0480545
-0.0320499
-0.111037
-0.185732
-0.25298
-0.310107
-0.354829
-0.385125
-0.399252
-0.395718
-0.373586
-0.332526
-0.272952
-0.196143
-0.104309
-0.000590134
0.111654
0.227806
0.340723
0.440619
0.518082
0.564741
0.574568
0.545175
0.478607
0.38129
0.263158
0.136345
0.0134579
-0.0974026
-0.192006
-0.265815
-0.313881
-0.327229
-0.300284
-0.241339
-0.165398
-0.0891647
-0.0281338
0.00495644
0
-0.0389996
-0.132639
-0.288161
-0.504784
-0.820736
-1.25543
-1.76292
-2.42286
-2.53681
-1.61293
0.663874
4.20323
8.39063
12.1942
14.5087
14.6016
12.4423
8.7324
4.60627
1.15676
-0.969505
-1.71994
-1.49833
-0.895404
-0.611293
-0.343429
-0.10003
0.120872
0.322776
0.502667
0.659371
0.792363
0.90147
0.987446
1.05255
1.10081
1.13785
1.17018
1.2042
1.24486
1.29476
1.35452
1.42362
1.50094
1.58466
1.6732
1.76576
1.86248
1.96422
2.07202
2.18642
2.30697
2.43181
2.55811
2.68262
2.80198
2.91299
3.01253
3.09838
3.16973
3.22671
3.27033
3.30233
3.32508
3.34117
3.35294
3.36196
3.3686
3.372
3.37004
3.36
3.33911
3.30527
3.25753
3.19634
3.12346
3.04157
2.95379
2.86329
2.77288
2.68517
2.60329
2.53064
2.47032
2.42525
2.39767
2.38869
2.39794
2.42365
2.46301
2.51277
2.56945
2.63022
2.6932
2.75708
2.82088
2.88357
2.94384
3.00006
3.05035
3.09282
3.12594
3.14884
3.16153
3.16491
3.16057
3.15046
3.13654
3.12037
3.103
3.08504
3.06689
3.04902
3.03223
3.01776
3.00723
3.00238
3.00478
3.01575
3.03614
3.06465
3.09688
3.12763
3.15236
3.16857
3.17651
3.17892
3.17983
3.18292
3.18991
3.19987
3.20941
3.21379
3.20846
3.19047
3.15917
3.11607
3.06401
3.00612
2.94525
2.88328
2.82131
2.76019
2.70077
2.64388
2.59025
2.54029
2.49399
2.45084
2.40984
2.36974
2.3292
2.28621
2.21628
1.94489
1.35654
0.465654
-0.436639
-0.795763
0
2.31696
5.9988
10.3418
14.2854
16.7817
17.1759
15.4386
12.154
8.27593
4.76369
2.26023
0.945617
0.601126
0.808634
0.91938
1.0225
1.1125
1.18694
1.24804
1.29934
1.34608
1.39402
1.44809
1.51132
1.58518
1.66971
1.76359
1.86436
1.9689
2.0739
2.17634
2.27383
2.3649
2.44911
2.52705
2.60018
2.67061
2.74072
2.81274
2.88832
2.96822
3.05253
3.14001
3.22793
3.31374
3.3962
3.4762
3.55677
3.64225
3.73679
3.8426
3.96149
4.08686
4.20594
4.30456
4.37118
4.39963
4.38968
4.34558
4.27365
4.18023
4.07274
3.95774
3.84037
3.72532
3.61764
3.52328
3.45312
3.4226
3.42766
3.44886
3.46124
3.44373
3.38724
3.29768
3.1929
3.09528
3.02336
2.97666
2.94748
2.93272
2.92878
2.93145
2.93684
2.94199
2.94531
2.9466
2.94688
2.94798
2.95198
2.96059
2.97481
2.99484
3.02014
3.04905
3.07931
3.1087
3.13563
3.15949
3.1808
3.20098
3.22193
3.24537
3.27223
3.30251
3.33533
3.36882
3.40083
3.42954
3.45399
3.47438
3.49213
3.50957
3.52945
3.55445
3.58628
3.6256
3.67248
3.72587
3.78303
3.83838
3.88342
3.90904
3.90717
3.87284
3.80584
3.71132
3.59889
3.48021
3.36582
3.26125
3.16614
3.07999
3.00104
2.9275
2.85853
2.79491
2.73884
2.69318
2.66208
2.64747
2.64502
2.64569
2.63666
2.46434
1.89524
1.0764
0.205368
0
1.06808
3.69792
7.66079
12.1351
15.9307
17.9348
17.5708
15.0391
11.2132
7.2497
4.11779
2.27564
1.62416
1.71038
1.97265
2.04891
2.11938
2.18411
2.24372
2.29936
2.35262
2.40525
2.45884
2.51452
2.57292
2.63407
2.69754
2.76261
2.82862
2.89513
2.9621
3.03003
3.0998
3.17268
3.24996
3.33281
3.42197
3.5175
3.61873
3.72422
3.83197
3.93969
4.04525
4.14721
4.24503
4.33919
4.43094
4.52183
4.61307
4.70496
4.79493
4.87705
4.94377
4.98845
5.00774
5.0029
4.97917
4.94367
4.90267
4.85945
4.81405
4.76492
4.70948
4.64509
4.5696
4.48177
4.38152
4.27018
4.15029
4.02502
3.89815
3.77361
3.65504
3.54562
3.44658
3.35767
3.2776
3.20485
3.13839
3.07814
3.02497
2.98027
2.94538
2.92036
2.90509
2.89869
2.89975
2.90667
2.91796
2.93242
2.94917
2.96746
2.98658
3.00562
3.02338
3.03834
3.04882
3.05326
3.05045
3.03988
3.02188
2.99767
2.96921
2.93893
2.90923
2.88215
2.85915
2.84097
2.82739
2.81776
2.81155
2.80878
2.81027
2.81754
2.83231
2.85663
2.89244
2.93738
2.9858
3.03031
3.06328
3.07811
3.07006
3.03633
2.97603
2.8901
2.78393
2.66382
2.53558
2.40519
2.27896
2.16264
2.06053
1.97578
1.9098
1.86194
1.82979
1.80971
1.7973
1.7878
1.77629
1.75787
1.72761
1.68051
1.56929
1.19675
0.586708
-0.158562
-0.620551
0
2.15741
5.81482
10.2801
14.3907
16.9348
17.1403
14.9922
11.2208
6.96849
3.31175
0.883241
-0.241864
-0.393887
-0.0295898
0.35843
0.6935
0.932702
1.05686
1.13619
1.19832
1.25082
1.30063
1.35288
1.41009
1.47167
1.5354
1.59808
1.65667
1.70926
1.7558
1.79822
1.83991
1.88501
1.93731
1.99925
2.07149
2.15341
2.24349
2.33971
2.44005
2.54291
2.64727
2.75255
2.85832
2.96384
3.06787
3.1685
3.26334
3.34989
3.42614
3.49094
3.54421
3.58684
3.62041
3.64618
3.66452
3.67472
3.67526
3.66356
3.63711
3.59458
3.53653
3.4653
3.38428
3.29681
3.20539
3.11147
3.01526
2.91626
2.81367
2.70668
2.59469
2.47756
2.35496
2.22794
2.10452
1.99826
1.92398
1.89219
1.90401
1.94949
2.0107
2.06824
2.10817
2.13113
2.14262
2.14527
2.14203
2.13512
2.12568
2.11361
2.09832
2.07937
2.05718
2.03336
2.01073
1.99286
1.98337
1.98487
1.99825
2.02457
2.06085
2.0992
2.13066
2.14772
2.14642
2.12744
2.09583
2.05946
2.02671
2.00399
1.99283
1.99167
1.99864
2.01076
2.02498
2.03911
2.05233
2.06519
2.07916
2.09577
2.11592
2.13923
2.16311
2.18341
2.19531
2.19439
2.17742
2.14293
2.09151
2.02571
1.94994
1.8702
1.79279
1.72371
1.6679
1.63141
1.62295
1.6384
1.65714
1.65122
1.5914
1.34202
0.90848
0.362541
-0.236376
0
1.58174
4.64839
8.76398
12.9627
16.0569
17.0994
15.7886
12.6034
8.58504
4.87705
2.26553
0.955889
0.663213
0.900486
1.07791
1.23776
1.38022
1.50232
1.6095
1.70562
1.7937
1.87661
1.95641
2.03402
2.10927
2.1812
2.24859
2.3105
2.36658
2.41722
2.4635
2.50693
2.54915
2.59173
2.63592
2.68265
2.73281
2.78725
2.84695
2.91337
2.98856
3.07487
3.17436
3.28805
3.41525
3.55323
3.69716
3.84167
3.98153
4.11198
4.22877
4.32822
4.40907
4.47116
4.51509
4.54181
4.5523
4.54734
4.52737
4.49257
4.44345
4.38031
4.30395
4.21583
4.11805
4.01328
3.90445
3.7947
3.68687
3.58372
3.48801
3.40227
3.32871
3.26897
3.22395
3.19363
3.17702
3.17243
3.17743
3.18891
3.20345
3.21766
3.22871
3.2349
3.23593
3.23308
3.229
3.2273
3.23177
3.24554
3.27034
3.3057
3.34939
3.39869
3.45053
3.50195
3.55048
3.59424
3.63176
3.66146
3.68164
3.69094
3.68818
3.67286
3.64582
3.60976
3.56883
3.52972
3.49965
3.48494
3.48957
3.51423
3.55608
3.60934
3.66642
3.71941
3.76178
3.78884
3.79819
3.78952
3.76397
3.72339
3.66962
3.60467
3.53057
3.44892
3.36117
3.26925
3.17572
3.08371
2.99674
2.91848
2.85254
2.80217
2.77067
2.7631
2.78737
2.84737
2.93368
3.03332
3.13223
3.14504
2.65794
1.7619
0.664418
-0.149216
0
1.64973
4.89137
9.19004
13.5019
16.6481
17.774
16.6699
13.8098
10.1118
6.55302
3.82843
2.19012
1.49851
1.41157
1.55582
1.65491
1.74612
1.82851
1.90269
1.97175
2.03787
2.10228
2.16575
2.22884
2.29212
2.35631
2.42224
2.49079
2.56246
2.63721
2.71397
2.78953
2.85985
2.92173
2.97434
3.02028
3.06543
3.11766
3.18469
3.27177
3.37774
3.49787
3.62714
3.75957
3.88883
4.00988
4.11991
4.21871
4.30821
4.39051
4.4678
4.54078
4.60373
4.64537
4.65435
4.62521
4.56198
4.47743
4.38844
4.30937
4.24507
4.18995
4.13865
4.0861
4.02749
3.95939
3.88041
3.79137
3.69484
3.59455
3.4946
3.39835
3.30858
3.2276
3.15696
3.09755
3.04961
3.0129
2.98679
2.97042
2.96282
2.96301
2.97002
2.98283
3.0004
3.02154
3.04482
3.06869
3.09162
3.11214
3.12898
3.14085
3.14714
3.14786
3.14389
3.13698
3.12971
3.12502
3.12566
3.13516
3.15376
3.17601
3.19383
3.19967
3.18951
3.1646
3.13113
3.0982
3.07511
3.06715
3.0741
3.0952
3.13011
3.17829
3.23876
3.31022
3.39048
3.47418
3.55132
3.61044
3.64093
3.63561
3.59272
3.51664
3.4168
3.30529
3.19406
3.09121
2.99904
2.91802
2.84892
2.79235
2.74842
2.717
2.69782
2.69058
2.69498
2.71071
2.73775
2.77556
2.82216
2.87481
2.93601
2.78264
2.17617
1.19519
0.233168
0
1.17799
4.06079
8.31851
13.0147
16.9028
18.8833
18.427
15.7754
11.8241
7.73885
4.49387
2.554
1.8351
1.91037
2.2598
2.39911
2.52369
2.62928
2.71744
2.79592
2.86818
2.93764
3.00706
3.07806
3.1511
3.22588
3.30172
3.37788
3.45375
3.52894
3.60312
3.67591
3.74678
3.81514
3.88052
3.9428
4.00243
4.06041
4.1181
4.17688
4.23764
4.30074
4.36543
4.42981
4.49175
4.54986
4.60408
4.65589
4.70773
4.76202
4.82023
4.88197
4.94381
5.00053
5.04661
5.07779
5.09202
5.08969
5.07301
5.04489
5.00827
4.96495
4.91508
4.8576
4.79091
4.71359
4.62477
4.52481
4.41568
4.30091
4.18521
4.07387
3.97181
3.88302
3.81009
3.75412
3.7148
3.69024
3.67802
3.67584
3.68197
3.69547
3.7161
3.74394
3.77898
3.82071
3.86776
3.91782
3.96778
4.01371
4.0511
4.07627
4.08675
4.08181
4.06267
4.03241
3.99538
3.95617
3.91848
3.88419
3.85327
3.82415
3.79483
3.76402
3.73218
3.70168
3.67621
3.65957
3.65424
3.66117
3.67759
3.69857
3.71858
3.73308
3.73964
3.73817
3.7302
3.71787
3.70276
3.68559
3.66599
3.64304
3.61565
3.58291
3.54421
3.49926
3.44805
3.39109
3.32919
3.26334
3.19493
3.12584
3.0582
2.99415
2.93548
2.88334
2.83786
2.79805
2.76177
2.7258
2.6861
2.63813
2.57712
2.47976
2.10768
1.46907
0.663351
-0.0863579
0
1.453
4.4572
8.55054
12.7103
15.7029
16.5849
15.1089
11.8197
7.78787
4.12766
1.563
0.252625
-0.0895145
0.0858603
0.310658
0.516619
0.687444
0.811047
0.89758
0.953258
0.981202
0.987232
0.978992
0.964654
0.951482
0.944675
0.946214
0.955435
0.970866
0.990923
1.01405
1.03904
1.06522
1.09238
1.12064
1.15027
1.18158
1.21485
1.25024
1.28782
1.32749
1.36903
1.41215
1.4566
1.50226
1.54926
1.59787
1.64836
1.70071
1.75431
1.80772
1.85861
1.90385
1.93998
1.9636
1.97184
1.96263
1.93467
1.88771
1.82224
1.73942
1.64094
1.52896
1.40608
1.2752
1.13936
1.0016
0.864666
0.730918
0.602503
0.48139
0.369102
0.266905
0.175872
0.0968582
0.0304264
-0.0232248
-0.0643106
-0.0934608
-0.11167
-0.120436
-0.121338
-0.115842
-0.105303
-0.0909685
-0.0739485
-0.0552347
-0.0357977
-0.0166431
0.00117455
0.0166056
0.0287266
0.0369076
0.0409704
0.0412878
0.0387875
0.0348398
0.0310589
0.0290506
0.0301678
0.0353142
0.0448303
0.0584717
0.0754782
0.0947218
0.114922
0.134892
0.153789
0.171316
0.18783
0.204319
0.222247
0.243291
0.269016
0.300553
0.33833
0.381913
0.430035
0.480578
0.530233
0.574921
0.610538
0.633425
0.640819
0.631209
0.604537
0.562251
0.507155
0.443062
0.374247
0.304782
0.237935
0.175798
0.119284
0.0686546
0.0241516
-0.0134224
-0.0424931
-0.0610512
-0.0647717
-0.0520725
-0.0274448
0
0.0264465
-0.24731
-0.834668
-1.60615
-2.24337
-2.05116
-0.518315
2.50196
6.59745
10.8306
14.0319
15.25
14.1448
11.1261
7.16186
3.36013
0.542635
-0.989751
-1.42279
-1.20016
-0.881136
-0.583292
-0.325786
-0.122713
0.0380405
0.172443
0.282154
0.368627
0.434325
0.482421
0.51642
0.539811
0.555852
0.567711
0.578195
0.589906
0.605469
0.62742
0.65822
0.700479
0.755857
0.822925
0.895753
0.965343
1.0228
1.06195
1.08154
1.08619
1.08583
1.0935
1.12198
1.17968
1.26503
1.37054
1.49203
1.62182
1.74997
1.8661
1.96155
2.03011
2.06834
2.07553
2.05347
2.00591
1.93774
1.8539
1.75866
1.65532
1.54608
1.43221
1.31444
1.19398
1.07266
0.952933
0.837504
0.728954
0.629381
0.540212
0.462212
0.395644
0.340485
0.296593
0.263767
0.2417
0.229881
0.227498
0.23341
0.246211
0.264366
0.286395
0.311053
0.337462
0.365171
0.394119
0.424515
0.456657
0.490753
0.526778
0.564291
0.602481
0.64038
0.677081
0.711908
0.744462
0.774538
0.80198
0.826587
0.848183
0.866771
0.882853
0.897568
0.913308
0.933264
0.960838
0.999007
1.04987
1.11452
1.19333
1.2863
1.39337
1.51336
1.64589
1.79301
1.95399
2.11924
2.27364
2.40147
2.49028
2.53352
2.53116
2.48843
2.41391
2.31798
2.21323
2.10954
2.01311
1.92813
1.85752
1.80404
1.76866
1.75076
1.74872
1.76042
1.78373
1.81673
1.85779
1.90535
1.95791
2.02122
1.98216
1.55182
0.749097
-0.149514
-0.60697
0
2.11232
5.67635
10.0691
14.2201
16.9808
17.574
15.9102
12.6083
8.71073
5.24653
2.86293
1.69056
1.45801
1.73575
1.99795
2.23651
2.43327
2.57846
2.68803
2.77574
2.84606
2.90237
2.94812
2.98671
3.02132
3.05474
3.08935
3.12707
3.16917
3.21628
3.26818
3.32355
3.38011
3.4353
3.48687
3.53362
3.57573
3.61498
3.65442
3.69785
3.74899
3.81051
3.88339
3.96702
4.05974
4.15938
4.2635
4.36974
4.47611
4.58071
4.68098
4.77292
4.85187
4.91234
4.94915
4.95904
4.94182
4.90053
4.8405
4.76777
4.68741
4.6029
4.51543
4.42487
4.3305
4.23162
4.12804
4.02033
3.91001
3.79956
3.69219
3.59144
3.50072
3.42298
3.36
3.31159
3.27573
3.24902
3.22738
3.2068
3.18413
3.15762
3.12717
3.09423
3.0613
3.03137
3.00714
2.99039
2.98187
2.98131
2.98748
2.9984
3.0117
3.02485
3.03554
3.0418
3.04217
3.03575
3.02226
3.00204
2.976
2.94564
2.9129
2.88024
2.85062
2.82719
2.81273
2.80944
2.81857
2.84033
2.8739
2.91769
2.96975
3.0282
3.0915
3.1582
3.22713
3.29643
3.36091
3.41221
3.44024
3.43599
3.39475
3.31815
3.21415
3.09479
2.9727
2.8571
2.75031
2.65234
2.56357
2.48383
2.41298
2.35128
2.2996
2.25939
2.23242
2.22041
2.22505
2.24844
2.29216
2.35262
2.42425
2.5019
2.50668
2.08696
1.24225
0.213388
-0.439342
0
2.06371
5.76231
10.4357
14.904
17.8926
18.5407
16.7486
13.1915
8.99834
5.27291
2.70265
1.42664
1.16588
1.47239
1.684
1.87377
2.02833
2.14713
2.24986
2.34643
2.44303
2.54322
2.6476
2.75223
2.85087
2.93731
3.00764
3.06155
3.10226
3.13542
3.16735
3.20329
3.24569
3.29564
3.35357
3.41951
3.49349
3.57578
3.66669
3.76619
3.87353
3.98706
4.10437
4.22302
4.341
4.45721
4.5715
4.68436
4.79611
4.9059
5.0102
5.10289
5.17668
5.22527
5.24536
5.23739
5.20495
5.15314
5.08675
5.00978
4.92478
4.83281
4.73423
4.62942
4.51923
4.40521
4.2894
4.17412
4.06162
3.95378
3.85201
3.75719
3.66976
3.58989
3.51751
3.45247
3.39452
3.34329
3.29837
3.25925
3.22544
3.19653
3.17229
3.1526
3.13756
3.12749
3.12295
3.12471
3.13384
3.15138
3.17804
3.21391
3.25848
3.31038
3.36539
3.4184
3.4643
3.49904
3.52022
3.52722
3.52083
3.5027
3.47512
3.44092
3.40202
3.36024
3.31747
3.27567
3.23675
3.20234
3.17394
3.15264
3.13909
3.13331
3.13471
3.14199
3.15319
3.16578
3.1768
3.18305
3.18133
3.16854
3.14199
3.09958
3.04019
2.96391
2.87231
2.7685
2.65704
2.54352
2.43391
2.33367
2.24731
2.17813
2.12799
2.09546
2.07452
2.05609
2.02954
1.98392
1.90918
1.79733
1.64343
1.41139
1.09969
0.741428
0.0955082
0
1.00574
3.4166
7.04828
11.1636
14.6666
16.5015
16.0879
13.575
9.77323
5.79568
2.59953
0.665969
-0.0487835
0.0714504
0.526734
0.890539
1.19844
1.42561
1.58046
1.70062
1.79486
1.86727
1.92301
1.9678
2.00751
2.04769
2.09311
2.14738
2.21279
2.29007
2.37824
2.47507
2.57687
2.67824
2.77378
2.8595
2.93379
2.9979
3.05572
3.11291
3.17564
3.24914
3.33583
3.43526
3.54532
3.66259
3.78267
3.9007
4.01206
4.11286
4.19999
4.27096
4.32362
4.35669
4.37001
4.36411
4.34037
4.30132
4.25053
4.19232
4.13097
4.06986
4.01052
3.95249
3.89295
3.82776
3.75274
3.66519
3.56497
3.45491
3.3404
3.22822
3.12485
3.03399
2.95838
2.89882
2.85382
2.82006
2.79405
2.77321
2.75667
2.74548
2.74215
2.74972
2.77055
2.80518
2.85372
2.91184
2.97374
3.03372
3.08771
3.13408
3.17349
3.20786
3.23872
3.26599
3.2872
3.29766
3.29223
3.26732
3.22255
3.16134
3.09049
3.0187
2.95472
2.90402
2.86839
2.84978
2.84838
2.86283
2.89064
2.92862
2.97329
3.02145
3.07046
3.11831
3.16355
3.20487
3.24087
3.26978
3.28942
3.29742
3.29132
3.26903
3.22939
3.17256
3.1003
3.01587
2.9237
2.82882
2.73589
2.64842
2.56871
2.498
2.43608
2.38169
2.33289
2.28757
2.24386
2.20037
2.1563
2.11128
2.06521
2.01763
1.96289
1.7521
1.29482
0.644659
0.0174099
0
1.13346
3.71658
7.50209
11.681
15.1353
16.869
16.4117
13.9967
10.4319
6.74389
3.78072
1.95694
1.22676
1.24209
1.52392
1.64135
1.7408
1.81774
1.87304
1.91549
1.94975
1.98047
2.0124
2.04956
2.09464
2.14868
2.21111
2.28009
2.3529
2.42688
2.50011
2.57174
2.642
2.71178
2.78213
2.85371
2.92649
2.99983
3.07276
3.14439
3.21423
3.28246
3.34985
3.41758
3.4868
3.55815
3.63145
3.7055
3.77825
3.84709
3.90941
3.9631
4.00688
4.04037
4.06389
4.07769
4.08133
4.07375
4.05385
4.02
3.97077
3.9056
3.82522
3.73151
3.62702
3.51439
3.39604
3.27428
3.15069
3.02734
2.90764
2.79581
2.69626
2.61276
2.54778
2.50221
2.47562
2.46664
2.47339
2.49219
2.52057
2.55641
2.59756
2.64187
2.68731
2.73202
2.77437
2.81251
2.84474
2.86967
2.88643
2.8949
2.89587
2.89095
2.88223
2.87179
2.8613
2.85161
2.84273
2.83389
2.82398
2.81223
2.79886
2.78539
2.77453
2.76962
2.77373
2.78873
2.8147
2.84911
2.88867
2.93032
2.97148
3.01057
3.04736
3.0829
3.11917
3.15844
3.20251
3.25295
3.30944
3.36611
3.41398
3.44416
3.45078
3.4329
3.39475
3.34418
3.29025
3.24081
3.19933
3.16585
3.13997
3.12087
3.10692
3.09484
3.08051
3.06002
3.03034
2.99002
2.9394
2.88037
2.81581
2.74888
2.68246
2.64772
2.40433
1.81746
0.960675
0.169223
0
1.01449
3.501
7.25958
11.5756
15.4157
17.7787
18.0524
16.2329
12.9126
9.04391
5.5826
3.16384
1.94987
1.69492
1.95788
2.15659
2.33223
2.46869
2.56056
2.62773
2.68224
2.72852
2.76878
2.80426
2.8353
2.8614
2.88201
2.89762
2.91055
2.92501
2.94635
2.97972
3.02857
3.09262
3.16852
3.25283
3.34188
3.43235
3.522
3.60995
3.69639
3.782
3.86694
3.94984
4.02725
4.09445
4.14732
4.18423
4.20713
4.22129
4.23372
4.25085
4.27637
4.31092
4.34944
4.3838
4.40532
4.40718
4.38581
4.34096
4.27477
4.19028
4.09089
3.98026
3.86097
3.73479
3.60332
3.46845
3.33254
3.19838
3.069
2.94733
2.8359
2.73665
2.6509
2.57982
2.52434
2.48464
2.46072
2.45237
2.45901
2.47937
2.51132
2.55181
2.59732
2.64309
2.68418
2.71639
2.73686
2.74447
2.73998
2.72572
2.70512
2.68203
2.65997
2.64135
2.62737
2.61843
2.61419
2.6135
2.61484
2.61668
2.6178
2.61751
2.61574
2.61307
2.61055
2.60953
2.61136
2.61732
2.62834
2.64491
2.66724
2.69513
2.72836
2.76697
2.81137
2.86242
2.92116
2.98955
3.06983
3.16228
3.26117
3.35386
3.42604
3.46556
3.46582
3.42757
3.35866
3.27169
3.18009
3.09402
3.01617
2.94409
2.87504
2.80722
2.73976
2.67286
2.60809
2.54822
2.49683
2.4577
2.43499
2.43381
2.45948
2.51037
2.58005
2.66034
2.74972
2.48664
1.78541
0.732358
-0.315972
-0.766739
0
2.32568
6.08525
10.585
14.7513
17.4825
18.0457
16.3552
12.9991
8.98893
5.34543
2.72808
1.28788
0.781609
0.821799
1.1032
1.36861
1.59632
1.7608
1.855
1.90864
1.93868
1.95107
1.9488
1.93573
1.91625
1.89504
1.87649
1.86415
1.86076
1.86913
1.88613
1.90566
1.922
1.93271
1.9402
1.95118
1.97392
2.01472
2.07514
2.14801
2.22644
2.30552
2.38107
2.4505
2.51306
2.56958
2.62166
2.67075
2.71752
2.76068
2.79622
2.81866
2.8223
2.80296
2.75912
2.69229
2.60641
2.50642
2.39652
2.27891
2.15429
2.02278
1.88426
1.73875
1.58757
1.43335
1.27968
1.13045
0.98894
0.857757
0.738659
0.632637
0.54019
0.461578
0.396898
0.346539
0.311575
0.292377
0.285068
0.280898
0.270416
0.246132
0.204895
0.149015
0.0855838
0.024164
-0.0263084
-0.0608937
-0.0815631
-0.0923455
-0.0965623
-0.0971746
-0.096952
-0.0980766
-0.102014
-0.109625
-0.121547
-0.138417
-0.160806
-0.189223
-0.223906
-0.264443
-0.30943
-0.356322
-0.401535
-0.440799
-0.4697
-0.484832
-0.483789
-0.465099
-0.428808
-0.376497
-0.311194
-0.236792
-0.157458
-0.0772072
0.000515938
0.0730719
0.138634
0.195823
0.243493
0.28097
0.307634
0.322972
0.326715
0.319006
0.300489
0.272308
0.236001
0.193432
0.146591
0.0973028
0.047246
-0.00201721
-0.0490236
-0.0923861
-0.130722
-0.16258
-0.186496
-0.201072
-0.204846
-0.196
-0.172627
-0.135062
-0.0888958
-0.0413374
0
0.0170488
-0.274633
-0.946706
-1.8474
-2.72144
-2.91365
-1.84398
0.787319
4.73515
9.17145
12.9202
14.8917
14.5186
11.9844
8.12818
4.07754
0.800028
-1.20695
-1.96658
-1.84778
-1.34775
-1.12036
-0.922705
-0.770466
-0.666327
-0.607454
-0.583582
-0.580263
-0.582778
-0.579502
-0.565677
-0.541323
-0.507518
-0.465392
-0.416133
-0.360699
-0.299662
-0.233327
-0.162009
-0.0862904
-0.00714035
0.0742653
0.156762
0.239716
0.323449
0.409389
0.499826
0.59731
0.703819
0.819932
0.944302
1.07373
1.20313
1.32664
1.43872
1.53503
1.61291
1.67109
1.70831
1.72587
1.72563
1.70984
1.68121
1.64289
1.59835
1.55089
1.50301
1.45579
1.40867
1.35984
1.30656
1.24568
1.17429
1.09026
0.992569
0.881535
0.758787
0.627104
0.490059
0.351584
0.21676
0.0924953
-0.0141788
-0.0974606
-0.15305
-0.178894
-0.175688
-0.146907
-0.0983212
-0.0371044
0.0292297
0.094001
0.152816
0.2026
0.242082
0.271926
0.294595
0.313871
0.334021
0.358775
0.390371
0.428775
0.471931
0.516524
0.558601
0.594495
0.621606
0.638863
0.64682
0.647421
0.643517
0.638315
0.634475
0.6338
0.637403
0.644844
0.654055
0.66242
0.667754
0.669157
0.667439
0.664991
0.665221
0.671753
0.686937
0.711507
0.746043
0.791187
0.846704
0.908808
0.968801
1.01614
1.0408
1.03564
0.998221
0.931442
0.842694
0.741932
0.639306
0.542231
0.45346
0.37359
0.302858
0.240974
0.18709
0.140209
0.0995472
0.0647991
0.0362244
0.0145321
0.000685883
-0.00418472
0
0.0273239
0.0593113
0.0926125
-0.035741
-0.574628
-1.43651
-2.36694
-2.86743
-2.34809
-0.38067
3.03788
7.35159
11.5518
14.5091
15.4008
14.0364
10.9248
7.04796
3.45079
0.850544
-0.552721
-1.00329
-0.938567
-0.811711
-0.696605
-0.592786
-0.504438
-0.434209
-0.382796
-0.348695
-0.328253
-0.316086
-0.30582
-0.291023
-0.266098
-0.228234
-0.176912
-0.112286
-0.0349119
0.0538294
0.151763
0.256165
0.364098
0.4727
0.579704
0.683817
0.784912
0.883975
0.98278
1.08338
1.18755
1.29631
1.40967
1.52673
1.64604
1.76593
1.88493
2.00199
2.11643
2.22763
2.33456
2.43521
2.52611
2.60283
2.66031
2.69409
2.70149
2.68247
2.6399
2.57914
2.50709
2.43091
2.35619
2.28566
2.21989
2.1583
2.09923
2.0403
1.97909
1.91379
1.84344
1.76859
1.69325
1.62536
1.57411
1.54761
1.55086
1.58458
1.64508
1.72526
1.81626
1.90934
1.99789
2.07908
2.15238
2.21775
2.27582
2.32776
2.37479
2.41781
2.45705
2.49223
2.52249
2.54668
2.56374
2.57296
2.5742
2.56792
2.55512
2.53732
2.5166
2.49514
2.47533
2.4597
2.45066
2.45019
2.45959
2.47989
2.51115
2.54963
2.58966
2.6263
2.65723
2.68398
2.71186
2.74839
2.80084
2.87365
2.97158
3.08793
3.20773
3.3141
3.39263
3.43429
3.43627
3.4014
3.33688
3.25284
3.1613
3.0724
2.99237
2.92383
2.86687
2.82085
2.78409
2.7541
2.72821
2.70418
2.68054
2.65672
2.63286
2.60945
2.58695
2.56555
2.54567
2.52958
2.32385
1.80422
0.999883
0.205325
0
1.03414
3.68577
7.75257
12.3889
16.365
18.5488
18.3665
16.0127
12.3207
8.38293
5.12658
3.0389
2.12559
2.06228
2.41133
2.65634
2.87952
3.06814
3.21718
3.34428
3.45725
3.55771
3.64775
3.73
3.80759
3.88388
3.96191
4.04384
4.13062
4.22169
4.3159
4.41229
4.51026
4.60995
4.71221
4.81835
4.92977
5.04745
5.17172
5.30244
5.43895
5.58009
5.72427
5.86954
6.01354
6.15333
6.28537
6.40594
6.51154
6.59906
6.66607
6.71096
6.7331
6.73281
6.71137
6.67086
6.61411
6.54461
6.46611
6.38232
6.29648
6.21129
6.12884
6.05064
5.9775
5.90957
5.8464
5.78701
5.73012
5.67432
5.61837
5.56148
5.50349
5.44505
5.38752
5.33276
5.28283
5.23966
5.20472
5.17888
5.16254
5.15587
5.1594
5.17361
5.19906
5.23612
5.28458
5.3432
5.41011
5.48166
5.5529
5.61888
5.67554
5.72041
5.75286
5.77385
5.7854
5.78995
5.78984
5.78703
5.78283
5.77825
5.7742
5.77176
5.77213
5.77662
5.78652
5.80301
5.82709
5.85958
5.90109
5.95212
6.01294
6.08359
6.16375
6.2526
6.34871
6.45007
6.55397
6.65696
6.75496
6.84356
6.91818
6.97461
7.00942
7.02005
7.00508
6.96447
6.89974
6.81396
6.71164
6.5984
18
168
318
468
618
768
919
1070
1220
1369
1519
1666
1813
1961
2110
2259
2408
2558
2706
2856
3008
3162
3315
3471
3623
3716
3732
3500
3620
3741
0
0
0
0
0
0
0
0
0
0
0
0
0
0
0
0
0
0
0
0
0
0
0
0
0
0
0
0
0
0
0
0
0
0
0
0
0
0
0
0
0
0
0
0
0
0
0
0
0
0
0
0
0
0
0
0
0
0
0
0
0
0
0
0
0
0
0
0
0
0
0
0
0
0
0
0
0
0
0
0
0
0
0
0
0
0
0
0
0
0
0
0
0
0
0
0
0
0
0
0
0
0
0
0
0
0
0
0
0
0
0
0
0
0
0
0
0
0
0
0
0
0
0
0
0
0
0
0
0
0
0
0
0
0
0
0
0
0
0
0
0
0
0
0
0
0
0
0
0
0
0
0
0
0
0
0
0
0
0
0
0
0
0
0
0
0
0
0
0
0
0
0
0
0
0
0
0
0
0
0
0
0
0
0
0
0
0
0
0
0
0
0
0
0
0
0
0
0
0
0
0
0
0
0
0
0
0
0
0
0
0
0
0
0
0
0
0
0
0
0
0
0
0
0
0
0
0
0
0
0
0
0
0
0
0
0
0
0
0
0
0
0
0
0
0
0
0
0
0
0
0
0
0
0
0
0
0
0
0
0
0
0
0
0
0
0
0
0
0
0
0
0
0
0
0
0
0
0
0
0
0
0
0
0
0
0
0
0
0
0
0
0
0
0
0
0
0
0
0
0
0
0
0
0
0
0
0
0
0
0
0
0
0
0
0
0
0
0
0
0
0
0
0
0
0
0
0
0
0
0
0
0
0
0
0
0
0
0
0
0
0
0
0
0
0
0
0
0
0
0
0
0
0
0
0
0
0
0
0
0
0
0
0
0
0
0
0
0
0
0
0
0
0
0
0
0
0
0
0
0
0
0
0
0
0
0
0
0
0
0
0
0
0
0
0
0
0
0
0
0
0
0
0
0
0
0
0
0
0
0
0
0
0
0
0
0
0
0
0
0
0
0
0
0
0
0
0
0
0
0
0
0
0
0
0
0
0
0
0
0
0
0
0
0
0
0
0
0
0
0
0
0
0
0
0
0
0
0
0
0
0
0
0
0
0
0
0
0
0
0
0
0
0
0
0
0
0
0
0
0
0
0
0
0
0
0
0
0
0
0
0
0
0
0
0
0
0
0
0
0
0
0
0
0
0
0
0
0
0
0
0
0
0
0
0
0
0
0
0
0
0
0
0
0
0
0
0
0
0
0
0
0
0
0
0
0
0
0
0
0
0
0
0
0
0
0
0
0
0
0
0
0
0
0
0
0
0
0
0
0
0
0
0
0
0
0
0
0
0
0
0
0
0
0
0
0
0
0
0
0
0
0
0
0
0
0
0
0
0
0
0
0
0
0
0
0
0
0
0
0
0
0
0
0
0
0
0
0
0
0
0
0
0
0
0
0
0
0
0
0
0
0
0
0
0
0
0
0
0
0
0
0
0
0
0
0
0
0
0
0
0
0
0
0
0
0
0
0
0
0
0
0
0
0
0
0
0
0
0
0
0
0
0
0
0
0
0
0
0
0
0
0
0
0
0
0
0
0
0
0
0
0
0
0
0
0
0
0
0
0
0
0
0
0
0
0
0
0
0
0
0
0
0
0
0
0
0
0
0
0
0
0
0
0
0
0
0
0
0
0
0
0
0
0
0
0
0
0
0
0
0
0
0
0
0
0
0
0
0
0
0
0
0
0
0
0
0
0
0
0
0
0
0
0
0
0
0
0
0
0
0
0
0
0
0
0
0
0
0
0
0
0
0
0
0
0
0
0
0
0
0
0
0
0
0
0
0
0
0
0
0
0
0
0
0
0
0
0
0
0
0
0
0
0
0
0
0
0
0
0
0
0
0
0
0
0
0
0
0
0
0
0
0
0
0
0
0
0
0
0
0
0
0
0
0
0
0
0
0
0
0
0
0
0
0
0
0
0
0
0
0
0
0
0
0
0
0
0
0
0
0
0
0
0
0
0
0
0
0
0
0
0
0
0
0
0
0
0
0
0
0
0
0
0
0
0
0
0
0
0
0
0
0
0
0
0
0
0
0
0
0
0
0
0
0
0
0
0
0
0
0
0
0
0
0
0
0
0
0
0
0
0
0
0
0
0
0
0
0
0
0
0
0
0
0
0
0
0
0
0
0
0
0
0
0
0
0
0
0
0
0
0
0
0
0
0
0
0
0
0
0
0
0
0
0
0
0
0
0
0
0
0
0
0
0
0
0
0
0
0
0
0
0
0
0
0
0
0
0
0
0
0
0
0
0
0
0
0
0
0
0
0
0
0
0
0
0
0
0
0
0
0
0
0
0
0
0
0
0
0
0
0
0
0
0
0
0
0
0
0
0
0
0
0
0
0
0
0
0
0
0
0
0
0
0
0
0
0
0
0
0
0
0
0
0
0
0
0
0
0
0
0
0
0
0
0
0
0
0
0
0
0
0
0
0
0
0
0
0
0
0
0
0
0
0
0
0
0
0
0
0
0
0
0
0
0
0
0
0
0
0
0
0
0
0
0
0
0
0
0
0
0
0
0
0
0
0
0
0
0
0
0
0
0
0
0
0
0
0
0
0
0
0
0
0
0
0
0
0
0
0
0
0
0
0
0
0
0
0
0
0
0
0
0
0
0
0
0
0
0
0
0
0
0
0
0
0
0
0
0
0
0
0
0
0
0
0
0
0
0
0
0
0
0
0
0
0
0
0
0
0
0
0
0
0
0
0
0
0
0
0
0
0
0
0
0
0
0
0
0
0
0
0
0
0
0
0
0
0
0
0
0
0
0
0
0
0
0
0
0
0
0
0
0
0
0
0
0
0
0
0
0
0
0
0
0
0
0
0
0
0
0
0
0
0
0
0
0
0
0
0
0
0
0
0
0
0
0
0
0
0
0
0
0
0
0
0
0
0
0
0
0
0
0
0
0
0
0
0
0
0
0
0
0
0
0
0
0
0
0
0
0
0
0
0
0
0
0
0
0
0
0
0
0
0
0
0
0
0
0
0
0
0
0
0
0
0
0
0
0
0
0
0
0
0
0
0
0
0
0
0
0
0
0
0
0
0
0
0
0
0
0
0
0
0
0
0
0
0
0
0
0
0
0
0
0
0
0
0
0
0
0
0
0
0
0
0
0
0
0
0
0
0
0
0
0
0
0
0
0
0
0
0
0
0
0
0
0
0
0
0
0
0
0
0
0
0
0
0
0
0
0
0
0
0
0
0
0
0
0
0
0
0
0
0
0
0
0
0
0
0
0
0
0
0
0
0
0
0
0
0
0
0
0
0
0
0
0
0
0
0
0
0
0
0
0
0
0
0
0
0
0
0
0
0
0
0
0
0
0
0
0
0
0
0
0
0
0
0
0
0
0
0
0
0
0
0
0
0
0
0
0
0
0
0
0
0
0
0
0
0
0
0
0
0
0
0
0
0
0
0
0
0
0
0
0
0
0
0
0
0
0
0
0
0
0
0
0
0
0
0
0
0
0
0
0
0
0
0
0
0
0
0
0
0
0
0
0
0
0
0
0
0
0
0
0
0
0
0
0
0
0
0
0
0
0
0
0
0
0
0
0
0
0
0
0
0
0
0
0
0
0
0
0
0
0
0
0
0
0
0
0
0
0
0
0
0
0
0
0
0
0
0
0
0
0
0
0
0
0
0
0
0
0
0
0
0
0
0
0
0
0
0
0
0
0
0
0
0
0
0
0
0
0
0
0
0
0
0
0
0
0
0
0
0
0
0
0
0
0
0
0
0
0
0
0
0
0
0
0
0
0
0
0
0
0
0
0
0
0
0
0
0
0
0
0
0
0
0
0
0
0
0
0
0
0
0
0
0
0
0
0
0
0
0
0
0
0
0
0
0
0
0
0
0
0
0
0
0
0
0
0
0
0
0
0
0
0
0
0
0
0
0
0
0
0
0
0
0
0
0
0
0
0
0
0
0
0
0
0
0
0
0
0
0
0
0
0
0
0
0
0
0
0
0
0
0
0
0
0
0
0
0
0
0
0
0
0
0
0
0
0
0
0
0
0
0
0
0
0
0
0
0
0
0
0
0
0
0
0
0
0
0
0
0
0
0
0
0
0
0
0
0
0
0
0
0
0
0
0
0
0
0
0
0
0
0
0
0
0
0
0
0
0
0
0
0
0
0
0
0
0
0
0
0
0
0
0
0
0
0
0
0
0
0
0
0
0
0
0
0
0
0
0
0
0
0
0
0
0
0
0
0
0
0
0
0
0
0
0
0
0
0
0
0
0
0
0
0
0
0
0
0
0
0
0
0
0
0
0
0
0
0
0
0
0
0
0
0
0
0
0
0
0
0
0
0
0
0
0
0
0
0
0
0
0
0
0
0
0
0
0
0
0
0
0
0
0
0
0
0
0
0
0
0
0
0
0
0
0
0
0
0
0
0
0
0
0
0
0
0
0
0
0
0
0
0
0
0
0
0
0
0
0
0
0
0
0
0
0
0
0
0
0
0
0
0
0
0
0
0
0
0
0
0
0
0
0
0
0
0
0
0
0
0
0
0
0
0
0
0
0
0
0
0
0
0
0
0
0
0
0
0
0
0
0
0
0
0
0
0
0
0
0
0
0
0
0
0
0
0
0
0
0
0
0
0
0
0
0
0
0
0
0
0
0
0
0
0
0
0
0
0
0
0
0
0
0
0
0
0
0
0
0
0
0
0
0
0
0
0
0
0
0
0
0
0
0
0
0
0
0
0
0
0
0
0
0
0
0
0
0
0
0
0
0
0
0
0
0
0
0
0
0
0
0
0
0
0
0
0
0
0
0
0
0
0
0
0
0
0
0
0
0
0
0
0
0
0
0
0
0
0
0
0
0
0
0
0
0
0
0
0
0
0
0
0
0
0
0
0
0
0
0
0
0
0
0
0
0
0
0
0
0
0
0
0
0
0
0
0
0
0
0
0
0
0
0
0
0
0
0
0
0
0
0
0
0
0
0
0
0
0
0
0
0
0
0
0
0
0
0
0
0
0
0
0
0
0
0
0
0
0
0
0
0
0
0
0
0
0
0
0
0
0
0
0
0
0
0
0
0
0
0
0
0
0
0
0
0
0
0
0
0
0
0
0
0
0
0
0
0
0
0
0
0
0
0
0
0
0
0
0
0
0
0
0
0
0
0
0
0
0
0
0
0
0
0
0
0
0
0
0
0
0
0
0
0
0
0
0
0
0
0
0
0
0
0
0
0
0
0
0
0
0
0
0
0
0
0
0
0
0
0
0
0
0
0
0
0
0
0
0
0
0
0
0
0
0
0
0
0
0
0
0
0
0
0
0
0
0
0
0
0
0
0
0
0
0
0
0
0
0
0
0
0
0
0
0
0
0
0
0
0
0
0
0
0
0
0
0
0
0
0
0
0
0
0
0
0
0
0
0
0
0
0
0
0
0
0
0
0
0
0
0
0
0
0
0
0
0
0
0
0
0
0
0
0
0
0
0
0
0
0
0
0
0
0
0
0
0
0
0
0
0
0
0
0
0
0
0
0
0
0
0
0
0
0
0
0
0
0
0
0
0
0
0
0
0
0
0
0
0
0
0
0
0
0
0
0
0
0
0
0
0
0
0
0
0
0
0
0
0
0
0
0
0
0
0
0
0
0
0
0
0
0
0
0
0
0
0
0
0
0
0
0
0
0
0
0
0
0
0
0
0
0
0
0
0
0
0
0
0
0
0
0
0
0
0
0
0
0
0
0
0
0
0
0
0
0
0
0
0
0
0
0
0
0
0
0
0
0
0
0
0
0
0
0
0
0
0
0
0
0
0
0
0
0
0
0
0
0
0
0
0
0
0
0
0
0
0
0
0
0
0
0
0
0
0
0
0
0
0
0
0
0
0
0
0
0
0
0
0
0
0
0
0
0
0
0
0
0
0
0
0
0
0
0
0
0
0
0
0
0
0
0
0
0
0
0
0
0
0
0
0
0
0
0
0
0
0
0
0
0
0
0
0
0
0
0
0
0
0
0
0
0
0
0
0
0
0
0
0
0
0
0
0
0
0
0
0
0
0
0
0
0
0
0
0
0
0
0
0
0
0
0
0
0
0
0
0
0
0
0
0
0
0
0
0
0
0
0
0
0
0
0
0
0
0
0
0
0
0
0
0
0
0
0
0
0
0
0
0
0
0
0
0
0
0
0
0
0
0
0
0
0
0
0
0
0
0
0
0
0
0
0
0
0
0
0
0
0
0
0
0
0
0
0
0
0
0
0
0
0
0
0
0
0
0
0
0
0
0
0
0
0
0
0
0
0
0
0
0
0
0
0
0
0
0
0
0
0
0
0
0
0
0
0
0
0
0
0
0
0
0
0
0
0
0
0
0
0
0
0
0
0
0
0
0
0
0
0
0
0
0
0
0
0
0
0
0
0
0
0
0
0
0
0
0
0
0
0
0
0
0
0
0
0
0
0
0
0
0
0
0
0
0
0
0
0
0
0
0
0
0
0
0
0
0
0
0
0
0
0
0
0
0
0
0
0
0
0
0
0
0
0
0
0
0
0
0
0
0
0
0
0
0
0
0
0
0
0
0
0
0
0
0
0
0
0
0
0
0
0
0
0
0
0
0
0
0
0
0
0
0
0
0
0
0
0
0
0
0
0
0
0
0
0
0
0
0
0
0
0
0
0
0
0
0
0
0
0
0
0
0
0
0
0
0
0
0
0
0
0
0
0
0
0
0
0
0
0
0
0
0
0
0
0
0
0
0
0
0
0
0
0
0
0
0
0
0
0
0
0
0
0
0
0
0
0
0
0
0
0
0
0
0
0
0
0
0
0
0
0
0
0
0
0
0
0
0
0
0
0
0
0
0
0
0
0
0
0
0
0
0
0
0
0
0
0
0
0
0
0
0
0
0
0
0
0
0
0
0
0
0
0
0
0
0
0
0
0
0
0
0
0
0
0
0
0
0
0
0
0
0
0
0
0
0
0
0
0
0
0
0
0
0
0
0
0
0
0
0
0
0
0
0
0
0
0
0
0
0
0
0
0
0
0
0
0
0
0
0
0
0
0
0
0
0
0
0
0
0
0
0
0
0
0
0
0
0
0
0
0
0
0
0
0
0
0
0
0
0
0
0
0
0
0
0
0
0
0
0
0
0
0
0
0
0
0
0
0
0
0
0
0
0
0
0
0
0
0
0
0
0
0
0
0
0
0
0
0
0
0
0
0
0
0
0
0
0
0
0
0
0
0
0
0
0
0
0
0
0
0
0
0
0
0
0
0
0
0
0
0
0
0
0
0
0
0
0
0
0
0
0
0
0
0
0
0
0
0
0
0
0
0
0
0
0
0
0
0
0
0
0
0
0
0
0
0
0
0
0
0
0
0
0
0
0
0
0
0
0
0
0
0
0
0
0
0
0
0
0
0
0
0
0
0
0
0
0
0
0
0
0
0
0
0
0
0
0
0
0
0
0
0
0
0
0
0
0
0
0
0
0
0
0
0
0
0
0
0
0
0
0
0
0
0
0
0
0
0
0
0
0
0
0
0
0
0
0
0
0
0
0
0
0
0
0
0
0
0
0
0
0
0
0
0
0
0
0
0
0
0
0
0
0
0
0
0
0
0
0
0
0
0
0
0
0
0
0
0
0
0
0
0
0
0
0
0
0
0
0
0
0
0
0
0
0
0
0
0
0
0
0
0
0
0
0
0
0
0
0
0
0
0
0
0
0
0
0
0
0
0
0
0
0
0
0
0
0
0
0
0
0
0
0
0
0
0
0
0
0
0
0
0
0
0
0
0
0
0
0
0
0
0
0
0
0
0
0
0
0
0
0
0
0
0
0
0
0
0
0
0
0
0
0
0
0
0
0
0
0
0
0
0
0
0
0
0
0
0
0
0
0
0
0
0
0
0
0
0
0
0
0
0
0
0
0
0
0
0
0
0
0
0
0
0
0
0
0
0
0
0
0
0
0
0
0
0
0
0
0
0
0
0
0
0
0
0
0
0
0
0
0
0
0
0
0
0
0
0
0
0
0
0
0
0
0
0
0
0
0
0
0
0
0
0
0
0
0
0
0
0
0
0
0
0
0
0
0
0
0
0
0
0
0
0
0
0
0
0
0
0
0
0
0
0
0
0
0
0
0
0
0
0
0
0
0
0
0
0
0
0
0
0
0
0
0
0
0
0
0
0
0
0
0
0
0
0
0
0
0
0
0
0
0
0
0
0
0
0
0
0
0
0
0
0
0
0
0
0
0
0
0
0
0
0
0
0
0
0
0
0
0
0
0
0
0
0
0
0
0
0
0
0
0
0
0
0
0
0
0
0
0
0
0
0
0
0
0
0
0
0
0
0
0
0
0
0
0
0
0
0
0
0
0
0
0
0
0
0
0
0
0
0
0
0
0
0
0
0
0
0
0
0
0
0
0
0
0
0
0
0
0
0
0
0
0
0
0
0
0
