1.98472
2.08931
2.20184
2.3217
2.44718
2.576
2.70594
2.8354
2.96383
3.09178
3.22092
3.35491
3.50179
3.67195
3.85758
4.0288
4.14923
4.18899
4.13426
3.99062
3.77974
3.53077
3.26981
3.01166
2.75927
2.51277
2.27279
2.04139
1.82159
1.61665
1.42965
1.2631
1.11854
0.996354
0.895727
0.814776
0.750726
0.700262
0.659873
0.626204
0.59638
0.568304
0.540871
0.514064
0.488899
0.467178
0.450913
0.44171
0.441314
0.449614
0.463063
0.476757
0.485896
0.487242
0.480058
0.466219
0.449547
0.4347
0.425648
0.424183
0.431104
0.446755
0.47084
0.501869
0.537113
0.573251
0.606851
0.634674
0.654359
0.664909
0.666855
0.662226
0.65424
0.646707
0.643241
0.64646
0.657396
0.674937
0.696746
0.720239
0.74277
0.762179
0.777148
0.787313
0.793179
0.795904
0.797091
0.798436
0.801578
0.807926
0.818451
0.833501
0.852711
0.87496
0.898337
0.920537
0.939218
0.95235
0.958466
0.956808
0.947389
0.931004
0.909298
0.884185
0.858929
0.837525
0.823811
0.820723
0.829694
0.850382
0.880844
0.918086
0.958789
0.999956
1.03964
1.07672
1.11092
1.14252
1.1721
1.20009
1.22618
1.24925
1.2674
1.27851
1.28114
1.27535
1.26317
1.24833
1.23562
1.2298
1.23343
1.24721
1.27222
1.30813
1.35253
1.40033
1.44395
1.47561
1.48916
1.48153
1.45364
1.41047
1.36001
1.31144
1.27291
1.24847
1.23692
1.23566
1.24273
1.25545
1.27102
1.28705
1.30182
1.31439
1.32453
1.33245
1.33857
1.34332
1.34706
1.35008
1.35271
1.35548
1.35914
1.36469
1.37321
1.3856
1.40248
1.42394
1.44812
1.47108
1.4881
1.49488
1.48871
1.46925
1.43862
1.40083
1.36093
1.32387
1.29302
1.2703
1.25686
1.25323
1.25987
1.27642
1.29914
1.32275
1.34239
1.35511
1.36077
1.36212
1.36382
1.37089
1.38717
1.41281
1.44599
1.48485
1.52722
1.5702
1.60993
1.643
1.66724
1.68235
1.69021
1.69466
1.70045
1.71231
1.73444
1.76292
1.78822
1.79848
1.78392
1.7404
1.67079
1.58368
1.49048
1.40174
1.32218
1.25178
1.18942
1.13404
1.08419
1.03839
0.99554
0.955112
0.91713
0.881972
0.850087
0.82165
0.79642
0.773531
0.751416
0.727808
0.69975
0.66414
0.618213
0.560163
0.489725
0.408524
0.308253
0
0.118953
1.12702
3.28541
6.4109
9.80371
12.4544
13.4651
12.4601
9.75245
6.17401
2.68429
-0.00521191
-1.60525
-2.19594
-2.05265
-1.49662
-0.830775
-0.222943
0.214406
0.450348
0.613785
0.753391
0.871185
0.964122
1.03167
1.07618
1.10265
1.11796
1.12959
1.1442
1.16639
1.19704
1.23506
1.27863
1.32523
1.37127
1.41296
1.44725
1.4724
1.48827
1.49635
1.49941
1.50096
1.50461
1.51333
1.52882
1.55219
1.58415
1.625
1.67474
1.73322
1.80025
1.87559
1.95894
2.04997
2.1483
2.25353
2.36534
2.48341
2.60733
2.73643
2.86958
3.00514
3.14094
3.27446
3.40274
3.52143
3.6232
3.70054
3.74681
3.75515
3.71978
3.63772
3.50986
3.34117
3.1397
2.9149
2.6782
2.43756
2.19755
1.96182
1.73373
1.51662
1.31402
1.12998
0.96813
0.832423
0.732074
0.674601
0.652158
0.650671
0.654364
0.649937
0.629782
0.593098
0.544739
0.492391
0.443181
0.399893
0.361436
0.325466
0.288509
0.247212
0.199646
0.146185
0.0896285
0.0345647
-0.0137842
-0.0508035
-0.0735157
-0.0807439
-0.0730866
-0.0525212
-0.0221298
0.0140459
0.0527179
0.0908718
0.125793
0.155313
0.17799
0.193176
0.200907
0.201675
0.196135
0.184998
0.168765
0.147748
0.122406
0.0935978
0.0626512
0.0320172
0.00508022
-0.0145499
-0.0237782
-0.0207487
-0.00531569
0.0209006
0.0548851
0.0928899
0.131142
0.16667
0.197325
0.221228
0.236291
0.239634
0.229298
0.20376
0.162735
0.104132
0.0323389
-0.0374187
-0.0875985
-0.104587
-0.084192
-0.0336142
0.0312174
0.091692
0.133103
0.154964
0.157409
0.144618
0.122954
0.0990694
0.0777838
0.0615263
0.0514578
0.0476868
0.0492435
0.0543739
0.0607307
0.0655622
0.0664511
0.0618603
0.0514559
0.0361668
0.0179329
-0.000808144
-0.0177406
-0.0311743
-0.0404009
-0.0453367
-0.0462955
-0.043746
-0.0382294
-0.0305265
-0.0218714
-0.0148605
-0.0131754
-0.0207136
-0.0402712
-0.0722052
-0.113629
-0.158553
-0.199018
-0.226862
-0.236234
-0.226195
-0.196591
-0.147542
-0.0776953
0.015756
0.125818
0.229326
0.296365
0.29698
0.215664
0.063813
-0.120578
-0.288044
-0.39841
-0.446642
-0.461036
-0.453164
-0.424648
-0.377467
-0.311955
-0.225508
-0.127239
-0.0339567
0.036729
0.0722635
0.0697372
0.0366083
-0.0128399
-0.0633089
-0.103432
-0.131396
-0.149447
-0.157463
-0.155052
-0.141787
-0.117442
-0.0824684
-0.0384401
0.0125753
0.066243
0.117935
0.164189
0.203824
0.238327
0.271287
0.30698
0.350965
0.403816
0.456623
0.495998
0.510339
0.49539
0.45611
0.404095
0.352292
0.309995
0.277622
0.25183
0.230618
0.212356
0.195537
0.178979
0.16186
0.143685
0.124261
0.103641
0.0821581
0.0604229
0.039184
0.0190317
0
-0.0233025
-0.0513876
-0.0922403
-0.15545
-0.249123
-0.376457
-0.533393
-0.714889
-1.22665
-1.26138
-0.408303
1.57876
4.57068
7.94623
10.7029
11.8293
10.7785
7.77213
3.72581
-0.176931
-3.00919
-4.4241
-4.63109
-4.11647
-3.33566
-2.54917
-1.84234
-1.23041
-0.800376
-0.637282
-0.505188
-0.383287
-0.269199
-0.161748
-0.0601017
0.03605
0.126439
0.210046
0.284997
0.348421
0.39693
0.428853
0.443677
0.442477
0.428308
0.406301
0.383296
0.366946
0.36445
0.381216
0.417257
0.471495
0.54623
0.638818
0.732973
0.810321
0.856687
0.86752
0.850969
0.826547
0.819109
0.850346
0.931482
1.04608
1.17912
1.323
1.47169
1.62
1.76424
1.90256
2.03482
2.16187
2.28457
2.404
2.51907
2.62427
2.7103
2.76621
2.78149
2.74755
2.65877
2.51377
2.3167
2.07857
1.81442
1.54103
1.27263
1.01486
0.767588
0.531704
0.307862
0.0966724
-0.100846
-0.283138
-0.448354
-0.594628
-0.71935
-0.820592
-0.902293
-0.971704
-1.03753
-1.10822
-1.19024
-1.28694
-1.39801
-1.51958
-1.64484
-1.76558
-1.87401
-1.95852
-1.96995
-1.82397
-1.5763
-1.33032
-1.19003
-1.20997
-1.37014
-1.58996
-1.77289
-1.85686
-1.85876
-1.83689
-1.80895
-1.78069
-1.75552
-1.73439
-1.71624
-1.6989
-1.68005
-1.65807
-1.63225
-1.60227
-1.56828
-1.53094
-1.49135
-1.45115
-1.41264
-1.37838
-1.35081
-1.33174
-1.32199
-1.32116
-1.32777
-1.33959
-1.35402
-1.36853
-1.38103
-1.38982
-1.39344
-1.39066
-1.38055
-1.3626
-1.33666
-1.30293
-1.2643
-1.22572
-1.19267
-1.16985
-1.15982
-1.16222
-1.17372
-1.18865
-1.20028
-1.20269
-1.19258
-1.16894
-1.13212
-1.08343
-1.02672
-0.967974
-0.914276
-0.872279
-0.846805
-0.840065
-0.851091
-0.875555
-0.906109
-0.933342
-0.947305
-0.939341
-0.905174
-0.846358
-0.766822
-0.668304
-0.55407
-0.431245
-0.313658
-0.216245
-0.151489
-0.127236
-0.144175
-0.19408
-0.260225
-0.320805
-0.354859
-0.350951
-0.316245
-0.261982
-0.194267
-0.120264
-0.0464493
0.022802
0.085873
0.143668
0.198607
0.253272
0.309177
0.365964
0.421918
0.474165
0.518946
0.552899
0.573666
0.580359
0.573846
0.556801
0.5335
0.509361
0.490234
0.481518
0.486325
0.505684
0.539504
0.585953
0.641515
0.701857
0.762635
0.820205
0.872064
0.916946
0.954614
0.985483
1.01025
1.02971
1.04447
1.05511
1.06252
1.06814
1.07412
1.08349
1.10003
1.12914
1.1916
1.34719
1.61431
1.91651
2.15441
2.25448
2.2001
2.0292
1.80721
1.59797
1.44923
1.36002
1.30366
1.2655
1.23892
1.2201
1.20619
1.1946
1.18318
1.17049
1.1559
1.13956
1.12223
1.10502
1.08898
1.07464
1.0617
1.04759
1.02589
0.987843
0.924611
0.830257
0.704418
0.505015
0
0.136637
1.36255
3.78821
7.04794
10.3593
12.7743
13.5315
12.3522
9.54765
5.88319
2.27068
-0.557273
-2.2462
-2.82777
-2.58115
-1.86402
-0.977711
-0.130973
0.550049
0.939136
1.01857
1.06366
1.08688
1.08797
1.06991
1.03882
1.00332
0.973277
0.957607
0.964563
1.0171
1.13725
1.3111
1.49214
1.63552
1.71005
1.7008
1.60829
1.45092
1.27005
1.12826
1.08872
1.15646
1.28405
1.44434
1.60124
1.72181
1.78777
1.80123
1.78241
1.76108
1.76541
1.80946
1.88187
1.97235
2.07452
2.18271
2.29138
2.39645
2.49605
2.59072
2.68307
2.7772
2.88108
3.00604
3.14534
3.27353
3.35961
3.38112
3.33439
3.23631
3.11602
3.00006
2.89806
2.79727
2.68706
2.56005
2.40998
2.23431
2.03446
1.81498
1.58218
1.34331
1.10424
0.869661
0.644133
0.432287
0.240487
0.0889961
0.0412849
0.153828
0.358095
0.548831
0.629644
0.552109
0.33235
0.0419079
-0.218956
-0.355552
-0.364298
-0.316585
-0.240628
-0.145358
-0.0415855
0.057513
0.140501
0.19944
0.230848
0.235641
0.21815
0.184626
0.141781
0.0959484
0.0519569
0.0130863
-0.0171051
-0.0358822
-0.0413876
-0.0328682
-0.00812836
0.0281246
0.0671257
0.0993668
0.11728
0.11728
0.100391
0.07141
0.0372036
0.0049366
-0.020694
-0.0376213
-0.0438076
-0.0386044
-0.0207848
0.00728416
0.0393059
0.0680233
0.0871281
0.0929932
0.0855858
0.0682281
0.0463551
0.025795
0.0105595
0.00183563
-0.000343704
0.003479
0.011871
0.0227951
0.0341473
0.0442001
0.0519501
0.0573212
0.0612007
0.0652943
0.0718224
0.0830914
0.100943
0.126696
0.161172
0.203444
0.248095
0.28578
0.306575
0.302633
0.270558
0.212663
0.136649
0.0538532
-0.0232784
-0.0845917
-0.127312
-0.149399
-0.149358
-0.127883
-0.0878124
-0.0338364
0.0282227
0.0911411
0.148083
0.193693
0.224915
0.241328
0.2449
0.239273
0.228796
0.217567
0.208562
0.203213
0.201645
0.203204
0.206482
0.209344
0.209187
0.203809
0.192141
0.174882
0.154843
0.136779
0.126683
0.130671
0.153724
0.197255
0.261345
0.346997
0.45221
0.564885
0.668981
0.74986
0.797349
0.807666
0.783791
0.734324
0.671302
0.607566
0.553004
0.511472
0.483393
0.467809
0.463497
0.467941
0.478309
0.492169
0.507938
0.524974
0.543291
0.563063
0.584113
0.605576
0.626054
0.64374
0.656727
0.663343
0.662431
0.653512
0.636846
0.613409
0.584848
0.55337
0.521683
0.492873
0.470531
0.45826
0.45916
0.475471
0.508123
0.557368
0.622063
0.69748
0.77632
0.849725
0.908343
0.944659
0.953563
0.932898
0.883761
0.810461
0.719938
0.62057
0.520567
0.426225
0.340022
0.261947
0.191998
0.130495
0.0778229
0.0345745
0.00144997
-0.020631
-0.0300812
-0.0265591
-0.0151157
-0.0033947
0
-0.00896263
-0.0398163
-0.0954494
-0.175976
-0.279203
-0.402158
-0.539188
-0.6838
-0.923524
-0.672675
0.485217
2.73429
5.84441
9.14838
11.73
12.7693
11.8952
9.3577
5.91855
2.50985
-0.1439
-1.74143
-2.3782
-2.34991
-1.93846
-1.40636
-0.823529
-0.273451
0.0889687
0.259092
0.358125
0.379139
0.337344
0.268443
0.216764
0.216812
0.273461
0.35578
0.444336
0.524999
0.588485
0.632672
0.662198
0.685749
0.71229
0.747568
0.790422
0.838523
0.889123
0.938359
0.982529
1.01895
1.04657
1.06621
1.08053
1.0937
1.11084
1.1374
1.1777
1.23481
1.31086
1.40663
1.52103
1.65103
1.7923
1.939
2.0828
2.21536
2.33051
2.42551
2.50173
2.56436
2.62124
2.68098
2.75438
2.85244
2.96592
3.07492
3.15738
3.19718
3.18745
3.12833
3.02217
2.8708
2.6805
2.46833
2.24689
2.02576
1.81449
1.62127
1.45034
1.30307
1.17723
1.06786
0.968761
0.874079
0.779639
0.683673
0.586946
0.492336
0.403516
0.324305
0.258295
0.208427
0.177377
0.164661
0.166732
0.178453
0.194054
0.208162
0.216689
0.217409
0.210159
0.196644
0.179993
0.163721
0.151041
0.14412
0.143445
0.148006
0.155609
0.163423
0.168723
0.16957
0.165295
0.156677
0.145808
0.135711
0.129639
0.130383
0.13989
0.158959
0.187305
0.223928
0.266299
0.311385
0.356433
0.399492
0.439597
0.476565
0.510464
0.540561
0.565253
0.582236
0.589212
0.585362
0.572651
0.556264
0.543818
0.54346
0.562983
0.612778
0.685172
0.76267
0.825301
0.857885
0.854955
0.821696
0.771211
0.719784
0.682045
0.662573
0.65946
0.67008
0.691909
0.722313
0.757512
0.793177
0.824993
0.849052
0.862164
0.86212
0.847909
0.819917
0.780085
0.732013
0.680667
0.631827
0.591489
0.56535
0.563647
0.595832
0.651764
0.713565
0.762457
0.785735
0.781375
0.758411
0.733138
0.722804
0.739275
0.788816
0.862853
0.935703
0.97768
0.965652
0.891823
0.767913
0.623085
0.495617
0.42053
0.401408
0.428386
0.503739
0.607265
0.713944
0.800835
0.852328
0.862522
0.834743
0.779141
0.709485
0.639971
0.580911
0.536563
0.507264
0.491478
0.487161
0.492401
0.504871
0.522072
0.54166
0.561682
0.580752
0.598166
0.613915
0.628601
0.643241
0.658958
0.676603
0.696539
0.718119
0.738862
0.754979
0.762457
0.75825
0.741288
0.712921
0.676653
0.63726
0.599621
0.567197
0.541318
0.522561
0.511214
0.507117
0.510085
0.520153
0.537616
0.562788
0.595987
0.638112
0.687369
0.737781
0.782348
0.815264
0.833978
0.840091
0.838644
0.836085
0.837785
0.84554
0.85732
0.870656
0.881662
0.885999
0.880024
0.861657
0.830918
0.790029
0.743013
0.694879
0.650528
0.61346
0.584214
0.561658
0.543918
0.527325
0.506618
0.4768
0.434518
0.379144
0.313203
0.241919
0.171879
0.110183
0.062714
0.0282467
0
-0.0314285
-0.0769106
-0.143686
-0.23422
-0.345878
-0.503005
-0.704611
-0.41268
0.861947
3.3673
6.81215
10.3311
12.7876
13.283
11.5797
8.19539
4.13525
0.442368
-2.17334
-3.47065
-3.59836
-2.9264
-1.89444
-0.89761
-0.200683
0.114861
0.154206
0.201874
0.252383
0.306163
0.364031
0.426298
0.492669
0.562309
0.633354
0.702145
0.764273
0.815939
0.855322
0.883637
0.905373
0.927385
0.956969
0.999468
1.06099
1.13531
1.209
1.26772
1.3027
1.31488
1.3149
1.319
1.34265
1.39498
1.46835
1.55407
1.64674
1.74136
1.83359
1.92077
2.00231
2.07974
2.15617
2.23555
2.32168
2.41733
2.52335
2.63871
2.76091
2.88616
3.00966
3.12625
3.23091
3.31872
3.38529
3.42783
3.44424
3.43287
3.39238
3.32176
3.22047
3.08875
2.92796
2.74115
2.53394
2.31241
2.08275
1.85154
1.62557
1.41126
1.21408
1.03801
0.885593
0.759152
0.659152
0.579698
0.513479
0.453542
0.394953
0.335859
0.277571
0.223702
0.178681
0.146247
0.126319
0.118864
0.12278
0.135983
0.155978
0.180334
0.204955
0.225731
0.239755
0.246317
0.247502
0.247831
0.252802
0.266731
0.292463
0.325742
0.3579
0.37902
0.381623
0.363298
0.327286
0.281107
0.234068
0.194535
0.165696
0.147707
0.140449
0.143179
0.154473
0.171628
0.191611
0.211572
0.229284
0.24342
0.253592
0.260173
0.263958
0.265802
0.266328
0.265696
0.263631
0.259607
0.253115
0.243958
0.23251
0.219851
0.207679
0.198022
0.192782
0.193278
0.200155
0.212513
0.227518
0.241271
0.249778
0.249819
0.239556
0.21875
0.188588
0.151283
0.109625
0.0667027
0.0253292
-0.0117228
-0.0419497
-0.06332
-0.0745825
-0.0755346
-0.0671228
-0.0513111
-0.0307384
-0.00829487
0.0132549
0.0314045
0.0438974
0.0493889
0.0473862
0.0384047
0.0240059
0.00655918
-0.0113201
-0.0275274
-0.0411554
-0.0528404
-0.0645269
-0.0788506
-0.0982344
-0.123993
-0.155685
-0.190891
-0.225462
-0.254569
-0.273804
-0.279292
-0.265945
-0.232799
-0.182054
-0.117629
-0.042568
0.0406141
0.124044
0.191798
0.218112
0.173333
0.0411522
-0.164283
-0.394876
-0.583911
-0.673214
-0.666097
-0.563687
-0.363466
-0.131427
0.0666739
0.183462
0.198667
0.121558
-0.0116817
-0.147776
-0.234908
-0.245199
-0.209305
-0.157116
-0.100791
-0.0484972
-0.00540218
0.0267353
0.048917
0.0636337
0.0736187
0.0814213
0.0888107
0.0975727
0.110118
0.129771
0.160667
0.210586
0.30721
0.486747
0.711745
0.917445
1.03874
1.03933
0.927728
0.751382
0.572359
0.438351
0.360035
0.30786
0.267337
0.234034
0.206348
0.183297
0.164312
0.149069
0.136749
0.126087
0.115411
0.102855
0.0865892
0.0649685
0.036549
0
-0.0411768
-0.0925402
-0.154752
-0.228303
-0.313732
-0.410769
-0.516874
-0.634353
-0.752829
-0.47088
0.567519
2.60703
5.55695
8.86223
11.6102
12.8787
12.1662
9.64949
6.10344
2.52852
-0.281595
-1.98624
-2.66613
-2.61271
-2.12283
-1.42765
-0.670175
0.0212048
0.474675
0.611625
0.696212
0.767263
0.829144
0.885814
0.941376
0.999235
1.06134
1.12772
1.19692
1.26629
1.33242
1.39189
1.44194
1.4809
1.50835
1.52511
1.53313
1.53526
1.53523
1.53751
1.54816
1.5731
1.61753
1.68474
1.77515
1.88581
2.01087
2.14283
2.27435
2.40025
2.51868
2.62965
2.73513
2.8383
2.94272
3.05147
3.16689
3.29059
3.42344
3.56557
3.71632
3.87426
4.03728
4.2022
4.36345
4.51319
4.64334
4.7462
4.81503
4.84437
4.82993
4.76859
4.65862
4.50064
4.2992
4.06552
3.81361
3.55761
3.3106
3.08715
2.9068
2.76941
2.66462
2.57678
2.49156
2.40117
2.30627
2.21407
2.13414
2.07301
2.02718
1.99404
1.97165
1.95694
1.94631
1.93598
1.92244
1.90295
1.87586
1.84083
1.7989
1.75236
1.70452
1.65925
1.62048
1.59173
1.57742
1.58844
1.65944
1.84462
2.09972
2.34469
2.48748
2.46249
2.26328
1.95113
1.63449
1.42764
1.3924
1.42864
1.48925
1.56371
1.64215
1.71701
1.78493
1.84502
1.8973
1.94157
1.97679
2.00161
2.01358
2.01018
1.99036
1.95576
1.91117
1.86401
1.82289
1.79521
1.78351
1.79024
1.81791
1.86025
1.90704
1.94786
1.97492
1.98489
1.97915
1.96265
1.94184
1.92266
1.90838
1.89997
1.89795
1.90282
1.91476
1.93372
1.95947
1.99155
2.02775
2.06262
2.08943
2.10211
2.09743
2.0766
2.04573
2.01477
1.99509
1.99662
2.0214
2.07592
2.1608
2.26461
2.36869
2.45498
2.5098
2.52609
2.50425
2.45197
2.38302
2.31487
2.26493
2.24354
2.25013
2.28685
2.34603
2.41121
2.46485
2.49359
2.49184
2.46284
2.41687
2.36758
2.3279
2.30443
2.2966
2.30209
2.31882
2.34478
2.37758
2.41372
2.44743
2.47211
2.48176
2.47227
2.44248
2.39467
2.33413
2.26812
2.20443
2.14939
2.1059
2.07658
2.06521
2.08254
2.14903
2.25707
2.37248
2.4524
2.46272
2.39449
2.26891
2.12701
2.00976
1.94008
1.89988
1.87279
1.85469
1.84262
1.83525
1.83294
1.83694
1.84841
1.86719
1.89191
1.91965
1.94638
1.96761
1.97911
1.97756
1.96106
1.92944
1.88451
1.82837
1.76722
1.71112
1.67028
1.6529
1.66346
1.70222
1.76607
1.85034
1.95064
2.06255
2.1861
2.32255
2.46163
2.58248
2.66023
2.67586
2.62514
2.52135
2.3902
2.25948
2.14884
2.05781
1.97867
1.90732
1.84231
1.78306
1.72977
1.68341
1.64546
1.6174
1.6004
1.59525
1.60204
1.61856
1.63924
1.65666
1.66282
1.65015
1.61247
1.54551
1.4471
1.2663
0.925189
0.468772
-0.0448394
-0.347922
0
1.30801
3.68835
6.93001
10.4554
13.4196
14.9623
14.5424
12.1908
8.53205
4.5373
1.13505
-1.10954
-2.09337
-2.05745
-1.379
-0.419909
0.527368
1.24536
1.60524
1.59705
1.58372
1.57135
1.56064
1.55186
1.54496
1.54004
1.53803
1.54097
1.55181
1.57366
1.60875
1.65692
1.71539
1.78093
1.84945
1.91662
1.9787
2.03319
2.07919
2.1174
2.14975
2.17892
2.20775
2.23883
2.27417
2.31531
2.36337
2.41921
2.48352
2.55684
2.63947
2.73129
2.83159
2.93903
3.05175
3.16759
3.28446
3.40065
3.51499
3.62699
3.73672
3.84472
3.95177
4.05879
4.16664
4.27609
4.38739
4.4984
4.60193
4.68608
4.73572
4.73523
4.67182
4.53885
4.33864
4.08392
3.79696
3.50576
3.2338
2.98948
2.77224
2.5849
2.42729
2.29694
2.19012
2.1029
2.03195
1.97492
1.93039
1.89754
1.87556
1.86373
1.86068
1.86456
1.87317
1.88413
1.8951
1.90379
1.90837
1.90778
1.90196
1.89211
1.88067
1.87099
1.86676
1.87113
1.88699
1.91572
1.95414
1.99421
2.02644
2.04221
2.03586
2.00589
1.95537
1.89128
1.82343
1.76287
1.71843
1.70811
1.79326
2.02056
2.31311
2.57018
2.70767
2.68939
2.53441
2.29972
2.05563
1.87182
1.79105
1.78192
1.8399
1.97656
2.14469
2.28124
2.33383
2.28708
2.17399
2.06316
2.02551
2.09682
2.24278
2.41394
2.55017
2.60703
2.57352
2.47338
2.35151
2.2537
2.20887
2.2015
2.21219
2.23192
2.25571
2.27932
2.29939
2.31362
2.32079
2.3207
2.31403
2.30222
2.28737
2.27202
2.2589
2.25046
2.24883
2.25578
2.26954
2.28499
2.29579
2.29627
2.28308
2.25604
2.21802
2.17397
2.1297
2.09021
2.05839
2.03703
2.0281
2.03251
2.04997
2.07889
2.11647
2.15896
2.20211
2.24164
2.27391
2.29594
2.30572
2.30234
2.28609
2.25853
2.22264
2.18275
2.14456
2.11468
2.10387
2.14518
2.25469
2.39653
2.51389
2.55734
2.51117
2.4008
2.27723
2.18938
2.16212
2.16984
2.1914
2.21986
2.25042
2.27874
2.30143
2.31685
2.3251
2.32793
2.32836
2.32998
2.33588
2.34912
2.36855
2.38896
2.4037
2.40773
2.40002
2.38414
2.36663
2.35394
2.34961
2.35164
2.35689
2.36111
2.36065
2.35368
2.34043
2.32268
2.30267
2.2823
2.26275
2.24501
2.23034
2.2205
2.21739
2.22329
2.2408
2.26375
2.28203
2.28591
2.27124
2.24292
2.21451
2.20401
2.23877
2.35498
2.54041
2.74323
2.91215
3.01667
3.04465
2.99165
2.85604
2.6456
2.38822
2.13377
1.9386
1.82409
1.76338
1.73009
1.71666
1.7179
1.72851
1.74333
1.75794
1.76814
1.76988
1.75914
1.7318
1.6838
1.61129
1.51101
1.38069
1.21962
1.03001
0.812271
0.57322
0.313478
0
0.211903
1.27235
3.32471
6.20419
9.39328
12.1116
13.5429
13.1453
10.9073
7.40377
3.58159
0.367957
-1.68321
-2.51502
-2.42821
-1.82003
-0.99535
-0.128029
0.666902
1.24041
1.30648
1.27702
1.18042
1.04703
0.93125
0.888311
0.947812
1.06222
1.19624
1.33489
1.46759
1.58586
1.68439
1.76135
1.81805
1.85799
1.88571
1.90582
1.92213
1.93705
1.95193
1.9675
1.98416
2.00246
2.02335
2.04836
2.07959
2.11949
2.17051
2.23462
2.3128
2.40476
2.50905
2.62432
2.74493
2.86317
2.97287
3.07139
3.16058
3.24625
3.33631
3.43817
3.55665
3.69051
3.83618
3.99199
4.15823
4.33884
4.54256
4.7645
4.9697
5.10441
5.122
5.00461
4.76805
4.45126
4.10018
3.75478
3.43155
3.12701
2.83787
2.5654
2.31293
2.08361
1.88011
1.70447
1.55879
1.44437
1.3585
1.29518
1.24702
1.2064
1.16658
1.12272
1.07242
1.01584
0.955371
0.894843
0.838225
0.788791
0.748957
0.72055
0.703186
0.695499
0.695862
0.703019
0.716379
0.735868
0.761442
0.792528
0.82751
0.86411
0.899726
0.931817
0.958409
0.978459
0.992019
1.00017
1.00478
1.00817
1.01255
1.01965
1.0308
1.04542
1.05967
1.06813
1.06554
1.04879
1.01829
0.978371
0.936346
0.900779
0.879219
0.873954
0.884303
0.912012
0.958837
1.02218
1.08919
1.14382
1.17145
1.16287
1.11713
1.04228
0.953276
0.868043
0.803035
0.762915
0.74423
0.74427
0.764115
0.802622
0.854008
0.909146
0.958665
0.994457
1.01095
1.00591
0.980769
0.940424
0.892533
0.846399
0.810932
0.792624
0.80872
0.866296
0.941766
1.00112
1.0143
0.969291
0.878672
0.7746
0.694153
0.662871
0.67391
0.70542
0.748137
0.797035
0.847872
0.897605
0.944353
0.987046
1.02498
1.05761
1.08414
1.10374
1.11582
1.1204
1.11831
1.11141
1.10255
1.09534
1.09365
1.10091
1.11939
1.15004
1.19289
1.24347
1.29557
1.34258
1.37892
1.40104
1.4079
1.40087
1.38325
1.35959
1.33505
1.31378
1.29916
1.29344
1.29743
1.31058
1.33121
1.35717
1.38637
1.41738
1.44966
1.48343
1.51925
1.55763
1.59835
1.63899
1.67346
1.69408
1.69437
1.67205
1.63125
1.58269
1.54141
1.52275
1.54425
1.6244
1.74352
1.86803
1.96437
2.01039
1.99975
1.93995
1.84744
1.74304
1.64819
1.57533
1.52802
1.50559
1.50452
1.52021
1.54911
1.58695
1.62939
1.67265
1.71405
1.75215
1.78689
1.8195
1.85226
1.88806
1.93045
1.98605
2.06108
2.1418
2.20349
2.21858
2.1682
2.05149
1.88805
1.71188
1.55963
1.45868
1.39573
1.35829
1.34379
1.34775
1.36481
1.38884
1.41396
1.43503
1.44792
1.44953
1.43772
1.41112
1.36901
1.31134
1.23896
1.15181
1.04914
0.928286
0.782141
0.605097
0.405126
0.193098
0
0.215802
1.19473
3.19914
6.18597
9.67657
12.8068
14.6046
14.3989
12.1525
8.51238
4.53132
1.21009
-0.88214
-1.72245
-1.67738
-1.2219
-0.706596
-0.27271
0.0934442
0.449424
0.774595
0.967135
1.08359
1.16842
1.23893
1.3016
1.35868
1.41079
1.45793
1.49958
1.53496
1.56349
1.58517
1.60083
1.61214
1.6215
1.63164
1.64521
1.66429
1.69003
1.72254
1.76104
1.80408
1.84935
1.89428
1.9366
1.97481
2.0084
2.03788
2.06466
2.09088
2.11931
2.15319
2.19612
2.25189
2.32405
2.41536
2.52708
2.65847
2.80596
2.96422
3.12758
3.29001
3.44561
3.58933
3.71715
3.82528
3.90913
3.96346
3.98548
3.97216
3.921
3.83107
3.70399
3.54421
3.35862
3.15541
2.94283
2.72828
2.51632
2.31049
2.1137
1.92816
1.75538
1.5966
1.45223
1.31965
1.19524
1.0755
0.958364
0.844263
0.736492
0.640621
0.563124
0.509271
0.48294
0.487132
0.520438
0.576383
0.641591
0.698629
0.732866
0.734995
0.70278
0.641688
0.563743
0.484245
0.417078
0.370511
0.341077
0.322773
0.312789
0.308828
0.309869
0.316159
0.328533
0.347431
0.371877
0.39969
0.42761
0.451897
0.469144
0.477002
0.474659
0.46301
0.444558
0.42294
0.40211
0.385723
0.376361
0.37534
0.382184
0.393106
0.401742
0.401607
0.388172
0.360568
0.322363
0.281083
0.246516
0.228548
0.247552
0.310146
0.394047
0.466712
0.499828
0.481562
0.420977
0.342873
0.275881
0.239753
0.231202
0.236587
0.249081
0.264362
0.279566
0.293762
0.307667
0.322785
0.340366
0.36048
0.381976
0.402986
0.421291
0.434945
0.442766
0.444586
0.4412
0.434104
0.425137
0.416118
0.408448
0.403065
0.400474
0.400829
0.403549
0.407598
0.412059
0.416517
0.421197
0.426709
0.433533
0.4414
0.44767
0.448276
0.439568
0.420597
0.394629
0.368957
0.352835
0.355701
0.388262
0.443979
0.506447
0.556165
0.577687
0.564469
0.520112
0.456526
0.390366
0.338996
0.311621
0.309131
0.329156
0.371012
0.434801
0.513494
0.592885
0.659094
0.7022
0.71893
0.713428
0.695604
0.677431
0.668447
0.671959
0.684153
0.697764
0.704525
0.698757
0.679796
0.652271
0.62418
0.603626
0.595318
0.597992
0.60847
0.621669
0.632755
0.639162
0.641696
0.644315
0.652679
0.672041
0.705092
0.749261
0.801715
0.85729
0.90867
0.948665
0.971882
0.975796
0.961238
0.932218
0.895118
0.857424
0.826267
0.806467
0.798978
0.802879
0.816962
0.839376
0.867648
0.898882
0.930161
0.959012
0.983697
1.00336
1.01804
1.02849
1.03593
1.04167
1.04686
1.05226
1.05824
1.06492
1.07247
1.08143
1.09304
1.10933
1.13297
1.16686
1.21445
1.28207
1.37266
1.47924
1.58836
1.68403
1.75188
1.78198
1.77047
1.72006
1.63975
1.54308
1.44495
1.35742
1.28613
1.22775
1.17827
1.13661
1.1036
1.08251
1.08817
1.15474
1.27535
1.40907
1.50017
1.50573
1.41656
1.26101
1.09156
0.961151
0.898247
0.869356
0.853577
0.833137
0.794146
0.731933
0.652399
0.123615
0
0.802993
2.8179
5.8987
9.40593
12.367
13.833
13.2776
10.8368
7.25022
3.53296
0.557396
-1.23977
-1.90268
-1.78512
-1.3047
-0.760112
-0.266969
0.162064
0.509766
0.713198
0.854356
0.967314
1.06192
1.13877
1.19916
1.24619
1.28465
1.32072
1.36196
1.42568
1.54748
1.73184
1.93058
2.07998
2.12924
2.06177
1.90335
1.71565
1.57519
1.54038
1.5885
1.67003
1.76312
1.85967
1.9536
2.04137
2.122
2.19645
2.26678
2.33543
2.40481
2.47723
2.55503
2.64059
2.73606
2.8429
2.96144
3.09056
3.22758
3.36957
3.51355
3.65672
3.79673
3.93137
4.05789
4.17247
4.27036
4.34694
4.39719
4.41658
4.40183
4.35125
4.26469
4.14332
3.98957
3.80853
3.60867
3.39738
3.18034
2.96251
2.74826
2.5408
2.3421
2.1531
1.97434
1.80656
1.65121
1.51092
1.38846
1.28645
1.20653
1.14883
1.112
1.09298
1.08783
1.09248
1.10341
1.11802
1.13463
1.15216
1.16972
1.18608
1.19958
1.20833
1.21063
1.20556
1.19335
1.17552
1.15473
1.13429
1.1174
1.10639
1.10291
1.10768
1.12047
1.14003
1.16448
1.19157
1.21893
1.24403
1.26394
1.2762
1.2789
1.27104
1.2529
1.22602
1.19294
1.15651
1.11924
1.08283
1.04827
1.01629
0.987629
0.963164
0.94378
0.930503
0.923539
0.922014
0.924486
0.929479
0.93596
0.943481
0.95189
0.960772
0.968933
0.974256
0.97402
0.965606
0.94726
0.918622
0.880806
0.836039
0.78706
0.736563
0.686741
0.639071
0.594796
0.554975
0.520537
0.49284
0.47232
0.458768
0.451661
0.450354
0.454142
0.462069
0.472956
0.483314
0.487246
0.478166
0.451231
0.405919
0.347457
0.286274
0.235473
0.207229
0.213185
0.270453
0.363236
0.458334
0.521971
0.532542
0.488468
0.408109
0.321361
0.256067
0.225406
0.21472
0.21047
0.202954
0.185388
0.156446
0.120755
0.0871204
0.0651618
0.0616533
0.0747817
0.101434
0.136025
0.171862
0.203026
0.225737
0.238783
0.24301
0.240239
0.232193
0.220157
0.204713
0.186485
0.166873
0.148422
0.134655
0.129365
0.135608
0.153903
0.182786
0.220303
0.262451
0.304223
0.340432
0.366375
0.378315
0.373798
0.351855
0.3132
0.260401
0.198174
0.132759
0.0721144
0.0375056
0.097792
0.270433
0.48887
0.651757
0.67812
0.551922
0.331678
0.122641
0.027322
0.0945874
0.226487
0.373744
0.517345
0.641133
0.735108
0.797263
0.833353
0.854722
0.874837
0.905599
0.952183
1.0134
1.08798
1.17249
1.26062
1.34476
1.41642
1.46741
1.49233
1.4885
1.4564
1.39986
1.32593
1.24396
1.16399
1.09492
1.04167
1.00343
0.979569
0.968664
0.96845
0.976446
0.990172
1.0081
1.02936
1.05373
1.08153
1.11323
1.14918
1.18968
1.23148
1.26342
1.26863
1.22798
1.12509
0.951463
0.70778
0.409103
0.0803733
-0.208831
0
1.00875
3.02949
5.98634
9.38426
12.3653
13.9895
13.6386
11.3253
7.71392
3.8255
0.593751
-1.47294
-2.35867
-2.36697
-1.87402
-1.17271
-0.444661
0.198086
0.681882
0.932483
1.03361
1.10539
1.16321
1.20623
1.23516
1.25243
1.26206
1.26938
1.28036
1.30077
1.33491
1.38464
1.4493
1.52754
1.61456
1.70328
1.78682
1.86018
1.92125
1.97106
2.01312
2.05225
2.09324
2.13934
2.19206
2.25218
2.31973
2.3942
2.47487
2.56104
2.65222
2.74812
2.84848
2.95291
3.06054
3.16994
3.27905
3.38536
3.48647
3.5808
3.66819
3.75027
3.83048
3.91422
4.02129
4.24077
4.63081
5.07158
5.42131
5.57114
5.49009
5.23417
4.91062
4.61708
4.38988
4.18074
3.96584
3.74565
3.52181
3.29603
3.07081
2.8496
2.63689
2.43792
2.25847
2.1038
1.98042
1.90293
1.8882
1.93141
2.00446
2.07564
2.11833
2.11718
2.07004
1.98624
1.88237
1.77707
1.68491
1.61057
1.55268
1.50872
1.47706
1.45762
1.45029
1.45505
1.47409
1.50877
1.5528
1.59555
1.62626
1.6382
1.63174
1.61468
1.59944
1.59791
1.62253
1.66667
1.71118
1.73305
1.71577
1.65647
1.56661
1.46679
1.3787
1.31686
1.27657
1.2508
1.23657
1.23033
1.22728
1.22279
1.21309
1.19583
1.1704
1.13784
1.10063
1.06221
1.02648
0.996824
0.975896
0.9665
0.974029
1.00328
1.04016
1.06373
1.05334
0.997616
0.900806
0.782501
0.670004
0.587182
0.545076
0.530225
0.538069
0.563843
0.605316
0.660408
0.740222
0.878327
1.11651
1.41741
1.69633
1.8905
1.96595
1.91188
1.73783
1.47801
1.19819
0.993147
0.929173
0.961349
1.03373
1.12183
1.2161
1.31075
1.40125
1.48457
1.55915
1.62454
1.68095
1.72881
1.76845
1.80005
1.82361
1.83911
1.84678
1.84727
1.8418
1.83222
1.82086
1.81032
1.80306
1.80102
1.80525
1.81593
1.83211
1.85132
1.87051
1.88669
1.89758
1.90187
1.89928
1.8903
1.87596
1.85757
1.83692
1.81602
1.79741
1.78395
1.77835
1.78653
1.81202
1.84561
1.87298
1.88112
1.86531
1.83261
1.79939
1.78377
1.79677
1.83575
1.88852
1.93813
1.971
1.9831
1.98119
1.9787
1.9891
2.0226
2.06739
2.09896
2.0939
2.04377
1.96165
1.87737
1.82376
1.82041
1.8637
1.92774
1.97753
1.98676
1.95101
1.88961
1.83573
1.82057
1.86027
1.9314
2.02253
2.12559
2.23011
2.32176
2.3881
2.41935
2.4088
2.35596
2.27073
2.17501
2.09903
2.07259
2.11477
2.20825
2.33035
2.47335
2.62931
2.78995
2.94416
3.07714
3.17858
3.23552
3.23292
3.15997
3.01784
2.82372
2.60835
2.40797
2.25191
2.1367
2.05089
1.99174
1.95773
1.94746
1.95685
1.97751
2.00152
2.02278
2.03785
2.04599
2.04826
2.0459
2.03832
2.02194
1.98951
1.9309
1.821
1.50473
1.00443
0.399517
-0.148929
0
1.19497
3.54774
6.8175
10.4079
13.498
15.2722
15.1891
13.1871
9.73446
5.68491
1.98906
-0.617463
-1.82085
-1.76188
-0.90316
0.188007
1.06866
1.54731
1.65175
1.6117
1.57271
1.54056
1.52193
1.52292
1.5468
1.5977
1.67188
1.75568
1.83328
1.89241
1.92843
1.94493
1.95084
1.9564
1.96993
1.99308
2.02692
2.07303
2.13203
2.20468
2.29144
2.38366
2.47013
2.5407
2.59024
2.6209
2.64142
2.66363
2.69769
2.74785
2.81252
2.88312
2.95011
3.00846
3.06098
3.11766
3.19108
3.29006
3.41472
3.55286
3.6931
3.82441
3.93991
4.03862
4.12478
4.20516
4.28576
4.36943
4.45408
4.53142
4.58764
4.60861
4.58166
4.49781
4.3543
4.15661
3.9183
3.65795
3.3946
3.14167
2.90205
2.67733
2.4711
2.28638
2.12542
1.9897
1.88044
1.79863
1.7417
1.7015
1.66907
1.63661
1.59913
1.55518
1.50648
1.45639
1.40799
1.36231
1.31785
1.27147
1.2195
1.15961
1.09209
1.02085
0.956964
0.914275
0.90521
0.96454
1.083
1.22203
1.33567
1.3906
1.37867
1.31621
1.23212
1.15276
1.092
1.04314
1.00067
0.962908
0.929534
0.901493
0.880909
0.870566
0.875019
0.901341
0.953288
1.02276
1.09408
1.15028
1.17798
1.17088
1.1311
1.06809
0.995988
0.929657
0.879241
0.846861
0.829752
0.823927
0.826578
0.834992
0.8467
0.859775
0.872866
0.885039
0.895691
0.904462
0.911249
0.916234
0.919839
0.922555
0.924695
0.926199
0.92664
0.925413
0.922091
0.916742
0.910072
0.903289
0.897742
0.89449
0.893955
0.89593
0.899764
0.904741
0.910438
0.916903
0.924589
0.934046
0.945533
0.958621
0.972172
0.984498
0.993393
0.996347
0.991167
0.976419
0.951861
0.918796
0.880197
0.840467
0.805237
0.78016
0.769778
0.776578
0.803293
0.847413
0.900179
0.95107
0.990723
1.01325
1.01745
1.0067
0.987543
0.967501
0.952746
0.945679
0.945369
0.949483
0.954644
0.957746
0.957122
0.953181
0.948367
0.946499
0.95175
0.96697
0.992923
1.03114
1.08176
1.14031
1.19495
1.23115
1.2359
1.20191
1.13091
1.03478
0.933055
0.847492
0.79539
0.776569
0.785074
0.815944
0.861813
0.91491
0.968565
1.01896
1.06312
1.09943
1.12731
1.14698
1.15937
1.166
1.16879
1.16972
1.17051
1.17236
1.17582
1.18121
1.18885
1.19927
1.21329
1.23192
1.25615
1.28661
1.32333
1.36579
1.41322
1.46471
1.51931
1.57606
1.63382
1.69049
1.74166
1.78105
1.80131
1.79575
1.76057
1.6967
1.61041
1.51241
1.41557
1.33198
1.26677
1.22009
1.19294
1.18321
1.18617
1.19517
1.2034
1.20589
1.2005
1.18835
1.17345
1.16142
1.15792
1.1732
1.20278
1.22202
1.1959
1.09206
0.894445
0.611479
0.255822
-0.18264
0
1.12729
3.33462
6.41568
9.74597
12.3957
13.4652
12.5006
9.74473
6.04159
2.43515
-0.288057
-1.84463
-2.39321
-2.27762
-1.84453
-1.28051
-0.696445
-0.162136
0.253743
0.523244
0.74387
0.944731
1.12203
1.26725
1.37718
1.45011
1.48745
1.49558
1.4868
1.47789
1.48622
1.52464
1.59744
1.69293
1.79932
1.90959
2.01801
2.12003
2.21256
2.2937
2.36277
2.4201
2.46668
2.50404
2.53432
2.56021
2.5849
2.6118
2.64428
2.68506
2.73629
2.79975
2.87688
2.96872
3.07591
3.19863
3.33633
3.48757
3.64984
3.81958
3.99246
4.16379
4.32907
4.48446
249
525
793
1076
1363
1632
1922
2212
2503
2813
3104
3404
3691
0
0
0
0
0
0
0
0
0
0
0
0
0
0
0
0
0
0
0
0
0
0
0
0
0
0
0
0
0
0
0
0
0
0
0
0
0
0
0
0
0
0
0
0
0
0
0
0
0
0
0
0
0
0
0
0
0
0
0
0
0
0
0
0
0
0
0
0
0
0
0
0
0
0
0
0
0
0
0
0
0
0
0
0
0
0
0
0
0
0
0
0
0
0
0
0
0
0
0
0
0
0
0
0
0
0
0
0
0
0
0
0
0
0
0
0
0
0
0
0
0
0
0
0
0
0
0
0
0
0
0
0
0
0
0
0
0
0
0
0
0
0
0
0
0
0
0
0
0
0
0
0
0
0
0
0
0
0
0
0
0
0
0
0
0
0
0
0
0
0
0
0
0
0
0
0
0
0
0
0
0
0
0
0
0
0
0
0
0
0
0
0
0
0
0
0
0
0
0
0
0
0
0
0
0
0
0
0
0
0
0
0
0
0
0
0
0
0
0
0
0
0
0
0
0
0
0
0
0
0
0
0
0
0
0
0
0
0
0
0
0
0
0
0
0
0
0
0
0
0
0
0
0
0
0
0
0
0
0
0
0
0
0
0
0
0
0
0
0
0
0
0
0
0
0
0
0
0
0
0
0
0
0
0
0
0
0
0
0
0
0
0
0
0
0
0
0
0
0
0
0
0
0
0
0
0
0
0
0
0
0
0
0
0
0
0
0
0
0
0
0
0
0
0
0
0
0
0
0
0
0
0
0
0
0
0
0
0
0
0
0
0
0
0
0
0
0
0
0
0
0
0
0
0
0
0
0
0
0
0
0
0
0
0
0
0
0
0
0
0
0
0
0
0
0
0
0
0
0
0
0
0
0
0
0
0
0
0
0
0
0
0
0
0
0
0
0
0
0
0
0
0
0
0
0
0
0
0
0
0
0
0
0
0
0
0
0
0
0
0
0
0
0
0
0
0
0
0
0
0
0
0
0
0
0
0
0
0
0
0
0
0
0
0
0
0
0
0
0
0
0
0
0
0
0
0
0
0
0
0
0
0
0
0
0
0
0
0
0
0
0
0
0
0
0
0
0
0
0
0
0
0
0
0
0
0
0
0
0
0
0
0
0
0
0
0
0
0
0
0
0
0
0
0
0
0
0
0
0
0
0
0
0
0
0
0
0
0
0
0
0
0
0
0
0
0
0
0
0
0
0
0
0
0
0
0
0
0
0
0
0
0
0
0
0
0
0
0
0
0
0
0
0
0
0
0
0
0
0
0
0
0
0
0
0
0
0
0
0
0
0
0
0
0
0
0
0
0
0
0
0
0
0
0
0
0
0
0
0
0
0
0
0
0
0
0
0
0
0
0
0
0
0
0
0
0
0
0
0
0
0
0
0
0
0
0
0
0
0
0
0
0
0
0
0
0
0
0
0
0
0
0
0
0
0
0
0
0
0
0
0
0
0
0
0
0
0
0
0
0
0
0
0
0
0
0
0
0
0
0
0
0
0
0
0
0
0
0
0
0
0
0
0
0
0
0
0
0
0
0
0
0
0
0
0
0
0
0
0
0
0
0
0
0
0
0
0
0
0
0
0
0
0
0
0
0
0
0
0
0
0
0
0
0
0
0
0
0
0
0
0
0
0
0
0
0
0
0
0
0
0
0
0
0
0
0
0
0
0
0
0
0
0
0
0
0
0
0
0
0
0
0
0
0
0
0
0
0
0
0
0
0
0
0
0
0
0
0
0
0
0
0
0
0
0
0
0
0
0
0
0
0
0
0
0
0
0
0
0
0
0
0
0
0
0
0
0
0
0
0
0
0
0
0
0
0
0
0
0
0
0
0
0
0
0
0
0
0
0
0
0
0
0
0
0
0
0
0
0
0
0
0
0
0
0
0
0
0
0
0
0
0
0
0
0
0
0
0
0
0
0
0
0
0
0
0
0
0
0
0
0
0
0
0
0
0
0
0
0
0
0
0
0
0
0
0
0
0
0
0
0
0
0
0
0
0
0
0
0
0
0
0
0
0
0
0
0
0
0
0
0
0
0
0
0
0
0
0
0
0
0
0
0
0
0
0
0
0
0
0
0
0
0
0
0
0
0
0
0
0
0
0
0
0
0
0
0
0
0
0
0
0
0
0
0
0
0
0
0
0
0
0
0
0
0
0
0
0
0
0
0
0
0
0
0
0
0
0
0
0
0
0
0
0
0
0
0
0
0
0
0
0
0
0
0
0
0
0
0
0
0
0
0
0
0
0
0
0
0
0
0
0
0
0
0
0
0
0
0
0
0
0
0
0
0
0
0
0
0
0
0
0
0
0
0
0
0
0
0
0
0
0
0
0
0
0
0
0
0
0
0
0
0
0
0
0
0
0
0
0
0
0
0
0
0
0
0
0
0
0
0
0
0
0
0
0
0
0
0
0
0
0
0
0
0
0
0
0
0
0
0
0
0
0
0
0
0
0
0
0
0
0
0
0
0
0
0
0
0
0
0
0
0
0
0
0
0
0
0
0
0
0
0
0
0
0
0
0
0
0
0
0
0
0
0
0
0
0
0
0
0
0
0
0
0
0
0
0
0
0
0
0
0
0
0
0
0
0
0
0
0
0
0
0
0
0
0
0
0
0
0
0
0
0
0
0
0
0
0
0
0
0
0
0
0
0
0
0
0
0
0
0
0
0
0
0
0
0
0
0
0
0
0
0
0
0
0
0
0
0
0
0
0
0
0
0
0
0
0
0
0
0
0
0
0
0
0
0
0
0
0
0
0
0
0
0
0
0
0
0
0
0
0
0
0
0
0
0
0
0
0
0
0
0
0
0
0
0
0
0
0
0
0
0
0
0
0
0
0
0
0
0
0
0
0
0
0
0
0
0
0
0
0
0
0
0
0
0
0
0
0
0
0
0
0
0
0
0
0
0
0
0
0
0
0
0
0
0
0
0
0
0
0
0
0
0
0
0
0
0
0
0
0
0
0
0
0
0
0
0
0
0
0
0
0
0
0
0
0
0
0
0
0
0
0
0
0
0
0
0
0
0
0
0
0
0
0
0
0
0
0
0
0
0
0
0
0
0
0
0
0
0
0
0
0
0
0
0
0
0
0
0
0
0
0
0
0
0
0
0
0
0
0
0
0
0
0
0
0
0
0
0
0
0
0
0
0
0
0
0
0
0
0
0
0
0
0
0
0
0
0
0
0
0
0
0
0
0
0
0
0
0
0
0
0
0
0
0
0
0
0
0
0
0
0
0
0
0
0
0
0
0
0
0
0
0
0
0
0
0
0
0
0
0
0
0
0
0
0
0
0
0
0
0
0
0
0
0
0
0
0
0
0
0
0
0
0
0
0
0
0
0
0
0
0
0
0
0
0
0
0
0
0
0
0
0
0
0
0
0
0
0
0
0
0
0
0
0
0
0
0
0
0
0
0
0
0
0
0
0
0
0
0
0
0
0
0
0
0
0
0
0
0
0
0
0
0
0
0
0
0
0
0
0
0
0
0
0
0
0
0
0
0
0
0
0
0
0
0
0
0
0
0
0
0
0
0
0
0
0
0
0
0
0
0
0
0
0
0
0
0
0
0
0
0
0
0
0
0
0
0
0
0
0
0
0
0
0
0
0
0
0
0
0
0
0
0
0
0
0
0
0
0
0
0
0
0
0
0
0
0
0
0
0
0
0
0
0
0
0
0
0
0
0
0
0
0
0
0
0
0
0
0
0
0
0
0
0
0
0
0
0
0
0
0
0
0
0
0
0
0
0
0
0
0
0
0
0
0
0
0
0
0
0
0
0
0
0
0
0
0
0
0
0
0
0
0
0
0
0
0
0
0
0
0
0
0
0
0
0
0
0
0
0
0
0
0
0
0
0
0
0
0
0
0
0
0
0
0
0
0
0
0
0
0
0
0
0
0
0
0
0
0
0
0
0
0
0
0
0
0
0
0
0
0
0
0
0
0
0
0
0
0
0
0
0
0
0
0
0
0
0
0
0
0
0
0
0
0
0
0
0
0
0
0
0
0
0
0
0
0
0
0
0
0
0
0
0
0
0
0
0
0
0
0
0
0
0
0
0
0
0
0
0
0
0
0
0
0
0
0
0
0
0
0
0
0
0
0
0
0
0
0
0
0
0
0
0
0
0
0
0
0
0
0
0
0
0
0
0
0
0
0
0
0
0
0
0
0
0
0
0
0
0
0
0
0
0
0
0
0
0
0
0
0
0
0
0
0
0
0
0
0
0
0
0
0
0
0
0
0
0
0
0
0
0
0
0
0
0
0
0
0
0
0
0
0
0
0
0
0
0
0
0
0
0
0
0
0
0
0
0
0
0
0
0
0
0
0
0
0
0
0
0
0
0
0
0
0
0
0
0
0
0
0
0
0
0
0
0
0
0
0
0
0
0
0
0
0
0
0
0
0
0
0
0
0
0
0
0
0
0
0
0
0
0
0
0
0
0
0
0
0
0
0
0
0
0
0
0
0
0
0
0
0
0
0
0
0
0
0
0
0
0
0
0
0
0
0
0
0
0
0
0
0
0
0
0
0
0
0
0
0
0
0
0
0
0
0
0
0
0
0
0
0
0
0
0
0
0
0
0
0
0
0
0
0
0
0
0
0
0
0
0
0
0
0
0
0
0
0
0
0
0
0
0
0
0
0
0
0
0
0
0
0
0
0
0
0
0
0
0
0
0
0
0
0
0
0
0
0
0
0
0
0
0
0
0
0
0
0
0
0
0
0
0
0
0
0
0
0
0
0
0
0
0
0
0
0
0
0
0
0
0
0
0
0
0
0
0
0
0
0
0
0
0
0
0
0
0
0
0
0
0
0
0
0
0
0
0
0
0
0
0
0
0
0
0
0
0
0
0
0
0
0
0
0
0
0
0
0
0
0
0
0
0
0
0
0
0
0
0
0
0
0
0
0
0
0
0
0
0
0
0
0
0
0
0
0
0
0
0
0
0
0
0
0
0
0
0
0
0
0
0
0
0
0
0
0
0
0
0
0
0
0
0
0
0
0
0
0
0
0
0
0
0
0
0
0
0
0
0
0
0
0
0
0
0
0
0
0
0
0
0
0
0
0
0
0
0
0
0
0
0
0
0
0
0
0
0
0
0
0
0
0
0
0
0
0
0
0
0
0
0
0
0
0
0
0
0
0
0
0
0
0
0
0
0
0
0
0
0
0
0
0
0
0
0
0
0
0
0
0
0
0
0
0
0
0
0
0
0
0
0
0
0
0
0
0
0
0
0
0
0
0
0
0
0
0
0
0
0
0
0
0
0
0
0
0
0
0
0
0
0
0
0
0
0
0
0
0
0
0
0
0
0
0
0
0
0
0
0
0
0
0
0
0
0
0
0
0
0
0
0
0
0
0
0
0
0
0
0
0
0
0
0
0
0
0
0
0
0
0
0
0
0
0
0
0
0
0
0
0
0
0
0
0
0
0
0
0
0
0
0
0
0
0
0
0
0
0
0
0
0
0
0
0
0
0
0
0
0
0
0
0
0
0
0
0
0
0
0
0
0
0
0
0
0
0
0
0
0
0
0
0
0
0
0
0
0
0
0
0
0
0
0
0
0
0
0
0
0
0
0
0
0
0
0
0
0
0
0
0
0
0
0
0
0
0
0
0
0
0
0
0
0
0
0
0
0
0
0
0
0
0
0
0
0
0
0
0
0
0
0
0
0
0
0
0
0
0
0
0
0
0
0
0
0
0
0
0
0
0
0
0
0
0
0
0
0
0
0
0
0
0
0
0
0
0
0
0
0
0
0
0
0
0
0
0
0
0
0
0
0
0
0
0
0
0
0
0
0
0
0
0
0
0
0
0
0
0
0
0
0
0
0
0
0
0
0
0
0
0
0
0
0
0
0
0
0
0
0
0
0
0
0
0
0
0
0
0
0
0
0
0
0
0
0
0
0
0
0
0
0
0
0
0
0
0
0
0
0
0
0
0
0
0
0
0
0
0
0
0
0
0
0
0
0
0
0
0
0
0
0
0
0
0
0
0
0
0
0
0
0
0
0
0
0
0
0
0
0
0
0
0
0
0
0
0
0
0
0
0
0
0
0
0
0
0
0
0
0
0
0
0
0
0
0
0
0
0
0
0
0
0
0
0
0
0
0
0
0
0
0
0
0
0
0
0
0
0
0
0
0
0
0
0
0
0
0
0
0
0
0
0
0
0
0
0
0
0
0
0
0
0
0
0
0
0
0
0
0
0
0
0
0
0
0
0
0
0
0
0
0
0
0
0
0
0
0
0
0
0
0
0
0
0
0
0
0
0
0
0
0
0
0
0
0
0
0
0
0
0
0
0
0
0
0
0
0
0
0
0
0
0
0
0
0
0
0
0
0
0
0
0
0
0
0
0
0
0
0
0
0
0
0
0
0
0
0
0
0
0
0
0
0
0
0
0
0
0
0
0
0
0
0
0
0
0
0
0
0
0
0
0
0
0
0
0
0
0
0
0
0
0
0
0
0
0
0
0
0
0
0
0
0
0
0
0
0
0
0
0
0
0
0
0
0
0
0
0
0
0
0
0
0
0
0
0
0
0
0
0
0
0
0
0
0
0
0
0
0
0
0
0
0
0
0
0
0
0
0
0
0
0
0
0
0
0
0
0
0
0
0
0
0
0
0
0
0
0
0
0
0
0
0
0
0
0
0
0
0
0
0
0
0
0
0
0
0
0
0
0
0
0
0
0
0
0
0
0
0
0
0
0
0
0
0
0
0
0
0
0
0
0
0
0
0
0
0
0
0
0
0
0
0
0
0
0
0
0
0
0
0
0
0
0
0
0
0
0
0
0
0
0
0
0
0
0
0
0
0
0
0
0
0
0
0
0
0
0
0
0
0
0
0
0
0
0
0
0
0
0
0
0
0
0
0
0
0
0
0
0
0
0
0
0
0
0
0
0
0
0
0
0
0
0
0
0
0
0
0
0
0
0
0
0
0
0
0
0
0
0
0
0
0
0
0
0
0
0
0
0
0
0
0
0
0
0
0
0
0
0
0
0
0
0
0
0
0
0
0
0
0
0
0
0
0
0
0
0
0
0
0
0
0
0
0
0
0
0
0
0
0
0
0
0
0
0
0
0
0
0
0
0
0
0
0
0
0
0
0
0
0
0
0
0
0
0
0
0
0
0
0
0
0
0
0
0
0
0
0
0
0
0
0
0
0
0
0
0
0
0
0
0
0
0
0
0
0
0
0
0
0
0
0
0
0
0
0
0
0
0
0
0
0
0
0
0
0
0
0
0
0
0
0
0
0
0
0
0
0
0
0
0
0
0
0
0
0
0
0
0
0
0
0
0
0
0
0
0
0
0
0
0
0
0
0
0
0
0
0
0
0
0
0
0
0
0
0
0
0
0
0
0
0
0
0
0
0
0
0
0
0
0
0
0
0
0
0
0
0
0
0
0
0
0
0
0
0
0
0
0
0
0
0
0
0
0
0
0
0
0
0
0
0
0
0
0
0
0
0
0
0
0
0
0
0
0
0
0
0
0
0
0
0
0
0
0
0
0
0
0
0
0
0
0
0
0
0
0
0
0
0
0
0
0
0
0
0
0
0
0
0
0
0
0
0
0
0
0
0
0
0
0
0
0
0
0
0
0
0
0
0
0
0
0
0
0
0
0
0
0
0
0
0
0
0
0
0
0
0
0
0
0
0
0
0
0
0
0
0
0
0
0
0
0
0
0
0
0
0
0
0
0
0
0
0
0
0
0
0
0
0
0
0
0
0
0
0
0
0
0
0
0
0
0
0
0
0
0
0
0
0
0
0
0
0
0
0
0
0
0
0
0
0
0
0
0
0
0
0
0
0
0
0
0
0
0
0
0
0
0
0
0
0
0
0
0
0
0
0
0
0
0
0
0
0
0
0
0
0
0
0
0
0
0
0
0
0
0
0
0
0
0
0
0
0
0
0
0
0
0
0
0
0
0
0
0
0
0
0
0
0
0
0
0
0
0
0
0
0
0
0
0
0
0
0
0
0
0
0
0
0
0
0
0
0
0
0
0
0
0
0
0
0
0
0
0
0
0
0
0
0
0
0
0
0
0
0
0
0
0
0
0
0
0
0
0
0
0
0
0
0
0
0
0
0
0
0
0
0
0
0
0
0
0
0
0
0
0
0
0
0
0
0
0
0
0
0
0
0
0
0
0
0
0
0
0
0
0
0
0
0
0
0
0
0
0
0
0
0
0
0
0
0
0
0
0
0
0
0
0
0
0
0
0
0
0
0
0
0
0
0
0
0
0
0
0
0
0
0
0
0
0
0
0
0
0
0
0
0
0
0
0
0
0
0
0
0
0
0
0
0
0
0
0
0
0
0
0
0
0
0
0
0
0
0
0
0
0
0
0
0
0
0
0
0
0
0
0
0
0
0
0
0
0
0
0
0
0
0
0
0
0
0
0
0
0
0
0
0
0
0
0
0
0
0
0
0
