-1.47269
-1.51814
-1.58103
-1.64394
-1.68951
-1.70695
-1.69847
-1.67184
-1.63337
-1.58731
-1.53752
-1.48734
-1.43926
-1.39485
-1.35494
-1.31976
-1.28922
-1.26307
-1.24097
-1.22265
-1.20795
-1.19688
-1.18942
-1.18558
-1.18526
-1.18827
-1.19433
-1.20333
-1.21558
-1.23225
-1.25492
-1.28544
-1.32524
-1.3745
-1.4323
-1.4944
-1.55411
-1.6038
-1.6365
-1.64719
-1.63376
-1.59727
-1.54177
-1.47366
-1.4006
-1.33133
-1.27362
-1.23295
-1.21158
-1.20835
-1.21929
-1.23882
-1.26117
-1.2815
-1.29727
-1.30743
-1.31107
-1.3077
-1.29708
-1.27921
-1.25424
-1.22273
-1.18543
-1.14333
-1.09775
-1.05021
-1.00236
-0.955721
-0.911487
-0.870237
-0.831786
-0.79511
-0.758418
-0.719364
-0.675369
-0.624023
-0.563483
-0.492797
-0.412166
-0.322706
-0.226773
-0.128674
-0.0348885
0.0472588
0.11121
0.152056
0.167285
0.157154
0.12464
0.0749687
0.014806
-0.0487217
-0.109197
-0.162399
-0.206145
-0.239457
-0.262006
-0.274206
-0.277126
-0.272422
-0.2622
-0.248852
-0.23499
-0.223527
-0.217873
-0.221067
-0.235548
-0.262654
-0.302191
-0.352257
-0.409454
-0.469511
-0.520845
0
0.999461
2.3987
4.00694
5.5625
6.78113
7.41383
7.30762
6.44961
4.98084
3.17625
1.38875
-0.0394058
-0.880878
-1.07137
-0.834521
-0.610706
-0.418109
-0.266289
-0.152808
-0.0560005
0.0360744
0.127882
0.22182
0.31852
0.416908
0.514329
0.607347
0.692479
0.766759
0.827353
0.871438
0.89914
0.912106
0.913721
0.909323
0.906161
0.912825
0.938117
0.98959
1.07217
1.18456
1.32501
1.48921
1.67113
1.86326
2.05948
2.25502
2.44631
2.63118
2.80875
2.97911
3.14285
3.30048
3.45147
3.59451
3.72745
3.84724
3.95004
4.02932
4.07686
4.08775
4.05752
3.98303
3.86369
3.70264
3.50716
3.28787
3.05671
2.82443
2.59706
2.3766
2.16388
1.95837
1.75898
1.56479
1.37573
1.19319
1.02072
0.864473
0.731295
0.626455
0.553384
0.512647
0.501485
0.514114
0.542781
0.579334
0.616856
0.651125
0.681091
0.706943
0.729285
0.748872
0.766032
0.780607
0.79199
0.799486
0.802846
0.802726
0.800911
0.800217
0.804078
0.815936
0.838153
0.871631
0.917699
0.976947
1.04451
1.1092
1.15912
1.18506
1.18325
1.15657
1.1137
1.0663
1.0255
0.998116
0.983137
0.977417
0.978535
0.983703
0.989932
0.994511
0.995363
0.991331
0.982198
0.96856
0.951556
0.93249
0.912444
0.891931
0.870736
0.847991
0.822637
0.793972
0.762027
0.72755
0.691609
0.65503
0.61798
0.57998
0.540432
0.499462
0.458704
0.421597
0.393002
0.378153
0.381276
0.402619
0.441061
0.493296
0.554003
0.61678
0.67525
0.724088
0.759726
0.780615
0.787054
0.780697
0.76391
0.739152
0.708766
0.674229
0.63614
0.594437
0.548541
0.497618
0.440974
0.378009
0.308503
0.234307
0.16163
0.0993332
0.0565224
0.0400761
0.0525906
0.0914837
0.149596
0.217091
0.284027
0.343784
0.394915
0.438204
0.475045
0.50812
0.54081
0.576545
0.619186
0.672138
0.733168
0.793184
0.840354
0.863427
0.854617
0.811217
0.735803
0.635446
0.520409
0.402662
0.291938
0.194046
0.111549
0.0440796
-0.00889626
-0.0501423
-0.0841125
-0.115726
-0.149382
-0.188152
-0.233315
-0.284319
-0.339142
-0.394962
-0.448954
-0.482327
0
0.910287
2.25262
3.84422
5.38539
6.55011
7.09084
6.91125
6.07663
4.77011
3.22529
1.66927
0.291652
-0.766726
-1.42094
-1.51984
-1.44619
-1.20845
-0.912919
-0.669727
-0.552811
-0.528954
-0.538476
-0.561617
-0.592755
-0.629625
-0.670602
-0.714191
-0.75902
-0.803911
-0.847893
-0.890148
-0.929933
-0.966453
-0.998769
-1.0258
-1.04639
-1.0595
-1.06431
-1.06031
-1.04715
-1.02449
-0.991631
-0.947316
-0.889674
-0.816469
-0.725607
-0.615798
-0.487219
-0.342194
-0.184992
-0.0217341
0.139902
0.289635
0.41761
0.515612
0.578022
0.602237
0.588434
0.53874
0.456073
0.34302
0.20108
0.0327285
-0.160454
-0.377993
-0.619507
-0.883325
-1.16611
-1.46276
-1.76655
-2.06975
-2.36422
-2.6422
-2.89696
-3.12206
-3.31143
-3.46245
-3.57999
-3.67469
-3.75761
-3.83742
-3.91833
-3.99945
-4.07575
-4.14022
-4.18659
-4.2128
-4.22259
-4.22153
-4.21439
-4.20688
-4.20414
-4.20965
-4.2246
-4.24774
-4.27579
-4.30431
-4.32875
-4.34419
-4.34503
-4.33233
-4.31959
-4.32395
-4.35952
-4.43127
-4.532
-4.64353
-4.74194
-4.80486
-4.82136
-4.80245
-4.75358
-4.6692
-4.56494
-4.47335
-4.42503
-4.43894
-4.51458
-4.63056
-4.75229
-4.84677
-4.89695
-4.916
-4.92345
-4.92705
-4.93234
-4.94135
-4.95261
-4.96243
-4.96664
-4.96204
-4.94874
-4.92747
-4.89861
-4.86283
-4.82111
-4.77475
-4.72559
-4.67595
-4.62855
-4.58606
-4.55051
-4.52291
-4.50294
-4.48906
-4.47879
-4.46913
-4.45703
-4.43977
-4.41505
-4.38092
-4.33593
-4.27918
-4.21042
-4.13027
-4.04035
-3.94309
-3.84173
-3.74468
-3.66345
-3.60871
-3.58692
-3.59748
-3.63157
-3.67359
-3.70498
-3.70909
-3.67658
-3.61462
-3.53122
-3.43177
-3.32169
-3.20681
-3.09256
-2.98337
-2.8822
-2.7903
-2.70722
-2.6309
-2.55807
-2.48468
-2.40651
-2.31971
-2.22145
-2.11038
-1.98683
-1.85285
-1.7119
-1.56823
-1.42626
-1.28991
-1.16221
-1.04513
-0.939817
-0.846982
-0.768423
-0.705753
-0.659663
-0.630367
-0.616982
-0.617024
-0.626296
-0.639216
-0.649518
-0.651139
-0.639891
-0.613913
-0.572384
-0.516032
-0.447391
-0.370135
-0.289378
-0.211088
-0.140495
-0.0812096
-0.0346581
0
0.00947495
0.00990753
0.768605
2.18716
4.11797
6.2152
8.06081
9.31823
9.82327
9.58075
8.69955
7.33506
5.67894
3.97393
2.49944
1.50015
1.09063
1.40536
1.76533
2.14296
2.49932
2.79138
3.02673
3.23592
3.42603
3.59824
3.75419
3.89569
4.02448
4.1422
4.2506
4.35172
4.44807
4.5427
4.63905
4.74073
4.85116
4.97338
5.10975
5.26196
5.4309
5.61658
5.81793
6.03265
6.25709
6.48633
6.71436
6.93461
7.14041
7.32569
7.48548
7.61641
7.71689
7.78712
7.82894
7.84538
7.84029
7.8178
7.78194
7.73632
7.68393
7.62712
7.56759
7.50651
7.44468
7.38256
7.32044
7.25849
7.19681
7.13544
7.07442
7.01378
6.95352
6.89365
6.83418
6.77513
6.71647
6.65824
6.60043
6.54305
6.48609
6.42956
6.37347
6.31782
6.26261
6.20784
6.15352
6.09966
6.04625
5.9933
5.94081
5.88879
5.83723
5.78615
5.73554
5.68541
5.63576
5.5866
5.53793
5.48975
5.44207
5.39488
5.3482
5.30202
5.25636
5.2112
5.16656
5.12244
5.07884
5.03577
4.99323
4.95122
4.90975
4.86881
4.82842
4.78858
4.74928
4.71054
4.67236
4.63473
4.59767
4.56117
4.52524
4.48989
4.45511
4.42091
4.3873
4.35427
4.32184
4.28999
4.25874
4.2281
4.19805
4.16862
4.13979
4.11158
4.08397
4.05699
4.03061
4.00486
3.97973
3.95521
3.93128
3.90793
3.88508
3.86263
3.84042
3.81817
3.7955
3.77192
3.74686
3.71971
3.68999
3.65747
3.62231
3.58511
3.54695
3.50912
3.47285
3.43901
3.40763
3.37711
3.34445
3.30595
3.25817
3.19895
3.12803
3.04726
2.96029
2.87189
2.78683
2.7085
2.63946
2.58168
2.53592
2.50057
2.47274
2.44884
2.42523
2.39888
2.36774
2.33094
2.28881
2.24275
2.19509
2.14845
2.10564
2.06952
2.04275
2.02757
2.02556
2.03749
2.06316
2.10136
2.15003
2.20651
2.26646
2.32392
2.37274
2.40744
2.42368
2.41865
2.39079
2.33947
2.26462
2.16658
2.0483
1.91419
1.7683
1.61469
1.45797
1.30296
1.15408
1.01476
0.887177
0.772292
0.670139
0.580324
0.502347
0.435339
0.378157
0.329224
0.286369
0.246878
0.207707
0.164925
0.116281
0.06185
0
0.176439
0.850307
1.99478
3.33573
4.49269
5.22055
5.53538
5.60843
5.53846
5.23351
4.52457
3.39431
2.08523
0.977252
0.358031
0.487962
0.667851
0.858258
1.05415
1.2491
1.43651
1.61206
1.77405
1.92009
2.04646
2.14924
2.22464
2.26929
2.28099
2.25952
2.20731
2.12975
2.0349
1.93216
1.83354
1.75023
1.69104
1.66174
1.66698
1.7127
1.79674
1.91591
2.06648
2.24402
2.44322
2.65807
2.88272
3.11282
3.34649
3.58402
3.82742
4.08028
4.3513
4.6621
5.04156
5.46372
5.86777
6.19176
6.39053
6.4521
6.40145
6.28463
6.13866
5.96366
5.74396
5.49185
5.22034
4.93653
4.64602
4.35537
4.07213
3.80372
3.55637
3.33432
3.13938
2.97102
2.82681
2.70318
2.59615
2.50194
2.41727
2.33931
2.26541
2.19265
2.11737
2.03493
1.93977
1.82578
1.68696
1.51836
1.31692
1.08228
0.817077
0.526926
0.219732
-0.0953674
-0.409326
-0.714457
-1.00535
-1.27923
-1.53565
-1.77569
-2.00092
-2.21241
-2.41026
-2.59344
-2.76029
-2.90911
-3.03884
-3.14947
-3.24203
-3.31835
-3.38046
-3.43004
-3.46801
-3.49436
-3.50831
-3.50881
-3.49491
-3.46639
-3.42479
-3.37311
-3.31552
-3.25682
-3.20171
-3.15411
-3.11662
-3.09019
-3.07407
-3.06574
-3.06177
-3.05819
-3.05091
-3.03624
-3.01142
-2.9749
-2.92665
-2.86808
-2.80186
-2.73172
-2.6621
-2.59737
-2.54117
-2.49595
-2.46266
-2.44082
-2.42878
-2.42415
-2.42427
-2.4267
-2.42943
-2.43091
-2.43003
-2.42606
-2.4187
-2.40804
-2.39466
-2.37954
-2.36399
-2.34934
-2.33663
-2.32626
-2.31772
-2.30954
-2.29938
-2.28447
-2.26209
-2.23009
-2.18724
-2.13337
-2.06943
-1.99697
-1.91741
-1.8315
-1.73887
-1.638
-1.52479
-1.38827
-1.20471
-0.94684
-0.630745
-0.315849
-0.0590199
0.0971783
0.129755
0.0429863
-0.122819
-0.294116
-0.39193
-0.395858
-0.362033
-0.322868
-0.290564
-0.273973
-0.276946
-0.298197
-0.332738
-0.374219
-0.417245
-0.459525
-0.500402
-0.540153
-0.579892
-0.621258
-0.662762
-0.695433
-0.706122
-0.6842
-0.628354
-0.54566
0
0.831607
1.97975
3.41003
4.96053
6.33381
7.17255
7.19898
6.35209
4.83959
3.06384
1.45314
0.292481
-0.353005
-0.443694
-0.343716
-0.233037
-0.114268
0.00456696
0.113514
0.203895
0.271175
0.316851
0.348415
0.377182
0.414682
0.468991
0.539375
0.62111
0.711002
0.805699
0.90311
1.00332
1.10864
1.22271
1.34892
1.49601
1.66311
1.83187
1.9792
2.08755
2.15344
2.18981
2.22108
2.27317
2.36302
2.48343
2.61907
2.76172
2.9031
3.03664
3.15915
3.27153
3.37837
3.48718
3.61687
3.79358
3.99852
4.18919
4.32172
4.36982
4.33133
4.22221
4.06481
3.87793
3.67195
3.4527
3.22206
2.98092
2.73037
2.47208
2.20844
1.94307
1.68103
1.42834
1.19115
0.974812
0.783128
0.618091
0.479574
0.364368
0.267545
0.183647
0.107661
0.0357178
-0.0345825
-0.104215
-0.172976
-0.239777
-0.302984
-0.359224
-0.404078
-0.433739
-0.445132
-0.437195
-0.408416
-0.366428
-0.322681
-0.289147
-0.274596
-0.281976
-0.307906
-0.344374
-0.381832
-0.41236
-0.434167
-0.44832
-0.456252
-0.459843
-0.461248
-0.462374
-0.464567
-0.468549
-0.474599
-0.482883
-0.493831
-0.50844
-0.528452
-0.5563
-0.594527
-0.645188
-0.709142
-0.785361
-0.871039
-0.960703
-1.04442
-1.11176
-1.15449
-1.16694
-1.14482
-1.10267
-1.06049
-1.03635
-1.03998
-1.06959
-1.11286
-1.1511
-1.16454
-1.14147
-1.08338
-0.992139
-0.867348
-0.708636
-0.517234
-0.296263
-0.0508621
0.211823
0.482901
0.752306
1.0093
1.24307
1.44526
1.61039
1.73632
1.82413
1.87755
1.90202
1.90364
1.88823
1.86073
1.82505
1.78382
1.73895
1.69203
1.64468
1.59874
1.55636
1.51978
1.49099
1.47151
1.46231
1.46358
1.47462
1.49384
1.51896
1.54737
1.57649
1.60411
1.62881
1.65005
1.66816
1.68398
1.69845
1.71202
1.72415
1.73283
1.735
1.7274
1.70762
1.67488
1.6302
1.57571
1.51374
1.44577
1.37248
1.29373
1.20854
1.11626
1.01708
0.912263
0.804117
0.695695
0.59041
0.49139
0.401677
0.32407
0.261263
0.218743
0.20665
0.226158
0.256835
0.270787
0.241542
0.153748
0.00891914
-0.175607
-0.373716
-0.559944
-0.635802
0
1.11565
2.59371
4.18703
5.59429
6.55262
6.90451
6.61671
5.75902
4.46997
2.93254
1.35855
-0.035284
-1.06769
-1.59855
-1.58503
-1.51684
-1.40126
-1.2705
-1.15148
-1.04962
-0.956494
-0.86975
-0.789819
-0.718121
-0.656154
-0.604469
-0.562283
-0.529066
-0.504535
-0.488033
-0.478443
-0.474529
-0.474606
-0.476202
-0.475935
-0.469678
-0.453004
-0.42175
-0.373634
-0.307991
-0.224266
-0.122534
-0.00392494
0.129424
0.274523
0.427802
0.5855
0.744081
0.900577
1.05275
1.19902
1.33815
1.46826
1.58613
1.68858
1.77224
1.83377
1.87051
1.88097
1.8648
1.82246
1.75472
1.66223
1.54708
1.41155
1.25748
1.0868
0.902049
0.70656
0.504305
0.299458
0.0960522
-0.102194
-0.29204
-0.470808
-0.636465
-0.787714
-0.924065
-1.04576
-1.15394
-1.25074
-1.33856
-1.41937
-1.49329
-1.55836
-1.61107
-1.6464
-1.65951
-1.64776
-1.61208
-1.55744
-1.49207
-1.42583
-1.36816
-1.3258
-1.30268
-1.29914
-1.31211
-1.3356
-1.36155
-1.38137
-1.38792
-1.37554
-1.34151
-1.28093
-1.19931
-1.11161
-1.03439
-0.980932
-0.957675
-0.963492
-0.991671
-1.03345
-1.08132
-1.13035
-1.17843
-1.22413
-1.26501
-1.2971
-1.31568
-1.31597
-1.29468
-1.24854
-1.17679
-1.09312
-1.01442
-0.955027
-0.921825
-0.912629
-0.918296
-0.927405
-0.931118
-0.927069
-0.918188
-0.907096
-0.896138
-0.887265
-0.881631
-0.879536
-0.880597
-0.88405
-0.888986
-0.894656
-0.900485
-0.90604
-0.910987
-0.915024
-0.917833
-0.91904
-0.918211
-0.914872
-0.908556
-0.898872
-0.885551
-0.868465
-0.847595
-0.822953
-0.794476
-0.762
-0.725264
-0.68401
-0.638204
-0.588487
-0.537099
-0.489178
-0.451745
-0.431831
-0.434241
-0.459394
-0.50203
-0.551447
-0.593466
-0.61371
-0.601516
-0.558735
-0.492723
-0.406538
-0.304797
-0.197863
-0.0990379
-0.019545
0.03358
0.0586519
0.0592308
0.0426533
0.0174662
-0.00958939
-0.03613
-0.0648075
-0.101733
-0.154902
-0.231809
-0.336972
-0.470066
-0.625193
-0.791516
-0.955021
-1.10173
-1.20711
-1.19932
-1.01871
-0.752553
-0.501955
-0.343307
-0.309381
-0.390558
-0.55201
-0.754034
-0.961797
-1.14399
-1.29304
-1.41901
-1.50319
-0.975123
0
1.29372
2.68484
3.92722
4.83726
5.3133
5.30455
4.77982
3.74268
2.28656
0.63528
-0.888247
-1.9704
-2.41537
-2.16755
-1.87403
-1.57612
-1.34726
-1.22615
-1.17464
-1.14223
-1.11704
-1.09603
-1.07769
-1.06092
-1.04485
-1.0287
-1.01158
-0.992394
-0.969818
-0.942347
-0.908414
-0.866559
-0.81559
-0.754678
-0.683359
-0.601647
-0.509599
-0.407135
-0.294138
-0.1705
-0.0362225
0.108482
0.263139
0.427016
0.599171
0.77845
0.963424
1.15225
1.34254
1.53125
1.71477
1.88915
2.05036
2.1947
2.3192
2.42172
2.50077
2.55495
2.58251
2.58168
2.55152
2.49139
2.40151
2.28348
2.14056
1.97752
1.8
1.61364
1.42325
1.23207
1.04192
0.853809
0.668664
0.488054
0.315367
0.156153
0.0161522
-0.0992146
-0.186245
-0.244021
-0.274788
-0.283535
-0.276933
-0.261955
-0.244544
-0.22852
-0.215243
-0.204648
-0.195432
-0.185515
-0.172588
-0.154576
-0.130037
-0.0984477
-0.0603605
-0.0172218
0.0287988
0.074577
0.1162
0.149896
0.172607
0.182515
0.179375
0.164597
0.141023
0.112454
0.0830411
0.0565875
0.0357013
0.0217461
0.0152164
0.0161721
0.0235861
0.0338063
0.0418671
0.0433271
0.0356184
0.0189313
-0.003757
-0.0276054
-0.0474679
-0.0595069
-0.063319
-0.0608353
-0.0539781
-0.0449101
-0.0358034
-0.0282817
-0.0230471
-0.0197662
-0.0171948
-0.013508
-0.00676985
0.00455589
0.0211761
0.0427178
0.0679281
0.09455
0.120046
0.142165
0.159391
0.171133
0.177671
0.1799
0.179045
0.176471
0.173489
0.171382
0.171392
0.174615
0.181794
0.193085
0.207872
0.22482
0.241926
0.257039
0.268375
0.274937
0.276706
0.274544
0.269851
0.264104
0.258453
0.253458
0.249161
0.245285
0.241484
0.237592
0.233787
0.23064
0.229058
0.23018
0.235235
0.245406
0.261778
0.285241
0.316299
0.354965
0.400922
0.45293
0.506969
0.556055
0.593051
0.612827
0.61415
0.600538
0.579604
0.560978
0.553495
0.562659
0.586401
0.619992
0.65939
0.700705
0.740017
0.773809
0.79915
0.813584
0.814889
0.801116
0.770963
0.723684
0.659459
0.579808
0.487655
0.386671
0.284126
0.188074
0.105644
0.0417698
-0.00144467
-0.0245623
-0.0299811
-0.0208269
0
0.0132683
0.0328637
0.0579636
0.0879839
0.122458
0.161022
0.203439
0.251091
0.466567
1.13096
2.19856
3.51816
4.85069
5.95856
6.66767
6.87723
6.54407
5.67715
4.36006
2.77529
1.18762
-0.124283
-0.958042
-1.04132
-0.925472
-0.611968
-0.229721
0.0763475
0.215332
0.281121
0.339104
0.399065
0.463911
0.53535
0.611086
0.684452
0.747415
0.793199
0.818536
0.82492
0.818541
0.808966
0.806953
0.821421
0.856283
0.911548
0.984488
1.07074
1.16579
1.26548
1.36706
1.46983
1.5751
1.68563
1.80459
1.93447
2.07594
2.22774
2.38692
2.5491
2.70916
2.86192
3.00259
3.12712
3.23218
3.31467
3.37124
3.39911
3.39692
3.36299
3.29574
3.19438
3.05943
2.89298
2.69849
2.48033
2.24386
1.99549
1.74042
1.48255
1.22579
0.974228
0.731988
0.502988
0.290603
0.0975311
-0.074493
-0.225134
-0.355102
-0.465895
-0.559441
-0.637737
-0.702175
-0.754105
-0.794384
-0.823481
-0.841692
-0.849374
-0.847139
-0.835946
-0.817075
-0.792023
-0.76245
-0.729734
-0.694978
-0.659051
-0.622686
-0.586641
-0.551978
-0.520336
-0.493377
-0.472391
-0.457644
-0.447843
-0.440076
-0.430386
-0.414846
-0.390764
-0.357545
-0.317551
-0.273717
-0.229229
-0.186853
-0.148327
-0.114146
-0.0837341
-0.055846
-0.0289925
-0.00178986
0.0268105
0.0575035
0.0905373
0.125638
0.161974
0.198198
0.232635
0.263709
0.290369
0.312398
0.330472
0.345934
0.360353
0.375018
0.39054
0.406757
0.422878
0.437776
0.450488
0.460632
0.468584
0.475373
0.482317
0.490545
0.50062
0.51234
0.52482
0.536958
0.54792
0.557475
0.566024
0.574329
0.58307
0.592459
0.602104
0.611282
0.619224
0.625501
0.63038
0.634974
0.641158
0.65125
0.667505
0.692931
0.730934
0.778861
0.825663
0.858198
0.866569
0.848935
0.813531
0.77664
0.75705
0.769109
0.81301
0.880758
0.962298
1.04168
1.10345
1.13667
1.13738
1.10897
1.06059
1.00413
0.950703
0.90713
0.8744
0.850673
0.834445
0.824104
0.818839
0.819088
0.82635
0.84248
0.868767
0.905088
0.949136
0.998074
1.04917
1.09998
1.14882
1.19499
1.2388
1.2812
1.32332
1.36602
1.40951
1.45311
1.49527
1.53373
1.56581
1.58859
1.59872
1.59339
1.57062
1.52922
1.4691
1.39146
1.29887
1.19529
1.08575
0.975934
0.871334
0.776273
0.694492
0.629241
0.58411
0.561015
0.554977
0.55532
0.550174
0.529358
0.486904
0.422392
0.340645
0.249945
0.159347
0.0754562
0
-0.0239349
0.44856
1.31681
2.56867
4.02957
5.39636
6.36133
6.73692
6.49701
5.72588
4.54674
3.09715
1.55203
0.131701
-0.948322
-1.25425
-1.2495
-1.18276
-1.06187
-0.90583
-0.740174
-0.590363
-0.468372
-0.37231
-0.305385
-0.267567
-0.255948
-0.265269
-0.288493
-0.317419
-0.343494
-0.359388
-0.359612
-0.331981
-0.253266
-0.112502
0.0559761
0.205646
0.29363
0.296203
0.218485
0.0949829
-0.0193672
-0.0658325
-0.012896
0.107653
0.266022
0.449853
0.651787
0.863882
1.07843
1.28877
1.48752
1.66763
1.82503
1.95674
2.06065
2.13539
2.18021
2.19478
2.17893
2.13251
2.05671
1.95458
1.82828
1.679
1.5084
1.31917
1.11452
0.896751
0.667599
0.428873
0.182675
-0.0683533
-0.320917
-0.571141
-0.814897
-1.04831
-1.26831
-1.47308
-1.66217
-1.83627
-1.99669
-2.14464
-2.28057
-2.40373
-2.51185
-2.60214
-2.67172
-2.718
-2.738
-2.73166
-2.70396
-2.66296
-2.61742
-2.57515
-2.54179
-2.52026
-2.51098
-2.51261
-2.52288
-2.53919
-2.55924
-2.58135
-2.60441
-2.62777
-2.65118
-2.67491
-2.69995
-2.72786
-2.76052
-2.79948
-2.84538
-2.89736
-2.95297
-3.00841
-3.05932
-3.10179
-3.13368
-3.15368
-3.16211
-3.16081
-3.15268
-3.1412
-3.12982
-3.12156
-3.11882
-3.12324
-3.13579
-3.15689
-3.18651
-3.2242
-3.26919
-3.3204
-3.37639
-3.43541
-3.4954
-3.55422
-3.60975
-3.66006
-3.70366
-3.73954
-3.76734
-3.78741
-3.80076
-3.80904
-3.81432
-3.81894
-3.82525
-3.83535
-3.85082
-3.87254
-3.90058
-3.93424
-3.97224
-4.01296
-4.05479
-4.09625
-4.13618
-4.17361
-4.20763
-4.23722
-4.26131
-4.279
-4.28961
-4.2932
-4.29174
-4.28898
-4.28929
-4.29651
-4.31267
-4.33731
-4.36739
-4.3981
-4.42412
-4.44145
-4.44673
-4.43936
-4.42058
-4.39168
-4.35214
-4.29815
-4.22199
-4.1126
-3.95721
-3.74363
-3.46983
-3.13822
-2.74937
-2.30834
-1.7993
-1.19219
-0.552737
0.0185485
0.451743
0.72305
0.850592
0.875197
0.837664
0.765649
0.675863
0.584414
0.501545
0.431554
0.375126
0.329791
0.292059
0.259752
0.232446
0.210483
0.194787
0.186403
0.186225
0.194307
0.208276
0.223065
0.232484
0.230639
0.213337
0.179048
0.129174
0.0676286
0
-0.0510219
0.227899
0.894432
1.86459
3.03743
4.25665
5.34461
6.1345
6.48441
6.28783
5.50312
4.20184
2.59728
1.00661
-0.25454
-0.984523
-0.809576
-0.610373
-0.399166
-0.193467
-0.016385
0.114508
0.209613
0.283146
0.340215
0.386904
0.428917
0.470553
0.513923
0.559774
0.607953
0.657701
0.708291
0.759489
0.811772
0.866243
0.924212
0.987351
1.05701
1.13028
1.20151
1.26553
1.32119
1.37372
1.43472
1.5191
1.64016
1.80468
2.00099
2.21582
2.4409
2.66627
2.87963
3.07078
3.23297
3.36347
3.46326
3.53598
3.58625
3.61788
3.63221
3.62732
3.59896
3.54077
3.4468
3.3136
3.14159
2.93549
2.70345
2.45555
2.20253
1.95189
1.70923
1.47878
1.26363
1.06606
0.887859
0.730391
0.594387
0.479669
0.385215
0.308901
0.245963
0.189697
0.133527
0.0724503
0.00425377
-0.0699394
-0.145994
-0.217913
-0.279478
-0.325344
-0.351787
-0.359845
-0.353284
-0.337152
-0.316317
-0.294514
-0.274131
-0.256576
-0.242826
-0.233417
-0.22901
-0.230374
-0.238037
-0.252192
-0.272673
-0.298977
-0.330004
-0.364313
-0.400251
-0.435714
-0.468274
-0.495496
-0.515292
-0.526147
-0.52773
-0.521947
-0.512813
-0.505001
-0.50257
-0.507797
-0.520437
-0.537673
-0.554802
-0.566479
-0.568381
-0.556804
-0.530788
-0.494861
-0.456511
-0.423803
-0.403087
-0.397295
-0.405292
-0.422423
-0.442038
-0.457499
-0.464668
-0.462915
-0.45392
-0.439906
-0.423887
-0.40932
-0.39966
-0.398024
-0.406969
-0.428295
-0.462663
-0.509314
-0.56657
-0.631482
-0.700005
-0.767337
-0.828592
-0.879486
-0.916891
-0.939174
-0.946249
-0.939403
-0.920924
-0.893572
-0.860817
-0.826389
-0.794051
-0.767472
-0.750353
-0.745901
-0.755975
-0.780773
-0.818381
-0.86464
-0.913744
-0.958
-0.990229
-1.00398
-0.995249
-0.967862
-0.929537
-0.889384
-0.855689
-0.834854
-0.831585
-0.84948
-0.891065
-0.956007
-1.04122
-1.13891
-1.23665
-1.31907
-1.3413
-1.17128
-0.771961
-0.328815
0.0219902
0.220215
0.253011
0.128046
-0.127393
-0.448144
-0.721955
-0.81403
-0.743205
-0.584863
-0.381819
-0.193306
-0.0730301
-0.0514954
-0.130003
-0.28429
-0.472008
-0.641696
-0.749238
-0.798426
-0.81209
-0.806019
-0.786411
-0.760599
-0.735917
-0.718698
-0.713575
-0.723172
-0.748127
-0.78735
-0.838055
-0.896519
-0.959355
-1.02316
-1.0816
-0.727935
0
0.991746
2.15962
3.40695
4.60364
5.5622
6.05558
5.89012
5.00022
3.51447
1.74898
0.113586
-1.03724
-1.53969
-1.33441
-1.04438
-0.764587
-0.524551
-0.349234
-0.252317
-0.231656
-0.267986
-0.327841
-0.371516
-0.365366
-0.300145
-0.197401
-0.0786499
0.0445763
0.162009
0.265954
0.352499
0.421672
0.47664
0.522353
0.564114
0.60645
0.65217
0.703178
0.760883
0.826405
0.90089
0.985672
1.08236
1.1927
1.31836
1.46059
1.61984
1.79557
1.98613
2.18888
2.40094
2.61956
2.8401
3.05241
3.24261
3.396
3.49826
3.53952
3.51832
3.44337
3.33179
3.20389
3.0754
2.94957
2.82015
2.68104
2.52808
2.35735
2.16817
1.96365
1.75038
1.53708
1.33274
1.14354
0.974328
0.826174
0.697184
0.583535
0.480828
0.385398
0.295245
0.210434
0.132939
0.0662071
0.0143555
-0.0191483
-0.0321648
-0.0245445
0.00399551
0.0516891
0.108601
0.163139
0.204801
0.226456
0.225654
0.204572
0.168758
0.125236
0.0807167
0.0397949
0.00465088
-0.0232086
-0.0423767
-0.0515656
-0.0496864
-0.0353409
-0.00530777
0.0443726
0.107623
0.167808
0.205727
0.206215
0.164345
0.0880814
-0.00413742
-0.0899223
-0.150592
-0.183472
-0.196839
-0.195095
-0.180898
-0.157394
-0.127834
-0.0950554
-0.0612984
-0.0284798
0.00166092
0.0274223
0.0471886
0.05951
0.0631455
0.0571663
0.0410553
0.014798
-0.0210495
-0.065271
-0.116029
-0.171187
-0.226328
-0.275505
-0.312837
-0.33378
-0.336262
-0.321234
-0.292397
-0.255192
-0.215438
-0.177975
-0.145155
-0.117813
-0.0963577
-0.0805107
-0.0694374
-0.0619743
-0.0568436
-0.0528854
-0.0492744
-0.0456886
-0.0424057
-0.0403412
-0.040934
-0.0457397
-0.0560066
-0.0721962
-0.0936165
-0.118262
-0.142966
-0.163826
-0.17689
-0.179205
-0.169115
-0.145979
-0.110182
-0.0658211
-0.0200836
0.0196358
0.0474724
0.0604378
0.0589684
0.0464851
0.0280693
0.00865402
-0.00866928
-0.0234467
-0.0380852
-0.0563164
-0.0810692
-0.112543
-0.147382
-0.179395
-0.201608
-0.208749
-0.199989
-0.177057
-0.143923
-0.104791
-0.0621216
-0.015625
0.0373512
0.100224
0.175116
0.261149
0.353195
0.446044
0.534417
0.613271
0.678447
0.726951
0.756484
0.765013
0.752202
0.718423
0.664959
0.594338
0.510539
0.418924
0.325805
0.237747
0.160421
0.0975616
0.0533043
0.0368118
0.0765541
0.217293
0.426669
0.636685
0.767611
0.760192
0.602477
0.33389
0.025843
-0.249534
-0.450208
-0.560912
0
1.09516
2.662
4.44643
6.09716
7.30539
7.90075
7.84927
7.19262
6.00799
4.4268
2.67191
1.04376
-0.17124
-0.816944
-0.743738
-0.549332
-0.352963
-0.175336
-0.035704
0.0530983
0.0887505
0.0812775
0.051527
0.0260471
0.0293667
0.0759525
0.156546
0.263192
0.37615
0.474536
0.543716
0.580087
0.591353
0.592579
0.600181
0.626743
0.67271
0.733897
0.808511
0.8953
0.992624
1.09875
1.21214
1.33167
1.45694
1.58845
1.7277
1.87684
2.03812
2.21296
2.40112
2.60166
2.81032
3.01369
3.19491
3.33888
3.43581
3.48302
3.48435
3.44775
3.38206
3.29411
3.18892
3.06873
2.93286
2.77874
2.60299
2.40254
2.17571
1.92245
1.64455
1.34597
1.03268
0.71192
0.392746
0.0886402
-0.184637
-0.415635
-0.597264
-0.72628
-0.80303
-0.831151
-0.817326
-0.771062
-0.704202
-0.629902
-0.560665
-0.505211
-0.467172
-0.445944
-0.441009
-0.450083
-0.469915
-0.497174
-0.529004
-0.563563
-0.600101
-0.638577
-0.679204
-0.722032
-0.766558
-0.811457
-0.854187
-0.890754
-0.91689
-0.928984
-0.925228
-0.903824
-0.86888
-0.828498
-0.791047
-0.762223
-0.743116
-0.730119
-0.716684
-0.696105
-0.664093
-0.62213
-0.573747
-0.522095
-0.470867
-0.424386
-0.388122
-0.36528
-0.357129
-0.362339
-0.376485
-0.392191
-0.400295
-0.391957
-0.361076
-0.306102
-0.234446
-0.151341
-0.0623344
0.0276142
0.115398
0.199718
0.280807
0.359805
0.43793
0.51568
0.59212
0.664103
0.727052
0.776123
0.807714
0.820641
0.816647
0.800134
0.777278
0.754858
0.738848
0.73261
0.737877
0.755704
0.785946
0.827153
0.876835
0.931549
0.987178
1.03951
1.08464
1.11915
1.14053
1.14765
1.14058
1.12043
1.08912
1.0491
1.00289
0.952649
0.899814
0.844999
0.788054
0.728422
0.665594
0.599509
0.530733
0.460383
0.389825
0.320274
0.252359
0.186214
0.121444
0.0572674
-0.00725517
-0.0728005
-0.139408
-0.206222
-0.271402
-0.332342
-0.386174
-0.4304
-0.463468
-0.48513
-0.496515
-0.499897
-0.498212
-0.49456
-0.491937
-0.492429
-0.49687
-0.504697
-0.514071
-0.522284
-0.526372
-0.523825
-0.513383
-0.495627
-0.472065
-0.444894
-0.417172
-0.392158
-0.372851
-0.361664
-0.360245
-0.369444
-0.389335
-0.419251
-0.457751
-0.502499
-0.550562
-0.598399
-0.642172
-0.678231
-0.703474
-0.715207
-0.711351
-0.692639
-0.666875
-0.645697
-0.640307
-0.658433
-0.702186
-0.767568
-0.845854
-0.926445
-1.00022
-1.06389
-1.11945
-1.16228
-0.783299
0
1.1924
2.66724
4.19063
5.49414
6.34027
6.56583
6.10677
5.01419
3.46095
1.72687
0.147604
-0.974257
-1.47283
-1.28409
-1.10012
-0.940846
-0.826536
-0.766837
-0.757375
-0.781053
-0.813223
-0.828739
-0.810949
-0.763741
-0.690796
-0.589401
-0.474095
-0.362087
-0.266529
-0.190793
-0.125689
-0.0510429
0.0585157
0.225432
0.461724
0.747804
1.06496
1.40154
1.74699
2.09142
2.42688
2.74813
3.05275
3.34066
3.61331
3.87272
4.12071
4.35843
4.58624
4.80384
5.0106
5.2058
5.38858
5.55729
5.70889
5.83938
5.94584
6.02518
6.07388
6.08865
6.0669
6.00693
5.90773
5.76869
5.58949
5.37369
5.12682
4.85439
4.56233
4.25737
3.94671
3.63814
3.33959
3.05832
2.80029
2.56948
2.36793
2.19601
2.05297
1.93749
1.84815
1.78597
1.75615
1.76311
1.7982
1.84351
1.8797
1.89138
1.87184
1.82492
1.76348
1.70503
1.66602
1.65258
1.66011
1.68791
1.72835
1.76944
1.79877
1.80638
1.78689
1.74083
1.67464
1.59962
1.52977
1.47763
1.44972
1.44639
1.46673
1.50711
1.56126
1.62161
1.68085
1.73372
1.7771
1.80929
1.82998
1.83974
1.8395
1.83033
1.81286
1.78737
1.75395
1.71273
1.66398
1.60833
1.54695
1.48154
1.41447
1.34925
1.29095
1.24492
1.21584
1.2067
1.21794
1.24695
1.28837
1.33503
1.37941
1.41505
1.43896
1.44951
1.44645
1.43074
1.40412
1.36908
1.32829
1.28408
1.23878
1.19473
1.15389
1.11781
1.08702
1.06051
1.03624
1.01172
0.984753
0.954169
0.920262
0.884834
0.850829
0.821603
0.799767
0.786966
0.784096
0.789556
0.798277
0.803223
0.797433
0.775814
0.73661
0.682108
0.618346
0.553826
0.497502
0.455724
0.433432
0.433866
0.449915
0.470812
0.485872
0.487954
0.475351
0.451492
0.422821
0.396
0.375704
0.362617
0.356654
0.358428
0.368764
0.388586
0.418419
0.46037
0.510544
0.561031
0.603078
0.630357
0.641541
0.640858
0.636336
0.636516
0.647088
0.666704
0.692895
0.720272
0.742385
0.75371
0.751117
0.734487
0.706345
0.670653
0.631208
0.590262
0.54804
0.503559
0.455403
0.402574
0.345198
0.284772
0.223918
0.16575
0.112986
0.0669283
0.0279436
-0.00494804
-0.0338215
-0.0614037
-0.0905592
-0.123809
-0.16296
-0.209021
-0.262728
-0.323323
-0.387674
-0.451945
-0.512431
-0.537373
0
1.03295
2.46269
4.03123
5.4066
6.31111
6.61064
6.32045
5.54148
4.3938
2.99823
1.50287
0.102747
-0.993165
-1.46877
-1.40322
-1.30568
-1.18497
-1.05604
-0.936192
-0.83917
-0.763631
-0.702169
-0.651237
-0.60619
-0.562614
-0.51741
-0.469561
-0.419687
-0.369164
-0.319661
-0.272684
-0.229163
-0.189225
-0.152131
-0.116337
-0.0796387
-0.0393272
0.00762215
0.0643539
0.133905
0.218956
0.321577
0.442997
0.583409
0.74189
0.916367
1.10367
1.29966
1.49947
1.6978
1.88929
2.06879
2.23152
2.37378
2.49335
2.58916
2.66109
2.70956
2.73509
2.73779
2.71702
2.67126
2.59849
2.49652
2.36301
2.19626
1.99608
1.7643
1.50534
1.22593
0.934471
0.640636
0.354426
0.0852188
-0.159072
-0.372566
-0.551665
-0.695011
-0.80302
-0.874748
-0.904766
-0.890578
-0.846422
-0.792364
-0.747876
-0.727644
-0.738368
-0.777964
-0.837513
-0.90513
-0.970309
-1.02861
-1.0809
-1.12924
-1.17562
-1.22158
-1.26788
-1.31409
-1.35862
-1.39908
-1.4328
-1.45653
-1.46918
-1.4737
-1.47476
-1.47678
-1.48184
-1.48844
-1.49152
-1.48377
-1.45766
-1.39815
-1.28598
-1.12369
-0.947281
-0.797002
-0.704434
-0.687406
-0.748756
-0.876297
-1.04354
-1.21317
-1.34583
-1.4265
-1.46747
-1.48431
-1.48607
-1.47648
-1.45868
-1.43513
-1.40739
-1.3764
-1.34279
-1.30751
-1.27337
-1.24509
-1.22801
-1.2263
-1.2413
-1.27057
-1.30827
-1.34669
-1.37834
-1.39855
-1.40762
-1.40678
-1.39752
-1.38233
-1.36402
-1.34595
-1.33113
-1.32149
-1.31748
-1.31794
-1.32047
-1.32202
-1.31993
-1.31233
-1.29931
-1.28315
-1.26701
-1.25348
-1.24343
-1.23547
-1.22638
-1.21214
-1.18921
-1.15676
-1.11579
-1.06755
-1.01373
-0.957314
-0.902803
-0.855003
-0.81826
-0.79586
-0.789594
-0.799561
-0.824209
-0.860525
-0.904272
-0.950059
-0.992186
-1.02431
-1.04041
-1.03554
-1.00675
-0.953859
-0.879778
-0.790215
-0.69287
-0.596223
-0.507762
-0.433634
-0.378021
-0.34295
-0.32851
-0.333342
-0.355277
-0.391923
-0.441034
-0.500411
-0.567824
-0.64076
-0.716233
-0.790648
-0.859786
-0.918826
-0.959458
-0.968365
-0.94641
-0.909752
-0.879455
-0.872413
-0.893693
-0.934246
-0.975035
-0.995185
-0.979898
-0.935072
-0.871429
-0.794249
-0.706977
-0.611451
-0.465365
0
0.844018
2.05373
3.47322
4.82563
5.79137
6.11878
5.71643
4.6783
3.23905
1.69359
0.317898
-0.691239
-1.25358
-1.25331
-1.21122
-1.15374
-1.0803
-0.991038
-0.886504
-0.770349
-0.647832
-0.523616
-0.4024
-0.289019
-0.187299
-0.0987122
-0.0239494
0.0369358
0.0861012
0.127121
0.16465
0.203994
0.250557
0.30918
0.383424
0.474951
0.583138
0.704602
0.835654
0.971841
1.10909
1.24513
1.38007
1.5163
1.6577
1.80826
1.97066
2.14513
2.32856
2.51581
2.70084
2.87752
3.04086
3.18799
3.31872
3.43547
3.54235
3.64463
3.75178
3.88265
4.04683
4.21423
4.33704
4.36671
4.27067
4.04397
3.71119
3.31726
2.9121
2.53391
2.18647
1.86382
1.56919
1.30779
1.08436
0.912752
0.806194
0.750257
0.724373
0.707433
0.683599
0.645968
0.596722
0.54407
0.497713
0.464397
0.442908
0.430941
0.427277
0.43078
0.440277
0.454792
0.473662
0.496593
0.523612
0.555051
0.59145
0.633391
0.681532
0.736882
0.799365
0.863869
0.920947
0.96023
0.973879
0.959707
0.922557
0.873334
0.826102
0.794448
0.785341
0.797344
0.827768
0.879112
0.955155
1.05604
1.16768
1.26635
1.32738
1.33157
1.27164
1.15616
1.0086
0.860974
0.743607
0.667304
0.620444
0.591502
0.575685
0.567902
0.563185
0.557359
0.547361
0.531254
0.508102
0.477888
0.441897
0.401983
0.361312
0.325331
0.300645
0.293741
0.309375
0.35065
0.424726
0.517222
0.606696
0.672401
0.701057
0.690503
0.648745
0.589206
0.524717
0.46314
0.404922
0.348516
0.292808
0.236977
0.180946
0.125579
0.0726421
0.0245087
-0.0157188
-0.0453934
-0.0626305
-0.0668354
-0.0587849
-0.0402046
-0.0159435
0.00852432
0.0284355
0.0409008
0.0455051
0.0441319
0.0400894
0.0368671
0.0368252
0.040139
0.0457088
0.0509483
0.0517864
0.0437332
0.02286
-0.0131905
-0.064341
-0.127779
-0.19874
-0.26647
-0.318951
-0.345607
-0.339812
-0.30041
-0.2318
-0.142639
-0.0436523
0.0547077
0.145914
0.227025
0.295597
0.350677
0.392589
0.422603
0.442563
0.454495
0.460226
0.461048
0.457333
0.448594
0.433714
0.411143
0.379389
0.337508
0.285438
0.224104
0.155282
0.081287
0.00465965
-0.0721943
-0.147073
-0.217735
-0.282269
-0.339022
-0.386598
-0.423984
-0.450698
-0.466932
-0.473627
-0.472468
-0.438342
0
0.905536
2.29771
4.01756
5.74559
7.09792
7.76299
7.61151
6.71923
5.30608
3.64312
1.98481
0.542884
-0.525362
-1.13321
-0.976079
-0.802396
-0.62725
-0.466947
-0.340167
-0.259406
-0.224543
-0.222039
-0.230284
-0.228294
-0.203211
-0.158381
-0.10236
-0.0394516
0.0279373
0.0983217
0.171277
0.247137
0.326418
0.409208
0.494833
0.581872
0.66793
0.750786
0.829502
0.905209
0.981298
1.06288
1.15567
1.26452
1.39227
1.53767
1.69724
1.86726
2.04351
2.22166
2.39781
2.56876
2.73205
2.88567
3.02793
3.15673
3.26869
3.35838
3.42009
3.44861
3.43859
3.38608
3.29004
3.1532
2.98185
2.7846
2.57068
2.34936
2.12681
1.90626
1.68998
1.47955
1.27591
1.07955
0.890659
0.709584
0.538249
0.380692
0.241539
0.125761
0.0383831
-0.0170881
-0.0399843
-0.0330734
-0.00226593
0.0443932
0.0980974
0.150774
0.197445
0.235059
0.262006
0.278457
0.286151
0.287926
0.287052
0.286496
0.288283
0.293019
0.30031
0.308757
0.316605
0.322345
0.325183
0.325238
0.323451
0.321276
0.32029
0.3218
0.326604
0.335185
0.347839
0.364712
0.385922
0.411648
0.442171
0.477835
0.51897
0.565714
0.618099
0.675791
0.736554
0.795362
0.845919
0.882066
0.899336
0.896279
0.87519
0.842062
0.805779
0.776677
0.763218
0.770124
0.801449
0.867918
0.966968
1.07689
1.17217
1.23152
1.24413
1.21223
1.14943
1.07585
1.01191
0.970981
0.952808
0.952443
0.965678
0.989242
1.02002
1.05484
1.0907
1.12484
1.15477
1.17859
1.19491
1.20299
1.20283
1.19527
1.18193
1.1651
1.14741
1.13138
1.11886
1.11089
1.10747
1.10698
1.10661
1.10312
1.09372
1.07682
1.05266
1.02363
0.994204
0.970452
0.95889
0.965358
0.997774
1.08323
1.25583
1.48633
1.7141
1.88224
1.9576
1.93822
1.84706
1.71861
1.58841
1.4917
1.44669
1.45148
1.50099
1.59074
1.71451
1.86653
2.03968
2.21996
2.39014
2.53513
2.64494
2.71584
2.75013
2.75461
2.73818
2.70896
2.67197
2.6279
2.57408
2.50592
2.42007
2.31345
2.19332
2.07652
1.98238
1.92614
1.91422
1.94315
2.00223
2.07778
2.1567
2.22992
2.28851
2.32526
2.33403
2.31083
2.25523
2.17161
2.0692
1.96098
1.99646
2.61145
3.72747
5.19562
6.74579
8.07486
8.93813
122
338
558
785
995
1214
1429
1654
1894
2118
2346
2581
2825
3064
3290
3520
3580
2668
2824
2981
3139
3301
3463
3621
2647
2743
2803
2915
3016
3080
3173
3204
3237
3301
3400
3604
3659
3723
3614
3699
3176
3208
3259
3311
3379
3434
3601
0
0
0
0
0
0
0
0
0
0
0
0
0
0
0
0
0
0
0
0
0
0
0
0
0
0
0
0
0
0
0
0
0
0
0
0
0
0
0
0
0
0
0
0
0
0
0
0
0
0
0
0
0
0
0
0
0
0
0
0
0
0
0
0
0
0
0
0
0
0
0
0
0
0
0
0
0
0
0
0
0
0
0
0
0
0
0
0
0
0
0
0
0
0
0
0
0
0
0
0
0
0
0
0
0
0
0
0
0
0
0
0
0
0
0
0
0
0
0
0
0
0
0
0
0
0
0
0
0
0
0
0
0
0
0
0
0
0
0
0
0
0
0
0
0
0
0
0
0
0
0
0
0
0
0
0
0
0
0
0
0
0
0
0
0
0
0
0
0
0
0
0
0
0
0
0
0
0
0
0
0
0
0
0
0
0
0
0
0
0
0
0
0
0
0
0
0
0
0
0
0
0
0
0
0
0
0
0
0
0
0
0
0
0
0
0
0
0
0
0
0
0
0
0
0
0
0
0
0
0
0
0
0
0
0
0
0
0
0
0
0
0
0
0
0
0
0
0
0
0
0
0
0
0
0
0
0
0
0
0
0
0
0
0
0
0
0
0
0
0
0
0
0
0
0
0
0
0
0
0
0
0
0
0
0
0
0
0
0
0
0
0
0
0
0
0
0
0
0
0
0
0
0
0
0
0
0
0
0
0
0
0
0
0
0
0
0
0
0
0
0
0
0
0
0
0
0
0
0
0
0
0
0
0
0
0
0
0
0
0
0
0
0
0
0
0
0
0
0
0
0
0
0
0
0
0
0
0
0
0
0
0
0
0
0
0
0
0
0
0
0
0
0
0
0
0
0
0
0
0
0
0
0
0
0
0
0
0
0
0
0
0
0
0
0
0
0
0
0
0
0
0
0
0
0
0
0
0
0
0
0
0
0
0
0
0
0
0
0
0
0
0
0
0
0
0
0
0
0
0
0
0
0
0
0
0
0
0
0
0
0
0
0
0
0
0
0
0
0
0
0
0
0
0
0
0
0
0
0
0
0
0
0
0
0
0
0
0
0
0
0
0
0
0
0
0
0
0
0
0
0
0
0
0
0
0
0
0
0
0
0
0
0
0
0
0
0
0
0
0
0
0
0
0
0
0
0
0
0
0
0
0
0
0
0
0
0
0
0
0
0
0
0
0
0
0
0
0
0
0
0
0
0
0
0
0
0
0
0
0
0
0
0
0
0
0
0
0
0
0
0
0
0
0
0
0
0
0
0
0
0
0
0
0
0
0
0
0
0
0
0
0
0
0
0
0
0
0
0
0
0
0
0
0
0
0
0
0
0
0
0
0
0
0
0
0
0
0
0
0
0
0
0
0
0
0
0
0
0
0
0
0
0
0
0
0
0
0
0
0
0
0
0
0
0
0
0
0
0
0
0
0
0
0
0
0
0
0
0
0
0
0
0
0
0
0
0
0
0
0
0
0
0
0
0
0
0
0
0
0
0
0
0
0
0
0
0
0
0
0
0
0
0
0
0
0
0
0
0
0
0
0
0
0
0
0
0
0
0
0
0
0
0
0
0
0
0
0
0
0
0
0
0
0
0
0
0
0
0
0
0
0
0
0
0
0
0
0
0
0
0
0
0
0
0
0
0
0
0
0
0
0
0
0
0
0
0
0
0
0
0
0
0
0
0
0
0
0
0
0
0
0
0
0
0
0
0
0
0
0
0
0
0
0
0
0
0
0
0
0
0
0
0
0
0
0
0
0
0
0
0
0
0
0
0
0
0
0
0
0
0
0
0
0
0
0
0
0
0
0
0
0
0
0
0
0
0
0
0
0
0
0
0
0
0
0
0
0
0
0
0
0
0
0
0
0
0
0
0
0
0
0
0
0
0
0
0
0
0
0
0
0
0
0
0
0
0
0
0
0
0
0
0
0
0
0
0
0
0
0
0
0
0
0
0
0
0
0
0
0
0
0
0
0
0
0
0
0
0
0
0
0
0
0
0
0
0
0
0
0
0
0
0
0
0
0
0
0
0
0
0
0
0
0
0
0
0
0
0
0
0
0
0
0
0
0
0
0
0
0
0
0
0
0
0
0
0
0
0
0
0
0
0
0
0
0
0
0
0
0
0
0
0
0
0
0
0
0
0
0
0
0
0
0
0
0
0
0
0
0
0
0
0
0
0
0
0
0
0
0
0
0
0
0
0
0
0
0
0
0
0
0
0
0
0
0
0
0
0
0
0
0
0
0
0
0
0
0
0
0
0
0
0
0
0
0
0
0
0
0
0
0
0
0
0
0
0
0
0
0
0
0
0
0
0
0
0
0
0
0
0
0
0
0
0
0
0
0
0
0
0
0
0
0
0
0
0
0
0
0
0
0
0
0
0
0
0
0
0
0
0
0
0
0
0
0
0
0
0
0
0
0
0
0
0
0
0
0
0
0
0
0
0
0
0
0
0
0
0
0
0
0
0
0
0
0
0
0
0
0
0
0
0
0
0
0
0
0
0
0
0
0
0
0
0
0
0
0
0
0
0
0
0
0
0
0
0
0
0
0
0
0
0
0
0
0
0
0
0
0
0
0
0
0
0
0
0
0
0
0
0
0
0
0
0
0
0
0
0
0
0
0
0
0
0
0
0
0
0
0
0
0
0
0
0
0
0
0
0
0
0
0
0
0
0
0
0
0
0
0
0
0
0
0
0
0
0
0
0
0
0
0
0
0
0
0
0
0
0
0
0
0
0
0
0
0
0
0
0
0
0
0
0
0
0
0
0
0
0
0
0
0
0
0
0
0
0
0
0
0
0
0
0
0
0
0
0
0
0
0
0
0
0
0
0
0
0
0
0
0
0
0
0
0
0
0
0
0
0
0
0
0
0
0
0
0
0
0
0
0
0
0
0
0
0
0
0
0
0
0
0
0
0
0
0
0
0
0
0
0
0
0
0
0
0
0
0
0
0
0
0
0
0
0
0
0
0
0
0
0
0
0
0
0
0
0
0
0
0
0
0
0
0
0
0
0
0
0
0
0
0
0
0
0
0
0
0
0
0
0
0
0
0
0
0
0
0
0
0
0
0
0
0
0
0
0
0
0
0
0
0
0
0
0
0
0
0
0
0
0
0
0
0
0
0
0
0
0
0
0
0
0
0
0
0
0
0
0
0
0
0
0
0
0
0
0
0
0
0
0
0
0
0
0
0
0
0
0
0
0
0
0
0
0
0
0
0
0
0
0
0
0
0
0
0
0
0
0
0
0
0
0
0
0
0
0
0
0
0
0
0
0
0
0
0
0
0
0
0
0
0
0
0
0
0
0
0
0
0
0
0
0
0
0
0
0
0
0
0
0
0
0
0
0
0
0
0
0
0
0
0
0
0
0
0
0
0
0
0
0
0
0
0
0
0
0
0
0
0
0
0
0
0
0
0
0
0
0
0
0
0
0
0
0
0
0
0
0
0
0
0
0
0
0
0
0
0
0
0
0
0
0
0
0
0
0
0
0
0
0
0
0
0
0
0
0
0
0
0
0
0
0
0
0
0
0
0
0
0
0
0
0
0
0
0
0
0
0
0
0
0
0
0
0
0
0
0
0
0
0
0
0
0
0
0
0
0
0
0
0
0
0
0
0
0
0
0
0
0
0
0
0
0
0
0
0
0
0
0
0
0
0
0
0
0
0
0
0
0
0
0
0
0
0
0
0
0
0
0
0
0
0
0
0
0
0
0
0
0
0
0
0
0
0
0
0
0
0
0
0
0
0
0
0
0
0
0
0
0
0
0
0
0
0
0
0
0
0
0
0
0
0
0
0
0
0
0
0
0
0
0
0
0
0
0
0
0
0
0
0
0
0
0
0
0
0
0
0
0
0
0
0
0
0
0
0
0
0
0
0
0
0
0
0
0
0
0
0
0
0
0
0
0
0
0
0
0
0
0
0
0
0
0
0
0
0
0
0
0
0
0
0
0
0
0
0
0
0
0
0
0
0
0
0
0
0
0
0
0
0
0
0
0
0
0
0
0
0
0
0
0
0
0
0
0
0
0
0
0
0
0
0
0
0
0
0
0
0
0
0
0
0
0
0
0
0
0
0
0
0
0
0
0
0
0
0
0
0
0
0
0
0
0
0
0
0
0
0
0
0
0
0
0
0
0
0
0
0
0
0
0
0
0
0
0
0
0
0
0
0
0
0
0
0
0
0
0
0
0
0
0
0
0
0
0
0
0
0
0
0
0
0
0
0
0
0
0
0
0
0
0
0
0
0
0
0
0
0
0
0
0
0
0
0
0
0
0
0
0
0
0
0
0
0
0
0
0
0
0
0
0
0
0
0
0
0
0
0
0
0
0
0
0
0
0
0
0
0
0
0
0
0
0
0
0
0
0
0
0
0
0
0
0
0
0
0
0
0
0
0
0
0
0
0
0
0
0
0
0
0
0
0
0
0
0
0
0
0
0
0
0
0
0
0
0
0
0
0
0
0
0
0
0
0
0
0
0
0
0
0
0
0
0
0
0
0
0
0
0
0
0
0
0
0
0
0
0
0
0
0
0
0
0
0
0
0
0
0
0
0
0
0
0
0
0
0
0
0
0
0
0
0
0
0
0
0
0
0
0
0
0
0
0
0
0
0
0
0
0
0
0
0
0
0
0
0
0
0
0
0
0
0
0
0
0
0
0
0
0
0
0
0
0
0
0
0
0
0
0
0
0
0
0
0
0
0
0
0
0
0
0
0
0
0
0
0
0
0
0
0
0
0
0
0
0
0
0
0
0
0
0
0
0
0
0
0
0
0
0
0
0
0
0
0
0
0
0
0
0
0
0
0
0
0
0
0
0
0
0
0
0
0
0
0
0
0
0
0
0
0
0
0
0
0
0
0
0
0
0
0
0
0
0
0
0
0
0
0
0
0
0
0
0
0
0
0
0
0
0
0
0
0
0
0
0
0
0
0
0
0
0
0
0
0
0
0
0
0
0
0
0
0
0
0
0
0
0
0
0
0
0
0
0
0
0
0
0
0
0
0
0
0
0
0
0
0
0
0
0
0
0
0
0
0
0
0
0
0
0
0
0
0
0
0
0
0
0
0
0
0
0
0
0
0
0
0
0
0
0
0
0
0
0
0
0
0
0
0
0
0
0
0
0
0
0
0
0
0
0
0
0
0
0
0
0
0
0
0
0
0
0
0
0
0
0
0
0
0
0
0
0
0
0
0
0
0
0
0
0
0
0
0
0
0
0
0
0
0
0
0
0
0
0
0
0
0
0
0
0
0
0
0
0
0
0
0
0
0
0
0
0
0
0
0
0
0
0
0
0
0
0
0
0
0
0
0
0
0
0
0
0
0
0
0
0
0
0
0
0
0
0
0
0
0
0
0
0
0
0
0
0
0
0
0
0
0
0
0
0
0
0
0
0
0
0
0
0
0
0
0
0
0
0
0
0
0
0
0
0
0
0
0
0
0
0
0
0
0
0
0
0
0
0
0
0
0
0
0
0
0
0
0
0
0
0
0
0
0
0
0
0
0
0
0
0
0
0
0
0
0
0
0
0
0
0
0
0
0
0
0
0
0
0
0
0
0
0
0
0
0
0
0
0
0
0
0
0
0
0
0
0
0
0
0
0
0
0
0
0
0
0
0
0
0
0
0
0
0
0
0
0
0
0
0
0
0
0
0
0
0
0
0
0
0
0
0
0
0
0
0
0
0
0
0
0
0
0
0
0
0
0
0
0
0
0
0
0
0
0
0
0
0
0
0
0
0
0
0
0
0
0
0
0
0
0
0
0
0
0
0
0
0
0
0
0
0
0
0
0
0
0
0
0
0
0
0
0
0
0
0
0
0
0
0
0
0
0
0
0
0
0
0
0
0
0
0
0
0
0
0
0
0
0
0
0
0
0
0
0
0
0
0
0
0
0
0
0
0
0
0
0
0
0
0
0
0
0
0
0
0
0
0
0
0
0
0
0
0
0
0
0
0
0
0
0
0
0
0
0
0
0
0
0
0
0
0
0
0
0
0
0
0
0
0
0
0
0
0
0
0
0
0
0
0
0
0
0
0
0
0
0
0
0
0
0
0
0
0
0
0
0
0
0
0
0
0
0
0
0
0
0
0
0
0
0
0
0
0
0
0
0
0
0
0
0
0
0
0
0
0
0
0
0
0
0
0
0
0
0
0
0
0
0
0
0
0
0
0
0
0
0
0
0
0
0
0
0
0
0
0
0
0
0
0
0
0
0
0
0
0
0
0
0
0
0
0
0
0
0
0
0
0
0
0
0
0
0
0
0
0
0
0
0
0
0
0
0
0
0
0
0
0
0
0
0
0
0
0
0
0
0
0
0
0
0
0
0
0
0
0
0
0
0
0
0
0
0
0
0
0
0
0
0
0
0
0
0
0
0
0
0
0
0
0
0
0
0
0
0
0
0
0
0
0
0
0
0
0
0
0
0
0
0
0
0
0
0
0
0
0
0
0
0
0
0
0
0
0
0
0
0
0
0
0
0
0
0
0
0
0
0
0
0
0
0
0
0
0
0
0
0
0
0
0
0
0
0
0
0
0
0
0
0
0
0
0
0
0
0
0
0
0
0
0
0
0
0
0
0
0
0
0
0
0
0
0
0
0
0
0
0
0
0
0
0
0
0
0
0
0
0
0
0
0
0
0
0
0
0
0
0
0
0
0
0
0
0
0
0
0
0
0
0
0
0
0
0
0
0
0
0
0
0
0
0
0
0
0
0
0
0
0
0
0
0
0
0
0
0
0
0
0
0
0
0
0
0
0
0
0
0
0
0
0
0
0
0
0
0
0
0
0
0
0
0
0
0
0
0
0
0
0
0
0
0
0
0
0
0
0
0
0
0
0
0
0
0
0
0
0
0
0
0
0
0
0
0
0
0
0
0
0
0
0
0
0
0
0
0
0
0
0
0
0
0
0
0
0
0
0
0
0
0
0
0
0
0
0
0
0
0
0
0
0
0
0
0
0
0
0
0
0
0
0
0
0
0
0
0
0
0
0
0
0
0
0
0
0
0
0
0
0
0
0
0
0
0
0
0
0
0
0
0
0
0
0
0
0
0
0
0
0
0
0
0
0
0
0
0
0
0
0
0
0
0
0
0
0
0
0
0
0
0
0
0
0
0
0
0
0
0
0
0
0
0
0
0
0
0
0
0
0
0
0
0
0
0
0
0
0
0
0
0
0
0
0
0
0
0
0
0
0
0
0
0
0
0
0
0
0
0
0
0
0
0
0
0
0
0
0
0
0
0
0
0
0
0
0
0
0
0
0
0
0
0
0
0
0
0
0
0
0
0
0
0
0
0
0
0
0
0
0
0
0
0
0
0
0
0
0
0
0
0
0
0
0
0
0
0
0
0
0
0
0
0
0
0
0
0
0
0
0
0
0
0
0
0
0
0
0
0
0
0
0
0
0
0
0
0
0
0
0
0
0
0
0
0
0
0
0
0
0
0
0
0
0
0
0
0
0
0
0
0
0
0
0
0
0
0
0
0
0
0
0
0
0
0
0
0
0
0
0
0
0
0
0
0
0
0
0
0
0
0
0
0
0
0
0
0
0
0
0
0
0
0
0
0
0
0
0
0
0
0
0
0
0
0
0
0
0
0
0
0
0
0
0
0
0
0
0
0
0
0
0
0
0
0
0
0
0
0
0
0
0
0
0
0
0
0
0
0
0
0
0
0
0
0
0
0
0
0
0
0
0
0
0
0
0
0
0
0
0
0
0
0
0
0
0
0
0
0
0
0
0
0
0
0
0
0
0
0
0
0
0
0
0
0
0
0
0
0
0
0
0
0
0
0
0
0
0
0
0
0
0
0
0
0
0
0
0
0
0
0
0
0
0
0
0
0
0
0
0
0
0
0
0
0
0
0
0
0
0
0
0
0
0
0
0
0
0
0
0
0
0
0
0
0
0
0
0
0
0
0
0
0
0
0
0
0
0
0
0
0
0
0
0
0
0
0
0
0
0
0
0
0
0
0
0
0
0
0
0
0
0
0
0
0
0
0
0
0
0
0
0
0
0
0
0
0
0
0
0
0
0
0
0
0
0
0
0
0
0
0
0
0
0
0
0
0
0
0
0
0
0
0
0
0
0
0
0
0
0
0
0
0
0
0
0
0
0
0
0
0
0
0
0
0
0
0
0
0
0
0
0
0
0
0
0
0
0
0
0
0
0
0
0
0
0
0
0
0
0
0
0
0
0
0
0
0
0
0
0
0
0
0
0
0
0
0
0
0
0
0
0
0
0
0
0
0
0
0
0
0
0
0
0
0
0
0
0
0
0
0
0
0
0
0
0
0
0
0
0
0
0
0
0
0
0
0
0
0
0
0
0
0
0
0
0
0
0
0
0
0
0
0
0
