2.02694
1.86159
1.69419
1.51966
1.33409
1.13528
0.923088
0.699278
0.465924
0.201828
0
0.337962
1.32715
2.9426
4.78651
6.2328
6.72158
6.0179
4.31192
2.14505
0.196164
-1.00538
-1.30923
-0.961443
-0.645237
-0.377061
-0.17106
-0.0291916
0.0587547
0.110345
0.143388
0.169795
0.193587
0.214245
0.23079
0.24257
0.249278
0.2512
0.249416
0.245684
0.242146
0.240952
0.243914
0.252262
0.266557
0.286751
0.312354
0.342628
0.376779
0.414067
0.453847
0.495544
0.538608
0.582494
0.626702
0.670882
0.714997
0.759487
0.805379
0.854275
0.908213
0.969378
1.03976
1.12101
1.21443
1.3199
1.43657
1.56297
1.69724
1.83727
1.98116
2.1251
2.26389
2.39173
2.50306
2.59347
2.66053
2.70408
2.72584
2.72857
2.71636
2.69266
2.65897
2.61524
2.56056
2.49378
2.41393
2.32071
2.21471
2.09763
1.97211
1.84147
1.70927
1.57883
1.45281
1.33293
1.21981
1.11308
1.01165
0.914114
0.819216
0.726298
0.635596
0.548304
0.466376
0.392101
0.327568
0.27417
0.232292
0.201299
0.179787
0.166047
0.158561
0.156393
0.159337
0.167828
0.182614
0.204358
0.233244
0.268742
0.309521
0.353598
0.39861
0.442158
0.482135
0.51697
0.545737
0.568141
0.584372
0.594893
0.600213
0.600722
0.596614
0.587937
0.574738
0.557274
0.536198
0.512666
0.488287
0.464945
0.444508
0.428543
0.418098
0.413633
0.415091
0.422056
0.433917
0.449961
0.469439
0.491465
0.514687
0.537508
0.558289
0.575669
0.588915
0.598163
0.604451
0.609535
0.615516
0.624291
0.63749
0.656242
0.681125
0.712213
0.749157
0.791254
0.837436
0.886189
0.935455
0.982361
1.02308
1.05341
1.06929
1.0676
1.0469
1.00792
0.95364
0.888776
0.818861
0.74907
0.682834
0.621923
0.566166
0.513635
0.461168
0.405128
0.342239
0.270336
0.188871
0.0990749
0
-0.239227
-0.174177
0.521812
1.99738
3.98456
5.81176
6.73153
6.34046
4.78658
2.6515
0.640521
-0.712065
-1.20689
-0.990033
-0.58169
-0.214502
0.0797073
0.284348
0.425263
0.534554
0.617521
0.680532
0.730367
0.77345
0.815021
0.858352
0.904024
0.950839
0.996883
1.03969
1.07679
1.10627
1.12723
1.13991
1.14569
1.1467
1.14543
1.14412
1.14451
1.14774
1.15441
1.1647
1.17866
1.19641
1.21839
1.24537
1.2785
1.3193
1.36907
1.42857
1.49775
1.57558
1.66034
1.74926
1.8395
1.92878
2.01591
2.10102
2.18523
2.2701
2.35682
2.44566
2.5354
2.62351
2.70662
2.78112
2.84373
2.89181
2.92341
2.93723
2.93249
2.90952
2.86782
2.807
2.72676
2.62735
2.5102
2.37614
2.22547
2.05849
1.87544
1.6766
1.46252
1.23443
0.994769
0.74748
0.498068
0.253197
0.0198929
-0.195388
-0.38717
-0.55295
-0.693088
-0.810215
-0.90833
-0.991731
-1.06408
-1.12778
-1.18387
-1.2322
-1.27228
-1.30317
-1.32416
-1.33505
-1.33623
-1.32858
-1.31341
-1.29232
-1.26698
-1.23906
-1.21006
-1.18132
-1.15387
-1.12841
-1.10524
-1.08416
-1.06458
-1.04559
-1.02627
-1.00573
-0.983522
-0.960254
-0.937285
-0.91624
-0.898427
-0.884355
-0.873511
-0.864458
-0.855186
-0.843648
-0.828543
-0.808929
-0.784065
-0.753622
-0.71767
-0.676634
-0.631125
-0.581853
-0.529501
-0.474521
-0.417142
-0.357254
-0.294379
-0.227753
-0.156575
-0.0803162
0.000944519
0.0862732
0.173833
0.261015
0.344513
0.421362
0.489679
0.549136
0.601038
0.647943
0.692882
0.738455
0.786411
0.835519
0.880009
0.911928
0.923956
0.912137
0.877544
0.826289
0.767987
0.713199
0.6702
0.640175
0.621608
0.613432
0.613693
0.619542
0.62536
0.622984
0.604472
0.563882
0.498865
0.411528
0.308038
0.0228836
0
0.466814
1.53944
3.14638
4.92453
6.28642
6.69137
5.94719
4.31631
2.36621
0.695847
-0.293706
-0.508714
-0.152158
0.119786
0.369951
0.581204
0.743954
0.877243
0.983298
1.06658
1.13309
1.18956
1.24263
1.29812
1.36035
1.43143
1.5109
1.59764
1.68956
1.78218
1.86801
1.9399
1.99289
2.0256
2.04075
2.04436
2.04391
2.04596
2.05438
2.06852
2.08611
2.10566
2.12601
2.14652
2.16733
2.18937
2.2143
2.24422
2.28145
2.32812
2.38591
2.45574
2.53763
2.63065
2.73308
2.84258
2.95642
3.07178
3.18593
3.2964
3.40108
3.49834
3.58716
3.66707
3.73811
3.80045
3.8548
3.90182
3.94187
3.97472
3.99882
4.01217
4.01254
3.99745
3.96472
3.91298
3.84197
3.75265
3.64697
3.52746
3.39749
3.26004
3.11719
2.97063
2.82207
2.67344
2.52692
2.38488
2.24964
2.1233
2.00737
1.90266
1.80925
1.72661
1.65387
1.59005
1.53428
1.48606
1.44516
1.41165
1.38586
1.36833
1.35939
1.35916
1.36735
1.38316
1.40516
1.43135
1.4592
1.48582
1.50812
1.52326
1.52903
1.52408
1.50813
1.48205
1.44775
1.40798
1.36586
1.32436
1.28557
1.25075
1.22007
1.19243
1.16562
1.13708
1.10475
1.06766
1.0263
0.982549
0.939189
0.899254
0.865221
0.83822
0.818892
0.806862
0.801183
0.800713
0.804353
0.811121
0.820126
0.830304
0.840239
0.848428
0.853638
0.855333
0.85406
0.851556
0.850575
0.854446
0.86642
0.888637
0.921835
0.969034
1.03297
1.10741
1.18067
1.2402
1.27586
1.28235
1.26009
1.21427
1.15267
1.08321
1.01216
0.942268
0.874234
0.807756
0.742215
0.677034
0.611771
0.546161
0.480118
0.413637
0.346674
0.279041
0.210362
0.139571
0.004216
0
0.425977
1.44968
2.98946
4.69542
6.01884
6.39472
5.52339
3.6079
1.33014
-0.499707
-1.39425
-1.39679
-0.911583
-0.460493
-0.0911453
0.158978
0.288893
0.391272
0.480678
0.557018
0.620239
0.670775
0.709601
0.738246
0.758666
0.773022
0.783435
0.791684
0.799031
0.80614
0.813133
0.819829
0.826024
0.831825
0.83788
0.845497
0.856549
0.873245
0.897591
0.93114
0.974558
1.02732
1.08778
1.15346
1.22076
1.28623
1.34731
1.40285
1.45326
1.50019
1.54599
1.59293
1.64265
1.69594
1.75289
1.81324
1.87683
1.94392
2.01522
2.09163
2.17377
2.26147
2.35333
2.44697
2.53929
2.62642
2.70416
2.76943
2.82041
2.85674
2.87931
2.88978
2.88984
2.88046
2.86087
2.8291
2.78214
2.71673
2.63056
2.52336
2.3974
2.25744
2.10977
1.96096
1.81625
1.67815
1.54792
1.42561
1.31047
1.20156
1.09834
1.00102
0.910407
0.827721
0.754169
0.690939
0.638209
0.595543
0.562221
0.537615
0.521477
0.514014
0.515721
0.527042
0.547972
0.577552
0.614155
0.655723
0.698863
0.739283
0.772647
0.795428
0.805438
0.80219
0.78699
0.762664
0.733045
0.702293
0.674252
0.651842
0.63635
0.628098
0.627317
0.633681
0.646372
0.664208
0.685147
0.706145
0.723952
0.735704
0.739455
0.734564
0.721809
0.703181
0.681401
0.65929
0.639087
0.622079
0.608744
0.598989
0.592622
0.589573
0.590108
0.594828
0.604509
0.619831
0.640987
0.667653
0.699294
0.73524
0.774814
0.817507
0.863057
0.911417
0.962656
1.01693
1.07408
1.13236
1.18779
1.2343
1.26539
1.27543
1.26129
1.22349
1.16656
1.09833
1.02809
0.964207
0.911575
0.868705
0.831599
0.796307
0.758025
0.712022
0.654482
0.58309
0.497295
0.398244
0.288477
0.171168
0.0197456
0
0.348539
1.21917
2.58107
4.18967
5.60691
6.31088
5.92506
4.47208
2.4407
0.548853
-0.651035
-1.02107
-0.778497
-0.407012
-0.0725357
0.194379
0.375324
0.491743
0.549428
0.560484
0.540686
0.506527
0.472668
0.44821
0.436623
0.439255
0.456129
0.486189
0.52763
0.577794
0.63352
0.691078
0.746856
0.798054
0.843143
0.882072
0.916145
0.947588
0.978938
1.0129
1.05113
1.09242
1.1298
1.15301
1.15297
1.12612
1.0775
1.02106
0.976181
0.961314
0.987757
1.04866
1.12903
1.22181
1.32338
1.43045
1.54047
1.65141
1.76162
1.86949
1.97341
2.0717
2.1626
2.24494
2.31819
2.38255
2.43888
2.48837
2.5317
2.5694
2.60117
2.62531
2.63915
2.63968
2.62412
2.59061
2.53857
2.46871
2.38282
2.28332
2.17287
2.05481
1.93199
1.80628
1.67912
1.55185
1.42587
1.30274
1.1843
1.07296
0.971064
0.880767
0.803774
0.741067
0.692726
0.657884
0.634839
0.621307
0.614734
0.61245
0.612224
0.612245
0.611063
0.607539
0.600721
0.589771
0.574027
0.553233
0.527702
0.498556
0.467737
0.438458
0.414669
0.400347
0.398672
0.411241
0.438646
0.48038
0.529267
0.576447
0.613804
0.636097
0.642199
0.635092
0.620612
0.605405
0.594759
0.590225
0.590636
0.593867
0.59713
0.597683
0.593594
0.584226
0.57037
0.554056
0.538155
0.525753
0.519603
0.5219
0.534093
0.556971
0.590352
0.633092
0.683199
0.738088
0.794952
0.851106
0.904281
0.952787
0.995425
1.0313
1.05984
1.08068
1.09326
1.09683
1.09104
1.07599
1.05254
1.02248
0.988488
0.953783
0.921561
0.89432
0.873212
0.8585
0.847407
0.834534
0.81336
0.777596
0.722462
0.645642
0.547673
0.431812
0.303379
0.0711311
0
0.389074
1.38345
2.88493
4.5661
5.94583
6.5178
5.95226
4.31182
2.1075
0.0742538
-1.21831
-1.62981
-1.39876
-0.881536
-0.371828
0.0592117
0.307155
0.420349
0.498207
0.540951
0.552541
0.54211
0.521788
0.503277
0.494577
0.497469
0.507848
0.521848
0.537176
0.552234
0.566543
0.580786
0.596537
0.615794
0.640332
0.671585
0.710373
0.756733
0.809916
0.868469
0.930394
0.993332
1.05455
1.1109
1.15958
1.19859
1.2269
1.24476
1.25385
1.25726
1.25918
1.26437
1.2774
1.30157
1.33876
1.38932
1.45203
1.52518
1.60733
1.69723
1.79395
1.89686
2.00548
2.11929
2.23774
2.3591
2.4782
2.58533
2.66988
2.72262
2.7381
2.71586
2.66025
2.57852
2.4783
2.36533
2.2439
2.11652
1.98419
1.8475
1.70747
1.56594
1.42552
1.28936
1.16068
1.04242
0.93697
0.844592
0.763429
0.690323
0.621588
0.553848
0.484699
0.413082
0.339335
0.264968
0.192721
0.126274
0.0704186
0.0300499
0.00868988
0.00832748
0.0287033
0.0668678
0.117296
0.172671
0.225252
0.268446
0.299767
0.320107
0.330281
0.332654
0.330688
0.328363
0.329436
0.336797
0.3521
0.375658
0.406475
0.442271
0.479956
0.516101
0.547516
0.571958
0.588467
0.59744
0.600468
0.599949
0.598573
0.598791
0.602365
0.609981
0.621793
0.636991
0.654536
0.673711
0.694558
0.718005
0.745625
0.779074
0.819364
0.866266
0.91845
0.971748
1.02073
1.0598
1.08428
1.09112
1.07922
1.0492
1.00299
0.943741
0.875433
0.801672
0.725833
0.650983
0.579733
0.514435
0.456529
0.405483
0.359355
0.31521
0.269746
0.21994
0.119603
0
0.259121
1.16356
2.704
4.49575
5.91874
6.41053
5.72714
4.05056
1.92129
0.0233589
-1.11303
-1.35078
-0.961507
-0.514754
-0.152015
0.0832451
0.196231
0.280872
0.356519
0.425436
0.488661
0.546777
0.599965
0.648112
0.690887
0.727842
0.758598
0.782914
0.800723
0.8124
0.818735
0.821003
0.820947
0.820637
0.822199
0.827464
0.837626
0.853029
0.872963
0.896346
0.921782
0.948018
0.974306
1.00063
1.02776
1.05706
1.09027
1.12913
1.17499
1.22853
1.29
1.35909
1.43499
1.51662
1.60289
1.69288
1.78601
1.88208
1.98113
2.0831
2.18753
2.29332
2.39856
2.50066
2.59659
2.68363
2.75967
2.82347
2.87457
2.91211
2.93456
2.94146
2.93179
2.90423
2.85784
2.7926
2.70974
2.6116
2.50115
2.38156
2.25599
2.12644
1.99394
1.85921
1.72285
1.58552
1.44813
1.31189
1.17845
1.04985
0.92845
0.816888
0.717477
0.632362
0.563148
0.509566
0.470121
0.442292
0.422894
0.408783
0.396688
0.383901
0.368942
0.351873
0.334372
0.319473
0.310978
0.312641
0.327337
0.355186
0.395919
0.447823
0.508633
0.575414
0.641818
0.70058
0.745332
0.771847
0.779132
0.769958
0.750449
0.728666
0.712589
0.707174
0.713199
0.729201
0.752645
0.780884
0.811476
0.842143
0.871049
0.89706
0.919983
0.940532
0.960225
0.98116
1.00565
1.03588
1.075
1.1244
1.18046
1.23572
1.28112
1.30821
1.31095
1.28683
1.23706
1.16611
1.08084
0.989482
0.900455
0.819828
0.749993
0.691483
0.644901
0.609577
0.582783
0.558782
0.530699
0.492246
0.438999
0.369171
0.283694
0.0907681
0
0.319655
1.21679
2.69362
4.48585
6.03055
6.65996
5.97851
4.15244
1.85305
-0.123149
-1.26683
-1.52212
-1.16941
-0.679944
-0.288749
-0.0691547
-0.0199764
-0.00751686
-0.00401421
-0.00653038
-0.0140991
-0.0260765
-0.0420673
-0.0617859
-0.0848904
-0.110805
-0.138558
-0.16671
-0.193291
-0.215949
-0.232302
-0.240274
-0.238419
-0.226132
-0.203722
-0.172327
-0.133725
-0.0900703
-0.0437759
0.00318985
0.0492626
0.0934441
0.135378
0.175299
0.213854
0.251817
0.289816
0.32816
0.366811
0.405567
0.444355
0.483497
0.523811
0.566469
0.612651
0.663106
0.717793
0.775737
0.835328
0.894699
0.952258
1.00714
1.0594
1.10991
1.15997
1.21073
1.26276
1.31554
1.36721
1.41466
1.45348
1.4781
1.48373
1.46609
1.42178
1.34853
1.24562
1.11421
0.957576
0.781172
0.592531
0.400177
0.211092
0.0309288
-0.135732
-0.285775
-0.41759
-0.531582
-0.629401
-0.713348
-0.785777
-0.848278
-0.901952
-0.947532
-0.985385
-1.01591
-1.0398
-1.0582
-1.07247
-1.08388
-1.09325
-1.10068
-1.10559
-1.10676
-1.10284
-1.09274
-1.07606
-1.05301
-1.02449
-0.991933
-0.956989
-0.921209
-0.885742
-0.851143
-0.81731
-0.783545
-0.748722
-0.71152
-0.670688
-0.625289
-0.574883
-0.519624
-0.460246
-0.397943
-0.334208
-0.270641
-0.208811
-0.15018
-0.0963162
-0.0494429
-0.011305
0.0178682
0.0392487
0.0558149
0.072291
0.0944111
0.127596
0.175446
0.238588
0.31254
0.391904
0.471984
0.548047
0.615644
0.670775
0.711281
0.73662
0.747687
0.746551
0.73607
0.719456
0.699816
0.679725
0.660888
0.643788
0.628134
0.61219
0.592147
0.563171
0.520472
0.460511
0.382091
0.287012
0.159043
0
0.189802
1.02727
2.5145
4.33486
5.93195
6.71338
6.29941
4.7261
2.49224
0.365266
-0.999348
-1.39151
-1.0847
-0.73015
-0.567805
-0.425558
-0.306188
-0.209018
-0.133302
-0.0768375
-0.0363678
-0.00812988
0.0115654
0.0258232
0.0368097
0.0456058
0.0522841
0.0561747
0.0562611
0.051606
0.0417206
0.0267921
0.00774117
-0.0138981
-0.0362133
-0.0572105
-0.0750973
-0.0885044
-0.0966251
-0.0992634
-0.0967949
-0.0900452
-0.0801029
-0.0680717
-0.05481
-0.0407032
-0.0255425
-0.00855637
0.0113789
0.0353935
0.0642147
0.0978264
0.135308
0.174931
0.214523
0.252009
0.285995
0.316229
0.3438
0.370992
0.400849
0.43653
0.480618
0.534545
0.59821
0.669899
0.746414
0.823418
0.895818
0.957147
1.00062
1.02124
1.01547
0.981522
0.919391
0.830785
0.718848
0.587794
0.442546
0.288497
0.131017
-0.0250099
-0.175309
-0.31645
-0.445628
-0.560652
-0.660123
-0.743443
-0.810773
-0.862971
-0.901775
-0.928884
-0.945924
-0.954436
-0.955788
-0.951081
-0.941205
-0.926917
-0.908939
-0.888036
-0.865063
-0.840961
-0.816711
-0.793248
-0.771371
-0.751629
-0.734258
-0.719157
-0.705945
-0.694063
-0.682922
-0.672022
-0.660992
-0.649594
-0.637637
-0.624928
-0.611275
-0.596564
-0.580904
-0.564761
-0.549002
-0.534792
-0.523367
-0.51571
-0.512242
-0.512556
-0.515334
-0.518433
-0.519121
-0.514468
-0.501788
-0.479048
-0.445201
-0.400327
-0.345569
-0.282913
-0.21481
-0.143816
-0.0722733
-0.0021698
0.0648865
0.127515
0.184206
0.232045
0.266777
0.285399
0.285771
0.267284
0.231714
0.183502
0.129179
0.0760696
0.0307114
-0.00249481
-0.023526
-0.033493
-0.0316711
-0.01698
0.00491333
0.0182205
0
-0.0781067
-0.228558
-0.447224
-0.71638
-0.985762
-0.755885
0.151155
1.60349
3.17583
4.37647
4.88992
4.64028
3.70366
2.25452
0.613853
-0.751711
-1.42555
-1.3184
-0.749619
-0.551918
-0.369226
-0.200183
-0.0490448
0.0817947
0.191718
0.281557
0.353157
0.409129
0.452512
0.486537
0.514461
0.539343
0.563828
0.589906
0.618739
0.650577
0.684836
0.72029
0.755348
0.788344
0.817705
0.842143
0.86104
0.874402
0.882903
0.887883
0.891273
0.895416
0.902789
0.915654
0.935678
0.963605
0.999268
1.04164
1.08912
1.13992
1.19242
1.24548
1.29878
1.35289
1.40927
1.47008
1.53775
1.61455
1.70196
1.80028
1.90832
2.02338
2.14158
2.25826
2.3685
2.46791
2.55302
2.62148
2.67203
2.704
2.71762
2.7136
2.69297
2.65711
2.60775
2.54699
2.47712
2.40037
2.31871
2.23362
2.14588
2.05572
1.96308
1.86788
1.77026
1.6707
1.57004
1.46937
1.36976
1.27213
1.17709
1.08497
0.995845
0.909749
0.826923
0.748038
0.67437
0.607687
0.55011
0.503873
0.470821
0.452193
0.448415
0.459024
0.482986
0.519418
0.566431
0.618205
0.665794
0.700404
0.715462
0.708463
0.681667
0.641277
0.595351
0.551361
0.513747
0.482698
0.45798
0.439644
0.427541
0.421562
0.421898
0.428839
0.442892
0.464702
0.49492
0.534229
0.58457
0.646974
0.717207
0.786238
0.843216
0.87821
0.88495
0.862466
0.814955
0.749922
0.675439
0.597862
0.520256
0.443336
0.367133
0.291631
0.216975
0.143446
0.0712158
0
-0.033931
-0.0709976
-0.115007
-0.169954
-0.239063
-0.323958
-0.424323
-0.662999
-0.786504
-0.398016
0.632687
2.12452
3.57637
4.39205
4.20031
3.04198
1.31992
-0.409451
-1.66051
-2.17905
-1.9219
-1.49772
-1.09694
-0.785655
-0.582359
-0.449088
-0.335049
-0.232993
-0.14274
-0.0639374
0.00413513
0.0626663
0.113228
0.157509
0.197142
0.233397
0.266875
0.297609
0.325275
0.349422
0.369746
0.38633
0.399767
0.411177
0.422026
0.43387
0.448044
0.46541
0.486258
0.510358
0.537175
0.566173
0.597058
0.629919
0.665146
0.70322
0.744463
0.78882
0.835494
0.883112
0.930277
0.976109
1.02076
1.06559
1.11305
1.1661
1.22759
1.29898
1.38197
1.47626
1.57847
1.68298
1.783
1.87173
1.94341
1.99397
2.02131
2.0251
2.00628
1.96637
1.9068
1.82942
1.73726
1.6323
1.5151
1.38653
1.24792
1.10107
0.948158
0.791728
0.634614
0.479984
0.331358
0.19256
0.0675049
-0.0401573
-0.12744
-0.191789
-0.232066
-0.250087
-0.249267
-0.234029
-0.209055
-0.178625
-0.146136
-0.113886
-0.0831284
-0.0542114
-0.0268662
-0.00055542
0.0254219
0.0518707
0.0796516
0.109623
0.142564
0.17907
0.219434
0.263624
0.311007
0.360277
0.40973
0.457523
0.501923
0.541511
0.575227
0.602322
0.622221
0.634639
0.639456
0.636673
0.62689
0.611565
0.593105
0.574677
0.559752
0.551978
0.555213
0.570257
0.594852
0.625112
0.656941
0.687431
0.715737
0.743184
0.772627
0.807397
0.849
0.897687
0.953352
1.01426
1.07722
1.13747
1.18906
1.22632
1.24477
1.24206
1.21848
1.17694
1.12232
1.06031
0.996063
0.932916
0.872046
0.813375
0.755753
0.697456
0.636682
0.571958
0.502369
0.427643
0.348182
0.264789
0.177001
0
0.113926
0.732063
1.94891
3.62634
5.33618
6.46488
6.50357
5.35424
3.41065
1.34322
-0.239399
-1.01887
-1.00181
-0.402586
0.155535
0.59808
0.861532
0.94265
0.985675
1.00458
1.01151
1.01542
1.02135
1.03043
1.04277
1.05795
1.07491
1.09235
1.10924
1.12509
1.14008
1.15517
1.17192
1.19215
1.21766
1.25003
1.28981
1.33522
1.3835
1.43169
1.47743
1.51942
1.55743
1.59204
1.62424
1.65507
1.6855
1.71635
1.74847
1.78271
1.81984
1.8605
1.90507
1.95382
2.00707
2.06527
2.12909
2.19927
2.27629
2.35998
2.45002
2.54416
2.63754
2.72497
2.80234
2.86785
2.92237
2.9688
3.01076
3.05083
3.08939
3.12407
3.1497
3.15951
3.14643
3.10472
3.03127
2.92632
2.79333
2.63811
2.46757
2.28954
2.10916
1.92966
1.75335
1.58179
1.41602
1.25679
1.10482
0.96092
0.826136
0.701737
0.589203
0.490329
0.406673
0.339489
0.289579
0.257173
0.241991
0.242756
0.257472
0.283741
0.318611
0.358427
0.399422
0.437961
0.470794
0.495259
0.50943
0.512218
0.503401
0.483644
0.454348
0.417538
0.375646
0.331282
0.286839
0.244262
0.205032
0.170134
0.140054
0.114843
0.0941603
0.0773561
0.0635479
0.0516888
0.0406362
0.0292255
0.0163558
0.00108899
-0.0172373
-0.0388861
-0.0636561
-0.0908425
-0.119294
-0.147565
-0.174115
-0.19758
-0.216974
-0.231725
-0.241653
-0.246858
-0.247475
-0.243529
-0.23491
-0.221497
-0.203396
-0.180918
-0.155226
-0.128776
-0.105096
-0.0879084
-0.080353
-0.084276
-0.0997641
-0.125026
-0.156627
-0.190007
-0.220196
-0.243282
-0.256317
-0.257254
-0.245469
-0.221754
-0.188075
-0.147146
-0.101908
-0.0551137
-0.00863323
0.0365745
0.0804401
0.123754
0.168021
0.215234
0.2677
0.329048
0.405851
0.509384
0.654101
0.832712
1.00735
1.14131
1.19695
1.14483
0.982521
0.743372
0.485326
0.272426
0.152745
0.0928289
0.0591236
0.0397769
0.0303253
0.0257689
0.0213703
0.0133886
0
-0.0465993
-0.127284
-0.140251
0.242094
1.22372
2.78315
4.60937
6.18832
6.98339
6.64644
5.19962
3.0904
1.02901
-0.354552
-0.82182
-0.578019
-0.192194
-0.0344603
0.0985098
0.203564
0.28472
0.344629
0.387839
0.419886
0.446326
0.472
0.50029
0.533468
0.572943
0.61935
0.672643
0.732118
0.796382
0.863335
0.930219
0.993803
1.05059
1.09734
1.13162
1.15211
1.15887
1.15329
1.13793
1.11615
1.09173
1.06839
1.04939
1.03722
1.03358
1.0392
1.054
1.07732
1.10829
1.14616
1.19076
1.24271
1.30337
1.3745
1.4577
1.55381
1.6624
1.78141
1.90751
2.03636
2.16313
2.28306
2.39199
2.48668
2.56488
2.62548
2.66859
2.69542
2.70805
2.70921
2.70195
2.68892
2.67177
2.65101
2.6248
2.58872
2.53717
2.46563
2.37256
2.26026
2.13435
2.00216
1.87069
1.74441
1.62453
1.51106
1.40432
1.30428
1.21065
1.12298
1.04075
0.963357
0.889886
0.819548
0.751907
0.687048
0.625574
0.568422
0.516562
0.470699
0.431072
0.397319
0.369073
0.345947
0.327674
0.314096
0.305035
0.300117
0.298669
0.29976
0.302505
0.306431
0.311725
0.31936
0.330974
0.348475
0.373477
0.406693
0.447472
0.494182
0.542879
0.587114
0.620502
0.638471
0.639526
0.625639
0.601698
0.574175
0.549475
0.532442
0.524197
0.523734
0.5297
0.54025
0.553318
0.567096
0.580367
0.592664
0.604227
0.615814
0.628403
0.642867
0.659698
0.678855
0.699721
0.721204
0.741924
0.760436
0.77546
0.786021
0.79154
0.791802
0.786844
0.776791
0.761668
0.741381
0.71599
0.685629
0.650713
0.612131
0.571324
0.530194
0.490827
0.455103
0.424296
0.398599
0.377835
0.360844
0.346196
0.332703
0.319857
0.308041
0.298473
0.292906
0.293207
0.300845
0.316358
0.339841
0.370915
0.408568
0.451534
0.497562
0.542569
0.581621
0.609801
0.623057
0.618966
0.597155
0.559195
0.508021
0.447059
0.379456
0.307579
0.232954
0.156549
0.0787514
0
-0.0569916
-0.113386
-0.168877
-0.223946
-0.280269
-0.342331
-0.41378
-0.496374
-0.619772
-0.47752
0.292773
1.78623
3.80617
5.88659
7.41541
7.8572
7.02235
5.22428
3.16215
1.5546
0.773816
0.742755
1.12274
1.31133
1.4641
1.58094
1.65876
1.70447
1.73171
1.75562
1.78743
1.82966
1.8795
1.9311
1.97741
2.01274
2.03454
2.044
2.0453
2.04397
2.045
2.05073
2.0607
2.07367
2.08763
2.10009
2.10868
2.11159
2.10792
2.09777
2.08223
2.06311
2.04282
2.02379
2.00849
1.99925
1.99822
2.00729
2.0283
2.06286
2.1119
2.17577
2.25403
2.3453
2.44727
2.55677
2.67007
2.78333
2.89324
2.99738
3.09426
3.18352
3.26588
3.34294
3.41675
3.48939
3.56243
3.63662
3.71077
3.78108
3.84182
3.88639
3.9087
3.9043
3.87119
3.80999
3.72345
3.61564
3.49214
3.3579
3.21663
3.07053
2.92114
2.76991
2.61845
2.46858
2.32232
2.18173
2.04877
1.92513
1.8121
1.7106
1.62116
1.54399
1.47906
1.42607
1.38448
1.35343
1.33182
1.31819
1.31086
1.30792
1.30731
1.30692
1.30489
1.29975
1.29063
1.2774
1.26061
1.24144
1.22145
1.20233
1.18564
1.17267
1.16432
1.16105
1.16293
1.16968
1.18073
1.19534
1.2126
1.23152
1.25104
1.27004
1.28735
1.30177
1.31213
1.31737
1.31669
1.30973
1.29672
1.27853
1.25667
1.23306
1.20972
1.18845
1.17049
1.15609
1.14468
1.1351
1.1261
1.11665
1.10634
1.09535
1.08439
1.07435
1.06603
1.05997
1.0562
1.05425
1.05316
1.05167
1.04852
1.04273
1.034
1.02292
1.01104
1.00069
0.994634
0.995723
1.00762
1.03258
1.06779
1.10809
1.14746
1.18092
1.20589
1.22259
1.23328
1.24066
1.24623
1.24949
1.24807
1.23848
1.2171
1.18132
1.13043
1.06596
0.991391
0.911338
0.830482
0.751993
0.677664
0.607822
0.541467
0.476695
0.411292
0.343313
0.271517
0.195553
0.114639
0
0.133931
0.627999
1.58278
2.97374
4.53134
5.73632
6.0372
5.18482
3.42303
1.37093
-0.310526
-1.22479
-1.349
-0.965549
-0.611626
-0.308593
-0.0599449
0.14855
0.34222
0.522547
0.681804
0.806262
0.883883
0.911604
0.898179
0.861493
0.822227
0.797096
0.787106
0.788387
0.798725
0.816863
0.841236
0.870268
0.902613
0.937247
0.973441
1.01066
1.0484
1.08607
1.12298
1.15833
1.19146
1.22206
1.25042
1.27747
1.3048
1.33434
1.3683
1.40863
1.45647
1.51236
1.57655
1.64939
1.7316
1.82432
1.92877
2.0457
2.17457
2.31313
2.45894
2.60736
2.75171
2.88552
3.00384
3.10396
3.18556
3.25016
3.30001
3.33692
3.36134
3.37349
3.37272
3.35693
3.32366
3.27095
3.19764
3.10355
2.98951
2.8575
2.7103
2.5513
2.38448
2.2142
2.04484
1.88045
1.72437
1.57902
1.44582
1.32541
1.2179
1.1232
1.04123
0.971952
0.915261
0.870791
0.837671
0.814413
0.799033
0.789269
0.782865
0.777846
0.772688
0.766387
0.758442
0.748777
0.737651
0.725579
0.713274
0.701571
0.691346
0.683414
0.678436
0.676845
0.678818
0.684264
0.692838
0.703944
0.71674
0.730137
0.742836
0.753424
0.760538
0.763097
0.760543
0.753037
0.741545
0.72774
0.713732
0.701668
0.693395
0.690054
0.691428
0.696185
0.702219
0.70718
0.709026
0.706459
0.699133
0.68762
0.673225
0.657684
0.642787
0.630325
0.622069
0.619715
0.624804
0.638546
0.662013
0.696717
0.742706
0.79499
0.847126
0.892868
0.927912
0.951143
0.964861
0.97393
0.984117
0.999994
1.02197
1.04908
1.07843
1.10333
1.1154
1.10666
1.07177
1.00966
0.924176
0.823396
0.717749
0.617602
0.528879
0.452865
0.390812
0.342343
0.305239
0.275713
0.249641
0.223317
0.193987
0.160105
0.120314
-0.00988236
0
0.445346
1.51026
3.13626
4.93788
6.32808
6.7699
6.01822
4.25022
2.03016
0.0904327
-1.00893
-1.15695
-0.686229
-0.172092
0.162524
0.310447
0.434753
0.549856
0.65555
0.751829
0.837395
0.911826
0.976075
1.03224
1.083
1.13093
1.178
1.22511
1.27225
1.31852
1.36232
1.40171
1.43485
1.46051
1.47836
1.48927
1.49527
1.4993
1.50461
1.51399
1.53023
1.5546
1.58582
1.62127
1.65813
1.69443
1.72975
1.76536
1.80362
1.84706
1.8973
1.95434
2.01734
2.08553
2.15824
2.2352
2.31672
2.40362
2.49695
2.59752
2.7055
2.8201
2.93939
3.06075
3.18063
3.29467
3.39875
3.48897
3.56168
3.61465
3.6465
3.65668
3.64537
3.61332
3.5616
3.49137
3.40366
3.29954
3.18131
3.05149
2.91224
2.76616
2.61664
2.4676
2.32304
2.18645
2.06038
1.94616
1.84388
1.75268
1.67117
1.59781
1.53129
1.47062
1.41512
1.36429
1.31768
1.27488
1.2355
1.19934
1.16648
1.13745
1.11305
1.0943
1.08221
1.07753
1.0806
1.09117
1.10846
1.1312
1.15773
1.18614
1.21436
1.23993
1.26047
1.27383
1.27823
1.27259
1.2566
1.23103
1.19771
1.15955
1.12033
1.0837
1.053
1.03109
1.02111
1.02206
1.03082
1.04327
1.05551
1.06485
1.07008
1.07124
1.06895
1.06381
1.05648
1.04701
1.03544
1.02199
1.00725
0.992176
0.977985
0.965925
0.957275
0.953197
0.954671
0.962524
0.977483
1.00027
1.03164
1.07311
1.12844
1.20391
1.30499
1.42813
1.55204
1.64928
1.69512
1.67395
1.58545
1.44788
1.29384
1.15763
1.06097
0.993373
0.937582
0.886093
0.834701
0.779388
0.716632
0.64386
0.559824
0.464859
0.360916
0.247379
-0.0263519
0
0.589712
1.8299
3.52992
5.27633
6.56785
6.96914
6.26851
4.61142
2.51053
0.645715
-0.467499
-0.711816
-0.334033
0.0176636
0.335173
0.592034
0.774868
0.901828
0.981215
1.02564
1.04857
1.0614
1.07198
1.08354
1.09699
1.11242
1.12943
1.14751
1.16626
1.18545
1.20512
1.22555
1.24732
1.27122
1.29825
1.32947
1.36585
1.40803
1.45621
1.51009
1.56885
1.63131
1.69604
1.7616
1.82666
1.89019
1.95144
2.01007
2.06603
2.11964
2.17146
2.22231
2.27319
2.32518
2.37948
2.4373
2.49992
2.56867
2.6449
2.72994
2.8248
2.92993
3.04479
3.16766
3.29589
3.42371
3.54314
3.64609
3.72581
3.77801
3.80133
3.79701
3.76795
3.71753
3.6486
3.56392
3.46571
3.35512
3.23241
3.09792
2.9526
2.79826
2.63758
2.47403
2.31159
2.15443
2.00654
1.87137
1.75159
1.64895
1.56423
1.49714
1.44664
1.41113
1.38792
1.37377
1.36518
1.35841
1.34972
1.33579
1.314
1.28265
1.24118
1.19029
1.13185
1.06873
1.00447
0.942662
0.886424
0.838051
0.799055
0.769986
0.750559
0.739929
0.737013
0.740842
0.750777
0.76657
0.788205
0.815729
0.848943
0.887066
0.928928
0.972068
1.0131
1.04866
1.07609
1.09412
1.10299
1.10439
1.10088
1.09525
1.08993
1.08647
1.08566
1.0879
1.09334
1.10197
1.11379
1.12883
1.14712
1.16873
1.1938
1.22257
1.25547
1.29303
1.33601
1.38542
1.44225
1.50776
1.58424
1.6721
1.76025
1.82959
1.85752
1.82527
1.72694
1.57478
1.39706
1.22886
1.09948
1.00499
0.929989
0.867015
0.811713
0.758976
0.703634
0.641115
0.567999
0.482388
0.384092
0.274361
0.120712
0
0.231149
1.01597
2.4305
4.27431
6.00771
6.93842
6.59685
5.03066
2.7891
0.621949
-0.877085
-1.47437
-1.30089
-0.770691
-0.311299
0.00519943
0.153247
0.229536
0.292261
0.348272
0.400911
0.453104
0.507166
0.56461
0.626027
0.691032
0.758349
0.825882
0.890636
0.948685
0.995551
1.0281
1.04453
1.04477
1.03074
1.00613
0.975876
0.945333
0.919383
0.901549
0.892603
0.892405
0.901005
0.918235
0.943751
0.977172
1.01818
1.06655
1.1221
1.18466
1.25399
1.32967
1.41109
1.49731
1.58715
1.67918
1.77185
1.86365
1.95326
2.03959
2.12182
2.19933
2.2716
2.33804
2.39798
2.45026
2.4933
2.52609
2.54787
2.55828
2.55747
2.54604
2.52479
2.49441
2.45513
2.40656
2.34821
2.27888
2.19717
2.10208
1.99335
1.87168
1.73869
1.59676
1.44881
1.29796
1.14724
0.999628
0.858195
0.726321
0.606846
0.502154
0.414005
0.343296
0.289922
0.25278
0.229983
0.21918
0.21796
0.224084
0.235871
0.252116
0.271973
0.294788
0.319913
0.346335
0.372111
0.39472
0.411668
0.421143
0.422599
0.417044
0.40688
0.395307
0.385471
0.379509
0.377979
0.380222
0.384798
0.390009
0.394189
0.395991
0.394585
0.389708
0.381602
0.370908
0.358487
0.345293
0.332211
0.31991
0.308737
0.298508
0.288254
0.276524
0.261925
0.243736
0.222412
0.199754
0.178672
0.162584
0.154662
0.156663
0.168656
0.190174
0.220371
0.257777
0.300405
0.346165
0.392439
0.435517
0.471898
0.499105
0.516516
0.525888
0.53123
0.537878
0.550987
0.573921
0.606539
0.645795
0.687595
0.72682
0.758516
0.778864
0.785777
0.779057
0.760142
0.731607
0.696581
0.658415
0.619747
0.582506
0.547913
0.516426
0.487958
0.461955
0.437383
0.412888
0.386996
0.358334
0.325819
0.288773
0.245936
0.0885895
0
0.359059
1.40536
3.06505
4.90571
6.28233
6.60614
5.62974
3.61914
1.28161
-0.573862
-1.46019
-1.42265
-0.888753
-0.392308
-0.00114746
0.236458
0.336031
0.411945
0.478033
0.535714
0.586224
0.630745
0.67039
0.706207
0.73918
0.770174
0.799858
0.828616
0.856419
0.882827
0.907174
0.928828
0.947562
0.963898
0.979243
0.995784
1.01607
1.04242
1.07694
1.12224
1.17518
1.22721
1.26862
1.29207
1.29557
1.28361
1.26605
1.2552
1.26222
1.29102
1.33863
1.4014
1.47657
1.56169
1.65432
1.7523
1.85396
1.95809
2.06379
2.17026
2.27658
2.38166
2.48417
2.58271
2.6759
2.76245
2.84116
2.91056
2.96899
3.01539
3.04878
3.06818
3.07276
3.0619
3.03528
2.99289
2.93508
2.86261
2.77723
2.68096
2.57596
2.46457
2.3491
2.23161
2.11383
1.99705
1.88219
1.76999
1.66125
1.55723
1.45977
1.3712
1.2941
1.23108
1.18392
1.15342
1.13923
1.13998
1.15353
1.17743
1.2094
1.24767
1.29101
1.33847
1.38959
1.4438
1.50014
1.55718
1.6132
1.66628
1.71449
1.75627
1.7907
1.81761
1.83757
1.85181
1.86207
1.87044
1.87916
1.89049
1.90655
1.92931
1.9603
2.00045
2.0497
2.10843
2.17541
2.24359
2.30452
2.35144
2.38177
2.39812
2.40738
2.41806
2.43717
2.46789
2.50652
2.54937
2.59391
2.6379
2.67973
2.71852
2.75407
2.78665
2.81676
2.84492
2.87166
2.89761
2.92352
2.95023
2.97861
3.00938
3.04281
3.07861
3.11588
3.1532
3.18911
3.22232
3.25205
3.27821
3.30143
3.32287
3.34394
3.36593
3.38968
3.41544
3.44242
3.46812
3.4892
3.50217
3.5042
3.49364
3.47011
3.4343
3.38747
3.33099
3.26696
3.19677
3.12111
3.04055
2.95577
2.86778
2.77794
2.68798
2.59994
2.51596
2.43812
2.3681
2.30675
2.25405
2.20903
2.16988
2.13411
2.09872
2.0604
2.0158
1.96178
1.89564
1.81541
1.72021
1.6104
1.48769
1.35506
1.21656
1.07666
0.939767
0.809645
0.688964
0.578999
0.479615
0.389154
0.305093
0.224686
0.145588
0.0661766
-0.0150253
-0.160833
0
0.615692
1.758
3.32658
5.00885
6.28917
6.63152
5.78779
3.99906
1.8939
0.145061
-0.850816
-1.06155
-0.698547
-0.296597
0.0682648
0.366444
0.581628
0.751066
0.878894
0.972539
1.04123
1.09435
1.13994
1.18376
1.22878
1.27577
1.3244
1.37383
1.42359
1.474
1.52634
1.58254
1.64474
1.71457
1.79267
1.87827
1.96926
2.0627
2.15516
2.24319
2.32379
2.39505
2.45635
2.50832
2.55271
2.592
2.62895
2.66621
2.70608
2.75035
2.80034
2.85711
2.92157
2.99445
3.07624
3.167
3.2662
3.37264
3.48447
3.59934
3.71467
3.82789
3.93681
4.03976
4.13578
4.22469
4.30693
4.38342
4.45519
4.52284
4.58611
4.64355
4.69252
4.72945
4.75022
4.75122
4.72996
4.68561
4.61916
4.53328
4.43178
4.31886
4.19822
4.07239
3.94277
3.80983
3.67332
3.53289
3.38866
3.24159
3.09356
2.94784
2.80973
2.68573
2.58115
2.49975
2.44311
2.41032
2.39838
2.40283
2.41867
2.44101
2.46522
2.48816
2.50743
2.52092
2.52709
2.52509
2.51493
2.4975
2.4745
2.44813
2.42064
2.39398
2.36934
2.3472
2.32733
2.309
2.2913
2.27345
2.25494
2.23567
2.21588
2.19603
2.17676
2.15871
2.1426
2.12914
2.11896
2.11245
2.10963
2.11
2.11247
2.11548
2.11706
2.11513
2.108
2.09465
2.07497
2.04969
2.02032
1.98875
1.95695
1.9266
1.89871
1.87361
1.85099
1.82988
1.80878
1.7857
1.75878
1.72701
1.69075
1.65205
1.61451
1.58268
1.56096
1.55239
1.55799
1.57787
1.6049
1.62978
1.64373
1.64078
1.61896
1.58023
1.52937
1.47235
1.41494
1.36061
1.31094
1.26671
1.22797
1.19334
1.16025
1.12606
1.08901
1.04873
1.00649
0.964857
0.926966
0.895676
0.872517
0.856918
0.847788
0.843854
0.843412
0.844648
0.845912
0.845902
0.843917
0.840096
0.835437
0.83171
0.831208
0.836341
0.849087
0.870455
0.900295
0.937424
0.977674
1.01568
1.04579
1.06288
1.06193
1.04043
0.997636
0.934489
0.853501
0.758594
0.654779
0.547593
0.442299
0.342518
0.249261
0.162298
0.0802401
0
-0.0830946
-0.174082
-0.277373
-0.39589
-0.530539
-0.6807
-0.926521
-1.05562
-0.758883
0.0554678
1.36473
2.96511
4.41387
5.12984
4.69164
3.13696
0.995718
-0.999936
-2.30585
-2.77418
-2.5963
-2.13994
-1.73458
-1.44337
-1.31584
-1.27645
-1.26753
-1.28691
-1.32951
-1.38752
-1.45166
-1.51299
-1.56481
-1.60476
-1.63526
-1.65869
-1.67641
-1.68977
-1.69992
-1.70783
-1.71437
-1.72046
-1.72734
-1.73648
-1.7494
-1.76733
-1.79094
-1.82013
-1.854
-1.89105
-1.92944
-1.96736
-2.00325
-2.0359
-2.06428
-2.08732
-2.10382
-2.1123
-2.11107
-2.09857
-2.07374
-2.03654
-1.98826
-1.93166
-1.87013
-1.80881
-1.75257
-1.70501
-1.66771
-1.64005
-1.61965
-1.60325
-1.58778
-1.57142
-1.55389
-1.53811
-1.52897
-1.53141
-1.54855
-1.58061
-1.62501
-1.67764
-1.73482
-1.79501
-1.85898
-1.9298
-2.01166
-2.10865
-2.22366
-2.35764
-2.50944
19
200
382
562
744
921
1087
1252
1417
1583
1740
1906
2106
2314
2507
2691
2869
3043
3228
3446
3672
3734
3651
3491
3646
0
0
0
0
0
0
0
0
0
0
0
0
0
0
0
0
0
0
0
0
0
0
0
0
0
0
0
0
0
0
0
0
0
0
0
0
0
0
0
0
0
0
0
0
0
0
0
0
0
0
0
0
0
0
0
0
0
0
0
0
0
0
0
0
0
0
0
0
0
0
0
0
0
0
0
0
0
0
0
0
0
0
0
0
0
0
0
0
0
0
0
0
0
0
0
0
0
0
0
0
0
0
0
0
0
0
0
0
0
0
0
0
0
0
0
0
0
0
0
0
0
0
0
0
0
0
0
0
0
0
0
0
0
0
0
0
0
0
0
0
0
0
0
0
0
0
0
0
0
0
0
0
0
0
0
0
0
0
0
0
0
0
0
0
0
0
0
0
0
0
0
0
0
0
0
0
0
0
0
0
0
0
0
0
0
0
0
0
0
0
0
0
0
0
0
0
0
0
0
0
0
0
0
0
0
0
0
0
0
0
0
0
0
0
0
0
0
0
0
0
0
0
0
0
0
0
0
0
0
0
0
0
0
0
0
0
0
0
0
0
0
0
0
0
0
0
0
0
0
0
0
0
0
0
0
0
0
0
0
0
0
0
0
0
0
0
0
0
0
0
0
0
0
0
0
0
0
0
0
0
0
0
0
0
0
0
0
0
0
0
0
0
0
0
0
0
0
0
0
0
0
0
0
0
0
0
0
0
0
0
0
0
0
0
0
0
0
0
0
0
0
0
0
0
0
0
0
0
0
0
0
0
0
0
0
0
0
0
0
0
0
0
0
0
0
0
0
0
0
0
0
0
0
0
0
0
0
0
0
0
0
0
0
0
0
0
0
0
0
0
0
0
0
0
0
0
0
0
0
0
0
0
0
0
0
0
0
0
0
0
0
0
0
0
0
0
0
0
0
0
0
0
0
0
0
0
0
0
0
0
0
0
0
0
0
0
0
0
0
0
0
0
0
0
0
0
0
0
0
0
0
0
0
0
0
0
0
0
0
0
0
0
0
0
0
0
0
0
0
0
0
0
0
0
0
0
0
0
0
0
0
0
0
0
0
0
0
0
0
0
0
0
0
0
0
0
0
0
0
0
0
0
0
0
0
0
0
0
0
0
0
0
0
0
0
0
0
0
0
0
0
0
0
0
0
0
0
0
0
0
0
0
0
0
0
0
0
0
0
0
0
0
0
0
0
0
0
0
0
0
0
0
0
0
0
0
0
0
0
0
0
0
0
0
0
0
0
0
0
0
0
0
0
0
0
0
0
0
0
0
0
0
0
0
0
0
0
0
0
0
0
0
0
0
0
0
0
0
0
0
0
0
0
0
0
0
0
0
0
0
0
0
0
0
0
0
0
0
0
0
0
0
0
0
0
0
0
0
0
0
0
0
0
0
0
0
0
0
0
0
0
0
0
0
0
0
0
0
0
0
0
0
0
0
0
0
0
0
0
0
0
0
0
0
0
0
0
0
0
0
0
0
0
0
0
0
0
0
0
0
0
0
0
0
0
0
0
0
0
0
0
0
0
0
0
0
0
0
0
0
0
0
0
0
0
0
0
0
0
0
0
0
0
0
0
0
0
0
0
0
0
0
0
0
0
0
0
0
0
0
0
0
0
0
0
0
0
0
0
0
0
0
0
0
0
0
0
0
0
0
0
0
0
0
0
0
0
0
0
0
0
0
0
0
0
0
0
0
0
0
0
0
0
0
0
0
0
0
0
0
0
0
0
0
0
0
0
0
0
0
0
0
0
0
0
0
0
0
0
0
0
0
0
0
0
0
0
0
0
0
0
0
0
0
0
0
0
0
0
0
0
0
0
0
0
0
0
0
0
0
0
0
0
0
0
0
0
0
0
0
0
0
0
0
0
0
0
0
0
0
0
0
0
0
0
0
0
0
0
0
0
0
0
0
0
0
0
0
0
0
0
0
0
0
0
0
0
0
0
0
0
0
0
0
0
0
0
0
0
0
0
0
0
0
0
0
0
0
0
0
0
0
0
0
0
0
0
0
0
0
0
0
0
0
0
0
0
0
0
0
0
0
0
0
0
0
0
0
0
0
0
0
0
0
0
0
0
0
0
0
0
0
0
0
0
0
0
0
0
0
0
0
0
0
0
0
0
0
0
0
0
0
0
0
0
0
0
0
0
0
0
0
0
0
0
0
0
0
0
0
0
0
0
0
0
0
0
0
0
0
0
0
0
0
0
0
0
0
0
0
0
0
0
0
0
0
0
0
0
0
0
0
0
0
0
0
0
0
0
0
0
0
0
0
0
0
0
0
0
0
0
0
0
0
0
0
0
0
0
0
0
0
0
0
0
0
0
0
0
0
0
0
0
0
0
0
0
0
0
0
0
0
0
0
0
0
0
0
0
0
0
0
0
0
0
0
0
0
0
0
0
0
0
0
0
0
0
0
0
0
0
0
0
0
0
0
0
0
0
0
0
0
0
0
0
0
0
0
0
0
0
0
0
0
0
0
0
0
0
0
0
0
0
0
0
0
0
0
0
0
0
0
0
0
0
0
0
0
0
0
0
0
0
0
0
0
0
0
0
0
0
0
0
0
0
0
0
0
0
0
0
0
0
0
0
0
0
0
0
0
0
0
0
0
0
0
0
0
0
0
0
0
0
0
0
0
0
0
0
0
0
0
0
0
0
0
0
0
0
0
0
0
0
0
0
0
0
0
0
0
0
0
0
0
0
0
0
0
0
0
0
0
0
0
0
0
0
0
0
0
0
0
0
0
0
0
0
0
0
0
0
0
0
0
0
0
0
0
0
0
0
0
0
0
0
0
0
0
0
0
0
0
0
0
0
0
0
0
0
0
0
0
0
0
0
0
0
0
0
0
0
0
0
0
0
0
0
0
0
0
0
0
0
0
0
0
0
0
0
0
0
0
0
0
0
0
0
0
0
0
0
0
0
0
0
0
0
0
0
0
0
0
0
0
0
0
0
0
0
0
0
0
0
0
0
0
0
0
0
0
0
0
0
0
0
0
0
0
0
0
0
0
0
0
0
0
0
0
0
0
0
0
0
0
0
0
0
0
0
0
0
0
0
0
0
0
0
0
0
0
0
0
0
0
0
0
0
0
0
0
0
0
0
0
0
0
0
0
0
0
0
0
0
0
0
0
0
0
0
0
0
0
0
0
0
0
0
0
0
0
0
0
0
0
0
0
0
0
0
0
0
0
0
0
0
0
0
0
0
0
0
0
0
0
0
0
0
0
0
0
0
0
0
0
0
0
0
0
0
0
0
0
0
0
0
0
0
0
0
0
0
0
0
0
0
0
0
0
0
0
0
0
0
0
0
0
0
0
0
0
0
0
0
0
0
0
0
0
0
0
0
0
0
0
0
0
0
0
0
0
0
0
0
0
0
0
0
0
0
0
0
0
0
0
0
0
0
0
0
0
0
0
0
0
0
0
0
0
0
0
0
0
0
0
0
0
0
0
0
0
0
0
0
0
0
0
0
0
0
0
0
0
0
0
0
0
0
0
0
0
0
0
0
0
0
0
0
0
0
0
0
0
0
0
0
0
0
0
0
0
0
0
0
0
0
0
0
0
0
0
0
0
0
0
0
0
0
0
0
0
0
0
0
0
0
0
0
0
0
0
0
0
0
0
0
0
0
0
0
0
0
0
0
0
0
0
0
0
0
0
0
0
0
0
0
0
0
0
0
0
0
0
0
0
0
0
0
0
0
0
0
0
0
0
0
0
0
0
0
0
0
0
0
0
0
0
0
0
0
0
0
0
0
0
0
0
0
0
0
0
0
0
0
0
0
0
0
0
0
0
0
0
0
0
0
0
0
0
0
0
0
0
0
0
0
0
0
0
0
0
0
0
0
0
0
0
0
0
0
0
0
0
0
0
0
0
0
0
0
0
0
0
0
0
0
0
0
0
0
0
0
0
0
0
0
0
0
0
0
0
0
0
0
0
0
0
0
0
0
0
0
0
0
0
0
0
0
0
0
0
0
0
0
0
0
0
0
0
0
0
0
0
0
0
0
0
0
0
0
0
0
0
0
0
0
0
0
0
0
0
0
0
0
0
0
0
0
0
0
0
0
0
0
0
0
0
0
0
0
0
0
0
0
0
0
0
0
0
0
0
0
0
0
0
0
0
0
0
0
0
0
0
0
0
0
0
0
0
0
0
0
0
0
0
0
0
0
0
0
0
0
0
0
0
0
0
0
0
0
0
0
0
0
0
0
0
0
0
0
0
0
0
0
0
0
0
0
0
0
0
0
0
0
0
0
0
0
0
0
0
0
0
0
0
0
0
0
0
0
0
0
0
0
0
0
0
0
0
0
0
0
0
0
0
0
0
0
0
0
0
0
0
0
0
0
0
0
0
0
0
0
0
0
0
0
0
0
0
0
0
0
0
0
0
0
0
0
0
0
0
0
0
0
0
0
0
0
0
0
0
0
0
0
0
0
0
0
0
0
0
0
0
0
0
0
0
0
0
0
0
0
0
0
0
0
0
0
0
0
0
0
0
0
0
0
0
0
0
0
0
0
0
0
0
0
0
0
0
0
0
0
0
0
0
0
0
0
0
0
0
0
0
0
0
0
0
0
0
0
0
0
0
0
0
0
0
0
0
0
0
0
0
0
0
0
0
0
0
0
0
0
0
0
0
0
0
0
0
0
0
0
0
0
0
0
0
0
0
0
0
0
0
0
0
0
0
0
0
0
0
0
0
0
0
0
0
0
0
0
0
0
0
0
0
0
0
0
0
0
0
0
0
0
0
0
0
0
0
0
0
0
0
0
0
0
0
0
0
0
0
0
0
0
0
0
0
0
0
0
0
0
0
0
0
0
0
0
0
0
0
0
0
0
0
0
0
0
0
0
0
0
0
0
0
0
0
0
0
0
0
0
0
0
0
0
0
0
0
0
0
0
0
0
0
0
0
0
0
0
0
0
0
0
0
0
0
0
0
0
0
0
0
0
0
0
0
0
0
0
0
0
0
0
0
0
0
0
0
0
0
0
0
0
0
0
0
0
0
0
0
0
0
0
0
0
0
0
0
0
0
0
0
0
0
0
0
0
0
0
0
0
0
0
0
0
0
0
0
0
0
0
0
0
0
0
0
0
0
0
0
0
0
0
0
0
0
0
0
0
0
0
0
0
0
0
0
0
0
0
0
0
0
0
0
0
0
0
0
0
0
0
0
0
0
0
0
0
0
0
0
0
0
0
0
0
0
0
0
0
0
0
0
0
0
0
0
0
0
0
0
0
0
0
0
0
0
0
0
0
0
0
0
0
0
0
0
0
0
0
0
0
0
0
0
0
0
0
0
0
0
0
0
0
0
0
0
0
0
0
0
0
0
0
0
0
0
0
0
0
0
0
0
0
0
0
0
0
0
0
0
0
0
0
0
0
0
0
0
0
0
0
0
0
0
0
0
0
0
0
0
0
0
0
0
0
0
0
0
0
0
0
0
0
0
0
0
0
0
0
0
0
0
0
0
0
0
0
0
0
0
0
0
0
0
0
0
0
0
0
0
0
0
0
0
0
0
0
0
0
0
0
0
0
0
0
0
0
0
0
0
0
0
0
0
0
0
0
0
0
0
0
0
0
0
0
0
0
0
0
0
0
0
0
0
0
0
0
0
0
0
0
0
0
0
0
0
0
0
0
0
0
0
0
0
0
0
0
0
0
0
0
0
0
0
0
0
0
0
0
0
0
0
0
0
0
0
0
0
0
0
0
0
0
0
0
0
0
0
0
0
0
0
0
0
0
0
0
0
0
0
0
0
0
0
0
0
0
0
0
0
0
0
0
0
0
0
0
0
0
0
0
0
0
0
0
0
0
0
0
0
0
0
0
0
0
0
0
0
0
0
0
0
0
0
0
0
0
0
0
0
0
0
0
0
0
0
0
0
0
0
0
0
0
0
0
0
0
0
0
0
0
0
0
0
0
0
0
0
0
0
0
0
0
0
0
0
0
0
0
0
0
0
0
0
0
0
0
0
0
0
0
0
0
0
0
0
0
0
0
0
0
0
0
0
0
0
0
0
0
0
0
0
0
0
0
0
0
0
0
0
0
0
0
0
0
0
0
0
0
0
0
0
0
0
0
0
0
0
0
0
0
0
0
0
0
0
0
0
0
0
0
0
0
0
0
0
0
0
0
0
0
0
0
0
0
0
0
0
0
0
0
0
0
0
0
0
0
0
0
0
0
0
0
0
0
0
0
0
0
0
0
0
0
0
0
0
0
0
0
0
0
0
0
0
0
0
0
0
0
0
0
0
0
0
0
0
0
0
0
0
0
0
0
0
0
0
0
0
0
0
0
0
0
0
0
0
0
0
0
0
0
0
0
0
0
0
0
0
0
0
0
0
0
0
0
0
0
0
0
0
0
0
0
0
0
0
0
0
0
0
0
0
0
0
0
0
0
0
0
0
0
0
0
0
0
0
0
0
0
0
0
0
0
0
0
0
0
0
0
0
0
0
0
0
0
0
0
0
0
0
0
0
0
0
0
0
0
0
0
0
0
0
0
0
0
0
0
0
0
0
0
0
0
0
0
0
0
0
0
0
0
0
0
0
0
0
0
0
0
0
0
0
0
0
0
0
0
0
0
0
0
0
0
0
0
0
0
0
0
0
0
0
0
0
0
0
0
0
0
0
0
0
0
0
0
0
0
0
0
0
0
0
0
0
0
0
0
0
0
0
0
0
0
0
0
0
0
0
0
0
0
0
0
0
0
0
0
0
0
0
0
0
0
0
0
0
0
0
0
0
0
0
0
0
0
0
0
0
0
0
0
0
0
0
0
0
0
0
0
0
0
0
0
0
0
0
0
0
0
0
0
0
0
0
0
0
0
0
0
0
0
0
0
0
0
0
0
0
0
0
0
0
0
0
0
0
0
0
0
0
0
0
0
0
0
0
0
0
0
0
0
0
0
0
0
0
0
0
0
0
0
0
0
0
0
0
0
0
0
0
0
0
0
0
0
0
0
0
0
0
0
0
0
0
0
0
0
0
0
0
0
0
0
0
0
0
0
0
0
0
0
0
0
0
0
0
0
0
0
0
0
0
0
0
0
0
0
0
0
0
0
0
0
0
0
0
0
0
0
0
0
0
0
0
0
0
0
0
0
0
0
0
0
0
0
0
0
0
0
0
0
0
0
0
0
0
0
0
0
0
0
0
0
0
0
0
0
0
0
0
0
0
0
0
0
0
0
0
0
0
0
0
0
0
0
0
0
0
0
0
0
0
0
0
0
0
0
0
0
0
0
0
0
0
0
0
0
0
0
0
0
0
0
0
0
0
0
0
0
0
0
0
0
0
0
0
0
0
0
0
0
0
0
0
0
0
0
0
0
0
0
0
0
0
0
0
0
0
0
0
0
0
0
0
0
0
0
0
0
0
0
0
0
0
0
0
0
0
0
0
0
0
0
0
0
0
0
0
0
0
0
0
0
0
0
0
0
0
0
0
0
0
0
0
0
0
0
0
0
0
0
0
0
0
0
0
0
0
0
0
0
0
0
0
0
0
0
0
0
0
0
0
0
0
0
0
0
0
0
0
0
0
0
0
0
0
0
0
0
0
0
0
0
0
0
0
0
0
0
0
0
0
0
0
0
0
0
0
0
0
0
0
0
0
0
0
0
0
0
0
0
0
0
0
0
0
0
0
0
0
0
0
0
0
0
0
0
0
0
0
0
0
0
0
0
0
0
0
0
0
0
0
0
0
0
0
0
0
0
0
0
0
0
0
0
0
0
0
0
0
0
0
0
0
0
0
0
0
0
0
0
0
0
0
0
0
0
0
0
0
0
0
0
0
0
0
0
0
0
0
0
0
0
0
0
0
0
0
0
0
0
0
0
0
0
0
0
0
0
0
0
0
0
0
0
0
0
0
0
0
0
0
0
0
0
0
0
0
0
0
0
0
0
0
0
0
0
0
0
0
0
0
0
0
0
0
0
0
0
0
0
0
0
0
0
0
0
0
0
0
0
0
0
0
0
0
0
0
0
0
0
0
0
0
0
0
0
0
0
0
0
0
0
0
0
0
0
0
0
0
0
0
0
0
0
0
0
0
0
0
0
0
0
0
0
0
0
0
0
0
0
0
0
0
0
0
0
0
0
0
0
0
0
0
0
0
0
0
0
0
0
0
0
0
0
0
0
0
0
0
0
0
0
0
0
0
0
0
0
0
0
0
0
0
0
0
0
0
0
0
0
0
0
0
0
0
0
0
0
0
0
0
0
0
0
0
0
0
0
0
0
0
0
0
0
0
0
0
0
0
0
0
0
0
0
0
0
0
0
0
0
0
0
0
0
0
0
0
0
0
0
0
0
0
0
0
0
0
0
0
0
0
0
0
0
0
0
0
0
0
0
0
0
0
0
0
0
0
0
0
0
0
0
0
0
0
0
0
0
0
0
0
0
0
0
0
0
0
