0.834454
0.802435
0.762943
0.719052
0.673703
0.62909
0.58665
0.547289
0.511454
0.479408
0.451487
0.428348
0.410827
0.399866
0.396298
0.401133
0.414564
0.436615
0.467439
0.507508
0.557687
0.623053
0.707847
0.800763
0.8822
0.929747
0.926383
0.866892
0.759459
0.622747
0.481152
0.360006
0.269096
0.213717
0.200092
0.248498
0.356293
0.490059
0.609928
0.683555
0.696612
0.655085
0.579397
0.494684
0.422624
0.370919
0.337941
0.323333
0.328732
0.3548
0.401141
0.466312
0.548024
0.643526
0.750133
0.865617
0.988759
1.12017
1.26378
1.43152
1.64338
1.88735
2.11551
2.26729
2.29479
2.1857
1.97123
1.71275
1.47277
1.28654
1.13497
0.995951
0.86153
0.729079
0.597932
0.469061
0.345195
0.231571
0.135659
0.0639793
0.0216331
0.0107712
0.0304344
0.0776924
0.139917
0.202034
0.249813
0.272784
0.265873
0.229487
0.168369
0.089949
0
-0.0257542
0.304068
1.2984
3.16815
5.84945
8.90925
11.5967
13.0701
12.7232
10.4585
6.76192
2.52976
-1.26035
-3.87157
-4.99522
-4.76355
-3.63096
-2.18456
-0.949123
-0.23677
-0.0927563
-0.178748
-0.217493
-0.235667
-0.227668
-0.194457
-0.147296
-0.100917
-0.0689564
-0.0599094
-0.0748375
-0.107286
-0.145118
-0.173642
-0.18112
-0.163631
-0.122069
-0.055661
0.029681
0.122996
0.213474
0.29385
0.362529
0.423672
0.485398
0.556992
0.646342
0.754296
0.879745
1.02254
1.1819
1.35613
1.54262
1.73792
1.9378
2.13759
2.33261
2.51887
2.69354
2.85531
3.00433
3.14142
3.26688
3.37972
3.47682
3.5525
3.59695
3.59868
3.54763
3.43816
3.271
3.05407
2.80196
2.5343
2.27112
2.02457
1.80074
1.6094
1.45656
1.33512
1.23316
1.1378
1.03909
0.932762
0.820756
0.709661
0.607737
0.521435
0.450706
0.395226
0.353976
0.325162
0.306961
0.297941
0.297078
0.303476
0.315994
0.332764
0.351775
0.370736
0.387406
0.399808
0.406649
0.407653
0.403593
0.396226
0.388019
0.381691
0.379615
0.38358
0.394535
0.410891
0.430124
0.450014
0.469802
0.490682
0.515312
0.546465
0.587783
0.63629
0.68233
0.71352
0.719595
0.696552
0.648202
0.584698
0.519054
0.463367
0.42226
0.39519
0.381842
0.382291
0.394789
0.415036
0.436954
0.454302
0.461905
0.456755
0.438714
0.410573
0.377359
0.344992
0.318636
0.30091
0.292811
0.290678
0.288674
0.281019
0.264294
0.238946
0.209416
0.18282
0.16663
0.166037
0.180433
0.207677
0.243061
0.28053
0.314312
0.340411
0.357516
0.36713
0.372898
0.379364
0.390495
0.408296
0.433913
0.465171
0.499111
0.534075
0.571495
0.616558
0.68204
0.81936
1.05082
1.31872
1.52775
1.59944
1.51476
1.3171
1.07766
0.850816
0.653675
0.472852
0.302885
0.144748
0.0030571
-0.116597
-0.206908
-0.253521
-0.243539
-0.185664
-0.105901
-0.0335522
0.00669327
0
-0.0537277
-0.152313
-0.284406
-0.436965
-0.597784
-0.759498
-0.9193
-1.07392
-0.873306
-0.259459
0.873187
2.55608
4.67496
6.93937
8.89998
10.0415
9.9404
8.44308
5.77614
2.51617
-0.590643
-2.88624
-4.01884
-4.01479
-3.25466
-2.20687
-1.29434
-0.749158
-0.625306
-0.628862
-0.625517
-0.616211
-0.599027
-0.572828
-0.538822
-0.50007
-0.459589
-0.41912
-0.378487
-0.335844
-0.28874
-0.23553
-0.176512
-0.114476
-0.053109
0.0038208
0.0537064
0.0961124
0.133167
0.169248
0.210118
0.261718
0.328254
0.412359
0.515466
0.637798
0.778326
0.934808
1.1039
1.28129
1.46186
1.6399
1.80924
1.96442
2.10127
2.21764
2.31381
2.39256
2.45881
2.51888
2.57957
2.64837
2.73678
2.85208
2.97791
3.08708
3.15099
3.14928
3.07539
2.93582
2.74475
2.51831
2.27253
2.02322
1.77854
1.54321
1.32108
1.11557
0.928695
0.760488
0.609785
0.475024
0.355081
0.249878
0.160482
0.0887077
0.0400211
0.0217525
0.031815
0.0563488
0.0784748
0.0845779
0.069804
0.0400551
0.00939064
-0.00614777
0.00450096
0.0388279
0.0862316
0.139692
0.191333
0.233963
0.262104
0.272283
0.262766
0.233088
0.184431
0.119898
0.0416012
-0.0486229
-0.142402
-0.225051
-0.2797
-0.290268
-0.196298
0.120457
0.57649
1.02349
1.34175
1.48549
1.48056
1.38311
1.23382
1.0433
0.818352
0.598962
0.415834
0.285688
0.211051
0.180079
0.179779
0.205246
0.257367
0.33796
0.43611
0.53062
0.600435
0.630841
0.619172
0.576515
0.523585
0.482271
0.466945
0.47386
0.492009
0.515313
0.537746
0.554092
0.56087
0.556785
0.54272
0.521333
0.496451
0.472184
0.452304
0.439634
0.43563
0.440817
0.455588
0.480344
0.515718
0.562736
0.62295
0.698207
0.790309
0.900568
1.03067
1.18324
1.36015
1.55958
1.77125
1.97342
2.14239
2.25663
2.29758
2.25193
2.11543
1.89689
1.62025
1.32305
1.04869
0.819416
0.630383
0.471596
0.3425
0.239518
0.157798
0.0928265
0.0418118
0.00440903
-0.0173779
-0.0200645
0
0.0467388
0.117315
0.210139
0.321732
0.447319
0.58147
0.718934
0.854679
0.829433
1.00425
1.75078
3.26556
5.48626
8.02949
10.2487
11.4196
11.0146
8.95702
5.71542
2.15083
-0.836889
-2.67931
-3.3209
-3.10694
-2.54454
-1.93458
-1.37633
-0.853422
-0.462976
-0.308089
-0.216427
-0.144012
-0.0792351
-0.0196983
0.0355968
0.0849506
0.124489
0.150518
0.161898
0.161345
0.155086
0.151212
0.157582
0.178515
0.2142
0.264524
0.329841
0.409494
0.502312
0.608006
0.720573
0.829317
0.923686
0.996797
1.04841
1.08603
1.12354
1.17792
1.26504
1.38961
1.54665
1.73223
1.94296
2.17731
2.42024
2.64996
2.84752
3.00182
3.11242
3.18854
3.24459
3.2926
3.33871
3.37489
3.38316
3.34604
3.25615
3.11992
2.95381
2.77618
2.59966
2.4265
2.25504
2.08391
1.9119
1.73853
1.56442
1.39147
1.22283
1.06249
0.914756
0.783981
0.676864
0.600847
0.549103
0.507312
0.459053
0.391343
0.299304
0.188036
0.0709557
-0.0345871
-0.112647
-0.162638
-0.186259
-0.184472
-0.160688
-0.120155
-0.0707481
-0.0197334
0.0276848
0.0692619
0.105838
0.140656
0.17808
0.22209
0.274629
0.335027
0.401297
0.470319
0.538152
0.600603
0.653482
0.693346
0.718081
0.726816
0.719952
0.699114
0.667009
0.627157
0.58351
0.53999
0.499929
0.465572
0.438319
0.418804
0.406864
0.4017
0.402073
0.40649
0.413401
0.421392
0.429374
0.436791
0.443815
0.451468
0.461621
0.476795
0.499755
0.53433
0.587061
0.66011
0.734371
0.781276
0.772511
0.692246
0.546268
0.363002
0.184992
0.0541824
-0.00756874
0.000131226
0.0667492
0.171506
0.290691
0.403594
0.501541
0.581046
0.638168
0.670979
0.679682
0.666881
0.637802
0.600198
0.563758
0.538941
0.534994
0.558355
0.612327
0.695852
0.806313
0.935398
1.06822
1.18992
1.28854
1.35711
1.39425
1.40345
1.39121
1.3647
1.32953
1.28815
1.23944
1.17937
1.1025
1.0038
0.880608
0.734129
0.570166
0.398347
0.231375
0.0820402
-0.0392487
-0.126212
-0.177303
-0.195197
-0.185567
-0.155724
-0.114362
-0.0689846
-0.0278282
0
0.0152786
0.00106239
-0.0476734
-0.13231
-0.249967
-0.393741
-0.608576
-0.53012
0.236106
1.85054
4.24229
7.0633
9.71858
11.495
11.7959
10.4026
7.62115
4.19308
0.989046
-1.34721
-2.60246
-2.95396
-2.66012
-2.29227
-1.8753
-1.47865
-1.18638
-1.01324
-0.892248
-0.792428
-0.702401
-0.617063
-0.532818
-0.446711
-0.356745
-0.261994
-0.16254
-0.0594097
0.0453524
0.148258
0.244884
0.330851
0.402673
0.458625
0.499355
0.528076
0.55026
0.572893
0.603472
0.648305
0.71137
0.794604
0.898392
1.02169
1.16197
1.31539
1.47722
1.6424
1.80615
1.96443
2.11432
2.25433
2.38463
2.50687
2.62378
2.73874
2.85501
2.9753
3.10159
3.23322
3.36471
3.48653
3.58721
3.6553
3.68106
3.65785
3.58311
3.45911
3.29335
3.09824
2.89012
2.68502
2.49472
2.32443
2.1758
2.04892
1.94082
1.84632
1.75912
1.67315
1.58376
1.48858
1.38805
1.28522
1.18517
1.09395
1.0178
0.963573
0.937503
0.939655
0.959824
0.983118
0.994212
0.981204
0.938572
0.868517
0.780381
0.688258
0.60739
0.548064
0.512593
0.50138
0.512429
0.541037
0.581023
0.625973
0.670268
0.7097
0.741436
0.763989
0.777076
0.781414
0.778466
0.770142
0.758477
0.745349
0.7323
0.7204
0.710413
0.702807
0.697727
0.694924
0.693678
0.692599
0.68988
0.683686
0.672633
0.656195
0.634855
0.609941
0.583162
0.556033
0.529384
0.503214
0.476816
0.449107
0.419062
0.386063
0.350088
0.311748
0.272251
0.233383
0.197588
0.169124
0.153552
0.15618
0.181324
0.230615
0.306373
0.39894
0.493853
0.575586
0.631651
0.655321
0.646138
0.608523
0.549716
0.478266
0.403978
0.333556
0.273302
0.228806
0.204124
0.200928
0.21968
0.256287
0.303201
0.3518
0.394195
0.424746
0.440956
0.443649
0.436547
0.425445
0.417126
0.417802
0.432507
0.464884
0.516936
0.589027
0.680432
0.788865
0.911833
1.04536
1.18218
1.31227
1.42528
1.51158
1.56309
1.57396
1.54112
1.46475
1.34866
1.20035
1.03086
0.852839
0.677886
0.514474
0.366667
0.236305
0.124577
0.0312876
-0.0445087
-0.103856
-0.147436
-0.175416
-0.187646
-0.183597
-0.161732
-0.120493
-0.0656357
-0.0139723
0.0144154
0.0010891
-0.0656685
-0.187455
-0.355186
-0.589567
-0.616183
0
1.47811
3.87516
6.96012
10.1839
12.7704
13.9388
13.199
10.588
6.71081
2.53688
-0.969915
-3.19684
-4.02739
-3.74758
-2.83004
-1.72252
-0.770218
-0.194193
-0.117571
-0.115319
-0.101872
-0.0766796
-0.0371767
0.0126572
0.0648644
0.11022
0.141222
0.154312
0.150713
0.135822
0.117628
0.104731
0.102783
0.114951
0.143462
0.189501
0.252919
0.332335
0.425471
0.529514
0.641255
0.757435
0.874643
0.988656
1.09621
1.19595
1.28923
1.38014
1.47477
1.57973
1.70043
1.83988
1.99601
2.16584
2.34776
2.54081
2.74753
2.97622
3.23703
3.51866
3.78047
3.9775
4.07736
4.0671
3.95196
3.75235
3.50186
3.24301
3.01377
2.82038
2.64776
2.483
2.31964
2.15426
1.98513
1.81249
1.63835
1.46583
1.29825
1.13801
0.986379
0.843091
0.706372
0.574045
0.444561
0.317858
0.195709
0.0814301
-0.0209338
-0.105614
-0.167932
-0.208867
-0.2346
-0.253228
-0.271911
-0.294373
-0.31975
-0.343167
-0.357817
-0.357755
-0.341281
-0.311703
-0.273033
-0.231336
-0.19253
-0.160603
-0.136501
-0.118063
-0.101002
-0.0805693
-0.0533491
-0.0176094
0.0240411
0.0645511
0.0954825
0.109855
0.104587
0.0818028
0.0486297
0.0155399
-0.00633976
-0.0087404
0.0100261
0.0465038
0.0959123
0.151703
0.206202
0.251964
0.282908
0.295039
0.286689
0.258384
0.212467
0.152842
0.0843427
0.0115985
-0.0611036
-0.130003
-0.192184
-0.245434
-0.288178
-0.319098
-0.336766
-0.339474
-0.325383
-0.293022
-0.242015
-0.173782
-0.0913072
5.48124e-005
0.0915986
0.173686
0.237901
0.278538
0.293396
0.283726
0.253458
0.208047
0.153348
0.094988
0.0376223
-0.0151089
-0.0590609
-0.0899152
-0.104001
-0.0984315
-0.0717864
-0.0246482
0.0402488
0.11838
0.204198
0.292047
0.377155
0.456203
0.526201
0.585512
0.633678
0.671327
0.700228
0.723282
0.744368
0.76798
0.798709
0.840674
0.896395
0.967096
1.05463
1.16201
1.29185
1.43852
1.58263
1.69994
1.76796
1.77214
1.71064
1.59569
1.45093
1.30445
1.17938
1.0803
0.997372
0.92087
0.84357
0.759072
0.663525
0.556541
0.441118
0.322761
0.208229
0.103418
0.0119412
-0.062006
-0.115441
-0.143385
-0.133431
-0.0857654
-0.0287855
0
-0.0401686
-0.1626
-0.362755
-0.633711
-0.954906
-0.582716
0.775617
3.17069
6.33227
9.66587
12.3598
13.609
12.913
10.3251
6.49833
2.46167
-0.79293
-2.69673
-3.25742
-2.92332
-2.30678
-1.81785
-1.58092
-1.51156
-1.3651
-1.19521
-1.02146
-0.852559
-0.697277
-0.563113
-0.454212
-0.370138
-0.306015
-0.254095
-0.206224
-0.156301
-0.102056
-0.0443226
0.0141327
0.0703243
0.122694
0.171985
0.221066
0.273882
0.334091
0.40405
0.483331
0.571065
0.66713
0.771897
0.886472
1.01252
1.15173
1.30509
1.47217
1.65077
1.83715
2.02645
2.21343
2.39342
2.56315
2.7213
2.86871
3.00805
3.14313
3.27863
3.42105
3.57909
3.75713
3.94061
4.09942
4.20081
4.21763
4.13567
3.95944
3.71383
3.43897
3.17718
2.95254
2.75717
2.57782
2.40783
2.24471
2.08716
1.93488
1.78839
1.64855
1.51594
1.39037
1.27036
1.15331
1.03614
0.916072
0.790681
0.661664
0.538076
0.432993
0.359855
0.328717
0.343719
0.4024
0.496638
0.614463
0.741896
0.864892
0.970391
1.04782
1.09054
1.09722
1.07244
1.02616
0.971791
0.923169
0.891374
0.87909
0.883124
0.899683
0.924971
0.953951
0.981395
1.00331
1.01787
1.02576
1.0301
1.03565
1.04775
1.07086
1.10735
1.15756
1.21839
1.28153
1.33666
1.37422
1.38768
1.37483
1.33794
1.28287
1.21731
1.14901
1.08385
1.02441
0.970759
0.921703
0.875267
0.82886
0.779931
0.726806
0.668516
0.607648
0.554427
0.52275
0.525927
0.57181
0.659811
0.781808
0.916216
1.03859
1.1283
1.17289
1.16916
1.12149
1.03927
0.934886
0.823611
0.717648
0.626595
0.558957
0.520355
0.51231
0.53168
0.572261
0.623159
0.672794
0.711403
0.732928
0.735812
0.722642
0.698922
0.671443
0.646566
0.628418
0.619281
0.62037
0.63249
0.655766
0.690292
0.736615
0.795961
0.870132
0.961045
1.07002
1.19698
1.33982
1.49416
1.65411
1.8099
1.94937
2.06152
2.13792
2.17355
2.16674
2.11825
2.03009
1.90465
1.74466
1.5575
1.35191
1.13222
0.91037
0.70427
0.532155
0.408533
0.340841
0.327932
0.360728
0.424627
0.502717
0.578981
0.642898
0.686359
0.704161
0.693852
0.655333
0.590386
0.502179
0.394827
0.273173
0.142382
0
0.0166458
0.484521
1.75932
4.05286
7.18471
10.4879
12.9842
13.7862
12.5076
9.44667
5.44332
1.51206
-1.53596
-3.30537
-3.82185
-3.39853
-2.46825
-1.44042
-0.607943
-0.102466
0.09566
0.223857
0.385316
0.557674
0.743309
0.934451
1.11286
1.2572
1.34877
1.37567
1.3351
1.23468
1.09353
0.942009
0.817926
0.752516
0.755944
0.817036
0.921915
1.06381
1.23269
1.41697
1.60498
1.78814
1.95999
2.11666
2.25697
2.38227
2.4959
2.60259
2.70755
2.81575
2.93132
3.05681
3.19346
3.34149
3.49986
3.66648
3.83865
4.009
4.16619
4.29891
4.39926
4.46581
4.505
4.53008
4.5575
4.60954
4.70972
4.83494
4.93571
4.95768
4.86433
4.65078
4.34427
3.99264
3.64764
3.34356
3.0751
2.83425
2.62227
2.44006
2.28786
2.16306
2.06102
1.97673
1.90569
1.84449
1.79102
1.7442
1.70341
1.66806
1.63643
1.60609
1.57438
1.53928
1.50005
1.45766
1.41477
1.37526
1.34338
1.32276
1.31706
1.32916
1.36083
1.41248
1.48373
1.57608
1.6867
1.80079
1.89999
1.96873
1.99938
1.99515
1.969
1.93827
1.91755
1.91301
1.9183
1.92666
1.93179
1.92892
1.91577
1.8923
1.85974
1.81981
1.77537
1.72912
1.6845
1.6462
1.61919
1.6073
1.61188
1.63102
1.6598
1.69156
1.71963
1.73943
1.74828
1.74567
1.73267
1.71107
1.68298
1.64989
1.61258
1.57139
1.52664
1.47886
1.42897
1.37834
1.32882
1.28266
1.24244
1.21087
1.1905
1.18479
1.2002
1.23967
1.29139
1.33841
1.36418
1.35885
1.32336
1.26927
1.21465
1.17818
1.17145
1.19045
1.24861
1.35621
1.48172
1.58178
1.61512
1.56098
1.43281
1.27701
1.15411
1.11144
1.15313
1.23091
1.32503
1.42456
1.51973
1.60403
1.67352
1.7271
1.76616
1.79384
1.81418
1.83125
1.84824
1.86691
1.8869
1.90428
1.91219
1.90256
1.86818
1.80472
1.71208
1.59463
1.46022
1.31848
1.17849
1.04588
0.923658
0.813697
0.716471
0.631512
0.55786
0.49432
0.43971
0.392711
0.350912
0.311431
0.271234
0.227637
0.17881
0.124096
0.0640167
0
-0.0684368
0.110757
0.735502
2.06093
4.17567
6.85434
9.53267
11.4537
11.9407
10.6861
7.91723
4.33677
0.850586
-1.78487
-3.21813
-3.54127
-3.13561
-2.43129
-1.73837
-1.19231
-0.795852
-0.502405
-0.306574
-0.179801
-0.0867683
-0.0154732
0.0399387
0.0832478
0.117868
0.147853
0.177284
0.209717
0.247615
0.292295
0.344181
0.40285
0.46711
0.535181
0.604768
0.673075
0.736964
0.793832
0.842239
0.88242
0.916598
0.94889
0.984793
1.03034
1.09114
1.1716
1.27295
1.39454
1.53552
1.69434
1.8684
2.05405
2.24665
2.44075
2.63037
2.80955
2.97287
3.11597
3.23582
3.33097
3.4012
3.44697
3.46887
3.46709
3.44083
3.38903
3.31062
3.2052
3.07379
2.91946
2.74738
2.56446
2.3784
2.19653
2.02441
1.86543
1.72041
1.58781
1.4644
1.3462
1.22946
1.11156
0.991697
0.871215
0.753497
0.643737
0.547718
0.471015
0.423915
0.412988
0.428324
0.453978
0.473051
0.472992
0.448965
0.404167
0.347418
0.289477
0.239483
0.20094
0.174733
0.161899
0.163977
0.182084
0.216793
0.27009
0.343861
0.434518
0.530315
0.616568
0.679647
0.710406
0.706426
0.672348
0.618269
0.556773
0.499549
0.453552
0.419951
0.396974
0.382421
0.374318
0.370316
0.367972
0.364852
0.358683
0.347687
0.330873
0.308319
0.281273
0.251991
0.223304
0.197994
0.178028
0.163831
0.154987
0.149782
0.145312
0.137152
0.120141
0.0898441
0.043861
-0.0168961
-0.0874996
-0.159298
-0.221383
-0.251772
-0.214666
-0.127135
-0.0342026
0.0138062
-0.0112541
-0.0995701
-0.208873
-0.287946
-0.303967
-0.269269
-0.215082
-0.15382
-0.0958279
-0.0466938
-0.00674858
0.0273922
0.0601791
0.0946358
0.130745
0.166815
0.200114
0.227906
0.248467
0.261811
0.270041
0.277295
0.289159
0.311885
0.351332
0.411805
0.495037
0.598518
0.717481
0.846454
0.977382
1.1003
1.2054
1.28426
1.33015
1.33829
1.30597
1.2329
1.12162
0.977907
0.81084
0.632636
0.456291
0.293188
0.151359
0.0374489
-0.0448891
-0.0953724
-0.115586
-0.110552
-0.0880438
-0.0566072
-0.0246765
0
0.0279964
0.035293
0.0173349
-0.0286446
-0.103053
-0.203386
-0.323987
-0.467112
-0.605713
-0.208795
0.90881
2.79983
5.33094
8.13027
10.5958
12.0284
11.8896
10.0623
6.95639
3.37037
0.171666
-2.02891
-3.04533
-3.06955
-2.49675
-1.73666
-1.02471
-0.487041
-0.203988
-0.0643658
0.0726908
0.213942
0.359903
0.51044
0.663931
0.816166
0.961364
1.09376
1.20906
1.30553
1.38439
1.44936
1.50569
1.55876
1.61284
1.67009
1.73119
1.7951
1.85971
1.92339
1.98627
2.051
2.12268
2.2081
2.31422
2.44658
2.60724
2.7925
2.99706
3.21567
3.44234
3.67098
3.89606
4.11333
4.32008
4.51504
4.69803
4.8678
5.02208
5.15985
5.27972
5.38023
5.46085
5.5223
5.56605
5.59287
5.6013
5.58718
5.54429
5.4666
5.35101
5.19948
5.01955
4.82295
4.62281
4.4298
4.24798
4.07994
3.92585
3.78385
3.65078
3.52323
3.39838
3.27489
3.15337
3.03654
2.92905
2.83679
2.76889
2.74431
2.78551
2.87939
2.99275
3.08818
3.13792
3.1331
3.08461
3.01583
2.95108
2.90591
2.87771
2.85975
2.84883
2.8445
2.84741
2.85919
2.88196
2.91725
2.96515
3.0237
3.08911
3.1563
3.21988
3.27553
3.31983
3.35071
3.36738
3.37007
3.35975
3.33814
3.30742
3.26982
3.22762
3.1832
3.13894
3.09704
3.0593
3.02707
3.00109
2.98142
2.96747
2.95794
2.95078
2.94341
2.93317
2.91772
2.89543
2.86572
2.82907
2.787
2.74175
2.69603
2.6525
2.61362
2.58141
2.55712
2.54109
2.53266
2.53001
2.52987
2.52807
2.52054
2.50412
2.47728
2.44039
2.39557
2.34605
2.29531
2.24612
2.19987
2.15687
2.11639
2.0771
2.03758
1.99697
1.95544
1.91463
1.87878
1.85369
1.84541
1.85851
1.89442
1.95067
2.02121
2.09787
2.17245
2.23866
2.29492
2.34063
2.37679
2.40504
2.42672
2.44202
2.44892
2.44306
2.41946
2.37311
2.3005
2.20095
2.07731
1.93582
1.78491
1.63328
1.4878
1.35273
1.22827
1.11159
0.998407
0.884984
0.769722
0.653873
0.54118
0.436601
0.343725
0.263874
0.197533
0.141787
0.0891716
0.0301922
-0.0448463
-0.147569
-0.293153
-0.479649
-0.69762
-0.952385
-0.756726
0
1.3953
3.49016
6.18918
9.10582
11.5087
12.513
11.4927
8.48153
4.26778
0.070892
-3.02765
-4.54678
-4.69937
-4.09643
-3.46728
-2.99212
-2.68451
-2.39577
-2.11155
-1.85543
-1.66313
-1.56787
-1.58298
-1.69026
-1.84255
-1.98149
-2.06187
-2.07694
-2.05916
-2.0272
-1.98805
-1.9464
-1.9055
-1.86714
-1.83091
-1.79449
-1.75397
-1.70444
-1.64097
-1.55996
-1.4582
-1.33521
-1.20511
-1.0864
-0.995154
-0.938541
-0.911473
-0.897842
-0.875565
-0.823211
-0.730165
-0.601384
-0.442603
-0.257609
-0.0504768
0.173403
0.408719
0.648286
0.876232
1.07417
1.22538
1.3188
1.35226
1.33309
1.27552
1.1958
1.10696
1.01555
0.92195
0.824248
0.719617
0.605074
0.478296
0.337997
0.184012
0.0171295
-0.161128
-0.349044
-0.544977
-0.747709
-0.956327
-1.16959
-1.38372
-1.58793
-1.76583
-1.89809
-1.96767
-1.96605
-1.89786
-1.7814
-1.64415
-1.51466
-1.41338
-1.33946
-1.28468
-1.24383
-1.21434
-1.19434
-1.18183
-1.17476
-1.17119
-1.16911
-1.16634
-1.16059
-1.1497
-1.13197
-1.10652
-1.07349
-1.03393
-0.988982
-0.939623
-0.886255
-0.828528
-0.765462
-0.695459
-0.615089
-0.522614
-0.429183
-0.353081
-0.312981
-0.320065
-0.372507
-0.455192
-0.544753
-0.617239
-0.654753
-0.661117
-0.644043
-0.606766
-0.551138
-0.479684
-0.395696
-0.302891
-0.205825
-0.111559
-0.0292772
0.0322817
0.0660662
0.0679564
0.037471
-0.0222698
-0.105213
-0.20333
-0.307468
-0.408262
-0.497154
-0.565619
-0.605913
-0.612029
-0.580827
-0.496806
-0.349899
-0.168161
0.00417576
0.127241
0.176154
0.144794
0.0429541
-0.109947
-0.290552
-0.474118
-0.638319
-0.771326
-0.868348
-0.927347
-0.944373
-0.91984
-0.858624
-0.769173
-0.661763
-0.546358
-0.430717
-0.31861
-0.211329
-0.108059
-0.00655117
0.0960644
0.202515
0.314796
0.434401
0.562687
0.699114
0.837668
0.965542
1.06706
1.12679
1.13247
1.07727
0.961476
0.793317
0.588897
0.370526
0.1633
-0.0132531
-0.153017
-0.256033
-0.319622
-0.344848
-0.336106
-0.300367
-0.246119
-0.182602
-0.117329
-0.0555176
0
0.0197262
0.0320463
0.0377222
0.0378198
0.0333921
0.0255085
0.0150689
0.0010468
-0.0837551
0.309008
1.52365
3.70477
6.66157
9.82975
12.3847
13.5053
12.71
10.106
6.39881
2.61543
-0.32987
-1.98755
-2.45225
-2.15019
-1.57155
-1.00518
-0.506168
-0.174518
0.0281202
0.183107
0.309784
0.410646
0.491037
0.558357
0.620669
0.685041
0.75606
0.834837
0.919468
1.00526
1.08656
1.15856
1.21879
1.26785
1.30925
1.34852
1.39177
1.444
1.50776
1.5838
1.67101
1.76672
1.86757
1.97033
2.07285
2.17452
2.27638
2.3807
2.49024
2.60747
2.73392
2.86989
3.01466
3.16695
3.32554
3.48966
3.6591
3.83403
4.01438
4.19932
4.38686
4.57144
4.7424
4.88723
4.99396
5.05311
5.05875
5.00873
4.90445
4.7506
4.55508
4.32866
4.08458
3.83493
3.58859
3.34956
3.11747
2.89096
2.66825
2.44804
2.231
2.02065
1.82322
1.64616
1.49614
1.37745
1.29146
1.23709
1.21168
1.2118
1.2311
1.26395
1.30609
1.35282
1.39891
1.43875
1.46756
1.48228
1.48214
1.46881
1.44603
1.41878
1.39219
1.37056
1.35668
1.35152
1.35518
1.36768
1.38912
1.41985
1.46086
1.51525
1.58362
1.65652
1.71731
1.74814
1.73624
1.679
1.58593
1.4767
1.37615
1.30769
1.28123
1.2918
1.33045
1.3897
1.46418
1.54689
1.62904
1.69954
1.74738
1.7646
1.74613
1.69081
1.60228
1.48938
1.36534
1.24563
1.145
1.07189
1.02582
1.00362
1.00397
1.02379
1.05887
1.10423
1.15482
1.20614
1.25386
1.29432
1.32477
1.34354
1.35028
1.34594
1.33273
1.31388
1.29327
1.27489
1.26225
1.25778
1.26241
1.2761
1.29564
1.31516
1.32847
1.33095
1.32104
1.30089
1.276
1.25391
1.24256
1.24842
1.27413
1.32004
1.38637
1.47367
1.58238
1.71723
1.90248
2.18103
2.52283
2.8442
3.05622
3.1021
2.97952
2.73667
2.44471
2.16173
1.91141
1.68305
1.47007
1.2717
1.09043
0.93019
0.798187
0.701939
0.636449
0.591368
0.554337
0.514595
0.465825
0.407156
0.34218
0.27661
0.215756
0.161571
0.113773
0.0716034
0.0340897
0
-0.0238602
-0.0415573
0.278543
1.13787
2.62766
4.62678
6.80953
8.73108
9.9411
10.0816
8.97842
6.72896
3.74106
0.653699
-1.87736
-3.43101
-3.94652
-3.7042
-3.08509
-2.37635
-1.74715
-1.28745
-1.10849
-1.05159
-1.0132
-0.980087
-0.94958
-0.920344
-0.891489
-0.862363
-0.832327
-0.800635
-0.766494
-0.729262
-0.688651
-0.644866
-0.59854
-0.55023
-0.500211
-0.448276
-0.393661
-0.335098
-0.270981
-0.199582
-0.119225
-0.0283585
0.0743851
0.1901
0.319453
0.462431
0.618013
0.783926
0.95658
1.13128
1.3027
1.46571
1.61631
1.75235
1.87402
1.9838
2.08601
2.18593
2.28938
2.4043
2.53572
2.67354
2.7989
2.89113
2.93431
2.92113
2.85289
2.73673
2.58233
2.39937
2.20011
1.99244
1.78064
1.5673
1.35431
1.14348
0.937016
0.737752
0.549072
0.374626
0.217883
0.0815628
-0.0330399
-0.12617
-0.199513
-0.255832
-0.298421
-0.330604
-0.355369
-0.375203
-0.39213
-0.407787
-0.423557
-0.440461
-0.458918
-0.478417
-0.497298
-0.51273
-0.521136
-0.518936
-0.503352
-0.470856
-0.421639
-0.362804
-0.303761
-0.253355
-0.217082
-0.195368
-0.183464
-0.172913
-0.154018
-0.118792
-0.06549
0.00672607
0.0992912
0.205283
0.308515
0.392433
0.444947
0.462153
0.449386
0.418883
0.384803
0.357812
0.341109
0.330414
0.321926
0.312147
0.298186
0.278196
0.251321
0.217485
0.177662
0.13342
0.0862709
0.0384392
-0.00709305
-0.0466782
-0.0762222
-0.0919632
-0.0895691
-0.0601517
0.0192863
0.184318
0.42712
0.687064
0.894389
0.995156
0.969194
0.835645
0.646134
0.466783
0.351118
0.298457
0.275072
0.262479
0.254932
0.250502
0.250976
0.261413
0.288759
0.340009
0.417808
0.523759
0.65786
0.826067
1.04006
1.28075
1.50697
1.67584
1.7576
1.7481
1.67024
1.56141
1.4539
1.36077
1.27294
1.18312
1.08749
0.983254
0.869435
0.746974
0.618526
0.488284
0.360845
0.24169
0.136221
0.0492798
-0.0155891
-0.056768
-0.0748833
-0.0729805
-0.055822
-0.0292999
0
0.0415398
0.0752884
0.0988243
0.111939
0.116449
0.113922
0.0847855
0.370194
1.19015
2.72926
4.99932
7.69608
10.1615
11.5595
11.2307
9.04174
5.51323
1.63057
-1.56684
-3.39821
-3.75871
-3.01469
-2.00731
-1.17632
-0.797293
-0.756184
-0.631282
-0.485107
-0.320338
-0.133569
0.0693565
0.274821
0.467168
0.632381
0.760742
0.84792
0.894708
0.906021
0.889796
0.856523
0.817405
0.782979
0.762855
0.763883
0.788704
0.837722
0.912025
1.01102
1.13258
1.2732
1.42824
1.59238
1.76015
1.92642
2.08665
2.23788
2.37916
2.51181
2.63931
2.76674
2.89981
3.04372
3.20383
3.38886
3.59845
3.80926
3.99203
4.12153
4.18509
4.18662
4.14426
4.08259
4.02252
3.97282
3.92687
3.87715
3.81741
3.74179
3.64648
3.53068
3.39677
3.2498
3.09631
2.9429
2.79465
2.65447
2.52266
2.3972
2.27464
2.15114
2.02359
1.8904
1.75185
1.61007
1.46858
1.33156
1.20342
1.08831
0.989987
0.91208
0.858168
0.830747
0.831569
0.861842
0.922013
1.0181
1.16323
1.37168
1.63837
1.92256
2.17511
2.35717
2.44125
2.41152
2.26655
2.02462
1.72936
1.44958
1.25528
1.15476
1.1165
1.13002
1.18954
1.28592
1.40899
1.54932
1.69732
1.84662
1.98681
2.10534
2.18916
2.22824
2.21955
2.16926
2.09173
2.00535
1.92679
1.86387
1.8138
1.77186
1.73433
1.69698
1.65583
1.60803
1.55244
1.48999
1.42371
1.35842
1.30088
1.25828
1.23718
1.24226
1.27535
1.33876
1.43083
1.53968
1.64949
1.74485
1.8133
1.84694
1.84266
1.80163
1.72851
1.63074
1.51917
1.40435
1.29516
1.19932
1.12349
1.07253
1.04917
1.05406
1.08589
1.14171
1.2172
1.30607
1.40259
1.50101
1.59606
1.68356
1.7609
1.82671
1.88061
1.92253
1.95201
1.96788
1.96754
1.94766
1.90472
1.83592
1.73998
1.61769
1.4721
1.3081
1.13171
0.949333
0.766537
0.587689
0.416138
0.254457
0.105394
-0.0268654
-0.136965
-0.220818
-0.274942
-0.297654
-0.290244
-0.257493
-0.207209
-0.14879
-0.0911909
-0.0409111
0
0.0279751
-0.0119898
0.479235
1.77916
3.97044
6.81607
9.72069
11.8503
12.4271
11.0878
8.10581
4.31545
0.751546
-1.79971
-3.0797
-3.33109
-3.01465
-2.63517
-2.28533
-1.95605
-1.53385
-1.00673
-0.449987
0.0670895
0.444609
0.599025
0.51089
0.245212
-0.0693337
-0.294687
-0.345551
-0.292146
-0.208839
-0.11708
-0.0246483
0.0621981
0.138061
0.199353
0.244306
0.273154
0.288287
0.294277
0.297644
0.306554
0.329695
0.374728
0.446947
0.548402
0.677774
0.831068
1.00286
1.18764
1.38017
1.5767
1.77474
1.97181
2.16507
2.35087
2.52484
2.6827
2.82086
2.93696
3.03016
3.10101
3.151
3.18188
3.19497
3.19075
3.16892
3.12797
3.06585
2.98041
2.87
2.73393
2.57307
2.39069
2.19181
1.98293
1.77205
1.56791
1.37893
1.21228
1.07459
0.973237
0.909207
0.869754
0.838503
0.79981
0.742762
0.663586
0.565868
0.458755
0.35402
0.2622
0.18715
0.131083
0.0966934
0.0852052
0.0968684
0.131003
0.186712
0.263005
0.354917
0.448141
0.525346
0.571263
0.577168
0.544507
0.485798
0.421747
0.375152
0.36375
0.386466
0.43232
0.494618
0.567071
0.642607
0.714352
0.776346
0.823137
0.850999
0.858316
0.845288
0.81401
0.768485
0.714399
0.658612
0.608384
0.570524
0.550619
0.552533
0.578092
0.626938
0.696478
0.783058
0.880813
0.979283
1.06744
1.13549
1.17642
1.18681
1.16663
1.11832
1.0455
0.952263
0.844618
0.728166
0.60804
0.489903
0.381655
0.291596
0.227304
0.194049
0.193407
0.226148
0.286638
0.360953
0.433975
0.492958
0.530258
0.544461
0.539757
0.523982
0.506115
0.493683
0.490493
0.497789
0.515651
0.543504
0.580278
0.624393
0.673024
0.721914
0.766263
0.801514
0.824273
0.833295
0.830294
0.820292
0.811276
0.813065
0.835061
0.884129
0.965735
1.09238
1.25115
1.41648
1.56114
1.66408
1.7148
1.7132
1.66585
1.58158
1.46859
1.3386
1.19958
1.05651
0.913686
0.775337
0.645122
0.525211
0.417224
0.321716
0.238344
0.166572
0.103155
0.0431038
-0.0183921
-0.0846857
-0.157093
-0.233335
-0.30861
-0.377174
-0.434159
-0.476979
-0.505889
-0.523712
-0.532036
-0.43982
0
1.00566
2.74565
5.21476
8.09269
10.7204
12.2825
12.1533
10.2152
6.94951
3.2302
-0.0554482
-2.33642
-3.47429
-3.65783
-3.23368
-2.54958
-1.85153
-1.31709
-1.04343
-0.938508
-0.857831
-0.784563
-0.715666
-0.650182
-0.587053
-0.52463
-0.460893
-0.393699
-0.321027
-0.241976
-0.159178
-0.0814382
-0.0209974
0.0107431
0.00773354
-0.0271853
-0.0812239
-0.133893
-0.162148
-0.146675
-0.0838155
0.014915
0.141089
0.289634
0.454191
0.627579
0.803831
0.977403
1.14423
1.3022
1.4512
1.59282
1.72965
1.86436
1.99881
2.13346
2.26732
2.3986
2.52519
2.64521
2.75742
2.86133
2.95686
3.04355
3.11934
3.17968
3.21963
3.23266
3.21232
3.15396
3.0561
2.9206
2.75202
2.55616
2.33911
2.10919
1.87219
1.63228
1.39425
1.16372
0.94694
0.750171
0.578946
0.43881
0.335499
0.270918
0.238504
0.227048
0.225013
0.223344
0.217445
0.207766
0.198843
0.197106
0.208152
0.237342
0.283207
0.331595
0.363808
0.363464
0.322713
0.245262
0.145097
0.0417978
-0.04525
-0.105258
-0.140447
-0.151799
-0.138967
-0.103477
-0.0486153
0.0209514
0.0990704
0.178793
0.253063
0.315115
0.359775
0.384246
0.388322
0.374452
0.347449
0.313819
0.280687
0.254461
0.239516
0.239763
0.252364
0.271024
0.28805
0.296514
0.291686
0.271319
0.235089
0.183899
0.119759
0.0473861
-0.0289787
-0.103865
-0.171451
-0.222783
-0.254536
-0.271547
-0.282645
-0.29526
-0.310195
-0.319524
-0.288941
-0.129461
0.13677
0.405005
0.555079
0.521766
0.321222
0.0288413
-0.263124
-0.476553
-0.588035
-0.64037
-0.657555
-0.632918
-0.540926
-0.357545
-0.118058
0.11182
0.266855
0.30057
0.201567
-0.000199127
-0.24224
-0.451031
-0.568151
-0.605278
-0.599794
-0.570032
-0.522241
-0.458366
-0.379563
-0.286672
-0.180629
-0.0629876
0.0636374
0.195473
0.327413
0.453328
0.567168
0.663868
0.740009
0.794096
0.826393
0.838357
0.831822
0.80815
0.767567
0.709159
0.631173
0.531552
0.408206
0.260524
0.0902763
-0.0980026
-0.298758
-0.499019
-0.680111
-0.824027
-0.917096
-0.952869
-0.933476
-0.869143
-0.776059
-0.673095
-0.578573
-0.507146
-0.467995
-0.464388
-0.494433
-0.552595
-0.63143
-0.723035
-0.819473
-0.892571
-0.717074
0
1.56594
4.04811
7.11306
10.0314
11.9092
12.0494
10.2686
6.99466
3.09088
-0.497269
-3.08246
-4.4063
-4.60332
-4.04105
-3.14244
-2.24131
-1.53291
-1.07913
-0.910039
-0.836785
-0.788656
-0.768293
-0.77336
-0.796194
-0.824745
-0.844847
-0.843412
-0.814114
-0.758899
-0.683448
-0.592864
-0.493362
-0.391235
-0.291684
-0.198247
-0.113287
-0.0403042
0.0191822
0.0640745
0.0941528
0.112084
0.125152
0.145314
0.186933
0.262712
0.379375
0.52795
0.700279
0.886237
1.07419
1.25473
1.42283
1.57845
1.7254
1.86884
2.01256
2.15709
2.2983
2.42914
2.54277
2.63592
2.71104
2.7764
2.84491
2.95196
3.141
3.37427
3.57301
3.65718
3.58004
3.34455
2.99776
2.60874
2.24184
1.92631
1.64706
1.39247
1.16243
0.960808
0.789914
0.650783
0.544219
0.469797
0.422019
0.393739
0.377234
0.365292
0.351998
0.333094
0.305988
0.269629
0.224698
0.173537
0.119101
0.0653982
0.0169737
-0.0216654
-0.044438
-0.0477671
-0.0362104
-0.0176706
-2.89917e-005
0.0124096
0.0210436
0.0326595
0.0567392
0.101518
0.169666
0.254681
0.348738
0.445082
0.536795
0.6177
0.683195
0.730652
0.759386
0.770324
0.765548
0.747889
0.720601
0.68706
0.650554
0.614081
0.580138
0.550591
0.526463
0.507388
0.491624
0.47702
0.461899
0.445786
0.429688
0.415753
0.406437
0.403462
0.407291
0.416106
0.426524
0.434583
0.436882
0.431484
0.418313
0.399041
0.376634
0.354762
0.336763
0.325501
0.323506
0.332905
0.355445
0.391924
0.440416
0.493898
0.54124
0.571149
0.575215
0.550535
0.500956
0.436324
0.369769
0.313872
0.276667
0.256994
0.250161
0.253208
0.26277
0.276216
0.29245
0.312208
0.337825
0.372603
0.419529
0.480714
0.557309
0.649179
0.754752
0.871282
0.99502
1.12139
1.24433
1.35551
1.44666
1.51047
1.54105
1.53504
1.49269
1.41835
1.32024
1.20919
1.09675
0.992083
0.899363
0.819982
0.755192
0.703769
0.663231
0.630673
0.603556
0.580218
0.559968
0.542739
0.528408
0.51599
0.503089
0.485374
0.45664
0.409723
0.337544
0.234376
0.089217
-0.108923
-0.351901
-0.626278
-0.928596
-0.723622
0
1.30737
3.24659
5.74959
8.47831
10.7744
11.8368
11.0915
8.53949
4.83695
1.03156
-1.89735
-3.42737
-3.61067
-2.91207
-1.91769
-1.06412
-0.542065
-0.336132
-0.265689
-0.190134
-0.113949
-0.0382078
0.0361271
0.108395
0.178633
0.24785
0.317996
0.391667
0.473587
0.568671
0.668307
0.755474
0.811438
0.825068
0.799646
0.753114
0.71151
0.699269
0.731545
0.79608
0.882009
0.985012
1.10244
1.23169
1.37031
1.51589
1.66603
1.8183
1.97042
2.12044
2.26703
2.4096
2.54823
2.68347
2.81586
2.94564
3.07236
3.19495
3.31174
3.42074
3.51984
3.60625
3.67649
3.72797
3.75837
3.76543
3.74724
3.70256
3.63107
3.53348
3.41149
3.26752
3.10587
2.93051
2.7443
2.54962
2.34875
2.14402
1.93796
1.73359
1.53447
1.34467
1.16837
1.00937
0.87117
0.756964
0.666667
0.5972
0.544778
0.506349
0.480709
0.468836
0.47436
0.511018
0.591772
0.698914
0.800106
0.860286
0.856641
0.789208
0.682079
0.574324
0.504101
0.492752
0.520983
0.568474
0.626949
0.688832
0.748743
0.803832
0.8526
0.893661
0.925899
0.94763
0.957941
0.958334
0.953378
0.949629
0.953094
0.967339
0.989392
1.01088
1.02128
1.01212
0.980293
0.929144
0.867133
0.804855
0.751747
0.71092
0.681394
0.661738
0.650655
0.646093
0.645819
0.647767
0.650205
0.651726
0.651078
0.646925
0.637646
0.621717
0.597935
0.565923
0.526585
0.482291
0.436635
0.39379
0.357629
0.330788
0.31438
0.30789
0.309599
0.317247
0.328714
0.34243
0.357554
0.373731
0.390734
0.408129
0.425146
0.44068
0.453709
0.463823
0.471777
0.47989
0.492107
0.513689
0.550512
0.608133
0.690372
0.802362
0.960046
1.17168
1.40072
1.6004
1.72926
1.76462
1.7097
1.59052
1.4431
1.29683
1.16254
1.03049
0.893864
0.749286
0.594383
0.429258
0.255846
0.0824551
-0.0752438
-0.200459
-0.279698
-0.306515
-0.283508
-0.221925
-0.138935
-0.0533848
0.0185696
0.070525
0.100349
0.108021
0.0960472
0.0682056
0.0289391
-0.0174019
-0.0677582
-0.12205
-0.0283058
0.482798
1.61319
3.45945
5.8894
8.46416
10.5007
103
307
510
721
942
1166
1391
1612
1828
2045
2260
2474
2677
2885
3102
3324
3540
3439
3628
3262
3439
3616
0
0
0
0
0
0
0
0
0
0
0
0
0
0
0
0
0
0
0
0
0
0
0
0
0
0
0
0
0
0
0
0
0
0
0
0
0
0
0
0
0
0
0
0
0
0
0
0
0
0
0
0
0
0
0
0
0
0
0
0
0
0
0
0
0
0
0
0
0
0
0
0
0
0
0
0
0
0
0
0
0
0
0
0
0
0
0
0
0
0
0
0
0
0
0
0
0
0
0
0
0
0
0
0
0
0
0
0
0
0
0
0
0
0
0
0
0
0
0
0
0
0
0
0
0
0
0
0
0
0
0
0
0
0
0
0
0
0
0
0
0
0
0
0
0
0
0
0
0
0
0
0
0
0
0
0
0
0
0
0
0
0
0
0
0
0
0
0
0
0
0
0
0
0
0
0
0
0
0
0
0
0
0
0
0
0
0
0
0
0
0
0
0
0
0
0
0
0
0
0
0
0
0
0
0
0
0
0
0
0
0
0
0
0
0
0
0
0
0
0
0
0
0
0
0
0
0
0
0
0
0
0
0
0
0
0
0
0
0
0
0
0
0
0
0
0
0
0
0
0
0
0
0
0
0
0
0
0
0
0
0
0
0
0
0
0
0
0
0
0
0
0
0
0
0
0
0
0
0
0
0
0
0
0
0
0
0
0
0
0
0
0
0
0
0
0
0
0
0
0
0
0
0
0
0
0
0
0
0
0
0
0
0
0
0
0
0
0
0
0
0
0
0
0
0
0
0
0
0
0
0
0
0
0
0
0
0
0
0
0
0
0
0
0
0
0
0
0
0
0
0
0
0
0
0
0
0
0
0
0
0
0
0
0
0
0
0
0
0
0
0
0
0
0
0
0
0
0
0
0
0
0
0
0
0
0
0
0
0
0
0
0
0
0
0
0
0
0
0
0
0
0
0
0
0
0
0
0
0
0
0
0
0
0
0
0
0
0
0
0
0
0
0
0
0
0
0
0
0
0
0
0
0
0
0
0
0
0
0
0
0
0
0
0
0
0
0
0
0
0
0
0
0
0
0
0
0
0
0
0
0
0
0
0
0
0
0
0
0
0
0
0
0
0
0
0
0
0
0
0
0
0
0
0
0
0
0
0
0
0
0
0
0
0
0
0
0
0
0
0
0
0
0
0
0
0
0
0
0
0
0
0
0
0
0
0
0
0
0
0
0
0
0
0
0
0
0
0
0
0
0
0
0
0
0
0
0
0
0
0
0
0
0
0
0
0
0
0
0
0
0
0
0
0
0
0
0
0
0
0
0
0
0
0
0
0
0
0
0
0
0
0
0
0
0
0
0
0
0
0
0
0
0
0
0
0
0
0
0
0
0
0
0
0
0
0
0
0
0
0
0
0
0
0
0
0
0
0
0
0
0
0
0
0
0
0
0
0
0
0
0
0
0
0
0
0
0
0
0
0
0
0
0
0
0
0
0
0
0
0
0
0
0
0
0
0
0
0
0
0
0
0
0
0
0
0
0
0
0
0
0
0
0
0
0
0
0
0
0
0
0
0
0
0
0
0
0
0
0
0
0
0
0
0
0
0
0
0
0
0
0
0
0
0
0
0
0
0
0
0
0
0
0
0
0
0
0
0
0
0
0
0
0
0
0
0
0
0
0
0
0
0
0
0
0
0
0
0
0
0
0
0
0
0
0
0
0
0
0
0
0
0
0
0
0
0
0
0
0
0
0
0
0
0
0
0
0
0
0
0
0
0
0
0
0
0
0
0
0
0
0
0
0
0
0
0
0
0
0
0
0
0
0
0
0
0
0
0
0
0
0
0
0
0
0
0
0
0
0
0
0
0
0
0
0
0
0
0
0
0
0
0
0
0
0
0
0
0
0
0
0
0
0
0
0
0
0
0
0
0
0
0
0
0
0
0
0
0
0
0
0
0
0
0
0
0
0
0
0
0
0
0
0
0
0
0
0
0
0
0
0
0
0
0
0
0
0
0
0
0
0
0
0
0
0
0
0
0
0
0
0
0
0
0
0
0
0
0
0
0
0
0
0
0
0
0
0
0
0
0
0
0
0
0
0
0
0
0
0
0
0
0
0
0
0
0
0
0
0
0
0
0
0
0
0
0
0
0
0
0
0
0
0
0
0
0
0
0
0
0
0
0
0
0
0
0
0
0
0
0
0
0
0
0
0
0
0
0
0
0
0
0
0
0
0
0
0
0
0
0
0
0
0
0
0
0
0
0
0
0
0
0
0
0
0
0
0
0
0
0
0
0
0
0
0
0
0
0
0
0
0
0
0
0
0
0
0
0
0
0
0
0
0
0
0
0
0
0
0
0
0
0
0
0
0
0
0
0
0
0
0
0
0
0
0
0
0
0
0
0
0
0
0
0
0
0
0
0
0
0
0
0
0
0
0
0
0
0
0
0
0
0
0
0
0
0
0
0
0
0
0
0
0
0
0
0
0
0
0
0
0
0
0
0
0
0
0
0
0
0
0
0
0
0
0
0
0
0
0
0
0
0
0
0
0
0
0
0
0
0
0
0
0
0
0
0
0
0
0
0
0
0
0
0
0
0
0
0
0
0
0
0
0
0
0
0
0
0
0
0
0
0
0
0
0
0
0
0
0
0
0
0
0
0
0
0
0
0
0
0
0
0
0
0
0
0
0
0
0
0
0
0
0
0
0
0
0
0
0
0
0
0
0
0
0
0
0
0
0
0
0
0
0
0
0
0
0
0
0
0
0
0
0
0
0
0
0
0
0
0
0
0
0
0
0
0
0
0
0
0
0
0
0
0
0
0
0
0
0
0
0
0
0
0
0
0
0
0
0
0
0
0
0
0
0
0
0
0
0
0
0
0
0
0
0
0
0
0
0
0
0
0
0
0
0
0
0
0
0
0
0
0
0
0
0
0
0
0
0
0
0
0
0
0
0
0
0
0
0
0
0
0
0
0
0
0
0
0
0
0
0
0
0
0
0
0
0
0
0
0
0
0
0
0
0
0
0
0
0
0
0
0
0
0
0
0
0
0
0
0
0
0
0
0
0
0
0
0
0
0
0
0
0
0
0
0
0
0
0
0
0
0
0
0
0
0
0
0
0
0
0
0
0
0
0
0
0
0
0
0
0
0
0
0
0
0
0
0
0
0
0
0
0
0
0
0
0
0
0
0
0
0
0
0
0
0
0
0
0
0
0
0
0
0
0
0
0
0
0
0
0
0
0
0
0
0
0
0
0
0
0
0
0
0
0
0
0
0
0
0
0
0
0
0
0
0
0
0
0
0
0
0
0
0
0
0
0
0
0
0
0
0
0
0
0
0
0
0
0
0
0
0
0
0
0
0
0
0
0
0
0
0
0
0
0
0
0
0
0
0
0
0
0
0
0
0
0
0
0
0
0
0
0
0
0
0
0
0
0
0
0
0
0
0
0
0
0
0
0
0
0
0
0
0
0
0
0
0
0
0
0
0
0
0
0
0
0
0
0
0
0
0
0
0
0
0
0
0
0
0
0
0
0
0
0
0
0
0
0
0
0
0
0
0
0
0
0
0
0
0
0
0
0
0
0
0
0
0
0
0
0
0
0
0
0
0
0
0
0
0
0
0
0
0
0
0
0
0
0
0
0
0
0
0
0
0
0
0
0
0
0
0
0
0
0
0
0
0
0
0
0
0
0
0
0
0
0
0
0
0
0
0
0
0
0
0
0
0
0
0
0
0
0
0
0
0
0
0
0
0
0
0
0
0
0
0
0
0
0
0
0
0
0
0
0
0
0
0
0
0
0
0
0
0
0
0
0
0
0
0
0
0
0
0
0
0
0
0
0
0
0
0
0
0
0
0
0
0
0
0
0
0
0
0
0
0
0
0
0
0
0
0
0
0
0
0
0
0
0
0
0
0
0
0
0
0
0
0
0
0
0
0
0
0
0
0
0
0
0
0
0
0
0
0
0
0
0
0
0
0
0
0
0
0
0
0
0
0
0
0
0
0
0
0
0
0
0
0
0
0
0
0
0
0
0
0
0
0
0
0
0
0
0
0
0
0
0
0
0
0
0
0
0
0
0
0
0
0
0
0
0
0
0
0
0
0
0
0
0
0
0
0
0
0
0
0
0
0
0
0
0
0
0
0
0
0
0
0
0
0
0
0
0
0
0
0
0
0
0
0
0
0
0
0
0
0
0
0
0
0
0
0
0
0
0
0
0
0
0
0
0
0
0
0
0
0
0
0
0
0
0
0
0
0
0
0
0
0
0
0
0
0
0
0
0
0
0
0
0
0
0
0
0
0
0
0
0
0
0
0
0
0
0
0
0
0
0
0
0
0
0
0
0
0
0
0
0
0
0
0
0
0
0
0
0
0
0
0
0
0
0
0
0
0
0
0
0
0
0
0
0
0
0
0
0
0
0
0
0
0
0
0
0
0
0
0
0
0
0
0
0
0
0
0
0
0
0
0
0
0
0
0
0
0
0
0
0
0
0
0
0
0
0
0
0
0
0
0
0
0
0
0
0
0
0
0
0
0
0
0
0
0
0
0
0
0
0
0
0
0
0
0
0
0
0
0
0
0
0
0
0
0
0
0
0
0
0
0
0
0
0
0
0
0
0
0
0
0
0
0
0
0
0
0
0
0
0
0
0
0
0
0
0
0
0
0
0
0
0
0
0
0
0
0
0
0
0
0
0
0
0
0
0
0
0
0
0
0
0
0
0
0
0
0
0
0
0
0
0
0
0
0
0
0
0
0
0
0
0
0
0
0
0
0
0
0
0
0
0
0
0
0
0
0
0
0
0
0
0
0
0
0
0
0
0
0
0
0
0
0
0
0
0
0
0
0
0
0
0
0
0
0
0
0
0
0
0
0
0
0
0
0
0
0
0
0
0
0
0
0
0
0
0
0
0
0
0
0
0
0
0
0
0
0
0
0
0
0
0
0
0
0
0
0
0
0
0
0
0
0
0
0
0
0
0
0
0
0
0
0
0
0
0
0
0
0
0
0
0
0
0
0
0
0
0
0
0
0
0
0
0
0
0
0
0
0
0
0
0
0
0
0
0
0
0
0
0
0
0
0
0
0
0
0
0
0
0
0
0
0
0
0
0
0
0
0
0
0
0
0
0
0
0
0
0
0
0
0
0
0
0
0
0
0
0
0
0
0
0
0
0
0
0
0
0
0
0
0
0
0
0
0
0
0
0
0
0
0
0
0
0
0
0
0
0
0
0
0
0
0
0
0
0
0
0
0
0
0
0
0
0
0
0
0
0
0
0
0
0
0
0
0
0
0
0
0
0
0
0
0
0
0
0
0
0
0
0
0
0
0
0
0
0
0
0
0
0
0
0
0
0
0
0
0
0
0
0
0
0
0
0
0
0
0
0
0
0
0
0
0
0
0
0
0
0
0
0
0
0
0
0
0
0
0
0
0
0
0
0
0
0
0
0
0
0
0
0
0
0
0
0
0
0
0
0
0
0
0
0
0
0
0
0
0
0
0
0
0
0
0
0
0
0
0
0
0
0
0
0
0
0
0
0
0
0
0
0
0
0
0
0
0
0
0
0
0
0
0
0
0
0
0
0
0
0
0
0
0
0
0
0
0
0
0
0
0
0
0
0
0
0
0
0
0
0
0
0
0
0
0
0
0
0
0
0
0
0
0
0
0
0
0
0
0
0
0
0
0
0
0
0
0
0
0
0
0
0
0
0
0
0
0
0
0
0
0
0
0
0
0
0
0
0
0
0
0
0
0
0
0
0
0
0
0
0
0
0
0
0
0
0
0
0
0
0
0
0
0
0
0
0
0
0
0
0
0
0
0
0
0
0
0
0
0
0
0
0
0
0
0
0
0
0
0
0
0
0
0
0
0
0
0
0
0
0
0
0
0
0
0
0
0
0
0
0
0
0
0
0
0
0
0
0
0
0
0
0
0
0
0
0
0
0
0
0
0
0
0
0
0
0
0
0
0
0
0
0
0
0
0
0
0
0
0
0
0
0
0
0
0
0
0
0
0
0
0
0
0
0
0
0
0
0
0
0
0
0
0
0
0
0
0
0
0
0
0
0
0
0
0
0
0
0
0
0
0
0
0
0
0
0
0
0
0
0
0
0
0
0
0
0
0
0
0
0
0
0
0
0
0
0
0
0
0
0
0
0
0
0
0
0
0
0
0
0
0
0
0
0
0
0
0
0
0
0
0
0
0
0
0
0
0
0
0
0
0
0
0
0
0
0
0
0
0
0
0
0
0
0
0
0
0
0
0
0
0
0
0
0
0
0
0
0
0
0
0
0
0
0
0
0
0
0
0
0
0
0
0
0
0
0
0
0
0
0
0
0
0
0
0
0
0
0
0
0
0
0
0
0
0
0
0
0
0
0
0
0
0
0
0
0
0
0
0
0
0
0
0
0
0
0
0
0
0
0
0
0
0
0
0
0
0
0
0
0
0
0
0
0
0
0
0
0
0
0
0
0
0
0
0
0
0
0
0
0
0
0
0
0
0
0
0
0
0
0
0
0
0
0
0
0
0
0
0
0
0
0
0
0
0
0
0
0
0
0
0
0
0
0
0
0
0
0
0
0
0
0
0
0
0
0
0
0
0
0
0
0
0
0
0
0
0
0
0
0
0
0
0
0
0
0
0
0
0
0
0
0
0
0
0
0
0
0
0
0
0
0
0
0
0
0
0
0
0
0
0
0
0
0
0
0
0
0
0
0
0
0
0
0
0
0
0
0
0
0
0
0
0
0
0
0
0
0
0
0
0
0
0
0
0
0
0
0
0
0
0
0
0
0
0
0
0
0
0
0
0
0
0
0
0
0
0
0
0
0
0
0
0
0
0
0
0
0
0
0
0
0
0
0
0
0
0
0
0
0
0
0
0
0
0
0
0
0
0
0
0
0
0
0
0
0
0
0
0
0
0
0
0
0
0
0
0
0
0
0
0
0
0
0
0
0
0
0
0
0
0
0
0
0
0
0
0
0
0
0
0
0
0
0
0
0
0
0
0
0
0
0
0
0
0
0
0
0
0
0
0
0
0
0
0
0
0
0
0
0
0
0
0
0
0
0
0
0
0
0
0
0
0
0
0
0
0
0
0
0
0
0
0
0
0
0
0
0
0
0
0
0
0
0
0
0
0
0
0
0
0
0
0
0
0
0
0
0
0
0
0
0
0
0
0
0
0
0
0
0
0
0
0
0
0
0
0
0
0
0
0
0
0
0
0
0
0
0
0
0
0
0
0
0
0
0
0
0
0
0
0
0
0
0
0
0
0
0
0
0
0
0
0
0
0
0
0
0
0
0
0
0
0
0
0
0
0
0
0
0
0
0
0
0
0
0
0
0
0
0
0
0
0
0
0
0
0
0
0
0
0
0
0
0
0
0
0
0
0
0
0
0
0
0
0
0
0
0
0
0
0
0
0
0
0
0
0
0
0
0
0
0
0
0
0
0
0
0
0
0
0
0
0
0
0
0
0
0
0
0
0
0
0
0
0
0
0
0
0
0
0
0
0
0
0
0
0
0
0
0
0
0
0
0
0
0
0
0
0
0
0
0
0
0
0
0
0
0
0
0
0
0
0
0
0
0
0
0
0
0
0
0
0
0
0
0
0
0
0
0
0
0
0
0
0
0
0
0
0
0
0
0
0
0
0
0
0
0
0
0
0
0
0
0
0
0
0
0
0
0
0
0
0
0
0
0
0
0
0
0
0
0
0
0
0
0
0
0
0
0
0
0
0
0
0
0
0
0
0
0
0
0
0
0
0
0
0
0
0
0
0
0
0
0
0
0
0
0
0
0
0
0
0
0
0
0
0
0
0
0
0
0
0
0
0
0
0
0
0
0
0
0
0
0
0
0
0
0
0
0
0
0
0
0
0
0
0
0
0
0
0
0
0
0
0
0
0
0
0
0
0
0
0
0
0
0
0
0
0
0
0
0
0
0
0
0
0
0
0
0
0
0
0
0
0
0
0
0
0
0
0
0
0
0
0
0
0
0
0
0
0
0
0
0
0
0
0
0
0
0
0
0
0
0
0
0
0
0
0
0
0
0
0
0
0
0
0
0
0
0
0
0
0
0
0
0
0
0
0
0
0
0
0
0
0
0
0
0
0
0
0
0
0
0
0
0
0
0
0
0
0
0
0
0
0
0
0
0
0
0
0
0
0
0
0
0
0
0
0
0
0
0
0
0
0
0
0
0
0
0
0
0
0
0
0
0
0
0
0
0
0
0
0
0
0
0
0
0
0
0
0
0
0
0
0
0
0
0
0
0
0
0
0
0
0
0
0
0
0
0
0
0
0
0
0
0
0
0
0
0
0
0
0
0
0
0
0
0
0
0
0
0
0
0
0
0
0
0
0
0
0
0
0
0
0
0
0
0
0
0
0
0
0
0
0
0
0
0
0
0
0
0
0
0
0
0
0
0
0
0
0
0
0
0
0
0
0
0
0
0
0
0
0
0
0
0
