2.31264
2.19837
2.10932
2.04377
1.99957
1.974
1.96411
1.96688
1.97843
1.99414
2.00994
2.02285
2.03133
2.03539
2.03631
2.03605
2.0365
2.03879
2.04283
2.0474
2.05029
2.04893
2.04112
2.02573
2.00308
1.97499
1.94448
1.91519
1.89065
1.87324
1.86399
1.86339
1.87082
1.88431
1.90087
1.91774
1.93323
1.94732
1.96177
1.97975
2.00491
2.0403
2.08725
2.14418
2.20789
2.27357
2.33557
2.38835
2.42734
2.44937
2.45285
2.43759
2.40457
2.35589
2.2946
2.22384
2.14666
2.06611
1.98497
1.90542
1.82885
1.7559
1.68657
1.62043
1.55693
1.49569
1.43643
1.37896
1.32284
1.26704
1.20917
1.13267
0.927461
0.550816
0.0580284
-0.340173
0
1.56459
4.49528
8.40437
12.373
15.2381
16.0668
14.5845
11.3127
7.32544
3.75736
1.34047
0.20825
0.0226692
0.283221
0.411809
0.530776
0.632749
0.713458
0.774418
0.818054
0.848954
0.872762
0.89501
0.920158
0.950754
0.987411
1.02978
1.07707
1.12808
1.18135
1.23538
1.28869
1.33999
1.38837
1.43345
1.47558
1.51596
1.55663
1.60041
1.65067
1.71107
1.78516
1.87618
1.98656
2.11773
2.26986
2.4419
2.63162
2.83592
3.05105
3.273
3.49773
3.72136
3.93993
4.14978
4.34761
4.52953
4.68931
4.81822
4.91056
4.95652
4.94291
4.8573
4.69366
4.45636
4.1608
3.83043
3.49163
3.16422
2.85354
2.56384
2.30023
2.06618
1.86354
1.69269
1.55244
1.44051
1.35391
1.28931
1.2433
1.21271
1.19491
1.18724
1.18664
1.19012
1.19521
1.20026
1.20476
1.20938
1.21577
1.22603
1.24204
1.26465
1.29343
1.32699
1.36314
1.39935
1.43326
1.46319
1.48834
1.50878
1.52521
1.53861
1.54997
1.56019
1.57005
1.58039
1.59222
1.60674
1.62517
1.64845
1.67693
1.71012
1.74676
1.78497
1.82283
1.85894
1.8929
1.92546
1.95843
1.99435
2.03592
2.08521
2.14355
2.21261
2.29389
2.38452
2.47361
2.54775
2.59468
2.60677
2.58329
2.53012
2.45714
2.37452
2.28965
2.20594
2.1243
2.04544
1.97078
1.90247
1.84311
1.79565
1.76367
1.75018
1.75264
1.75949
1.75499
1.72199
1.64273
1.38205
0.959776
0.443714
-0.102397
0
1.20744
3.75304
7.41464
11.4375
14.7084
16.1693
15.293
12.3585
8.34067
4.45963
1.64428
0.211615
-0.0952524
0.193175
0.381623
0.549949
0.683886
0.778629
0.851026
0.910602
0.96268
1.01196
1.06157
1.11261
1.16429
1.21462
1.26112
1.30157
1.33464
1.36015
1.37902
1.39295
1.40402
1.41438
1.42588
1.44012
1.45864
1.48298
1.51487
1.55627
1.60928
1.67597
1.75809
1.85686
1.97275
2.10543
2.25386
2.41646
2.59129
2.7762
2.9689
3.16695
3.36764
3.568
3.76433
3.95224
4.1266
4.28102
4.4075
4.49864
4.54942
4.55442
4.50853
4.40822
4.25333
4.04835
3.80266
3.52979
3.24625
2.96576
2.69573
2.4416
2.20822
1.99898
1.81603
1.66128
1.53521
1.43657
1.36324
1.31223
1.27983
1.2618
1.25373
1.25155
1.25201
1.25297
1.25351
1.25375
1.25444
1.25657
1.26091
1.26779
1.27709
1.28828
1.30051
1.31271
1.32381
1.33282
1.33889
1.34149
1.3405
1.33624
1.32958
1.32186
1.31473
1.3099
1.30878
1.31213
1.32016
1.33198
1.34582
1.35979
1.37246
1.38337
1.39316
1.40343
1.41624
1.43361
1.45678
1.48612
1.52154
1.56255
1.60833
1.65791
1.71016
1.76379
1.81725
1.86829
1.91308
1.94606
1.96172
1.95499
1.92275
1.86517
1.78624
1.69324
1.5951
1.50035
1.41434
1.33772
1.27012
1.21085
1.15831
1.11027
1.06416
1.01728
0.966814
0.909905
0.843581
0.764786
0.668728
0.533355
0.324964
0.0493707
-0.329564
-0.602044
0
1.95764
5.31761
9.4876
13.3651
15.7507
15.8641
13.692
9.9837
5.89709
2.49388
0.347888
-0.556889
-0.639175
-0.411531
-0.33465
-0.264274
-0.203708
-0.154163
-0.113424
-0.0786189
-0.0457869
-0.0107922
0.0297504
0.0777681
0.133121
0.193987
0.257852
0.321714
0.381924
0.434765
0.477789
0.50996
0.531867
0.545671
0.554761
0.563166
0.574926
0.593653
0.621855
0.661238
0.714371
0.784036
0.873031
0.983647
1.11693
1.272
1.44526
1.63129
1.82413
2.01781
2.20728
2.38922
2.56245
2.72752
2.88566
3.03962
3.19398
3.34407
3.47118
3.55068
3.56284
3.50048
3.36982
3.18442
2.9569
2.69463
2.40996
2.11658
1.82369
1.5385
1.26829
1.02021
0.800532
0.614294
0.462436
0.342667
0.250553
0.180621
0.12747
0.0865985
0.0547853
0.0300386
0.0112454
-0.00243921
-0.0116039
-0.0168092
-0.0187582
-0.0179855
-0.0146543
-0.00847063
0.00120792
0.0150848
0.0335517
0.0563674
0.0824677
0.110128
0.137404
0.162361
0.183397
0.199424
0.210124
0.215904
0.217792
0.217287
0.216163
0.216258
0.219258
0.226512
0.238885
0.256671
0.279755
0.307735
0.340014
0.375929
0.414806
0.455949
0.498569
0.541674
0.583877
0.623254
0.657749
0.685687
0.70623
0.71975
0.727879
0.733098
0.737951
0.74422
0.751956
0.758218
0.758092
0.746377
0.719417
0.67632
0.61913
0.552048
0.480162
0.408264
0.339329
0.274895
0.215984
0.163133
0.116264
0.0745802
0.036551
0
-0.0351378
-0.0743444
-0.120373
-0.175526
-0.243074
-0.32592
-0.421033
-0.522925
-0.725299
-0.448373
0.770678
3.19552
6.62672
10.3166
13.1749
14.219
13.0462
10.0482
6.22592
2.7107
0.273752
-0.905786
-1.13749
-0.917915
-0.805929
-0.700131
-0.606063
-0.527474
-0.465584
-0.41891
-0.383365
-0.352848
-0.320282
-0.278995
-0.224131
-0.153723
-0.0702147
0.0217895
0.117634
0.212829
0.303505
0.38703
0.462312
0.529744
0.590873
0.647914
0.703241
0.758988
0.816828
0.877975
0.943378
1.01405
1.0914
1.1775
1.27516
1.38769
1.51843
1.67005
1.8439
2.0394
2.25381
2.4824
2.71915
2.95691
3.1874
3.40029
3.58369
3.72907
3.83158
3.88752
3.89408
3.84951
3.75337
3.60676
3.41237
3.17478
2.90442
2.6141
2.31449
2.01428
1.72181
1.44535
1.19246
0.96919
0.779597
0.626271
0.511124
0.432855
0.384114
0.355981
0.339752
0.328319
0.3171
0.304356
0.290862
0.279083
0.272085
0.271956
0.279397
0.294043
0.314842
0.339788
0.366529
0.392901
0.417379
0.439326
0.459028
0.47752
0.496282
0.516836
0.540389
0.567662
0.598693
0.632975
0.669175
0.705427
0.739859
0.771002
0.798079
0.821082
0.840635
0.857733
0.873468
0.888882
0.904891
0.922452
0.942708
0.967057
0.997101
1.03446
1.08046
1.13574
1.2003
1.27353
1.35337
1.43525
1.51212
1.57632
1.62101
1.64131
1.63515
1.60357
1.55036
1.48123
1.40262
1.32062
1.2395
1.16142
1.08727
1.01742
0.952078
0.89153
0.83565
0.78377
0.734605
0.686005
0.634956
0.576651
0.500818
0.4067
0.30075
0
0.263262
1.59255
4.21172
7.83028
11.6154
14.449
15.3858
14.0912
11.0103
7.16053
3.6615
1.26703
0.146461
-0.016175
0.268187
0.367918
0.459706
0.538133
0.600645
0.651311
0.692861
0.728668
0.762542
0.798002
0.837656
0.882912
0.933887
0.989642
1.04849
1.1085
1.16798
1.22587
1.28187
1.33642
1.39042
1.44495
1.501
1.55925
1.62018
1.68417
1.75173
1.82373
1.90156
1.98711
2.0826
2.19031
2.31215
2.44935
2.60218
2.77001
2.95147
3.14483
3.34828
3.56028
3.78082
4.01215
4.25487
4.49753
4.71661
4.88588
4.9849
5.0039
4.94284
4.80718
4.60461
4.34521
4.0471
3.7336
3.42105
3.11783
2.82724
2.55161
2.29392
2.05649
1.84115
1.64938
1.4823
1.3405
1.22426
1.1331
1.06479
1.01566
0.981506
0.958117
0.941906
0.930256
0.921619
0.915353
0.911386
0.909825
0.910663
0.913711
0.918632
0.924976
0.932269
0.940094
0.948132
0.956178
0.964165
0.9722
0.980608
0.989935
1.00088
1.01407
1.02995
1.04847
1.06807
1.08561
1.09751
1.10093
1.09504
1.0817
1.06533
1.05192
1.04755
1.0562
1.07816
1.1122
1.15694
1.21023
1.26935
1.33137
1.39344
1.4528
1.50683
1.55298
1.58881
1.61222
1.62157
1.61584
1.59484
1.55946
1.51169
1.45456
1.39183
1.32761
1.26569
1.20892
1.15914
1.11726
1.08298
1.05499
1.03123
1.00918
0.986102
0.959202
0.925764
0.882099
0.817539
0.691713
0.45347
0.121548
-0.261615
-0.463533
0
1.54447
4.34536
8.11369
12.0346
14.9886
16.0035
14.7154
11.5697
7.6197
4.03097
1.57682
0.406274
0.168468
0.341136
0.34585
0.348613
0.349034
0.348472
0.35006
0.358079
0.376887
0.409213
0.455346
0.51421
0.583832
0.661128
0.742454
0.824167
0.903127
0.976967
1.04445
1.10552
1.16117
1.2133
1.26429
1.31663
1.37248
1.43342
1.50024
1.57316
1.65226
1.73777
1.8303
1.93095
2.04132
2.1632
2.2983
2.44783
2.6122
2.79083
2.98206
3.18327
3.39106
3.60171
3.81089
4.01322
4.20215
4.3703
4.50945
4.61146
4.66899
4.67383
4.61802
4.49585
4.3063
4.05491
3.75434
3.42303
3.08324
2.75196
2.43678
2.14491
1.88364
1.65819
1.47136
1.3236
1.21333
1.13765
1.09284
1.07463
1.07853
1.09998
1.13442
1.17737
1.2244
1.27135
1.31427
1.3498
1.37545
1.38984
1.39297
1.38627
1.3725
1.35536
1.33896
1.32713
1.32257
1.32653
1.33916
1.35958
1.386
1.41604
1.44739
1.4782
1.50732
1.5343
1.55911
1.58183
1.60241
1.62059
1.63592
1.64794
1.65634
1.66099
1.66185
1.65866
1.65086
1.63754
1.61775
1.59106
1.55818
1.52096
1.48405
1.45439
1.43949
1.44576
1.47686
1.53267
1.609
1.69945
1.79343
1.87912
1.94619
1.98741
1.99945
1.98305
1.94261
1.8854
1.82049
1.75732
1.70329
1.66258
1.63766
1.63106
1.63972
1.65444
1.66371
1.65601
1.6218
1.5549
1.45281
1.31509
1.10795
0.824932
0.4887
0.12502
0
0.634092
2.46944
5.62491
9.65722
13.5726
16.1628
16.5337
14.546
10.8994
6.79755
3.38304
1.27326
0.437142
0.417904
0.676541
0.761102
0.839398
0.909189
0.97027
1.02609
1.07948
1.13325
1.18995
1.25129
1.31775
1.3887
1.46168
1.53266
1.59755
1.65348
1.69958
1.73737
1.77022
1.80245
1.83804
1.8796
1.92734
1.97997
2.03592
2.09365
2.15211
2.21116
2.27169
2.33559
2.40541
2.48399
2.57399
2.67753
2.79586
2.92916
3.07652
3.23596
3.40464
3.57915
3.75575
3.93046
4.09846
4.253
4.38609
4.4916
4.56315
4.59438
4.57943
4.51368
4.39452
4.2222
4.0008
3.7396
3.45503
3.16223
2.87301
2.59613
2.33869
2.10562
1.89871
1.71746
1.55993
1.42376
1.30752
1.20995
1.13049
1.06877
1.02422
0.995725
0.981681
0.980285
0.989887
1.00908
1.03685
1.07233
1.11476
1.16175
1.20915
1.25207
1.28585
1.30717
1.31484
1.31012
1.29646
1.27865
1.26174
1.24962
1.24412
1.2451
1.25128
1.26021
1.26918
1.27602
1.27962
1.28014
1.27875
1.27709
1.27657
1.27782
1.28061
1.28406
1.28688
1.28788
1.28642
1.28285
1.27859
1.27604
1.27825
1.28834
1.3087
1.34044
1.38335
1.43588
1.4954
1.55793
1.61901
1.67454
1.72135
1.75748
1.78213
1.79536
1.79757
1.78909
1.77016
1.7407
1.70062
1.65041
1.59162
1.52705
1.46064
1.39695
1.34052
1.29574
1.26538
1.24864
1.24102
1.23516
1.22197
1.19222
1.13784
1.05322
0.908896
0.71282
0.48622
0.00495892
0
1.02222
3.41755
7.06138
11.231
14.7786
16.5683
15.9769
13.1918
9.13201
5.03163
1.91672
0.24702
-0.125729
0.273702
0.573116
0.826892
1.00335
1.09208
1.14079
1.16373
1.16784
1.15969
1.14526
1.12901
1.11406
1.10288
1.09763
1.10021
1.1122
1.13482
1.16869
1.21373
1.26913
1.33342
1.40472
1.48106
1.56074
1.64264
1.72641
1.81248
1.90193
1.99632
2.09742
2.20709
2.32707
2.45893
2.6039
2.76273
2.93548
3.12134
3.31847
3.52405
3.7345
3.94585
4.15418
4.35607
4.54868
4.72909
4.89301
5.03423
5.14624
5.22183
5.25113
5.22396
5.13327
4.97818
4.76547
4.50898
4.22695
3.93902
3.65794
3.38932
3.13795
2.90763
2.70083
2.51882
2.36191
2.22966
2.12061
2.03258
1.96292
1.90868
1.86691
1.83487
1.81016
1.7908
1.7752
1.76211
1.75051
1.73953
1.72835
1.71615
1.70216
1.68567
1.66622
1.64371
1.61853
1.59149
1.56369
1.53627
1.51012
1.48568
1.46289
1.44128
1.42019
1.39905
1.37764
1.35625
1.33575
1.31759
1.30361
1.29559
1.29499
1.30256
1.31818
1.34078
1.36849
1.39895
1.42972
1.45876
1.48478
1.50733
1.52678
1.54431
1.56176
1.58135
1.6054
1.63606
1.67617
1.7282
1.78794
1.84373
1.88121
1.88758
1.8558
1.78682
1.68909
1.57566
1.46024
1.35263
1.2554
1.16857
1.09232
1.02631
0.969325
0.919447
0.874097
0.830027
0.783671
0.731465
0.670207
0.597413
0.511579
0.411749
0.296242
0.165219
0.0230139
-0.125174
-0.258309
0
1.03496
3.10968
6.13648
9.55383
12.4338
13.8221
13.1678
10.6099
6.94146
3.25286
0.450695
-1.08061
-1.50995
-1.32231
-1.20334
-1.09027
-0.98632
-0.891074
-0.800323
-0.711236
-0.622865
-0.535592
-0.45126
-0.372605
-0.302317
-0.242033
-0.191633
-0.149077
-0.110844
-0.0728096
-0.0312933
0.0157202
0.0684103
0.126267
0.187261
0.248584
0.307855
0.363903
0.41717
0.469626
0.524291
0.584586
0.653789
0.734141
0.82714
0.934794
1.05947
1.20363
1.36955
1.55878
1.77155
2.00629
2.25949
2.5259
2.79925
3.07284
3.34012
3.59483
3.82993
4.03649
4.20598
4.33479
4.41352
4.42639
4.35751
4.19907
3.95774
3.6563
3.32927
3.01361
2.72766
2.4681
2.23249
2.02253
1.8385
1.68065
1.54936
1.44328
1.36095
1.30059
1.25996
1.23617
1.22583
1.22536
1.23146
1.24147
1.25358
1.26705
1.28197
1.29894
1.31882
1.34248
1.37057
1.40326
1.44019
1.48039
1.52218
1.56295
1.59962
1.62939
1.6503
1.66162
1.66399
1.65911
1.64927
1.63675
1.62343
1.61061
1.59918
1.58988
1.58344
1.58056
1.58178
1.58735
1.5971
1.61067
1.62792
1.64912
1.67525
1.70807
1.74992
1.80336
1.87076
1.9544
2.06031
2.20022
2.38433
2.59408
2.78871
2.92582
2.97262
2.91677
2.77186
2.57416
2.37051
2.20146
2.07634
1.97813
1.895
1.82239
1.75908
1.70472
1.6591
1.62195
1.59232
1.56652
1.53675
1.49275
1.42337
1.31879
1.13694
0.87961
0.575139
0.0394468
0
0.935221
3.13419
6.46654
10.2974
13.623
15.4255
15.104
12.7646
9.19093
5.48758
2.58568
0.890931
0.253741
0.224921
0.366825
0.481084
0.590449
0.692879
0.787029
0.873961
0.954746
1.03039
1.10188
1.17003
1.2355
1.29873
1.36001
1.41947
1.47724
1.53345
1.58823
1.64162
1.69347
1.74342
1.79088
1.83527
1.8762
1.9137
1.94843
1.98178
2.01579
2.05307
2.09664
2.14974
2.21561
2.29742
2.39797
2.51943
2.6629
2.82814
3.01323
3.21461
3.42734
3.64559
3.86324
4.07431
4.2727
4.45125
4.60168
4.71623
4.78982
4.81538
4.78455
4.68981
4.52734
4.29948
4.01598
3.69339
3.35282
3.0156
2.69356
2.39303
2.12058
1.88033
1.67395
1.50091
1.35892
1.24436
1.15282
1.07961
1.02014
0.970258
0.926511
0.886247
0.847661
0.80974
0.772157
0.735131
0.699272
0.665442
0.634618
0.607752
0.585636
0.568781
0.55725
0.550543
0.547613
0.546969
0.546858
0.54577
0.543077
0.539461
0.537078
0.539318
0.550139
0.573102
0.610324
0.661538
0.725699
0.79762
0.868889
0.931441
0.979773
1.01235
1.03175
1.04346
1.05386
1.06798
1.08787
1.11201
1.13784
1.16255
1.18389
1.20103
1.21475
1.22716
1.24095
1.25856
1.28102
1.30845
1.3396
1.37145
1.39942
1.41815
1.42264
1.40913
1.37586
1.32361
1.25582
1.17816
1.09758
1.021
0.953627
0.89736
0.852259
0.817145
0.788983
0.76343
0.735652
0.700933
0.655124
0.594904
0.517883
0.420218
0.288962
0.115395
-0.0913342
-0.316409
-0.489107
0
1.62262
4.55287
8.4154
12.2875
15.006
15.6642
14.0378
10.6945
6.71784
3.20682
0.83648
-0.295635
-0.518842
-0.29612
-0.162269
-0.0410259
0.0591044
0.135025
0.195187
0.245798
0.289737
0.328948
0.364984
0.399024
0.432006
0.464783
0.498201
0.533078
0.570095
0.609672
0.651873
0.69647
0.743116
0.79154
0.841778
0.894314
0.950099
1.01043
1.07674
1.15039
1.23246
1.32378
1.4249
1.53631
1.65848
1.79191
1.93696
2.09364
2.26131
2.43847
2.62263
2.81036
2.99755
3.17969
3.35215
3.51051
3.65115
3.77113
3.8679
3.93808
3.97676
3.97931
3.94214
3.86193
3.73683
3.56756
3.35834
3.11694
2.85386
2.58084
2.30892
2.04548
1.79615
1.56461
1.35305
1.16361
0.998533
0.858693
0.744929
0.657746
0.596859
0.560816
0.546848
0.550967
0.568284
0.593586
0.621471
0.646662
0.66477
0.672653
0.668683
0.652879
0.626869
0.593656
0.557215
0.521942
0.491782
0.469814
0.45837
0.458647
0.470671
0.493424
0.525077
0.563272
0.605314
0.648455
0.689866
0.726446
0.755122
0.773384
0.779481
0.7728
0.754138
0.725725
0.690967
0.653936
0.618784
0.589098
0.567261
0.554958
0.554048
0.56595
0.591719
0.631884
0.686194
0.753378
0.831011
0.915582
1.00279
1.08788
1.16614
1.23343
1.28653
1.32325
1.34239
1.34366
1.32755
1.29532
1.24896
1.19128
1.12582
1.05669
0.988166
0.924254
0.868273
0.822744
0.788481
0.764109
0.746566
0.731505
0.713782
0.68795
0.648674
0.591084
0.50831
0.371597
0.159751
-0.113821
-0.439435
-0.605747
0
1.80036
4.88613
8.80233
12.5763
15.047
15.3692
13.4239
9.88929
5.91614
2.59448
0.518038
-0.332675
-0.385683
-0.164963
-0.134328
-0.10844
-0.0886838
-0.0755122
-0.0682981
-0.0654454
-0.0646845
-0.0634514
-0.0593535
-0.0504278
-0.0351371
-0.0125617
0.0175276
0.0546761
0.0979555
0.145917
0.196995
0.249781
0.303209
0.356612
0.409643
0.462137
0.514021
0.565342
0.61644
0.668202
0.722298
0.781294
0.848549
0.927905
1.02321
1.13746
1.27249
1.42892
1.60571
1.80012
2.00788
2.22372
2.4419
2.65685
2.86347
3.05687
3.2316
3.38119
3.49944
3.58279
3.62643
3.62492
3.57364
3.47054
3.31754
3.12115
2.89205
2.64379
2.39123
2.14405
1.90749
1.68551
1.48035
1.29246
1.12094
0.964166
0.820552
0.689739
0.572991
0.472715
0.391222
0.330855
0.29293
0.276934
0.280275
0.298644
0.326868
0.359935
0.393841
0.426298
0.456452
0.484087
0.509474
0.533106
0.55551
0.577112
0.598221
0.619016
0.639529
0.659638
0.679051
0.697325
0.713913
0.728278
0.740134
0.749604
0.757352
0.764615
0.773082
0.784608
0.80081
0.822639
0.850049
0.881987
0.916271
0.949955
0.980055
1.00425
1.02146
1.0321
1.0381
1.04252
1.04894
1.06079
1.08059
1.10937
1.14662
1.19083
1.23968
1.29005
1.3382
1.37966
1.40941
1.42333
1.41826
1.39263
1.34704
1.28456
1.21052
1.13174
1.05528
0.98701
0.930546
0.887044
0.854795
0.830473
0.810329
0.791137
0.770549
0.746863
0.718461
0.683378
0.639926
0.586253
0.519555
0.441277
0.355358
0
0.109242
1.16281
3.43361
6.76484
10.4819
13.5472
14.9491
14.1594
11.4105
7.61183
3.93051
1.27176
-0.0491088
-0.287784
0.0189022
0.139329
0.249473
0.341623
0.412232
0.468113
0.51336
0.551632
0.58696
0.623013
0.662431
0.706554
0.755662
0.808113
0.860506
0.909201
0.951477
0.986422
1.01529
1.04124
1.06852
1.10149
1.14353
1.19584
1.25871
1.33222
1.41608
1.50976
1.61261
1.72403
1.84349
1.9706
2.105
2.24638
2.39438
2.54842
2.7077
2.87105
3.037
3.20381
3.36962
3.53246
3.69012
3.8398
3.97797
4.10037
4.2019
4.27684
4.31907
4.32224
4.28064
4.19045
4.05098
3.86565
3.6422
3.39225
3.13036
2.87054
2.62186
2.39067
2.18258
2.00126
1.84962
1.72914
1.6359
1.56416
1.50791
1.46208
1.42341
1.3906
1.3638
1.34373
1.33096
1.32481
1.32295
1.32238
1.3205
1.31604
1.3095
1.3029
1.29899
1.30036
1.30811
1.32193
1.34104
1.36447
1.39086
1.41881
1.44686
1.47376
1.49866
1.52113
1.54109
1.55869
1.57404
1.58697
1.59715
1.6042
1.60798
1.60906
1.60888
1.6097
1.61427
1.62521
1.64427
1.67158
1.70649
1.74772
1.79323
1.84038
1.88583
1.92555
1.95566
1.97258
1.97339
1.95612
1.91996
1.86534
1.79384
1.70811
1.61179
1.50969
1.40638
1.30612
1.21292
1.13025
1.06064
1.0049
0.961571
0.927049
0.895824
0.861029
0.815496
0.752691
0.66113
0.517812
0.330345
0.117101
-0.202468
0
1.15943
3.51145
6.86375
10.5096
13.409
14.6047
13.6721
10.9405
7.33793
3.94582
1.52743
0.291091
-0.025694
0.124236
0.181225
0.235228
0.284271
0.327749
0.366673
0.402917
0.438731
0.476035
0.515843
0.558194
0.602376
0.647291
0.6919
0.735575
0.778239
0.820306
0.862484
0.905559
0.950212
0.99701
1.04647
1.09909
1.15543
1.21611
1.28186
1.35346
1.43178
1.51775
1.61233
1.71633
1.83031
1.95444
2.08842
2.23159
2.38313
2.54233
2.70881
2.88257
3.06387
3.25285
3.45022
3.65644
3.86727
4.06917
4.24402
4.37446
4.44764
4.45707
4.40238
4.28757
4.11883
3.90313
3.64952
3.37252
3.08474
2.79482
2.50892
2.23225
1.96982
1.72592
1.504
1.30657
1.13526
0.990611
0.872133
0.778501
0.707888
0.65752
0.624418
0.605751
0.599085
0.602476
0.614341
0.633207
0.657858
0.68633
0.715866
0.74374
0.76787
0.787347
0.802629
0.815282
0.82732
0.84038
0.855028
0.870467
0.884601
0.89472
0.898437
0.894616
0.884005
0.869368
0.855048
0.846028
0.846758
0.859945
0.885628
0.922226
0.967293
1.01802
1.07212
1.12834
1.1866
1.24757
1.31197
1.37987
1.4503
1.5205
1.58587
1.64059
1.67937
1.69836
1.69601
1.67346
1.63448
1.58474
1.53069
1.4782
1.4312
1.39055
1.35534
1.32444
1.29662
1.27088
1.24688
1.22511
1.20662
1.19257
1.18428
1.18131
1.17859
1.16738
1.13636
1.01181
0.662352
0.128847
-0.498396
-0.744574
0
2.11174
5.55728
9.73977
13.5862
15.9207
15.974
13.75
10.0303
6.00334
2.73208
0.758411
0.0245928
0.0828599
0.365853
0.386269
0.400631
0.410182
0.417321
0.425363
0.43783
0.45754
0.485081
0.5196
0.559801
0.603749
0.649176
0.693828
0.735624
0.773229
0.806282
0.835455
0.86242
0.889655
0.920047
0.956349
1.00062
1.05383
1.11524
1.18341
1.257
1.33493
1.41678
1.50297
1.59476
1.69392
1.80233
1.92143
2.0519
2.19346
2.34499
2.50487
2.67137
2.84305
3.01928
3.20091
3.39186
3.60086
3.83047
4.05645
4.24255
4.35463
4.37225
4.29247
4.12604
3.89127
3.61009
3.30719
3.0071
2.71949
2.44588
2.18627
1.94243
1.71722
1.51323
1.33269
1.17735
1.04814
0.945015
0.866807
0.811646
0.776897
0.758821
0.753216
0.756321
0.765246
0.778174
0.794297
0.813518
0.836021
0.861834
0.890439
0.920733
0.951178
0.979782
1.00429
1.02291
1.03466
1.03971
1.03954
1.03678
1.03478
1.03695
1.04599
1.06324
1.08818
1.11964
1.15576
1.1944
1.23368
1.27226
1.30935
1.34472
1.37851
1.41115
1.44328
1.47567
1.50925
1.54501
1.58391
1.62672
1.67387
1.72531
1.78047
1.83807
1.89599
1.95098
1.99852
2.03345
2.051
2.04739
2.02079
1.97201
1.90481
1.82552
1.74199
1.6621
1.59165
1.53263
1.48609
1.45079
1.42388
1.40164
1.38019
1.35608
1.32642
1.28891
1.23998
1.15562
0.939435
0.577377
0.115136
-0.313134
0
1.62156
4.7541
8.95301
13.1518
16.0429
16.653
14.8044
11.1931
7.03984
3.51865
1.28784
0.352798
0.267678
0.480858
0.537949
0.591828
0.64121
0.685651
0.726334
0.764443
0.801475
0.838931
0.877911
0.918775
0.961081
1.00342
1.04396
1.08101
1.11366
1.14212
1.16774
1.19275
1.21967
1.25075
1.28721
1.32945
1.37727
1.43017
1.48763
1.54955
1.61657
1.69018
1.77259
1.86643
1.97431
2.09836
2.23988
2.39917
2.57545
2.76705
2.97157
3.18592
3.40649
3.62925
3.84845
4.05651
4.24413
4.40056
4.51645
4.58565
4.60334
4.56597
4.47162
4.32088
4.11772
3.86998
3.58918
3.2908
2.98962
2.69525
2.41449
2.15388
1.91905
1.71448
1.54251
1.40382
1.29748
1.2211
1.17114
1.14318
1.13228
1.13346
1.1421
1.15341
1.16287
1.16717
1.16459
1.1552
1.14073
1.12417
1.10902
1.09838
1.09425
1.09662
1.10446
1.11663
1.13176
1.14865
1.16648
1.18481
1.20347
1.22228
1.24094
1.25889
1.27534
1.28942
1.30038
1.30784
1.31198
1.31358
1.31404
1.31516
1.31882
1.32663
1.3395
1.35745
1.37974
1.40461
1.42982
1.45344
1.47452
1.49352
1.51243
1.53441
1.56307
1.60149
1.65252
1.71918
1.79695
1.8729
1.93228
1.96296
1.95904
1.92213
1.86011
1.784
1.70441
1.6287
1.55912
1.49578
1.43868
1.38784
1.34302
1.30356
1.26818
1.23465
1.19952
1.15826
1.10552
1.03419
0.913389
0.67967
0.347541
-0.0416492
-0.36812
0
1.51809
4.3612
8.18782
12.108
14.9492
15.742
14.183
10.804
6.72727
3.14078
0.795814
-0.202259
-0.248256
0.0961476
0.22313
0.336905
0.429304
0.496933
0.550463
0.594523
0.63129
0.663289
0.693215
0.72374
0.757264
0.795622
0.839794
0.889727
0.944258
1.00152
1.05941
1.11598
1.1698
1.22035
1.26805
1.31418
1.36069
1.40983
1.46389
1.52492
1.59459
1.67412
1.76433
1.86569
1.97839
2.10243
2.2376
2.38346
2.53927
2.70389
2.87574
3.05284
3.2329
3.41351
3.59219
3.76633
3.93259
4.086
4.21964
4.32612
4.39642
4.41956
4.38482
4.28482
4.1183
3.89193
3.62041
3.32451
3.02736
2.74346
2.47811
2.23481
2.01716
1.82691
1.66409
1.52742
1.41462
1.32284
1.24855
1.18783
1.13697
1.09285
1.05327
1.01733
0.985325
0.958561
0.938997
0.928673
0.929171
0.941213
0.964472
0.997568
1.03824
1.08358
1.13034
1.17544
1.21604
1.24985
1.27528
1.2916
1.29892
1.29807
1.29046
1.27788
1.26231
1.24585
1.23055
1.21844
1.21139
1.21101
1.21843
1.23425
1.25845
1.29052
1.32959
1.37469
1.42478
1.47891
1.53619
1.59565
1.65584
1.71434
1.76784
1.81254
1.84468
1.86101
1.85933
1.83864
1.79933
1.74306
1.6728
1.59326
1.50945
1.42625
1.34832
1.27968
1.22291
1.17992
1.15134
1.13492
1.12433
1.11167
1.08881
1.04861
0.985883
0.897823
0.774453
0.59512
0.373641
0.129405
-0.173897
0
1.15657
3.59999
7.14418
11.0211
14.1013
15.3562
14.3346
11.3905
7.52254
3.90733
1.38924
0.201237
0.0336621
0.344494
0.465195
0.575156
0.666393
0.735084
0.788933
0.83227
0.867372
0.896935
0.923786
0.950669
0.980035
1.01383
1.0533
1.09882
1.14992
1.20536
1.26358
1.3231
1.38276
1.44197
1.50072
1.55942
1.61872
1.67927
1.74161
1.80629
1.87402
1.94591
2.02368
2.10976
2.20713
2.31901
2.44834
2.5972
2.76619
2.95404
3.15741
3.37105
3.58843
3.80203
4.00463
4.19042
4.35563
4.49857
4.61806
4.70862
4.76479
4.78264
4.75523
4.67477
4.53576
4.33796
4.0879
3.79856
3.48738
3.17385
2.87058
2.58678
2.33037
2.10689
1.91926
1.76878
1.65628
1.57987
1.53111
1.49955
1.47544
1.45142
1.42349
1.39124
1.35712
1.32515
1.29933
1.28161
1.27184
1.26961
1.27355
1.28195
1.29322
1.30634
1.32092
1.33704
1.35493
1.37461
1.39564
1.41711
1.43796
1.45716
1.47407
1.48872
1.50188
1.51502
1.53012
1.5493
1.57452
1.6072
1.64809
1.69702
1.75293
1.81416
1.87852
1.94385
2.00838
2.07095
2.13103
2.18829
2.24224
2.29182
2.33515
2.36931
2.39075
2.39596
2.38224
2.34827
2.29456
2.22353
2.13937
2.04798
1.9556
1.86791
1.78931
1.72251
1.66914
1.62984
1.60311
1.58465
1.56872
1.54908
1.51981
1.46717
1.32666
0.99413
0.540569
0.03358
-0.295898
0
1.36006
4.00629
7.69363
11.6451
14.7654
16.0738
15.1457
12.3198
8.54295
4.93427
2.31075
0.9257
0.524072
0.62053
0.672067
0.717627
0.759185
0.796122
0.828892
0.858496
0.886125
0.913307
0.941764
0.973215
1.00913
1.05048
1.09745
1.14938
1.20474
1.26149
1.31739
1.3705
1.4196
1.46443
1.50576
1.54516
1.5847
1.62647
1.67226
1.72336
1.78054
1.84436
1.91544
1.99481
2.08414
2.1857
2.30208
2.43569
2.58804
2.7592
2.94735
3.14872
3.35802
3.56886
3.77401
3.96638
4.13928
4.28562
4.39736
4.46807
4.49409
4.47142
4.39663
4.26845
4.08943
3.86687
3.61229
3.33975
3.06369
2.79343
2.53388
2.28898
2.06113
1.85144
1.66033
1.48895
1.33963
1.21393
1.11277
1.03664
0.985021
0.95601
0.946268
0.951403
0.966598
0.987255
1.00937
1.03013
1.04733
1.05911
1.06431
1.06246
1.05386
1.03983
1.02266
1.00533
0.991075
0.982736
0.982178
0.990163
1.00672
1.03112
1.06207
1.09768
1.13624
1.17532
1.21201
1.24363
1.26838
1.28591
1.29756
1.30619
1.31554
1.3294
1.3507
1.38047
1.41888
1.46593
1.52147
1.5851
1.65623
1.73428
1.81829
1.90564
1.99064
2.06563
2.12268
2.15521
2.15939
2.13488
2.08463
2.01397
1.92923
1.83652
1.74145
1.64797
1.55894
1.47698
1.40492
1.34578
1.30414
1.28665
1.29457
1.31469
1.32762
1.31206
1.24947
1.11569
0.827922
0.419979
-0.0517645
-0.381048
0
1.53488
4.40853
8.31384
12.4046
15.5256
16.6644
15.4126
12.1811
8.02844
4.18233
1.51676
0.265961
0.0947464
0.422368
0.48894
0.550504
0.603605
0.647059
0.682607
0.713147
0.742348
0.773583
0.808888
0.848894
0.893155
0.940533
0.989566
1.0389
1.08758
1.13506
1.1811
1.22555
1.26813
1.30849
1.34643
1.38214
1.41663
1.45188
1.49088
1.53728
1.59489
1.66716
1.75627
1.86307
1.98748
2.12857
2.2847
2.45375
2.63341
2.82125
3.01474
3.21118
3.4075
3.60003
3.78365
3.95194
4.09856
4.21783
4.30472
4.35511
4.36579
4.33438
4.25938
4.1404
3.97858
3.77815
3.54608
3.29096
3.02241
2.75012
2.48253
2.22691
1.98914
1.77328
1.58152
1.41432
1.27093
1.14989
1.04951
0.968263
0.904935
0.858446
0.827786
0.812052
0.810111
0.820311
0.84036
0.867418
0.898383
0.930315
0.960881
0.988739
1.01346
1.03518
1.05437
1.07156
1.08686
1.09981
1.10938
1.11426
1.11336
1.1064
1.09428
1.07926
1.06463
1.05403
1.05065
1.05626
1.07214
1.09666
1.12511
1.15214
1.17344
1.18726
1.19504
1.20108
1.21137
1.23189
1.26676
1.31606
1.3775
1.4483
1.52545
1.60557
1.68503
1.75968
1.82489
1.87698
1.91296
1.93092
1.93041
1.91273
1.88084
1.83897
1.79194
1.74442
1.69992
1.66045
1.62719
1.60064
1.58045
1.56551
1.55389
1.54293
1.52936
1.5096
1.48005
1.43742
1.37891
1.30158
1.19474
1.02596
0.77986
0.47529
0.139156
0
0.595256
2.36814
5.45219
9.43829
13.3707
16.0551
16.5683
14.7068
11.1085
6.95866
3.44127
1.24788
0.402618
0.445565
0.776256
0.811418
0.841525
0.865039
0.881731
0.892657
0.899999
0.906577
0.915147
0.927775
0.945754
0.969563
0.998921
1.03296
1.07047
1.11013
1.15071
1.19129
1.23137
1.27097
1.31061
1.35131
1.39441
1.44147
1.49404
1.55355
1.6212
1.69794
1.7846
1.88194
1.99075
2.11182
2.24592
2.39367
2.55541
2.73105
2.91999
3.12109
3.33266
3.5525
3.77867
4.00812
4.23388
4.44402
4.6245
4.76252
4.84724
4.87077
4.82859
4.71976
4.54745
4.31972
4.04996
3.75748
3.46223
3.17694
2.90702
2.65604
2.42779
2.22426
2.04575
1.89119
1.75855
1.6454
1.54939
1.46858
1.40147
1.34696
1.3042
1.27225
1.24988
1.23545
1.2269
1.22195
1.21818
1.21335
1.20583
1.19489
1.18087
1.16516
1.14995
1.13779
1.13102
1.13116
1.13863
1.15274
1.17135
1.19136
1.20955
1.2233
1.23107
1.23268
1.22917
1.22249
1.21496
1.20873
1.20538
1.20571
1.20995
1.218
1.22942
1.24359
1.25969
1.27663
1.29269
1.30599
1.315
1.31909
1.31897
1.3168
1.31587
1.31996
1.33264
1.35573
1.38959
1.43433
1.48981
1.55578
1.63095
1.71097
1.78771
1.85169
1.89403
1.90825
1.89182
1.84667
1.77885
1.69723
1.61176
1.53118
1.46033
1.40073
1.35247
1.31538
1.28839
1.26957
1.25623
1.24498
1.23165
1.21064
1.17582
1.12096
1.03894
0.896314
0.699149
0.467324
-0.0053699
0
0.933863
3.06848
6.31289
10.0984
13.46
15.3543
15.1062
12.7535
9.06949
5.21951
2.2323
0.585368
0.12383
0.309363
0.405327
0.466605
0.518867
0.561895
0.596986
0.625552
0.649522
0.671254
0.693434
0.718865
0.75012
0.789087
0.836541
0.891708
0.95254
1.01654
1.08107
1.14383
1.20327
1.25888
1.31128
1.36195
1.41298
1.46667
1.52521
1.59045
1.66382
1.74636
1.8388
1.94176
2.05584
2.18167
2.31999
2.47149
2.63663
2.81537
3.00684
3.209
3.41849
3.6307
3.8393
4.0361
4.21239
4.36069
4.47496
4.55062
4.58439
4.57382
4.51696
4.4125
4.26029
4.06245
3.82521
3.55745
3.26965
2.97366
2.68137
2.40259
2.14568
1.91657
1.71849
1.55201
1.41545
1.30556
1.21818
1.14891
1.09365
1.04895
1.01219
0.981696
0.95665
0.936941
0.922822
0.914779
0.913293
0.918654
0.930841
0.949478
0.973831
1.00283
1.0351
1.06907
1.10285
1.13444
1.16215
1.18489
1.20249
1.21578
1.22638
1.23632
1.24748
1.26114
1.27758
1.29636
1.31674
1.33786
1.35908
1.38009
1.40102
1.42232
1.44455
1.46823
1.49372
1.52115
1.55044
1.58138
1.6137
1.64719
1.68186
1.71795
1.75586
1.79589
1.83808
1.88108
1.92078
1.95104
1.96511
1.95756
1.92608
1.8725
1.80257
1.72464
1.6477
1.57855
1.51987
1.47205
1.43486
1.40705
1.3863
1.3694
1.35236
1.33083
1.30037
1.25674
1.19621
1.11505
0.998819
0.812881
0.569891
0.293995
-0.0815936
0
1.01312
3.27174
6.67842
10.5988
13.9897
15.7811
15.3481
12.8213
9.04599
5.1976
2.26356
0.677023
0.272566
0.529228
0.633133
0.699144
0.751178
0.789716
0.81946
0.843642
0.865599
0.888105
0.912901
0.940809
0.971821
1.00534
1.04052
1.07657
1.11294
1.14944
1.18624
1.22369
1.26222
1.30213
1.34361
1.38676
1.43186
1.47956
1.5311
1.58837
1.65368
1.72956
1.81832
1.92154
2.03982
2.17289
2.31957
2.47781
2.64495
2.81808
2.9945
3.1721
3.34969
3.52714
3.7053
3.88652
4.07638
4.28105
4.48926
4.67301
4.80025
4.84757
4.80765
4.68815
4.50412
4.27011
3.99833
3.70876
3.4183
3.13599
2.86703
2.61523
2.38443
2.17744
1.99563
1.83901
1.70662
1.59688
1.50828
1.43909
1.38744
1.35149
1.32934
1.31906
1.31855
1.32581
1.33904
1.35684
1.37814
1.40211
1.42797
1.45454
1.47997
1.50199
1.51825
1.52691
1.52723
1.52002
1.50771
1.49412
1.48377
1.48101
1.48882
1.50821
1.5384
1.57801
1.62373
1.67077
1.71452
1.75153
1.78026
1.80126
1.81683
1.83029
1.845
1.86347
1.88652
1.91357
1.94329
1.974
2.004
2.03184
2.05661
2.07784
2.09544
2.10937
2.11949
2.12538
2.12629
2.12119
2.10894
2.08849
2.05915
2.02073
1.97375
1.91946
1.85979
1.79716
1.73428
1.67395
1.61872
1.57068
1.53119
1.50054
1.47788
1.46097
1.4454
1.42405
1.38834
1.32949
1.24003
1.08504
0.864232
0.603199
0.0527898
0
0.971982
3.30831
6.90489
11.0941
14.784
16.8531
16.6277
14.1928
10.3568
6.28189
2.98666
0.984995
0.221708
0.274966
0.617481
0.739165
0.844783
0.927969
0.988232
1.03275
1.06547
1.09163
1.11669
1.14531
1.18035
1.22282
1.27221
1.32706
1.38492
1.44324
1.50006
1.55448
1.60687
1.65861
1.71174
1.76834
1.8301
1.89781
1.97154
2.05095
2.13555
2.22498
2.31932
2.4192
2.52585
2.64086
2.76599
2.90283
3.05256
3.21583
3.39269
3.58265
3.78478
3.99781
4.22124
4.45619
4.70257
4.95054
5.17895
5.36399
5.48574
5.5333
5.50547
5.40675
5.24177
5.01305
4.7248
4.39952
4.06134
3.72791
3.41079
3.1161
2.8488
2.61357
2.41276
2.24657
2.11299
2.00838
1.92836
1.86843
1.82448
1.79303
85
240
397
553
706
860
1018
1178
1338
1493
1653
1814
1973
2126
2279
2432
2588
2740
2890
3043
3200
3361
3517
3673
3706
3722
0
0
0
0
0
0
0
0
0
0
0
0
0
0
0
0
0
0
0
0
0
0
0
0
0
0
0
0
0
0
0
0
0
0
0
0
0
0
0
0
0
0
0
0
0
0
0
0
0
0
0
0
0
0
0
0
0
0
0
0
0
0
0
0
0
0
0
0
0
0
0
0
0
0
0
0
0
0
0
0
0
0
0
0
0
0
0
0
0
0
0
0
0
0
0
0
0
0
0
0
0
0
0
0
0
0
0
0
0
0
0
0
0
0
0
0
0
0
0
0
0
0
0
0
0
0
0
0
0
0
0
0
0
0
0
0
0
0
0
0
0
0
0
0
0
0
0
0
0
0
0
0
0
0
0
0
0
0
0
0
0
0
0
0
0
0
0
0
0
0
0
0
0
0
0
0
0
0
0
0
0
0
0
0
0
0
0
0
0
0
0
0
0
0
0
0
0
0
0
0
0
0
0
0
0
0
0
0
0
0
0
0
0
0
0
0
0
0
0
0
0
0
0
0
0
0
0
0
0
0
0
0
0
0
0
0
0
0
0
0
0
0
0
0
0
0
0
0
0
0
0
0
0
0
0
0
0
0
0
0
0
0
0
0
0
0
0
0
0
0
0
0
0
0
0
0
0
0
0
0
0
0
0
0
0
0
0
0
0
0
0
0
0
0
0
0
0
0
0
0
0
0
0
0
0
0
0
0
0
0
0
0
0
0
0
0
0
0
0
0
0
0
0
0
0
0
0
0
0
0
0
0
0
0
0
0
0
0
0
0
0
0
0
0
0
0
0
0
0
0
0
0
0
0
0
0
0
0
0
0
0
0
0
0
0
0
0
0
0
0
0
0
0
0
0
0
0
0
0
0
0
0
0
0
0
0
0
0
0
0
0
0
0
0
0
0
0
0
0
0
0
0
0
0
0
0
0
0
0
0
0
0
0
0
0
0
0
0
0
0
0
0
0
0
0
0
0
0
0
0
0
0
0
0
0
0
0
0
0
0
0
0
0
0
0
0
0
0
0
0
0
0
0
0
0
0
0
0
0
0
0
0
0
0
0
0
0
0
0
0
0
0
0
0
0
0
0
0
0
0
0
0
0
0
0
0
0
0
0
0
0
0
0
0
0
0
0
0
0
0
0
0
0
0
0
0
0
0
0
0
0
0
0
0
0
0
0
0
0
0
0
0
0
0
0
0
0
0
0
0
0
0
0
0
0
0
0
0
0
0
0
0
0
0
0
0
0
0
0
0
0
0
0
0
0
0
0
0
0
0
0
0
0
0
0
0
0
0
0
0
0
0
0
0
0
0
0
0
0
0
0
0
0
0
0
0
0
0
0
0
0
0
0
0
0
0
0
0
0
0
0
0
0
0
0
0
0
0
0
0
0
0
0
0
0
0
0
0
0
0
0
0
0
0
0
0
0
0
0
0
0
0
0
0
0
0
0
0
0
0
0
0
0
0
0
0
0
0
0
0
0
0
0
0
0
0
0
0
0
0
0
0
0
0
0
0
0
0
0
0
0
0
0
0
0
0
0
0
0
0
0
0
0
0
0
0
0
0
0
0
0
0
0
0
0
0
0
0
0
0
0
0
0
0
0
0
0
0
0
0
0
0
0
0
0
0
0
0
0
0
0
0
0
0
0
0
0
0
0
0
0
0
0
0
0
0
0
0
0
0
0
0
0
0
0
0
0
0
0
0
0
0
0
0
0
0
0
0
0
0
0
0
0
0
0
0
0
0
0
0
0
0
0
0
0
0
0
0
0
0
0
0
0
0
0
0
0
0
0
0
0
0
0
0
0
0
0
0
0
0
0
0
0
0
0
0
0
0
0
0
0
0
0
0
0
0
0
0
0
0
0
0
0
0
0
0
0
0
0
0
0
0
0
0
0
0
0
0
0
0
0
0
0
0
0
0
0
0
0
0
0
0
0
0
0
0
0
0
0
0
0
0
0
0
0
0
0
0
0
0
0
0
0
0
0
0
0
0
0
0
0
0
0
0
0
0
0
0
0
0
0
0
0
0
0
0
0
0
0
0
0
0
0
0
0
0
0
0
0
0
0
0
0
0
0
0
0
0
0
0
0
0
0
0
0
0
0
0
0
0
0
0
0
0
0
0
0
0
0
0
0
0
0
0
0
0
0
0
0
0
0
0
0
0
0
0
0
0
0
0
0
0
0
0
0
0
0
0
0
0
0
0
0
0
0
0
0
0
0
0
0
0
0
0
0
0
0
0
0
0
0
0
0
0
0
0
0
0
0
0
0
0
0
0
0
0
0
0
0
0
0
0
0
0
0
0
0
0
0
0
0
0
0
0
0
0
0
0
0
0
0
0
0
0
0
0
0
0
0
0
0
0
0
0
0
0
0
0
0
0
0
0
0
0
0
0
0
0
0
0
0
0
0
0
0
0
0
0
0
0
0
0
0
0
0
0
0
0
0
0
0
0
0
0
0
0
0
0
0
0
0
0
0
0
0
0
0
0
0
0
0
0
0
0
0
0
0
0
0
0
0
0
0
0
0
0
0
0
0
0
0
0
0
0
0
0
0
0
0
0
0
0
0
0
0
0
0
0
0
0
0
0
0
0
0
0
0
0
0
0
0
0
0
0
0
0
0
0
0
0
0
0
0
0
0
0
0
0
0
0
0
0
0
0
0
0
0
0
0
0
0
0
0
0
0
0
0
0
0
0
0
0
0
0
0
0
0
0
0
0
0
0
0
0
0
0
0
0
0
0
0
0
0
0
0
0
0
0
0
0
0
0
0
0
0
0
0
0
0
0
0
0
0
0
0
0
0
0
0
0
0
0
0
0
0
0
0
0
0
0
0
0
0
0
0
0
0
0
0
0
0
0
0
0
0
0
0
0
0
0
0
0
0
0
0
0
0
0
0
0
0
0
0
0
0
0
0
0
0
0
0
0
0
0
0
0
0
0
0
0
0
0
0
0
0
0
0
0
0
0
0
0
0
0
0
0
0
0
0
0
0
0
0
0
0
0
0
0
0
0
0
0
0
0
0
0
0
0
0
0
0
0
0
0
0
0
0
0
0
0
0
0
0
0
0
0
0
0
0
0
0
0
0
0
0
0
0
0
0
0
0
0
0
0
0
0
0
0
0
0
0
0
0
0
0
0
0
0
0
0
0
0
0
0
0
0
0
0
0
0
0
0
0
0
0
0
0
0
0
0
0
0
0
0
0
0
0
0
0
0
0
0
0
0
0
0
0
0
0
0
0
0
0
0
0
0
0
0
0
0
0
0
0
0
0
0
0
0
0
0
0
0
0
0
0
0
0
0
0
0
0
0
0
0
0
0
0
0
0
0
0
0
0
0
0
0
0
0
0
0
0
0
0
0
0
0
0
0
0
0
0
0
0
0
0
0
0
0
0
0
0
0
0
0
0
0
0
0
0
0
0
0
0
0
0
0
0
0
0
0
0
0
0
0
0
0
0
0
0
0
0
0
0
0
0
0
0
0
0
0
0
0
0
0
0
0
0
0
0
0
0
0
0
0
0
0
0
0
0
0
0
0
0
0
0
0
0
0
0
0
0
0
0
0
0
0
0
0
0
0
0
0
0
0
0
0
0
0
0
0
0
0
0
0
0
0
0
0
0
0
0
0
0
0
0
0
0
0
0
0
0
0
0
0
0
0
0
0
0
0
0
0
0
0
0
0
0
0
0
0
0
0
0
0
0
0
0
0
0
0
0
0
0
0
0
0
0
0
0
0
0
0
0
0
0
0
0
0
0
0
0
0
0
0
0
0
0
0
0
0
0
0
0
0
0
0
0
0
0
0
0
0
0
0
0
0
0
0
0
0
0
0
0
0
0
0
0
0
0
0
0
0
0
0
0
0
0
0
0
0
0
0
0
0
0
0
0
0
0
0
0
0
0
0
0
0
0
0
0
0
0
0
0
0
0
0
0
0
0
0
0
0
0
0
0
0
0
0
0
0
0
0
0
0
0
0
0
0
0
0
0
0
0
0
0
0
0
0
0
0
0
0
0
0
0
0
0
0
0
0
0
0
0
0
0
0
0
0
0
0
0
0
0
0
0
0
0
0
0
0
0
0
0
0
0
0
0
0
0
0
0
0
0
0
0
0
0
0
0
0
0
0
0
0
0
0
0
0
0
0
0
0
0
0
0
0
0
0
0
0
0
0
0
0
0
0
0
0
0
0
0
0
0
0
0
0
0
0
0
0
0
0
0
0
0
0
0
0
0
0
0
0
0
0
0
0
0
0
0
0
0
0
0
0
0
0
0
0
0
0
0
0
0
0
0
0
0
0
0
0
0
0
0
0
0
0
0
0
0
0
0
0
0
0
0
0
0
0
0
0
0
0
0
0
0
0
0
0
0
0
0
0
0
0
0
0
0
0
0
0
0
0
0
0
0
0
0
0
0
0
0
0
0
0
0
0
0
0
0
0
0
0
0
0
0
0
0
0
0
0
0
0
0
0
0
0
0
0
0
0
0
0
0
0
0
0
0
0
0
0
0
0
0
0
0
0
0
0
0
0
0
0
0
0
0
0
0
0
0
0
0
0
0
0
0
0
0
0
0
0
0
0
0
0
0
0
0
0
0
0
0
0
0
0
0
0
0
0
0
0
0
0
0
0
0
0
0
0
0
0
0
0
0
0
0
0
0
0
0
0
0
0
0
0
0
0
0
0
0
0
0
0
0
0
0
0
0
0
0
0
0
0
0
0
0
0
0
0
0
0
0
0
0
0
0
0
0
0
0
0
0
0
0
0
0
0
0
0
0
0
0
0
0
0
0
0
0
0
0
0
0
0
0
0
0
0
0
0
0
0
0
0
0
0
0
0
0
0
0
0
0
0
0
0
0
0
0
0
0
0
0
0
0
0
0
0
0
0
0
0
0
0
0
0
0
0
0
0
0
0
0
0
0
0
0
0
0
0
0
0
0
0
0
0
0
0
0
0
0
0
0
0
0
0
0
0
0
0
0
0
0
0
0
0
0
0
0
0
0
0
0
0
0
0
0
0
0
0
0
0
0
0
0
0
0
0
0
0
0
0
0
0
0
0
0
0
0
0
0
0
0
0
0
0
0
0
0
0
0
0
0
0
0
0
0
0
0
0
0
0
0
0
0
0
0
0
0
0
0
0
0
0
0
0
0
0
0
0
0
0
0
0
0
0
0
0
0
0
0
0
0
0
0
0
0
0
0
0
0
0
0
0
0
0
0
0
0
0
0
0
0
0
0
0
0
0
0
0
0
0
0
0
0
0
0
0
0
0
0
0
0
0
0
0
0
0
0
0
0
0
0
0
0
0
0
0
0
0
0
0
0
0
0
0
0
0
0
0
0
0
0
0
0
0
0
0
0
0
0
0
0
0
0
0
0
0
0
0
0
0
0
0
0
0
0
0
0
0
0
0
0
0
0
0
0
0
0
0
0
0
0
0
0
0
0
0
0
0
0
0
0
0
0
0
0
0
0
0
0
0
0
0
0
0
0
0
0
0
0
0
0
0
0
0
0
0
0
0
0
0
0
0
0
0
0
0
0
0
0
0
0
0
0
0
0
0
0
0
0
0
0
0
0
0
0
0
0
0
0
0
0
0
0
0
0
0
0
0
0
0
0
0
0
0
0
0
0
0
0
0
0
0
0
0
0
0
0
0
0
0
0
0
0
0
0
0
0
0
0
0
0
0
0
0
0
0
0
0
0
0
0
0
0
0
0
0
0
0
0
0
0
0
0
0
0
0
0
0
0
0
0
0
0
0
0
0
0
0
0
0
0
0
0
0
0
0
0
0
0
0
0
0
0
0
0
0
0
0
0
0
0
0
0
0
0
0
0
0
0
0
0
0
0
0
0
0
0
0
0
0
0
0
0
0
0
0
0
0
0
0
0
0
0
0
0
0
0
0
0
0
0
0
0
0
0
0
0
0
0
0
0
0
0
0
0
0
0
0
0
0
0
0
0
0
0
0
0
0
0
0
0
0
0
0
0
0
0
0
0
0
0
0
0
0
0
0
0
0
0
0
0
0
0
0
0
0
0
0
0
0
0
0
0
0
0
0
0
0
0
0
0
0
0
0
0
0
0
0
0
0
0
0
0
0
0
0
0
0
0
0
0
0
0
0
0
0
0
0
0
0
0
0
0
0
0
0
0
0
0
0
0
0
0
0
0
0
0
0
0
0
0
0
0
0
0
0
0
0
0
0
0
0
0
0
0
0
0
0
0
0
0
0
0
0
0
0
0
0
0
0
0
0
0
0
0
0
0
0
0
0
0
0
0
0
0
0
0
0
0
0
0
0
0
0
0
0
0
0
0
0
0
0
0
0
0
0
0
0
0
0
0
0
0
0
0
0
0
0
0
0
0
0
0
0
0
0
0
0
0
0
0
0
0
0
0
0
0
0
0
0
0
0
0
0
0
0
0
0
0
0
0
0
0
0
0
0
0
0
0
0
0
0
0
0
0
0
0
0
0
0
0
0
0
0
0
0
0
0
0
0
0
0
0
0
0
0
0
0
0
0
0
0
0
0
0
0
0
0
0
0
0
0
0
0
0
0
0
0
0
0
0
0
0
0
0
0
0
0
0
0
0
0
0
0
0
0
0
0
0
0
0
0
0
0
0
0
0
0
0
0
0
0
0
0
0
0
0
0
0
0
0
0
0
0
0
0
0
0
0
0
0
0
0
0
0
0
0
0
0
0
0
0
0
0
0
0
0
0
0
0
0
0
0
0
0
0
0
0
0
0
0
0
0
0
0
0
0
0
0
0
0
0
0
0
0
0
0
0
0
0
0
0
0
0
0
0
0
0
0
0
0
0
0
0
0
0
0
0
0
0
0
0
0
0
0
0
0
0
0
0
0
0
0
0
0
0
0
0
0
0
0
0
0
0
0
0
0
0
0
0
0
0
0
0
0
0
0
0
0
0
0
0
0
0
0
0
0
0
0
0
0
0
0
0
0
0
0
0
0
0
0
0
0
0
0
0
0
0
0
0
0
0
0
0
0
0
0
0
0
0
0
0
0
0
0
0
0
0
0
0
0
0
0
0
0
0
0
0
0
0
0
0
0
0
0
0
0
0
0
0
0
0
0
0
0
0
0
0
0
0
0
0
0
0
0
0
0
0
0
0
0
0
0
0
0
0
0
0
0
0
0
0
0
0
0
0
0
0
0
0
0
0
0
0
0
0
0
0
0
0
0
0
0
0
0
0
0
0
0
0
0
0
0
0
0
0
0
0
0
0
0
0
0
0
0
0
0
0
0
0
0
0
0
0
0
0
0
0
0
0
0
0
0
0
0
0
0
0
0
0
0
0
0
0
0
0
0
0
0
0
0
0
0
0
0
0
0
0
0
0
0
0
0
0
0
0
0
0
0
0
0
0
0
0
0
0
0
0
0
0
0
0
0
0
0
0
0
0
0
0
0
0
0
0
0
0
0
0
0
0
0
0
0
0
0
0
0
0
0
0
0
0
0
0
0
0
0
0
0
0
0
0
0
0
0
0
0
0
0
0
0
0
0
0
0
0
0
0
0
0
0
0
0
0
0
0
0
0
0
0
0
0
0
0
0
0
0
0
0
0
0
0
0
0
0
0
0
0
0
0
0
0
0
0
0
0
0
0
0
0
0
0
0
0
0
0
0
0
0
0
0
0
0
0
0
0
0
0
0
0
0
0
0
0
0
0
0
0
0
0
0
0
0
0
0
0
0
0
0
0
0
0
0
0
0
0
0
0
0
0
0
0
0
0
0
0
0
0
0
0
0
0
0
0
0
0
0
0
0
0
0
0
0
0
0
0
0
0
0
0
0
0
0
0
0
0
0
0
0
0
0
0
0
0
0
0
0
0
0
0
0
0
0
0
0
0
0
0
0
0
0
0
0
0
0
0
0
0
0
0
0
0
0
0
0
0
0
0
0
0
0
0
0
0
0
0
0
0
0
0
0
0
0
0
0
0
0
0
0
0
0
0
0
0
0
0
0
0
0
0
0
0
0
0
0
0
0
0
0
0
0
0
0
0
0
0
0
0
0
0
0
0
0
0
0
0
0
0
0
0
0
0
0
0
0
0
0
0
0
0
0
0
0
0
0
0
0
0
0
0
0
0
0
0
0
0
0
0
0
0
0
0
0
0
0
0
0
0
0
0
0
0
0
0
0
0
0
0
0
0
0
0
0
0
0
0
0
0
0
0
0
0
0
0
0
0
0
0
0
0
0
0
0
0
0
0
0
0
0
0
0
0
0
0
0
0
0
0
0
0
0
0
0
0
0
0
0
0
0
0
0
0
0
0
0
0
0
0
0
0
0
0
0
0
0
0
0
0
0
0
0
0
0
0
0
0
0
0
0
0
0
0
0
0
0
0
0
0
0
0
0
0
0
0
0
0
0
0
0
0
0
0
0
0
0
0
0
0
0
0
0
0
0
0
0
0
0
