-3.33012
-3.3136
-3.3008
-3.28625
-3.26309
-3.22523
-3.16883
-3.09163
-2.99305
-2.87284
-2.73061
-2.57204
-2.41208
-2.26871
-2.15725
-2.0874
-2.06172
-2.07567
-2.11903
-2.17853
-2.24102
-2.29662
-2.34174
-2.3772
-2.40492
-2.42589
-2.44035
-2.44768
-2.44629
-2.43397
-2.40843
-2.36827
-2.31404
-2.2471
-2.16932
-2.0863
-2.00547
-1.93355
-1.87505
-1.83145
-1.80129
-1.78096
-1.7661
-1.7528
-1.7385
-1.72233
-1.70413
-1.68438
-1.66385
-1.64359
-1.62457
-1.60723
-1.59127
-1.57536
-1.55734
-1.53458
-1.50464
-1.46604
-1.41878
-1.36481
-1.30657
-1.24656
-1.18714
-1.13023
-1.0769
-1.02717
-0.980127
-0.934226
-0.887717
-0.839077
-0.787413
-0.732723
-0.675901
-0.618472
-0.562103
-0.50802
-0.456519
-0.406723
-0.356674
-0.303749
-0.245282
-0.179446
-0.105672
-0.0237213
0.0647974
0.153539
0.233619
0.296685
0.337265
0.354321
0.351383
0.33513
0.312909
0.290164
0.26865
0.247189
0.223645
0.195801
0.162474
0.12433
0.0839542
0.0461947
0.0166582
0.000270271
0
0.0152168
0.0445347
0.083786
0.12815
0.173369
0.216928
0.257928
0.295573
0.329273
0.500031
0.938227
1.58918
2.28834
2.77508
2.7902
2.14577
0.856135
-0.855804
-2.6001
-3.92923
-4.49218
-4.17256
-3.14203
-1.78826
-0.542311
0.306997
0.712055
0.827174
0.920221
1.00233
1.06327
1.09432
1.09095
1.05546
0.997706
0.932697
0.875812
0.837608
0.816685
0.806904
0.805314
0.809264
0.81769
0.831675
0.854134
0.888781
0.938846
1.00563
1.08697
1.18045
1.28428
1.39644
1.51505
1.6385
1.76531
1.89401
2.02291
2.15013
2.27359
2.39129
2.50156
2.6033
2.69617
2.78051
2.85711
2.92658
2.98879
3.04246
3.085
3.11257
3.12033
3.10364
3.05914
2.98569
2.88475
2.76023
2.6179
2.46498
2.30812
2.15197
1.99941
1.85207
1.71028
1.57318
1.43913
1.30611
1.17222
1.03608
0.897008
0.75523
0.611811
0.468615
0.328384
0.195175
0.07442
-0.028163
-0.107939
-0.161664
-0.188312
-0.189575
-0.169795
-0.135274
-0.0930798
-0.0497028
-0.00978012
0.0248766
0.0542315
0.0788752
0.10015
0.119783
0.139567
0.161089
0.185537
0.2135
0.244801
0.278596
0.31281
0.344551
0.370841
0.389305
0.398738
0.399359
0.392693
0.381165
0.367558
0.354511
0.343953
0.337192
0.335011
0.337503
0.344329
0.354068
0.363379
0.368224
0.365235
0.353006
0.332932
0.309116
0.28723
0.272659
0.268608
0.275492
0.28926
0.303325
0.310725
0.3063
0.288137
0.257907
0.220148
0.180918
0.146249
0.120112
0.104362
0.0998936
0.107159
0.126048
0.155629
0.194188
0.239619
0.289035
0.338995
0.386608
0.43019
0.469692
0.506718
0.544049
0.585053
0.634226
0.693118
0.754888
0.807961
0.839853
0.841335
0.809251
0.74716
0.664021
0.571779
0.482604
0.404174
0.338824
0.286386
0.246705
0.218382
0.197449
0.179341
0.160036
0.137067
0.110066
0.0807001
0.0520327
0.0275385
0.00991821
0
-0.00778732
-0.0085701
-0.00338764
0.00666313
0.0221994
0.0529516
0.213126
0.628569
1.21537
1.76903
2.03302
1.68857
0.606221
-1.02564
-2.79485
-4.19918
-4.86119
-4.68827
-3.88807
-2.83419
-1.87101
-1.17797
-0.756903
-0.521311
-0.418189
-0.322394
-0.226467
-0.129465
-0.0311176
0.0680382
0.166187
0.259624
0.343471
0.412984
0.464708
0.49757
0.513461
0.517093
0.515204
0.515323
0.524464
0.547132
0.584904
0.638059
0.706427
0.789211
0.884904
0.991439
1.10632
1.22673
1.34965
1.47205
1.59109
1.70432
1.80988
1.90658
1.99407
2.07271
2.14345
2.20754
2.26601
2.31929
2.36707
2.40789
2.43915
2.45738
2.45884
2.44016
2.39897
2.33421
2.24625
2.13667
2.00795
1.86324
1.70601
1.53953
1.3664
1.18861
1.00803
0.826868
0.647937
0.474683
0.311313
0.16226
0.0313007
-0.0789867
-0.166007
-0.229739
-0.274205
-0.304925
-0.32767
-0.347293
-0.367004
-0.38825
-0.411121
-0.43501
-0.459164
-0.483004
-0.505978
-0.527308
-0.545753
-0.55955
-0.566593
-0.564817
-0.55266
-0.529667
-0.496279
-0.45375
-0.40402
-0.349425
-0.292509
-0.235757
-0.18214
-0.135206
-0.0980873
-0.073418
-0.0627609
-0.0660667
-0.0814453
-0.105419
-0.133645
-0.161871
-0.18688
-0.207419
-0.223536
-0.23578
-0.24499
-0.252132
-0.258026
-0.263167
-0.267643
-0.271152
-0.273135
-0.272991
-0.270356
-0.265278
-0.258592
-0.252491
-0.250169
-0.25489
-0.268914
-0.292527
-0.323515
-0.357387
-0.38835
-0.410823
-0.419976
-0.411306
-0.390302
-0.367115
-0.352257
-0.352311
-0.367253
-0.390518
-0.411747
-0.420919
-0.412037
-0.388657
-0.356038
-0.317582
-0.275838
-0.232356
-0.187214
-0.139005
-0.0852455
-0.0231255
0.0509197
0.143291
0.254981
0.369928
0.46658
0.525108
0.534188
0.494472
0.417484
0.320991
0.223444
0.139268
0.0712795
0.0180637
-0.0196342
-0.0420204
-0.0507477
-0.0486572
-0.0394382
-0.0269817
-0.014761
-0.00536079
-0.00027771
0
-0.00275269
-0.00936623
-0.0187614
-0.0298832
-0.0415211
-0.0522072
-0.0583904
-0.0366112
0.203889
0.673552
1.26571
1.85755
2.29599
2.40222
2.01853
1.05223
-0.39423
-2.03233
-3.45966
-4.3106
-4.40176
-3.79555
-2.75352
-1.61393
-0.659491
-0.0335178
0.268228
0.326514
0.36396
0.396751
0.424957
0.448122
0.466356
0.480404
0.491634
0.501925
0.513457
0.528431
0.548691
0.575424
0.609072
0.649252
0.694761
0.743763
0.794091
0.843616
0.890607
0.934019
0.973685
1.01038
1.0458
1.08241
1.12323
1.17162
1.23081
1.30356
1.39163
1.4953
1.61312
1.74257
1.87899
2.01402
2.13795
2.24202
2.31982
2.36809
2.38673
2.37818
2.34638
2.29581
2.23114
2.15705
2.07684
1.99257
1.90542
1.81581
1.72342
1.62723
1.52572
1.41722
1.30031
1.17431
1.03953
0.897485
0.750837
0.603116
0.458345
0.320558
0.193334
0.0795227
-0.0192242
-0.102453
-0.170678
-0.225069
-0.267123
-0.298402
-0.320396
-0.334491
-0.341993
-0.344181
-0.34219
-0.336953
-0.329076
-0.318766
-0.305837
-0.289852
-0.270363
-0.247187
-0.220494
-0.191235
-0.161687
-0.134803
-0.113157
-0.0979565
-0.0882958
-0.0809433
-0.0708031
-0.0519547
-0.0189808
0.0320992
0.110128
0.219803
0.344411
0.456073
0.52778
0.541917
0.496391
0.405765
0.296394
0.197564
0.13287
0.103957
0.100445
0.116045
0.149447
0.202007
0.273433
0.355068
0.432307
0.490184
0.517045
0.507634
0.464217
0.395259
0.312376
0.227067
0.147798
0.0777752
0.0181114
-0.0283558
-0.0597626
-0.0750591
-0.0743313
-0.0590492
-0.0320625
0.00278244
0.0413513
0.0800812
0.116753
0.150763
0.183011
0.21537
0.249897
0.288022
0.329888
0.374458
0.418419
0.456003
0.480898
0.487767
0.473675
0.438978
0.387394
0.325194
0.259797
0.198219
0.144757
0.100335
0.0651096
0.0391075
0.0218815
0.0118248
0.00568161
0
-0.00710602
-0.0186535
-0.0351967
-0.0560001
-0.0794792
-0.103821
-0.127555
-0.150009
-0.170921
-0.188497
-0.17974
0.120959
0.788749
1.69853
2.53553
2.91367
2.54497
1.37519
-0.369836
-2.25903
-3.81499
-4.69077
-4.78283
-4.22918
-3.30715
-2.29725
-1.38941
-0.666771
-0.143406
0.16664
0.200521
0.206985
0.206711
0.202839
0.199922
0.203091
0.216894
0.243556
0.282473
0.331849
0.388334
0.446682
0.501664
0.549367
0.588178
0.619196
0.64596
0.673543
0.707275
0.751369
0.807461
0.874889
0.95183
1.03575
1.12385
1.21368
1.3035
1.39228
1.47938
1.56418
1.64576
1.72287
1.79407
1.85795
1.91359
1.96072
1.99978
2.0317
2.05753
2.07796
2.093
2.10182
2.10273
2.09327
2.07057
2.03176
1.97443
1.89701
1.79908
1.68159
1.54688
1.39855
1.24088
1.07857
0.916434
0.759238
0.611486
0.477254
0.359818
0.261448
0.183764
0.12699
0.0891148
0.0659962
0.0523041
0.042403
0.0311462
0.0145679
-0.00963364
-0.0418564
-0.0806114
-0.122789
-0.164141
-0.19984
-0.225459
-0.237799
-0.235526
-0.219445
-0.192291
-0.158082
-0.121198
-0.0854496
-0.053194
-0.025502
-0.00222321
0.0176292
0.0354092
0.052454
0.0697769
0.0880337
0.107582
0.128507
0.150643
0.173549
0.1965
0.218552
0.238636
0.255746
0.269246
0.279049
0.285754
0.290615
0.295327
0.301635
0.310831
0.323759
0.339601
0.354912
0.36516
0.366262
0.356122
0.33552
0.307931
0.278315
0.251375
0.230018
0.214225
0.20306
0.195107
0.189574
0.187014
0.189308
0.198914
0.217897
0.248532
0.287465
0.326923
0.358241
0.375299
0.377176
0.368846
0.359571
0.3596
0.376468
0.409814
0.454667
0.506094
0.5575
0.602187
0.634662
0.651529
0.651829
0.636847
0.609512
0.573569
0.532819
0.49032
0.448054
0.406938
0.367152
0.328544
0.290755
0.253361
0.21599
0.178466
0.140977
0.104261
0.0697266
0.0394459
0.0159573
0.00188179
0
0.0281387
0.0774174
0.163725
0.335493
0.617873
1.03759
1.57248
2.09581
2.37916
2.18379
1.30089
-0.215105
-2.06261
-3.7494
-4.77883
-4.86979
-4.08645
-2.79642
-1.47889
-0.497678
0.0284382
0.203865
0.28236
0.399918
0.518924
0.63658
0.750778
0.860034
0.963681
1.06185
1.15521
1.24456
1.33
1.41106
1.48676
1.5559
1.61791
1.67362
1.72561
1.77801
1.83552
1.90222
1.97989
2.06885
2.16666
2.26619
2.35946
2.44026
2.5061
2.55898
2.60455
2.65015
2.70242
2.76457
2.83532
2.91219
2.9918
3.06953
3.13984
3.19696
3.23576
3.25184
3.24185
3.2037
3.13674
3.04179
2.92107
2.77792
2.61678
2.44288
2.26084
2.07438
1.8869
1.70159
1.52123
1.34805
1.18348
1.02794
0.880684
0.739933
0.603143
0.467496
0.330462
0.19033
0.0465786
-0.0999445
-0.247085
-0.391628
-0.529691
-0.657189
-0.770333
-0.866086
-0.942443
-0.998453
-1.03449
-1.05232
-1.05447
-1.04376
-1.023
-0.994863
-0.961895
-0.926621
-0.892233
-0.862718
-0.842227
-0.834423
-0.841628
-0.86411
-0.899813
-0.944685
-0.993554
-1.04129
-1.08426
-1.121
-1.15088
-1.17438
-1.19262
-1.2069
-1.21831
-1.22758
-1.23515
-1.24145
-1.24709
-1.25315
-1.26109
-1.27235
-1.28789
-1.30772
-1.33064
-1.35435
-1.37588
-1.39219
-1.40103
-1.40106
-1.39188
-1.37396
-1.34822
-1.31568
-1.27713
-1.23305
-1.18366
-1.12912
-1.0697
-1.00582
-0.937853
-0.86602
-0.790235
-0.710066
-0.624615
-0.532099
-0.430662
-0.32357
-0.221808
-0.139608
-0.089783
-0.0788857
-0.104363
-0.154955
-0.214061
-0.264593
-0.295293
-0.306449
-0.301675
-0.283618
-0.254332
-0.216536
-0.173354
-0.12801
-0.0836206
-0.0428954
-0.0079761
0.0196334
0.0390661
0.0500398
0.052778
0.0479334
0.0365313
0.0199972
0
-0.0198221
-0.0348433
0.113946
0.581772
1.26693
1.91082
2.18494
1.82697
0.735285
-0.795526
-2.31901
-3.4009
-3.80115
-3.54453
-2.85659
-2.02198
-1.25559
-0.64984
-0.200054
0.127359
0.333851
0.495
0.635681
0.759858
0.866346
0.955958
1.03136
1.09648
1.15566
1.2126
1.26965
1.3274
1.38502
1.44095
1.49351
1.54159
1.58496
1.62432
1.66111
1.69717
1.73441
1.77454
1.81924
1.87001
1.92808
1.99432
2.06894
2.1513
2.23981
2.332
2.4247
2.51416
2.59646
2.66813
2.72663
2.77046
2.79928
2.81374
2.81525
2.80558
2.78639
2.75877
2.723
2.6783
2.62284
2.55388
2.46823
2.36287
2.23572
2.08618
1.91556
1.72704
1.52543
1.31643
1.10597
0.899418
0.701136
0.514269
0.34083
0.181943
0.0381163
-0.0905642
-0.204363
-0.303914
-0.390267
-0.464869
-0.529462
-0.585884
-0.635829
-0.680633
-0.721139
-0.757671
-0.790101
-0.818015
-0.840891
-0.858272
-0.869919
-0.875932
-0.876729
-0.873045
-0.866171
-0.857842
-0.849624
-0.842463
-0.836351
-0.830218
-0.822166
-0.810024
-0.791984
-0.766655
-0.734978
-0.701282
-0.672346
-0.655404
-0.656253
-0.677631
-0.718283
-0.77296
-0.833367
-0.889887
-0.933864
-0.961036
-0.971991
-0.968256
-0.951291
-0.925932
-0.899335
-0.878198
-0.867334
-0.868778
-0.881648
-0.902744
-0.927665
-0.952022
-0.972599
-0.988243
-0.998821
-1.00438
-1.00536
-1.00237
-0.99603
-0.986856
-0.975137
-0.960948
-0.944169
-0.924536
-0.901655
-0.875009
-0.843978
-0.807805
-0.76573
-0.717217
-0.662247
-0.601637
-0.537055
-0.471444
-0.409075
-0.354508
-0.311656
-0.282991
-0.269083
-0.268582
-0.278609
-0.295379
-0.314846
-0.333236
-0.347638
-0.355845
-0.355944
-0.346605
-0.327253
-0.298258
-0.261074
-0.218107
-0.172682
-0.128744
-0.0899851
-0.0591619
-0.037595
-0.0249517
-0.0193626
-0.0179525
-0.0172783
0
0.183688
0.575832
1.14879
1.79979
2.29532
2.33343
1.6852
0.345953
-1.38562
-3.03386
-4.15158
-4.50816
-4.14818
-3.30948
-2.28101
-1.2935
-0.485067
0.0808984
0.315728
0.374844
0.422852
0.465315
0.501886
0.531911
0.554783
0.570108
0.578368
0.581391
0.582379
0.585407
0.594537
0.612853
0.641168
0.678149
0.722006
0.770759
0.822322
0.874877
0.927127
0.978353
1.02831
1.07703
1.1246
1.17106
1.21641
1.26085
1.30498
1.35001
1.39782
1.45064
1.51062
1.57915
1.65635
1.74069
1.82901
1.91731
2.00125
2.07689
2.14126
2.1926
2.23028
2.25447
2.26564
2.26412
2.24969
2.22167
2.179
2.12057
2.0456
1.95409
1.84698
1.72615
1.5943
1.45459
1.31053
1.16549
1.02262
0.884981
0.755619
0.637163
0.531743
0.440757
0.364683
0.303027
0.254439
0.217005
0.188637
0.167467
0.152272
0.142628
0.138956
0.142347
0.154202
0.175728
0.207401
0.248508
0.297767
0.351626
0.404364
0.450233
0.484809
0.506007
0.514418
0.512885
0.505525
0.496561
0.489335
0.485476
0.485488
0.489351
0.496502
0.506017
0.516774
0.527517
0.537016
0.5442
0.548282
0.548817
0.545675
0.538944
0.528735
0.515331
0.499132
0.480795
0.461392
0.442469
0.425942
0.41378
0.407565
0.40799
0.415036
0.427169
0.440982
0.452048
0.456178
0.450453
0.433979
0.408179
0.37654
0.343894
0.315416
0.2955
0.28645
0.288668
0.30153
0.323864
0.353933
0.389439
0.427793
0.46586
0.500253
0.527901
0.546421
0.554413
0.551582
0.538602
0.51677
0.487562
0.452243
0.412029
0.367603
0.319319
0.267704
0.213622
0.158666
0.105831
0.0591034
0.0226492
0
-0.00786114
0.000533676
0.0237432
0.0591061
0.103536
0.154281
0.20893
0.26804
0.341825
0.560331
0.971222
1.58908
2.33463
2.98157
3.20152
2.7022
1.39342
-0.508937
-2.52617
-4.09468
-4.79942
-4.54419
-3.5702
-2.31735
-1.20878
-0.475996
-0.110517
0.0563023
0.233211
0.387418
0.529367
0.655699
0.763855
0.853667
0.927332
0.988779
1.04258
1.09237
1.14023
1.18548
1.22466
1.25335
1.26854
1.27056
1.26392
1.25666
1.25843
1.27796
1.31873
1.37878
1.45395
1.54041
1.63315
1.72731
1.81922
1.90699
1.99061
2.07157
2.15211
2.23452
2.32043
2.41045
2.50443
2.60151
2.70017
2.79795
2.89082
2.97402
3.04259
3.09198
3.11874
3.12085
3.09772
3.04987
2.97841
2.88478
2.77256
2.64532
2.506
2.35747
2.20312
2.04686
1.89272
1.74461
1.60594
1.47918
1.36574
1.26561
1.17681
1.09622
1.02028
0.945794
0.870799
0.795047
0.720201
0.649565
0.587424
0.537787
0.505664
0.497073
0.5165
0.560742
0.616032
0.665362
0.693588
0.691224
0.656752
0.596898
0.524734
0.455995
0.404603
0.375567
0.365074
0.367475
0.378699
0.39477
0.41176
0.426432
0.436656
0.441564
0.441456
0.437528
0.431507
0.425269
0.420484
0.418333
0.419394
0.423628
0.430318
0.437982
0.444513
0.447649
0.445439
0.436658
0.421065
0.399425
0.37329
0.344603
0.315258
0.286733
0.259896
0.235243
0.213068
0.193686
0.177649
0.165919
0.159974
0.161652
0.172836
0.195197
0.229822
0.276855
0.336033
0.405711
0.481918
0.558093
0.625398
0.674467
0.697189
0.687841
0.644441
0.569891
0.472507
0.36539
0.264397
0.184917
0.13544
0.130485
0.170262
0.235288
0.300501
0.343868
0.352728
0.3258
0.271171
0.202209
0.133569
0.0760912
0.0337246
0.00805378
0
0.00597038
0.0417812
0.133905
0.354583
0.663474
1.08634
1.64181
2.23968
2.65066
2.57883
1.8062
0.345451
-1.51183
-3.29341
-4.5382
-4.97909
-4.62197
-3.69642
-2.52644
-1.40112
-0.501693
0.105386
0.416039
0.437432
0.451355
0.463562
0.475071
0.486979
0.500311
0.515865
0.534091
0.555106
0.578719
0.604507
0.631911
0.660364
0.689433
0.718968
0.749251
0.781099
0.815859
0.855266
0.901175
0.955223
1.01849
1.09134
1.1733
1.26331
1.3601
1.46241
1.5691
1.67915
1.79144
1.90453
2.01642
2.12453
2.22574
2.31677
2.39478
2.45762
2.50402
2.53356
2.54645
2.54318
2.52407
2.48948
2.4396
2.37459
2.29475
2.20061
2.09299
1.97295
1.84166
1.70075
1.55188
1.39697
1.23859
1.07994
0.924792
0.777101
0.640522
0.517874
0.410991
0.32052
0.24482
0.180273
0.122553
0.0675114
0.0119728
-0.0457203
-0.105486
-0.165582
-0.222908
-0.272659
-0.309153
-0.327406
-0.323625
-0.296099
-0.245832
-0.176691
-0.0949268
-0.00816154
0.0758545
0.15121
0.213992
0.25933
0.284054
0.287292
0.269602
0.233114
0.181639
0.120494
0.0559029
-0.00593834
-0.0598396
-0.103226
-0.135602
-0.156547
-0.166383
-0.165878
-0.156411
-0.138695
-0.114241
-0.0862732
-0.0596561
-0.03983
-0.0317024
-0.0385117
-0.060947
-0.0968174
-0.141395
-0.188387
-0.231299
-0.265272
-0.288471
-0.300223
-0.301353
-0.295594
-0.286773
-0.277091
-0.265914
-0.249557
-0.222256
-0.178085
-0.113202
-0.0254036
0.0834518
0.198846
0.302965
0.379765
0.419111
0.418668
0.383375
0.323175
0.250074
0.175496
0.107458
0.0495209
0.00296593
-0.0318058
-0.0548141
-0.0664505
-0.0672859
-0.0584007
-0.0422436
-0.0231464
-0.00644035
0.00266075
0
-0.0172234
-0.0481617
-0.0899746
-0.137711
-0.185234
-0.226492
-0.257138
-0.274225
-0.271818
-0.233581
-0.102345
0.145119
0.538415
1.05495
1.52964
1.69483
1.25411
0.110891
-1.51312
-3.16729
-4.35636
-4.76227
-4.36914
-3.43287
-2.33093
-1.38742
-0.765067
-0.457788
-0.362788
-0.282972
-0.206635
-0.133363
-0.0638214
0.00180779
0.0639034
0.123369
0.181447
0.239429
0.29833
0.358608
0.42002
0.481669
0.542203
0.600063
0.653763
0.702251
0.745073
0.782447
0.815224
0.844741
0.872653
0.900754
0.930867
0.964815
1.0044
1.0515
1.10802
1.17568
1.25578
1.34879
1.45403
1.56938
1.69141
1.81563
1.93618
2.04636
2.14027
2.2133
2.26253
2.28682
2.28658
2.26331
2.21911
2.15621
2.07674
1.98333
1.87835
1.76362
1.6407
1.51115
1.37662
1.23891
1.10003
0.962211
0.82796
0.699891
0.580569
0.472749
0.378506
0.297829
0.229512
0.171601
0.122026
0.0791759
0.0422363
0.0111931
-0.0134144
-0.0311462
-0.0420116
-0.0457603
-0.0424679
-0.0325096
-0.016473
0.00491867
0.0308563
0.0604488
0.0926743
0.126392
0.160138
0.192154
0.220788
0.244851
0.263937
0.278537
0.28989
0.299558
0.308905
0.31866
0.328725
0.338467
0.347013
0.353607
0.357909
0.360161
0.361157
0.362045
0.36402
0.368003
0.374441
0.383271
0.393893
0.405421
0.41703
0.428281
0.43931
0.450829
0.463887
0.479499
0.49835
0.520523
0.544793
0.568932
0.590887
0.609896
0.627327
0.646865
0.673865
0.714013
0.771677
0.85038
0.951436
1.06701
1.18414
1.28841
1.3667
1.41035
1.41517
1.38142
1.31373
1.22092
1.11514
1.0096
0.915545
0.837741
0.773104
0.717046
0.666683
0.619019
0.571349
0.521699
0.469016
0.413153
0.354735
0.29503
0.23566
0.178528
0.125743
0.0794842
0.0418243
0.0146389
0
0.00464592
0.0412094
0.16369
0.449303
0.860498
1.31121
1.65747
1.74278
1.42608
0.526992
-0.76684
-2.17567
-3.35897
-4.04057
-4.10278
-3.60843
-2.7532
-1.78231
-0.910749
-0.271615
0.0990047
0.216543
0.289283
0.358289
0.425994
0.492902
0.559205
0.624772
0.689128
0.751475
0.810692
0.865592
0.915256
0.959244
0.997817
1.03202
1.06356
1.09449
1.1268
1.16197
1.20073
1.24327
1.28937
1.33882
1.39183
1.44916
1.51195
1.58128
1.65763
1.74044
1.82784
1.91716
2.0056
2.09065
2.17072
2.24539
2.31541
2.38228
2.44761
2.51261
2.57696
2.63717
2.68677
2.71777
2.72256
2.69584
2.63574
2.54424
2.42665
2.29062
2.14539
1.99938
1.85809
1.72482
1.60184
1.49025
1.38982
1.29859
1.21336
1.1305
1.04667
0.95956
0.868313
0.773642
0.677614
0.58319
0.493536
0.411954
0.341644
0.285298
0.244351
0.219461
0.210529
0.216731
0.236575
0.268019
0.30865
0.355896
0.407204
0.460087
0.512432
0.562326
0.608011
0.647999
0.681162
0.706844
0.724907
0.735667
0.739743
0.737847
0.730608
0.718591
0.702312
0.682383
0.659816
0.636164
0.613843
0.595796
0.584844
0.582991
0.590823
0.60722
0.629488
0.653891
0.676404
0.693484
0.702595
0.702411
0.692787
0.674548
0.649382
0.619558
0.587336
0.555079
0.525228
0.500136
0.481818
0.471702
0.47059
0.478516
0.494565
0.51655
0.540793
0.56253
0.577191
0.581501
0.574452
0.557935
0.536831
0.518449
0.511499
0.541068
0.657081
0.854058
1.06955
1.23078
1.28615
1.22358
1.07013
0.876644
0.696745
0.569048
0.486681
0.429354
0.387075
0.356171
0.335282
0.32369
0.320746
0.325919
0.338044
0.353625
0.367004
0.371894
0.362675
0.335702
0.290183
0.228358
0.154974
0.076297
0
0.00638504
0.293586
0.854046
1.588
2.22812
2.42231
1.85734
0.507529
-1.33245
-3.1413
-4.38836
-4.75768
-4.2633
-3.20632
-2.0097
-1.02779
-0.426223
-0.175691
-0.136674
-0.0939037
-0.0500237
-0.00551071
0.0395042
0.0848568
0.130444
0.176371
0.223043
0.271144
0.321485
0.374744
0.43118
0.490448
0.551558
0.612714
0.67185
0.727255
0.778085
0.82464
0.868293
0.911115
0.955333
1.00283
1.05467
1.11119
1.1724
1.23811
1.30794
1.38138
1.45767
1.53572
1.61409
1.69096
1.76435
1.83229
1.89295
1.94458
1.9857
2.01546
2.03342
2.03941
2.03354
2.01612
1.98756
1.94822
1.89823
1.83744
1.76583
1.68339
1.59006
1.48613
1.37258
1.25112
1.12418
0.99469
0.86591
0.741111
0.623315
0.514995
0.417834
0.332537
0.258719
0.195004
0.139251
0.0889271
0.0415577
-0.00481567
-0.0512428
-0.0976105
-0.142377
-0.182578
-0.214421
-0.233955
-0.237904
-0.224462
-0.193892
-0.147738
-0.0890854
-0.0267956
0.0297035
0.0726387
0.0977474
0.105153
0.098983
0.0859077
0.0731659
0.0667152
0.068404
0.0778217
0.094149
0.115959
0.140761
0.165008
0.184827
0.19675
0.198325
0.188628
0.168535
0.140601
0.108565
0.0765285
0.0480305
0.0250637
0.00842857
-0.00244217
-0.0090477
-0.0132404
-0.0166737
-0.0204563
-0.0250725
-0.0305359
-0.0366425
-0.0431812
-0.0500477
-0.0572197
-0.0646359
-0.0720722
-0.0790588
-0.0848682
-0.0885914
-0.0893028
-0.0860928
-0.0782291
-0.0652218
-0.0467918
-0.0227722
0.00711823
0.0434242
0.0870453
0.139458
0.203562
0.285142
0.392512
0.524339
0.657993
0.763838
0.814478
0.79418
0.704919
0.566533
0.410753
0.271301
0.171378
0.105725
0.062355
0.0343292
0.0181763
0.0107044
0.00847778
0.00808029
0.00621986
0
-0.00760918
-0.023439
-0.0481617
-0.0814995
-0.12226
-0.168491
-0.217749
-0.267408
-0.314788
-0.353339
-0.317984
-0.0380394
0.499939
1.25735
2.05261
2.57879
2.51381
1.67714
0.143389
-1.74126
-3.48252
-4.6273
-4.93666
-4.45959
-3.4808
-2.37863
-1.46565
-0.884446
-0.596157
-0.449886
-0.325672
-0.214631
-0.112837
-0.0215416
0.0593033
0.131456
0.197954
0.262363
0.327936
0.396881
0.46965
0.545512
0.62262
0.697887
0.767206
0.826662
0.873404
0.906268
0.926309
0.937001
0.943943
0.953995
0.973972
1.00916
1.06096
1.12715
1.2043
1.28868
1.3755
1.46037
1.5403
1.61419
1.68286
1.74863
1.81438
1.88287
1.95614
2.03339
2.10935
2.17588
2.22431
2.24746
2.24125
2.20527
2.14257
2.05882
1.96094
1.85614
1.74961
1.6438
1.53918
1.43503
1.32987
1.22191
1.10956
0.991912
0.869141
0.742651
0.615023
0.489751
0.371136
0.263448
0.170319
0.0943972
0.0371254
-0.00127068
-0.0216114
-0.0254911
-0.0149939
0.00752239
0.0392427
0.0776127
0.120037
0.163806
0.206225
0.24475
0.277224
0.302159
0.318882
0.327626
0.329525
0.326485
0.320945
0.315538
0.312718
0.314376
0.321482
0.33412
0.351792
0.373472
0.397637
0.422516
0.446515
0.468402
0.487352
0.502827
0.514364
0.521282
0.522685
0.517641
0.505481
0.486256
0.461105
0.432333
0.403115
0.376867
0.356456
0.343564
0.33869
0.340254
0.345617
0.35192
0.356855
0.359118
0.358424
0.355157
0.349867
0.342878
0.334151
0.323256
0.309634
0.292932
0.27328
0.251495
0.229139
0.208895
0.194548
0.189896
0.198097
0.220874
0.257984
0.307184
0.364787
0.426639
0.489187
0.550293
0.60942
0.666514
0.721355
0.773016
0.819386
0.85719
0.882942
0.894196
0.890534
0.873909
0.848172
0.817937
0.787174
0.757817
0.729598
0.700872
0.669049
0.631427
0.5861
0.532646
0.472376
0.408061
0.34323
0.281291
0.224453
0.173796
0.129455
0.0907774
0.0567572
0.0264484
0
-0.0118156
0.0912403
0.469121
1.08833
1.85147
2.57166
3.00987
2.93468
2.19839
0.811164
-1.0058
-2.85052
-4.26252
-4.89922
-4.67358
-3.77495
-2.5631
-1.40626
-0.552377
-0.0815175
0.0658875
0.143486
0.251778
0.364879
0.479175
0.590687
0.695059
0.788412
0.868092
0.933101
0.9841
1.02302
1.05248
1.07523
1.09414
1.11151
1.12962
1.15089
1.17784
1.21286
1.25785
1.31373
1.37992
1.45494
1.53649
1.6218
1.70843
1.79478
1.88031
1.96546
2.05123
2.13867
2.22845
2.32046
2.41391
2.50734
2.59845
2.68354
2.75676
2.81149
2.84131
2.84072
2.8068
2.7406
2.64775
2.53761
2.42144
2.30972
2.2084
2.11805
2.03854
1.96861
1.90576
1.84675
1.78822
1.72716
1.66143
1.59005
1.51341
1.43327
1.35242
1.27431
1.20239
1.13957
1.08784
1.04808
1.02015
1.00318
0.995915
0.996978
1.00511
1.01923
1.03842
1.06184
1.08866
1.11798
1.14874
1.17967
1.2091
1.23518
1.25605
1.27016
1.27652
1.27499
1.26636
1.25229
1.23508
1.21726
1.20116
1.18845
1.17998
1.17579
1.17496
1.17561
1.17501
1.17003
1.15785
1.13656
1.10574
1.06668
1.0223
0.976654
0.934098
0.898366
0.871962
0.856535
0.850837
0.850989
0.852494
0.851604
0.846287
0.836438
0.823338
0.80864
0.79337
0.777455
0.760019
0.739997
0.716925
0.691495
0.665679
0.642302
0.62424
0.613332
0.61057
0.615052
0.624332
0.635446
0.645789
0.653649
0.658188
0.658928
0.65505
0.644688
0.625303
0.594294
0.550197
0.493817
0.428765
0.361065
0.297881
0.24577
0.207591
0.184262
0.174429
0.174675
0.180465
0.187198
0.19107
0.189585
0.181669
0.167474
0.148096
0.125161
0.100299
0.0750607
0.0509182
0.0292417
0.0113646
0
0.00504954
0.0999151
0.441114
0.949317
1.48399
1.87346
1.94482
1.59438
0.636989
-0.778732
-2.35947
-3.68529
-4.37936
-4.28528
-3.53696
-2.47207
-1.45003
-0.696708
-0.260211
-0.0841031
-0.0784263
-0.0648029
-0.0446241
-0.0154822
0.024955
0.0775836
0.141373
0.213843
0.291582
0.369781
0.443512
0.508952
0.564103
0.609061
0.64575
0.677233
0.706807
0.737188
0.769962
0.805489
0.843604
0.884012
0.92659
0.971561
1.01943
1.07076
1.12585
1.18457
1.24635
1.31034
1.37564
1.44154
1.50756
1.57331
1.6382
1.70095
1.75978
1.81254
1.8573
1.89281
1.9187
1.93511
1.94205
1.93861
1.92286
1.89192
1.8426
1.77237
1.68026
1.56742
1.43723
1.29503
1.14801
1.00249
0.863854
0.73681
0.624863
0.529957
0.452376
0.390836
0.342862
0.305202
0.27405
0.245733
0.217358
0.187236
0.15504
0.121949
0.0905913
0.0643456
0.0465576
0.0397903
0.0452782
0.0627059
0.0903419
0.12546
0.164912
0.205668
0.245421
0.282744
0.316848
0.347477
0.374719
0.398765
0.41963
0.43687
0.449693
0.457367
0.459383
0.455872
0.447874
0.437288
0.42648
0.417647
0.412276
0.410633
0.411768
0.413975
0.415364
0.414339
0.409749
0.400785
0.386756
0.367032
0.341245
0.309717
0.273867
0.236337
0.200661
0.17054
0.148948
0.136592
0.133362
0.137894
0.148027
0.161433
0.17612
0.190851
0.205019
0.218393
0.230738
0.241528
0.249992
0.255284
0.256976
0.255549
0.252612
0.25074
0.252979
0.262238
0.280739
0.309013
0.347537
0.396922
0.457549
0.531292
0.623617
0.733639
0.844735
0.934604
0.983031
0.980154
0.930326
0.849052
0.754647
0.659508
0.565952
0.471535
0.374903
0.27521
0.177169
0.0907883
0.0276877
-0.00338459
0
0.0330369
0.0861003
0.148279
0.211259
0.272029
0.33122
0.390142
0.450668
0.515199
0.588446
0.687563
0.870314
1.17165
1.54323
1.85694
2.01567
1.55337
0.467491
-1.0071
-2.47963
-3.54687
-3.96657
-3.74215
-3.08047
-2.26219
-1.51048
-0.925359
-0.496915
-0.171525
0.0455984
0.21335
0.360266
0.491744
0.608262
0.709601
0.796233
0.868908
0.929185
0.978887
1.02002
1.05477
1.08555
1.11497
1.14566
1.18014
1.22055
1.26825
1.32392
1.38761
1.45868
1.53601
1.61815
1.70363
1.79109
1.87943
1.96789
2.05598
2.14353
2.23062
2.31752
2.40468
2.49256
2.58137
2.67089
2.75968
2.84372
2.91711
2.97321
3.00649
3.01406
2.99628
2.95607
2.89726
2.82294
2.73514
2.63619
2.52722
2.4081
2.27907
2.14103
1.9955
1.84446
1.69024
1.5352
1.38191
1.2331
1.09167
0.960435
0.841948
0.738553
0.651607
0.580765
0.524792
0.482012
0.45077
0.429701
0.417705
0.414128
0.41827
0.427351
0.437217
0.443562
0.443205
0.435255
0.421658
0.406853
0.39659
0.396282
0.408333
0.431841
0.46519
0.50559
0.548431
0.589083
0.623958
0.651247
0.671107
0.685294
0.69637
0.706751
0.717863
0.72967
0.740916
0.749145
0.750963
0.743069
0.722843
0.688975
0.641871
0.583711
0.518109
0.449437
0.381987
0.319182
0.262652
0.213341
0.171607
0.137536
0.1113
0.0933311
0.0842389
0.0845241
0.0939937
0.111989
0.137097
0.166464
0.195816
0.220507
0.236415
0.240674
0.232149
0.21158
0.181391
0.14526
0.107566
0.0727324
0.0443419
0.0255215
0.0188852
0.0263005
0.0488323
0.0867282
0.13943
0.205583
0.28476
0.376505
0.475683
0.569657
0.643751
0.684842
0.685516
0.647091
0.579757
0.499235
0.421172
0.355712
0.301494
0.253574
0.208838
0.165216
0.121943
0.0802885
0.0435446
0.0158926
0.000859737
0
0.0134467
0.0367991
0.0656049
0.0955562
0.123779
0.149457
0.172811
0.194891
0.217343
0.244713
0.317414
0.593933
1.10738
1.76923
2.34246
2.52227
2.00978
0.753139
-0.994409
-2.7488
-3.98213
-4.35444
-3.86081
-2.80917
-1.64498
-0.731398
-0.214228
-0.0319456
-0.00549173
0.0543526
0.120276
0.190464
0.264307
0.340522
0.417218
0.492291
0.563956
0.631166
0.693837
0.752788
0.80944
0.865343
0.921705
0.979054
1.03719
1.09526
1.15209
1.2067
1.25864
1.30809
1.35579
1.40283
1.45037
1.4995
1.5512
1.60644
1.6663
1.73183
1.80389
1.88273
1.96763
2.05669
2.14677
2.23291
2.30959
2.37183
2.41616
2.44124
2.44784
2.43839
2.41602
2.38357
2.34269
2.29413
2.23748
2.17144
2.09428
2.00472
1.90234
1.78785
1.66307
1.53078
1.39433
1.25727
1.12302
0.994578
0.874406
0.764372
0.665812
0.579633
0.50643
0.446555
0.400136
0.367007
0.34662
0.338024
0.33974
0.349235
0.362311
0.373609
0.377926
0.371246
0.35175
0.320534
0.281806
0.242418
0.210744
0.195026
0.201621
0.23364
0.289997
0.368496
0.458999
0.548188
0.623736
0.677134
0.705303
0.710611
0.699442
0.679948
0.659761
0.643693
0.633188
0.628122
0.627526
0.629686
0.632264
0.632619
0.628352
0.61773
0.600036
0.575773
0.546664
0.515403
0.4852
0.459211
0.439823
0.428559
0.425805
0.430876
0.442253
0.457915
0.475653
0.493309
0.508924
0.520643
0.526931
0.526609
0.519012
0.504211
0.483201
0.458
0.431498
0.407638
0.390633
0.38416
0.390673
0.410961
0.444083
0.487747
0.539031
0.595231
0.654546
0.716155
0.780247
0.847798
0.919427
0.99183
1.05591
1.09967
1.11222
1.08822
1.03061
0.950508
0.864137
0.78799
0.732833
0.697265
0.676138
0.666251
0.66418
0.665879
0.667189
0.664083
0.65318
0.631978
0.599038
0.554103
0.498098
0.432972
0.361374
0.286207
0.210173
0.135319
0.0632876
0
0.0412458
0.357219
1.02472
1.95737
2.85646
3.31372
3.00013
1.83525
0.047057
-1.90592
-3.50578
-4.35947
-4.32744
-3.55348
-2.39008
-1.24878
-0.43823
-0.0614174
-0.017057
0.0732469
0.17393
0.276435
0.378048
0.475104
0.563972
0.64204
0.70847
0.764448
0.812853
0.857451
0.901884
0.94874
0.998877
1.05182
1.10629
1.16056
1.21293
1.26219
1.30803
1.35108
1.39287
1.43556
1.4815
1.53274
1.5906
1.65535
1.72609
1.80098
1.8777
1.95381
2.02721
2.09641
2.16063
2.21961
2.27318
2.32105
2.36257
2.39681
2.4226
2.43876
2.44445
2.43927
2.42316
2.39609
2.3577
2.30704
2.2433
2.16587
2.07406
1.96777
1.84802
1.71711
1.57841
1.43602
1.29427
1.15718
1.02821
0.909944
0.803983
0.710971
0.63064
0.562004
0.503701
0.454396
0.413208
0.379684
0.353764
0.335783
0.326208
0.325307
0.332892
0.348191
0.369849
0.396022
0.424473
0.452673
0.477855
0.496783
0.506435
0.504251
0.488644
0.45951
0.418554
0.369247
0.316384
0.265278
0.220825
0.186194
0.163258
0.152185
0.151669
0.159377
0.172461
0.187914
0.203125
0.215842
0.224121
0.226255
0.220789
0.20663
0.183096
0.150013
0.107757
0.0572017
-0.000436156
-0.063811
-0.131632
-0.202699
-0.275883
-0.34993
-0.422777
-0.491012
-0.550464
-0.596801
-0.626482
-0.637576
-0.630129
-0.605995
-0.568268
-0.520644
-0.467448
-0.412364
-0.358308
-0.308016
-0.263896
-0.227799
-0.200773
-0.182869
-0.173109
-0.169614
-0.169878
-0.171102
-0.170532
-0.165758
-0.154699
-0.135527
-0.10662
-0.0665982
-0.014027
0.0537425
0.141774
0.254066
0.380559
0.498667
0.583525
0.615863
0.58885
0.510739
0.401898
0.287338
0.188014
0.110441
0.0485523
-0.00314206
-0.0474251
-0.0854431
-0.117696
-0.144046
-0.163743
-0.175661
-0.178701
-0.172124
-0.155723
-0.129782
-0.0948592
-0.0514837
0
0.0643529
0.142897
0.258298
0.47014
0.75805
1.05914
1.29815
1.45295
0.840629
-0.365193
-1.96164
-3.56893
-4.76498
-5.24815
-4.95371
-4.06513
-2.91415
-1.82675
-1.00106
-0.478548
-0.206471
-0.182501
-0.180755
-0.18144
-0.182099
-0.18074
-0.175387
-0.164219
-0.145591
-0.118015
-0.0804236
-0.0324878
0.0250356
0.0910302
0.161834
0.231993
0.296017
0.349743
0.391404
0.422059
0.445226
0.465919
0.489431
0.51976
0.558855
0.607641
0.66641
0.734715
0.811468
0.895109
0.983753
1.07532
1.16765
1.25862
1.34614
1.42812
1.50216
1.56555
1.61576
1.65041
1.66719
1.66424
1.64041
1.5955
1.53033
1.44665
1.34694
1.23461
1.11312
0.985411
0.853895
0.720596
0.587227
0.455155
0.325385
0.198535
0.0748213
-0.0459234
-0.164171
-0.280531
-0.395503
-0.509156
-0.620686
-0.727607
-0.825502
-0.90924
-0.973658
-1.01493
-1.03168
-1.02536
-0.999953
-0.960903
-0.913889
-0.863922
-0.814236
-0.76646
-0.721438
-0.679642
-0.641349
-0.606751
-0.576014
-0.549233
-0.52637
-0.507205
-0.491343
-0.478281
-0.467533
-0.458762
-0.451923
-0.447157
-0.444732
-0.444829
-0.447333
-0.451697
-0.456955
-0.461901
-0.465369
-0.466535
-0.465155
-0.461484
-0.456294
-0.450595
-0.445385
-0.441488
-0.439543
-0.440115
-0.443906
-0.451917
-0.46514
-0.484332
-0.509502
-0.539426
-0.571448
-0.601311
-0.623876
-0.634279
-0.62911
-0.607338
-0.570328
-0.521435
-0.467297
-0.414715
-0.368897
-0.332173
-0.30356
-0.279296
-0.254146
-0.223101
-0.183025
-0.134302
-0.0789133
-0.0206053
0.0353469
0.083359
0.118753
0.1385
0.141556
0.128767
0.102418
0.0655677
0.021359
-0.02752
-0.078945
-0.131539
-0.184442
-0.236919
-0.288085
-0.336771
-0.381471
-0.420342
-0.451218
-0.471869
-0.480272
-0.474758
-0.454074
-0.41471
-0.348201
-0.230733
0
0.332821
0.743718
1.22188
1.69496
1.99536
1.90859
1.22506
-0.0693331
-1.75292
-3.39869
-4.52708
-4.81294
-4.23642
-3.086
-1.80437
-0.766922
-0.126469
0.189071
0.312159
0.402676
0.485917
0.56153
0.628892
0.688206
0.740756
0.788631
0.834446
0.880935
0.930508
0.984833
1.04461
1.10986
1.17917
1.2507
1.32278
1.39434
1.46509
1.53529
1.60533
1.67531
1.74484
1.81322
1.87975
1.94405
2.00639
2.06776
2.12973
2.19411
2.26249
2.3359
2.41458
2.49794
2.58463
2.67284
2.76064
2.8463
2.92856
3.00658
3.07969
3.14659
3.20426
3.24708
3.26861
3.26128
3.21853
3.13708
3.01862
2.87004
2.70204
2.52653
2.35374
2.18837
2.03199
1.8855
1.74876
1.62125
1.50256
1.39271
1.29216
1.20159
1.12184
1.05367
0.997975
0.955692
0.927553
0.913975
0.914956
0.929741
0.957288
0.995796
1.04023
1.08409
1.12148
1.14852
1.16435
1.17131
1.17429
1.17932
1.19208
1.21545
1.24935
1.2927
1.34407
1.40035
1.45682
1.50817
1.5494
1.57646
1.58681
1.57971
1.55647
1.52039
1.47656
1.43142
1.39175
1.36398
1.35322
1.36242
1.39359
1.44613
1.51202
1.58101
1.64277
1.68899
1.71458
1.71817
1.70174
1.66989
1.62904
1.58651
1.54868
1.52095
1.50735
1.50985
1.52874
1.564
1.61419
1.67661
1.74785
1.82369
1.89958
1.97183
2.03827
2.09863
2.15448
2.20873
2.26476
2.32545
2.39249
2.46625
2.54328
2.61673
2.67867
2.72208
2.7423
2.73779
2.71008
2.66306
2.60205
2.53311
2.46223
2.39403
2.33204
2.27951
2.23917
2.21291
2.20159
2.20491
122
311
504
690
875
1052
1235
1413
1588
1764
1937
2116
2297
2485
2665
2849
3035
3221
3410
3587
3740
3706
3560
3712
0
0
0
0
0
0
0
0
0
0
0
0
0
0
0
0
0
0
0
0
0
0
0
0
0
0
0
0
0
0
0
0
0
0
0
0
0
0
0
0
0
0
0
0
0
0
0
0
0
0
0
0
0
0
0
0
0
0
0
0
0
0
0
0
0
0
0
0
0
0
0
0
0
0
0
0
0
0
0
0
0
0
0
0
0
0
0
0
0
0
0
0
0
0
0
0
0
0
0
0
0
0
0
0
0
0
0
0
0
0
0
0
0
0
0
0
0
0
0
0
0
0
0
0
0
0
0
0
0
0
0
0
0
0
0
0
0
0
0
0
0
0
0
0
0
0
0
0
0
0
0
0
0
0
0
0
0
0
0
0
0
0
0
0
0
0
0
0
0
0
0
0
0
0
0
0
0
0
0
0
0
0
0
0
0
0
0
0
0
0
0
0
0
0
0
0
0
0
0
0
0
0
0
0
0
0
0
0
0
0
0
0
0
0
0
0
0
0
0
0
0
0
0
0
0
0
0
0
0
0
0
0
0
0
0
0
0
0
0
0
0
0
0
0
0
0
0
0
0
0
0
0
0
0
0
0
0
0
0
0
0
0
0
0
0
0
0
0
0
0
0
0
0
0
0
0
0
0
0
0
0
0
0
0
0
0
0
0
0
0
0
0
0
0
0
0
0
0
0
0
0
0
0
0
0
0
0
0
0
0
0
0
0
0
0
0
0
0
0
0
0
0
0
0
0
0
0
0
0
0
0
0
0
0
0
0
0
0
0
0
0
0
0
0
0
0
0
0
0
0
0
0
0
0
0
0
0
0
0
0
0
0
0
0
0
0
0
0
0
0
0
0
0
0
0
0
0
0
0
0
0
0
0
0
0
0
0
0
0
0
0
0
0
0
0
0
0
0
0
0
0
0
0
0
0
0
0
0
0
0
0
0
0
0
0
0
0
0
0
0
0
0
0
0
0
0
0
0
0
0
0
0
0
0
0
0
0
0
0
0
0
0
0
0
0
0
0
0
0
0
0
0
0
0
0
0
0
0
0
0
0
0
0
0
0
0
0
0
0
0
0
0
0
0
0
0
0
0
0
0
0
0
0
0
0
0
0
0
0
0
0
0
0
0
0
0
0
0
0
0
0
0
0
0
0
0
0
0
0
0
0
0
0
0
0
0
0
0
0
0
0
0
0
0
0
0
0
0
0
0
0
0
0
0
0
0
0
0
0
0
0
0
0
0
0
0
0
0
0
0
0
0
0
0
0
0
0
0
0
0
0
0
0
0
0
0
0
0
0
0
0
0
0
0
0
0
0
0
0
0
0
0
0
0
0
0
0
0
0
0
0
0
0
0
0
0
0
0
0
0
0
0
0
0
0
0
0
0
0
0
0
0
0
0
0
0
0
0
0
0
0
0
0
0
0
0
0
0
0
0
0
0
0
0
0
0
0
0
0
0
0
0
0
0
0
0
0
0
0
0
0
0
0
0
0
0
0
0
0
0
0
0
0
0
0
0
0
0
0
0
0
0
0
0
0
0
0
0
0
0
0
0
0
0
0
0
0
0
0
0
0
0
0
0
0
0
0
0
0
0
0
0
0
0
0
0
0
0
0
0
0
0
0
0
0
0
0
0
0
0
0
0
0
0
0
0
0
0
0
0
0
0
0
0
0
0
0
0
0
0
0
0
0
0
0
0
0
0
0
0
0
0
0
0
0
0
0
0
0
0
0
0
0
0
0
0
0
0
0
0
0
0
0
0
0
0
0
0
0
0
0
0
0
0
0
0
0
0
0
0
0
0
0
0
0
0
0
0
0
0
0
0
0
0
0
0
0
0
0
0
0
0
0
0
0
0
0
0
0
0
0
0
0
0
0
0
0
0
0
0
0
0
0
0
0
0
0
0
0
0
0
0
0
0
0
0
0
0
0
0
0
0
0
0
0
0
0
0
0
0
0
0
0
0
0
0
0
0
0
0
0
0
0
0
0
0
0
0
0
0
0
0
0
0
0
0
0
0
0
0
0
0
0
0
0
0
0
0
0
0
0
0
0
0
0
0
0
0
0
0
0
0
0
0
0
0
0
0
0
0
0
0
0
0
0
0
0
0
0
0
0
0
0
0
0
0
0
0
0
0
0
0
0
0
0
0
0
0
0
0
0
0
0
0
0
0
0
0
0
0
0
0
0
0
0
0
0
0
0
0
0
0
0
0
0
0
0
0
0
0
0
0
0
0
0
0
0
0
0
0
0
0
0
0
0
0
0
0
0
0
0
0
0
0
0
0
0
0
0
0
0
0
0
0
0
0
0
0
0
0
0
0
0
0
0
0
0
0
0
0
0
0
0
0
0
0
0
0
0
0
0
0
0
0
0
0
0
0
0
0
0
0
0
0
0
0
0
0
0
0
0
0
0
0
0
0
0
0
0
0
0
0
0
0
0
0
0
0
0
0
0
0
0
0
0
0
0
0
0
0
0
0
0
0
0
0
0
0
0
0
0
0
0
0
0
0
0
0
0
0
0
0
0
0
0
0
0
0
0
0
0
0
0
0
0
0
0
0
0
0
0
0
0
0
0
0
0
0
0
0
0
0
0
0
0
0
0
0
0
0
0
0
0
0
0
0
0
0
0
0
0
0
0
0
0
0
0
0
0
0
0
0
0
0
0
0
0
0
0
0
0
0
0
0
0
0
0
0
0
0
0
0
0
0
0
0
0
0
0
0
0
0
0
0
0
0
0
0
0
0
0
0
0
0
0
0
0
0
0
0
0
0
0
0
0
0
0
0
0
0
0
0
0
0
0
0
0
0
0
0
0
0
0
0
0
0
0
0
0
0
0
0
0
0
0
0
0
0
0
0
0
0
0
0
0
0
0
0
0
0
0
0
0
0
0
0
0
0
0
0
0
0
0
0
0
0
0
0
0
0
0
0
0
0
0
0
0
0
0
0
0
0
0
0
0
0
0
0
0
0
0
0
0
0
0
0
0
0
0
0
0
0
0
0
0
0
0
0
0
0
0
0
0
0
0
0
0
0
0
0
0
0
0
0
0
0
0
0
0
0
0
0
0
0
0
0
0
0
0
0
0
0
0
0
0
0
0
0
0
0
0
0
0
0
0
0
0
0
0
0
0
0
0
0
0
0
0
0
0
0
0
0
0
0
0
0
0
0
0
0
0
0
0
0
0
0
0
0
0
0
0
0
0
0
0
0
0
0
0
0
0
0
0
0
0
0
0
0
0
0
0
0
0
0
0
0
0
0
0
0
0
0
0
0
0
0
0
0
0
0
0
0
0
0
0
0
0
0
0
0
0
0
0
0
0
0
0
0
0
0
0
0
0
0
0
0
0
0
0
0
0
0
0
0
0
0
0
0
0
0
0
0
0
0
0
0
0
0
0
0
0
0
0
0
0
0
0
0
0
0
0
0
0
0
0
0
0
0
0
0
0
0
0
0
0
0
0
0
0
0
0
0
0
0
0
0
0
0
0
0
0
0
0
0
0
0
0
0
0
0
0
0
0
0
0
0
0
0
0
0
0
0
0
0
0
0
0
0
0
0
0
0
0
0
0
0
0
0
0
0
0
0
0
0
0
0
0
0
0
0
0
0
0
0
0
0
0
0
0
0
0
0
0
0
0
0
0
0
0
0
0
0
0
0
0
0
0
0
0
0
0
0
0
0
0
0
0
0
0
0
0
0
0
0
0
0
0
0
0
0
0
0
0
0
0
0
0
0
0
0
0
0
0
0
0
0
0
0
0
0
0
0
0
0
0
0
0
0
0
0
0
0
0
0
0
0
0
0
0
0
0
0
0
0
0
0
0
0
0
0
0
0
0
0
0
0
0
0
0
0
0
0
0
0
0
0
0
0
0
0
0
0
0
0
0
0
0
0
0
0
0
0
0
0
0
0
0
0
0
0
0
0
0
0
0
0
0
0
0
0
0
0
0
0
0
0
0
0
0
0
0
0
0
0
0
0
0
0
0
0
0
0
0
0
0
0
0
0
0
0
0
0
0
0
0
0
0
0
0
0
0
0
0
0
0
0
0
0
0
0
0
0
0
0
0
0
0
0
0
0
0
0
0
0
0
0
0
0
0
0
0
0
0
0
0
0
0
0
0
0
0
0
0
0
0
0
0
0
0
0
0
0
0
0
0
0
0
0
0
0
0
0
0
0
0
0
0
0
0
0
0
0
0
0
0
0
0
0
0
0
0
0
0
0
0
0
0
0
0
0
0
0
0
0
0
0
0
0
0
0
0
0
0
0
0
0
0
0
0
0
0
0
0
0
0
0
0
0
0
0
0
0
0
0
0
0
0
0
0
0
0
0
0
0
0
0
0
0
0
0
0
0
0
0
0
0
0
0
0
0
0
0
0
0
0
0
0
0
0
0
0
0
0
0
0
0
0
0
0
0
0
0
0
0
0
0
0
0
0
0
0
0
0
0
0
0
0
0
0
0
0
0
0
0
0
0
0
0
0
0
0
0
0
0
0
0
0
0
0
0
0
0
0
0
0
0
0
0
0
0
0
0
0
0
0
0
0
0
0
0
0
0
0
0
0
0
0
0
0
0
0
0
0
0
0
0
0
0
0
0
0
0
0
0
0
0
0
0
0
0
0
0
0
0
0
0
0
0
0
0
0
0
0
0
0
0
0
0
0
0
0
0
0
0
0
0
0
0
0
0
0
0
0
0
0
0
0
0
0
0
0
0
0
0
0
0
0
0
0
0
0
0
0
0
0
0
0
0
0
0
0
0
0
0
0
0
0
0
0
0
0
0
0
0
0
0
0
0
0
0
0
0
0
0
0
0
0
0
0
0
0
0
0
0
0
0
0
0
0
0
0
0
0
0
0
0
0
0
0
0
0
0
0
0
0
0
0
0
0
0
0
0
0
0
0
0
0
0
0
0
0
0
0
0
0
0
0
0
0
0
0
0
0
0
0
0
0
0
0
0
0
0
0
0
0
0
0
0
0
0
0
0
0
0
0
0
0
0
0
0
0
0
0
0
0
0
0
0
0
0
0
0
0
0
0
0
0
0
0
0
0
0
0
0
0
0
0
0
0
0
0
0
0
0
0
0
0
0
0
0
0
0
0
0
0
0
0
0
0
0
0
0
0
0
0
0
0
0
0
0
0
0
0
0
0
0
0
0
0
0
0
0
0
0
0
0
0
0
0
0
0
0
0
0
0
0
0
0
0
0
0
0
0
0
0
0
0
0
0
0
0
0
0
0
0
0
0
0
0
0
0
0
0
0
0
0
0
0
0
0
0
0
0
0
0
0
0
0
0
0
0
0
0
0
0
0
0
0
0
0
0
0
0
0
0
0
0
0
0
0
0
0
0
0
0
0
0
0
0
0
0
0
0
0
0
0
0
0
0
0
0
0
0
0
0
0
0
0
0
0
0
0
0
0
0
0
0
0
0
0
0
0
0
0
0
0
0
0
0
0
0
0
0
0
0
0
0
0
0
0
0
0
0
0
0
0
0
0
0
0
0
0
0
0
0
0
0
0
0
0
0
0
0
0
0
0
0
0
0
0
0
0
0
0
0
0
0
0
0
0
0
0
0
0
0
0
0
0
0
0
0
0
0
0
0
0
0
0
0
0
0
0
0
0
0
0
0
0
0
0
0
0
0
0
0
0
0
0
0
0
0
0
0
0
0
0
0
0
0
0
0
0
0
0
0
0
0
0
0
0
0
0
0
0
0
0
0
0
0
0
0
0
0
0
0
0
0
0
0
0
0
0
0
0
0
0
0
0
0
0
0
0
0
0
0
0
0
0
0
0
0
0
0
0
0
0
0
0
0
0
0
0
0
0
0
0
0
0
0
0
0
0
0
0
0
0
0
0
0
0
0
0
0
0
0
0
0
0
0
0
0
0
0
0
0
0
0
0
0
0
0
0
0
0
0
0
0
0
0
0
0
0
0
0
0
0
0
0
0
0
0
0
0
0
0
0
0
0
0
0
0
0
0
0
0
0
0
0
0
0
0
0
0
0
0
0
0
0
0
0
0
0
0
0
0
0
0
0
0
0
0
0
0
0
0
0
0
0
0
0
0
0
0
0
0
0
0
0
0
0
0
0
0
0
0
0
0
0
0
0
0
0
0
0
0
0
0
0
0
0
0
0
0
0
0
0
0
0
0
0
0
0
0
0
0
0
0
0
0
0
0
0
0
0
0
0
0
0
0
0
0
0
0
0
0
0
0
0
0
0
0
0
0
0
0
0
0
0
0
0
0
0
0
0
0
0
0
0
0
0
0
0
0
0
0
0
0
0
0
0
0
0
0
0
0
0
0
0
0
0
0
0
0
0
0
0
0
0
0
0
0
0
0
0
0
0
0
0
0
0
0
0
0
0
0
0
0
0
0
0
0
0
0
0
0
0
0
0
0
0
0
0
0
0
0
0
0
0
0
0
0
0
0
0
0
0
0
0
0
0
0
0
0
0
0
0
0
0
0
0
0
0
0
0
0
0
0
0
0
0
0
0
0
0
0
0
0
0
0
0
0
0
0
0
0
0
0
0
0
0
0
0
0
0
0
0
0
0
0
0
0
0
0
0
0
0
0
0
0
0
0
0
0
0
0
0
0
0
0
0
0
0
0
0
0
0
0
0
0
0
0
0
0
0
0
0
0
0
0
0
0
0
0
0
0
0
0
0
0
0
0
0
0
0
0
0
0
0
0
0
0
0
0
0
0
0
0
0
0
0
0
0
0
0
0
0
0
0
0
0
0
0
0
0
0
0
0
0
0
0
0
0
0
0
0
0
0
0
0
0
0
0
0
0
0
0
0
0
0
0
0
0
0
0
0
0
0
0
0
0
0
0
0
0
0
0
0
0
0
0
0
0
0
0
0
0
0
0
0
0
0
0
0
0
0
0
0
0
0
0
0
0
0
0
0
0
0
0
0
0
0
0
0
0
0
0
0
0
0
0
0
0
0
0
0
0
0
0
0
0
0
0
0
0
0
0
0
0
0
0
0
0
0
0
0
0
0
0
0
0
0
0
0
0
0
0
0
0
0
0
0
0
0
0
0
0
0
0
0
0
0
0
0
0
0
0
0
0
0
0
0
0
0
0
0
0
0
0
0
0
0
0
0
0
0
0
0
0
0
0
0
0
0
0
0
0
0
0
0
0
0
0
0
0
0
0
0
0
0
0
0
0
0
0
0
0
0
0
0
0
0
0
0
0
0
0
0
0
0
0
0
0
0
0
0
0
0
0
0
0
0
0
0
0
0
0
0
0
0
0
0
0
0
0
0
0
0
0
0
0
0
0
0
0
0
0
0
0
0
0
0
0
0
0
0
0
0
0
0
0
0
0
0
0
0
0
0
0
0
0
0
0
0
0
0
0
0
0
0
0
0
0
0
0
0
0
0
0
0
0
0
0
0
0
0
0
0
0
0
0
0
0
0
0
0
0
0
0
0
0
0
0
0
0
0
0
0
0
0
0
0
0
0
0
0
0
0
0
0
0
0
0
0
0
0
0
0
0
0
0
0
0
0
0
0
0
0
0
0
0
0
0
0
0
0
0
0
0
0
0
0
0
0
0
0
0
0
0
0
0
0
0
0
0
0
0
0
0
0
0
0
0
0
0
0
0
0
0
0
0
0
0
0
0
0
0
0
0
0
0
0
0
0
0
0
0
0
0
0
0
0
0
0
0
0
0
0
0
0
0
0
0
0
0
0
0
0
0
0
0
0
0
0
0
0
0
0
0
0
0
0
0
0
0
0
0
0
0
0
0
0
0
0
0
0
0
0
0
0
0
0
0
0
0
0
0
0
0
0
0
0
0
0
0
0
0
0
0
0
0
0
0
0
0
0
0
0
0
0
0
0
0
0
0
0
0
0
0
0
0
0
0
0
0
0
0
0
0
0
0
0
0
0
0
0
0
0
0
0
0
0
0
0
0
0
0
0
0
0
0
0
0
0
0
0
0
0
0
0
0
0
0
0
0
0
0
0
0
0
0
0
0
0
0
0
0
0
0
0
0
0
0
0
0
0
0
0
0
0
0
0
0
0
0
0
0
0
0
0
0
0
0
0
0
0
0
0
0
0
0
0
0
0
0
0
0
0
0
0
0
0
0
0
0
0
0
0
0
0
0
0
0
0
0
0
0
0
0
0
0
0
0
0
0
0
0
0
0
0
0
0
0
0
0
0
0
0
0
0
0
0
0
0
0
0
0
0
0
0
0
0
0
0
0
0
0
0
0
0
0
0
0
0
0
0
0
0
0
0
0
0
0
0
0
0
0
0
0
0
0
0
0
0
0
0
0
0
0
0
0
0
0
0
0
0
0
0
0
0
0
0
0
0
0
0
0
0
0
0
0
0
0
0
0
0
0
0
0
0
0
0
0
0
0
0
0
0
0
0
0
0
0
0
0
0
0
0
0
0
0
0
0
0
0
0
0
0
0
0
