0.998718
1.03674
1.0704
1.10562
1.14739
1.19934
1.26113
1.32515
1.38187
1.42447
1.45284
1.4752
1.50651
1.56439
1.66397
1.82281
2.07846
2.40873
2.73341
2.97522
3.08255
3.04144
2.8773
2.64546
2.41222
2.23235
2.11765
2.04113
1.98291
1.9329
1.88376
1.82762
1.75721
1.66715
1.555
1.42217
1.27412
1.11991
0.972186
0.866916
0.932523
1.28985
1.77113
2.19512
2.40375
2.29597
1.86959
1.23871
0.581065
0
0.24964
1.29881
3.06635
5.29576
7.60213
9.52425
10.604
10.5041
9.14121
6.77764
3.9939
1.51504
-0.0572007
-0.484203
0.106989
0.788991
1.369
1.75717
1.93431
2.04033
2.1261
2.20069
2.27125
2.34285
2.41817
2.49817
2.58248
2.66995
2.75863
2.84655
2.93213
3.01417
3.09172
3.16221
3.2209
3.26302
3.28385
3.28195
3.26243
3.23806
3.22684
3.24663
3.30893
3.40892
3.53566
3.67822
3.82403
3.96209
4.08705
4.19447
4.28303
4.35438
4.41225
4.46195
4.50972
4.56211
4.6252
4.70366
4.79997
4.91837
5.05732
5.20162
5.3313
5.42725
5.47553
5.46941
5.40846
5.29578
5.13509
4.92953
4.69019
4.42756
4.149
3.86114
3.57137
3.28749
3.01656
2.76469
2.53636
2.33415
2.15872
2.00911
1.88343
1.77833
1.68868
1.60939
1.53623
1.46677
1.40069
1.3398
1.2872
1.24623
1.22043
1.21136
1.21519
1.22489
1.23166
1.22682
1.20351
1.15804
1.09061
1.00558
0.911316
0.819222
0.742531
0.694685
0.687351
0.767035
1.00303
1.35599
1.71845
1.99147
2.11782
2.09201
1.94874
1.73887
1.50734
1.28642
1.09526
0.93949
0.820319
0.739819
0.704694
0.717796
0.777082
0.875421
1.00147
1.14153
1.28204
1.41296
1.52911
1.62875
1.71403
1.79015
1.86398
1.94284
2.03585
2.15652
2.31098
2.46844
2.58227
2.60376
2.50076
2.27427
1.96348
1.63356
1.35027
1.15059
1.00161
0.879075
0.777889
0.692608
0.618345
0.55134
0.489084
0.430161
0.3739
0.320207
0.269499
0.222312
0.17918
0.140469
0.106197
0.0759297
0.0488326
0.0238599
0
-0.0227922
-0.0295814
0.445089
1.66466
3.62686
5.96899
8.05958
9.24352
9.11573
7.68817
5.37445
2.81272
0.614782
-0.843768
-1.50378
-1.41114
-1.16126
-0.882862
-0.597204
-0.331744
-0.114371
0.05715
0.193876
0.303082
0.386126
0.444885
0.483165
0.506541
0.521934
0.536836
0.558186
0.59142
0.643883
0.712932
0.785416
0.845372
0.880846
0.88927
0.878732
0.864473
0.862347
0.882522
0.921819
0.97256
1.03004
1.09059
1.15176
1.21291
1.27508
1.34049
1.4118
1.49135
1.5807
1.68085
1.79238
1.91531
2.04894
2.19154
2.34098
2.49202
2.63519
2.75998
2.85704
2.92024
2.94751
2.94037
2.90211
2.83587
2.7433
2.62901
2.49454
2.33997
2.16643
1.97648
1.7741
1.5645
1.35339
1.14609
0.947458
0.761337
0.590262
0.435089
0.294674
0.16629
0.046166
-0.0697871
-0.185171
-0.302617
-0.423136
-0.544908
-0.660193
-0.754233
-0.809374
-0.808496
-0.740048
-0.602971
-0.409585
-0.184676
0.039792
0.233129
0.380015
0.474829
0.525532
0.549874
0.568336
0.596493
0.639337
0.691173
0.74331
0.786546
0.815001
0.827884
0.828624
0.822069
0.811378
0.796696
0.775805
0.745754
0.705175
0.655872
0.603203
0.555041
0.519674
0.503401
0.506582
0.528143
0.564195
0.60938
0.65851
0.707948
0.756427
0.804659
0.854941
0.91049
0.974625
1.04996
1.13834
1.24171
1.36243
1.49992
1.64303
1.77255
1.86786
1.91187
1.89536
1.81911
1.69323
1.53474
1.36444
1.20296
1.06195
0.945526
0.857702
0.808528
0.794685
0.798554
0.798939
0.777821
0.726068
0.645771
0.548286
0.449027
0.361442
0.28962
0.230176
0.180314
0.137251
0.0977502
0.0587615
0
0.191903
0.9407
2.42694
4.57711
6.98862
9.02172
10.0346
9.6538
7.93784
5.35647
2.60142
0.323347
-1.08673
-1.58545
-1.28793
-0.905682
-0.519901
-0.178211
0.0810075
0.264339
0.408384
0.528668
0.630515
0.716428
0.788626
0.850084
0.904358
0.955317
1.00675
1.06192
1.12301
1.19088
1.26509
1.34286
1.41882
1.48684
1.54172
1.58051
1.60328
1.61292
1.61421
1.61256
1.61289
1.61872
1.63298
1.65842
1.69796
1.75476
1.83161
1.9301
2.04968
2.18661
2.33449
2.48707
2.63816
2.78181
2.91288
3.02888
3.12993
3.21872
3.30034
3.38154
3.47138
3.58822
3.76239
4.00577
4.27319
4.50004
4.62934
4.62256
4.46272
4.15694
3.74015
3.27476
2.83958
2.48183
2.18876
1.93733
1.71891
1.53177
1.37247
1.23646
1.11874
1.0146
0.920126
0.83266
0.750978
0.675386
0.607536
0.549868
0.505163
0.475999
0.464228
0.470582
0.494431
0.5337
0.585414
0.645789
0.70831
0.764413
0.806495
0.829774
0.833834
0.823206
0.806447
0.793711
0.794473
0.817946
0.85546
0.888208
0.895771
0.865941
0.801008
0.717367
0.638697
0.586301
0.569594
0.578196
0.603669
0.643055
0.694329
0.7575
0.843239
0.997594
1.31752
1.75543
2.17766
2.45625
2.52563
2.39429
2.11695
1.75816
1.3801
1.0621
0.851797
0.724784
0.648556
0.606556
0.589011
0.583266
0.576467
0.558215
0.522448
0.468098
0.398557
0.320321
0.241338
0.1684
0.105878
0.0563875
0.0211349
0
-0.0180865
-0.0170727
0.261492
0.902176
1.99562
3.59394
5.57239
7.57159
9.0393
9.41418
8.39456
6.14328
3.27861
0.621149
-1.1697
-1.85604
-1.53779
-0.949793
-0.334945
0.143729
0.415365
0.58061
0.727265
0.868525
1.00606
1.13844
1.26145
1.36844
1.45213
1.50624
1.52768
1.51836
1.48596
1.44329
1.40618
1.39019
1.40572
1.45413
1.53
1.62543
1.73302
1.84522
1.95496
2.05671
2.14653
2.22194
2.28373
2.33464
2.37898
2.4223
2.4709
2.53111
2.60842
2.70655
2.82632
2.96459
3.11706
3.27839
3.44216
3.60092
3.74641
3.87172
3.97162
4.04299
4.08504
4.09905
4.08773
4.05435
4.00161
3.93092
3.84254
3.73514
3.60634
3.45343
3.2747
3.07037
2.84305
2.59769
2.34103
2.08077
1.8244
1.57844
1.34802
1.13646
0.945451
0.77546
0.626778
0.501275
0.402082
0.330225
0.286875
0.272357
0.284859
0.319551
0.368609
0.422325
0.471004
0.507089
0.527701
0.533094
0.526963
0.515309
0.504929
0.501583
0.508647
0.527926
0.560101
0.604766
0.660625
0.725956
0.799087
0.878617
0.963398
1.05228
1.1438
1.2359
1.3256
1.40948
1.48423
1.54728
1.59709
1.63305
1.65482
1.65993
1.64489
1.60556
1.5371
1.43575
1.30081
1.13604
0.949948
0.754869
0.565017
0.392005
0.242819
0.123393
0.037808
-0.0104313
-0.0259672
-0.0202469
-0.00634632
0.00351849
0
-0.0227549
-0.0654692
-0.125892
-0.199388
-0.279743
-0.361026
-0.436769
-0.390741
0.130424
1.10143
2.495
4.16095
5.81365
7.05977
7.49916
6.88722
5.28443
3.08228
0.859191
-0.866946
-1.84138
-2.05577
-1.70677
-1.23414
-0.646852
-0.030212
0.458529
0.75035
0.93293
1.00354
0.979507
0.897648
0.803032
0.735703
0.717415
0.738531
0.788314
0.86228
0.958318
1.07394
1.20724
1.35702
1.51538
1.66671
1.7947
1.88697
1.93941
1.9583
1.95888
1.96091
1.98268
2.03478
2.11331
2.21116
2.32276
2.44305
2.56697
2.68991
2.80793
2.91763
3.0162
3.1017
3.17294
3.22966
3.27275
3.30436
3.32771
3.34677
3.3655
3.38713
3.41329
3.44387
3.47526
3.49846
3.50081
3.46834
3.38863
3.2537
3.06212
2.81985
2.53958
2.23878
1.93693
1.64841
1.38222
1.14602
0.94516
0.784169
0.6628
0.573046
0.505544
0.452043
0.407317
0.369972
0.341903
0.326703
0.327678
0.345312
0.377058
0.420102
0.470372
0.523244
0.57417
0.618481
0.652559
0.673933
0.68162
0.676477
0.661351
0.640834
0.620584
0.606334
0.602903
0.612194
0.63507
0.671845
0.72209
0.784896
0.859136
0.943676
1.0374
1.13894
1.24492
1.34827
1.4396
1.50904
1.54808
1.55112
1.51631
1.44546
1.34324
1.2162
1.07245
0.920715
0.768282
0.620987
0.483958
0.361774
0.257865
0.174127
0.110698
0.065987
0.0369238
0.0193819
0.00866985
0
-0.0116613
-0.0294836
-0.0562828
-0.0936947
-0.142244
-0.200951
-0.267315
-0.340044
-0.401431
-0.0665791
0.918544
2.6257
4.78549
6.82661
8.10438
8.18347
7.01558
4.93516
2.50917
0.330143
-1.16844
-1.82457
-1.64974
-1.23203
-0.813254
-0.433938
-0.131359
0.0786098
0.236886
0.363695
0.463803
0.539624
0.595061
0.635257
0.66618
0.694126
0.72513
0.764155
0.815166
0.883519
0.974711
1.08118
1.18372
1.26124
1.29891
1.29495
1.26257
1.22602
1.21176
1.23873
1.30248
1.40399
1.52052
1.62386
1.69054
1.71058
1.69135
1.65519
1.63131
1.64527
1.70858
1.80634
1.92299
2.04871
2.17514
2.29411
2.39835
2.48341
2.54729
2.5901
2.61334
2.61905
2.60888
2.58346
2.54149
2.4809
2.39913
2.29422
2.16593
2.01631
1.84977
1.67245
1.49125
1.31264
1.14144
0.981683
0.836292
0.707105
0.59488
0.499326
0.419176
0.352316
0.296062
0.247509
0.203942
0.163356
0.124816
0.0885948
0.0560616
0.0291695
0.00981865
-0.000265503
-0.000326538
0.00775223
0.0208187
0.0355629
0.0496613
0.0625488
0.0755188
0.0911396
0.112266
0.14106
0.177777
0.221667
0.271955
0.327862
0.388925
0.455132
0.526769
0.604066
0.686818
0.774144
0.864535
0.956179
1.04733
1.13668
1.22346
1.30729
1.38762
1.46298
1.5299
1.58238
1.6133
1.6155
1.58411
1.5186
1.42378
1.30919
1.18688
1.06825
0.960393
0.863728
0.776242
0.693166
0.608858
0.518915
0.421867
0.319383
0.218138
0.127489
0.0568401
0.0132698
0
0.0200752
0.0651424
0.128982
0.205129
0.287646
0.373383
0.438098
0.870061
1.93255
3.68091
5.84743
7.88726
9.17246
9.24633
8.01732
5.80755
3.23482
0.975674
-0.486556
-1.01634
-0.679171
-0.273836
0.110241
0.424884
0.637846
0.775499
0.883099
0.976667
1.06229
1.14431
1.22504
1.30439
1.37988
1.44761
1.50369
1.54553
1.57269
1.58709
1.59258
1.59419
1.59734
1.60649
1.62526
1.65668
1.70264
1.76394
1.8406
1.93086
2.02999
2.12953
2.21942
2.29111
2.33985
2.36633
2.37727
2.38434
2.40162
2.44205
2.5138
2.61408
2.73414
2.86712
3.00128
3.12461
3.22741
3.30404
3.35352
3.37875
3.38483
3.37688
3.35805
3.32925
3.2889
3.23278
3.15563
3.05244
2.91948
2.75524
2.56108
2.34142
2.1039
1.85783
1.61316
1.37983
1.16666
0.980512
0.82565
0.703465
0.612709
0.550131
0.510995
0.489103
0.477567
0.470446
0.463495
0.454601
0.443813
0.432937
0.424808
0.422364
0.427651
0.441044
0.461943
0.488178
0.5156
0.5392
0.554999
0.561416
0.560125
0.556038
0.556272
0.568504
0.606196
0.674389
0.756697
0.826995
0.860178
0.842903
0.77935
0.689736
0.602784
0.545885
0.530849
0.550435
0.59707
0.667087
0.758467
0.868782
0.995231
1.13467
1.28373
1.43788
1.59083
1.73493
1.86148
1.96153
2.02816
2.05652
2.04428
1.99208
1.90357
1.78528
1.64592
1.49537
1.34327
1.19714
1.06099
0.936799
0.825425
0.726304
0.637961
0.558548
0.486308
0.419948
0.358689
0.30211
0.250011
0.202157
0.15808
0.116986
0.0778181
0.0392988
0
-0.0766996
0.158472
0.966785
2.42718
4.36925
6.39125
7.97733
8.66156
8.185
6.59642
4.26055
1.75884
-0.300473
-1.49551
-1.73138
-1.2351
-0.826629
-0.493526
-0.263006
-0.142759
-0.100914
-0.112064
-0.145505
-0.173656
-0.178497
-0.161503
-0.128846
-0.0848934
-0.0333452
0.022053
0.0778921
0.131118
0.17918
0.220095
0.252518
0.275867
0.290935
0.30017
0.307789
0.319578
0.342273
0.382508
0.445484
0.533623
0.648498
0.789785
0.941157
1.0821
1.19467
1.26907
1.3068
1.32012
1.32821
1.35146
1.40569
1.49088
1.60072
1.72897
1.86877
2.01122
2.14547
2.26059
2.34806
2.40231
2.42095
2.40454
2.35581
2.27879
2.17786
2.05716
1.92104
1.77373
1.61864
1.45886
1.2977
1.13859
0.984705
0.838534
0.701703
0.574676
0.456695
0.346581
0.243623
0.149014
0.0651367
-0.00449944
-0.0560833
-0.0869904
-0.0969536
-0.0884228
-0.0659542
-0.0349323
-0.000149918
0.0351459
0.0697014
0.103386
0.136757
0.170619
0.205651
0.242256
0.280462
0.319912
0.359891
0.399409
0.437337
0.472584
0.504285
0.531946
0.555487
0.575215
0.591714
0.605739
0.618133
0.629741
0.641391
0.653862
0.667855
0.683973
0.702723
0.724543
0.749804
0.778773
0.811492
0.847593
0.886126
0.925446
0.963145
0.996375
1.02221
1.03806
1.04191
1.03251
1.00926
0.972164
0.92165
0.858795
0.784789
0.701293
0.610508
0.515209
0.418669
0.324542
0.236711
0.158704
0.0933582
0.0425266
0.00692825
-0.0137852
-0.0207726
-0.01563
0
0.0310139
0.0696278
0.114921
0.166185
0.222654
0.28337
0.347143
0.413403
0.472479
0.830624
1.78925
3.46794
5.65161
7.81029
9.30083
9.6423
8.71101
6.76563
4.31672
1.92952
0.0522446
-1.07929
-1.44601
-1.08391
-0.725499
-0.388783
-0.100701
0.11254
0.259379
0.367353
0.441325
0.483965
0.50036
0.497865
0.485551
0.473245
0.470275
0.484221
0.518265
0.571802
0.643012
0.72936
0.827051
0.931516
1.03704
1.1372
1.22629
1.3002
1.35704
1.39741
1.42426
1.44223
1.45682
1.47345
1.49637
1.52836
1.57135
1.62669
1.69518
1.77742
1.8739
1.9851
2.11148
2.25563
2.4227
2.60997
2.79604
2.95315
3.0555
3.08839
3.05376
2.96906
2.85983
2.7491
2.64843
2.55355
2.45759
2.35528
2.2417
2.11352
1.96966
1.8114
1.64204
1.46647
1.28987
1.11712
0.952467
0.799204
0.659522
0.534549
0.424594
0.329554
0.249453
0.184501
0.135009
0.101572
0.0848488
0.0852249
0.102481
0.135534
0.182305
0.23974
0.304224
0.371335
0.436132
0.494119
0.541806
0.577047
0.599074
0.608243
0.605607
0.59253
0.570571
0.542041
0.509706
0.477449
0.4517
0.440138
0.45042
0.488625
0.557969
0.658186
0.785665
0.93518
1.10329
1.27624
1.43154
1.54578
1.59972
1.58502
1.50872
1.39171
1.26049
1.13613
1.0252
0.920368
0.815619
0.70681
0.591073
0.467698
0.338445
0.207331
0.0799706
-0.0376095
-0.139321
-0.219854
-0.274972
-0.301217
-0.29642
-0.26114
-0.200315
-0.125449
-0.0533997
0
0.0573048
0.0798897
0.0711369
0.0413574
-0.235552
-0.0913101
0.888616
2.81501
5.36355
7.8365
9.43247
9.59249
8.23653
5.77404
2.90583
0.336664
-1.45275
-2.29474
-2.08
-1.65039
-1.2368
-0.885591
-0.628882
-0.472388
-0.390862
-0.335139
-0.249634
-0.0935217
0.134383
0.397429
0.67726
0.952518
1.2032
1.41415
1.5768
1.68934
1.75564
1.78382
1.78465
1.77087
1.75324
1.73996
1.73618
1.743
1.75915
1.78318
1.81339
1.84867
1.88896
1.93531
1.9894
2.053
2.12707
2.21198
2.30725
2.41159
2.52322
2.63987
2.7595
2.88
2.99951
3.11668
3.23091
3.34231
3.45136
3.55827
3.66186
3.75805
3.83935
3.89502
3.91236
3.87896
3.78513
3.62619
3.40387
3.12676
2.80946
2.4725
2.1344
1.80909
1.50793
1.23862
1.00516
0.808226
0.64259
0.500679
0.374705
0.258764
0.150385
0.0511522
-0.0337572
-0.0969936
-0.125668
-0.0940174
0.0232447
0.203107
0.396055
0.551422
0.63465
0.637646
0.579474
0.498
0.436241
0.428578
0.473279
0.551946
0.661629
0.797536
0.940187
1.06877
1.16665
1.22633
1.25213
1.25882
1.26656
1.29372
1.35071
1.42957
1.51986
1.61441
1.70477
1.78122
1.83499
1.85893
1.84825
1.80101
1.7185
1.60512
1.46797
1.31591
1.15856
1.00426
0.858841
0.726872
0.611236
0.513071
0.431861
0.366013
0.313383
0.271769
0.239212
0.214092
0.195017
0.180716
0.169689
0.160262
0.150761
0.139779
0.126417
0.108686
0
0.252235
1.20298
2.97997
5.32635
7.59606
8.98432
8.89904
7.26597
4.58661
1.70825
-0.560897
-1.77538
-1.95756
-1.36732
-0.78648
-0.238938
0.231467
0.595413
0.830006
0.911435
0.823427
0.58289
0.260173
-0.0288391
-0.163419
-0.112411
0.0310204
0.208447
0.399334
0.593266
0.781632
0.957697
1.11714
1.25823
1.38163
1.48989
1.58671
1.67613
1.76172
1.84592
1.92966
2.01176
2.08873
2.15646
2.21222
2.2566
2.29461
2.33547
2.3909
2.47229
2.58768
2.73534
2.90796
3.09761
3.29565
3.49193
3.67654
3.84113
3.97967
4.0887
4.16662
4.2132
4.22973
4.2177
4.17846
4.11295
4.02175
3.90524
3.76382
3.59837
3.41138
3.20658
2.98867
2.76401
2.54027
2.32577
2.12839
1.95455
1.80832
1.69094
1.60079
1.53411
1.48568
1.44892
1.41668
1.38305
1.34428
1.29933
1.25007
1.20095
1.15816
1.12852
1.11786
1.135
1.19256
1.29301
1.40873
1.50535
1.55332
1.53864
1.46879
1.3708
1.28147
1.23397
1.24725
1.30497
1.38999
1.49523
1.61876
1.76594
1.95402
2.18993
2.43694
2.63514
2.72732
2.68763
2.53197
2.30406
2.04925
1.79631
1.55556
1.32796
1.11442
0.917895
0.742427
0.591488
0.467102
0.369716
0.298782
0.252363
0.224562
0.207122
0.192335
0.174374
0.150051
0.118849
0.0822609
0.0427364
0.00262375
-0.0366253
-0.0746513
-0.111644
-0.146513
0
0.662992
2.03163
4.04604
6.36622
8.43323
9.63081
9.5087
7.98556
5.43073
2.55212
0.115569
-1.36783
-1.81456
-1.40847
-0.918823
-0.461938
-0.103181
0.11087
0.243166
0.344011
0.426761
0.496601
0.557833
0.612873
0.662832
0.707718
0.747267
0.782135
0.814681
0.848972
0.889959
0.942062
1.00767
1.08549
1.1716
1.26085
1.34712
1.42492
1.49065
1.54331
1.58459
1.61837
1.64986
1.68463
1.72764
1.78269
1.85258
1.93899
2.04219
2.16092
2.29233
2.43205
2.57438
2.71248
2.83932
2.94834
3.03427
3.09466
3.1295
3.1408
3.1318
3.10594
3.06576
3.0108
2.9385
2.84502
2.72575
2.57723
2.39889
2.19376
1.96812
1.73013
1.48823
1.24938
1.01804
0.798082
0.593073
0.405513
0.23704
0.0898342
-0.0352772
-0.140923
-0.2304
-0.306364
-0.369682
-0.419006
-0.451359
-0.463496
-0.453475
-0.422875
-0.374531
-0.313134
-0.244247
-0.173454
-0.104953
-0.0423044
0.0113896
0.0541481
0.0854362
0.106131
0.118809
0.127837
0.13901
0.15869
0.19259
0.244563
0.315061
0.4016
0.500959
0.609775
0.725113
0.84527
0.970099
1.10077
1.23963
1.39052
1.55563
1.73043
1.90178
2.04964
2.15456
2.20087
2.17829
2.08324
1.92079
1.70642
1.4658
1.23134
1.03576
0.893666
0.798499
0.749089
0.766876
0.870293
1.02949
1.18967
1.29732
1.31526
1.23329
1.06962
0.862107
0.653188
0.475171
0.330884
0.207614
0.0964095
0
0.161819
0.796272
2.09062
4.03045
6.31072
8.38956
9.66231
9.68875
8.37936
6.05755
3.35543
0.977425
-0.568236
-1.13953
-0.871234
-0.461688
-0.0780189
0.234586
0.455242
0.607568
0.727791
0.827559
0.907533
0.969661
1.01742
1.05561
1.08958
1.12427
1.16318
1.20765
1.25701
1.3099
1.36468
1.41976
1.4739
1.52614
1.57564
1.62149
1.66246
1.69692
1.72307
1.73922
1.74457
1.74006
1.72877
1.71604
1.71012
1.72067
1.75639
1.82275
1.92036
2.0446
2.187
2.33765
2.48779
2.6319
2.76741
2.89378
3.0111
3.11874
3.21601
3.30034
3.36836
3.41656
3.44165
3.4406
3.41068
3.34947
3.2563
3.13082
2.97361
2.78711
2.5758
2.34614
2.1061
1.86453
1.63015
1.41084
1.21279
1.04057
0.898759
0.788027
0.701935
0.632124
0.570559
0.511593
0.453179
0.396827
0.346444
0.30656
0.279652
0.265151
0.262783
0.271095
0.287814
0.310463
0.336539
0.363966
0.391512
0.418989
0.447303
0.478302
0.514397
0.55801
0.610921
0.673393
0.744951
0.823255
0.902266
0.973049
1.02635
1.05469
1.05431
1.02644
0.977503
0.917919
0.85991
0.814557
0.786951
0.777706
0.78803
0.814387
0.851539
0.894159
0.938217
0.981695
1.02448
1.06758
1.11215
1.15867
1.20678
1.25566
1.30482
1.35463
1.40635
1.46145
1.5209
1.58284
1.63984
1.68049
1.69204
1.66402
1.59157
1.47742
1.33192
1.17115
1.01364
0.87365
0.757525
0.668799
0.611602
0.584349
0.58293
0.601987
0.635991
0.679721
0.728333
0.775573
0.810858
0.821143
0.792951
0.716014
0.586852
0.410631
0.10702
0
0.737756
2.45415
4.97285
7.77119
10.1115
11.2932
10.9239
9.08853
6.32258
3.39715
1.02251
-0.386538
-0.782301
-0.255741
0.42739
1.07926
1.595
1.89182
2.06431
2.19661
2.30432
2.3977
2.48538
2.57286
2.66186
2.74825
2.82415
2.8818
2.91728
2.93274
2.93627
2.93929
2.95267
2.98309
3.02844
3.08415
3.14538
3.20689
3.26437
3.31528
3.35909
3.39722
3.43286
3.47039
3.51485
3.57141
3.64446
3.73663
3.84806
3.97542
4.11412
4.25824
4.40152
4.53869
4.66523
4.77768
4.87484
4.95742
5.02792
5.09041
5.15014
5.21273
5.28425
5.37289
5.47696
5.57439
5.63248
5.61863
5.51243
5.31348
5.04177
4.73058
4.41537
4.11979
3.84583
3.59379
3.36575
3.16211
2.98213
2.82435
2.68697
2.56799
2.46541
2.37732
2.3019
2.23755
2.18277
2.13624
2.0967
2.063
2.03412
2.00929
1.98812
1.97074
1.95781
1.95049
1.95014
1.95798
1.97456
1.99939
2.0306
2.06482
2.09681
2.11957
2.12591
2.10974
2.06747
1.99926
1.90956
1.80674
1.7018
1.60628
1.52909
1.47617
1.45178
1.45318
1.47417
1.5072
1.54541
1.58397
1.62045
1.65418
1.68504
1.71229
1.73417
1.74734
1.74754
1.73044
1.69259
1.63231
1.5502
1.44916
1.33394
1.21029
1.08409
0.960465
0.843447
0.736185
0.641122
0.560223
0.495009
0.446442
0.41498
0.399876
0.397774
0.401809
0.403151
0.392815
0.363406
0.310618
0.234084
0.137392
-0.00836563
0
0.59214
1.86471
3.70865
5.75277
7.44964
8.25513
7.83588
6.22149
3.82673
1.31272
-0.665668
-1.71223
-1.77086
-1.1786
-0.477892
0.198697
0.722875
0.994149
1.14246
1.2529
1.34472
1.42178
1.48678
1.54216
1.58987
1.6316
1.66887
1.70331
1.73726
1.77402
1.81765
1.87259
1.94543
2.04622
2.17798
2.32473
2.46332
2.57092
2.63256
2.64544
2.61841
2.56755
2.51041
2.46075
2.4232
2.39812
2.38575
2.38649
2.40068
2.42842
2.46963
2.52401
2.59086
2.66925
2.75814
2.85425
2.94993
3.03573
3.10206
3.14058
3.14506
3.11131
3.03636
2.91778
2.75371
2.55121
2.31801
2.05894
1.78055
1.49109
1.19935
0.913194
0.63847
0.378493
0.134079
-0.095784
-0.312959
-0.519167
-0.715286
-0.901077
-1.07532
-1.23623
-1.38197
-1.51106
-1.62253
-1.71589
-1.79091
-1.84734
-1.88446
-1.90183
-1.89935
-1.87603
-1.83044
-1.76679
-1.69422
-1.62254
-1.55962
-1.50916
-1.46992
-1.43661
-1.40202
-1.35949
-1.30592
-1.24175
-1.1678
-1.08453
-0.992374
-0.891515
-0.78186
-0.663257
-0.535892
-0.400533
-0.258466
-0.113271
0.0287354
0.160284
0.27422
0.364516
0.426993
0.459695
0.462952
0.43927
0.393097
0.331673
0.261336
0.188521
0.119092
0.057692
0.00637207
-0.0336426
-0.0616379
-0.077742
-0.0826736
-0.0771103
-0.0631317
-0.0429932
-0.0187378
0.00812531
0.0367188
0.0665833
0.0972885
0.12774
0.155757
0.178166
0.191269
0.191306
0.0439819
0
0.647058
2.20471
4.45376
6.77689
8.40494
8.76596
7.74269
5.70362
3.30459
1.18882
-0.248979
-0.933458
-1.00612
-0.645857
-0.305566
0.00967712
0.289308
0.526256
0.726895
0.895982
1.0369
1.15457
1.25459
1.34237
1.42262
1.49875
1.57281
1.64571
1.71747
1.78755
1.85519
1.91974
1.98086
2.03847
2.09252
2.14222
2.18604
2.22216
2.24884
2.26558
2.2742
2.27928
2.28765
2.30709
2.34472
2.40453
2.48587
2.58745
2.70813
2.84627
2.99997
3.16733
3.34657
3.536
3.7339
3.93872
4.14877
4.36113
4.56949
4.76081
4.91682
5.01818
5.04624
4.98793
4.84114
4.61843
4.34685
4.06293
3.80322
3.58468
3.3992
3.23651
3.09075
2.95132
2.80672
2.6474
2.46813
2.2695
2.0578
1.84366
1.63959
1.45738
1.30601
1.19047
1.11171
1.06733
1.05254
1.06113
1.08486
1.11692
1.15176
1.18476
1.21275
1.23425
1.24929
1.25905
1.26514
1.26898
1.27156
1.27336
1.27473
1.2762
1.27877
1.28378
1.29251
1.30561
1.32309
1.34265
1.35949
1.36811
1.36421
1.34629
1.31658
1.2807
1.24649
1.22222
1.21467
1.22612
1.25775
1.31708
1.42467
1.61059
1.8541
2.09008
2.23742
2.23104
2.05016
1.72523
1.32426
0.932603
0.635268
0.440199
0.306883
0.216975
0.168375
0.1481
0.142323
0.140761
0.139616
0.141692
0.153396
0.179928
0.223134
0.271906
0.307401
0.310172
0.268258
0.182409
0.0660866
-0.206613
0
0.879456
2.45638
4.49462
6.53727
8.02697
8.48762
7.70431
5.82713
3.34533
0.929585
-0.810155
-1.55246
-1.36688
-1.01047
-0.711204
-0.453027
-0.241281
-0.0654839
0.0821236
0.208743
0.317728
0.411042
0.487505
0.543971
0.578506
0.592873
0.593127
0.588135
0.586804
0.595349
0.614211
0.640867
0.672813
0.707524
0.743037
0.77842
0.813805
0.850063
0.88836
0.929754
0.974995
1.02469
1.07953
1.14047
1.20873
1.28565
1.37214
1.46821
1.57241
1.68189
1.79163
1.89455
1.98349
2.05272
2.099
2.12203
2.1241
2.10908
2.08121
2.04409
2.00053
1.9515
1.8967
1.83465
1.76265
1.6758
1.56889
1.43651
1.27451
1.0815
0.860119
0.617313
0.363584
0.111229
-0.128235
-0.348312
-0.543997
-0.712937
-0.855558
-0.974394
-1.07339
-1.15721
-1.23026
-1.29606
-1.3569
-1.41373
-1.46636
-1.51391
-1.55522
-1.5893
-1.61558
-1.63397
-1.6447
-1.6481
-1.64441
-1.63379
-1.61647
-1.59291
-1.56408
-1.53144
-1.4967
-1.46156
-1.42739
-1.39508
-1.36488
-1.33645
-1.30902
-1.28159
-1.25308
-1.2225
-1.18895
-1.15169
-1.11012
-1.06378
-1.01236
-0.95569
-0.893831
-0.82709
-0.756091
-0.681788
-0.605444
-0.528622
-0.453104
-0.380861
-0.314185
-0.256178
-0.211573
-0.186335
-0.185404
-0.212956
-0.270949
-0.357798
-0.467826
-0.591862
-0.718963
-0.838606
-0.943474
-1.03187
-1.10243
-1.15384
-1.18599
-1.1997
-1.19643
-1.17846
-1.14904
-1.11234
-1.07282
-1.03447
-0.999828
-0.969293
-0.941082
-0.910703
-0.678978
0
1.07984
2.5654
4.31178
5.97887
7.10112
7.27248
6.34626
4.52736
2.30139
0.245466
-1.1837
-1.79397
-1.58227
-1.20946
-0.857317
-0.559543
-0.338737
-0.188223
-0.0758881
0.00341873
0.0535492
0.0794151
0.0869236
0.0828342
0.0743164
0.0681408
0.0696468
0.0818439
0.104502
0.134833
0.169641
0.205421
0.238848
0.267131
0.287708
0.299485
0.302461
0.297777
0.287826
0.276214
0.267397
0.265971
0.275741
0.298874
0.334378
0.379956
0.433041
0.490721
0.55037
0.61014
0.669099
0.727033
0.783987
0.839617
0.892691
0.941268
0.983225
1.0173
1.0439
1.06523
1.08449
1.10439
1.12533
1.14222
1.14521
1.12231
1.0628
0.959937
0.812115
0.622439
0.39752
0.147749
-0.114876
-0.381362
-0.644943
-0.899886
-1.14105
-1.36441
-1.56715
-1.74724
-1.90235
-2.02946
-2.12693
-2.19474
-2.23318
-2.24354
-2.2288
-2.19397
-2.14572
-2.09147
-2.03803
-1.98988
-1.94825
-1.91261
-1.88097
-1.84992
-1.81525
-1.77266
-1.71849
-1.65035
-1.56768
-1.47192
-1.36646
-1.25614
-1.14667
-1.0438
-0.952302
-0.875308
-0.813835
-0.766727
-0.730919
-0.701958
-0.674663
-0.64381
-0.60478
-0.554066
-0.489559
-0.410684
-0.318153
-0.213274
-0.100033
0.0112671
0.107253
0.175496
0.207734
0.202473
0.166114
0.112195
0.0590828
0.0267567
0.0296658
0.0707932
0.149981
0.266881
0.41999
0.608131
0.823511
1.05215
1.27602
1.47342
1.62443
1.71722
1.74525
1.70713
1.60736
1.45763
1.27698
1.0895
0.919788
0.783841
0.681354
0.605732
0.555187
0.524899
0.507706
0.496252
0.484377
0.468089
0.445945
0.418791
0.388953
0.359107
0.331133
0.305218
0.279797
0.251559
0.216517
0.171277
0.114216
0.0462051
-0.0401047
0
0.649381
2.06763
4.13329
6.43315
8.38437
9.43467
9.2577
7.86809
5.61923
3.08604
0.870318
-0.599493
-1.19232
-0.986283
-0.615071
-0.266319
0.0228924
0.230477
0.370047
0.477672
0.567136
0.643278
0.709557
0.769149
0.824812
0.878793
0.932756
0.987755
1.04426
1.10231
1.16171
1.22238
1.28474
1.34991
1.41997
1.49777
1.5867
1.69006
1.81066
1.95481
2.13232
2.33279
2.52265
2.66488
2.73392
2.72788
2.67177
2.60938
2.58681
2.6482
2.82093
3.04254
3.22227
3.28648
3.21367
3.04541
2.86955
2.78358
2.85438
3.10701
3.52239
3.96404
4.29619
4.43572
4.37187
4.15369
3.8583
3.55571
3.28181
3.02329
2.76536
2.50434
2.24007
1.97368
1.70737
1.44391
1.18595
0.935303
0.692596
0.457391
0.228788
0.00631962
-0.209161
-0.414277
-0.601934
-0.763288
-0.889392
-0.97284
-1.00941
-0.976006
-0.875925
-0.747986
-0.635907
-0.573174
-0.571694
-0.619042
-0.685259
-0.735799
-0.744666
-0.712487
-0.654911
-0.581601
-0.498809
-0.412491
-0.328055
-0.249826
-0.180627
-0.121705
-0.0728531
-0.0326908
0.000924683
0.0304188
0.0580242
0.0854141
0.113519
0.1426
0.172476
0.202915
0.233989
0.266242
0.300588
0.337978
0.379158
0.423671
0.468173
0.506683
0.532625
0.541191
0.531519
0.507795
0.478785
0.455889
0.450387
0.469861
0.514295
0.580454
0.665188
0.765142
0.876125
0.993587
1.11299
1.23007
1.34109
1.44305
1.53394
1.61287
1.68003
1.73646
1.78364
1.82283
1.85422
1.87637
1.88619
1.87996
1.85395
1.80602
1.73684
1.65059
1.55442
1.4571
1.36701
1.28963
1.2274
1.17924
1.14114
1.10735
1.07164
1.02825
0.972281
0.899637
0.806765
0.691347
0.552937
0.391191
0.203328
-0.00876646
-0.239656
-0.497011
-0.566131
0
1.41896
3.64691
6.29392
8.70811
10.2033
10.3228
9.01838
6.66162
3.89208
1.37895
-0.398876
-1.26818
-1.34029
-0.839194
-0.366621
0.0611583
0.420946
0.693963
0.906441
1.06166
1.16285
1.2173
1.23532
1.2289
1.21028
1.19076
1.17882
1.17983
1.19709
1.23212
1.28466
1.3526
1.43248
1.51972
1.6091
1.69558
1.77473
1.8429
1.89698
1.93547
1.95923
1.97114
1.97624
1.9816
1.99567
2.02707
2.08284
2.16677
2.27694
2.40826
2.55329
2.7014
2.84249
2.96923
3.07852
3.17167
3.25348
3.33042
3.40847
3.49165
3.58084
3.67131
3.75445
3.82005
3.85849
3.86232
3.82695
3.75061
3.63384
3.47881
3.29056
3.07453
2.83621
2.58221
2.3199
2.05628
1.79816
1.55241
1.32549
1.12264
0.947587
0.802289
0.687039
0.600664
0.540807
0.504812
0.489218
0.489385
0.499834
0.514639
0.528091
0.535548
0.533997
0.52236
0.501473
0.473742
0.442589
0.411881
0.385451
0.366542
0.357726
0.361507
0.380264
0.417599
0.480411
0.576282
0.698117
0.821074
0.915536
0.95668
0.933351
0.852454
0.737202
0.620161
0.533811
0.495469
0.498877
0.545328
0.641669
0.774175
0.908107
1.00674
1.04002
0.9924
0.868079
0.691734
0.503378
0.347685
0.256728
0.225447
0.235331
0.276384
0.34281
0.42754
0.523179
0.622535
0.718932
0.805053
0.875158
0.925258
0.953964
0.963351
0.959338
0.951202
0.950153
0.9673
1.01075
1.09641
1.24628
1.46236
1.70071
1.90636
2.03172
2.04629
1.94283
1.7385
1.46997
1.18451
0.930634
0.731997
0.580737
0.4642
0.378597
0.324269
0.292643
0.273207
0.256143
0.234787
0.207041
0.175179
0.14412
0.118877
0.102145
0.0923248
0.0868362
0.0820546
0.0747043
0.0629684
0.0450033
-0.193206
0
1.03073
3.03575
5.73457
8.45277
10.3559
10.7883
9.54533
6.95341
3.73652
0.742167
-1.35198
-2.24187
-2.0384
-1.16143
-0.311709
0.358357
0.720675
0.865154
0.964838
1.0469
1.11441
1.17026
1.2174
1.25887
1.2977
1.33684
1.37898
1.42648
1.48115
1.54421
1.61647
1.69823
1.78937
1.88928
1.99661
2.10817
2.21638
2.31085
2.38174
2.42318
2.43625
2.43015
2.42057
2.42532
2.45892
2.52689
2.62002
2.72848
2.84572
2.96612
3.08525
3.20049
3.31112
3.41783
3.52196
3.62456
3.72569
3.82403
3.91695
4.00094
4.07224
4.12737
4.16312
4.17722
4.16802
4.13429
4.07515
3.99002
3.8787
3.74157
3.57985
3.39613
3.19523
2.98237
2.76339
2.5448
2.33321
2.13451
1.95317
1.79176
1.65083
1.52918
1.42437
1.33342
1.25338
1.18196
1.11796
1.06169
1.01485
0.979719
0.959106
0.955586
0.970769
1.00475
1.0559
1.12104
1.19589
1.27567
1.3557
1.43222
1.50196
1.56195
1.60941
1.6421
1.65891
1.6599
1.64662
1.6225
1.59276
1.56403
1.54349
1.53766
1.55092
1.58476
1.6401
1.71532
1.80484
1.89702
1.97699
2.03138
2.05093
2.03271
1.98119
1.90767
1.82799
1.75883
1.71394
1.69676
1.70394
1.73272
1.78175
1.84894
1.93185
2.02976
2.14008
2.25369
2.35721
2.43606
2.47727
2.47205
2.41723
2.31522
2.17315
2.00161
1.81503
1.62608
1.44351
1.27342
1.11972
0.98489
0.869522
0.772424
0.690999
0.621603
0.559852
0.500963
0.438919
0.367621
0.281698
0.177491
0.0540012
-0.0865282
-0.238674
-0.395948
-0.440752
0
0.943027
2.47561
4.52753
6.76673
8.61133
9.42089
8.78839
6.77048
3.90958
1.0162
-1.17053
-2.26025
-2.29196
-1.54372
-0.78165
-0.114834
0.315077
0.426377
0.464877
0.486467
0.501814
0.520469
0.551107
0.600162
0.672379
0.779501
0.934654
1.1226
1.3029
1.43222
1.479
1.43541
1.32104
1.17606
1.04675
0.970247
0.949852
0.966936
1.00963
1.07243
1.15108
1.2412
1.33849
1.43753
1.53345
1.62324
1.70653
1.78563
1.86503
1.95001
2.04509
2.15265
2.27133
2.3978
2.52841
2.6593
2.78678
2.90755
3.01885
3.1187
3.20537
3.27685
3.32937
3.35714
3.35556
3.32062
3.24968
3.14256
3.00225
2.83474
2.64803
2.45048
2.24925
2.04909
1.85215
1.6597
1.47256
1.29162
1.11805
0.953338
0.799017
0.656444
0.526571
0.409929
0.30682
0.217741
0.143827
0.0868995
0.0487689
0.0313356
0.0359759
0.0628621
0.111725
0.180675
0.263949
0.351463
0.430322
0.488857
0.51923
0.519207
0.49278
0.449308
0.40111
0.360023
0.334
0.32384
0.324509
0.331204
0.338984
0.344655
0.347867
0.351057
0.358363
0.373995
0.400281
0.436257
0.479673
0.527638
0.575974
0.61949
0.653346
0.673985
0.679922
0.672329
0.655247
0.635275
0.620649
0.619813
0.639719
0.682866
0.747671
0.831255
0.927905
1.02802
1.12072
1.19595
1.24588
1.2657
1.25374
1.21102
1.14066
1.04727
0.936934
0.816471
0.69236
0.570486
0.456058
0.353614
0.266887
0.197017
0.142279
0.0995552
0.065529
0.0378193
0.0156735
0
-0.0143769
-0.0182182
-0.0107248
0.00714231
0.033428
0.0654669
0.10078
0.117015
0.344093
1.12141
2.60851
4.64824
6.74922
8.26591
8.68198
7.83819
5.98316
3.64338
1.40558
-0.275816
-1.1804
-1.31342
-0.829399
-0.369916
0.0351136
0.358292
0.582259
0.747614
0.879857
0.985069
1.06893
1.13767
1.19747
1.25397
1.31182
1.37436
1.44346
1.5196
1.60198
1.68896
1.77847
1.8682
1.9559
2.03943
2.11673
2.18607
2.24627
2.29688
2.33851
2.37298
2.40338
2.43379
2.46885
2.51313
2.57043
2.64336
2.73323
2.83999
2.96238
3.0981
3.24406
3.39648
3.55111
3.70162
3.83926
3.95538
4.04257
4.0963
4.11603
4.10513
4.0695
4.01524
3.94632
3.86459
3.76988
3.65991
3.53152
3.38262
3.21304
3.02492
2.82255
2.61176
2.39905
2.19042
1.99083
1.80377
1.63108
1.47305
1.32874
1.19635
1.0734
0.957386
0.846419
0.739679
0.637806
0.543106
0.458718
0.38804
0.333799
0.297339
0.278392
0.275266
0.285538
0.306806
0.337195
0.375427
0.42046
0.470924
0.524825
0.578974
0.629662
0.673482
0.708162
0.73304
0.749008
0.757966
0.76206
0.763014
0.7619
0.759255
0.7555
0.751379
0.7482
0.747837
0.752567
0.764888
0.786828
0.82081
0.86899
0.932789
1.01223
1.10844
1.21753
1.32758
1.42527
1.50006
1.54775
1.5716
1.58027
1.58339
1.58671
1.58863
1.57933
1.54471
1.47234
1.35703
1.20361
1.02609
0.843783
0.675878
0.531094
0.408722
0.308547
0.23009
0.169805
0.121989
0.0808205
0.0413509
0
-0.0455368
-0.0968512
-0.156183
-0.226005
-0.309612
-0.410564
-0.53168
-0.673951
-0.933764
-1.16108
-0.635017
0.872528
3.21501
5.85403
8.02402
9.02106
8.49132
6.57501
3.83572
1.01989
-1.22298
-2.52807
-2.8594
-2.29627
-1.70872
-1.17406
-0.752864
-0.482643
-0.293708
-0.142158
-0.0196987
0.0806681
0.165336
0.239303
0.305706
0.36564
0.418815
0.464153
0.500487
0.527271
0.545002
0.555294
0.560663
0.564153
0.568949
0.577973
0.593709
0.618459
0.654156
0.702278
0.763722
0.838702
0.926648
1.02623
1.13578
1.25327
1.37647
1.50296
1.63014
1.7553
1.87563
1.98867
2.09291
2.18816
2.27579
2.35858
2.44024
2.52457
2.61545
59
227
396
551
699
846
997
1154
1313
1463
1608
1752
1901
2065
2219
2367
2518
2672
2844
3024
3205
3371
3536
3696
0
0
0
0
0
0
0
0
0
0
0
0
0
0
0
0
0
0
0
0
0
0
0
0
0
0
0
0
0
0
0
0
0
0
0
0
0
0
0
0
0
0
0
0
0
0
0
0
0
0
0
0
0
0
0
0
0
0
0
0
0
0
0
0
0
0
0
0
0
0
0
0
0
0
0
0
0
0
0
0
0
0
0
0
0
0
0
0
0
0
0
0
0
0
0
0
0
0
0
0
0
0
0
0
0
0
0
0
0
0
0
0
0
0
0
0
0
0
0
0
0
0
0
0
0
0
0
0
0
0
0
0
0
0
0
0
0
0
0
0
0
0
0
0
0
0
0
0
0
0
0
0
0
0
0
0
0
0
0
0
0
0
0
0
0
0
0
0
0
0
0
0
0
0
0
0
0
0
0
0
0
0
0
0
0
0
0
0
0
0
0
0
0
0
0
0
0
0
0
0
0
0
0
0
0
0
0
0
0
0
0
0
0
0
0
0
0
0
0
0
0
0
0
0
0
0
0
0
0
0
0
0
0
0
0
0
0
0
0
0
0
0
0
0
0
0
0
0
0
0
0
0
0
0
0
0
0
0
0
0
0
0
0
0
0
0
0
0
0
0
0
0
0
0
0
0
0
0
0
0
0
0
0
0
0
0
0
0
0
0
0
0
0
0
0
0
0
0
0
0
0
0
0
0
0
0
0
0
0
0
0
0
0
0
0
0
0
0
0
0
0
0
0
0
0
0
0
0
0
0
0
0
0
0
0
0
0
0
0
0
0
0
0
0
0
0
0
0
0
0
0
0
0
0
0
0
0
0
0
0
0
0
0
0
0
0
0
0
0
0
0
0
0
0
0
0
0
0
0
0
0
0
0
0
0
0
0
0
0
0
0
0
0
0
0
0
0
0
0
0
0
0
0
0
0
0
0
0
0
0
0
0
0
0
0
0
0
0
0
0
0
0
0
0
0
0
0
0
0
0
0
0
0
0
0
0
0
0
0
0
0
0
0
0
0
0
0
0
0
0
0
0
0
0
0
0
0
0
0
0
0
0
0
0
0
0
0
0
0
0
0
0
0
0
0
0
0
0
0
0
0
0
0
0
0
0
0
0
0
0
0
0
0
0
0
0
0
0
0
0
0
0
0
0
0
0
0
0
0
0
0
0
0
0
0
0
0
0
0
0
0
0
0
0
0
0
0
0
0
0
0
0
0
0
0
0
0
0
0
0
0
0
0
0
0
0
0
0
0
0
0
0
0
0
0
0
0
0
0
0
0
0
0
0
0
0
0
0
0
0
0
0
0
0
0
0
0
0
0
0
0
0
0
0
0
0
0
0
0
0
0
0
0
0
0
0
0
0
0
0
0
0
0
0
0
0
0
0
0
0
0
0
0
0
0
0
0
0
0
0
0
0
0
0
0
0
0
0
0
0
0
0
0
0
0
0
0
0
0
0
0
0
0
0
0
0
0
0
0
0
0
0
0
0
0
0
0
0
0
0
0
0
0
0
0
0
0
0
0
0
0
0
0
0
0
0
0
0
0
0
0
0
0
0
0
0
0
0
0
0
0
0
0
0
0
0
0
0
0
0
0
0
0
0
0
0
0
0
0
0
0
0
0
0
0
0
0
0
0
0
0
0
0
0
0
0
0
0
0
0
0
0
0
0
0
0
0
0
0
0
0
0
0
0
0
0
0
0
0
0
0
0
0
0
0
0
0
0
0
0
0
0
0
0
0
0
0
0
0
0
0
0
0
0
0
0
0
0
0
0
0
0
0
0
0
0
0
0
0
0
0
0
0
0
0
0
0
0
0
0
0
0
0
0
0
0
0
0
0
0
0
0
0
0
0
0
0
0
0
0
0
0
0
0
0
0
0
0
0
0
0
0
0
0
0
0
0
0
0
0
0
0
0
0
0
0
0
0
0
0
0
0
0
0
0
0
0
0
0
0
0
0
0
0
0
0
0
0
0
0
0
0
0
0
0
0
0
0
0
0
0
0
0
0
0
0
0
0
0
0
0
0
0
0
0
0
0
0
0
0
0
0
0
0
0
0
0
0
0
0
0
0
0
0
0
0
0
0
0
0
0
0
0
0
0
0
0
0
0
0
0
0
0
0
0
0
0
0
0
0
0
0
0
0
0
0
0
0
0
0
0
0
0
0
0
0
0
0
0
0
0
0
0
0
0
0
0
0
0
0
0
0
0
0
0
0
0
0
0
0
0
0
0
0
0
0
0
0
0
0
0
0
0
0
0
0
0
0
0
0
0
0
0
0
0
0
0
0
0
0
0
0
0
0
0
0
0
0
0
0
0
0
0
0
0
0
0
0
0
0
0
0
0
0
0
0
0
0
0
0
0
0
0
0
0
0
0
0
0
0
0
0
0
0
0
0
0
0
0
0
0
0
0
0
0
0
0
0
0
0
0
0
0
0
0
0
0
0
0
0
0
0
0
0
0
0
0
0
0
0
0
0
0
0
0
0
0
0
0
0
0
0
0
0
0
0
0
0
0
0
0
0
0
0
0
0
0
0
0
0
0
0
0
0
0
0
0
0
0
0
0
0
0
0
0
0
0
0
0
0
0
0
0
0
0
0
0
0
0
0
0
0
0
0
0
0
0
0
0
0
0
0
0
0
0
0
0
0
0
0
0
0
0
0
0
0
0
0
0
0
0
0
0
0
0
0
0
0
0
0
0
0
0
0
0
0
0
0
0
0
0
0
0
0
0
0
0
0
0
0
0
0
0
0
0
0
0
0
0
0
0
0
0
0
0
0
0
0
0
0
0
0
0
0
0
0
0
0
0
0
0
0
0
0
0
0
0
0
0
0
0
0
0
0
0
0
0
0
0
0
0
0
0
0
0
0
0
0
0
0
0
0
0
0
0
0
0
0
0
0
0
0
0
0
0
0
0
0
0
0
0
0
0
0
0
0
0
0
0
0
0
0
0
0
0
0
0
0
0
0
0
0
0
0
0
0
0
0
0
0
0
0
0
0
0
0
0
0
0
0
0
0
0
0
0
0
0
0
0
0
0
0
0
0
0
0
0
0
0
0
0
0
0
0
0
0
0
0
0
0
0
0
0
0
0
0
0
0
0
0
0
0
0
0
0
0
0
0
0
0
0
0
0
0
0
0
0
0
0
0
0
0
0
0
0
0
0
0
0
0
0
0
0
0
0
0
0
0
0
0
0
0
0
0
0
0
0
0
0
0
0
0
0
0
0
0
0
0
0
0
0
0
0
0
0
0
0
0
0
0
0
0
0
0
0
0
0
0
0
0
0
0
0
0
0
0
0
0
0
0
0
0
0
0
0
0
0
0
0
0
0
0
0
0
0
0
0
0
0
0
0
0
0
0
0
0
0
0
0
0
0
0
0
0
0
0
0
0
0
0
0
0
0
0
0
0
0
0
0
0
0
0
0
0
0
0
0
0
0
0
0
0
0
0
0
0
0
0
0
0
0
0
0
0
0
0
0
0
0
0
0
0
0
0
0
0
0
0
0
0
0
0
0
0
0
0
0
0
0
0
0
0
0
0
0
0
0
0
0
0
0
0
0
0
0
0
0
0
0
0
0
0
0
0
0
0
0
0
0
0
0
0
0
0
0
0
0
0
0
0
0
0
0
0
0
0
0
0
0
0
0
0
0
0
0
0
0
0
0
0
0
0
0
0
0
0
0
0
0
0
0
0
0
0
0
0
0
0
0
0
0
0
0
0
0
0
0
0
0
0
0
0
0
0
0
0
0
0
0
0
0
0
0
0
0
0
0
0
0
0
0
0
0
0
0
0
0
0
0
0
0
0
0
0
0
0
0
0
0
0
0
0
0
0
0
0
0
0
0
0
0
0
0
0
0
0
0
0
0
0
0
0
0
0
0
0
0
0
0
0
0
0
0
0
0
0
0
0
0
0
0
0
0
0
0
0
0
0
0
0
0
0
0
0
0
0
0
0
0
0
0
0
0
0
0
0
0
0
0
0
0
0
0
0
0
0
0
0
0
0
0
0
0
0
0
0
0
0
0
0
0
0
0
0
0
0
0
0
0
0
0
0
0
0
0
0
0
0
0
0
0
0
0
0
0
0
0
0
0
0
0
0
0
0
0
0
0
0
0
0
0
0
0
0
0
0
0
0
0
0
0
0
0
0
0
0
0
0
0
0
0
0
0
0
0
0
0
0
0
0
0
0
0
0
0
0
0
0
0
0
0
0
0
0
0
0
0
0
0
0
0
0
0
0
0
0
0
0
0
0
0
0
0
0
0
0
0
0
0
0
0
0
0
0
0
0
0
0
0
0
0
0
0
0
0
0
0
0
0
0
0
0
0
0
0
0
0
0
0
0
0
0
0
0
0
0
0
0
0
0
0
0
0
0
0
0
0
0
0
0
0
0
0
0
0
0
0
0
0
0
0
0
0
0
0
0
0
0
0
0
0
0
0
0
0
0
0
0
0
0
0
0
0
0
0
0
0
0
0
0
0
0
0
0
0
0
0
0
0
0
0
0
0
0
0
0
0
0
0
0
0
0
0
0
0
0
0
0
0
0
0
0
0
0
0
0
0
0
0
0
0
0
0
0
0
0
0
0
0
0
0
0
0
0
0
0
0
0
0
0
0
0
0
0
0
0
0
0
0
0
0
0
0
0
0
0
0
0
0
0
0
0
0
0
0
0
0
0
0
0
0
0
0
0
0
0
0
0
0
0
0
0
0
0
0
0
0
0
0
0
0
0
0
0
0
0
0
0
0
0
0
0
0
0
0
0
0
0
0
0
0
0
0
0
0
0
0
0
0
0
0
0
0
0
0
0
0
0
0
0
0
0
0
0
0
0
0
0
0
0
0
0
0
0
0
0
0
0
0
0
0
0
0
0
0
0
0
0
0
0
0
0
0
0
0
0
0
0
0
0
0
0
0
0
0
0
0
0
0
0
0
0
0
0
0
0
0
0
0
0
0
0
0
0
0
0
0
0
0
0
0
0
0
0
0
0
0
0
0
0
0
0
0
0
0
0
0
0
0
0
0
0
0
0
0
0
0
0
0
0
0
0
0
0
0
0
0
0
0
0
0
0
0
0
0
0
0
0
0
0
0
0
0
0
0
0
0
0
0
0
0
0
0
0
0
0
0
0
0
0
0
0
0
0
0
0
0
0
0
0
0
0
0
0
0
0
0
0
0
0
0
0
0
0
0
0
0
0
0
0
0
0
0
0
0
0
0
0
0
0
0
0
0
0
0
0
0
0
0
0
0
0
0
0
0
0
0
0
0
0
0
0
0
0
0
0
0
0
0
0
0
0
0
0
0
0
0
0
0
0
0
0
0
0
0
0
0
0
0
0
0
0
0
0
0
0
0
0
0
0
0
0
0
0
0
0
0
0
0
0
0
0
0
0
0
0
0
0
0
0
0
0
0
0
0
0
0
0
0
0
0
0
0
0
0
0
0
0
0
0
0
0
0
0
0
0
0
0
0
0
0
0
0
0
0
0
0
0
0
0
0
0
0
0
0
0
0
0
0
0
0
0
0
0
0
0
0
0
0
0
0
0
0
0
0
0
0
0
0
0
0
0
0
0
0
0
0
0
0
0
0
0
0
0
0
0
0
0
0
0
0
0
0
0
0
0
0
0
0
0
0
0
0
0
0
0
0
0
0
0
0
0
0
0
0
0
0
0
0
0
0
0
0
0
0
0
0
0
0
0
0
0
0
0
0
0
0
0
0
0
0
0
0
0
0
0
0
0
0
0
0
0
0
0
0
0
0
0
0
0
0
0
0
0
0
0
0
0
0
0
0
0
0
0
0
0
0
0
0
0
0
0
0
0
0
0
0
0
0
0
0
0
0
0
0
0
0
0
0
0
0
0
0
0
0
0
0
0
0
0
0
0
0
0
0
0
0
0
0
0
0
0
0
0
0
0
0
0
0
0
0
0
0
0
0
0
0
0
0
0
0
0
0
0
0
0
0
0
0
0
0
0
0
0
0
0
0
0
0
0
0
0
0
0
0
0
0
0
0
0
0
0
0
0
0
0
0
0
0
0
0
0
0
0
0
0
0
0
0
0
0
0
0
0
0
0
0
0
0
0
0
0
0
0
0
0
0
0
0
0
0
0
0
0
0
0
0
0
0
0
0
0
0
0
0
0
0
0
0
0
0
0
0
0
0
0
0
0
0
0
0
0
0
0
0
0
0
0
0
0
0
0
0
0
0
0
0
0
0
0
0
0
0
0
0
0
0
0
0
0
0
0
0
0
0
0
0
0
0
0
0
0
0
0
0
0
0
0
0
0
0
0
0
0
0
0
0
0
0
0
0
0
0
0
0
0
0
0
0
0
0
0
0
0
0
0
0
0
0
0
0
0
0
0
0
0
0
0
0
0
0
0
0
0
0
0
0
0
0
0
0
0
0
0
0
0
0
0
0
0
0
0
0
0
0
0
0
0
0
0
0
0
0
0
0
0
0
0
0
0
0
0
0
0
0
0
0
0
0
0
0
0
0
0
0
0
0
0
0
0
0
0
0
0
0
0
0
0
0
0
0
0
0
0
0
0
0
0
0
0
0
0
0
0
0
0
0
0
0
0
0
0
0
0
0
0
0
0
0
0
0
0
0
0
0
0
0
0
0
0
0
0
0
0
0
0
0
0
0
0
0
0
0
0
0
0
0
0
0
0
0
0
0
0
0
0
0
0
0
0
0
0
0
0
0
0
0
0
0
0
0
0
0
0
0
0
0
0
0
0
0
0
0
0
0
0
0
0
0
0
0
0
0
0
0
0
0
0
0
0
0
0
0
0
0
0
0
0
0
0
0
0
0
0
0
0
0
0
0
0
0
0
0
0
0
0
0
0
0
0
0
0
0
0
0
0
0
0
0
0
0
0
0
0
0
0
0
0
0
0
0
0
0
0
0
0
0
0
0
0
0
0
0
0
0
0
0
0
0
0
0
0
0
0
0
0
0
0
0
0
0
0
0
0
0
0
0
0
0
0
0
0
0
0
0
0
0
0
0
0
0
0
0
0
0
0
0
0
0
0
0
0
0
0
0
0
0
0
0
0
0
0
0
0
0
0
0
0
0
0
0
0
0
0
0
0
0
0
0
0
0
0
0
0
0
0
0
0
0
0
0
0
0
0
0
0
0
0
0
0
0
0
0
0
0
0
0
0
0
0
0
0
0
0
0
0
0
0
0
0
0
0
0
0
0
0
0
0
0
0
0
0
0
0
0
0
0
0
0
0
0
0
0
0
0
0
0
0
0
0
0
0
0
0
0
0
0
0
0
0
0
0
0
0
0
0
0
0
0
0
0
0
0
0
0
0
0
0
0
0
0
0
0
0
0
0
0
0
0
0
0
0
0
0
0
0
0
0
0
0
0
0
0
0
0
0
0
0
0
0
0
0
0
0
0
0
0
0
0
0
0
0
0
0
0
0
0
0
0
0
0
0
0
0
0
0
0
0
0
0
0
0
0
0
0
0
0
0
0
0
0
0
0
0
0
0
0
0
0
0
0
0
0
0
0
0
0
0
0
0
0
0
0
0
0
0
0
0
0
0
0
0
0
0
0
0
0
0
0
0
0
0
0
0
0
0
0
0
0
0
0
0
0
0
0
0
0
0
0
0
0
0
0
0
0
0
0
0
0
0
0
0
0
0
0
0
0
0
0
0
0
0
0
0
0
0
0
0
0
0
0
0
0
0
0
0
0
0
0
0
0
0
0
0
0
0
0
0
0
0
0
0
0
0
0
0
0
0
0
0
0
0
0
0
0
0
0
0
0
0
0
0
0
0
0
0
0
0
0
0
0
0
0
0
0
0
0
0
0
0
0
0
0
0
0
0
0
0
0
0
0
0
0
0
0
0
0
0
0
0
0
0
0
0
0
0
0
0
0
0
0
0
0
0
0
0
0
0
0
0
0
0
0
0
0
0
0
0
0
0
0
0
0
0
0
0
0
0
0
0
0
0
0
0
0
0
0
0
0
0
0
0
0
0
0
0
0
0
0
0
0
0
0
0
0
0
0
0
0
0
0
0
0
0
0
0
0
0
0
0
0
0
0
0
0
0
0
0
0
0
0
0
0
0
0
0
0
0
0
0
0
0
0
0
0
0
0
0
0
0
0
0
0
0
0
0
0
0
0
0
0
0
0
0
0
0
0
0
0
0
0
0
0
0
0
0
0
0
0
0
0
0
0
0
0
0
0
0
0
0
0
0
0
0
0
0
0
0
0
0
0
0
0
0
0
0
0
0
0
0
0
0
0
0
0
0
0
0
0
0
0
0
0
0
0
0
0
0
0
0
0
0
0
0
0
0
0
0
0
0
0
0
0
0
0
0
0
0
0
0
0
0
0
0
0
0
0
0
0
0
0
0
0
0
0
0
0
0
0
0
0
0
0
0
0
0
0
0
0
0
0
0
0
0
0
0
0
0
0
