3.52625
3.42916
3.31504
3.19191
3.06294
2.92752
2.78315
2.62649
2.45457
2.26553
2.05937
1.83867
1.60842
1.37546
1.14736
0.932599
0.73814
0.566293
0.416329
0.285919
0.172771
0.0756754
-0.00542393
-0.0701666
-0.117712
-0.149329
-0.166976
-0.172209
-0.1652
-0.144632
-0.108714
-0.0569323
0.00839672
0.0813011
0.1541
0.218655
0.268412
0.299921
0.313346
0.311923
0.30073
0.285379
0.270411
0.258541
0.251241
0.24894
0.251212
0.256876
0.264158
0.271261
0.276785
0.279954
0.280614
0.278982
0.275239
0.268931
0.25912
0.244439
0.223768
0.197067
0.16601
0.13412
0.106255
0.0875854
0.0823195
0.0915541
0.1167
0.156393
0.204072
0.248787
0.279439
0.287284
0.267961
0.222601
0.157727
0.0839273
0.0136444
-0.0415745
-0.0764208
-0.0910147
-0.0868137
-0.0653748
-0.0297705
0.0157618
0.0658873
0.115662
0.161252
0.20034
0.232132
0.25701
0.275997
0.290213
0.300591
0.307697
0.311897
0.31363
0.313633
0.31301
0.313161
0.315571
0.32147
0.331606
0.346238
0.364993
0.386717
0.40936
0.429769
0.443768
0.447092
0.436031
0.408245
0.363408
0.303502
0.232649
0.156515
0.0814493
0.0133329
-0.0438354
-0.0864246
-0.112401
-0.121148
-0.113258
-0.0893637
-0.0511856
0
0.0641691
0.142143
0.236035
0.348325
0.480889
0.634065
0.805807
0.997404
1.24771
1.51002
1.9982
2.92745
4.27628
5.72386
6.76682
6.94748
6.06889
4.29352
2.08841
0.0445751
-1.35395
-1.89134
-1.62474
-1.10473
-0.514197
-0.0527187
0.197501
0.32403
0.419247
0.500842
0.569162
0.624058
0.668093
0.707195
0.750394
0.808443
0.895509
1.05383
1.2816
1.52325
1.70888
1.78771
1.75186
1.63874
1.51249
1.43503
1.44164
1.50193
1.58761
1.68848
1.80094
1.92312
2.05517
2.19877
2.3561
2.52854
2.71533
2.91407
3.11771
3.31465
3.49265
3.64152
3.75506
3.83169
3.87362
3.88512
3.8706
3.83545
3.7831
3.71384
3.62714
3.52239
3.39941
3.25877
3.10206
2.93161
2.75011
2.56042
2.36515
2.16644
1.96585
1.76453
1.56345
1.36386
1.16757
0.977074
0.795476
0.626109
0.472084
0.335826
0.218954
0.122223
0.0447931
-0.0150269
-0.0593718
-0.0903515
-0.109593
-0.117697
-0.113435
-0.0956923
-0.0631699
-0.0154411
0.0487282
0.125295
0.20435
0.274345
0.325242
0.351107
0.351068
0.328402
0.28846
0.236614
0.178309
0.117093
0.0552439
-0.00480919
-0.0602362
-0.107945
-0.14496
-0.168935
-0.178632
-0.174225
-0.157326
-0.130657
-0.0977724
-0.0623533
-0.0276354
0.00400314
0.031218
0.0536491
0.0716223
0.0861357
0.0985537
0.110462
0.123518
0.139198
0.158428
0.181791
0.20714
0.228741
0.239301
0.232437
0.205362
0.16064
0.10622
0.0536661
0.0152624
-0.000723076
0.00596943
0.035132
0.0861689
0.156614
0.242584
0.340622
0.445581
0.547367
0.63321
0.690618
0.709915
0.687113
0.625848
0.537202
0.437119
0.342177
0.264702
0.205834
0.162167
0.131385
0.110993
0.0978962
0.0889687
0.0814798
0.0733645
0.0633675
0.0511101
0.0370903
0.0225525
0.00954132
0.000345039
-0.00314007
0
0.0137701
0.032032
0.0522585
0.0718555
0.0889177
0.102844
0.113675
0.119538
0.390403
0.97673
1.8864
3.09781
4.49054
5.80597
6.67324
6.71486
5.7096
3.74108
1.23777
-1.14684
-2.78311
-3.32585
-2.84506
-1.75371
-0.586116
0.250029
0.614195
0.638914
0.754722
0.887388
1.0482
1.21955
1.36624
1.45194
1.45869
1.39904
1.31391
1.25617
1.2673
1.35249
1.47397
1.60943
1.74913
1.88621
2.0166
2.13928
2.25568
2.36857
2.48082
2.59427
2.70931
2.82502
2.93968
3.05129
3.15829
3.2602
3.35808
3.45447
3.5531
3.65812
3.77326
3.90227
4.05085
4.21406
4.37528
4.51477
4.61571
4.66864
4.67232
4.63087
4.54951
4.43095
4.28031
4.10354
3.90341
3.68053
3.43698
3.17672
2.90586
2.63094
2.35823
2.09347
1.84128
1.60478
1.38566
1.18448
1.00132
0.837748
0.695546
0.576265
0.481802
0.413709
0.372479
0.357079
0.364833
0.391628
0.432309
0.48097
0.531908
0.578858
0.616209
0.639638
0.646701
0.637259
0.613556
0.579846
0.54159
0.504413
0.472797
0.44913
0.434316
0.428753
0.431988
0.443171
0.461714
0.487641
0.521639
0.564744
0.617762
0.681281
0.755413
0.835392
0.912606
0.977878
1.02412
1.04833
1.05206
1.04009
1.01804
0.989783
0.956527
0.91765
0.871083
0.815277
0.750389
0.6789
0.605519
0.536385
0.477804
0.433693
0.406412
0.39741
0.405298
0.425888
0.453563
0.482968
0.510227
0.53374
0.554368
0.574968
0.599391
0.631204
0.672668
0.724936
0.78429
0.844032
0.896435
0.934711
0.9546
0.955135
0.938476
0.908974
0.871779
0.831595
0.791026
0.750652
0.709512
0.66567
0.617022
0.562155
0.50096
0.434787
0.366111
0.297884
0.232865
0.172885
0.11945
0.073816
0.0374599
0.01215
0
0.00205941
0.0210275
0.057498
0.110693
0.178403
0.262405
0.435703
0.911753
1.72291
2.8732
4.26646
5.70788
6.90789
7.51821
7.23646
5.9658
3.93121
1.64396
-0.301583
-1.48652
-1.80711
-1.4506
-0.84963
-0.19998
0.327362
0.604193
0.68583
0.739081
0.789273
0.841896
0.900604
0.967463
1.04249
1.1237
1.20783
1.29038
1.36682
1.43359
1.48886
1.53291
1.568
1.59791
1.62722
1.66044
1.70127
1.75185
1.813
1.88451
1.96539
2.05415
2.14929
2.24949
2.35403
2.46292
2.57665
2.69575
2.82018
2.94874
3.0788
3.20584
3.32413
3.4278
3.51187
3.57299
3.60963
3.62178
3.61025
3.57588
3.51974
3.44294
3.34551
3.22734
3.08898
2.93187
2.75854
2.57242
2.37753
2.17788
1.97722
1.77879
1.58521
1.39857
1.2205
1.05235
0.895202
0.749845
0.616918
0.496544
0.38798
0.290427
0.203641
0.128545
0.0675729
0.024535
0.00653281
0.0402514
0.164706
0.349788
0.539775
0.676242
0.722452
0.675572
0.56098
0.414971
0.269793
0.15113
0.0648507
0.0086431
-0.0153223
-0.00416417
0.0546448
0.14755
0.252364
0.345678
0.410458
0.441002
0.443218
0.430523
0.417593
0.414768
0.421254
0.43478
0.452053
0.468137
0.478357
0.479483
0.470439
0.452392
0.428254
0.401745
0.376301
0.354002
0.334987
0.318362
0.302496
0.285402
0.26564
0.243055
0.219239
0.197546
0.1826
0.179383
0.193913
0.233741
0.303181
0.394772
0.487851
0.559967
0.593407
0.580337
0.525444
0.445384
0.36483
0.309748
0.299064
0.329484
0.405622
0.510154
0.6128
0.68411
0.705601
0.675888
0.610229
0.533446
0.469199
0.430496
0.410047
0.397435
0.385798
0.369046
0.343434
0.308212
0.26533
0.21851
0.172085
0.129449
0.0926225
0.0626957
0.0399285
0.0237932
0.0130738
0.00588274
0
-0.00420208
-0.010768
-0.0205222
-0.0334308
-0.0488811
-0.0682817
0.167115
0.759636
1.75723
3.13666
4.74207
6.26131
7.2831
7.43771
6.56247
4.79818
2.5567
0.376714
-1.25974
-2.07353
-1.97091
-1.38578
-0.554572
0.209683
0.713738
0.869921
0.918005
0.943665
0.953245
0.949644
0.938076
0.925449
0.919169
0.925709
0.9494
0.990222
1.04551
1.11281
1.19036
1.27641
1.36942
1.46802
1.57085
1.67643
1.78325
1.88991
1.99557
2.1002
2.20474
2.31101
2.42129
2.53781
2.66219
2.79503
2.93582
3.08303
3.23425
3.3864
3.53584
3.67841
3.80959
3.92464
4.01924
4.09047
4.13645
4.15658
4.15137
4.12225
4.07102
3.99935
3.90836
3.79877
3.67174
3.52817
3.3685
3.19343
3.0047
2.8052
2.59889
2.39036
2.18417
1.98422
1.7934
1.61275
1.44171
1.27911
1.12431
0.978955
0.848313
0.739154
0.659147
0.614144
0.610518
0.649585
0.715112
0.786378
0.8449
0.88012
0.89185
0.888813
0.884184
0.890072
0.911454
0.944873
0.986785
1.03091
1.07019
1.09846
1.11187
1.10955
1.09366
1.06878
1.0407
1.01507
0.996034
0.985571
0.984066
0.99123
1.00675
1.03108
1.06582
1.11336
1.18268
1.28495
1.40589
1.51884
1.5942
1.61199
1.5705
1.48611
1.38497
1.29124
1.21809
1.15914
1.10788
1.06131
1.01809
0.978417
0.944383
0.919439
0.907576
0.912042
0.934222
0.97301
1.02483
1.08429
1.14522
1.2019
1.25066
1.2891
1.31591
1.33082
1.33419
1.32657
1.30853
1.28073
1.24428
1.20001
1.1506
1.10396
1.07118
1.06332
1.088
1.14636
1.23192
1.33172
1.42949
1.5096
1.56505
1.59028
1.58405
1.54874
1.48914
1.41137
1.32299
1.23103
1.14162
1.06089
0.994157
0.945381
0.916397
0.906493
0.912413
0.928855
0.949276
0.966762
0.974951
0.968081
0.941269
0.8907
0.81423
0.703951
0.557765
0.384075
0.195394
0
0.375662
1.35442
2.84796
4.64196
6.46521
8.02019
8.9891
9.06894
8.07728
6.08387
3.4686
0.833113
-1.21469
-2.29183
-2.35564
-1.68985
-0.685202
0.312743
1.11535
1.6401
1.75721
1.81145
1.8483
1.8685
1.87494
1.87229
1.8664
1.8636
1.86939
1.88799
1.92297
1.97627
2.04779
2.1352
2.23455
2.34066
2.44717
2.54867
2.6418
2.72601
2.80352
2.8787
2.95699
3.04348
3.14179
3.25258
3.37457
3.50518
3.64068
3.77675
3.90906
4.03378
4.14761
4.2482
4.33489
4.40834
4.47029
4.52318
4.56947
4.61048
4.64523
4.66954
4.67565
4.65336
4.59256
4.48586
4.33023
4.1272
3.88189
3.60169
3.29884
2.98405
2.66412
2.34504
2.03273
1.73284
1.4504
1.18969
0.954051
0.747124
0.573819
0.43589
0.333123
0.263829
0.224523
0.209824
0.21283
0.225977
0.242223
0.256222
0.26525
0.269204
0.270327
0.272434
0.279804
0.295623
0.322817
0.365459
0.424417
0.488199
0.540098
0.564364
0.552423
0.507152
0.442917
0.380759
0.340492
0.333118
0.349055
0.378326
0.412335
0.442399
0.461837
0.467249
0.458752
0.439271
0.413245
0.385277
0.358756
0.335415
0.315888
0.300106
0.287548
0.277619
0.269906
0.264288
0.260872
0.259881
0.261593
0.266056
0.273312
0.283587
0.297425
0.315634
0.339017
0.367944
0.401969
0.439608
0.478648
0.516517
0.550843
0.57991
0.602838
0.619438
0.62985
0.633841
0.631097
0.620965
0.602757
0.576181
0.541701
0.500661
0.455166
0.407791
0.361251
0.317936
0.279897
0.249035
0.226808
0.214056
0.211234
0.218147
0.232636
0.250679
0.268026
0.28128
0.288719
0.290508
0.288167
0.283503
0.27746
0.269375
0.257001
0.237279
0.207569
0.16682
0.116229
0.059129
0
-0.0416
0.30198
0.9763
1.98099
3.26747
4.7013
6.01696
6.81994
6.69942
5.44299
3.22809
0.627697
-1.61971
-2.9501
-3.20672
-2.6381
-1.67847
-0.713149
0.0513207
0.564867
0.747833
0.772904
0.784135
0.793436
0.807772
0.833862
0.876896
0.938997
1.01775
1.1095
1.20939
1.31038
1.40615
1.49255
1.56845
1.63564
1.69793
1.75964
1.82406
1.89256
1.96442
2.03799
2.11175
2.18547
2.26101
2.34228
2.43456
2.54335
2.6731
2.82456
2.99699
3.18882
3.39709
3.61838
3.84848
4.07993
4.30004
4.49339
4.6462
4.7469
4.7874
4.76382
4.67645
4.52893
4.32715
4.07847
3.79422
3.48819
3.17181
2.85323
2.53855
2.23308
1.94109
1.66549
1.40764
1.16763
0.944866
0.738751
0.549278
0.377286
0.224265
0.0931533
-0.0102747
-0.0832279
-0.13477
-0.177482
-0.223292
-0.278959
-0.343322
-0.407733
-0.45964
-0.487858
-0.489299
-0.465965
-0.426872
-0.38443
-0.350201
-0.331182
-0.327842
-0.334393
-0.34095
-0.336704
-0.31413
-0.27176
-0.205257
-0.114972
-0.0126426
0.0796838
0.140113
0.152849
0.113654
0.0331024
-0.0645471
-0.147924
-0.188942
-0.175397
-0.124683
-0.0481488
0.0410792
0.127784
0.195961
0.234072
0.236274
0.203112
0.141652
0.0646065
-0.0121245
-0.0734322
-0.109254
-0.119755
-0.113388
-0.0950572
-0.0696192
-0.0401673
-0.00727639
0.0305726
0.0756699
0.129475
0.190544
0.256095
0.322526
0.385455
0.440608
0.484473
0.514638
0.529778
0.529415
0.513668
0.483161
0.439546
0.384943
0.322587
0.256813
0.192681
0.135282
0.0893147
0.0578608
0.0415114
0.0386126
0.0456699
0.0581676
0.0709096
0.0782245
0.0761337
0.0634159
0.0423641
0.0188758
0.00157633
0
0.0230983
0.0747458
0.150113
0.246178
0.357471
0.482524
0.617974
0.939912
1.57396
2.56067
3.85831
5.28921
6.49571
6.99989
6.41187
4.69081
2.26841
-0.104444
-1.72706
-2.2961
-1.98598
-1.31318
-0.668268
-0.222266
0.0830184
0.322199
0.464957
0.566096
0.640209
0.692093
0.724647
0.743315
0.755147
0.767639
0.787373
0.818452
0.863297
0.923275
0.998424
1.08731
1.18713
1.29425
1.40417
1.51208
1.61399
1.7075
1.79225
1.86999
1.94413
2.01903
2.09915
2.18801
2.2875
2.39822
2.51954
2.64956
2.78555
2.92402
3.06089
3.19171
3.31116
3.41228
3.48788
3.53288
3.54321
3.51668
3.4537
3.35752
3.23373
3.08897
2.92947
2.76078
2.5868
2.40921
2.22864
2.04554
1.86045
1.67413
1.48764
1.30228
1.11943
0.940431
0.766436
0.598356
0.436964
0.283117
0.138022
0.00344489
-0.118305
-0.224602
-0.312334
-0.377981
-0.419278
-0.438162
-0.441953
-0.439126
-0.43684
-0.438823
-0.444413
-0.449162
-0.446796
-0.431816
-0.40188
-0.360215
-0.312287
-0.263143
-0.217949
-0.181072
-0.155384
-0.141981
-0.140266
-0.148279
-0.163011
-0.180945
-0.198565
-0.212563
-0.2201
-0.218974
-0.207389
-0.184568
-0.153384
-0.121008
-0.0952717
-0.0820762
-0.0831579
-0.0951664
-0.110601
-0.12042
-0.117389
-0.099393
-0.068793
-0.0328337
-0.000528407
0.0205791
0.0268103
0.0189822
0.00119752
-0.0214222
-0.0448464
-0.0672271
-0.0881479
-0.107193
-0.123265
-0.134212
-0.137078
-0.128879
-0.107607
-0.0739006
-0.0300784
0.0208878
0.0750262
0.127571
0.174046
0.211349
0.238168
0.255
0.263731
0.266883
0.26672
0.264437
0.259871
0.251592
0.237595
0.216213
0.186913
0.150683
0.109928
0.067953
0.0281991
-0.00694535
-0.0361311
-0.0587908
-0.0754745
-0.0880322
-0.0997235
-0.114978
-0.138382
-0.173587
-0.222678
-0.289216
-0.36426
-0.427677
-0.456319
-0.431309
-0.344539
-0.201914
0
0.430517
0.93434
1.72614
2.96018
4.5476
6.13118
7.2151
7.37679
6.45522
4.63496
2.39303
0.326852
-1.06978
-1.57975
-1.1341
-0.52584
0.140763
0.666057
0.898798
0.960876
0.986425
0.992868
0.986138
0.972543
0.958665
0.950493
0.952998
0.970354
1.00494
1.05683
1.1231
1.19939
1.28167
1.36631
1.45093
1.53479
1.61874
1.70479
1.79551
1.89313
1.99918
2.1145
2.239
2.37158
2.51023
2.65223
2.79452
2.93408
3.06838
3.19568
3.31527
3.42747
3.53351
3.63522
3.7346
3.83337
3.93254
4.03149
4.12587
4.20768
4.26677
4.29324
4.27996
4.22425
4.12825
3.99777
3.84028
3.66331
3.47395
3.27658
3.07353
2.86616
2.65589
2.44455
2.23444
2.02818
1.82847
1.63797
1.45923
1.29473
1.147
1.01902
0.913207
0.831335
0.776418
0.753139
0.75857
0.782063
0.811852
0.838576
0.858131
0.872656
0.889189
0.916548
0.961643
1.03091
1.12056
1.21396
1.29092
1.3344
1.33612
1.2992
1.23752
1.17158
1.12195
1.10141
1.10661
1.12955
1.16047
1.18853
1.20528
1.20719
1.19631
1.17903
1.16349
1.15691
1.16175
1.17668
1.19964
1.22796
1.25779
1.28226
1.29321
1.28304
1.24686
1.1846
1.10226
1.0116
0.927896
0.87464
0.888212
0.957662
1.04551
1.10617
1.10774
1.04616
0.945882
0.848138
0.79296
0.800814
0.853794
0.94034
1.03308
1.10286
1.1277
1.09928
1.02508
0.926006
0.830277
0.765957
0.75991
0.89901
1.17155
1.47581
1.69562
1.7432
1.59332
1.29349
0.944171
0.659593
0.526663
0.496144
0.505678
0.533949
0.574274
0.619666
0.663547
0.700409
0.726036
0.737578
0.733393
0.712792
0.675865
0.623478
0.557945
0.48246
0.401076
0.318873
0.241686
0.175017
0.123
0.0889128
0.073789
0.0730976
0.0793415
0.0847601
0.0834229
0.072538
0.0502655
-0.129241
0
0.733562
2.1527
4.05043
5.95963
7.31059
7.64031
6.76446
4.84812
2.35464
-0.101394
-1.94957
-2.84513
-2.70139
-1.99073
-1.06
-0.313123
0.0221844
0.0232553
0.0497704
0.0890116
0.149741
0.222682
0.287995
0.323586
0.315533
0.265534
0.191783
0.122912
0.0878176
0.103949
0.159179
0.239686
0.337761
0.447834
0.56425
0.681879
0.79649
0.904257
1.00183
1.08771
1.16164
1.22477
1.27976
1.33058
1.38199
1.43866
1.50432
1.58103
1.6686
1.76655
1.87479
1.99394
2.12793
2.28758
2.48692
2.7149
2.93216
3.0926
3.16161
3.1271
2.99977
2.8055
2.57492
2.33341
2.09182
1.84643
1.59204
1.32578
1.04634
0.753783
0.450706
0.143276
-0.158912
-0.44383
-0.698936
-0.899672
-1.01569
-1.04795
-1.02541
-0.984855
-0.958971
-0.967948
-1.01691
-1.09834
-1.19728
-1.29675
-1.3836
-1.45234
-1.50186
-1.53232
-1.54405
-1.53739
-1.51325
-1.4737
-1.4216
-1.36076
-1.29658
-1.23448
-1.17912
-1.13383
-1.1004
-1.07917
-1.06953
-1.07039
-1.08045
-1.09834
-1.12287
-1.15254
-1.18531
-1.21859
-1.24935
-1.27454
-1.29158
-1.29874
-1.29542
-1.28204
-1.25975
-1.23004
-1.19435
-1.1539
-1.10978
-1.06297
-1.01562
-0.971773
-0.936827
-0.916475
-0.915171
-0.93458
-0.972581
-1.02324
-1.07781
-1.12653
-1.16122
-1.17805
-1.17722
-1.16032
-1.1297
-1.08874
-1.04116
-0.990321
-0.938643
-0.887637
-0.838147
-0.790766
-0.746299
-0.7061
-0.672094
-0.6467
-0.632414
-0.631274
-0.64438
-0.671622
-0.711665
-0.762164
-0.820115
-0.8821
-0.944812
-1.00516
-1.05981
-1.10441
-1.13399
-1.14417
-1.13111
-1.09253
-1.0286
-0.942564
-0.840634
-0.731274
-0.623865
-0.526607
-0.443991
-0.379722
-0.335134
-0.309197
-0.298804
-0.299308
-0.309521
-0.30452
0
0.685198
1.7795
3.1788
4.59989
5.61093
5.76871
4.82406
2.88772
0.444852
-1.8194
-3.29929
-3.70242
-3.13307
-1.97224
-0.69147
0.329427
0.881506
0.851005
0.819521
0.806488
0.828865
0.897478
1.01419
1.16306
1.33006
1.5062
1.68367
1.85614
2.01923
2.17042
2.30846
2.43251
2.5429
2.64044
2.7266
2.80392
2.87625
2.94869
3.02713
3.11751
3.22459
3.35074
3.49641
3.65998
3.83773
4.02433
4.21368
4.39974
4.57732
4.7426
4.89326
5.02821
5.14708
5.24923
5.3334
5.39816
5.44146
5.46024
5.45091
5.40983
5.33389
5.22102
5.07051
4.88314
4.66265
4.41383
4.14075
3.84698
3.5361
3.21196
2.87923
2.54379
2.21281
1.89456
1.59771
1.33046
1.09913
0.90747
0.756309
0.643633
0.565124
0.516935
0.493513
0.487968
0.494771
0.510386
0.533429
0.564294
0.604312
0.654654
0.715333
0.784252
0.858086
0.932822
1.00442
1.06973
1.12712
1.17672
1.22009
1.25948
1.29674
1.33201
1.36158
1.37722
1.36865
1.32825
1.25551
1.15918
1.05551
0.962953
0.895817
0.855584
0.83955
0.839698
0.846454
0.852381
0.854301
0.853162
0.85207
0.853604
0.857427
0.861051
0.860631
0.852033
0.832297
0.800845
0.760072
0.715126
0.672938
0.64076
0.6237
0.624139
0.642418
0.676944
0.723164
0.773562
0.820452
0.857522
0.880869
0.8893
0.883873
0.866903
0.840853
0.807783
0.769071
0.725285
0.676626
0.623638
0.567552
0.510335
0.454471
0.402546
0.35673
0.31858
0.288767
0.267
0.252455
0.24418
0.241426
0.243766
0.250951
0.262635
0.278011
0.29476
0.308664
0.314376
0.30649
0.280778
0.235255
0.170709
0.0905426
-0.0542942
0
0.559777
1.73508
3.40101
5.20019
6.65427
7.3209
6.93359
5.49127
3.282
0.829558
-1.25002
-2.45988
-2.61344
-1.90823
-0.91175
-0.069204
0.332246
0.355653
0.438432
0.530487
0.628756
0.726509
0.813923
0.881265
0.922565
0.938272
0.935807
0.927891
0.929252
0.952192
0.999457
1.06896
1.15719
1.25969
1.37061
1.4833
1.59165
1.69103
1.77889
1.85488
1.9204
1.97934
2.03712
2.10019
2.17554
2.26988
2.38873
2.53531
2.71649
2.94299
3.1919
3.42398
3.60225
3.70507
3.73316
3.70788
3.66149
3.62364
3.60951
3.60889
3.60876
3.59046
3.53472
3.42671
3.25974
3.03671
2.7691
2.47402
2.17055
1.87454
1.59298
1.33149
1.09461
0.886139
0.708985
0.560966
0.438403
0.337185
0.253765
0.185761
0.131927
0.0915154
0.0653385
0.0512836
0.0428951
0.0321304
0.0117401
-0.0221348
-0.068343
-0.120869
-0.170804
-0.209423
-0.231715
-0.239201
-0.234345
-0.221537
-0.20559
-0.190268
-0.177444
-0.167056
-0.157691
-0.147386
-0.134468
-0.117923
-0.0967331
-0.0700283
-0.0371391
0.00224342
0.0478039
0.098345
0.151797
0.20481
0.253246
0.292901
0.320178
0.332652
0.329417
0.311155
0.279981
0.239134
0.192604
0.144661
0.0991617
0.0592775
0.027314
0.00474205
-0.00831966
-0.0131863
-0.0122631
-0.00866871
-0.00577011
-0.00637245
-0.0121088
-0.0231005
-0.0379253
-0.0538979
-0.0676085
-0.0755968
-0.0750053
-0.0643789
-0.0439085
-0.0146599
0.0217381
0.0629789
0.105907
0.14659
0.181117
0.206197
0.219715
0.221196
0.212043
0.195428
0.175774
0.157893
0.145825
0.142218
0.149272
0.163485
0.177605
0.18367
0.175711
0.151585
0.113175
0.0649855
0.01194
-0.0425005
-0.0970346
-0.151712
-0.206883
-0.262668
-0.318663
-0.373903
-0.427049
-0.476658
-0.521425
-0.560348
-0.59278
-0.61466
-0.499117
0
0.866668
2.10648
3.65181
5.32633
6.80556
7.64026
7.40513
5.93399
3.49581
0.756413
-1.50093
-2.73729
-2.8729
-2.20391
-1.34521
-0.576612
-0.0904415
-0.0161098
-0.01553
-0.0129774
0.00309105
0.0423729
0.113844
0.232497
0.379487
0.522052
0.627403
0.675034
0.663834
0.611132
0.544578
0.490971
0.467207
0.467104
0.48177
0.506629
0.53913
0.577543
0.621382
0.67146
0.729664
0.798579
0.880968
0.979392
1.096
1.23211
1.38771
1.56113
1.75211
1.95638
2.15657
2.33254
2.46726
2.55191
2.58831
2.58759
2.56544
2.53593
2.50624
2.47485
2.43667
2.38418
2.30939
2.20553
2.06851
1.89772
1.69625
1.47024
1.22778
0.977692
0.72771
0.483451
0.249296
0.0285488
-0.176246
-0.362988
-0.529899
-0.674922
-0.795372
-0.890712
-0.961674
-1.00952
-1.03557
-1.04097
-1.02505
-0.979222
-0.898706
-0.799399
-0.705102
-0.640841
-0.624138
-0.658923
-0.734558
-0.829281
-0.915907
-0.969723
-0.985993
-0.969656
-0.923885
-0.853049
-0.769421
-0.686077
-0.61304
-0.554667
-0.509334
-0.471447
-0.434745
-0.395361
-0.353843
-0.312643
-0.274964
-0.24395
-0.221725
-0.2088
-0.203947
-0.204521
-0.207101
-0.208315
-0.205644
-0.197894
-0.184987
-0.168544
-0.151298
-0.13611
-0.125063
-0.118774
-0.11613
-0.114518
-0.110511
-0.100799
-0.0834663
-0.0573257
-0.023057
0.0150156
0.0503328
0.076132
0.087199
0.0813139
0.0600462
0.0287266
-0.00440922
-0.0297581
-0.0392139
-0.0286909
0.0111578
0.0869875
0.180865
0.267909
0.325442
0.341799
0.320748
0.279261
0.239637
0.219823
0.2249
0.243824
0.268072
0.291666
0.308961
0.315449
0.308109
0.285351
0.246762
0.192882
0.12554
0.0474686
-0.0375559
-0.124719
-0.206131
-0.272556
-0.315238
-0.324695
-0.281841
-0.19607
-0.0942284
-0.00732899
0.0403346
0.0387186
-0.00656738
-0.0786394
-0.15683
-0.224049
-0.276163
-0.31634
-0.333741
0
0.644413
1.63735
2.99613
4.62318
6.23902
7.39984
7.64894
6.74945
4.85651
2.4926
0.316583
-1.17543
-1.82824
-1.67902
-1.30154
-0.788494
-0.271214
0.13993
0.369031
0.522188
0.646655
0.754096
0.844134
0.916198
0.970593
1.0088
1.03359
1.04897
1.05978
1.07126
1.08849
1.11528
1.15443
1.20824
1.27811
1.36447
1.46691
1.58427
1.71471
1.85592
2.0051
2.15901
2.31405
2.46618
2.61144
2.74689
2.87134
2.98567
3.09277
3.19677
3.30176
3.41061
3.52444
3.63774
3.74049
3.82215
3.87581
3.90089
3.90336
3.89337
3.88107
3.87246
3.86624
3.85385
3.82002
3.74685
3.61859
3.4261
3.16961
2.85924
2.51326
2.15475
1.8058
1.47781
1.18093
0.923577
0.712296
0.552386
0.447087
0.396759
0.396618
0.430202
0.468768
0.485549
0.460054
0.382245
0.255706
0.0982789
-0.061168
-0.189761
-0.259619
-0.25804
-0.138446
0.0645043
0.277237
0.428945
0.475723
0.411961
0.268144
0.0976539
-0.0429393
-0.113988
-0.129014
-0.114691
-0.0854703
-0.0487711
-0.0104041
0.0241776
0.0498487
0.062651
0.060032
0.0408966
0.00577464
-0.043116
-0.102062
-0.166405
-0.23143
-0.293414
-0.35046
-0.402822
-0.454029
-0.509312
-0.573887
-0.651152
-0.741364
-0.841214
-0.944423
-1.04316
-1.13025
-1.20232
-1.25657
-1.29046
-1.30547
-1.30837
-1.30632
-1.30455
-1.30441
-1.30288
-1.29345
-1.26834
-1.22132
-1.15122
-1.06363
-0.963985
-0.85971
-0.759283
-0.67068
-0.600236
-0.55199
-0.527531
-0.526226
-0.545664
-0.582138
-0.630681
-0.686248
-0.743655
-0.797626
-0.842771
-0.87317
-0.88435
-0.873224
-0.838731
-0.782363
-0.708362
-0.622916
-0.534368
-0.450918
-0.378884
-0.32135
-0.277634
-0.243718
-0.213497
-0.180425
-0.139277
-0.0864026
0
0.321569
0.876248
1.6203
2.56008
3.66658
4.81299
5.7248
6.01974
5.37257
3.73391
1.45186
-0.824643
-2.43663
-3.02971
-2.70559
-1.90184
-1.09651
-0.571136
-0.332204
-0.200481
-0.0744146
0.0438577
0.156113
0.262494
0.363349
0.459708
0.552972
0.644787
0.736886
0.830751
0.927263
1.02639
1.12718
1.22701
1.32207
1.40867
1.4847
1.55075
1.61066
1.67105
1.74013
1.826
1.93399
2.06435
2.21597
2.38656
2.57185
2.76583
2.96142
3.14924
3.31835
3.46024
3.56958
3.64546
3.69204
3.71832
3.73624
3.77334
3.95925
4.34088
4.78179
5.11279
5.20963
5.04031
4.66538
4.20041
3.76936
3.46447
3.232
3.01414
2.79824
2.58165
2.36396
2.14662
1.9326
1.7258
1.53028
1.34941
1.18558
1.04008
0.913307
0.804958
0.714243
0.64139
0.584902
0.542426
0.511627
0.49064
0.478407
0.474664
0.479528
0.492791
0.513687
0.539648
0.566169
0.588264
0.60185
0.604991
0.59852
0.585814
0.571788
0.561424
0.558162
0.562491
0.573604
0.588635
0.60322
0.613
0.614766
0.607213
0.591123
0.568955
0.544065
0.519818
0.498825
0.482435
0.471302
0.466037
0.467078
0.474728
0.489022
0.509643
0.535685
0.564764
0.592935
0.615672
0.628829
0.629609
0.617288
0.593491
0.56192
0.527642
0.496077
0.471541
0.45633
0.451068
0.455646
0.468241
0.485087
0.501202
0.511925
0.513942
0.506022
0.489226
0.46654
0.442
0.419571
0.402053
0.389993
0.382193
0.376692
0.370702
0.361106
0.344964
0.320162
0.285797
0.242428
0.192098
0.138017
0.0846188
0.0366146
-0.00164338
-0.0266126
-0.0357171
-0.0272282
0
0.0440822
0.107398
0.189251
0.291453
0.427064
0.68079
1.13447
1.69932
2.46821
3.50035
4.71834
5.85664
6.51132
6.296
5.04537
2.95803
0.575218
-1.43187
-2.56493
-2.71505
-2.17768
-1.40912
-0.762176
-0.319954
0.0609457
0.517522
0.84116
1.08174
1.26432
1.38303
1.44351
1.46068
1.45388
1.44132
1.43617
1.44155
1.45718
1.48353
1.5208
1.56897
1.62781
1.69672
1.77461
1.86016
1.95205
2.04901
2.15083
2.25876
2.37541
2.50413
2.64783
2.80769
2.98706
3.18008
3.3689
3.53372
3.6595
3.741
3.78385
3.80121
3.80773
3.81345
3.82026
3.82343
3.81455
3.78554
3.73193
3.65417
3.55664
3.44509
3.32392
3.19576
3.06098
2.91843
2.76627
2.60314
2.42884
2.24465
2.05352
1.85978
1.66877
1.4861
1.31697
1.16541
1.03397
0.924028
0.834615
0.761489
0.699532
0.644006
0.591632
0.541239
0.493802
0.451941
0.419077
0.398263
0.39179
0.4012
0.427023
0.468909
0.52541
0.594378
0.673403
0.760148
0.851211
0.940247
1.01923
1.08071
1.11967
1.1351
1.13058
1.11349
1.093
1.07762
1.07318
1.07984
1.09563
1.11911
1.14867
1.18238
1.21813
1.25248
1.27963
1.29256
1.28406
1.24863
1.18442
1.09431
0.985585
0.868389
0.753418
0.648613
0.556725
0.479088
0.416501
0.368457
0.333637
0.310483
0.297273
0.292694
0.296212
0.308137
0.329399
0.36106
0.403653
0.456996
0.519904
0.587728
0.65428
0.713635
0.761745
0.797508
0.82288
0.841974
0.859464
0.878861
0.901341
0.925106
0.945975
0.958785
0.958949
0.943683
0.912547
0.8673
0.811279
0.748607
0.683718
0.619815
0.559056
0.502753
0.451403
0.404378
0.359847
0.315465
0.269021
0.219098
0.165427
0.109272
0.0530845
0
-0.0399984
0.326694
1.09922
2.14383
3.39441
4.77752
6.17123
7.3376
7.91572
7.53841
6.04483
3.65948
0.98616
-1.22525
-2.41895
-2.45338
-1.70081
-0.652057
0.237988
0.748707
0.833462
0.793326
0.753726
0.720855
0.700668
0.697996
0.715046
0.751346
0.805006
0.87319
0.95218
1.03654
1.12109
1.20192
1.27719
1.34717
1.41389
1.48021
1.54874
1.62096
1.69652
1.77384
1.85042
1.92358
1.99142
2.0536
2.11166
2.16886
2.22949
2.29791
2.37747
2.46956
2.57288
2.6839
2.79801
2.90979
3.01378
3.10522
3.18045
3.23702
3.27349
3.28904
3.28312
3.25529
3.20503
3.13175
3.03499
2.91458
2.77083
2.60477
2.41832
2.21476
1.99829
1.77401
1.54782
1.32584
1.114
0.918091
0.741012
0.583599
0.445155
0.324307
0.219815
0.131
0.0576754
-0.000305748
-0.0430633
-0.0720346
-0.0892344
-0.0966217
-0.0953481
-0.0852701
-0.0650133
-0.0326523
0.013206
0.0771866
0.156988
0.240251
0.312643
0.36373
0.39154
0.403262
0.41142
0.427309
0.45512
0.488769
0.519554
0.538113
0.538079
0.518251
0.482526
0.438044
0.392731
0.352629
0.320303
0.297534
0.286187
0.287756
0.303351
0.334391
0.383414
0.451246
0.527861
0.595624
0.636165
0.636152
0.592025
0.511542
0.411372
0.31183
0.231069
0.174999
0.139416
0.121002
0.118625
0.130696
0.152601
0.178249
0.202165
0.220597
0.23226
0.238438
0.242387
0.24823
0.259696
0.278465
0.304143
0.335455
0.370313
0.405665
0.437495
0.461046
0.471961
0.466722
0.443289
0.401627
0.343956
0.274602
0.199443
0.125074
0.0577364
0.00169678
-0.0402077
-0.0659864
-0.0748863
-0.0666544
-0.0418682
-0.0050106
0.0342876
0.0661408
0.0828691
0.0812429
0.0636278
0.0374314
0.0128982
0
0.00406437
0.0251008
0.0587481
0.101536
0.15108
0.209577
0.391807
0.935431
1.87766
3.13659
4.53414
5.82014
6.68789
6.82464
6.03383
4.37917
2.23908
0.185301
-1.27323
-1.9191
-1.79917
-1.43627
-0.96463
-0.499853
-0.0718544
0.239257
0.405389
0.508018
0.580334
0.63474
0.676022
0.709343
0.739311
0.769376
0.801488
0.836624
0.875488
0.918717
0.967028
1.02114
1.08159
1.14844
1.22123
1.29915
1.38114
1.46635
1.55446
1.64585
1.74146
1.84242
1.94971
2.06375
2.18426
2.31036
2.44091
2.57464
2.71031
2.84662
2.98207
3.11471
3.24161
3.35841
3.46046
3.54318
3.60243
3.63496
3.63856
3.61188
3.55416
3.46496
3.34421
3.19482
3.02032
2.82361
2.6086
2.38048
2.14546
1.9101
1.68056
1.46209
1.25845
1.07168
0.901997
0.747675
0.606008
0.47418
0.350186
0.233566
0.126159
0.0314499
-0.0461885
-0.102463
-0.134372
-0.14115
-0.124732
-0.0885438
-0.0385576
0.0163647
0.066479
0.103746
0.123082
0.122992
0.105472
0.0751988
0.0382245
0.000556278
-0.0329387
-0.0596312
-0.0786177
-0.0887753
-0.0887675
-0.0770888
-0.0522531
-0.0132936
0.0395946
0.105499
0.181214
0.259782
0.332908
0.392965
0.434627
0.455818
0.457683
0.443608
0.417658
0.383025
0.341462
0.293293
0.237741
0.174555
0.103572
0.0315993
-0.0300441
-0.0692621
-0.0774265
-0.0526605
-0.000657082
0.0673349
0.138438
0.202277
0.256305
0.301897
0.340287
0.373554
0.403651
0.431476
0.456278
0.475374
0.484982
0.481429
0.462693
0.429651
0.386598
0.340811
0.301192
0.276286
0.271044
0.287041
0.327409
0.385412
0.446986
0.497309
0.52492
0.524625
0.498327
0.453678
0.401201
0.350955
0.308771
0.275133
0.248556
0.227102
0.207903
0.187912
0.164666
0.136918
0.105052
0.0711167
0.0389429
0.0135248
0
-0.00277348
0.0133123
0.0488348
0.102278
0.170437
0.24908
0.334062
0.42626
0.611199
1.12188
2.06532
3.42583
5.02551
6.52843
7.49652
7.51802
6.38982
4.27182
1.69627
-0.622884
-2.10529
-2.56129
-2.22351
-1.57117
-0.982264
-0.598572
-0.328009
-0.0140898
0.244309
0.448264
0.609064
0.73331
0.828301
0.897521
0.944902
0.975891
0.996848
1.01457
1.03557
1.06582
1.11053
1.17366
1.25741
1.36175
1.48421
1.62034
1.76384
1.90725
2.04364
2.16774
2.27674
2.37047
2.45109
2.52248
2.58933
2.65637
2.72754
2.80574
2.89252
2.98785
3.09005
3.19602
3.30097
3.399
3.48419
3.55145
3.59704
3.61871
3.61539
3.58659
3.53181
3.45021
3.34233
3.20824
3.04784
2.8621
2.65321
2.42431
2.17904
1.92101
1.65309
1.37745
1.09589
0.810476
0.524229
0.242446
-0.0252129
-0.265285
-0.464935
-0.613541
-0.70524
-0.740492
-0.726273
-0.674922
-0.601931
-0.523291
-0.452799
-0.397953
-0.363192
-0.350355
-0.35835
-0.383681
-0.421167
-0.464766
-0.508474
-0.547172
-0.577304
-0.597883
-0.609554
-0.612933
-0.609114
-0.598928
-0.582373
-0.558442
-0.525383
-0.48136
-0.425339
-0.3556
-0.273736
-0.18907
-0.113003
-0.0555214
-0.0221426
-0.0127081
-0.0225508
-0.0453856
-0.0764282
-0.113637
-0.156807
-0.207462
-0.266283
-0.331925
-0.400681
-0.465882
-0.519548
-0.554144
-0.564259
-0.547771
-0.506252
-0.444632
-0.370316
-0.29171
-0.218918
-0.161019
-0.124314
-0.111405
-0.120938
-0.148225
-0.186681
-0.22963
-0.27178
-0.310152
-0.344037
-0.3726
-0.395152
-0.41116
-0.42055
-0.423318
-0.421751
-0.419143
-0.418759
-0.422529
-0.430043
-0.438313
-0.442452
-0.437027
-0.417803
-0.384841
-0.339739
-0.284487
-0.22252
-0.159258
-0.100808
-0.0526443
-0.0187656
-0.00120697
0
-0.0106647
-0.0335892
-0.0660667
-0.105606
-0.150226
-0.198704
-0.25103
-0.318084
-0.255193
0.232872
1.28802
2.84938
4.60339
6.04033
6.62508
6.02581
4.29152
1.87138
-0.555262
-2.35989
-3.20879
-3.12876
-2.50866
-1.72598
-1.08903
-0.719548
-0.564831
-0.412738
-0.268105
-0.133452
-0.0159824
0.0784859
0.147849
0.195334
0.229429
0.261808
0.303865
0.363216
0.439847
0.527631
0.621098
0.715559
0.806769
0.891522
0.968116
1.0367
1.0992
1.15915
1.22134
1.29142
1.3752
1.47784
1.60294
1.75159
1.92165
2.10998
2.30917
2.50655
2.69004
2.85106
2.9863
3.0978
3.19135
3.27135
3.3409
3.39765
3.43117
3.42793
3.37762
3.27776
3.13422
2.95802
2.76009
2.54817
2.32706
2.09858
1.8629
1.62082
1.37467
1.12853
0.887936
0.659219
0.448647
0.261584
0.101788
-0.0289135
-0.129889
-0.201717
-0.248349
-0.277824
-0.298759
-0.318898
-0.343769
-0.375772
-0.41392
-0.454318
-0.491283
-0.518834
-0.533123
-0.532243
-0.515943
-0.486136
-0.446415
-0.401287
-0.3553
-0.312154
-0.274292
-0.242587
-0.216315
-0.193364
-0.170667
-0.144809
-0.112744
-0.0719854
-0.0206768
0.0396532
0.102139
0.157709
0.198243
0.219279
0.221497
0.210305
0.193615
0.17872
0.169655
0.165584
0.164002
0.161938
0.157924
0.153069
0.150719
0.154871
0.168054
0.190078
0.216356
0.239366
0.250788
0.243939
0.215706
0.167509
0.105217
0.0382412
-0.0220177
-0.0657236
-0.0867502
-0.0794552
-0.0416405
0.0358006
0.149305
0.276115
0.3905
0.471657
0.510128
0.510281
0.487972
0.464396
0.458498
0.477806
0.516208
0.570333
0.630597
0.685751
0.725568
0.742955
0.735085
0.703501
0.653425
0.592587
0.529875
0.472792
0.426059
0.392209
0.371815
0.364256
0.366877
0.375826
0.386822
0.395922
0.400101
0.397546
0.387646
0.370746
0.347836
0.32028
0.289414
0.256336
0.22203
0.187345
0.15295
0.119348
0.0869431
0.0560679
0.0269836
0
-0.023023
0.06364
0.536296
1.48342
2.8863
4.56535
6.21151
7.45183
7.94142
7.46873
6.0508
3.96812
1.69468
-0.263443
-1.54494
-2.03097
-1.80663
-1.20215
-0.440397
0.240041
0.652613
0.765506
0.851337
0.935862
1.0206
1.1053
1.18877
1.26978
1.3481
1.42493
1.50257
1.58324
1.6682
1.75495
1.83682
1.90565
1.95523
1.9841
1.9965
2.00113
2.00843
2.02779
2.06314
2.11465
2.18369
2.27207
2.38143
2.51309
2.66762
2.84438
3.04128
3.25457
3.48062
3.71656
3.95931
4.2004
4.42478
4.60221
4.69164
4.6655
4.53477
4.35326
4.19375
4.10814
4.09187
4.08568
4.05767
3.98029
3.83893
3.63608
3.38973
3.12674
2.87404
2.64353
2.43368
2.2452
2.07749
1.92786
1.79231
1.66634
1.5458
1.42759
1.31026
1.19424
1.08215
0.978473
0.888594
0.817809
0.770297
0.748311
0.751749
0.778123
0.822881
0.880412
0.944109
1.00601
1.05893
1.09758
1.11926
1.12401
1.11434
1.09428
1.06836
1.04056
1.01361
0.98883
0.966858
0.948271
0.933747
0.924204
0.920786
0.92474
0.937181
0.959192
0.99169
1.03536
1.09049
1.15784
1.2381
1.3298
1.42677
1.51808
1.59147
1.63644
1.64691
1.62292
1.5707
1.50091
1.42565
1.35524
1.295
1.24478
1.20264
1.16738
1.13848
1.11578
1.09956
1.09032
1.08853
1.09427
1.10704
1.12573
1.14872
1.17405
1.1998
1.2242
1.24581
1.26353
1.27655
1.28425
1.28604
1.28154
1.27054
1.25306
1.22954
1.20089
1.16851
1.13432
1.10067
1.07025
1.04602
1.03123
1.02967
1.04798
1.10046
1.21435
1.40729
1.63161
1.82369
1.92235
1.88877
1.72392
1.47443
1.21767
1.0273
0.936339
0.891634
0.859892
0.830967
0.798723
0.760397
0.716845
0.671984
0.631704
0.601885
0.586956
0.590964
143
324
503
686
876
1055
1230
1411
1600
1779
1952
2132
2319
2496
2667
2843
3024
3207
3383
3571
0
0
0
0
0
0
0
0
0
0
0
0
0
0
0
0
0
0
0
0
0
0
0
0
0
0
0
0
0
0
0
0
0
0
0
0
0
0
0
0
0
0
0
0
0
0
0
0
0
0
0
0
0
0
0
0
0
0
0
0
0
0
0
0
0
0
0
0
0
0
0
0
0
0
0
0
0
0
0
0
0
0
0
0
0
0
0
0
0
0
0
0
0
0
0
0
0
0
0
0
0
0
0
0
0
0
0
0
0
0
0
0
0
0
0
0
0
0
0
0
0
0
0
0
0
0
0
0
0
0
0
0
0
0
0
0
0
0
0
0
0
0
0
0
0
0
0
0
0
0
0
0
0
0
0
0
0
0
0
0
0
0
0
0
0
0
0
0
0
0
0
0
0
0
0
0
0
0
0
0
0
0
0
0
0
0
0
0
0
0
0
0
0
0
0
0
0
0
0
0
0
0
0
0
0
0
0
0
0
0
0
0
0
0
0
0
0
0
0
0
0
0
0
0
0
0
0
0
0
0
0
0
0
0
0
0
0
0
0
0
0
0
0
0
0
0
0
0
0
0
0
0
0
0
0
0
0
0
0
0
0
0
0
0
0
0
0
0
0
0
0
0
0
0
0
0
0
0
0
0
0
0
0
0
0
0
0
0
0
0
0
0
0
0
0
0
0
0
0
0
0
0
0
0
0
0
0
0
0
0
0
0
0
0
0
0
0
0
0
0
0
0
0
0
0
0
0
0
0
0
0
0
0
0
0
0
0
0
0
0
0
0
0
0
0
0
0
0
0
0
0
0
0
0
0
0
0
0
0
0
0
0
0
0
0
0
0
0
0
0
0
0
0
0
0
0
0
0
0
0
0
0
0
0
0
0
0
0
0
0
0
0
0
0
0
0
0
0
0
0
0
0
0
0
0
0
0
0
0
0
0
0
0
0
0
0
0
0
0
0
0
0
0
0
0
0
0
0
0
0
0
0
0
0
0
0
0
0
0
0
0
0
0
0
0
0
0
0
0
0
0
0
0
0
0
0
0
0
0
0
0
0
0
0
0
0
0
0
0
0
0
0
0
0
0
0
0
0
0
0
0
0
0
0
0
0
0
0
0
0
0
0
0
0
0
0
0
0
0
0
0
0
0
0
0
0
0
0
0
0
0
0
0
0
0
0
0
0
0
0
0
0
0
0
0
0
0
0
0
0
0
0
0
0
0
0
0
0
0
0
0
0
0
0
0
0
0
0
0
0
0
0
0
0
0
0
0
0
0
0
0
0
0
0
0
0
0
0
0
0
0
0
0
0
0
0
0
0
0
0
0
0
0
0
0
0
0
0
0
0
0
0
0
0
0
0
0
0
0
0
0
0
0
0
0
0
0
0
0
0
0
0
0
0
0
0
0
0
0
0
0
0
0
0
0
0
0
0
0
0
0
0
0
0
0
0
0
0
0
0
0
0
0
0
0
0
0
0
0
0
0
0
0
0
0
0
0
0
0
0
0
0
0
0
0
0
0
0
0
0
0
0
0
0
0
0
0
0
0
0
0
0
0
0
0
0
0
0
0
0
0
0
0
0
0
0
0
0
0
0
0
0
0
0
0
0
0
0
0
0
0
0
0
0
0
0
0
0
0
0
0
0
0
0
0
0
0
0
0
0
0
0
0
0
0
0
0
0
0
0
0
0
0
0
0
0
0
0
0
0
0
0
0
0
0
0
0
0
0
0
0
0
0
0
0
0
0
0
0
0
0
0
0
0
0
0
0
0
0
0
0
0
0
0
0
0
0
0
0
0
0
0
0
0
0
0
0
0
0
0
0
0
0
0
0
0
0
0
0
0
0
0
0
0
0
0
0
0
0
0
0
0
0
0
0
0
0
0
0
0
0
0
0
0
0
0
0
0
0
0
0
0
0
0
0
0
0
0
0
0
0
0
0
0
0
0
0
0
0
0
0
0
0
0
0
0
0
0
0
0
0
0
0
0
0
0
0
0
0
0
0
0
0
0
0
0
0
0
0
0
0
0
0
0
0
0
0
0
0
0
0
0
0
0
0
0
0
0
0
0
0
0
0
0
0
0
0
0
0
0
0
0
0
0
0
0
0
0
0
0
0
0
0
0
0
0
0
0
0
0
0
0
0
0
0
0
0
0
0
0
0
0
0
0
0
0
0
0
0
0
0
0
0
0
0
0
0
0
0
0
0
0
0
0
0
0
0
0
0
0
0
0
0
0
0
0
0
0
0
0
0
0
0
0
0
0
0
0
0
0
0
0
0
0
0
0
0
0
0
0
0
0
0
0
0
0
0
0
0
0
0
0
0
0
0
0
0
0
0
0
0
0
0
0
0
0
0
0
0
0
0
0
0
0
0
0
0
0
0
0
0
0
0
0
0
0
0
0
0
0
0
0
0
0
0
0
0
0
0
0
0
0
0
0
0
0
0
0
0
0
0
0
0
0
0
0
0
0
0
0
0
0
0
0
0
0
0
0
0
0
0
0
0
0
0
0
0
0
0
0
0
0
0
0
0
0
0
0
0
0
0
0
0
0
0
0
0
0
0
0
0
0
0
0
0
0
0
0
0
0
0
0
0
0
0
0
0
0
0
0
0
0
0
0
0
0
0
0
0
0
0
0
0
0
0
0
0
0
0
0
0
0
0
0
0
0
0
0
0
0
0
0
0
0
0
0
0
0
0
0
0
0
0
0
0
0
0
0
0
0
0
0
0
0
0
0
0
0
0
0
0
0
0
0
0
0
0
0
0
0
0
0
0
0
0
0
0
0
0
0
0
0
0
0
0
0
0
0
0
0
0
0
0
0
0
0
0
0
0
0
0
0
0
0
0
0
0
0
0
0
0
0
0
0
0
0
0
0
0
0
0
0
0
0
0
0
0
0
0
0
0
0
0
0
0
0
0
0
0
0
0
0
0
0
0
0
0
0
0
0
0
0
0
0
0
0
0
0
0
0
0
0
0
0
0
0
0
0
0
0
0
0
0
0
0
0
0
0
0
0
0
0
0
0
0
0
0
0
0
0
0
0
0
0
0
0
0
0
0
0
0
0
0
0
0
0
0
0
0
0
0
0
0
0
0
0
0
0
0
0
0
0
0
0
0
0
0
0
0
0
0
0
0
0
0
0
0
0
0
0
0
0
0
0
0
0
0
0
0
0
0
0
0
0
0
0
0
0
0
0
0
0
0
0
0
0
0
0
0
0
0
0
0
0
0
0
0
0
0
0
0
0
0
0
0
0
0
0
0
0
0
0
0
0
0
0
0
0
0
0
0
0
0
0
0
0
0
0
0
0
0
0
0
0
0
0
0
0
0
0
0
0
0
0
0
0
0
0
0
0
0
0
0
0
0
0
0
0
0
0
0
0
0
0
0
0
0
0
0
0
0
0
0
0
0
0
0
0
0
0
0
0
0
0
0
0
0
0
0
0
0
0
0
0
0
0
0
0
0
0
0
0
0
0
0
0
0
0
0
0
0
0
0
0
0
0
0
0
0
0
0
0
0
0
0
0
0
0
0
0
0
0
0
0
0
0
0
0
0
0
0
0
0
0
0
0
0
0
0
0
0
0
0
0
0
0
0
0
0
0
0
0
0
0
0
0
0
0
0
0
0
0
0
0
0
0
0
0
0
0
0
0
0
0
0
0
0
0
0
0
0
0
0
0
0
0
0
0
0
0
0
0
0
0
0
0
0
0
0
0
0
0
0
0
0
0
0
0
0
0
0
0
0
0
0
0
0
0
0
0
0
0
0
0
0
0
0
0
0
0
0
0
0
0
0
0
0
0
0
0
0
0
0
0
0
0
0
0
0
0
0
0
0
0
0
0
0
0
0
0
0
0
0
0
0
0
0
0
0
0
0
0
0
0
0
0
0
0
0
0
0
0
0
0
0
0
0
0
0
0
0
0
0
0
0
0
0
0
0
0
0
0
0
0
0
0
0
0
0
0
0
0
0
0
0
0
0
0
0
0
0
0
0
0
0
0
0
0
0
0
0
0
0
0
0
0
0
0
0
0
0
0
0
0
0
0
0
0
0
0
0
0
0
0
0
0
0
0
0
0
0
0
0
0
0
0
0
0
0
0
0
0
0
0
0
0
0
0
0
0
0
0
0
0
0
0
0
0
0
0
0
0
0
0
0
0
0
0
0
0
0
0
0
0
0
0
0
0
0
0
0
0
0
0
0
0
0
0
0
0
0
0
0
0
0
0
0
0
0
0
0
0
0
0
0
0
0
0
0
0
0
0
0
0
0
0
0
0
0
0
0
0
0
0
0
0
0
0
0
0
0
0
0
0
0
0
0
0
0
0
0
0
0
0
0
0
0
0
0
0
0
0
0
0
0
0
0
0
0
0
0
0
0
0
0
0
0
0
0
0
0
0
0
0
0
0
0
0
0
0
0
0
0
0
0
0
0
0
0
0
0
0
0
0
0
0
0
0
0
0
0
0
0
0
0
0
0
0
0
0
0
0
0
0
0
0
0
0
0
0
0
0
0
0
0
0
0
0
0
0
0
0
0
0
0
0
0
0
0
0
0
0
0
0
0
0
0
0
0
0
0
0
0
0
0
0
0
0
0
0
0
0
0
0
0
0
0
0
0
0
0
0
0
0
0
0
0
0
0
0
0
0
0
0
0
0
0
0
0
0
0
0
0
0
0
0
0
0
0
0
0
0
0
0
0
0
0
0
0
0
0
0
0
0
0
0
0
0
0
0
0
0
0
0
0
0
0
0
0
0
0
0
0
0
0
0
0
0
0
0
0
0
0
0
0
0
0
0
0
0
0
0
0
0
0
0
0
0
0
0
0
0
0
0
0
0
0
0
0
0
0
0
0
0
0
0
0
0
0
0
0
0
0
0
0
0
0
0
0
0
0
0
0
0
0
0
0
0
0
0
0
0
0
0
0
0
0
0
0
0
0
0
0
0
0
0
0
0
0
0
0
0
0
0
0
0
0
0
0
0
0
0
0
0
0
0
0
0
0
0
0
0
0
0
0
0
0
0
0
0
0
0
0
0
0
0
0
0
0
0
0
0
0
0
0
0
0
0
0
0
0
0
0
0
0
0
0
0
0
0
0
0
0
0
0
0
0
0
0
0
0
0
0
0
0
0
0
0
0
0
0
0
0
0
0
0
0
0
0
0
0
0
0
0
0
0
0
0
0
0
0
0
0
0
0
0
0
0
0
0
0
0
0
0
0
0
0
0
0
0
0
0
0
0
0
0
0
0
0
0
0
0
0
0
0
0
0
0
0
0
0
0
0
0
0
0
0
0
0
0
0
0
0
0
0
0
0
0
0
0
0
0
0
0
0
0
0
0
0
0
0
0
0
0
0
0
0
0
0
0
0
0
0
0
0
0
0
0
0
0
0
0
0
0
0
0
0
0
0
0
0
0
0
0
0
0
0
0
0
0
0
0
0
0
0
0
0
0
0
0
0
0
0
0
0
0
0
0
0
0
0
0
0
0
0
0
0
0
0
0
0
0
0
0
0
0
0
0
0
0
0
0
0
0
0
0
0
0
0
0
0
0
0
0
0
0
0
0
0
0
0
0
0
0
0
0
0
0
0
0
0
0
0
0
0
0
0
0
0
0
0
0
0
0
0
0
0
0
0
0
0
0
0
0
0
0
0
0
0
0
0
0
0
0
0
0
0
0
0
0
0
0
0
0
0
0
0
0
0
0
0
0
0
0
0
0
0
0
0
0
0
0
0
0
0
0
0
0
0
0
0
0
0
0
0
0
0
0
0
0
0
0
0
0
0
0
0
0
0
0
0
0
0
0
0
0
0
0
0
0
0
0
0
0
0
0
0
0
0
0
0
0
0
0
0
0
0
0
0
0
0
0
0
0
0
0
0
0
0
0
0
0
0
0
0
0
0
0
0
0
0
0
0
0
0
0
0
0
0
0
0
0
0
0
0
0
0
0
0
0
0
0
0
0
0
0
0
0
0
0
0
0
0
0
0
0
0
0
0
0
0
0
0
0
0
0
0
0
0
0
0
0
0
0
0
0
0
0
0
0
0
0
0
0
0
0
0
0
0
0
0
0
0
0
0
0
0
0
0
0
0
0
0
0
0
0
0
0
0
0
0
0
0
0
0
0
0
0
0
0
0
0
0
0
0
0
0
0
0
0
0
0
0
0
0
0
0
0
0
0
0
0
0
0
0
0
0
0
0
0
0
0
0
0
0
0
0
0
0
0
0
0
0
0
0
0
0
0
0
0
0
0
0
0
0
0
0
0
0
0
0
0
0
0
0
0
0
0
0
0
0
0
0
0
0
0
0
0
0
0
0
0
0
0
0
0
0
0
0
0
0
0
0
0
0
0
0
0
0
0
0
0
0
0
0
0
0
0
0
0
0
0
0
0
0
0
0
0
0
0
0
0
0
0
0
0
0
0
0
0
0
0
0
0
0
0
0
0
0
0
0
0
0
0
0
0
0
0
0
0
0
0
0
0
0
0
0
0
0
0
0
0
0
0
0
0
0
0
0
0
0
0
0
0
0
0
0
0
0
0
0
0
0
0
0
0
0
0
0
0
0
0
0
0
0
0
0
0
0
0
0
0
0
0
0
0
0
0
0
0
0
0
0
0
0
0
0
0
0
0
0
0
0
0
0
0
0
0
0
0
0
0
0
0
0
0
0
0
0
0
0
0
0
0
0
0
0
0
0
0
0
0
0
0
0
0
0
0
0
0
0
0
0
0
0
0
0
0
0
0
0
0
0
0
0
0
0
0
0
0
0
0
0
0
0
0
0
0
0
0
0
0
0
0
0
0
0
0
0
0
0
0
0
0
0
0
0
0
0
0
0
0
0
0
0
0
0
0
0
0
0
0
0
0
0
0
0
0
0
0
0
0
0
0
0
0
0
0
0
0
0
0
0
0
0
0
0
0
0
0
0
0
0
0
0
0
0
0
0
0
0
0
0
0
0
0
0
0
0
0
0
0
0
0
0
0
0
0
0
0
0
0
0
0
0
0
0
0
0
0
0
0
0
0
0
0
0
0
0
0
0
0
0
0
0
0
0
0
0
0
0
0
0
0
0
0
0
0
0
0
0
0
0
0
0
0
0
0
0
0
0
0
0
0
0
0
0
0
0
0
0
0
0
0
0
0
0
0
0
0
0
0
0
0
0
0
0
0
0
0
0
0
0
0
0
0
0
0
0
0
0
0
0
0
0
0
0
0
0
0
0
0
0
0
0
0
0
0
0
0
0
0
0
0
0
0
0
0
0
0
0
0
0
0
0
0
0
0
0
0
0
0
0
0
0
0
0
0
0
0
0
0
0
0
0
0
0
0
0
0
0
0
0
0
0
0
0
0
0
0
0
0
0
0
0
0
0
0
0
0
0
0
0
0
0
0
0
0
0
0
0
0
0
0
0
0
0
0
0
0
0
0
0
0
0
0
0
0
0
0
0
0
0
0
0
0
0
0
0
0
0
0
0
0
0
0
0
0
0
0
0
0
0
0
0
0
0
0
0
0
0
0
0
0
0
0
0
0
0
0
0
0
0
0
0
0
0
0
0
0
0
0
0
0
0
0
0
0
0
0
0
0
0
0
0
0
0
0
0
0
0
0
0
0
0
0
0
0
0
0
0
0
0
0
0
0
0
0
0
0
0
0
0
0
0
0
0
0
0
0
0
0
0
0
0
0
0
0
0
0
0
0
0
0
0
0
0
0
0
0
0
0
0
0
0
0
0
0
0
0
0
0
0
0
0
0
0
0
0
0
0
0
0
0
0
0
0
0
0
0
0
0
0
0
0
0
0
0
0
0
0
0
0
0
0
0
0
0
0
0
0
0
0
0
0
0
0
0
0
0
0
0
0
0
0
0
0
0
0
0
0
0
0
0
0
0
0
0
0
0
0
0
0
0
0
0
0
0
0
0
0
0
0
0
0
0
0
0
0
0
0
0
0
0
0
0
0
0
0
0
0
0
0
0
0
0
0
0
0
0
0
0
0
0
0
0
0
0
0
0
0
0
0
0
0
0
0
0
0
0
0
0
0
0
0
0
0
0
0
0
0
0
0
0
0
0
0
0
0
0
0
0
0
0
0
0
0
0
0
0
0
0
0
0
0
0
0
0
0
0
0
0
0
0
0
0
0
0
0
0
0
0
0
0
0
0
0
0
0
0
0
0
0
0
0
0
0
0
0
0
0
0
0
0
0
0
0
0
0
0
0
0
0
0
0
0
0
0
0
0
0
0
0
0
0
0
0
0
0
0
0
0
0
0
0
0
0
0
0
0
0
0
0
0
0
0
0
0
0
0
0
0
0
0
0
0
0
0
0
0
0
0
0
0
0
0
0
0
0
0
0
0
0
0
0
0
0
0
0
0
0
0
0
0
0
0
0
0
0
0
0
0
0
0
0
0
0
0
0
0
0
0
0
0
0
0
0
0
0
0
0
0
0
