0.686407
0.797538
0.905535
0.996634
1.06148
1.09749
1.10916
1.10612
1.09951
1.09801
1.10438
1.11597
1.12632
1.12737
1.11227
1.07781
1.02548
0.961044
0.892659
0.828165
0.77191
0.725868
0.686745
0.649006
0.607979
0.562497
0.515702
0.473497
0.44128
0.421503
0.40874
0.391468
0.355838
0.290633
0.191322
0.0617562
-0.102125
0
0.701813
2.08032
4.01115
6.15672
8.04895
9.23074
9.40407
8.52242
6.80028
4.64342
2.52292
0.838571
-0.184305
-0.530507
-0.221627
0.0780887
0.350091
0.568676
0.715461
0.803459
0.854833
0.875949
0.874392
0.857462
0.831326
0.801562
0.772437
0.748871
0.736505
0.741343
0.768652
0.82156
0.899934
0.999968
1.11464
1.23492
1.35038
1.44918
1.52278
1.56649
1.58005
1.56791
1.53896
1.50561
1.48185
1.48103
1.51206
1.57465
1.666
1.78526
1.93124
2.10152
2.29297
2.50202
2.72464
2.95639
3.19243
3.42731
3.65258
3.85604
4.02743
4.1581
4.24299
4.28213
4.28106
4.24958
4.19897
4.13868
4.07365
4.00415
3.92798
3.84176
3.74166
3.6248
3.48973
3.33662
3.16692
2.98293
2.78746
2.58292
2.37155
2.15581
1.93888
1.72535
1.52315
1.34096
1.18741
1.06917
0.989535
0.948106
0.941513
0.965032
1.01424
1.09097
1.22179
1.44007
1.7077
1.94519
2.06519
2.0164
1.80773
1.50219
1.19103
0.964186
0.85637
0.814855
0.807871
0.829959
0.874709
0.934574
1.00175
1.06896
1.12893
1.17628
1.20771
1.22223
1.22102
1.20707
1.18437
1.1569
1.12791
1.09973
1.07394
1.0525
1.03805
1.03381
1.04307
1.06834
1.1106
1.16767
1.23789
1.31893
1.40819
1.50311
1.60189
1.70249
1.8021
1.89646
1.97923
2.04236
2.07782
2.07826
2.03841
1.95638
1.83451
1.67962
1.5023
1.3155
1.13236
0.961659
0.80714
0.671418
0.555939
0.460629
0.383027
0.318684
0.262642
0.210446
0.158994
0.107016
0.0550597
0.00502803
0
0.485566
1.4726
2.96656
4.81933
6.73062
8.30777
9.16144
9.01695
7.81497
5.76774
3.33388
1.08932
-0.474436
-1.13563
-0.945997
-0.677298
-0.431522
-0.2297
-0.0794192
0.033184
0.130289
0.220761
0.31218
0.409998
0.516389
0.625945
0.727611
0.808952
0.859606
0.873633
0.85043
0.794422
0.714054
0.620531
0.52656
0.442837
0.376847
0.334611
0.320631
0.336758
0.38214
0.453604
0.54638
0.654975
0.773693
0.897343
1.02206
1.14488
1.26334
1.37557
1.48048
1.57811
1.66987
1.75873
1.84906
1.94617
2.05556
2.18192
2.32822
2.49589
2.68629
2.89497
3.10828
3.30506
3.46509
3.57325
3.6213
3.60783
3.53699
3.41663
3.25657
3.06761
2.86223
2.65259
2.44665
2.24955
2.06509
1.89585
1.743
1.60613
1.48361
1.37322
1.27276
1.18066
1.0962
1.0195
0.951226
0.892395
0.843745
0.805094
0.775752
0.754838
0.741664
0.735996
0.738033
0.748114
0.766259
0.791711
0.823089
0.857889
0.893256
0.926585
0.95601
0.980594
1.00017
1.0149
1.02474
1.02955
1.029
1.02302
1.01226
0.998319
0.983671
0.971052
0.962692
0.959557
0.961431
0.966071
0.970482
0.972108
0.969905
0.964862
0.959764
0.958272
0.963684
0.977834
0.999897
1.02784
1.05964
1.09325
1.12716
1.16078
1.19453
1.22972
1.26819
1.31184
1.36231
1.42139
1.4913
1.56951
1.64168
1.68847
1.69125
1.63905
1.53337
1.38853
1.22689
1.0714
0.937886
0.824046
0.725348
0.640575
0.5678
0.504681
0.44884
0.398065
0.350378
0.30409
0.257795
0.210376
0.161091
0.109729
0.0565646
0
0.202795
0.915945
2.2269
3.9904
5.84783
7.35891
8.1621
8.08637
7.17838
5.6621
3.86719
2.14765
0.797602
-0.0243767
-0.325942
-0.300838
-0.286331
-0.277324
-0.27367
-0.27307
-0.271169
-0.262156
-0.239777
-0.198537
-0.135652
-0.0501672
0.056025
0.179293
0.313966
0.449649
0.573687
0.674787
0.744647
0.779017
0.778123
0.74652
0.692489
0.627114
0.563093
0.512077
0.481873
0.478428
0.50587
0.565166
0.654191
0.768296
0.901163
1.04573
1.19457
1.34163
1.48102
1.60873
1.72315
1.82554
1.92022
2.01406
2.11532
2.23192
2.36969
2.52879
2.70599
2.89725
3.09754
3.29903
3.49162
3.66552
3.81198
3.92356
3.98895
3.99921
3.94862
3.83315
3.65221
3.4108
3.12094
2.80142
2.47539
2.16649
1.8881
1.64404
1.43996
1.27752
1.15507
1.06858
1.01184
0.977975
0.960273
0.952826
0.950833
0.950516
0.949284
0.945526
0.93833
0.92717
0.911621
0.89108
0.864947
0.832705
0.794247
0.750231
0.702357
0.653434
0.607199
0.567906
0.539507
0.524913
0.526756
0.547775
0.589882
0.65129
0.724177
0.795433
0.850885
0.87883
0.872809
0.833414
0.768546
0.691792
0.619144
0.564974
0.536648
0.531703
0.544273
0.570264
0.606011
0.647667
0.691011
0.731161
0.763837
0.78584
0.795425
0.792503
0.778543
0.756143
0.728436
0.6986
0.669589
0.643765
0.623723
0.611862
0.610159
0.619692
0.640197
0.669907
0.705832
0.744426
0.782446
0.817735
0.849568
0.878617
0.90656
0.935521
0.967433
1.00374
1.04551
1.09343
1.14776
1.20835
1.27471
1.34517
1.41431
1.4725
1.50807
1.50979
1.46988
1.38647
1.26475
1.11612
0.955678
0.798701
0.65473
0.52628
0.414108
0.318372
0.237787
0.170391
0.114493
0.0682984
0.0304656
0
-0.0230052
-0.0335858
0.375363
1.1591
2.32918
3.84748
5.56848
7.22093
8.43307
8.83515
8.22122
6.6849
4.62432
2.58157
1.00109
0.060284
-0.329282
-0.284313
-0.237013
-0.189767
-0.14339
-0.09852
-0.055418
-0.0138812
0.0264794
0.0659515
0.104541
0.141841
0.17703
0.209006
0.236597
0.258794
0.274895
0.2846
0.288027
0.285676
0.27837
0.267207
0.253517
0.238894
0.22521
0.214636
0.209657
0.213061
0.228084
0.257962
0.305257
0.371489
0.456563
0.5584
0.674062
0.797877
0.922648
1.04232
1.1536
1.25685
1.35601
1.45745
1.56827
1.69446
1.83831
1.99885
2.17415
2.36189
2.55939
2.76157
2.9586
3.13705
3.28321
3.38365
3.42675
3.40443
3.31384
3.15884
2.95076
2.70787
2.45278
2.2063
1.97926
1.77275
1.58544
1.41743
1.26766
1.13465
1.01723
0.91498
0.828327
0.75819
0.705785
0.672398
0.658415
0.660739
0.67129
0.680383
0.678801
0.659718
0.620108
0.561336
0.488853
0.411139
0.338119
0.27796
0.236153
0.216574
0.219973
0.243907
0.283267
0.3313
0.380891
0.425793
0.461757
0.486573
0.50018
0.504343
0.502115
0.49731
0.493307
0.4927
0.497488
0.507602
0.519095
0.526253
0.523573
0.507839
0.479424
0.442314
0.402901
0.368163
0.34363
0.330872
0.330211
0.342683
0.368631
0.407641
0.460283
0.525774
0.597653
0.666014
0.720362
0.752048
0.756284
0.732981
0.686224
0.622827
0.550685
0.477613
0.408938
0.348617
0.3002
0.266435
0.249127
0.248988
0.265532
0.297064
0.340768
0.392898
0.449083
0.504534
0.554382
0.594306
0.620961
0.632316
0.627851
0.6086
0.577039
0.536861
0.49275
0.449662
0.412304
0.385151
0.372099
0.376221
0.399618
0.443393
0.509406
0.6047
0.745649
0.957782
1.23973
1.53316
1.76946
1.88152
1.82196
1.58309
1.20818
0.786161
0.428431
0.214991
0.0939225
0.0139941
-0.0417567
-0.0757502
-0.0883909
-0.0800353
-0.0506179
0
0.0725842
0.164368
0.272387
0.392433
0.519599
0.64903
0.776484
0.884479
0.981502
1.47027
2.48962
3.98759
5.68452
7.13044
7.85497
7.56622
6.30076
4.43031
2.50295
0.999923
0.152693
-0.0826715
0.11774
0.281026
0.404471
0.469293
0.46538
0.396207
0.280025
0.146014
0.0264682
-0.0519251
-0.0877899
-0.0921407
-0.0656949
-0.0112428
0.0672674
0.169917
0.292554
0.420573
0.534014
0.613069
0.642799
0.617828
0.545068
0.443218
0.338871
0.259942
0.222637
0.224411
0.256496
0.311944
0.386005
0.473176
0.568331
0.667414
0.768205
0.870022
0.973335
1.07932
1.18943
1.30513
1.42787
1.55909
1.70027
1.85284
2.0179
2.19569
2.385
2.58438
2.78765
2.98233
3.15425
3.29043
3.38157
3.42307
3.41448
3.35779
3.25579
3.11299
2.93828
2.73829
2.51839
2.28462
2.04429
1.80543
1.57577
1.36191
1.1687
0.998877
0.853326
0.731582
0.632499
0.554801
0.49734
0.459728
0.443318
0.449032
0.47107
0.497691
0.515941
0.515036
0.489593
0.441396
0.378984
0.315112
0.26299
0.23053
0.217616
0.221342
0.239592
0.268997
0.30573
0.346228
0.387581
0.427559
0.464024
0.494149
0.514734
0.522448
0.514494
0.489819
0.450157
0.40039
0.347977
0.301544
0.269095
0.254933
0.261602
0.288679
0.333173
0.390275
0.454068
0.518417
0.577186
0.624162
0.654197
0.663487
0.650204
0.615111
0.561908
0.497137
0.429512
0.368751
0.323502
0.298733
0.297877
0.324688
0.382159
0.465937
0.564203
0.661933
0.743395
0.795482
0.809131
0.7803
0.710715
0.608273
0.48658
0.363093
0.255936
0.179673
0.137282
0.125033
0.143225
0.190348
0.263823
0.369578
0.519771
0.715689
0.926111
1.10799
1.21973
1.23501
1.15165
0.993221
0.804477
0.641363
0.555241
0.545886
0.584298
0.653174
0.740795
0.829848
0.903653
0.949551
0.961041
0.938069
0.88552
0.810581
0.720001
0.619084
0.510906
0.396772
0.277137
0.151913
0.0225337
-0.106677
-0.228905
-0.336518
-0.422718
-0.483146
-0.516565
-0.525101
-0.513996
-0.480979
0
0.928845
2.32299
4.04772
5.81861
7.28125
8.12032
8.15368
7.38
5.97507
4.24107
2.52108
1.09981
0.126784
-0.400279
-0.413364
-0.39289
-0.358882
-0.309781
-0.246466
-0.172126
-0.0917981
-0.0116737
0.0614469
0.121496
0.164044
0.186953
0.190689
0.178246
0.154706
0.126477
0.100299
0.081759
0.0742994
0.0792301
0.0963517
0.124106
0.158752
0.195646
0.230628
0.261131
0.286958
0.310535
0.336556
0.371101
0.422276
0.510216
0.658224
0.840443
1.00975
1.11722
1.13299
1.06075
0.939374
0.830819
0.798723
0.8851
1.04938
1.25267
1.47724
1.71303
1.95068
2.1823
2.40147
2.60037
2.76772
2.89622
2.98038
3.01225
2.98429
2.89316
2.74206
2.53996
2.29867
2.02995
1.74797
1.46236
1.17901
0.903944
0.643749
0.405264
0.194971
0.0193839
-0.10895
-0.16243
-0.111913
0.0161728
0.164801
0.277383
0.313872
0.26095
0.133001
-0.0357769
-0.204535
-0.339204
-0.43397
-0.50043
-0.547018
-0.577279
-0.591969
-0.590999
-0.57336
-0.534498
-0.461506
-0.331696
-0.144651
0.0560345
0.214325
0.2814
0.233708
0.0821389
-0.13074
-0.343775
-0.496242
-0.564317
-0.576808
-0.546112
-0.47648
-0.392824
-0.322832
-0.28916
-0.302156
-0.355759
-0.428803
-0.49236
-0.521084
-0.504499
-0.457047
-0.394731
-0.336628
-0.297005
-0.279663
-0.277001
-0.274068
-0.255648
-0.207609
-0.133367
-0.0570879
-0.0103035
-0.0187115
-0.0918963
-0.219608
-0.375324
-0.525127
-0.638224
-0.707689
-0.743955
-0.752188
-0.734281
-0.693717
-0.634991
-0.563368
-0.484275
-0.402497
-0.323025
-0.250528
-0.188981
-0.141323
-0.109021
-0.0918311
-0.087672
-0.0927325
-0.101888
-0.109416
-0.109954
-0.0994525
-0.073723
-0.0325057
0.0172286
0.0634046
0.0930544
0.0958323
0.066903
0.00841827
-0.0708604
-0.15779
-0.238387
-0.302411
-0.347508
-0.376862
-0.393308
-0.400526
-0.402567
-0.403007
-0.404469
-0.408551
-0.415983
-0.426849
-0.440596
-0.456416
-0.47316
-0.489496
-0.493258
0
0.970774
2.35052
3.96717
5.57004
6.85256
7.50124
7.28795
6.18127
4.40501
2.38651
0.598359
-0.629641
-1.21914
-1.13369
-0.97669
-0.815292
-0.659159
-0.518844
-0.40375
-0.319894
-0.268482
-0.245393
-0.242178
-0.248284
-0.253817
-0.251932
-0.241644
-0.224459
-0.202576
-0.178722
-0.155167
-0.133078
-0.112383
-0.0921094
-0.0710086
-0.0481814
-0.0234283
0.002775
0.02976
0.0571586
0.085329
0.115496
0.149567
0.189719
0.237944
0.295141
0.36182
0.438417
0.525271
0.622828
0.731834
0.853371
0.988698
1.13889
1.30434
1.4842
1.67602
1.87561
2.07741
2.27478
2.46116
2.63096
2.78015
2.90636
3.00705
3.0787
3.11936
3.12726
3.09989
3.03479
2.93077
2.78903
2.61363
2.41138
2.19104
1.96276
1.73479
1.51325
1.30297
1.10736
0.928721
0.768605
0.628464
0.510907
0.417477
0.349377
0.310208
0.307432
0.335155
0.377624
0.417385
0.440764
0.442085
0.424579
0.397644
0.371996
0.355259
0.347953
0.348321
0.355447
0.368997
0.389745
0.419246
0.458879
0.508751
0.5665
0.628295
0.690439
0.749383
0.802208
0.84702
0.882982
0.910024
0.92835
0.937666
0.93696
0.925131
0.901002
0.864069
0.815282
0.757559
0.695816
0.636422
0.586173
0.550999
0.534731
0.538258
0.56255
0.602281
0.647634
0.688837
0.718754
0.734563
0.738014
0.734262
0.729764
0.729999
0.736966
0.749541
0.766215
0.783878
0.798931
0.808412
0.810769
0.806255
0.79691
0.786201
0.778466
0.778334
0.789492
0.814314
0.858804
0.938174
1.06775
1.22043
1.35163
1.4129
1.3716
1.22618
1.00793
0.768167
0.557941
0.407878
0.297672
0.210611
0.141784
0.0880441
0.0458258
0.0115787
-0.0179906
-0.0457612
-0.0740825
-0.104737
-0.138806
-0.176531
-0.217394
-0.264924
0
0.768316
2.10112
3.90273
5.9125
7.731
8.89582
9.01918
7.95831
5.92469
3.44086
1.13416
-0.526497
-1.39297
-1.586
-1.40516
-1.08198
-0.668005
-0.206841
0.218247
0.476595
0.601575
0.67202
0.719833
0.755223
0.780443
0.796132
0.802382
0.798726
0.784709
0.760576
0.727824
0.689481
0.649993
0.61476
0.589383
0.57872
0.586422
0.614294
0.662077
0.727589
0.807213
0.896616
0.991541
1.08846
1.18501
1.28008
1.37354
1.46604
1.55902
1.65466
1.75586
1.86615
1.98926
2.12846
2.28559
2.46017
2.64887
2.8469
3.04421
3.22987
3.39468
3.5332
3.64468
3.7325
3.80248
3.86042
3.90868
3.94551
3.96379
3.95188
3.89709
3.78928
3.624
3.40406
3.1396
2.84661
2.54457
2.25082
1.97503
1.72462
1.50556
1.32244
1.17797
1.06874
0.988752
0.931168
0.88963
0.859123
0.836262
0.819021
0.806135
0.796467
0.788508
0.78067
0.771293
0.758964
0.742783
0.7225
0.698482
0.671587
0.643046
0.61419
0.586453
0.561467
0.541097
0.527354
0.522306
0.527773
0.546449
0.581144
0.629188
0.680892
0.724546
0.750119
0.752829
0.735037
0.705561
0.676514
0.658832
0.657017
0.671054
0.692352
0.708299
0.706981
0.68151
0.632332
0.566811
0.496669
0.434658
0.390098
0.36477
0.359383
0.376512
0.417653
0.483162
0.572145
0.682331
0.810026
0.950394
1.09841
1.24464
1.37696
1.48396
1.55652
1.58914
1.58033
1.53224
1.44958
1.3386
1.20664
1.06429
0.919862
0.780104
0.651599
0.540466
0.451434
0.387841
0.351087
0.341182
0.358074
0.402312
0.47017
0.543467
0.597319
0.607167
0.554448
0.431684
0.244542
0.0098707
-0.264885
0
0.883805
2.26376
3.90859
5.55406
6.93054
7.7544
7.76921
6.86245
5.18159
3.13366
1.22927
-0.132793
-0.801355
-0.756681
-0.422619
-0.0711799
0.231356
0.408043
0.40636
0.227075
-0.0674905
-0.369652
-0.561788
-0.559951
-0.446911
-0.290347
-0.109788
0.0877765
0.286002
0.462899
0.599211
0.681476
0.704617
0.673126
0.600117
0.504428
0.406914
0.327182
0.273357
0.245598
0.24677
0.278965
0.341897
0.43306
0.548162
0.681707
0.827588
0.979091
1.13052
1.27595
1.41026
1.5296
1.63208
1.71836
1.7918
1.85818
1.92483
1.99935
2.08798
2.19349
2.31678
2.45726
2.61378
2.78105
2.94766
3.09984
3.22448
3.31065
3.35038
3.33853
3.27231
3.15094
2.9759
2.75256
2.49166
2.20615
1.90992
1.61652
1.33709
1.08035
0.853958
0.663209
0.510994
0.397958
0.322574
0.282697
0.278316
0.308576
0.36625
0.437518
0.506769
0.559265
0.583044
0.57056
0.51987
0.435292
0.327335
0.211579
0.10593
0.0257862
-0.0207143
-0.0304538
-0.0057353
0.0453923
0.111261
0.179366
0.239154
0.286068
0.3165
0.328855
0.323299
0.301397
0.266156
0.221266
0.171295
0.121455
0.0772209
0.043802
0.0253173
0.0247239
0.0432344
0.0800841
0.133384
0.199992
0.272772
0.342303
0.399691
0.438162
0.454257
0.448321
0.424153
0.387982
0.347071
0.308311
0.276486
0.254301
0.243457
0.245174
0.260457
0.289795
0.332982
0.390223
0.462391
0.54373
0.623369
0.690617
0.738806
0.768149
0.785988
0.80393
0.83384
0.885778
0.950009
1.00361
1.02016
0.980927
0.882378
0.737508
0.570885
0.409647
0.271904
0.156426
0.0561958
-0.0321919
-0.112634
-0.188216
-0.259569
-0.324621
-0.378765
-0.416427
-0.43316
-0.427431
-0.401517
-0.351105
0
0.675824
1.75359
3.20703
4.85721
6.41613
7.56017
7.99915
7.54318
6.17885
4.13157
1.85071
-0.12249
-1.36708
-1.75517
-1.38715
-1.03817
-0.737538
-0.512833
-0.37329
-0.280154
-0.206851
-0.148569
-0.104388
-0.0738024
-0.0562994
-0.0508862
-0.0557584
-0.0682238
-0.0849062
-0.102167
-0.116767
-0.126467
-0.129979
-0.12658
-0.116544
-0.101181
-0.0819389
-0.0595136
-0.0332403
-0.000918245
0.0407715
0.0952894
0.164956
0.250621
0.352563
0.461714
0.566812
0.658318
0.73197
0.790476
0.842656
0.900458
0.975175
1.07392
1.19368
1.33055
1.48203
1.64532
1.81737
1.99522
2.17581
2.35503
2.5262
2.67866
2.80203
2.8862
2.92335
2.90989
2.84732
2.74168
2.60179
2.43711
2.25638
2.069
1.88106
1.69652
1.51881
1.35102
1.19539
1.05305
0.923845
0.806541
0.699145
0.599447
0.505579
0.416497
0.332282
0.25419
0.184603
0.126497
0.0826921
0.0552699
0.0473526
0.0604564
0.0890203
0.123133
0.152648
0.170147
0.173048
0.164017
0.149469
0.136696
0.130699
0.131453
0.135203
0.134293
0.120537
0.0886796
0.039095
-0.021352
-0.0807185
-0.125299
-0.143739
-0.134496
-0.0998425
-0.0450512
0.0205443
0.0862952
0.142505
0.182152
0.201791
0.201638
0.185128
0.158191
0.128494
0.103612
0.0900837
0.0931547
0.115818
0.163986
0.232078
0.306652
0.37242
0.416823
0.433546
0.423672
0.394242
0.355108
0.315534
0.28086
0.252521
0.231028
0.216931
0.210915
0.214255
0.228957
0.257617
0.302993
0.368017
0.458487
0.584629
0.759121
0.97506
1.19102
1.36169
1.44746
1.42515
1.29644
1.08784
0.840247
0.594257
0.380255
0.201637
0.0513832
-0.0711052
-0.161793
-0.218817
-0.243268
-0.239499
-0.214334
-0.176833
-0.136057
-0.0993084
-0.0708732
-0.0516144
-0.0394507
-0.0304413
-0.0200137
0
0.359204
1.07616
2.10976
3.43787
4.93532
6.34986
7.34179
7.58758
6.91279
5.3945
3.37198
1.34275
-0.219896
-1.04416
-1.04957
-0.839853
-0.646736
-0.493032
-0.392043
-0.344913
-0.341279
-0.363012
-0.389795
-0.404582
-0.401016
-0.380954
-0.346964
-0.30121
-0.24606
-0.18416
-0.1182
-0.0508008
0.0151817
0.0766968
0.130856
0.175214
0.208182
0.229396
0.239927
0.242274
0.240133
0.238014
0.240543
0.25172
0.274866
0.312446
0.365636
0.434231
0.517473
0.613007
0.718195
0.830684
0.948753
1.07138
1.19803
1.32851
1.46263
1.60022
1.7413
1.88622
2.03536
2.18866
2.34539
2.50097
2.64594
2.76865
2.8585
2.90893
2.91853
2.88999
2.82734
2.73339
2.61244
2.46937
2.30549
2.12148
1.91982
1.70502
1.48337
1.26245
1.05012
0.854821
0.68366
0.541599
0.431268
0.352791
0.303891
0.280279
0.276279
0.285613
0.302179
0.320633
0.336982
0.348386
0.352938
0.349314
0.336365
0.31306
0.278929
0.234453
0.181047
0.122041
0.0669984
0.0272451
0.0126324
0.0282074
0.0733918
0.13949
0.213967
0.284858
0.34458
0.391495
0.428715
0.46096
0.490997
0.517517
0.535152
0.537085
0.518556
0.479665
0.426383
0.36949
0.32188
0.293459
0.29282
0.332031
0.39684
0.463278
0.506998
0.513306
0.483456
0.434114
0.389966
0.372578
0.393945
0.44241
0.4903
0.507023
0.474214
0.395611
0.296481
0.212458
0.173221
0.186961
0.228272
0.284416
0.346175
0.406742
0.463306
0.517039
0.571701
0.631533
0.699298
0.774044
0.85338
0.933836
1.01075
1.07743
1.12486
1.14568
1.13346
1.08387
0.996154
0.87436
0.727649
0.56938
0.415022
0.27874
0.16612
0.0831672
0.0430131
0.0555132
0.102794
0.157161
0.19183
0.189185
0.146017
0.0735784
-0.00761085
-0.0759294
-0.11617
-0.131774
0
0.524335
1.36138
2.59657
4.19814
5.94227
7.42852
8.20297
7.94784
6.64884
4.63994
2.48356
0.739765
-0.260752
-0.5202
-0.394676
-0.326363
-0.266704
-0.215666
-0.172365
-0.135043
-0.102364
-0.0728255
-0.0451445
-0.0181803
0.00923405
0.0383956
0.0706511
0.10712
0.148318
0.193754
0.241862
0.290522
0.337006
0.378419
0.412527
0.438221
0.455898
0.467593
0.476835
0.488204
0.506629
0.536557
0.580999
0.640507
0.713782
0.798461
0.891518
0.989058
1.08759
1.18498
1.28085
1.37652
1.4744
1.577
1.68605
1.80182
1.92276
2.04649
2.17047
2.29281
2.41295
2.53189
2.65204
2.77799
2.91744
3.07728
3.2507
3.41312
3.53464
3.58827
3.55546
3.42966
3.21848
2.94337
2.63502
2.32408
2.02789
1.74727
1.47915
1.22385
0.987277
0.777141
0.600092
0.462547
0.368493
0.317625
0.304628
0.319923
0.351648
0.388156
0.420547
0.444915
0.459664
0.46449
0.460284
0.448536
0.430964
0.409169
0.384598
0.358709
0.333213
0.310304
0.292361
0.281611
0.279677
0.287187
0.303613
0.327408
0.35639
0.388211
0.420714
0.452148
0.480863
0.504952
0.522635
0.532121
0.531982
0.521663
0.501876
0.47466
0.443038
0.410386
0.379721
0.352869
0.330678
0.313597
0.30177
0.295267
0.294282
0.299132
0.310098
0.327158
0.349756
0.376704
0.405716
0.433911
0.458347
0.476544
0.486869
0.488698
0.482355
0.468923
0.450043
0.42791
0.404868
0.383456
0.366279
0.355629
0.353047
0.359075
0.373414
0.393937
0.418069
0.443804
0.470672
0.500275
0.5362
0.584517
0.660346
0.786658
0.961364
1.14619
1.29403
1.36698
1.34776
1.24163
1.0714
0.870327
0.676013
0.518366
0.401476
0.316462
0.256687
0.217923
0.189456
0.159959
0.121206
0.0710653
0.0145482
-0.0375911
-0.0722058
-0.0777949
-0.0529897
0
0.0775424
0.17471
0.296553
0.612479
1.27587
2.31842
3.688
5.23227
6.69691
7.73708
7.99039
7.22933
5.5238
3.29286
1.16485
-0.302732
-0.87801
-0.669292
-0.448901
-0.246982
-0.0800082
0.0420359
0.125332
0.184366
0.223112
0.246383
0.259433
0.267395
0.274767
0.28498
0.300082
0.320673
0.346156
0.37481
0.404628
0.433982
0.462077
0.489055
0.515764
0.543317
0.572658
0.604248
0.638191
0.674478
0.713175
0.754573
0.799171
0.847554
0.900251
0.957676
1.02021
1.08852
1.16369
1.24727
1.34111
1.44704
1.56645
1.69984
1.84624
2.00375
2.1695
2.33963
2.50959
2.67441
2.82899
2.96852
3.08894
3.18711
3.26088
3.30897
3.33067
3.32547
3.29286
3.23222
3.14311
3.02582
2.88186
2.71415
2.52742
2.32798
2.12317
1.92046
1.72646
1.54625
1.38282
1.23694
1.10762
0.992666
0.889445
0.795472
0.708862
0.628559
0.554392
0.487319
0.429488
0.383454
0.351776
0.336783
0.340014
0.361723
0.400595
0.453724
0.516838
0.584665
0.651373
0.710406
0.754771
0.778964
0.779427
0.755558
0.710449
0.650942
0.586686
0.528251
0.484758
0.460867
0.457606
0.472326
0.499989
0.535116
0.573538
0.613292
0.654463
0.698147
0.745252
0.794958
0.843934
0.885154
0.908955
0.906381
0.871521
0.804039
0.710754
0.605388
0.506
0.430545
0.392018
0.387611
0.41213
0.459367
0.520688
0.586937
0.65043
0.70621
0.750574
0.781188
0.796733
0.79691
0.782221
0.753881
0.713819
0.664667
0.609665
0.552443
0.496722
0.445983
0.402899
0.369636
0.349538
0.354849
0.439822
0.748943
1.25403
1.79981
2.19854
2.30048
2.07024
1.60262
1.06234
0.59685
0.315928
0.201157
0.142872
0.104852
0.0777668
0.058567
0.0444972
0.0334216
0.024038
0.0158411
0.00889075
0.00350912
0
-0.00314233
-0.00414598
-0.00155478
0.117273
0.738104
1.88717
3.4128
5.03826
6.46763
7.44792
7.78735
7.37464
6.22729
4.53657
2.65166
0.974365
-0.19221
-0.752097
-0.649293
-0.498669
-0.339393
-0.175968
-0.015594
0.130368
0.250328
0.334653
0.378568
0.384305
0.361455
0.324973
0.291287
0.273867
0.277558
0.297849
0.329571
0.368851
0.411532
0.453334
0.490556
0.520983
0.544209
0.561762
0.576968
0.594497
0.619601
0.657095
0.71027
0.78004
0.868486
0.97062
1.07214
1.15838
1.2196
1.25504
1.2741
1.29392
1.33411
1.41061
1.52874
1.67745
1.84707
2.03195
2.22729
2.42906
2.63456
2.84242
3.052
3.26186
3.4649
3.64531
3.78228
3.85519
3.84895
3.75785
3.58778
3.35608
3.08803
2.81039
2.54317
2.29268
2.05793
1.83847
1.63645
1.45386
1.29219
1.1522
1.0331
0.932555
0.84717
0.773049
0.706545
0.644968
0.587072
0.533198
0.485013
0.444879
0.415132
0.397275
0.392258
0.399297
0.414682
0.433605
0.451603
0.465759
0.475408
0.482109
0.488874
0.49894
0.514495
0.535428
0.560108
0.585403
0.607519
0.622996
0.629547
0.626538
0.615008
0.597288
0.576377
0.555254
0.536127
0.52023
0.507974
0.498955
0.492102
0.486047
0.479493
0.471527
0.461828
0.450731
0.439118
0.428198
0.419179
0.412943
0.409943
0.41009
0.412577
0.416223
0.419801
0.422354
0.423432
0.423198
0.422392
0.42222
0.424172
0.42976
0.440447
0.457378
0.481145
0.511602
0.547767
0.587811
0.629406
0.669998
0.70704
0.738209
0.76143
0.775029
0.777863
0.769244
0.748981
0.717411
0.675398
0.624248
0.56558
0.501176
0.432924
0.362797
0.292861
0.225436
0.163067
0.108317
0.0636403
0.0312312
0.0118581
0.00330558
0
-0.00371952
-0.0174189
-0.0473754
-0.0970784
-0.166507
-0.25215
-0.361257
-0.304995
0.293533
1.57843
3.44782
5.53951
7.34488
8.39548
8.42486
7.43855
5.68415
3.55797
1.49566
-0.12925
-1.09064
-1.35893
-1.09539
-0.855668
-0.650961
-0.491377
-0.378959
-0.296865
-0.230806
-0.175174
-0.124817
-0.0757226
-0.025421
0.0271884
0.0822388
0.139228
0.197333
0.255589
0.31289
0.367844
0.41848
0.462087
0.495767
0.516898
0.523787
0.516489
0.497444
0.471689
0.446519
0.430581
0.432538
0.458106
0.510546
0.590921
0.697064
0.824028
0.965068
1.11295
1.26127
1.40574
1.54415
1.67619
1.80304
1.92672
2.04938
2.17291
2.29867
2.42764
2.56058
2.69834
2.84237
2.99643
3.16876
3.36171
3.55241
3.70363
3.7776
3.75285
3.63291
3.4406
3.20176
2.93081
2.63466
2.32656
2.01621
1.71094
1.41977
1.15217
0.916702
0.720084
0.565504
0.452525
0.377698
0.335536
0.319571
0.323615
0.342661
0.370361
0.40037
0.426807
0.444482
0.449325
0.438915
0.412902
0.373213
0.32396
0.271132
0.221292
0.180867
0.155318
0.147798
0.16021
0.192299
0.241641
0.303974
0.373898
0.445375
0.512404
0.570107
0.615221
0.646204
0.66295
0.666251
0.657228
0.636965
0.606749
0.567955
0.522448
0.472855
0.423047
0.377419
0.340178
0.314594
0.302487
0.304071
0.318143
0.34248
0.37398
0.409511
0.446521
0.482797
0.516698
0.547344
0.57472
0.599649
0.623589
0.648277
0.675309
0.705726
0.73989
0.77745
0.817404
0.858512
0.899605
0.939739
0.978117
1.01366
1.0445
1.068
1.08085
1.07957
1.06142
1.02521
0.971809
0.903969
0.825612
0.740795
0.652889
0.563756
0.473994
0.383566
0.29247
0.202106
0.117731
0.0484699
0.00569315
0
0.0371687
0.118398
0.237197
0.38145
0.691698
1.22832
2.10986
3.42338
5.08289
6.79702
8.12906
8.63571
8.04356
6.393
4.07202
1.69357
-0.146511
-1.11158
-1.21269
-0.856316
-0.523571
-0.239295
-0.0225301
0.116712
0.204697
0.247477
0.255493
0.241922
0.22046
0.203082
0.197988
0.207512
0.230399
0.264946
0.309485
0.361923
0.419885
0.47915
0.534073
0.579384
0.611432
0.629335
0.63549
0.635097
0.634841
0.641249
0.659128
0.689349
0.731783
0.787034
0.855734
0.938395
1.03527
1.14609
1.26976
1.40426
1.54688
1.69464
1.84486
1.99555
2.14575
2.29543
2.44519
2.59577
2.74759
2.90046
3.05343
3.20481
3.35236
3.49316
3.62271
3.73334
3.81519
3.85799
3.84988
3.78053
3.64503
3.44653
3.19624
2.91063
2.60765
2.30373
2.0074
1.72349
1.45802
1.21696
1.00517
0.826094
0.681561
0.571479
0.493809
0.444861
0.419862
0.413647
0.421311
0.438567
0.461959
0.48886
0.517149
0.544602
0.568588
0.586192
0.594616
0.591724
0.5767
0.550584
0.51649
0.4794
0.445561
0.421589
0.412943
0.422876
0.45355
0.504871
0.576602
0.666435
0.766342
0.862972
0.942614
0.994068
1.01079
0.992174
0.943561
0.875033
0.799173
0.728473
0.671641
0.631727
0.608761
0.602173
0.611654
0.636264
0.674941
0.727001
0.790024
0.855844
0.912227
0.946684
0.949838
0.918683
0.85839
0.781774
0.70641
0.650243
0.62395
0.626077
0.652717
0.7014
0.767295
0.844143
0.925255
1.00446
1.07673
1.138
1.18409
1.21098
1.21617
1.19771
1.15467
1.08772
0.999557
0.895018
0.780573
0.663424
0.550288
0.44567
0.35236
0.271799
0.204006
0.147975
0.102231
0.0653869
0.0365649
0.0156454
0.00320554
0
0.00741887
0.0250454
0.052209
0.102846
0.703059
1.70595
3.01042
4.46347
5.88372
7.08706
7.88219
8.07054
7.49734
6.15015
4.24009
2.18154
0.447494
-0.631234
-0.939992
-0.744135
-0.54583
-0.353135
-0.174866
-0.0198483
0.105191
0.196395
0.254759
0.286496
0.301666
0.311233
0.323615
0.3422
0.364386
0.386
0.402659
0.411563
0.412645
0.408698
0.404663
0.406445
0.418089
0.441846
0.479555
0.53116
0.595388
0.668444
0.743785
0.814415
0.874415
0.920309
0.951909
0.972437
0.98797
1.0064
1.03593
1.083
1.15211
1.24619
1.36658
1.51269
1.68187
1.86962
2.07012
2.27694
2.48388
2.68565
2.87836
3.05902
3.22445
3.37015
3.48972
3.5758
3.61843
3.60606
3.52921
3.38432
3.17622
2.91841
2.63098
2.3369
2.05564
1.79533
1.56116
1.35847
1.19019
1.0572
0.958026
0.889018
0.845114
0.820279
0.807286
0.798501
0.787801
0.771337
0.747943
0.719049
0.68806
0.659301
0.636756
0.622823
0.617916
0.620597
0.627604
0.635145
0.640086
0.640912
0.638185
0.634395
0.633262
0.638735
0.6538
0.679442
0.71473
0.757909
0.805986
0.854688
0.898291
0.931056
0.948431
0.94784
0.929359
0.895933
0.852959
0.807228
0.765497
0.733119
0.711812
0.700769
0.699289
0.705958
0.718912
0.736215
0.756075
0.776959
0.79782
0.818185
0.838127
0.858104
0.878646
0.899965
0.921606
0.942027
0.958699
0.9685
0.96832
0.955716
0.929503
0.890192
0.840252
0.784198
0.72843
0.680406
0.648267
0.649235
0.739268
0.972927
1.28242
1.56667
1.73742
1.75396
1.63119
1.4226
1.19188
0.989304
0.833924
0.708458
0.599476
0.501033
0.410315
0.325637
0.246072
0.171728
0.104548
0.0491973
0.0118636
0
0.021777
0.0808515
0.1777
0.307728
0.472568
0.96576
1.73238
2.77503
4.07821
5.51146
6.83661
7.75104
7.96769
7.3281
5.9099
4.04925
2.22588
0.849043
0.0769585
-0.137155
-0.113803
-0.0836807
-0.0482384
-0.00874029
0.033341
0.0766815
0.120526
0.165012
0.211235
0.260992
0.316213
0.379052
0.451068
0.530125
0.607451
0.671583
0.712557
0.725805
0.714423
0.688713
0.662881
0.65007
0.657753
0.682126
0.716287
0.754851
0.7931
0.82871
0.862581
0.898576
0.942321
0.999539
1.07376
1.16475
1.27091
1.39007
1.51926
1.65508
1.79439
1.93473
2.07467
2.21376
2.35237
2.49122
2.63091
2.77143
2.9119
3.05031
3.1838
3.30908
3.42284
3.52187
3.60034
3.65051
3.66738
3.64563
3.58083
3.47129
3.31961
3.13332
2.92394
2.7047
2.48761
2.2788
2.08053
1.89377
1.71777
1.55088
1.39159
1.23937
1.09553
0.963253
0.846863
0.751342
0.68138
0.640512
0.630499
0.65104
0.701048
0.782035
0.893707
1.02538
1.15385
1.25527
1.31018
1.30862
1.25344
1.15989
1.05109
0.950738
0.876167
0.827108
0.796001
0.777721
0.769797
0.770267
0.777587
0.790889
0.810012
0.835449
0.868108
0.908925
0.95989
1.02329
1.09568
1.16632
1.22157
1.24861
1.2393
1.19248
1.11412
1.01566
0.911567
0.815881
0.73635
0.676985
0.641878
0.632853
0.648817
0.688244
0.746896
0.813323
0.875607
0.924575
0.955775
0.96986
0.971151
0.964914
0.954369
0.939326
0.916515
0.882288
0.835929
0.781752
0.728775
0.688114
0.66943
0.675438
0.70229
0.748669
0.81308
0.909728
1.0945
1.44374
1.88302
2.24996
2.38457
2.21805
1.80128
1.26576
0.759527
0.41173
0.214418
0.0800894
-0.0126234
-0.0632261
-0.0742503
-0.0508671
0
0.068883
0.150788
0.239713
0.331722
0.424879
0.518476
0.612503
0.708091
0.873527
1.36021
2.29521
3.68944
5.37012
7.00721
8.19485
8.56674
7.92103
6.3187
4.10779
1.83351
0.0469771
-0.90519
-0.97841
-0.604611
-0.267184
2.64764e-005
0.179374
0.272272
0.32889
0.364582
0.386546
0.400274
0.409416
0.41525
0.417656
0.415777
0.40884
0.396739
0.380504
0.36252
0.34646
0.336894
0.33862
0.355823
0.391239
0.445175
0.515954
0.599713
0.690911
0.783194
0.869985
0.945839
1.00726
1.05316
1.08496
1.10632
1.12254
1.1399
1.16499
1.20351
1.26005
1.33841
1.44124
1.56963
1.72282
1.89808
2.09077
2.29458
2.50217
2.70452
2.89141
3.05417
3.18612
3.28291
3.34237
3.36413
3.34893
3.29807
3.21307
3.09627
2.9516
2.78306
2.59465
2.39116
2.17848
1.96325
1.75198
1.55093
1.36569
1.20086
1.06015
0.94479
0.853368
0.782507
0.727346
0.682142
0.640934
0.598151
0.549261
0.491429
0.422974
0.343974
0.261669
0.187239
0.132237
0.105323
0.109882
0.143391
0.198694
0.266509
0.338068
0.407272
0.471544
0.529366
0.57853
0.616153
0.640068
0.648558
0.640991
0.618601
0.584803
0.544765
0.504246
0.46817
0.439855
0.418915
0.402398
0.386598
0.369174
0.350733
0.33524
0.32914
0.339501
0.370581
0.435408
0.536907
0.651595
0.748546
0.800598
0.794695
0.737163
0.651611
0.570071
0.520795
0.51399
0.538203
0.58152
0.6239
0.645296
0.632107
0.581673
0.503317
0.415478
0.339778
0.294097
0.280879
0.291937
0.320854
0.363569
0.41585
0.474196
0.536265
0.600772
0.666996
0.73421
0.801105
0.865669
0.925426
0.977778
1.02022
1.05022
1.06222
1.05278
1.01855
0.95752
0.870568
0.762555
0.642292
0.52114
0.410662
0.319374
0.247577
0.196232
0.164482
0.149538
0.147658
0.154184
0.163485
0.169938
0.168775
0.156655
0.132132
0.0958999
0.0506905
0
-0.0423232
0.304667
1.19529
2.67148
4.56472
6.50197
8.00013
8.61993
8.13138
6.62193
4.48591
2.2828
0.523399
-0.510287
-0.823474
-0.593508
-0.398777
-0.223602
-0.0789177
0.028579
0.105049
0.159157
0.195508
0.220019
0.239037
0.258477
0.282915
0.31529
0.356906
0.407541
0.465593
0.528431
0.591949
0.649618
0.6949
0.72279
0.731401
0.723193
0.705169
0.687568
0.681267
0.694729
0.730617
0.78329
0.847388
0.919134
0.994887
1.072
1.1493
1.2272
1.30736
1.39209
1.48368
1.58389
1.69361
1.81296
1.94148
2.07879
2.2248
2.37992
2.54483
2.7201
2.90644
3.10438
3.31182
3.51939
3.70881
3.86037
3.95714
3.98831
3.95109
3.85053
3.69727
3.50379
3.28093
3.03907
2.78774
2.5336
2.28175
2.0375
1.80723
1.59763
1.41435
1.26148
1.14095
1.05235
0.993083
0.958921
0.944613
0.944486
0.952721
0.964202
0.973377
0.975222
0.965961
0.943668
0.908774
0.864172
0.814744
0.766357
0.724636
0.69361
0.675195
0.670504
0.679792
0.703
0.739721
0.789238
0.852855
0.930631
1.01862
1.10856
1.18971
1.25171
1.28707
1.29295
1.27177
1.23042
1.17838
1.12504
1.07737
1.03799
1.00548
0.977834
0.953596
0.931909
0.91275
0.896746
0.884698
0.877096
0.873553
0.873682
0.876866
0.882402
0.889528
0.897322
0.904536
0.909505
0.910535
0.906463
0.897288
0.884553
0.871227
0.861002
0.857194
0.862846
0.877735
0.896959
0.913275
0.919456
0.910737
0.886515
0.850777
0.811267
0.777743
0.759502
0.766164
0.83708
1.06264
1.45708
1.89502
2.26129
2.45551
2.41765
2.15244
1.73161
1.26837
0.879177
0.634704
0.470429
0.339943
0.22907
0.138802
0.0707238
0.0256264
0.00287933
0
0.012676
0.0353553
0.062299
0.0887836
0.112173
0.132193
0.149539
0.163375
0.548698
1.38271
2.71066
4.45312
6.36094
8.02216
8.95797
8.8051
7.50148
5.35733
2.94337
0.845537
-0.567623
-1.23352
-1.18159
-0.924231
-0.659294
-0.411623
-0.207052
-0.064867
0.0313923
0.0997361
0.145484
0.175545
0.196988
0.215764
0.235898
0.25914
0.286198
0.317001
0.351005
0.387317
0.424751
0.461063
0.493669
0.52042
0.54054
0.555248
0.567709
0.582207
0.602903
0.632661
0.6711
0.716839
0.768724
0.82572
0.887249
0.953546
1.02583
1.10624
1.19756
1.30278
1.42453
1.56441
1.7225
1.89695
2.08393
2.27793
2.47246
2.66089
2.83748
2.99815
3.14095
3.26611
3.3755
3.47173
3.55652
3.62867
3.68182
3.70655
3.68902
3.6154
3.47732
3.27618
3.02456
2.74396
2.45927
2.19157
1.9447
1.71842
1.51155
1.31966
1.13632
0.954845
0.767238
0.566707
0.36374
0.182607
47
210
374
557
758
957
1149
1328
1499
1674
1854
2036
2224
2407
2588
2762
2938
3115
3297
3484
3668
3579
3663
3692
0
0
0
0
0
0
0
0
0
0
0
0
0
0
0
0
0
0
0
0
0
0
0
0
0
0
0
0
0
0
0
0
0
0
0
0
0
0
0
0
0
0
0
0
0
0
0
0
0
0
0
0
0
0
0
0
0
0
0
0
0
0
0
0
0
0
0
0
0
0
0
0
0
0
0
0
0
0
0
0
0
0
0
0
0
0
0
0
0
0
0
0
0
0
0
0
0
0
0
0
0
0
0
0
0
0
0
0
0
0
0
0
0
0
0
0
0
0
0
0
0
0
0
0
0
0
0
0
0
0
0
0
0
0
0
0
0
0
0
0
0
0
0
0
0
0
0
0
0
0
0
0
0
0
0
0
0
0
0
0
0
0
0
0
0
0
0
0
0
0
0
0
0
0
0
0
0
0
0
0
0
0
0
0
0
0
0
0
0
0
0
0
0
0
0
0
0
0
0
0
0
0
0
0
0
0
0
0
0
0
0
0
0
0
0
0
0
0
0
0
0
0
0
0
0
0
0
0
0
0
0
0
0
0
0
0
0
0
0
0
0
0
0
0
0
0
0
0
0
0
0
0
0
0
0
0
0
0
0
0
0
0
0
0
0
0
0
0
0
0
0
0
0
0
0
0
0
0
0
0
0
0
0
0
0
0
0
0
0
0
0
0
0
0
0
0
0
0
0
0
0
0
0
0
0
0
0
0
0
0
0
0
0
0
0
0
0
0
0
0
0
0
0
0
0
0
0
0
0
0
0
0
0
0
0
0
0
0
0
0
0
0
0
0
0
0
0
0
0
0
0
0
0
0
0
0
0
0
0
0
0
0
0
0
0
0
0
0
0
0
0
0
0
0
0
0
0
0
0
0
0
0
0
0
0
0
0
0
0
0
0
0
0
0
0
0
0
0
0
0
0
0
0
0
0
0
0
0
0
0
0
0
0
0
0
0
0
0
0
0
0
0
0
0
0
0
0
0
0
0
0
0
0
0
0
0
0
0
0
0
0
0
0
0
0
0
0
0
0
0
0
0
0
0
0
0
0
0
0
0
0
0
0
0
0
0
0
0
0
0
0
0
0
0
0
0
0
0
0
0
0
0
0
0
0
0
0
0
0
0
0
0
0
0
0
0
0
0
0
0
0
0
0
0
0
0
0
0
0
0
0
0
0
0
0
0
0
0
0
0
0
0
0
0
0
0
0
0
0
0
0
0
0
0
0
0
0
0
0
0
0
0
0
0
0
0
0
0
0
0
0
0
0
0
0
0
0
0
0
0
0
0
0
0
0
0
0
0
0
0
0
0
0
0
0
0
0
0
0
0
0
0
0
0
0
0
0
0
0
0
0
0
0
0
0
0
0
0
0
0
0
0
0
0
0
0
0
0
0
0
0
0
0
0
0
0
0
0
0
0
0
0
0
0
0
0
0
0
0
0
0
0
0
0
0
0
0
0
0
0
0
0
0
0
0
0
0
0
0
0
0
0
0
0
0
0
0
0
0
0
0
0
0
0
0
0
0
0
0
0
0
0
0
0
0
0
0
0
0
0
0
0
0
0
0
0
0
0
0
0
0
0
0
0
0
0
0
0
0
0
0
0
0
0
0
0
0
0
0
0
0
0
0
0
0
0
0
0
0
0
0
0
0
0
0
0
0
0
0
0
0
0
0
0
0
0
0
0
0
0
0
0
0
0
0
0
0
0
0
0
0
0
0
0
0
0
0
0
0
0
0
0
0
0
0
0
0
0
0
0
0
0
0
0
0
0
0
0
0
0
0
0
0
0
0
0
0
0
0
0
0
0
0
0
0
0
0
0
0
0
0
0
0
0
0
0
0
0
0
0
0
0
0
0
0
0
0
0
0
0
0
0
0
0
0
0
0
0
0
0
0
0
0
0
0
0
0
0
0
0
0
0
0
0
0
0
0
0
0
0
0
0
0
0
0
0
0
0
0
0
0
0
0
0
0
0
0
0
0
0
0
0
0
0
0
0
0
0
0
0
0
0
0
0
0
0
0
0
0
0
0
0
0
0
0
0
0
0
0
0
0
0
0
0
0
0
0
0
0
0
0
0
0
0
0
0
0
0
0
0
0
0
0
0
0
0
0
0
0
0
0
0
0
0
0
0
0
0
0
0
0
0
0
0
0
0
0
0
0
0
0
0
0
0
0
0
0
0
0
0
0
0
0
0
0
0
0
0
0
0
0
0
0
0
0
0
0
0
0
0
0
0
0
0
0
0
0
0
0
0
0
0
0
0
0
0
0
0
0
0
0
0
0
0
0
0
0
0
0
0
0
0
0
0
0
0
0
0
0
0
0
0
0
0
0
0
0
0
0
0
0
0
0
0
0
0
0
0
0
0
0
0
0
0
0
0
0
0
0
0
0
0
0
0
0
0
0
0
0
0
0
0
0
0
0
0
0
0
0
0
0
0
0
0
0
0
0
0
0
0
0
0
0
0
0
0
0
0
0
0
0
0
0
0
0
0
0
0
0
0
0
0
0
0
0
0
0
0
0
0
0
0
0
0
0
0
0
0
0
0
0
0
0
0
0
0
0
0
0
0
0
0
0
0
0
0
0
0
0
0
0
0
0
0
0
0
0
0
0
0
0
0
0
0
0
0
0
0
0
0
0
0
0
0
0
0
0
0
0
0
0
0
0
0
0
0
0
0
0
0
0
0
0
0
0
0
0
0
0
0
0
0
0
0
0
0
0
0
0
0
0
0
0
0
0
0
0
0
0
0
0
0
0
0
0
0
0
0
0
0
0
0
0
0
0
0
0
0
0
0
0
0
0
0
0
0
0
0
0
0
0
0
0
0
0
0
0
0
0
0
0
0
0
0
0
0
0
0
0
0
0
0
0
0
0
0
0
0
0
0
0
0
0
0
0
0
0
0
0
0
0
0
0
0
0
0
0
0
0
0
0
0
0
0
0
0
0
0
0
0
0
0
0
0
0
0
0
0
0
0
0
0
0
0
0
0
0
0
0
0
0
0
0
0
0
0
0
0
0
0
0
0
0
0
0
0
0
0
0
0
0
0
0
0
0
0
0
0
0
0
0
0
0
0
0
0
0
0
0
0
0
0
0
0
0
0
0
0
0
0
0
0
0
0
0
0
0
0
0
0
0
0
0
0
0
0
0
0
0
0
0
0
0
0
0
0
0
0
0
0
0
0
0
0
0
0
0
0
0
0
0
0
0
0
0
0
0
0
0
0
0
0
0
0
0
0
0
0
0
0
0
0
0
0
0
0
0
0
0
0
0
0
0
0
0
0
0
0
0
0
0
0
0
0
0
0
0
0
0
0
0
0
0
0
0
0
0
0
0
0
0
0
0
0
0
0
0
0
0
0
0
0
0
0
0
0
0
0
0
0
0
0
0
0
0
0
0
0
0
0
0
0
0
0
0
0
0
0
0
0
0
0
0
0
0
0
0
0
0
0
0
0
0
0
0
0
0
0
0
0
0
0
0
0
0
0
0
0
0
0
0
0
0
0
0
0
0
0
0
0
0
0
0
0
0
0
0
0
0
0
0
0
0
0
0
0
0
0
0
0
0
0
0
0
0
0
0
0
0
0
0
0
0
0
0
0
0
0
0
0
0
0
0
0
0
0
0
0
0
0
0
0
0
0
0
0
0
0
0
0
0
0
0
0
0
0
0
0
0
0
0
0
0
0
0
0
0
0
0
0
0
0
0
0
0
0
0
0
0
0
0
0
0
0
0
0
0
0
0
0
0
0
0
0
0
0
0
0
0
0
0
0
0
0
0
0
0
0
0
0
0
0
0
0
0
0
0
0
0
0
0
0
0
0
0
0
0
0
0
0
0
0
0
0
0
0
0
0
0
0
0
0
0
0
0
0
0
0
0
0
0
0
0
0
0
0
0
0
0
0
0
0
0
0
0
0
0
0
0
0
0
0
0
0
0
0
0
0
0
0
0
0
0
0
0
0
0
0
0
0
0
0
0
0
0
0
0
0
0
0
0
0
0
0
0
0
0
0
0
0
0
0
0
0
0
0
0
0
0
0
0
0
0
0
0
0
0
0
0
0
0
0
0
0
0
0
0
0
0
0
0
0
0
0
0
0
0
0
0
0
0
0
0
0
0
0
0
0
0
0
0
0
0
0
0
0
0
0
0
0
0
0
0
0
0
0
0
0
0
0
0
0
0
0
0
0
0
0
0
0
0
0
0
0
0
0
0
0
0
0
0
0
0
0
0
0
0
0
0
0
0
0
0
0
0
0
0
0
0
0
0
0
0
0
0
0
0
0
0
0
0
0
0
0
0
0
0
0
0
0
0
0
0
0
0
0
0
0
0
0
0
0
0
0
0
0
0
0
0
0
0
0
0
0
0
0
0
0
0
0
0
0
0
0
0
0
0
0
0
0
0
0
0
0
0
0
0
0
0
0
0
0
0
0
0
0
0
0
0
0
0
0
0
0
0
0
0
0
0
0
0
0
0
0
0
0
0
0
0
0
0
0
0
0
0
0
0
0
0
0
0
0
0
0
0
0
0
0
0
0
0
0
0
0
0
0
0
0
0
0
0
0
0
0
0
0
0
0
0
0
0
0
0
0
0
0
0
0
0
0
0
0
0
0
0
0
0
0
0
0
0
0
0
0
0
0
0
0
0
0
0
0
0
0
0
0
0
0
0
0
0
0
0
0
0
0
0
0
0
0
0
0
0
0
0
0
0
0
0
0
0
0
0
0
0
0
0
0
0
0
0
0
0
0
0
0
0
0
0
0
0
0
0
0
0
0
0
0
0
0
0
0
0
0
0
0
0
0
0
0
0
0
0
0
0
0
0
0
0
0
0
0
0
0
0
0
0
0
0
0
0
0
0
0
0
0
0
0
0
0
0
0
0
0
0
0
0
0
0
0
0
0
0
0
0
0
0
0
0
0
0
0
0
0
0
0
0
0
0
0
0
0
0
0
0
0
0
0
0
0
0
0
0
0
0
0
0
0
0
0
0
0
0
0
0
0
0
0
0
0
0
0
0
0
0
0
0
0
0
0
0
0
0
0
0
0
0
0
0
0
0
0
0
0
0
0
0
0
0
0
0
0
0
0
0
0
0
0
0
0
0
0
0
0
0
0
0
0
0
0
0
0
0
0
0
0
0
0
0
0
0
0
0
0
0
0
0
0
0
0
0
0
0
0
0
0
0
0
0
0
0
0
0
0
0
0
0
0
0
0
0
0
0
0
0
0
0
0
0
0
0
0
0
0
0
0
0
0
0
0
0
0
0
0
0
0
0
0
0
0
0
0
0
0
0
0
0
0
0
0
0
0
0
0
0
0
0
0
0
0
0
0
0
0
0
0
0
0
0
0
0
0
0
0
0
0
0
0
0
0
0
0
0
0
0
0
0
0
0
0
0
0
0
0
0
0
0
0
0
0
0
0
0
0
0
0
0
0
0
0
0
0
0
0
0
0
0
0
0
0
0
0
0
0
0
0
0
0
0
0
0
0
0
0
0
0
0
0
0
0
0
0
0
0
0
0
0
0
0
0
0
0
0
0
0
0
0
0
0
0
0
0
0
0
0
0
0
0
0
0
0
0
0
0
0
0
0
0
0
0
0
0
0
0
0
0
0
0
0
0
0
0
0
0
0
0
0
0
0
0
0
0
0
0
0
0
0
0
0
0
0
0
0
0
0
0
0
0
0
0
0
0
0
0
0
0
0
0
0
0
0
0
0
0
0
0
0
0
0
0
0
0
0
0
0
0
0
0
0
0
0
0
0
0
0
0
0
0
0
0
0
0
0
0
0
0
0
0
0
0
0
0
0
0
0
0
0
0
0
0
0
0
0
0
0
0
0
0
0
0
0
0
0
0
0
0
0
0
0
0
0
0
0
0
0
0
0
0
0
0
0
0
0
0
0
0
0
0
0
0
0
0
0
0
0
0
0
0
0
0
0
0
0
0
0
0
0
0
0
0
0
0
0
0
0
0
0
0
0
0
0
0
0
0
0
0
0
0
0
0
0
0
0
0
0
0
0
0
0
0
0
0
0
0
0
0
0
0
0
0
0
0
0
0
0
0
0
0
0
0
0
0
0
0
0
0
0
0
0
0
0
0
0
0
0
0
0
0
0
0
0
0
0
0
0
0
0
0
0
0
0
0
0
0
0
0
0
0
0
0
0
0
0
0
0
0
0
0
0
0
0
0
0
0
0
0
0
0
0
0
0
0
0
0
0
0
0
0
0
0
0
0
0
0
0
0
0
0
0
0
0
0
0
0
0
0
0
0
0
0
0
0
0
0
0
0
0
0
0
0
0
0
0
0
0
0
0
0
0
0
0
0
0
0
0
0
0
0
0
0
0
0
0
0
0
0
0
0
0
0
0
0
0
0
0
0
0
0
0
0
0
0
0
0
0
0
0
0
0
0
0
0
0
0
0
0
0
0
0
0
0
0
0
0
0
0
0
0
0
0
0
0
0
0
0
0
0
0
0
0
0
0
0
0
0
0
0
0
0
0
0
0
0
0
0
0
0
0
0
0
0
0
0
0
0
0
0
0
0
0
0
0
0
0
0
0
0
0
0
0
0
0
0
0
0
0
0
0
0
0
0
0
0
0
0
0
0
0
0
0
0
0
0
0
0
0
0
0
0
0
0
0
0
0
0
0
0
0
0
0
0
0
0
0
0
0
0
0
0
0
0
0
0
0
0
0
0
0
0
0
0
0
0
0
0
0
0
0
0
0
0
0
0
0
0
0
0
0
0
0
0
0
0
0
0
0
0
0
0
0
0
0
0
0
0
0
0
0
0
0
0
0
0
0
0
0
0
0
0
0
0
0
0
0
0
0
0
0
0
0
0
0
0
0
0
0
0
0
0
0
0
0
0
0
0
0
0
0
0
0
0
0
0
0
0
0
0
0
0
0
0
0
0
0
0
0
0
0
0
0
0
0
0
0
0
0
0
0
0
0
0
0
0
0
0
0
0
0
0
0
0
0
0
0
0
0
0
0
0
0
0
0
0
0
0
0
0
0
0
0
0
0
0
0
0
0
0
0
0
0
0
0
0
0
0
0
0
0
0
0
0
0
0
0
0
0
0
0
0
0
0
0
0
0
0
0
0
0
0
0
0
0
0
0
0
0
0
0
0
0
0
0
0
0
0
0
0
0
0
0
0
0
0
0
0
0
0
0
0
0
0
0
0
0
0
0
0
0
0
0
0
0
0
0
0
0
0
0
0
0
0
0
0
0
0
0
0
0
0
0
0
0
0
0
0
0
0
0
0
0
0
0
0
0
0
0
0
0
0
0
0
0
0
0
0
0
0
0
0
0
0
0
0
0
0
0
0
0
0
0
0
0
0
0
0
0
0
0
0
0
0
0
0
0
0
0
0
0
0
0
0
0
0
0
0
0
0
0
0
0
0
0
0
0
0
0
0
0
0
0
0
0
0
0
0
0
0
0
0
0
0
0
0
0
0
0
0
0
0
0
0
0
0
0
0
0
0
0
0
0
0
0
0
0
0
0
0
0
0
0
0
0
0
0
0
0
0
0
0
0
0
0
0
0
0
0
0
0
0
0
0
0
0
0
0
0
0
0
0
0
0
0
0
0
0
0
0
0
0
0
0
0
0
0
0
0
0
0
0
0
0
0
0
0
0
0
0
0
0
0
0
0
0
0
0
0
0
0
0
0
0
0
0
0
0
0
0
0
0
0
0
0
0
0
0
0
0
0
0
0
0
0
0
0
0
0
0
0
0
0
0
0
0
0
0
0
0
0
0
0
0
0
0
0
0
0
0
0
0
0
0
0
0
0
0
0
0
0
0
0
0
0
0
0
0
0
0
0
0
0
0
0
0
0
0
0
0
0
0
0
0
0
0
0
0
0
0
0
0
0
0
0
0
0
0
0
0
0
0
0
0
0
0
0
0
0
0
0
0
0
0
0
0
0
0
0
0
0
0
0
0
0
0
0
0
0
0
0
0
0
0
0
0
0
0
0
0
0
0
0
0
0
0
0
0
0
0
0
0
0
0
0
0
0
0
0
0
0
0
0
0
0
0
0
0
0
0
0
0
0
0
0
0
0
0
0
0
0
0
0
0
0
0
0
0
0
0
0
0
0
0
0
0
0
0
0
0
0
0
0
0
0
0
0
0
0
0
0
0
0
0
0
0
0
0
0
0
0
0
0
0
0
0
0
0
0
0
0
0
0
0
0
0
0
0
0
0
0
0
0
0
0
0
0
0
0
0
0
0
0
0
0
0
0
0
0
0
0
0
0
0
0
0
0
0
0
0
0
0
0
0
0
0
0
0
0
0
0
0
0
0
0
0
0
0
0
0
0
0
0
0
0
0
0
0
0
0
0
0
0
0
0
0
0
0
0
0
0
0
0
0
0
0
0
0
0
0
0
0
0
0
0
0
0
0
0
0
0
0
0
0
0
0
0
0
0
0
0
0
