2.29535
2.30488
2.30423
2.29782
2.29131
2.29026
2.2979
2.31506
2.34104
2.37424
2.41172
2.44939
2.48303
2.50916
2.52558
2.53165
2.52829
2.51755
2.50216
2.48483
2.4677
2.45183
2.4371
2.42246
2.40554
2.38333
2.35299
2.31287
2.26325
2.2067
2.1477
2.09165
2.04395
2.01044
1.9915
1.98142
1.97149
1.95293
1.9196
1.86925
1.80336
1.72566
1.64029
1.55087
1.45937
1.36651
1.27243
1.17719
1.08102
0.984468
0.888454
0.794169
0.702925
0.615939
0.534147
0.458062
0.387639
0.322415
0.261719
0.204917
0.151605
0.10168
0.0552509
0.0124428
-0.0267883
-0.0628311
-0.0965313
-0.128899
-0.160764
-0.192432
-0.223425
-0.252421
-0.277459
-0.296313
-0.306903
-0.307628
-0.297586
-0.276665
-0.245588
-0.205628
-0.158001
-0.106593
-0.0579979
-0.019117
0.00430908
0.00911713
-0.0044838
-0.0330841
-0.0711834
-0.112785
-0.152843
-0.188765
-0.219888
-0.245917
-0.266375
-0.280714
-0.288433
-0.289241
-0.282723
-0.268768
-0.249541
-0.229348
-0.21283
-0.203668
-0.203534
-0.211687
-0.225399
-0.240992
-0.255036
-0.265614
-0.272658
-0.27669
-0.278459
-0.278985
-0.279379
-0.280655
-0.283611
-0.288749
-0.296232
-0.305851
-0.31702
-0.328807
-0.339978
-0.349057
-0.354601
-0.355398
-0.350687
-0.340296
-0.324672
-0.304768
-0.28184
-0.257191
-0.231976
-0.207024
-0.182848
-0.159679
-0.137487
-0.11601
-0.0947964
-0.0732452
-0.0506866
-0.0264931
-0.000201416
0.0283928
0.0591763
0.0917812
0.125692
0.160276
0.194772
0.228204
0.259191
0.285575
0.304007
0.31063
0.301846
0.274957
0.229201
0.166576
0.092086
0.0132538
-0.0610905
-0.122458
-0.160257
-0.161424
-0.126183
-0.0726822
-0.0237057
0
-0.0223488
-0.0899654
-0.200933
-0.3474
-0.517823
-0.739394
-0.813845
-0.414921
0.737655
2.68353
5.05674
7.13147
8.11695
7.56318
5.63084
3.04436
0.740491
-0.582727
-0.754216
-0.109353
0.511404
0.774429
1.00181
1.18894
1.33452
1.44064
1.51234
1.5566
1.58125
1.59381
1.60047
1.60551
1.61123
1.6181
1.6255
1.63245
1.63829
1.64309
1.64766
1.65322
1.66094
1.67149
1.68471
1.70011
1.71712
1.73513
1.75374
1.77271
1.79184
1.81086
1.82929
1.84644
1.86155
1.87398
1.88351
1.89053
1.89613
1.9021
1.91074
1.92454
1.94577
1.97616
2.01656
2.06667
2.12503
2.18929
2.25632
2.3228
2.38585
2.4433
2.49394
2.53724
2.57366
2.60456
2.63181
2.65771
2.68475
2.7153
2.75224
2.79885
2.85362
2.90849
2.95269
2.97617
2.97264
2.94114
2.88554
2.81285
2.73107
2.64756
2.56621
2.48801
2.41243
2.33783
2.26148
2.18011
2.09064
1.99099
1.88075
1.76139
1.63606
1.50899
1.38458
1.26626
1.15659
1.05699
0.967782
0.888345
0.817518
0.753881
0.696029
0.642799
0.593394
0.547413
0.504826
0.465938
0.431296
0.401454
0.376958
0.358266
0.345638
0.339012
0.338197
0.342708
0.350262
0.358046
0.363298
0.363982
0.359282
0.349738
0.337019
0.323454
0.311534
0.303025
0.299232
0.301302
0.309888
0.325037
0.346101
0.371756
0.400131
0.428937
0.455995
0.479676
0.499264
0.515125
0.528672
0.542091
0.55793
0.578569
0.605661
0.639956
0.681271
0.728502
0.77977
0.832713
0.884851
0.933949
0.978329
1.01708
1.05008
1.07783
1.10122
1.12113
1.13808
1.15177
1.16104
1.1638
1.15715
1.1378
1.10258
1.04902
0.975846
0.883463
0.774181
0.652622
0.524657
0.396296
0.273361
0.16171
0.0664425
-0.0101856
-0.0678547
-0.107681
-0.131578
-0.14175
-0.140466
-0.128668
-0.109112
-0.0864525
-0.0661434
-0.0538063
-0.0543526
-0.0711521
-0.105423
-0.155883
-0.218626
-0.286912
-0.353306
-0.410986
-0.453725
-0.468037
-0.436988
-0.360747
-0.258426
-0.153244
-0.0664104
-0.012397
0
-0.023568
-0.0989193
-0.225788
-0.395701
-0.590485
-0.887387
-0.818927
-0.102276
1.37357
3.39931
5.42622
6.74855
6.82828
5.58049
3.438
1.14516
-0.595396
-1.415
-1.36447
-0.798304
-0.468729
-0.191495
0.00135765
0.108362
0.165339
0.185781
0.184383
0.173754
0.162686
0.154511
0.150142
0.149537
0.151939
0.155616
0.158281
0.157717
0.152333
0.141605
0.126283
0.108268
0.0901966
0.0748653
0.0645058
0.0607483
0.0646645
0.0769295
0.0981186
0.128922
0.170123
0.222313
0.285437
0.358908
0.441145
0.527466
0.61174
0.688319
0.753492
0.806379
0.848977
0.88535
0.920303
0.958051
1.00104
1.04971
1.10389
1.16362
1.22913
1.30119
1.38239
1.47805
1.59474
1.72864
1.85869
1.95843
2.00534
1.99002
1.92252
1.83249
1.76071
1.74338
1.78781
1.86563
1.95701
2.05391
2.1484
2.23365
2.30456
2.35797
2.39246
2.40793
2.40508
2.38498
2.34873
2.29734
2.23176
2.15364
2.06525
1.96917
1.86834
1.76632
1.66725
1.57538
1.49455
1.42799
1.37878
1.34857
1.33453
1.33144
1.3337
1.33678
1.33828
1.33822
1.33853
1.34196
1.3508
1.36569
1.38622
1.41099
1.43847
1.4677
1.49873
1.5325
1.57027
1.61286
1.65987
1.70968
1.75966
1.80644
1.84638
1.87527
1.89032
1.89018
1.87541
1.84879
1.81525
1.78128
1.75378
1.73861
1.7395
1.7584
1.79146
1.83167
1.87066
1.90052
1.91516
1.91119
1.88806
1.84786
1.79475
1.7346
1.67322
1.61549
1.56458
1.52193
1.48804
1.46269
1.44472
1.43235
1.42342
1.41569
1.40714
1.39611
1.38154
1.36304
1.34088
1.31598
1.28978
1.26396
1.24022
1.21998
1.2043
1.19361
1.18785
1.18646
1.18852
1.19281
1.19791
1.20215
1.20381
1.20146
1.19433
1.1826
1.16768
1.15197
1.13851
1.13027
1.12936
1.13741
1.15354
1.17512
1.19873
1.22117
1.24019
1.25469
1.26453
1.26988
1.27068
1.26665
1.25701
1.24029
1.21504
1.18021
1.13548
1.08148
1.01994
0.953334
0.884528
0.81638
0.751307
0.690936
0.635757
0.584861
0.536283
0.487461
0.4358
0.379204
0.316453
0.247367
0.172735
0.0936641
0
0.00691561
0.329207
1.19018
2.66515
4.544
6.32177
7.36919
7.22084
5.8266
3.61258
1.29773
-0.437146
-1.23889
-1.17675
-0.622769
-0.119235
0.238649
0.393414
0.404438
0.398605
0.387905
0.376767
0.367243
0.359064
0.351117
0.342061
0.330822
0.316876
0.300251
0.281348
0.260766
0.239313
0.217865
0.197566
0.179812
0.16606
0.15782
0.156659
0.162064
0.171523
0.181896
0.190718
0.197369
0.203536
0.21274
0.229032
0.256049
0.297401
0.348107
0.39747
0.433789
0.448852
0.441193
0.416841
0.387346
0.365882
0.362907
0.378779
0.407961
0.446345
0.490261
0.534868
0.575896
0.610566
0.638028
0.65927
0.676555
0.692569
0.70961
0.729095
0.75137
0.776484
0.804507
0.835855
0.871249
0.911328
0.956244
1.00509
1.05453
1.09948
1.13431
1.15408
1.15546
1.13707
1.09927
1.04343
0.971265
0.88474
0.786145
0.67771
0.561514
0.439292
0.313418
0.189124
0.0742519
-0.0229796
-0.0951928
-0.136959
-0.145438
-0.120524
-0.0646258
0.0177192
0.120306
0.235522
0.355492
0.473961
0.586979
0.692535
0.789475
0.877519
0.957178
1.0285
1.09082
1.14366
1.18591
1.21565
1.23109
1.23142
1.21739
1.19134
1.15681
1.11795
1.07886
1.04227
1.00988
0.982847
0.961574
0.944882
0.930262
0.914532
0.894516
0.867791
0.833311
0.791789
0.745747
0.699253
0.657252
0.624485
0.611725
0.647469
0.763471
0.924394
1.07528
1.16257
1.15556
1.05872
0.908404
0.757
0.653847
0.624934
0.64027
0.677433
0.737588
0.808575
0.873568
0.91716
0.930062
0.912096
0.871941
0.823593
0.78118
0.754543
0.742416
0.740337
0.745927
0.757894
0.774923
0.795805
0.819453
0.844826
0.870822
0.896192
0.919363
0.938354
0.951302
0.956788
0.954185
0.943981
0.927883
0.908576
0.889177
0.872527
0.860567
0.853613
0.851414
0.853205
0.858258
0.866368
0.878081
0.894601
0.917404
0.947697
0.985568
1.03029
1.08048
1.13338
1.18503
1.23078
1.26596
1.28687
1.29109
1.2779
1.24845
1.20581
1.15474
1.10119
1.05144
1.01095
0.982524
0.970211
0.978751
1.00179
1.02
1.01064
0.954318
0.841505
0.676423
0.476296
0.0862065
0
0.509322
1.78096
3.72916
5.9559
7.825
8.6897
8.18532
6.42904
3.99596
1.66661
0.0789167
-0.522581
-0.314871
0.228211
0.445523
0.636419
0.79009
0.913772
1.01291
1.08942
1.14637
1.18698
1.21458
1.23231
1.24276
1.24799
1.24969
1.2493
1.24808
1.2472
1.24778
1.25093
1.25784
1.26971
1.28765
1.31231
1.34362
1.38052
1.421
1.46235
1.50181
1.53719
1.56748
1.59295
1.61502
1.63579
1.65752
1.682
1.71027
1.74284
1.77977
1.8207
1.86498
1.91176
1.96008
2.00891
2.05719
2.10387
2.14794
2.18841
2.22445
2.25557
2.28174
2.30353
2.32219
2.33961
2.35807
2.37992
2.40706
2.44054
2.48028
2.52517
2.57307
2.62117
2.66649
2.70633
2.73846
2.76099
2.77256
2.77237
2.75974
2.73407
2.69492
2.64213
2.57604
2.49767
2.40875
2.31176
2.2095
2.10472
1.99988
1.89701
1.79756
1.70236
1.61162
1.5251
1.44221
1.36229
1.28491
1.21012
1.13864
1.07184
1.0115
0.959418
0.91699
0.88477
0.862231
0.848176
0.840314
0.835252
0.829575
0.820575
0.806661
0.7875
0.76384
0.737133
0.709095
0.681359
0.655217
0.631635
0.611584
0.595979
0.585586
0.581182
0.583912
0.592324
0.601038
0.603532
0.594393
0.57145
0.536704
0.49557
0.45481
0.420197
0.393967
0.374651
0.361222
0.352851
0.348512
0.347098
0.347466
0.348237
0.347797
0.34456
0.337286
0.325409
0.309269
0.290151
0.270106
0.251647
0.237377
0.229319
0.22881
0.23684
0.254207
0.282015
0.319748
0.362617
0.40276
0.432201
0.445144
0.439935
0.419933
0.392827
0.368451
0.355723
0.359058
0.375973
0.401918
0.431355
0.45808
0.476759
0.484117
0.479509
0.464803
0.443687
0.420682
0.399973
0.384267
0.374835
0.371848
0.37474
0.382382
0.393302
0.406165
0.420104
0.434905
0.450999
0.469291
0.490895
0.516834
0.547705
0.583585
0.62415
0.668642
0.71541
0.76076
0.799277
0.824938
0.832064
0.816398
0.775963
0.711464
0.626181
0.525519
0.416429
0.306904
0.203082
0.109657
0.0347092
0
0.0479315
0.163435
0.292715
0.372491
0.355093
0.231014
0.0371965
-0.407243
-0.505712
0.118727
1.65805
3.92335
6.30085
7.95447
8.2105
6.91637
4.54628
1.97107
0.0272009
-0.85722
-0.770844
-0.143065
0.109463
0.340261
0.543165
0.711046
0.842221
0.939735
1.00969
1.05923
1.0921
1.11351
1.12638
1.13273
1.13524
1.13821
1.14727
1.16795
1.2037
1.25581
1.3198
1.38859
1.45552
1.51711
1.57415
1.63062
1.69096
1.75858
1.82897
1.89227
1.93834
1.96216
1.96659
1.96106
1.95722
1.96403
1.9824
2.00795
2.0377
2.0693
2.10064
2.13026
2.15744
2.18213
2.20466
2.22549
2.24491
2.26296
2.27943
2.29401
2.3064
2.31656
2.32479
2.33182
2.33882
2.34731
2.35899
2.37547
2.3982
2.42876
2.46798
2.51222
2.55286
2.57994
2.58516
2.56448
2.51942
2.45631
2.3841
2.31145
2.24382
2.18165
2.12373
2.06859
2.01401
1.95685
1.89353
1.82057
1.73515
1.63579
1.5228
1.39853
1.26722
1.13442
1.00609
0.887318
0.782117
0.693014
0.621311
0.565829
0.520797
0.478465
0.431167
0.372981
0.300971
0.215682
0.120785
0.0219774
-0.0744896
-0.164015
-0.244243
-0.313355
-0.370685
-0.416395
-0.451127
-0.475751
-0.491288
-0.498561
-0.498911
-0.494575
-0.488204
-0.482598
-0.480333
-0.483372
-0.49277
-0.508517
-0.529549
-0.553909
-0.578993
-0.602138
-0.620821
-0.632932
-0.636958
-0.632
-0.617632
-0.593658
-0.559884
-0.515496
-0.454962
-0.366616
-0.252721
-0.137796
-0.0559998
-0.0366714
-0.0890617
-0.195632
-0.318322
-0.414709
-0.455482
-0.454422
-0.433656
-0.401231
-0.361778
-0.319872
-0.279992
-0.24581
-0.219748
-0.202819
-0.194612
-0.193457
-0.196817
-0.201868
-0.206154
-0.208068
-0.207125
-0.204091
-0.200345
-0.197214
-0.195466
-0.195185
-0.196013
-0.197552
-0.199653
-0.202373
-0.205689
-0.209093
-0.21138
-0.21077
-0.205345
-0.193585
-0.175129
-0.150659
-0.120546
-0.085182
-0.044779
0.000844383
0.0521553
0.10979
0.175001
0.247602
0.322459
0.391343
0.44527
0.47665
0.480905
0.457114
0.407804
0.338326
0.256205
0.170934
0.089843
0.0181747
-0.0401192
-0.082299
-0.106678
-0.114088
-0.10711
-0.0889507
-0.0634731
-0.0364014
-0.0137968
0
0.00663147
0.00358124
-0.0061924
-0.265172
-0.264472
0.360255
1.79356
3.8355
5.86886
7.08423
6.87492
5.17627
2.53093
-0.173835
-2.13716
-2.98368
-2.8311
-2.10141
-1.24419
-0.545741
-0.104967
0.0313421
-0.0316872
-0.100662
-0.16932
-0.231404
-0.281594
-0.316629
-0.339186
-0.352574
-0.358541
-0.358009
-0.351866
-0.340858
-0.325641
-0.30689
-0.285318
-0.261759
-0.237228
-0.212977
-0.190849
-0.172563
-0.159092
-0.149874
-0.142246
-0.131532
-0.111996
-0.0724628
-0.00125589
0.0893782
0.175683
0.233562
0.25056
0.231849
0.197298
0.171678
0.173296
0.200895
0.241034
0.286757
0.331662
0.370215
0.39887
0.416616
0.42492
0.427144
0.427624
0.430568
0.438812
0.453594
0.474772
0.501187
0.530624
0.560081
0.586061
0.604795
0.61235
0.604631
0.576951
0.525152
0.445564
0.335555
0.19412
0.0223151
-0.176625
-0.397586
-0.634232
-0.879406
-1.12711
-1.37255
-1.61219
-1.84368
-2.06563
-2.27719
-2.47757
-2.66565
-2.83981
-2.99802
-3.13811
-3.25768
-3.35195
-3.41606
-3.45489
-3.4771
-3.49219
-3.5079
-3.52813
-3.55229
-3.57592
-3.59253
-3.59561
-3.58382
-3.55816
-3.51909
-3.46742
-3.40486
-3.33361
-3.25595
-3.17393
-3.08912
-3.00259
-2.915
-2.82685
-2.73879
-2.65213
-2.56939
-2.49482
-2.43265
-2.38621
-2.35677
-2.34251
-2.33834
-2.3367
-2.32933
-2.30934
-2.27299
-2.22323
-2.16468
-2.10076
-2.03447
-1.96859
-1.90521
-1.84554
-1.78999
-1.73833
-1.69
-1.64438
-1.60098
-1.55947
-1.51964
-1.48127
-1.44397
-1.40715
-1.37004
-1.33177
-1.29162
-1.24917
-1.20444
-1.15789
-1.11048
-1.06362
-1.01889
-0.977773
-0.941361
-0.910126
-0.883986
-0.861698
-0.841083
-0.819155
-0.792407
-0.757274
-0.710741
-0.650991
-0.577914
-0.493305
-0.40127
-0.306156
-0.212423
-0.124373
-0.045992
0.0193257
0.0696972
0.104853
0.125623
0.133756
0.131709
0.122349
0.108582
0.0929368
0.0772547
0.0625703
0.0492484
0.0372658
0.0264948
0.0168373
0.00814643
0
-0.0132474
-0.0283154
-0.0469783
-0.0709032
-0.10115
-0.137787
-0.179757
-0.225644
-0.284941
-0.187996
0.258009
1.23401
2.76395
4.60389
6.25427
7.12798
6.81986
5.33672
3.13856
0.941754
-0.614704
-1.24403
-1.07268
-0.544927
-0.119824
0.223379
0.452978
0.605812
0.726544
0.81792
0.884001
0.929764
0.960637
0.982022
0.998876
1.01536
1.03452
1.05821
1.08728
1.12183
1.16135
1.2042
1.2487
1.29356
1.33816
1.38245
1.4266
1.47044
1.51303
1.5526
1.58702
1.61462
1.63506
1.64975
1.66163
1.67446
1.69164
1.71493
1.7439
1.77756
1.81371
1.84944
1.88229
1.91111
1.93641
1.96027
1.98567
2.01552
2.05247
2.09822
2.1477
2.19288
2.22628
2.24447
2.24991
2.25043
2.25645
2.27728
2.31821
2.37473
2.44161
2.51579
2.59482
2.67671
2.76003
2.84377
2.92714
3.00866
3.08416
3.14541
3.18153
3.18126
3.1376
3.05272
2.94024
2.82254
2.72306
2.65674
2.61525
2.58951
2.56544
2.52816
2.46682
2.37799
2.26651
2.14381
2.02444
1.92053
1.83539
1.76824
1.72024
1.69094
1.67869
1.68118
1.69564
1.72111
1.75532
1.79099
1.81931
1.83217
1.82469
1.79726
1.75595
1.71087
1.67309
1.65141
1.64569
1.652
1.66754
1.69006
1.71593
1.74109
1.76217
1.77711
1.78548
1.78839
1.78811
1.78735
1.78843
1.79251
1.7999
1.80877
1.81551
1.81644
1.80932
1.79434
1.77426
1.75348
1.73625
1.72586
1.72085
1.71496
1.69975
1.66808
1.61715
1.54988
1.47429
1.40127
1.34176
1.29965
1.27415
1.26601
1.27983
1.31807
1.36925
1.41786
1.44965
1.45586
1.43573
1.39615
1.3486
1.30497
1.27414
1.25596
1.24768
1.24811
1.25633
1.27132
1.29026
1.3079
1.3187
1.31837
1.30545
1.28235
1.2553
1.23279
1.2231
1.23155
1.26229
1.30861
1.35756
1.39529
1.41171
1.40329
1.3727
1.32609
1.26936
1.20572
1.13708
1.06429
0.987368
0.907247
0.826092
0.747103
0.673977
0.609667
0.556252
0.515478
0.488488
0.472891
0.461168
0.444839
0.416762
0.37322
0.315098
0.244893
0
0.0574886
0.675255
1.99704
3.88947
5.88117
7.29149
7.52705
6.39388
4.23304
1.77957
-0.1844
-1.18211
-1.20505
-0.613963
-0.0258469
0.403962
0.608079
0.639596
0.651629
0.655805
0.653079
0.644071
0.629623
0.611344
0.591855
0.574588
0.563125
0.560308
0.566651
0.583081
0.607068
0.634959
0.663232
0.68964
0.713757
0.736733
0.760395
0.786121
0.814095
0.842959
0.870554
0.895067
0.916063
0.934886
0.954201
0.976847
1.00461
1.03763
1.07298
1.10643
1.13435
1.15533
1.17074
1.18393
1.19855
1.21693
1.23875
1.26253
1.28673
1.31027
1.33314
1.35649
1.38218
1.41196
1.44662
1.48544
1.52703
1.56875
1.60771
1.64156
1.66908
1.69034
1.7065
1.71917
1.72975
1.73888
1.74635
1.75116
1.75188
1.74698
1.73508
1.71499
1.68572
1.64632
1.5964
1.53598
1.46524
1.3847
1.29554
1.19952
1.0987
0.995166
0.890738
0.786877
0.684726
0.585313
0.489781
0.399536
0.31626
0.241758
0.177708
0.125418
0.0856208
0.058381
0.0430842
0.0384504
0.042623
0.0535297
0.0680045
0.0804721
0.0846927
0.0750577
0.04789
0.0024817
-0.058576
-0.129969
-0.204976
-0.277073
-0.342613
-0.400292
-0.449141
-0.489267
-0.521551
-0.547283
-0.567818
-0.58429
-0.597433
-0.607515
-0.614407
-0.617754
-0.61716
-0.612327
-0.603591
-0.592308
-0.580412
-0.570087
-0.563389
-0.561968
-0.566964
-0.579067
-0.598633
-0.625603
-0.659252
-0.69867
-0.742697
-0.789628
-0.837238
-0.88303
-0.924607
-0.960088
-0.988453
-1.00973
-1.02498
-1.0362
-1.04598
-1.05675
-1.07031
-1.08778
-1.10816
-1.12808
-1.14311
-1.14891
-1.14233
-1.12203
-1.08862
-1.04426
-0.991951
-0.935158
-0.876725
-0.81855
-0.761933
-0.707757
-0.656991
-0.610165
-0.567073
-0.526702
-0.487002
-0.444902
-0.396728
-0.339017
-0.269507
-0.18798
-0.096675
0.000245762
0.0966462
0.184901
0.258171
0.311734
0.343437
0.353735
0.345305
0.322377
0.289899
0.25274
0.215138
0.180165
0.149457
0.124164
0.10546
0.0944625
0.092349
0.0990038
0.111476
0.125031
0.134243
0.134204
0.12172
0.0961278
0.0595083
0.0145357
-0.10702
0
0.61625
1.9124
3.77862
5.75909
7.19614
7.53093
6.59403
4.70684
2.52839
0.737579
-0.259374
-0.438521
-0.0627092
0.232688
0.501927
0.725835
0.896323
1.03623
1.15044
1.24502
1.32561
1.39625
1.45927
1.51506
1.56305
1.60255
1.63343
1.65658
1.674
1.68859
1.70367
1.72238
1.74707
1.77892
1.81766
1.8617
1.90966
1.96022
2.0124
2.06572
2.12015
2.17589
2.23313
2.29184
2.35185
2.41284
2.4746
2.53713
2.60075
2.66616
2.73417
2.80549
2.88061
2.95947
3.03943
3.11518
3.18085
3.23209
3.26769
3.29026
3.30545
3.32008
3.34008
3.36866
3.40519
3.44889
3.49944
3.55661
3.62032
3.69125
3.77008
3.85049
3.92293
3.97744
4.00743
4.0122
3.99715
3.97143
3.94453
3.92333
3.90837
3.89826
3.89199
3.88819
3.88521
3.8813
3.87493
3.86502
3.85103
3.83311
3.81202
3.78887
3.76482
3.74062
3.7163
3.69097
3.66276
3.62925
3.58797
3.53717
3.47648
3.40738
3.33317
3.25881
3.19027
3.1331
3.0913
3.0666
3.05819
3.06307
3.07675
3.09414
3.11035
3.12127
3.12413
3.11763
3.10178
3.07756
3.04659
3.01068
2.97159
2.93101
2.89047
2.85144
2.81552
2.78441
2.75961
2.74275
2.73493
2.73492
2.73817
2.73904
2.73244
2.71551
2.68855
2.65494
2.61991
2.5886
2.56408
2.54672
2.53336
2.51879
2.49757
2.46593
2.4228
2.36998
2.31129
2.25124
2.19331
2.13893
2.08867
2.0424
1.99925
1.95821
1.91862
1.88045
1.84432
1.81127
1.78236
1.75832
1.73842
1.72062
1.70214
1.68024
1.653
1.61997
1.5822
1.54203
1.50251
1.46657
1.43633
1.41329
1.39873
1.39305
1.39585
1.40669
1.42411
1.44543
1.46797
1.48961
1.50927
1.52709
1.5442
1.56219
1.58244
1.6053
1.63003
1.65512
1.67768
1.69324
1.69709
1.68483
1.65337
1.60176
1.53172
1.44752
1.35523
1.26147
1.17187
1.08903
1.01369
0.94593
0.884813
0.828735
0.775792
0.724029
0.671553
0.616576
0.557422
0.492585
0.420844
0.340831
0.185676
0
0.253708
1.23856
3.00543
5.21613
7.1885
8.16413
7.68507
5.85927
3.33574
0.987651
-0.508442
-0.947591
-0.589102
-0.0880257
0.313596
0.553466
0.631322
0.666511
0.688485
0.702773
0.713004
0.720932
0.726669
0.729377
0.727999
0.72183
0.710932
0.696302
0.679769
0.663543
0.64971
0.64017
0.635659
0.634968
0.635935
0.636424
0.635263
0.632744
0.6305
0.63086
0.636005
0.646649
0.662519
0.683225
0.707843
0.735051
0.763445
0.791482
0.817638
0.840536
0.859099
0.872752
0.881612
0.886623
0.889582
0.893
0.899839
0.912988
0.934701
0.966082
1.00737
1.05758
1.11254
1.16747
1.21829
1.26268
1.30057
1.33387
1.36551
1.39838
1.4343
1.47326
1.51439
1.55642
1.5976
1.63579
1.66811
1.69153
1.70318
1.70049
1.68164
1.64605
1.59451
1.52898
1.4521
1.36642
1.27425
1.17684
1.0742
0.965884
0.851586
0.731645
0.607465
0.481684
0.358033
0.240901
0.134689
0.0431644
-0.0306492
-0.084642
-0.11892
-0.137357
-0.146014
-0.150959
-0.156875
-0.166098
-0.178364
-0.191311
-0.201569
-0.206089
-0.203405
-0.193388
-0.178583
-0.162731
-0.149467
-0.141127
-0.1381
-0.138924
-0.141034
-0.141824
-0.139742
-0.134866
-0.128136
-0.120957
-0.114993
-0.111776
-0.112414
-0.117456
-0.126908
-0.14035
-0.157014
-0.176121
-0.196954
-0.218797
-0.240845
-0.262128
-0.281456
-0.297488
-0.308938
-0.314333
-0.31239
-0.303839
-0.291783
-0.280078
-0.272001
-0.269028
-0.270276
-0.272892
-0.273272
-0.268576
-0.258316
-0.243888
-0.227842
-0.213208
-0.202419
-0.196432
-0.194328
-0.193412
-0.189764
-0.179183
-0.158919
-0.121417
-0.0544975
0.0346706
0.123648
0.186563
0.205366
0.178845
0.123615
0.0656239
0.0270142
0.0165783
0.0212463
0.0324375
0.0472557
0.0645229
0.085001
0.110732
0.143823
0.185215
0.233045
0.285048
0.338118
0.389154
0.435927
0.477642
0.515034
0.549964
0.584675
0.62095
0.659704
0.700018
0.738195
0.769113
0.787995
0.791987
0.781113
0.758281
0.728391
0.69689
0.668372
0.644941
0.626324
0.611661
0.599859
0.589175
0.577255
0.560853
0.536542
0.501149
0.45247
0.390004
0.315448
0.221796
-0.082008
0
0.796246
2.45516
4.74279
7.04891
8.59836
8.79871
7.53771
5.25331
2.72853
0.728511
-0.314228
-0.408846
0.109521
0.418136
0.675542
0.904143
1.09752
1.25632
1.3818
1.47768
1.54913
1.60185
1.64147
1.67276
1.69948
1.72454
1.74996
1.77704
1.80638
1.83801
1.87147
1.90596
1.9405
1.97412
2.00599
2.03558
2.06278
2.08791
2.11175
2.13545
2.16048
2.18845
2.22091
2.25917
2.30397
2.35533
2.41241
2.47379
2.53591
2.59371
2.64235
2.67844
2.70106
2.71206
2.71563
2.71717
2.72206
2.73416
2.75475
2.78399
2.82181
2.86798
2.92204
2.98337
3.05111
3.12401
3.20027
3.27753
3.35301
3.42367
3.4871
3.542
3.58854
3.62846
3.66464
3.70041
3.74113
3.78859
3.83321
3.85862
3.84933
3.79839
3.71064
3.59982
3.48134
3.3652
3.25203
3.13912
3.02482
2.90801
2.78851
2.66723
2.54605
2.42743
2.31382
2.20727
2.10907
2.01978
1.93923
1.86577
1.79739
1.73237
1.66966
1.60913
1.55139
1.49746
1.44848
1.40494
1.36683
1.33376
1.30533
1.28127
1.2615
1.24586
1.23427
1.22507
1.21601
1.20508
1.19137
1.1756
1.15994
1.14712
1.13914
1.13619
1.13673
1.13731
1.13393
1.12355
1.10522
1.08054
1.05319
1.02786
1.00873
0.998063
0.995233
0.998387
1.00581
1.01571
1.02669
1.03803
1.0495
1.06108
1.07251
1.08287
1.0906
1.09388
1.09123
1.08216
1.06754
1.04952
1.0311
1.01538
1.00464
0.999679
1.00013
1.00483
1.01201
1.01963
1.02587
1.02942
1.02975
1.02707
1.02217
1.01613
1.01002
1.00468
1.00063
0.998093
0.997197
0.998209
1.00165
1.00827
1.01883
1.03389
1.05358
1.07759
1.10536
1.13634
1.17021
1.20703
1.24714
1.29092
1.33853
1.38972
1.44362
1.49905
1.5546
1.60838
1.65706
1.69625
1.72151
1.72843
1.71374
1.67664
1.61943
1.54723
1.46686
1.38518
1.30707
1.23414
1.16663
1.10425
1.04593
0.989979
0.934316
0.876706
0.81499
0.747326
0.672433
0.589818
0.499943
0.404264
0.30243
0.0148766
0
0.574483
1.95661
4.06591
6.43488
8.31601
8.99092
8.13498
6.01481
3.37613
1.0773
-0.307452
-0.681846
-0.339123
0.146386
0.384674
0.59366
0.766252
0.901649
1.0005
1.0667
1.10643
1.12699
1.13578
1.1399
1.14491
1.15528
1.17419
1.20333
1.24281
1.29106
1.34498
1.40141
1.45718
1.50958
1.55666
1.59737
1.63157
1.65977
1.6829
1.70199
1.71816
1.73267
1.74683
1.76204
1.77977
1.80131
1.82753
1.85853
1.89372
1.93136
1.96889
2.0039
2.03493
2.06201
2.08677
2.11199
2.14079
2.17563
2.21712
2.26428
2.31542
2.36783
2.41851
2.46492
2.50551
2.54002
2.56929
2.59491
2.61868
2.64205
2.66581
2.69
2.71413
2.73745
2.75931
2.77939
2.79778
2.81478
2.83051
2.84406
2.85198
2.84844
2.82562
2.77595
2.69478
2.58249
2.44497
2.2923
2.13597
1.98558
1.84403
1.71152
1.58816
1.47312
1.36517
1.26334
1.16731
1.07756
0.995267
0.921963
0.859091
0.807748
0.769003
0.743213
0.726662
0.712394
0.693652
0.666085
0.629367
0.587512
0.547593
0.517235
0.501809
0.501102
0.512276
0.529393
0.545334
0.553825
0.550998
0.536049
0.510991
0.479765
0.447079
0.417044
0.39218
0.373836
0.362439
0.357608
0.35838
0.363454
0.371341
0.380545
0.389793
0.398201
0.405338
0.411202
0.416103
0.420487
0.424753
0.429136
0.43365
0.438148
0.442461
0.446535
0.450454
0.454338
0.458108
0.46116
0.462159
0.459265
0.450706
0.435551
0.414388
0.389553
0.364787
0.34436
0.331947
0.328779
0.334577
0.347857
0.365698
0.384486
0.400623
0.411136
0.4141
0.40886
0.396071
0.377618
0.356445
0.336039
0.320056
0.311776
0.31358
0.326193
0.349304
0.381728
0.421671
0.467244
0.516763
0.569163
0.624041
0.681365
0.740909
0.800853
0.85633
0.900085
0.924006
0.921338
0.888942
0.828965
0.749369
0.662987
0.585088
0.528979
0.499398
0.506264
0.552263
0.622716
0.698309
0.760807
0.796893
0.79907
0.76441
0.692984
0.587437
0.455707
0.286621
0
0.132026
0.998062
2.65533
4.76786
6.68612
7.71862
7.45399
5.95315
3.70901
1.41237
-0.336734
-1.22718
-1.2771
-0.662892
0.0199778
0.656232
1.09155
1.20148
1.26075
1.30024
1.32608
1.34443
1.36028
1.37649
1.39342
1.40914
1.4208
1.42649
1.42668
1.42481
1.42673
1.43906
1.46713
1.51221
1.57076
1.63875
1.71216
1.78659
1.85804
1.9233
1.98022
2.02792
2.06657
2.0972
2.12145
2.14133
2.15898
2.17646
2.19556
2.21761
2.24341
2.27331
2.30729
2.345
2.38599
2.4298
2.47605
2.5245
2.57492
2.62707
2.6806
2.73501
2.78966
2.84397
2.89751
2.95013
3.00191
3.05299
3.1034
3.15284
3.20061
3.24572
3.28702
3.32343
3.35404
3.37816
3.39515
3.40447
3.40557
3.39792
3.38111
3.35493
3.31942
3.27479
3.2213
3.15914
3.08867
3.01014
2.92371
2.82989
2.72977
2.62501
2.51777
2.41036
2.30497
2.20329
2.10639
2.01469
1.92825
1.84711
1.77167
1.70279
1.64173
1.58994
1.54945
1.52088
1.50279
1.49262
1.48727
1.48374
1.47965
1.47333
1.4637
1.45004
1.43212
1.41011
1.38425
1.35533
1.32468
1.29395
1.2648
1.23848
1.21542
1.19545
1.17782
1.16139
1.14503
1.12787
1.10952
1.0901
1.0702
1.05069
1.03253
1.01658
1.00351
0.993678
0.987134
0.983582
0.982427
0.982782
0.983528
0.983504
0.981669
0.977234
0.969709
0.958855
0.944564
0.926706
0.90509
0.879486
0.849784
0.816208
0.779488
0.740921
0.702264
0.665489
0.632433
0.604364
0.582082
0.565696
0.554637
0.547799
0.543621
0.540267
0.536156
0.530393
0.523116
0.515623
0.510647
0.511618
0.521709
0.542849
0.575016
0.616891
0.664213
0.71201
0.756022
0.79379
0.825014
0.851081
0.874006
0.895228
0.914725
0.930752
0.940237
0.939636
0.925943
0.897558
0.854819
0.800106
0.737541
0.672412
0.609761
0.553405
0.505462
0.46716
0.438149
0.416005
0.397046
0.377012
0.35185
0.31843
0.275097
0.221937
0.160749
0.0916331
-0.0819689
0
0.628633
1.97391
3.90678
5.9531
7.44672
7.82422
6.90116
4.9721
2.67826
0.721496
-0.42087
-0.647543
-0.201989
0.124667
0.416351
0.649087
0.811593
0.937564
1.03187
1.10115
1.15247
1.19231
1.22599
1.25664
1.286
1.31479
1.34308
1.37064
1.39731
1.42323
1.44889
1.475
1.50233
1.53152
1.56299
1.59693
1.63349
1.67278
1.71488
1.75987
1.80689
1.85319
1.89428
1.92515
1.94169
1.94227
1.92872
1.90644
1.88334
1.8679
1.86667
1.88119
1.90893
1.94601
1.98922
2.03527
2.08152
2.12659
2.17054
2.21464
2.26079
2.31071
2.36596
2.42679
2.48874
2.54462
2.58724
2.61197
2.61838
2.6104
2.59487
2.5791
2.5685
2.56395
2.56355
2.56516
2.56616
2.56379
2.55547
2.53901
2.5127
2.47521
2.42577
2.36434
2.29087
2.20577
2.10992
2.00465
1.89169
1.77298
1.65036
1.52557
1.40019
1.27561
1.15316
1.0342
0.920214
0.812908
0.714142
0.625835
0.549775
0.487425
0.439732
0.406999
0.389315
0.387144
0.400084
0.42357
0.448793
0.466685
0.470045
0.455517
0.424647
0.383471
0.340686
0.305021
0.282478
0.272999
0.273953
0.28373
0.300679
0.322835
0.348362
0.374643
0.397322
0.411307
0.411661
0.394969
0.360664
0.311677
0.254026
0.195467
0.143707
0.103165
0.0746507
0.0594228
0.0573368
0.0670725
0.0863908
0.112324
0.14187
0.172041
0.200097
0.22387
0.241776
0.252968
0.257353
0.255524
0.248629
0.238176
0.225845
0.213325
0.202198
0.193878
0.189572
0.190382
0.197175
0.210433
0.23007
0.255589
0.285658
0.317691
0.348859
0.376746
0.399934
0.41832
0.43307
0.446241
0.460242
0.477178
0.498254
0.52408
0.554758
0.589796
0.628256
0.668905
0.710337
0.751286
0.790789
0.828225
0.863196
0.894928
0.921911
0.942412
0.954228
0.955306
0.944636
0.922937
0.892769
0.857963
0.822584
0.789831
0.76069
0.734781
0.711477
0.689778
0.668662
0.647349
0.625393
0.602614
0.578884
0.553903
0.527233
0.498285
0.466556
0.431863
0.393768
0.0940911
0
0.484148
1.77442
3.76382
5.94377
7.55948
7.94871
6.88335
4.7038
2.15788
0.0436444
-1.1319
-1.30207
-0.760643
-0.070287
0.492484
0.823712
0.896657
0.933595
0.958714
0.97901
1.00042
1.02736
1.06165
1.10367
1.15281
1.20762
1.26562
1.32364
1.37871
1.42853
1.4718
1.50832
1.53875
1.5644
1.58681
1.60753
1.6278
1.64851
1.67005
1.69226
1.7137
1.73206
1.74508
1.75175
1.75321
1.75289
1.75576
1.76688
1.7898
1.82381
1.86621
1.91481
1.96745
2.02184
2.07587
2.12767
2.17559
2.21857
2.25624
2.28881
2.31714
2.34257
2.36676
2.39137
2.4178
2.44701
2.47935
2.51495
2.55378
2.59557
2.63969
2.68518
2.72984
2.7704
2.80312
2.82458
2.83231
2.82505
2.8027
2.76576
2.7149
2.65144
2.57748
2.49413
2.40223
2.30296
2.19769
2.08782
1.97466
1.85925
1.74248
1.6253
1.50903
1.3954
1.28665
1.18534
1.09401
1.01481
0.949117
0.897371
0.859022
0.832583
0.815786
0.805982
0.800475
0.796803
0.792947
0.787461
0.77955
0.769067
0.756446
0.742573
0.728593
0.715684
0.704824
0.696617
0.691206
0.68829
0.687291
0.687578
0.688709
0.690609
0.693629
0.698473
0.705995
0.716926
0.73161
0.749826
0.770792
0.79323
0.815668
0.836746
0.85547
0.871328
0.884249
0.894423
0.902071
0.907258
0.909825
0.909401
0.905528
0.897812
0.886068
0.870415
0.851321
0.829626
0.806548
0.783538
0.762163
0.743955
0.730247
0.722114
0.719764
0.722023
0.726778
0.731406
0.733327
0.730548
0.7221
0.708266
0.69056
0.67147
0.653964
0.640837
0.634305
0.635601
0.644738
0.660973
0.682966
0.709012
0.737322
0.766198
0.79398
0.818858
0.839109
0.853078
0.859409
0.857407
0.84737
0.830729
0.809889
0.787756
0.767069
0.749576
0.736008
0.725724
0.716757
0.706495
0.692357
0.672327
0.645199
0.610502
0.568223
0.518519
0.462062
0.399732
0.332256
0.260686
0.183872
0
0.103511
0.792295
2.22172
4.22741
6.28074
7.66573
7.81427
6.61072
4.47303
2.15175
0.366985
-0.502407
-0.514838
-0.0336884
0.150706
0.320895
0.467469
0.587899
0.692292
0.786285
0.875942
0.966633
1.06041
1.1488
1.21801
1.25641
1.26075
1.23823
1.20355
1.1726
1.15612
1.15422
1.16057
1.17242
1.18818
1.20749
1.23117
1.26063
1.29682
1.33926
1.38584
1.43341
1.47832
1.5173
1.54839
1.57136
1.5877
1.60007
1.61147
1.62433
1.63994
1.65839
1.67799
1.69646
1.71193
1.72378
1.73293
1.74155
1.75224
1.76721
1.78736
1.8119
1.83967
1.86939
1.89966
1.92907
1.95655
1.9815
2.00384
2.02398
2.04267
2.06084
2.07938
2.09895
2.1198
2.14173
2.16414
2.18587
2.20501
2.21904
2.22493
2.21927
2.19862
2.15993
2.10104
2.02115
1.92131
1.8045
1.67604
1.54203
1.40858
1.28119
1.16418
1.06036
0.970766
0.894807
0.830703
0.776032
0.728271
0.685203
0.645154
0.607062
0.570417
0.53519
0.501715
0.470556
0.442359
0.41767
0.396835
0.379939
0.366164
0.353544
0.339742
0.322684
0.301206
0.275481
0.247063
0.218538
0.192899
0.17265
0.158836
0.151745
0.151281
0.156563
0.165908
0.176862
0.186565
0.192406
0.192511
0.186103
0.173665
0.156822
0.137949
0.119579
0.103777
0.0915237
0.0827192
0.0764877
0.0714555
0.0662611
0.0600495
0.0528049
0.045432
0.0395648
0.0371494
0.0398371
0.0485926
0.0640666
0.0851837
0.108078
0.127377
0.138035
0.136799
0.123212
0.0997993
0.0713738
0.0437083
0.0220201
0.00900249
0.00418873
0.00609007
0.0133554
0.024122
0.0356807
0.0452383
0.0506412
0.0508067
0.0459642
0.0376235
0.0282605
0.0208003
0.0180456
0.0218545
0.0328643
0.0513573
0.0774476
0.110946
0.151461
0.198488
0.251596
0.31047
0.373617
0.43571
0.488529
0.523221
0.532686
0.513877
0.469037
0.405296
0.332815
0.262185
0.200917
0.150465
0.109832
0.0785723
0.055671
0.0387897
0.025339
0.0129888
0
-0.0146969
-0.0316603
-0.0512219
-0.0737386
-0.0997031
-0.129692
-0.16422
-0.2042
-0.449716
-0.555808
-0.148458
1.0058
2.84212
4.91502
6.53036
7.05764
6.25382
4.40142
2.17047
0.287119
-0.795317
-1.04266
-0.749503
-0.538242
-0.359655
-0.198298
-0.0571455
0.0677298
0.177324
0.272601
0.354321
0.423267
0.480106
0.525044
0.558039
0.579081
0.588479
0.587114
0.576636
0.559584
0.539376
0.52012
0.506264
0.501838
0.509682
0.530785
0.564901
0.609435
0.658272
0.704834
0.743975
0.7734
0.794208
0.810415
0.827562
0.850871
0.883526
0.924739
0.972334
1.02157
1.06697
1.10394
1.12997
1.14526
1.15252
1.15608
1.1607
1.17036
1.18704
1.211
1.24184
1.27908
1.322
1.36983
1.42152
1.47614
1.5309
1.58134
1.62249
1.65015
1.66211
1.65887
1.64357
1.62109
1.59678
1.57486
1.55706
1.54344
1.53313
1.52363
1.51019
1.48709
1.44876
1.391
1.31192
1.21242
1.09588
0.967293
0.832077
0.69515
0.559515
0.426998
0.298751
0.17551
0.057876
-0.0535093
-0.157956
-0.254853
-0.343883
-0.425222
-0.499661
-0.56859
-0.633821
-0.697302
-0.760743
-0.825247
-0.89103
-0.957295
-1.02229
-1.08357
-1.13852
-1.18482
-1.22101
-1.24676
-1.26246
-1.26984
-1.2722
-1.27313
-1.27587
-1.28277
-1.2951
-1.31303
-1.33591
-1.36269
-1.39223
-1.42363
-1.45647
-1.49082
-1.52691
-1.56502
-1.60522
-1.64725
-1.69042
-1.73378
-1.77634
-1.8173
-1.85637
-1.89386
-1.93054
-1.96743
-2.0055
-2.0454
-2.08736
-2.13111
-2.17603
-2.22124
-2.26579
-2.30871
-2.34894
-2.38538
-2.41682
-2.44195
-2.45955
-2.46843
-2.4668
-2.45257
-2.42743
-2.3988
-2.37608
-2.36837
-2.38207
-2.41927
-2.47722
-2.54922
-2.62617
-2.69863
-2.76071
-2.81015
-2.84596
-2.86766
-2.87628
-2.87348
-2.86361
-2.85148
-2.84146
-2.83668
-2.83852
-2.84667
-2.85932
-2.87375
-2.88683
-2.89594
-2.8992
-2.89489
-2.8806
-2.85455
-2.81985
-2.78336
-2.7533
-2.73734
183
392
607
826
1046
1263
1466
1674
1885
2099
2315
2530
2738
2946
3155
3356
3565
1766
1798
1998
2076
2185
2381
2587
2647
2743
2803
2915
3016
3080
3173
3204
3237
3301
3400
3604
3659
3723
3614
3699
3176
3208
3259
3311
3379
3434
3601
0
0
0
0
0
0
0
0
0
0
0
0
0
0
0
0
0
0
0
0
0
0
0
0
0
0
0
0
0
0
0
0
0
0
0
0
0
0
0
0
0
0
0
0
0
0
0
0
0
0
0
0
0
0
0
0
0
0
0
0
0
0
0
0
0
0
0
0
0
0
0
0
0
0
0
0
0
0
0
0
0
0
0
0
0
0
0
0
0
0
0
0
0
0
0
0
0
0
0
0
0
0
0
0
0
0
0
0
0
0
0
0
0
0
0
0
0
0
0
0
0
0
0
0
0
0
0
0
0
0
0
0
0
0
0
0
0
0
0
0
0
0
0
0
0
0
0
0
0
0
0
0
0
0
0
0
0
0
0
0
0
0
0
0
0
0
0
0
0
0
0
0
0
0
0
0
0
0
0
0
0
0
0
0
0
0
0
0
0
0
0
0
0
0
0
0
0
0
0
0
0
0
0
0
0
0
0
0
0
0
0
0
0
0
0
0
0
0
0
0
0
0
0
0
0
0
0
0
0
0
0
0
0
0
0
0
0
0
0
0
0
0
0
0
0
0
0
0
0
0
0
0
0
0
0
0
0
0
0
0
0
0
0
0
0
0
0
0
0
0
0
0
0
0
0
0
0
0
0
0
0
0
0
0
0
0
0
0
0
0
0
0
0
0
0
0
0
0
0
0
0
0
0
0
0
0
0
0
0
0
0
0
0
0
0
0
0
0
0
0
0
0
0
0
0
0
0
0
0
0
0
0
0
0
0
0
0
0
0
0
0
0
0
0
0
0
0
0
0
0
0
0
0
0
0
0
0
0
0
0
0
0
0
0
0
0
0
0
0
0
0
0
0
0
0
0
0
0
0
0
0
0
0
0
0
0
0
0
0
0
0
0
0
0
0
0
0
0
0
0
0
0
0
0
0
0
0
0
0
0
0
0
0
0
0
0
0
0
0
0
0
0
0
0
0
0
0
0
0
0
0
0
0
0
0
0
0
0
0
0
0
0
0
0
0
0
0
0
0
0
0
0
0
0
0
0
0
0
0
0
0
0
0
0
0
0
0
0
0
0
0
0
0
0
0
0
0
0
0
0
0
0
0
0
0
0
0
0
0
0
0
0
0
0
0
0
0
0
0
0
0
0
0
0
0
0
0
0
0
0
0
0
0
0
0
0
0
0
0
0
0
0
0
0
0
0
0
0
0
0
0
0
0
0
0
0
0
0
0
0
0
0
0
0
0
0
0
0
0
0
0
0
0
0
0
0
0
0
0
0
0
0
0
0
0
0
0
0
0
0
0
0
0
0
0
0
0
0
0
0
0
0
0
0
0
0
0
0
0
0
0
0
0
0
0
0
0
0
0
0
0
0
0
0
0
0
0
0
0
0
0
0
0
0
0
0
0
0
0
0
0
0
0
0
0
0
0
0
0
0
0
0
0
0
0
0
0
0
0
0
0
0
0
0
0
0
0
0
0
0
0
0
0
0
0
0
0
0
0
0
0
0
0
0
0
0
0
0
0
0
0
0
0
0
0
0
0
0
0
0
0
0
0
0
0
0
0
0
0
0
0
0
0
0
0
0
0
0
0
0
0
0
0
0
0
0
0
0
0
0
0
0
0
0
0
0
0
0
0
0
0
0
0
0
0
0
0
0
0
0
0
0
0
0
0
0
0
0
0
0
0
0
0
0
0
0
0
0
0
0
0
0
0
0
0
0
0
0
0
0
0
0
0
0
0
0
0
0
0
0
0
0
0
0
0
0
0
0
0
0
0
0
0
0
0
0
0
0
0
0
0
0
0
0
0
0
0
0
0
0
0
0
0
0
0
0
0
0
0
0
0
0
0
0
0
0
0
0
0
0
0
0
0
0
0
0
0
0
0
0
0
0
0
0
0
0
0
0
0
0
0
0
0
0
0
0
0
0
0
0
0
0
0
0
0
0
0
0
0
0
0
0
0
0
0
0
0
0
0
0
0
0
0
0
0
0
0
0
0
0
0
0
0
0
0
0
0
0
0
0
0
0
0
0
0
0
0
0
0
0
0
0
0
0
0
0
0
0
0
0
0
0
0
0
0
0
0
0
0
0
0
0
0
0
0
0
0
0
0
0
0
0
0
0
0
0
0
0
0
0
0
0
0
0
0
0
0
0
0
0
0
0
0
0
0
0
0
0
0
0
0
0
0
0
0
0
0
0
0
0
0
0
0
0
0
0
0
0
0
0
0
0
0
0
0
0
0
0
0
0
0
0
0
0
0
0
0
0
0
0
0
0
0
0
0
0
0
0
0
0
0
0
0
0
0
0
0
0
0
0
0
0
0
0
0
0
0
0
0
0
0
0
0
0
0
0
0
0
0
0
0
0
0
0
0
0
0
0
0
0
0
0
0
0
0
0
0
0
0
0
0
0
0
0
0
0
0
0
0
0
0
0
0
0
0
0
0
0
0
0
0
0
0
0
0
0
0
0
0
0
0
0
0
0
0
0
0
0
0
0
0
0
0
0
0
0
0
0
0
0
0
0
0
0
0
0
0
0
0
0
0
0
0
0
0
0
0
0
0
0
0
0
0
0
0
0
0
0
0
0
0
0
0
0
0
0
0
0
0
0
0
0
0
0
0
0
0
0
0
0
0
0
0
0
0
0
0
0
0
0
0
0
0
0
0
0
0
0
0
0
0
0
0
0
0
0
0
0
0
0
0
0
0
0
0
0
0
0
0
0
0
0
0
0
0
0
0
0
0
0
0
0
0
0
0
0
0
0
0
0
0
0
0
0
0
0
0
0
0
0
0
0
0
0
0
0
0
0
0
0
0
0
0
0
0
0
0
0
0
0
0
0
0
0
0
0
0
0
0
0
0
0
0
0
0
0
0
0
0
0
0
0
0
0
0
0
0
0
0
0
0
0
0
0
0
0
0
0
0
0
0
0
0
0
0
0
0
0
0
0
0
0
0
0
0
0
0
0
0
0
0
0
0
0
0
0
0
0
0
0
0
0
0
0
0
0
0
0
0
0
0
0
0
0
0
0
0
0
0
0
0
0
0
0
0
0
0
0
0
0
0
0
0
0
0
0
0
0
0
0
0
0
0
0
0
0
0
0
0
0
0
0
0
0
0
0
0
0
0
0
0
0
0
0
0
0
0
0
0
0
0
0
0
0
0
0
0
0
0
0
0
0
0
0
0
0
0
0
0
0
0
0
0
0
0
0
0
0
0
0
0
0
0
0
0
0
0
0
0
0
0
0
0
0
0
0
0
0
0
0
0
0
0
0
0
0
0
0
0
0
0
0
0
0
0
0
0
0
0
0
0
0
0
0
0
0
0
0
0
0
0
0
0
0
0
0
0
0
0
0
0
0
0
0
0
0
0
0
0
0
0
0
0
0
0
0
0
0
0
0
0
0
0
0
0
0
0
0
0
0
0
0
0
0
0
0
0
0
0
0
0
0
0
0
0
0
0
0
0
0
0
0
0
0
0
0
0
0
0
0
0
0
0
0
0
0
0
0
0
0
0
0
0
0
0
0
0
0
0
0
0
0
0
0
0
0
0
0
0
0
0
0
0
0
0
0
0
0
0
0
0
0
0
0
0
0
0
0
0
0
0
0
0
0
0
0
0
0
0
0
0
0
0
0
0
0
0
0
0
0
0
0
0
0
0
0
0
0
0
0
0
0
0
0
0
0
0
0
0
0
0
0
0
0
0
0
0
0
0
0
0
0
0
0
0
0
0
0
0
0
0
0
0
0
0
0
0
0
0
0
0
0
0
0
0
0
0
0
0
0
0
0
0
0
0
0
0
0
0
0
0
0
0
0
0
0
0
0
0
0
0
0
0
0
0
0
0
0
0
0
0
0
0
0
0
0
0
0
0
0
0
0
0
0
0
0
0
0
0
0
0
0
0
0
0
0
0
0
0
0
0
0
0
0
0
0
0
0
0
0
0
0
0
0
0
0
0
0
0
0
0
0
0
0
0
0
0
0
0
0
0
0
0
0
0
0
0
0
0
0
0
0
0
0
0
0
0
0
0
0
0
0
0
0
0
0
0
0
0
0
0
0
0
0
0
0
0
0
0
0
0
0
0
0
0
0
0
0
0
0
0
0
0
0
0
0
0
0
0
0
0
0
0
0
0
0
0
0
0
0
0
0
0
0
0
0
0
0
0
0
0
0
0
0
0
0
0
0
0
0
0
0
0
0
0
0
0
0
0
0
0
0
0
0
0
0
0
0
0
0
0
0
0
0
0
0
0
0
0
0
0
0
0
0
0
0
0
0
0
0
0
0
0
0
0
0
0
0
0
0
0
0
0
0
0
0
0
0
0
0
0
0
0
0
0
0
0
0
0
0
0
0
0
0
0
0
0
0
0
0
0
0
0
0
0
0
0
0
0
0
0
0
0
0
0
0
0
0
0
0
0
0
0
0
0
0
0
0
0
0
0
0
0
0
0
0
0
0
0
0
0
0
0
0
0
0
0
0
0
0
0
0
0
0
0
0
0
0
0
0
0
0
0
0
0
0
0
0
0
0
0
0
0
0
0
0
0
0
0
0
0
0
0
0
0
0
0
0
0
0
0
0
0
0
0
0
0
0
0
0
0
0
0
0
0
0
0
0
0
0
0
0
0
0
0
0
0
0
0
0
0
0
0
0
0
0
0
0
0
0
0
0
0
0
0
0
0
0
0
0
0
0
0
0
0
0
0
0
0
0
0
0
0
0
0
0
0
0
0
0
0
0
0
0
0
0
0
0
0
0
0
0
0
0
0
0
0
0
0
0
0
0
0
0
0
0
0
0
0
0
0
0
0
0
0
0
0
0
0
0
0
0
0
0
0
0
0
0
0
0
0
0
0
0
0
0
0
0
0
0
0
0
0
0
0
0
0
0
0
0
0
0
0
0
0
0
0
0
0
0
0
0
0
0
0
0
0
0
0
0
0
0
0
0
0
0
0
0
0
0
0
0
0
0
0
0
0
0
0
0
0
0
0
0
0
0
0
0
0
0
0
0
0
0
0
0
0
0
0
0
0
0
0
0
0
0
0
0
0
0
0
0
0
0
0
0
0
0
0
0
0
0
0
0
0
0
0
0
0
0
0
0
0
0
0
0
0
0
0
0
0
0
0
0
0
0
0
0
0
0
0
0
0
0
0
0
0
0
0
0
0
0
0
0
0
0
0
0
0
0
0
0
0
0
0
0
0
0
0
0
0
0
0
0
0
0
0
0
0
0
0
0
0
0
0
0
0
0
0
0
0
0
0
0
0
0
0
0
0
0
0
0
0
0
0
0
0
0
0
0
0
0
0
0
0
0
0
0
0
0
0
0
0
0
0
0
0
0
0
0
0
0
0
0
0
0
0
0
0
0
0
0
0
0
0
0
0
0
0
0
0
0
0
0
0
0
0
0
0
0
0
0
0
0
0
0
0
0
0
0
0
0
0
0
0
0
0
0
0
0
0
0
0
0
0
0
0
0
0
0
0
0
0
0
0
0
0
0
0
0
0
0
0
0
0
0
0
0
0
0
0
0
0
0
0
0
0
0
0
0
0
0
0
0
0
0
0
0
0
0
0
0
0
0
0
0
0
0
0
0
0
0
0
0
0
0
0
0
0
0
0
0
0
0
0
0
0
0
0
0
0
0
0
0
0
0
0
0
0
0
0
0
0
0
0
0
0
0
0
0
0
0
0
0
0
0
0
0
0
0
0
0
0
0
0
0
0
0
0
0
0
0
0
0
0
0
0
0
0
0
0
0
0
0
0
0
0
0
0
0
0
0
0
0
0
0
0
0
0
0
0
0
0
0
0
0
0
0
0
0
0
0
0
0
0
0
0
0
0
0
0
0
0
0
0
0
0
0
0
0
0
0
0
0
0
0
0
0
0
0
0
0
0
0
0
0
0
0
0
0
0
0
0
0
0
0
0
0
0
0
0
0
0
0
0
0
0
0
0
0
0
0
0
0
0
0
0
0
0
0
0
0
0
0
0
0
0
0
0
0
0
0
0
0
0
0
0
0
0
0
0
0
0
0
0
0
0
0
0
0
0
0
0
0
0
0
0
0
0
0
0
0
0
0
0
0
0
0
0
0
0
0
0
0
0
0
0
0
0
0
0
0
0
0
0
0
0
0
0
0
0
0
0
0
0
0
0
0
0
0
0
0
0
0
0
0
0
0
0
0
0
0
0
0
0
0
0
0
0
0
0
0
0
0
0
0
0
0
0
0
0
0
0
0
0
0
0
0
0
0
0
0
0
0
0
0
0
0
0
0
0
0
0
0
0
0
0
0
0
0
0
0
0
0
0
0
0
0
0
0
0
0
0
0
0
0
0
0
0
0
0
0
0
0
0
0
0
0
0
0
0
0
0
0
0
0
0
0
0
0
0
0
0
0
0
0
0
0
0
0
0
0
0
0
0
0
0
0
0
0
0
0
0
0
0
0
0
0
0
0
0
0
0
0
0
0
0
0
0
0
0
0
0
0
0
0
0
0
0
0
0
0
0
0
0
0
0
0
0
0
0
0
0
0
0
0
0
0
0
0
0
0
0
0
0
0
0
0
0
0
0
0
0
0
0
0
0
0
0
0
0
0
0
0
0
0
0
0
0
0
0
0
0
0
0
0
0
0
0
0
0
0
0
0
0
0
0
0
0
0
0
0
0
0
0
0
0
0
0
0
0
0
0
0
0
0
0
0
0
0
0
0
0
0
0
0
0
0
0
0
0
0
0
0
0
0
0
0
0
0
0
0
0
0
0
0
0
0
0
0
0
0
0
0
0
0
0
0
0
0
0
0
0
0
0
0
0
0
0
0
0
0
0
0
0
0
0
0
0
0
0
0
0
0
0
0
0
0
0
0
0
0
0
0
0
0
0
0
0
0
0
0
0
0
0
0
0
0
0
0
0
0
0
0
0
0
0
0
0
0
0
0
0
0
0
0
0
0
0
0
0
0
0
0
0
0
0
0
0
0
0
0
0
0
0
0
0
0
0
0
0
0
0
0
0
0
0
0
0
0
0
0
0
0
0
0
0
0
0
0
0
0
0
0
0
0
0
0
0
0
0
0
0
0
0
0
0
0
0
0
0
0
0
0
0
0
0
0
0
0
0
0
0
0
0
0
0
0
0
0
0
0
0
0
0
0
0
0
0
0
0
0
0
0
0
0
0
0
0
0
0
0
0
0
0
0
0
0
0
0
0
0
0
0
0
0
0
0
0
0
0
0
0
0
0
0
0
0
0
0
0
0
0
0
0
0
0
0
0
0
0
0
0
0
0
0
0
0
0
0
0
0
0
0
0
0
0
0
0
0
0
0
0
0
0
0
0
0
0
0
0
0
0
0
0
0
0
0
0
0
0
0
0
0
0
0
0
0
0
0
0
0
0
0
0
0
0
0
0
0
0
0
0
0
0
0
0
0
0
0
0
0
0
0
0
0
0
0
0
0
0
0
0
0
0
0
0
0
0
0
0
0
0
0
0
0
0
0
0
0
0
0
0
0
0
0
0
0
0
0
0
0
0
0
0
0
0
0
0
0
0
0
0
0
0
0
0
0
0
0
0
0
0
0
0
0
0
0
0
0
0
0
0
0
0
0
0
0
0
0
0
0
0
0
0
0
0
0
0
0
0
0
0
0
0
0
0
0
0
0
0
0
0
0
0
0
0
0
0
0
0
0
0
0
0
0
0
0
0
0
0
0
0
0
0
0
0
0
0
0
0
0
0
0
0
0
0
0
0
0
0
0
0
0
0
0
0
0
0
0
0
0
0
0
0
0
0
0
0
0
0
0
0
0
0
0
0
0
0
0
0
0
0
0
0
0
0
0
0
0
0
0
0
0
0
0
0
0
0
0
0
0
0
0
0
0
0
0
0
0
0
0
0
0
0
0
0
0
0
0
0
0
0
0
0
0
0
0
0
0
0
0
0
0
0
0
0
0
0
0
0
0
0
0
0
0
0
0
0
0
0
0
0
0
0
0
0
0
0
0
0
0
0
0
0
0
0
0
0
0
0
0
0
0
0
0
0
0
0
0
0
0
0
0
0
0
0
0
0
0
0
0
0
0
0
0
0
0
0
0
0
0
0
0
0
0
0
0
0
0
0
0
0
0
0
0
0
0
0
0
0
0
0
0
0
0
0
0
0
0
0
0
0
0
0
0
0
0
0
0
0
0
0
0
0
0
0
0
0
0
0
0
0
0
0
0
0
0
0
0
0
0
0
0
0
0
0
0
0
0
0
0
0
0
0
0
0
0
0
0
0
0
0
0
0
0
0
0
0
0
0
0
0
0
0
0
0
0
0
0
0
0
0
0
0
0
0
0
0
0
0
0
0
0
0
0
0
0
0
0
0
0
0
0
0
0
0
0
0
0
0
0
0
0
0
0
