1.30388
1.37306
1.45028
1.53715
1.63381
1.73988
1.85458
1.97699
2.10632
2.24207
2.384
2.53194
2.6856
2.84433
3.00701
3.17199
3.33721
3.50046
3.65962
3.81307
3.95979
4.09939
4.23172
4.3561
4.47043
4.57011
4.64849
4.69654
4.70451
4.66444
4.57248
4.42983
4.24235
4.01895
3.76972
3.50678
3.23932
2.97315
2.71309
2.4636
2.22849
2.01062
1.81174
1.63202
1.47045
1.32528
1.19468
1.07736
0.973001
0.882325
0.806909
0.748711
0.709516
0.690416
0.691422
0.711946
0.751093
0.806391
0.871191
0.934509
0.985071
1.01382
1.01607
0.992857
0.950905
0.900996
0.85517
0.823584
0.809674
0.811066
0.824199
0.8461
0.87335
0.902651
0.931464
0.958299
0.982639
1.00458
1.02425
1.04104
1.05317
1.05795
1.05219
1.03332
1.00048
0.955186
0.901293
0.844276
0.790083
0.743685
0.707443
0.682757
0.670463
0.670487
0.682045
0.703703
0.733653
0.769804
0.80982
0.851253
0.892091
0.931191
0.968582
1.00554
1.04435
1.08785
1.13876
1.19915
1.26974
1.35003
1.43863
1.53351
1.63215
1.73182
1.82971
1.92264
2.00729
2.08038
2.13855
2.17847
2.19699
2.19142
2.15979
2.10127
2.01656
1.90849
1.78158
1.64181
1.49624
1.35208
1.21558
1.09088
0.980752
0.886183
0.806668
0.740646
0.685995
0.640355
0.601216
0.565794
0.530581
0.490683
0.439988
0.371494
0.268466
0.0808494
-0.193022
-0.536919
-0.919783
-0.907076
0
2.03683
5.10513
8.70953
12.051
14.2688
14.7459
13.3432
10.4573
6.87057
3.46003
0.896151
-0.540364
-0.960949
-0.69917
-0.355257
-0.04384
0.2061
0.377275
0.491576
0.560656
0.597328
0.617581
0.636923
0.666768
0.711035
0.767642
0.832156
0.899218
0.96512
1.02948
1.09536
1.16789
1.25191
1.34982
1.45921
1.57516
1.69314
1.80889
1.91902
2.02161
2.11643
2.2049
2.28971
2.3744
2.46286
2.55896
2.66613
2.78703
2.92336
3.07565
3.24315
3.42411
3.61581
3.81469
4.01665
4.21645
4.40731
4.5815
4.73107
4.84908
4.93044
4.9716
4.97054
4.92658
4.84014
4.71253
4.54574
4.34266
4.1084
3.85105
3.57952
3.30189
3.02576
2.75874
2.50777
2.27856
2.07483
1.89752
1.7453
1.61521
1.50349
1.40636
1.32057
1.2436
1.17368
1.10964
1.05073
0.996622
0.947394
0.90358
0.866094
0.836079
0.814657
0.802653
0.800366
0.807435
0.822798
0.844826
0.871466
0.899782
0.92643
0.948211
0.962521
0.967776
0.963689
0.951303
0.932775
0.910948
0.888829
0.868948
0.853015
0.841838
0.835333
0.832559
0.831798
0.830633
0.826076
0.815225
0.795865
0.767098
0.729808
0.686009
0.640871
0.600477
0.570376
0.554227
0.553005
0.565
0.586562
0.613262
0.641021
0.667149
0.690256
0.709901
0.726477
0.74097
0.754777
0.769562
0.787149
0.809416
0.838192
0.875178
0.921656
0.978667
1.04716
1.12774
1.22055
1.32507
1.43999
1.56315
1.69168
1.82147
1.94637
2.05899
2.1524
2.22068
2.25967
2.26749
2.2447
2.19412
2.12022
2.02823
1.9237
1.81131
1.69418
1.57422
1.45264
1.33052
1.20919
1.0905
0.976792
0.870592
0.774166
0.689017
0.615441
0.552194
0.49646
0.444235
0.390801
0.331277
0.260386
0.170025
0.0414005
-0.158326
-0.418823
-0.721883
-1.04624
-0.953122
0
2.11063
5.30223
9.02805
12.3908
14.4578
14.6274
12.8747
9.75591
6.17116
3.00045
0.788449
-0.378888
-0.771145
-0.747755
-0.637647
-0.508876
-0.356707
-0.183854
-0.00297747
0.167462
0.314228
0.433361
0.529783
0.610478
0.68034
0.742332
0.798881
0.852086
0.903633
0.954846
1.00687
1.06086
1.11811
1.18005
1.24821
1.32402
1.40866
1.5029
1.60703
1.72079
1.84348
1.97406
2.11135
2.25412
2.4012
2.55156
2.70427
2.85855
3.01375
3.16943
3.3254
3.48178
3.63889
3.79709
3.9565
4.11667
4.27587
4.42981
4.57178
4.69395
4.78854
4.84906
4.8711
4.85249
4.79284
4.69302
4.55467
4.38166
4.17934
3.95325
3.70917
3.45336
3.19233
2.93249
2.68041
2.44247
2.22429
2.03022
1.86299
1.72316
1.60928
1.51852
1.44724
1.39178
1.34892
1.31623
1.29207
1.27538
1.26529
1.26099
1.2614
1.26517
1.2707
1.27637
1.28067
1.28244
1.28108
1.27668
1.27013
1.26309
1.25788
1.25709
1.26308
1.2774
1.3005
1.33153
1.36744
1.4036
1.43507
1.45763
1.46866
1.46745
1.45518
1.43433
1.408
1.37924
1.35063
1.32399
1.3007
1.28207
1.26926
1.26324
1.26457
1.27323
1.28841
1.30851
1.3313
1.35431
1.37525
1.39254
1.4056
1.41505
1.42268
1.43116
1.44362
1.46309
1.49192
1.53131
1.58124
1.64055
1.70739
1.77961
1.85526
1.93309
2.01279
2.09495
2.18088
2.2723
2.37109
2.4792
2.59843
2.72772
2.85657
2.96548
3.03162
3.03419
2.96081
2.81278
2.60698
2.37296
2.14574
1.95345
1.79869
1.67302
1.57309
1.49665
1.43987
1.39831
1.36767
1.34439
1.32584
1.31016
1.29582
1.28111
1.26361
1.2399
1.20534
1.14257
0.973289
0.625657
0.146518
-0.385007
-0.603494
0
1.63221
4.25704
7.51079
10.7581
13.2504
14.3447
13.7186
11.5028
8.26302
4.81544
1.93873
0.107046
-0.629749
-0.571101
-0.249982
0.0370399
0.266876
0.435987
0.561398
0.67055
0.771561
0.866536
0.95594
1.03984
1.11856
1.19284
1.2641
1.33439
1.40598
1.48085
1.56015
1.64388
1.73095
1.81952
1.90764
1.99398
2.0783
2.16155
2.24552
2.33238
2.42395
2.52127
2.62443
2.73296
2.84614
2.96324
3.08386
3.20797
3.33591
3.46829
3.60585
3.74938
3.89966
4.0574
4.22312
4.3977
4.58249
4.77796
4.9782
5.16593
5.31872
5.41471
5.43834
5.38461
5.26019
5.08069
4.86514
4.6302
4.38795
4.14406
3.90064
3.6588
3.41964
3.18446
2.95476
2.73225
2.51884
2.31678
2.12859
1.95704
1.8048
1.6741
1.56766
1.48798
1.43333
1.39778
1.37429
1.35631
1.33921
1.32096
1.30187
1.2837
1.26851
1.25757
1.25124
1.24989
1.25382
1.2634
1.27898
1.3005
1.32718
1.35717
1.387
1.41266
1.43055
1.43838
1.43563
1.4235
1.40423
1.38032
1.35392
1.32633
1.29811
1.26944
1.24048
1.21165
1.18372
1.15789
1.13561
1.1184
1.10763
1.10419
1.10838
1.11995
1.13716
1.1566
1.1742
1.18595
1.18868
1.18056
1.16138
1.13256
1.09692
1.05835
1.02129
0.98997
0.968699
0.961442
0.97146
1.00095
1.05074
1.12019
1.20722
1.30856
1.42012
1.53755
1.65677
1.77424
1.8868
1.99132
2.08438
2.16232
2.22175
2.25958
2.2732
2.26108
2.22339
2.16207
2.08051
1.98271
1.87223
1.75191
1.62355
1.4881
1.34621
1.19913
1.04956
0.90173
0.761123
0.633815
0.527429
0.450417
0.404599
0.381841
0.369034
0.350974
0.313319
0.244793
0.138327
-0.00866261
-0.194455
-0.41227
-0.653491
-0.90777
-0.874018
0
1.99672
5.0548
8.68169
12.0481
14.2501
14.6478
13.1312
10.1767
6.65026
3.44546
1.14319
-0.135718
-0.635842
-0.690169
-0.591746
-0.477888
-0.347119
-0.203422
-0.0553882
0.0873863
0.219026
0.338509
0.447714
0.548459
0.641455
0.726649
0.803797
0.87276
0.933719
0.98735
1.03492
1.07822
1.11945
1.16103
1.20534
1.25467
1.3111
1.3764
1.45206
1.53911
1.63807
1.7488
1.87049
2.00173
2.1408
2.28596
2.43584
2.58969
2.7474
2.90927
3.07569
3.2466
3.42112
3.59735
3.77235
3.94206
4.10148
4.24493
4.36627
4.45935
4.51927
4.54238
4.52617
4.46968
4.3738
4.24136
4.07686
3.8857
3.67338
3.44575
3.20815
2.96436
2.71742
2.47078
2.22839
1.99461
1.77382
1.56997
1.38621
1.22475
1.08761
0.976237
0.890235
0.828407
0.788912
0.769148
0.76566
0.774223
0.790153
0.808804
0.826107
0.839175
0.846201
0.846325
0.839497
0.826262
0.807672
0.785195
0.7606
0.736142
0.714502
0.698445
0.6904
0.692014
0.703782
0.724863
0.753123
0.78542
0.817892
0.846103
0.865987
0.874378
0.869404
0.850722
0.819559
0.778584
0.731624
0.683297
0.638382
0.601171
0.575265
0.562918
0.564661
0.580682
0.607096
0.63866
0.670369
0.698927
0.723677
0.746646
0.771685
0.80302
0.843769
0.893951
0.951843
1.01518
1.0815
1.14859
1.21515
1.28107
1.34757
1.41684
1.49158
1.57442
1.6683
1.7769
1.90041
2.02763
2.14055
2.2206
2.25379
2.23432
2.16505
2.05514
1.91604
1.75811
1.59097
1.42134
1.25368
1.09186
0.940002
0.802329
0.682945
0.586097
0.514449
0.465713
0.433383
0.408634
0.381692
0.343212
0.285341
0.202345
0.0908227
-0.0569683
-0.254401
-0.493627
-0.762746
-1.04732
-0.891874
0
1.8215
4.53061
7.77135
10.898
13.137
13.8492
12.7897
10.2302
6.86662
3.54517
0.943832
-0.633493
-1.26705
-1.24266
-0.940798
-0.634917
-0.34293
-0.0927393
0.0837174
0.207581
0.300295
0.37344
0.432798
0.48241
0.526298
0.568013
0.610452
0.655945
0.706584
0.764389
0.831244
0.908575
0.996864
1.09523
1.20112
1.31095
1.42088
1.52738
1.62809
1.72228
1.81115
1.89753
1.98549
2.07959
2.18423
2.30293
2.43809
2.59076
2.76038
2.94482
3.14045
3.34244
3.54521
3.74291
3.92986
4.10127
4.25345
4.38384
4.49035
4.57027
4.6205
4.63956
4.62564
4.57709
4.49294
4.37356
4.22102
4.03894
3.83207
3.60565
3.3661
3.1184
2.86652
2.61448
2.36659
2.12767
1.90292
1.69816
1.51904
1.36943
1.25125
1.16402
1.10653
1.07393
1.05907
1.05448
1.05352
1.0513
1.04496
1.03363
1.01801
0.999789
0.981266
0.964693
0.952322
0.94617
0.947805
0.958127
0.977184
1.00412
1.03727
1.07441
1.113
1.15059
1.18487
1.2139
1.23617
1.25067
1.25691
1.25494
1.24538
1.22931
1.20821
1.18376
1.15769
1.13164
1.10704
1.08511
1.06693
1.05337
1.04511
1.0425
1.04556
1.05393
1.06688
1.08311
1.10107
1.11963
1.13849
1.15843
1.18123
1.20929
1.24508
1.29061
1.34672
1.41319
1.48967
1.57554
1.66983
1.7711
1.87755
1.98623
2.09206
2.18886
2.27019
2.33031
2.365
2.37195
2.35083
2.30299
2.23109
2.13987
2.03445
1.91951
1.79958
1.67912
1.56212
1.45176
1.35056
1.26004
1.18066
1.11183
1.05201
0.999068
0.95054
0.903879
0.8566
0.806268
0.750421
0.686358
0.609866
0.510162
0.35919
0.142764
-0.12729
-0.424265
-0.556107
0
1.49463
3.97842
7.17102
10.4556
13.0277
14.1624
13.498
11.1936
7.87487
4.39173
1.50856
-0.330628
-1.07726
-0.98789
-0.538641
-0.133312
0.174657
0.370885
0.504044
0.625339
0.743421
0.859304
0.972015
1.07936
1.17874
1.26789
1.34551
1.41179
1.46851
1.51883
1.5668
1.61671
1.67255
1.73722
1.81254
1.89951
1.9982
2.10771
2.22639
2.35201
2.48216
2.61462
2.74774
2.8808
3.01398
3.14833
3.28538
3.42683
3.57419
3.72853
3.89037
4.05973
4.23608
4.41834
4.60482
4.79318
4.97989
5.15923
5.32325
5.4631
5.57053
5.63816
5.66022
5.63296
5.55509
5.4279
5.25543
5.04439
4.80476
4.54834
4.28581
4.02528
3.77266
3.53266
3.30846
3.10173
2.91292
2.74166
2.58718
2.44872
2.32567
2.21764
2.12427
2.0451
1.97942
1.92625
1.88438
1.85273
1.83051
1.81703
1.81183
1.81455
1.82475
1.84174
1.86453
1.89187
1.92244
1.95498
1.98826
2.02114
2.05233
2.08019
2.10292
2.11863
2.12571
2.12327
2.11148
2.0918
2.06688
2.04032
2.01605
1.99764
1.98759
1.98709
1.99643
2.01457
2.03858
2.06373
2.08477
2.09722
2.09819
2.08698
2.06508
2.03568
2.00292
1.97094
1.94306
1.92122
1.90666
1.90058
1.90416
1.91845
1.94449
1.98304
2.03442
2.0983
2.17359
2.25854
2.35098
2.44854
2.54902
2.6506
2.7518
2.85136
2.94795
3.03957
3.12318
3.19536
3.25222
3.28975
3.30444
3.29368
3.25602
3.19128
3.10055
2.98629
2.85388
2.70917
2.55784
2.40582
2.25918
2.1235
2.00361
1.90323
1.82465
1.76879
1.73548
1.72327
1.72901
1.74785
1.77335
1.79747
1.81163
1.80748
1.77732
1.67654
1.35563
0.848015
0.236818
-0.275099
0
1.45334
4.16689
7.7767
11.5274
14.4927
15.8919
15.3725
13.1369
9.84954
6.36682
3.42285
1.41772
0.383969
0.102746
0.315398
0.542931
0.755813
0.938619
1.08394
1.20196
1.30497
1.3984
1.48431
1.56334
1.63575
1.70186
1.76238
1.81867
1.87268
1.92668
1.98279
2.04244
2.10606
2.17314
2.2423
2.31203
2.38137
2.45035
2.52019
2.593
2.67129
2.75733
2.85283
2.9584
3.07423
3.20062
3.33797
3.48683
3.64772
3.82077
4.00529
4.19949
4.40034
4.6037
4.80464
4.9977
5.17711
5.3372
5.4729
5.58004
5.65579
5.69799
5.70499
5.67557
5.60896
5.50505
5.36462
5.18964
4.98341
4.75135
4.50038
4.23785
3.97068
3.70547
3.44832
3.20431
2.97718
2.76921
2.58134
2.41345
2.26545
2.13746
2.02935
1.9408
1.87167
1.82167
1.78991
1.7747
1.77348
1.78301
1.79972
1.82007
1.84099
1.86013
1.8759
1.8872
1.89344
1.89447
1.8905
1.88211
1.87023
1.85605
1.84103
1.82678
1.81503
1.80755
1.80601
1.81178
1.82584
1.84951
1.88244
1.91895
1.95048
1.96806
1.96488
1.9384
1.89095
1.82885
1.76051
1.69433
1.63594
1.58779
1.55198
1.53069
1.52529
1.53619
1.56252
1.60235
1.65248
1.70696
1.75868
1.80093
1.82882
1.84012
1.83577
1.81967
1.79799
1.77819
1.76766
1.77199
1.79473
1.83792
1.90235
1.98707
2.08942
2.2054
2.3301
2.45827
2.58473
2.70405
2.80959
2.89379
2.95127
2.97715
2.96782
2.92199
2.84162
2.73217
2.60187
2.46038
2.3173
2.17964
2.0511
1.93439
1.83127
1.74214
1.66647
1.60242
1.54562
1.49056
1.43201
1.36622
1.29166
1.20909
1.12085
1.02945
0.936139
0.839966
0.737427
0.615851
0.448616
0.232774
-0.0155559
-0.330704
0
1.35133
3.83498
7.16271
10.6614
13.4622
14.7989
14.2933
12.0928
8.80352
5.25641
2.21853
0.169009
-0.789055
-0.87299
-0.439149
-0.0292687
0.318426
0.564949
0.691435
0.771701
0.835425
0.891613
0.944912
0.999167
1.0571
1.12013
1.18835
1.26099
1.33686
1.41465
1.4932
1.57154
1.6489
1.72458
1.79796
1.86851
1.936
2.00067
2.06344
2.12602
2.19079
2.26073
2.33911
2.42917
2.53382
2.65522
2.79451
2.95154
3.12464
3.31071
3.50531
3.7031
3.89831
4.08539
4.25956
4.41719
4.55593
4.67428
4.77082
4.84397
4.89299
4.91732
4.91604
4.88812
4.83279
4.74979
4.63942
4.50239
4.33971
4.15388
3.94824
3.72575
3.48973
3.24479
2.99674
2.75227
2.51828
2.30119
2.10611
1.93636
1.79314
1.67569
1.58155
1.50712
1.4483
1.40101
1.36162
1.32729
1.29609
1.26705
1.24012
1.21602
1.19593
1.18122
1.17304
1.17208
1.1783
1.19095
1.2087
1.22981
1.25252
1.27524
1.29676
1.31618
1.33284
1.34615
1.35551
1.36028
1.35996
1.35441
1.3442
1.33082
1.31679
1.30544
1.30041
1.30583
1.32676
1.36572
1.41632
1.46617
1.50155
1.51173
1.49213
1.4455
1.38055
1.30914
1.24287
1.18905
1.14945
1.12396
1.11269
1.11628
1.1354
1.1705
1.22162
1.28802
1.36784
1.45842
1.55602
1.65503
1.74974
1.83586
1.91152
1.9776
2.03728
2.09487
2.15431
2.21853
2.28579
2.34934
2.39972
2.42757
2.42599
2.39162
2.32456
2.22749
2.10488
1.96448
1.81431
1.66111
1.51092
1.3693
1.24088
1.12919
1.03648
0.963327
0.908667
0.870005
0.843782
0.825732
0.811185
0.795213
0.772759
0.738777
0.687894
0.607266
0.459682
0.220978
-0.0921983
-0.447112
-0.606806
0
1.71024
4.51917
7.96459
11.2148
13.3603
13.7735
12.3624
9.59209
6.26807
3.2035
0.938895
-0.363947
-0.845883
-0.726679
-0.442596
-0.158314
0.0933415
0.289805
0.433629
0.551971
0.657391
0.75446
0.845125
0.930611
1.01202
1.09043
1.16676
1.24176
1.31593
1.38965
1.46314
1.53669
1.61064
1.68543
1.76157
1.83947
1.9194
2.00148
2.08577
2.17246
2.26219
2.35619
2.45642
2.56541
2.68599
2.82075
2.97151
3.13881
3.32166
3.5175
3.72254
3.93233
4.14238
4.34869
4.54797
4.73686
4.91085
5.06429
5.19233
5.28983
5.35126
5.3722
5.35073
5.28786
5.18677
5.05147
4.88537
4.69379
4.48226
4.25494
4.01517
3.76661
3.51396
3.26303
3.02022
2.79181
2.58306
2.39805
2.23919
2.10565
1.99447
1.90183
1.8241
1.75874
1.7046
1.66173
1.63059
1.61154
1.60439
1.60646
1.61392
1.62269
1.62942
1.6322
1.63077
1.6261
1.61977
1.61323
1.60734
1.60246
1.59871
1.59631
1.59576
1.59787
1.60358
1.6136
1.62801
1.64619
1.66668
1.68723
1.70531
1.7186
1.72541
1.72506
1.71789
1.70511
1.68851
1.66992
1.6509
1.63242
1.61479
1.59793
1.5815
1.56528
1.54931
1.53411
1.52059
1.50998
1.5036
1.50272
1.50831
1.52101
1.54108
1.56845
1.60288
1.64407
1.69177
1.74578
1.80584
1.87168
1.94294
2.01911
2.0997
2.18437
2.27305
2.36584
2.4628
2.56377
2.66779
2.7712
2.8673
2.94786
3.00458
3.03071
3.02199
2.97702
2.89699
2.78535
2.6476
2.49325
2.33125
2.1691
2.01337
1.86939
1.74173
1.63255
1.54038
1.46181
1.39262
1.32913
1.26897
1.21121
1.15569
1.10189
1.04768
0.988647
0.917998
0.827399
0.684116
0.446566
0.124976
-0.24505
-0.512676
0
1.57796
4.26174
7.74055
11.3633
14.2794
15.6945
15.1683
12.8143
9.28442
5.5201
2.38706
0.377716
-0.480141
-0.501845
-0.109984
0.262044
0.586882
0.838761
0.996125
1.10245
1.18063
1.23863
1.27868
1.30399
1.31925
1.33014
1.34266
1.36239
1.39336
1.4378
1.49663
1.56962
1.65524
1.75083
1.85296
1.95791
2.0621
2.16268
2.25797
2.34775
2.43331
2.51724
2.60302
2.69444
2.79506
2.90769
3.03407
3.17472
3.32903
3.49524
3.67053
3.85115
4.03265
4.21018
4.37887
4.53429
4.67281
4.79189
4.8902
4.96739
5.02364
5.05919
5.07363
5.06506
5.03058
4.96706
4.87134
4.74113
4.57597
4.37784
4.15123
3.90275
3.64022
3.37189
3.1048
2.84474
2.59626
2.36285
2.14737
1.95237
1.78079
1.63558
1.5188
1.43171
1.37423
1.34482
1.34123
1.35912
1.39223
1.43227
1.46984
1.49685
1.50791
1.50096
1.47739
1.44136
1.39851
1.35433
1.3127
1.27486
1.23992
1.20671
1.17413
1.14188
1.11079
1.08271
1.05995
1.0446
1.03733
1.03778
1.04488
1.05664
1.07058
1.08407
1.09468
1.10047
1.10007
1.09275
1.07839
1.05739
1.03058
0.999118
0.964417
0.928042
0.891595
0.856598
0.824414
0.796201
0.772991
0.755751
0.745614
0.744233
0.753833
0.776614
0.814556
0.868808
0.939139
1.02365
1.11888
1.2204
1.32356
1.42449
1.52068
1.61099
1.69553
1.7753
1.85155
1.92506
1.99554
2.06121
2.11894
2.16474
2.19455
2.20506
2.19427
2.1616
2.10778
2.03455
1.94492
1.84293
1.73231
1.61646
1.49868
1.38208
1.26937
1.16273
1.06387
0.97404
0.894145
0.824891
0.766765
0.719877
0.6837
0.656941
0.636808
0.617127
0.588803
0.541071
0.45618
0.259094
-0.0555169
-0.462435
-0.955927
-0.971825
0
2.18105
5.40745
9.09332
12.3688
14.3645
14.5291
12.8358
9.78359
6.19901
2.92895
0.564054
-0.699946
-1.02879
-0.756639
-0.400392
-0.0752553
0.184859
0.363933
0.495604
0.606789
0.706466
0.798024
0.883386
0.964215
1.04209
1.11846
1.19456
1.27125
1.34888
1.42725
1.50571
1.5834
1.65958
1.73396
1.80695
1.87976
1.95434
2.03309
2.1185
2.21268
2.31695
2.43145
2.55508
2.68586
2.82092
2.95734
3.09312
3.22777
3.36247
3.49968
3.64228
3.79252
3.95099
4.11592
4.28356
4.44871
4.60519
4.74684
4.86832
4.96546
5.03532
5.07591
5.08578
5.06363
5.00822
4.91851
4.79415
4.63602
4.44668
4.23067
3.99437
3.74567
3.49322
3.24531
3.00942
2.79153
2.59573
2.42394
2.27604
2.15011
2.04297
1.95089
1.87021
1.79817
1.73308
1.67435
1.62253
1.57898
1.54544
1.5237
1.51507
1.52019
1.53894
1.57033
1.61251
1.66285
1.71803
1.77434
1.82782
1.87464
1.91162
1.93657
1.94853
1.94788
1.93634
1.91682
1.89307
1.86935
1.84988
1.83819
1.83684
1.8474
1.8708
1.90716
1.95483
2.00757
2.05534
2.08798
2.09774
2.08151
2.04191
1.98685
1.92759
1.8759
1.84053
1.82283
1.82108
1.83416
1.85996
1.89564
1.93818
1.985
2.0343
2.08525
2.13788
2.19295
2.25171
2.3157
2.38645
2.46533
2.55335
2.65101
2.75891
2.87697
3.00158
3.1234
3.23014
3.30949
3.35182
3.35209
3.3106
3.23224
3.12476
2.99673
2.85672
2.71177
2.56664
2.42475
2.28907
2.16265
2.04852
1.94931
1.86753
1.80449
1.75883
1.72786
1.70794
1.69502
1.68482
1.67271
1.65335
1.62027
1.5661
1.48298
1.35339
1.11707
0.784439
0.388187
-0.116058
0
1.06514
3.17527
6.11433
9.37146
12.2525
14.0628
14.3138
12.8965
10.149
6.76782
3.57133
1.20817
-0.0526487
-0.346098
-0.0370331
0.313724
0.628776
0.877409
1.04507
1.16624
1.26565
1.35164
1.42792
1.49727
1.56227
1.62523
1.68791
1.7513
1.81562
1.88037
1.94468
2.0076
2.06843
2.12683
2.18285
2.23675
2.28895
2.33994
2.39046
2.4416
2.49504
2.55323
2.61926
2.69665
2.7889
2.89889
3.02843
3.17783
3.34576
3.52934
3.72458
3.92692
4.13176
4.33501
4.53317
4.72305
4.90138
5.0645
5.20791
5.32625
5.41433
5.46678
5.47859
5.44608
5.36784
5.24521
5.08224
4.88506
4.66086
4.41832
4.16541
3.90788
3.64976
3.39471
3.14643
2.90852
2.68437
2.47686
2.28815
2.11956
1.97157
1.84403
1.73641
1.64786
1.5773
1.52346
1.48484
1.45955
1.44541
1.4399
1.44035
1.44424
1.4495
1.45471
1.4592
1.46309
1.46722
1.47308
1.48257
1.49786
1.52108
1.55419
1.59938
1.65831
1.72905
1.80294
1.86776
1.91178
1.92727
1.91312
1.87543
1.82583
1.77793
1.74317
1.72573
1.72253
1.72896
1.74164
1.75714
1.77253
1.78564
1.79513
1.80018
1.80018
1.79467
1.78333
1.76627
1.74427
1.719
1.69297
1.66929
1.65129
1.64197
1.6439
1.65927
1.68961
1.73569
1.79714
1.87282
1.9608
2.05849
2.16312
2.27224
2.3844
2.49947
2.6186
2.74383
2.8801
3.03381
3.19563
3.3422
3.44598
3.48645
3.45843
3.37293
3.25027
3.11013
2.96427
2.81675
2.66875
2.52153
2.37747
2.24039
2.11508
2.00648
1.91911
1.85842
1.82719
1.81966
1.825
1.83127
1.82822
1.80912
1.77134
1.71542
1.64349
1.55754
1.45456
1.29233
0.956742
0.460904
-0.104671
-0.458063
0
1.5456
4.19994
7.62528
11.1779
14.0646
15.572
15.3045
13.3414
10.2281
6.77891
3.77048
1.67678
0.572586
0.229563
0.35589
0.536814
0.716219
0.883505
1.02927
1.15087
1.25407
1.34394
1.42412
1.49751
1.56652
1.63307
1.69859
1.76401
1.82971
1.89571
1.96173
2.02743
2.09245
2.15652
2.2195
2.28157
2.34339
2.40629
2.47244
2.54471
2.62633
2.72037
2.82903
2.95316
3.0917
3.24229
3.40176
3.56659
3.7335
3.89986
4.06381
4.22415
4.38008
4.53094
4.67621
4.81563
4.94941
5.07848
5.20436
5.32899
5.45508
5.58415
5.71048
5.81808
5.88449
5.88641
5.80586
5.63534
5.38084
5.06171
4.70656
4.34629
4.0025
3.67959
3.37756
3.09983
2.84892
2.62655
2.43384
2.27123
2.13828
2.03375
1.95552
1.90034
1.86353
1.83962
1.82344
1.8106
1.79787
1.78319
1.76558
1.74482
1.72122
1.69549
1.66867
1.64201
1.61705
1.59534
1.57826
1.56674
1.56093
1.55983
1.56142
1.56334
1.56351
1.56076
1.55509
1.54771
1.54058
1.53573
1.5345
1.53722
1.54273
1.54825
1.55047
1.54653
1.53508
1.51671
1.49383
1.46996
1.4486
1.43218
1.42123
1.41529
1.413
1.41283
1.41373
1.41564
1.4195
1.42701
1.44007
1.4602
1.48787
1.52274
1.56417
1.61128
1.66321
1.71931
1.77933
1.84349
1.9124
1.98696
2.06811
2.15662
2.25277
2.35634
2.46652
2.5803
2.69107
2.79011
2.8682
2.91688
2.92946
2.90158
2.83147
2.72027
2.57252
2.39772
2.20907
2.01949
1.84084
1.68259
1.55028
1.45146
1.38614
1.34745
1.32607
1.31282
1.30087
1.28653
1.26867
1.24701
1.22018
1.18505
1.13686
1.06367
0.907342
0.598117
0.161073
-0.343768
-0.58792
0
1.71072
4.54888
8.11764
11.6631
14.2794
15.2236
14.2109
11.5468
8.01475
4.55607
1.90546
0.364472
-0.192619
-0.122242
0.0529741
0.220912
0.376345
0.518285
0.650469
0.778579
0.905626
1.03289
1.16005
1.28501
1.40458
1.51548
1.61543
1.70388
1.78208
1.85274
1.91911
1.98421
2.05016
2.11799
2.18812
2.26073
2.3362
2.4153
2.49926
2.58953
2.68748
2.79409
2.90977
3.03443
3.16767
3.30877
3.45685
3.6107
3.76871
3.92871
4.08791
4.24311
4.39089
4.52838
4.65385
4.76721
4.87024
4.96638
5.06016
5.15747
5.26779
5.39886
5.53597
5.64862
5.70182
5.66881
5.54053
5.32823
5.05796
4.75971
4.45675
4.15891
3.86709
3.58189
3.3057
3.04183
2.79436
2.56773
2.36606
2.1924
2.0482
1.93307
1.84492
1.78032
1.73485
1.70385
1.683
1.66861
1.65783
1.64863
1.63969
1.63035
1.62041
1.61011
1.60005
1.59106
1.58411
1.58011
1.57976
1.58342
1.59101
1.60209
1.61582
1.63117
1.64697
1.66204
1.67535
1.6862
1.69433
1.70002
1.704
1.70729
1.71078
1.71485
1.71896
1.72127
1.71884
1.70842
1.68741
1.65486
1.61201
1.56235
1.51103
1.46389
1.42617
1.40157
1.39244
1.39948
1.42196
1.45815
1.50543
1.56093
1.62219
1.68723
1.75458
1.82338
1.89345
1.96527
2.03989
2.11861
2.20283
2.29381
2.39258
2.49955
2.61289
2.72533
2.82393
2.89377
2.92122
2.89755
2.82173
2.70148
2.5517
2.39101
2.23732
2.10085
1.98245
1.88067
1.7952
1.72551
1.67005
1.62639
1.59121
1.56035
1.52886
1.49143
1.4429
1.37876
1.29567
1.19175
1.06546
0.913806
0.731823
0.518706
0.286082
0.0450513
-0.186694
0
0.978472
3.0201
6.04532
9.52731
12.6092
14.41
14.3801
12.5334
9.43658
5.96202
2.93309
0.839812
-0.248952
-0.572258
-0.398965
-0.168243
0.0730741
0.307003
0.51555
0.695782
0.858274
1.00958
1.15228
1.28645
1.40909
1.51739
1.60874
1.68163
1.73665
1.77679
1.8072
1.83427
1.86439
1.90286
1.95217
2.01285
2.08486
2.16787
2.26125
2.36425
2.47613
2.59602
2.72293
2.85567
2.99285
3.13302
3.27483
3.41726
3.55974
3.70231
3.84551
3.99021
4.1373
4.28729
4.44003
4.59457
4.74904
4.90077
5.04628
5.18077
5.29742
5.38825
5.44655
5.46522
5.43767
5.35921
5.22845
5.04835
4.82631
4.57332
4.30293
4.02828
3.75782
3.49704
3.2502
3.02004
2.80802
2.61466
2.43992
2.28349
2.14497
2.0239
1.91972
1.83168
1.75875
1.69966
1.65293
1.61702
1.59053
1.57224
1.56113
1.55638
1.55729
1.56317
1.57332
1.58689
1.60296
1.62061
1.63882
1.6565
1.6722
1.68398
1.68979
1.68781
1.67697
1.65764
1.63194
1.60374
1.57801
1.55983
1.55312
1.55989
1.58135
1.6146
1.65144
1.68211
1.69819
1.69496
1.67269
1.63664
1.59553
1.55913
1.5356
1.52747
1.53246
1.54811
1.57096
1.59626
1.61976
1.63884
1.65325
1.66516
1.67875
1.69926
1.73181
1.78031
1.84554
1.92604
2.0196
2.12342
2.23401
2.34717
2.45812
2.56146
2.65092
2.71964
2.76207
2.77343
2.75057
2.69295
2.60338
2.48829
2.35708
2.22054
2.08876
1.96784
1.85933
1.76361
1.6793
1.60371
1.53371
1.46658
1.40051
1.33477
1.26945
1.20498
1.14144
1.07816
1.01345
0.944445
0.866949
0.772357
0.636582
0.430208
0.162214
-0.14035
-0.390491
0
1.36753
3.84415
7.19049
10.7777
13.7383
15.2581
14.8935
12.7645
9.51179
6.02887
3.10208
1.14621
0.155976
-0.143024
0.0091115
0.193988
0.395343
0.600842
0.793102
0.960081
1.10395
1.23
1.34239
1.44375
1.5357
1.61949
1.69652
1.76869
1.83839
1.9084
1.98154
2.06025
2.14603
2.23906
2.33801
2.44019
2.54128
2.63661
2.72248
2.79731
2.86237
2.92195
2.98284
3.05332
3.14174
3.25422
3.39344
3.55954
3.75004
3.95953
4.1803
4.40328
4.61868
4.81806
4.99541
5.14772
5.27481
5.37856
5.46046
5.52297
5.56793
5.59521
5.60278
5.58721
5.54464
5.47158
5.3658
5.22678
5.05582
4.85589
4.63117
4.38668
4.12879
3.86348
3.596
3.33192
3.07727
2.83868
2.62321
2.43665
2.28296
2.16389
2.07862
2.02392
1.99457
1.98418
1.98606
1.99403
2.00306
2.0097
2.01192
2.00888
2.00069
1.9881
1.97225
1.95455
1.93657
1.92002
1.90671
1.89824
1.89573
1.89961
1.90964
1.92398
1.93991
1.95454
1.9655
1.97143
1.97207
1.96801
1.96011
1.94897
1.93484
1.91745
1.89649
1.87208
1.84521
1.81776
1.79234
1.77164
1.75777
1.75206
1.75401
1.76102
1.76926
1.77459
1.77366
1.76486
1.74889
1.72896
1.71034
1.69953
1.70282
1.72494
1.76783
1.83024
1.90932
2.00054
2.09841
2.19762
2.29416
2.38578
2.47222
2.55505
2.63715
2.72216
2.81469
2.92162
3.04855
3.18437
3.30485
3.38292
3.39862
3.34693
3.23938
3.09852
2.9479
2.80277
2.66446
2.52921
2.39497
2.26129
2.12916
2.00107
1.88067
1.77218
1.68111
1.61353
1.5686
1.53965
1.51707
1.49061
1.45131
1.39243
1.30935
1.19892
1.0591
0.863571
0.618297
0.338706
-0.110432
0
1.16202
3.5583
6.92815
10.5884
13.6375
15.269
15.062
13.125
10.0309
6.57761
3.4983
1.25098
-0.0371464
-0.493725
-0.303277
0.071049
0.450603
0.780037
1.01488
1.16951
1.29242
1.40068
1.49893
1.58779
1.66707
1.73672
1.79699
1.84889
1.89445
1.93661
1.97889
2.02483
2.07739
2.13824
2.20776
2.28549
2.37043
2.46131
2.55697
2.6566
2.75986
2.86683
2.97778
3.09306
3.21284
3.33718
3.466
3.5993
3.73725
3.88027
4.02898
4.18399
4.34559
4.51342
4.68618
4.86147
5.03535
5.20049
5.34726
5.4664
5.54994
5.59256
5.59211
5.54922
5.46618
5.34577
5.19052
5.00696
4.80195
4.57975
4.34351
4.09681
3.84363
3.58817
3.3347
3.08769
2.8518
2.63198
2.43285
2.25822
2.11198
1.99545
1.9068
1.84223
1.79675
1.76518
1.74303
1.727
1.71508
1.70619
1.69959
1.69451
1.68983
1.68393
1.67535
1.66338
1.64859
1.63306
1.62001
1.61295
1.61465
1.62589
1.64636
1.67265
1.69954
1.72134
1.73318
1.73196
1.71688
1.68945
1.65304
1.61215
1.57156
1.53502
1.50491
1.48314
1.46982
1.46225
1.45676
1.44993
1.43982
1.42662
1.4125
1.40066
1.39396
1.39363
1.39902
1.40683
1.41258
1.41224
1.40378
1.38819
1.36961
1.35462
1.35084
1.36467
1.39897
1.4541
1.52903
1.62149
1.72791
1.84367
1.96361
2.08256
2.19565
2.29801
2.385
2.4537
2.50209
2.52901
2.53408
2.51757
2.48027
2.42327
2.34787
2.25557
2.14926
2.03182
1.90587
1.77439
1.6407
1.50822
1.38027
1.25981
1.14936
1.05089
0.965777
0.894634
0.837165
0.792021
0.756653
0.726642
0.695134
0.653856
0.594188
0.508353
0.373012
0.173578
-0.0781732
-0.359024
-0.529325
0
1.56215
4.22236
7.62306
11.0097
13.4684
14.2821
13.2232
10.6321
7.25059
3.91413
1.26509
-0.394452
-1.09144
-1.03909
-0.617399
-0.197878
0.162838
0.412055
0.536014
0.616173
0.681539
0.740228
0.795759
0.850526
0.906271
0.964109
1.02461
1.08802
1.15441
1.22397
1.29699
1.37389
1.45501
1.54044
1.62981
1.72223
1.81636
1.91066
2.00378
2.09495
2.18438
2.27336
2.3642
2.45982
2.56323
2.67696
2.80264
2.94074
3.09067
3.2513
3.42119
3.59891
3.78307
3.97227
4.16489
4.3587
4.5496
4.73095
4.8937
5.02832
5.12656
5.18189
5.19007
5.14937
5.06054
4.92659
4.75261
4.54537
4.31415
4.06915
3.8187
3.5686
3.32306
3.08544
2.85818
2.64294
2.44095
2.25325
2.08108
1.92596
1.78941
1.67273
1.57658
1.50086
1.44418
1.40422
1.37801
1.36233
1.35412
1.35063
1.34966
1.3495
1.34897
1.3475
1.34515
1.34256
1.34079
1.34094
1.34383
1.34963
1.35689
1.36295
1.36495
1.36102
1.35119
1.33769
1.32431
1.31519
1.31326
1.31869
1.33006
1.34408
1.35677
1.36462
1.36554
1.35924
1.34701
1.331
1.31352
1.29636
1.28051
1.26648
1.25458
1.24501
1.23799
1.23371
1.23218
1.23318
1.23623
1.24068
1.24597
1.25187
1.25876
1.26776
1.28077
1.30022
1.32866
1.36823
1.42021
1.48447
1.56045
1.6453
1.73315
1.81814
1.89623
1.96656
2.03186
2.0977
2.17066
2.25608
2.35958
2.47933
2.60197
2.70977
2.78598
2.81908
2.80451
2.74391
2.643
2.50955
2.35402
2.18738
2.01782
1.85173
1.69449
1.55035
1.42234
1.31242
1.22105
1.14719
1.08836
1.04113
1.00159
0.965738
0.929731
0.889982
0.843116
0.784719
0.702687
0.553462
0.296491
-0.0555261
-0.461088
-0.637055
0
1.76928
4.66999
8.28021
11.8295
14.4315
15.3893
14.4524
11.9096
8.47285
5.00239
2.20221
0.423259
-0.356295
-0.40584
-0.102627
0.178076
0.4156
0.596576
0.718183
0.809844
0.887227
0.956937
1.02321
1.08983
1.16026
1.2373
1.32272
1.41688
1.51857
1.62506
1.73252
1.83633
1.93201
2.0163
2.08774
2.14711
2.19729
2.24291
2.28952
2.34275
2.40744
2.48669
2.58165
2.69209
2.81682
2.95387
3.10089
3.25544
3.41526
3.57834
3.74296
3.90763
4.07108
4.23218
4.38995
4.54351
4.69199
4.83427
4.96862
5.09212
5.20005
5.28632
5.34469
5.36838
5.35105
5.28787
5.1764
5.01707
4.81336
4.57178
4.30283
4.01991
3.73441
3.45545
3.1913
2.949
2.73444
2.5508
2.39723
2.27057
2.16641
2.08021
2.00811
1.94737
1.89615
1.85317
1.81716
1.78662
1.75984
1.7352
1.7117
1.68923
1.66877
1.65219
1.64187
1.63981
1.64726
1.6648
1.6919
1.72708
1.76747
1.80953
1.84954
1.88407
1.91033
1.9263
1.93095
1.92424
1.90703
1.88108
1.84883
1.81319
1.77721
1.74366
1.71466
1.69132
1.67405
1.66265
1.65647
1.65461
1.6561
1.65987
1.66479
1.66966
1.67319
1.67421
1.67181
1.66554
1.6556
1.64294
1.62927
1.61694
1.60876
1.60765
1.6164
1.63727
1.67169
1.72
1.78146
1.85433
1.93626
2.0247
2.1174
2.21269
2.30961
2.4077
2.50656
2.60534
2.70202
2.79309
2.87407
2.94034
2.98808
3.01504
3.02071
3.006
2.97253
2.92205
2.85673
2.77898
2.69073
2.59396
2.49141
2.38649
2.28299
2.18456
2.0942
2.01415
1.94577
1.88964
1.84576
1.81365
1.79239
1.78085
1.7767
1.7751
1.76931
1.7514
1.71163
1.59866
1.28753
0.831997
0.316064
-0.203536
0
1.17978
3.48132
6.69699
10.2347
13.2551
14.9537
14.8685
13.0642
10.0967
6.77591
3.85387
1.78986
0.680424
0.345024
0.529054
0.752908
0.966058
1.15227
1.30451
1.4305
1.54076
1.63978
1.72925
1.81027
1.88451
1.95456
2.02361
2.09527
2.17281
2.25852
2.35308
2.45516
2.56214
2.67064
2.77719
2.87888
2.97389
3.06178
3.14341
3.22075
3.29652
3.3739
3.45628
3.54706
3.64941
3.76597
3.8985
4.04741
4.21145
4.38761
4.57135
4.75721
4.93968
5.11406
5.27728
5.4282
5.56748
5.69662
5.81696
5.92898
6.03056
6.11531
6.17257
6.19076
6.16102
6.07964
5.9488
5.77545
5.56939
5.34204
5.10489
4.86485
4.62579
4.39038
4.16077
3.93884
3.7265
3.52589
3.33944
3.16965
3.01892
2.88995
2.78497
2.70269
2.6401
2.59337
2.55875
2.53326
2.51491
2.50243
2.49481
2.49085
2.4888
2.4868
2.48344
2.47838
2.47259
2.46808
2.46716
2.4715
2.48116
2.49469
2.50977
2.5234
2.53257
2.53486
2.52886
2.51436
2.49228
2.46443
2.43332
2.40162
2.37191
2.34648
2.32723
2.31545
2.31177
2.31611
2.32775
2.34532
2.36687
2.39005
2.41184
2.42901
2.43858
2.43838
159
348
532
718
898
1076
1257
1442
1624
1808
1993
2174
2357
2539
2717
2895
3077
3259
3444
3629
2919
3053
3183
3318
3456
3591
3732
3500
3620
3741
0
0
0
0
0
0
0
0
0
0
0
0
0
0
0
0
0
0
0
0
0
0
0
0
0
0
0
0
0
0
0
0
0
0
0
0
0
0
0
0
0
0
0
0
0
0
0
0
0
0
0
0
0
0
0
0
0
0
0
0
0
0
0
0
0
0
0
0
0
0
0
0
0
0
0
0
0
0
0
0
0
0
0
0
0
0
0
0
0
0
0
0
0
0
0
0
0
0
0
0
0
0
0
0
0
0
0
0
0
0
0
0
0
0
0
0
0
0
0
0
0
0
0
0
0
0
0
0
0
0
0
0
0
0
0
0
0
0
0
0
0
0
0
0
0
0
0
0
0
0
0
0
0
0
0
0
0
0
0
0
0
0
0
0
0
0
0
0
0
0
0
0
0
0
0
0
0
0
0
0
0
0
0
0
0
0
0
0
0
0
0
0
0
0
0
0
0
0
0
0
0
0
0
0
0
0
0
0
0
0
0
0
0
0
0
0
0
0
0
0
0
0
0
0
0
0
0
0
0
0
0
0
0
0
0
0
0
0
0
0
0
0
0
0
0
0
0
0
0
0
0
0
0
0
0
0
0
0
0
0
0
0
0
0
0
0
0
0
0
0
0
0
0
0
0
0
0
0
0
0
0
0
0
0
0
0
0
0
0
0
0
0
0
0
0
0
0
0
0
0
0
0
0
0
0
0
0
0
0
0
0
0
0
0
0
0
0
0
0
0
0
0
0
0
0
0
0
0
0
0
0
0
0
0
0
0
0
0
0
0
0
0
0
0
0
0
0
0
0
0
0
0
0
0
0
0
0
0
0
0
0
0
0
0
0
0
0
0
0
0
0
0
0
0
0
0
0
0
0
0
0
0
0
0
0
0
0
0
0
0
0
0
0
0
0
0
0
0
0
0
0
0
0
0
0
0
0
0
0
0
0
0
0
0
0
0
0
0
0
0
0
0
0
0
0
0
0
0
0
0
0
0
0
0
0
0
0
0
0
0
0
0
0
0
0
0
0
0
0
0
0
0
0
0
0
0
0
0
0
0
0
0
0
0
0
0
0
0
0
0
0
0
0
0
0
0
0
0
0
0
0
0
0
0
0
0
0
0
0
0
0
0
0
0
0
0
0
0
0
0
0
0
0
0
0
0
0
0
0
0
0
0
0
0
0
0
0
0
0
0
0
0
0
0
0
0
0
0
0
0
0
0
0
0
0
0
0
0
0
0
0
0
0
0
0
0
0
0
0
0
0
0
0
0
0
0
0
0
0
0
0
0
0
0
0
0
0
0
0
0
0
0
0
0
0
0
0
0
0
0
0
0
0
0
0
0
0
0
0
0
0
0
0
0
0
0
0
0
0
0
0
0
0
0
0
0
0
0
0
0
0
0
0
0
0
0
0
0
0
0
0
0
0
0
0
0
0
0
0
0
0
0
0
0
0
0
0
0
0
0
0
0
0
0
0
0
0
0
0
0
0
0
0
0
0
0
0
0
0
0
0
0
0
0
0
0
0
0
0
0
0
0
0
0
0
0
0
0
0
0
0
0
0
0
0
0
0
0
0
0
0
0
0
0
0
0
0
0
0
0
0
0
0
0
0
0
0
0
0
0
0
0
0
0
0
0
0
0
0
0
0
0
0
0
0
0
0
0
0
0
0
0
0
0
0
0
0
0
0
0
0
0
0
0
0
0
0
0
0
0
0
0
0
0
0
0
0
0
0
0
0
0
0
0
0
0
0
0
0
0
0
0
0
0
0
0
0
0
0
0
0
0
0
0
0
0
0
0
0
0
0
0
0
0
0
0
0
0
0
0
0
0
0
0
0
0
0
0
0
0
0
0
0
0
0
0
0
0
0
0
0
0
0
0
0
0
0
0
0
0
0
0
0
0
0
0
0
0
0
0
0
0
0
0
0
0
0
0
0
0
0
0
0
0
0
0
0
0
0
0
0
0
0
0
0
0
0
0
0
0
0
0
0
0
0
0
0
0
0
0
0
0
0
0
0
0
0
0
0
0
0
0
0
0
0
0
0
0
0
0
0
0
0
0
0
0
0
0
0
0
0
0
0
0
0
0
0
0
0
0
0
0
0
0
0
0
0
0
0
0
0
0
0
0
0
0
0
0
0
0
0
0
0
0
0
0
0
0
0
0
0
0
0
0
0
0
0
0
0
0
0
0
0
0
0
0
0
0
0
0
0
0
0
0
0
0
0
0
0
0
0
0
0
0
0
0
0
0
0
0
0
0
0
0
0
0
0
0
0
0
0
0
0
0
0
0
0
0
0
0
0
0
0
0
0
0
0
0
0
0
0
0
0
0
0
0
0
0
0
0
0
0
0
0
0
0
0
0
0
0
0
0
0
0
0
0
0
0
0
0
0
0
0
0
0
0
0
0
0
0
0
0
0
0
0
0
0
0
0
0
0
0
0
0
0
0
0
0
0
0
0
0
0
0
0
0
0
0
0
0
0
0
0
0
0
0
0
0
0
0
0
0
0
0
0
0
0
0
0
0
0
0
0
0
0
0
0
0
0
0
0
0
0
0
0
0
0
0
0
0
0
0
0
0
0
0
0
0
0
0
0
0
0
0
0
0
0
0
0
0
0
0
0
0
0
0
0
0
0
0
0
0
0
0
0
0
0
0
0
0
0
0
0
0
0
0
0
0
0
0
0
0
0
0
0
0
0
0
0
0
0
0
0
0
0
0
0
0
0
0
0
0
0
0
0
0
0
0
0
0
0
0
0
0
0
0
0
0
0
0
0
0
0
0
0
0
0
0
0
0
0
0
0
0
0
0
0
0
0
0
0
0
0
0
0
0
0
0
0
0
0
0
0
0
0
0
0
0
0
0
0
0
0
0
0
0
0
0
0
0
0
0
0
0
0
0
0
0
0
0
0
0
0
0
0
0
0
0
0
0
0
0
0
0
0
0
0
0
0
0
0
0
0
0
0
0
0
0
0
0
0
0
0
0
0
0
0
0
0
0
0
0
0
0
0
0
0
0
0
0
0
0
0
0
0
0
0
0
0
0
0
0
0
0
0
0
0
0
0
0
0
0
0
0
0
0
0
0
0
0
0
0
0
0
0
0
0
0
0
0
0
0
0
0
0
0
0
0
0
0
0
0
0
0
0
0
0
0
0
0
0
0
0
0
0
0
0
0
0
0
0
0
0
0
0
0
0
0
0
0
0
0
0
0
0
0
0
0
0
0
0
0
0
0
0
0
0
0
0
0
0
0
0
0
0
0
0
0
0
0
0
0
0
0
0
0
0
0
0
0
0
0
0
0
0
0
0
0
0
0
0
0
0
0
0
0
0
0
0
0
0
0
0
0
0
0
0
0
0
0
0
0
0
0
0
0
0
0
0
0
0
0
0
0
0
0
0
0
0
0
0
0
0
0
0
0
0
0
0
0
0
0
0
0
0
0
0
0
0
0
0
0
0
0
0
0
0
0
0
0
0
0
0
0
0
0
0
0
0
0
0
0
0
0
0
0
0
0
0
0
0
0
0
0
0
0
0
0
0
0
0
0
0
0
0
0
0
0
0
0
0
0
0
0
0
0
0
0
0
0
0
0
0
0
0
0
0
0
0
0
0
0
0
0
0
0
0
0
0
0
0
0
0
0
0
0
0
0
0
0
0
0
0
0
0
0
0
0
0
0
0
0
0
0
0
0
0
0
0
0
0
0
0
0
0
0
0
0
0
0
0
0
0
0
0
0
0
0
0
0
0
0
0
0
0
0
0
0
0
0
0
0
0
0
0
0
0
0
0
0
0
0
0
0
0
0
0
0
0
0
0
0
0
0
0
0
0
0
0
0
0
0
0
0
0
0
0
0
0
0
0
0
0
0
0
0
0
0
0
0
0
0
0
0
0
0
0
0
0
0
0
0
0
0
0
0
0
0
0
0
0
0
0
0
0
0
0
0
0
0
0
0
0
0
0
0
0
0
0
0
0
0
0
0
0
0
0
0
0
0
0
0
0
0
0
0
0
0
0
0
0
0
0
0
0
0
0
0
0
0
0
0
0
0
0
0
0
0
0
0
0
0
0
0
0
0
0
0
0
0
0
0
0
0
0
0
0
0
0
0
0
0
0
0
0
0
0
0
0
0
0
0
0
0
0
0
0
0
0
0
0
0
0
0
0
0
0
0
0
0
0
0
0
0
0
0
0
0
0
0
0
0
0
0
0
0
0
0
0
0
0
0
0
0
0
0
0
0
0
0
0
0
0
0
0
0
0
0
0
0
0
0
0
0
0
0
0
0
0
0
0
0
0
0
0
0
0
0
0
0
0
0
0
0
0
0
0
0
0
0
0
0
0
0
0
0
0
0
0
0
0
0
0
0
0
0
0
0
0
0
0
0
0
0
0
0
0
0
0
0
0
0
0
0
0
0
0
0
0
0
0
0
0
0
0
0
0
0
0
0
0
0
0
0
0
0
0
0
0
0
0
0
0
0
0
0
0
0
0
0
0
0
0
0
0
0
0
0
0
0
0
0
0
0
0
0
0
0
0
0
0
0
0
0
0
0
0
0
0
0
0
0
0
0
0
0
0
0
0
0
0
0
0
0
0
0
0
0
0
0
0
0
0
0
0
0
0
0
0
0
0
0
0
0
0
0
0
0
0
0
0
0
0
0
0
0
0
0
0
0
0
0
0
0
0
0
0
0
0
0
0
0
0
0
0
0
0
0
0
0
0
0
0
0
0
0
0
0
0
0
0
0
0
0
0
0
0
0
0
0
0
0
0
0
0
0
0
0
0
0
0
0
0
0
0
0
0
0
0
0
0
0
0
0
0
0
0
0
0
0
0
0
0
0
0
0
0
0
0
0
0
0
0
0
0
0
0
0
0
0
0
0
0
0
0
0
0
0
0
0
0
0
0
0
0
0
0
0
0
0
0
0
0
0
0
0
0
0
0
0
0
0
0
0
0
0
0
0
0
0
0
0
0
0
0
0
0
0
0
0
0
0
0
0
0
0
0
0
0
0
0
0
0
0
0
0
0
0
0
0
0
0
0
0
0
0
0
0
0
0
0
0
0
0
0
0
0
0
0
0
0
0
0
0
0
0
0
0
0
0
0
0
0
0
0
0
0
0
0
0
0
0
0
0
0
0
0
0
0
0
0
0
0
0
0
0
0
0
0
0
0
0
0
0
0
0
0
0
0
0
0
0
0
0
0
0
0
0
0
0
0
0
0
0
0
0
0
0
0
0
0
0
0
0
0
0
0
0
0
0
0
0
0
0
0
0
0
0
0
0
0
0
0
0
0
0
0
0
0
0
0
0
0
0
0
0
0
0
0
0
0
0
0
0
0
0
0
0
0
0
0
0
0
0
0
0
0
0
0
0
0
0
0
0
0
0
0
0
0
0
0
0
0
0
0
0
0
0
0
0
0
0
0
0
0
0
0
0
0
0
0
0
0
0
0
0
0
0
0
0
0
0
0
0
0
0
0
0
0
0
0
0
0
0
0
0
0
0
0
0
0
0
0
0
0
0
0
0
0
0
0
0
0
0
0
0
0
0
0
0
0
0
0
0
0
0
0
0
0
0
0
0
0
0
0
0
0
0
0
0
0
0
0
0
0
0
0
0
0
0
0
0
0
0
0
0
0
0
0
0
0
0
0
0
0
0
0
0
0
0
0
0
0
0
0
0
0
0
0
0
0
0
0
0
0
0
0
0
0
0
0
0
0
0
0
0
0
0
0
0
0
0
0
0
0
0
0
0
0
0
0
0
0
0
0
0
0
0
0
0
0
0
0
0
0
0
0
0
0
0
0
0
0
0
0
0
0
0
0
0
0
0
0
0
0
0
0
0
0
0
0
0
0
0
0
0
0
0
0
0
0
0
0
0
0
0
0
0
0
0
0
0
0
0
0
0
0
0
0
0
0
0
0
0
0
0
0
0
0
0
0
0
0
0
0
0
0
0
0
0
0
0
0
0
0
0
0
0
0
0
0
0
0
0
0
0
0
0
0
0
0
0
0
0
0
0
0
0
0
0
0
0
0
0
0
0
0
0
0
0
0
0
0
0
0
0
0
0
0
0
0
0
0
0
0
0
0
0
0
0
0
0
0
0
0
0
0
0
0
0
0
0
0
0
0
0
0
0
0
0
0
0
0
0
0
0
0
0
0
0
0
0
0
0
0
0
0
0
0
0
0
0
0
0
0
0
0
0
0
0
0
0
0
0
0
0
0
0
0
0
0
0
0
0
0
0
0
0
0
0
0
0
0
0
0
0
0
0
0
0
0
0
0
0
0
0
0
0
0
0
0
0
0
0
0
0
0
0
0
0
0
0
0
0
0
0
0
0
0
0
0
0
0
0
0
0
0
0
0
0
0
0
0
0
0
0
0
0
0
0
0
0
0
0
0
0
0
0
0
0
0
0
0
0
0
0
0
0
0
0
0
0
0
0
0
0
0
0
0
0
0
0
0
0
0
0
0
0
0
0
0
0
0
0
0
0
0
0
0
0
0
0
0
0
0
0
0
0
0
0
0
0
0
0
0
0
0
0
0
0
0
0
0
0
0
0
0
0
0
0
0
0
0
0
0
0
0
0
0
0
0
0
0
0
0
0
0
0
0
0
0
0
0
0
0
0
0
0
0
0
0
0
0
0
0
0
0
0
0
0
0
0
0
0
0
0
0
0
0
0
0
0
0
0
0
0
0
0
0
0
0
0
0
0
0
0
0
0
0
0
0
0
0
0
0
0
0
0
0
0
0
0
0
0
0
0
0
0
0
0
0
0
0
0
0
0
0
0
0
0
0
0
0
0
0
0
0
0
0
0
0
0
0
0
0
0
0
0
0
0
0
0
0
0
0
0
0
0
0
0
0
0
0
0
0
0
0
0
0
0
0
0
0
0
0
0
0
0
0
0
0
0
0
0
0
0
0
0
0
0
0
0
0
0
0
0
0
0
0
0
0
0
0
0
0
0
0
0
0
0
0
0
0
0
0
0
0
0
0
0
0
0
0
0
0
0
0
0
0
0
0
0
0
0
0
0
0
0
0
0
0
0
0
0
0
0
0
0
0
0
0
0
0
0
0
0
0
0
0
0
0
0
0
0
0
0
0
0
0
0
0
0
0
0
0
0
0
0
0
0
0
0
0
0
0
0
0
0
0
0
0
0
0
0
0
0
0
0
0
0
0
0
0
0
0
0
0
0
0
0
0
0
0
0
0
0
0
0
0
0
0
0
0
0
0
0
0
0
0
0
0
0
0
0
0
0
0
0
0
0
0
0
0
0
0
0
0
0
0
0
0
0
0
0
0
0
0
0
0
0
0
0
0
0
0
0
0
0
0
0
0
0
0
0
0
0
0
0
0
0
0
0
0
0
0
0
0
0
0
0
0
0
0
0
0
0
0
0
0
0
0
0
0
0
0
0
0
0
0
0
0
0
0
0
0
0
0
0
0
0
0
0
0
0
0
0
0
0
0
0
0
0
0
0
0
0
0
0
0
0
0
0
0
0
0
0
0
0
0
0
0
0
0
0
0
0
0
0
0
0
0
0
0
0
0
0
0
0
0
0
0
0
0
0
0
0
0
0
0
0
0
0
0
0
0
0
0
0
0
0
0
0
0
0
0
0
0
0
0
0
0
0
0
0
0
0
0
0
0
0
0
0
0
0
0
0
0
0
0
0
0
0
0
0
0
0
0
0
0
0
0
0
0
0
0
0
0
0
0
0
0
0
0
0
0
0
0
0
0
0
0
0
0
0
0
0
0
0
0
0
0
0
0
0
0
0
0
0
0
0
0
0
0
0
0
0
0
0
0
0
0
0
0
0
0
0
0
0
0
0
0
0
0
0
0
0
0
0
0
0
0
0
0
0
0
0
0
0
0
0
0
0
0
0
0
0
0
0
0
0
0
0
0
0
0
0
0
0
0
0
0
0
0
0
0
0
0
0
0
0
0
0
0
0
0
0
0
0
0
0
0
0
0
0
0
0
0
0
0
0
0
0
0
0
0
0
0
0
0
0
0
0
0
0
0
0
0
0
0
0
0
0
0
0
0
0
0
0
0
0
0
0
0
0
0
0
0
0
0
0
0
0
0
0
0
0
0
0
0
0
0
0
0
0
0
0
0
0
0
0
0
0
0
0
0
0
0
0
0
0
0
0
0
0
0
0
0
0
0
0
0
0
0
0
0
0
0
0
0
0
0
0
0
0
0
0
0
0
0
0
0
0
0
0
0
0
0
0
0
0
0
0
0
0
0
0
0
0
0
0
0
0
0
0
0
0
0
0
0
0
0
0
0
0
0
0
0
0
0
0
0
0
0
0
0
0
0
0
0
0
0
0
0
0
0
0
0
0
0
0
0
0
0
0
0
0
0
0
0
0
0
0
0
0
0
0
0
0
0
0
0
0
0
0
0
0
0
0
0
0
0
0
0
