0.116158
0.163863
0.182553
0.182504
0.173627
0.163188
0.15464
0.149318
0.148029
0.151553
0.160903
0.177145
0.200963
0.232015
0.268754
0.309091
0.350516
0.390492
0.426972
0.458809
0.486031
0.509932
0.533067
0.559082
0.592418
0.637872
0.700253
0.790452
0.929024
1.11853
1.32227
1.49162
1.58407
1.57946
1.48661
1.33767
1.17378
1.02917
0.915611
0.823668
0.745377
0.677061
0.617286
0.565578
0.522008
0.487065
0.461372
0.442928
0.425468
0.400459
0.358916
0.293599
0.200779
0.081031
-0.0610519
-0.217889
-0.380466
-0.412856
0
1.08065
2.91697
5.25391
7.51723
9.02681
9.29344
8.23594
6.20511
3.8152
1.67957
0.193242
-0.540965
-0.642072
-0.386915
-0.173648
-0.0254402
0.0392777
0.0212914
-0.0565804
-0.155135
-0.232522
-0.26049
-0.243771
-0.201586
-0.148044
-0.0959854
-0.0520508
-0.014846
0.0232262
0.0716003
0.136903
0.218656
0.310595
0.40828
0.507744
0.605824
0.700584
0.790925
0.876762
0.95889
1.0387
1.1182
1.1999
1.28625
1.3789
1.47844
1.58311
1.69025
1.7981
1.90752
2.02275
2.1506
2.29824
2.47051
2.66659
2.8784
3.09803
3.31572
3.51841
3.69392
3.83236
3.92693
3.97412
3.97321
3.92563
3.83438
3.70378
3.54027
3.35351
3.15237
2.94468
2.7378
2.53844
2.35178
2.18019
2.02392
1.88193
1.75306
1.63696
1.53453
1.44785
1.37964
1.33128
1.30472
1.30111
1.32038
1.36514
1.44012
1.53433
1.62686
1.69623
1.7277
1.71917
1.68253
1.63964
1.61478
1.62688
1.67326
1.74395
1.83652
1.94773
2.06426
2.16896
2.24682
2.28885
2.29471
2.27312
2.23937
2.21095
2.20246
2.21754
2.25144
2.30166
2.36199
2.42223
2.4715
2.50057
2.50343
2.47814
2.4267
2.35418
2.26731
2.17286
2.07642
1.9813
1.88877
1.79911
1.71208
1.62711
1.54334
1.4596
1.37427
1.28514
1.18934
1.08317
0.959635
0.802372
0.593646
0.337975
0.0482269
-0.266729
0
1.00775
2.82506
5.28157
7.95128
10.2147
11.4421
11.246
9.67291
7.20498
4.55432
2.36138
0.967023
0.36213
0.302018
0.414585
0.519773
0.6175
0.701555
0.764776
0.802498
0.812557
0.797326
0.765027
0.729155
0.705431
0.706966
0.739497
0.797468
0.869335
0.939924
0.99581
1.02989
1.04339
1.04488
1.04688
1.06187
1.09544
1.14766
1.21818
1.30594
1.40879
1.52396
1.64848
1.77954
1.91442
2.05053
2.18518
2.31562
2.43894
2.55262
2.65544
2.74781
2.83226
2.91344
2.99762
3.09178
3.20393
3.35082
3.55044
3.7884
4.02101
4.2019
4.29722
4.29327
4.19616
4.02706
3.8166
3.5993
3.40311
3.23526
3.08967
2.95694
2.82994
2.70248
2.57052
2.43355
2.29481
2.16018
2.03634
1.92851
1.83875
1.7674
1.71311
1.67409
1.64916
1.63831
1.64249
1.66284
1.69981
1.75177
1.81651
1.89064
1.97059
2.04947
2.11388
2.1478
2.13463
2.06256
1.93113
1.75507
1.56242
1.38723
1.26004
1.18597
1.15825
1.17771
1.24128
1.34296
1.4731
1.62157
1.78002
1.94097
2.09766
2.24304
2.36894
2.46836
2.53559
2.56564
2.55477
2.50145
2.40717
2.27713
2.12038
1.94927
1.77831
1.62032
1.48735
1.40524
1.42411
1.58613
1.82888
2.0571
2.18104
2.13638
1.89988
1.49865
1.00615
0.519227
0.116437
-0.224429
-0.533129
0
1.12972
2.89082
5.16978
7.61584
9.68045
10.7881
10.58
9.10475
6.83596
4.47946
2.65992
1.66537
1.38965
1.46893
1.41492
1.35588
1.29376
1.22925
1.16356
1.09825
1.03479
0.974327
0.917652
0.865388
0.818316
0.777974
0.746587
0.726669
0.720662
0.730134
0.755027
0.793337
0.841716
0.894709
0.946956
0.994598
1.0363
1.07361
1.11052
1.15262
1.20597
1.27564
1.36426
1.47341
1.60411
1.75589
1.92641
2.11148
2.30602
2.50158
2.68885
2.86027
3.01189
3.14436
3.26268
3.3748
3.48933
3.61456
3.75781
3.91517
4.07053
4.20349
4.295
4.33118
4.30469
4.21465
4.06642
3.8715
3.64805
3.41656
3.19415
2.99207
2.81282
2.65364
2.51322
2.38966
2.28032
2.18242
2.09363
2.01233
1.93761
1.86923
1.80719
1.75146
1.70171
1.65696
1.615
1.57328
1.52966
1.48311
1.43425
1.38523
1.33924
1.29974
1.26964
1.25066
1.24352
1.24804
1.26335
1.28777
1.31977
1.35781
1.40011
1.44488
1.49041
1.53506
1.57715
1.61439
1.64479
1.66654
1.67867
1.68166
1.67775
1.67063
1.66433
1.6618
1.66354
1.66716
1.66724
1.65688
1.6296
1.58126
1.5111
1.42194
1.31922
1.20953
1.09897
0.991571
0.888913
0.79139
0.698554
0.609206
0.521662
0.433965
0.344075
0.250178
0.150993
0.0458977
-0.0644371
-0.180634
-0.332355
0
1.06496
2.93204
5.37744
7.88265
9.76408
10.4178
9.57516
7.4386
4.61795
1.88887
-0.101933
-1.04467
-1.00745
-0.312106
0.311272
0.787162
1.03579
1.03145
0.823481
0.518969
0.238747
0.0665573
-0.00860977
-0.0494415
-0.0790848
-0.103398
-0.124619
-0.141451
-0.150047
-0.145901
-0.125887
-0.090287
-0.0407837
0.0172058
0.077906
0.137572
0.196221
0.257957
0.329674
0.41853
0.529085
0.660905
0.808294
0.962754
1.11478
1.25671
1.38483
1.50025
1.60802
1.71521
1.82851
1.95155
2.08441
2.22574
2.37289
2.52246
2.67107
2.81603
2.95561
3.08927
3.21731
3.34028
3.4578
3.56629
3.6546
3.70449
3.69168
3.59347
3.39836
3.11374
2.76745
2.40175
2.06164
1.77341
1.52879
1.32411
1.16017
1.03519
0.945824
0.888177
0.858517
0.853748
0.871501
0.909974
0.967748
1.04385
1.13726
1.24653
1.36793
1.49069
1.59671
1.66623
1.68208
1.63472
1.52658
1.37346
1.20196
1.0433
0.92557
0.854108
0.819434
0.816998
0.843445
0.895919
0.965212
1.03667
1.09697
1.13687
1.15304
1.14847
1.13101
1.11043
1.09482
1.08732
1.08498
1.08125
1.06668
1.03159
0.968825
0.875929
0.756228
0.618466
0.475103
0.339664
0.222588
0.127678
0.0565525
0.0101955
-0.014724
-0.0249352
-0.0276009
-0.0287045
-0.0320267
-0.0389183
-0.048827
-0.0602798
-0.0719093
-0.0831364
-0.0942348
-0.115743
0
0.714373
2.31562
4.68935
7.24561
9.14005
9.67372
8.64351
6.43899
3.83306
1.59336
0.146386
-0.520211
-0.695593
-0.612001
-0.531131
-0.454864
-0.387259
-0.332106
-0.291746
-0.265961
-0.251358
-0.241584
-0.228364
-0.203139
-0.159032
-0.0944946
-0.0105125
0.0937283
0.215771
0.344239
0.461883
0.552755
0.60658
0.622084
0.607945
0.580713
0.56025
0.564388
0.601891
0.668379
0.758281
0.868738
0.997741
1.14333
1.30387
1.47827
1.66587
1.86638
2.07955
2.30488
2.5413
2.78683
3.03835
3.29165
3.54067
3.77741
3.99322
4.17997
4.33076
4.44063
4.50654
4.52718
4.50297
4.43599
4.32994
4.19013
4.02299
3.83545
3.63434
3.42535
3.2124
2.99803
2.78447
2.57463
2.37293
2.1873
2.02652
1.89951
1.81349
1.77556
1.80009
1.87513
1.97254
2.06207
2.1203
2.13682
2.11547
2.07098
2.02248
1.98636
1.96703
1.95971
1.95972
1.95639
1.93664
1.88917
1.80813
1.69563
1.56205
1.42381
1.29914
1.2033
1.14305
1.11927
1.12677
1.15712
1.20207
1.25528
1.31371
1.3775
1.44773
1.52602
1.61272
1.70422
1.79096
1.85978
1.89698
1.89133
1.83659
1.73313
1.58855
1.41687
1.23671
1.06779
0.923689
0.80985
0.739135
0.73038
0.787585
0.882085
0.974002
1.0245
1.00416
0.897687
0.704545
0.43611
0.110898
-0.250433
-0.629742
-0.62023
0
1.38567
3.5349
6.11097
8.47959
9.90829
9.88276
8.3686
5.85068
3.11394
0.892458
-0.415375
-0.827176
-0.648548
-0.443835
-0.261713
-0.11824
-0.0265846
0.00596771
-0.0214523
-0.103286
-0.228069
-0.379702
-0.539577
-0.689364
-0.815764
-0.915107
-0.989525
-1.04138
-1.07164
-1.08232
-1.07611
-1.05599
-1.02474
-0.984733
-0.937946
-0.886216
-0.831485
-0.776047
-0.722767
-0.674288
-0.632179
-0.596112
-0.563409
-0.529212
-0.487336
-0.431545
-0.356901
-0.261779
-0.146994
-0.0147926
0.131582
0.288221
0.451021
0.615989
0.779321
0.93717
1.08565
1.22123
1.34074
1.44155
1.52136
1.57517
1.59741
1.58568
1.53768
1.45217
1.33043
1.17734
1.00166
0.815106
0.63049
0.458966
0.305595
0.174056
0.0667576
-0.0160522
-0.0756928
-0.114399
-0.134613
-0.138275
-0.126217
-0.0977589
-0.0506405
0.0182934
0.11279
0.241188
0.432615
0.697605
0.981765
1.21484
1.33859
1.33003
1.20894
1.02684
0.843483
0.702225
0.6074
0.536008
0.476118
0.421804
0.368448
0.313157
0.254427
0.191483
0.123803
0.0513012
-0.0255304
-0.104938
-0.183684
-0.257398
-0.321456
-0.372094
-0.408882
-0.432666
-0.445695
-0.451538
-0.456315
-0.468366
-0.496557
-0.549193
-0.632898
-0.751662
-0.912338
-1.13978
-1.44498
-1.77037
-2.04612
-2.20679
-2.21209
-2.064
-1.80904
-1.52069
-1.26954
-1.09591
-0.966859
-0.855899
-0.752881
-0.652523
-0.477097
0
0.881176
2.3189
4.24567
6.28887
7.85829
8.39874
7.66454
5.8457
3.47926
1.21039
-0.455042
-1.29215
-1.36623
-1.09673
-0.863951
-0.661117
-0.494783
-0.365646
-0.259964
-0.170836
-0.0936036
-0.0237596
0.0426781
0.108702
0.176345
0.246669
0.319798
0.395082
0.471349
0.547323
0.622407
0.697406
0.775021
0.859928
0.958347
1.07716
1.22278
1.40005
1.61044
1.8529
2.12503
2.42305
2.74225
3.07763
3.42444
3.77837
4.13552
4.4922
4.84473
5.1893
5.52215
5.83987
6.13998
6.4213
6.68397
6.92792
7.1507
7.34777
7.51419
7.63839
7.70188
7.68729
7.58675
7.40618
7.16365
6.88336
6.58882
6.29795
6.01791
5.75232
5.50637
5.28711
5.09974
4.94819
4.83439
4.76661
4.74214
4.74685
4.76384
4.77723
4.77525
4.7517
4.70545
4.6386
4.55455
4.4584
4.35434
4.24475
4.13168
4.01752
3.90508
3.79744
3.6985
3.6119
3.54086
3.48776
3.45375
3.43844
3.43993
3.45495
3.47935
3.50852
3.53806
3.56415
3.58428
3.59769
3.60559
3.61107
3.61866
3.63342
3.66035
3.70557
3.77323
3.85919
3.94608
4.00969
4.02591
3.97655
3.85404
3.66417
3.42598
3.16829
2.92339
2.71446
2.54433
2.40723
2.30066
2.2227
2.16948
2.13225
2.09554
2.04265
1.95836
1.83119
1.65523
1.41458
1.10717
0.754856
0.380857
0
0.257215
1.18236
2.87253
5.18794
7.68662
9.71719
10.6545
10.1683
8.37806
5.80522
3.15516
1.04539
-0.190774
-0.55619
-0.223106
0.144865
0.480372
0.738904
0.887297
0.908445
0.800004
0.57543
0.270888
-0.0493469
-0.302943
-0.435836
-0.472098
-0.461947
-0.428364
-0.388729
-0.35698
-0.340256
-0.338014
-0.34385
-0.349124
-0.346785
-0.334917
-0.31593
-0.292365
-0.266219
-0.238605
-0.209046
-0.175253
-0.133412
-0.0789009
-0.00728321
0.0846863
0.198378
0.332854
0.48489
0.649503
0.820848
0.993351
1.16278
1.3273
1.48793
1.64835
1.81409
1.99195
2.19929
2.45433
2.72386
2.9531
3.08939
3.10621
3.01456
2.8566
2.68585
2.54483
2.44528
2.36518
2.29015
2.2101
2.11485
1.99575
1.8472
1.6678
1.45725
1.2172
0.969857
0.742648
0.559988
0.437217
0.377649
0.373665
0.411028
0.47433
0.551258
0.633101
0.716344
0.799504
0.88154
0.961374
1.03777
1.10935
1.17469
1.23237
1.28086
1.31814
1.34159
1.34894
1.33814
1.30751
1.25646
1.18599
1.09921
1.00142
0.899981
0.803792
0.722952
0.667062
0.644138
0.659407
0.726529
0.861975
1.05787
1.26926
1.4456
1.54662
1.5502
1.45459
1.27626
1.04466
0.795558
0.565101
0.374893
0.225169
0.109948
0.0291733
-0.00972557
-0.0145554
-0.00270462
0.00709686
0
-0.0175266
-0.0575581
-0.112047
-0.170485
-0.223975
-0.269402
-0.278534
0.0643505
1.03982
2.91916
5.56827
8.35757
10.3912
10.9467
9.85411
7.57429
4.93524
2.70963
1.2945
0.654338
0.504292
0.644061
0.774145
0.886647
0.965729
0.99578
0.966898
0.88028
0.750868
0.605364
0.475706
0.394292
0.413727
0.513041
0.635774
0.717614
0.716158
0.630119
0.500648
0.394285
0.373867
0.468035
0.624355
0.805884
0.995865
1.17895
1.34413
1.48635
1.60626
1.70873
1.80048
1.88792
1.97587
2.06685
2.16239
2.26343
2.37061
2.48427
2.60418
2.72922
2.85716
2.98499
3.10928
3.22683
3.33508
3.43235
3.51754
3.58954
3.6449
3.67773
3.682
3.65066
3.57755
3.45959
3.2986
3.10189
2.8815
2.65215
2.42825
2.21871
2.02936
1.86368
1.72279
1.60322
1.50013
1.40917
1.32796
1.25763
1.20143
1.16398
1.14917
1.16196
1.19873
1.25029
1.30484
1.35121
1.3816
1.39278
1.38556
1.36322
1.32953
1.28867
1.24339
1.19568
1.14767
1.10229
1.0633
1.03495
1.02249
1.03459
1.07872
1.14386
1.21219
1.26562
1.29313
1.29562
1.28552
1.28166
1.30146
1.35394
1.42862
1.52049
1.61847
1.70426
1.75905
1.76732
1.71975
1.61556
1.4631
1.27789
1.07837
0.881237
0.696242
0.524945
0.368953
0.232713
0.120086
0.0344022
-0.0200918
-0.0309206
0
0.0636643
0.105773
0.0937965
0.00919447
-0.146184
-0.399513
-0.605587
0.0678808
1.78804
4.31059
7.03117
9.20349
10.2255
9.85497
8.26773
5.94912
3.4916
1.39783
-0.0439285
-0.785681
-0.933585
-0.843727
-0.760287
-0.688492
-0.632128
-0.59157
-0.563568
-0.541737
-0.51773
-0.482856
-0.430224
-0.353535
-0.248397
-0.11833
0.0257488
0.167479
0.287157
0.367414
0.395525
0.365513
0.280093
0.151833
0.00232525
-0.141426
-0.252875
-0.316895
-0.325711
-0.278878
-0.182486
-0.0456687
0.122686
0.312841
0.517089
0.731354
0.953157
1.18027
1.41037
1.64103
1.86993
2.09484
2.31331
2.52192
2.71523
2.88627
3.0285
3.13506
3.20049
3.22258
3.20345
3.14931
3.06901
2.97171
2.86514
2.75431
2.64134
2.52697
2.41172
2.29663
2.18362
2.0756
1.97615
1.8889
1.81683
1.76169
1.72332
1.69895
1.68288
1.66802
1.6479
1.61831
1.57837
1.53082
1.48128
1.4367
1.40352
1.38693
1.38802
1.40326
1.426
1.44838
1.46345
1.46707
1.45927
1.44472
1.43216
1.43244
1.45578
1.5104
1.61535
1.77839
1.97106
2.15582
2.30127
2.39446
2.4438
2.47168
2.50095
2.54298
2.59152
2.63662
2.66728
2.67554
2.65859
2.61801
2.55724
2.4792
2.38778
2.28728
2.18103
2.07352
1.9712
1.88184
1.81777
1.80004
1.84063
1.92032
2.00708
2.06702
2.07453
2.0173
1.89485
1.71334
1.4803
1.17116
0.795986
0.371407
-0.106215
0
1.22883
3.73194
7.09353
10.3751
12.4868
12.7078
11.0545
8.26452
5.40071
3.31393
2.28956
2.05871
2.10038
1.94884
1.81293
1.68968
1.58433
1.50077
1.44143
1.40724
1.39788
1.41214
1.44825
1.50377
1.5761
1.66287
1.76119
1.86619
1.97014
2.06397
2.13886
2.18765
2.20614
2.19383
2.15412
2.09384
2.02224
1.94971
1.88551
1.83676
1.80944
1.80757
1.83321
1.88676
1.96754
2.07444
2.20647
2.36278
2.54184
2.74142
2.95868
3.19187
3.43758
3.6828
3.90953
4.10027
4.2419
4.32809
4.35929
4.34071
4.27941
4.18207
4.05767
3.91471
3.75887
3.59473
3.42719
3.26169
3.10346
2.9572
2.82696
2.71551
2.62407
2.5525
2.49923
2.46054
2.43103
2.40541
2.37951
2.35106
2.31988
2.2875
2.25618
2.22784
2.20334
2.181
2.15757
2.12979
2.09608
2.05784
2.01968
1.98845
1.9713
1.97282
1.99398
2.03637
2.09275
2.15215
2.20454
2.24431
2.27222
2.29514
2.32337
2.37006
2.4501
2.5519
2.64822
2.70796
2.70989
2.6519
2.55189
2.44033
2.34777
2.29261
2.26449
2.25023
2.24
2.2245
2.19781
2.15903
2.1119
2.06269
2.0173
1.97862
1.94526
1.91248
1.87381
1.82304
1.75558
1.66861
1.56037
1.42922
1.27534
1.09504
0.873681
0.60777
0.310186
-0.00252914
-0.316899
0
0.973792
2.73849
5.13681
7.69532
9.73109
10.6091
10.0273
8.1623
5.58396
2.99009
0.91852
-0.410165
-1.06821
-1.21025
-1.17498
-1.13173
-1.08008
-1.0204
-0.954129
-0.883493
-0.812802
-0.750633
-0.709391
-0.70208
-0.740327
-0.83127
-0.974721
-1.1616
-1.3744
-1.58978
-1.7827
-1.93645
-2.04942
-2.11899
-2.14391
-2.12727
-2.07578
-1.99861
-1.90591
-1.80764
-1.71156
-1.62265
-1.54455
-1.47873
-1.4247
-1.3802
-1.34168
-1.30477
-1.26502
-1.21855
-1.16264
-1.09594
-1.01869
-0.931944
-0.837041
-0.735343
-0.628004
-0.515679
-0.398721
-0.277514
-0.152378
-0.0232203
0.110774
0.249041
0.376298
0.451365
0.409734
0.190017
-0.228774
-0.802147
-1.4248
-1.96655
-2.32503
-2.5752
-2.73477
-2.81754
-2.84396
-2.83559
-2.81086
-2.78347
-2.75985
-2.74282
-2.73418
-2.73492
-2.74464
-2.76137
-2.78161
-2.80068
-2.81349
-2.81566
-2.80468
-2.78054
-2.74511
-2.70451
-2.66569
-2.63339
-2.6076
-2.58235
-2.54621
-2.48447
-2.38243
-2.2288
-2.02235
-1.76956
-1.47826
-1.15607
-0.811617
-0.453986
-0.0914957
0.263092
0.589529
0.866739
1.07708
1.20657
1.24843
1.20557
1.09109
0.926795
0.740193
0.560265
0.40962
0.295913
0.215486
0.161953
0.132921
0.120198
0.111411
0.0942629
0.0589375
0
-0.0883318
-0.195198
-0.311545
-0.426583
-0.530327
-0.617057
-0.685928
-0.736593
-0.37885
0.518566
1.93293
3.87563
6.1322
8.23861
9.62341
9.85905
8.87385
6.9817
4.71579
2.58363
0.895779
-0.253204
-0.886568
-0.712493
-0.518531
-0.322819
-0.144102
-0.00211143
0.0931633
0.158828
0.213022
0.273861
0.403766
0.669304
1.00134
1.27676
1.38895
1.29601
1.03275
0.69428
0.404637
0.274952
0.300483
0.395858
0.519473
0.656173
0.798447
0.941271
1.08223
1.22134
1.36028
1.50132
1.64617
1.79507
1.94653
2.09678
2.23938
2.36684
2.47381
2.55854
2.62419
2.67885
2.73433
2.80353
2.89724
3.021
3.18206
3.36776
3.55072
3.70166
3.7982
3.83015
3.79981
3.71802
3.59863
3.45383
3.29494
3.12859
2.95815
2.78598
2.6147
2.44771
2.28928
2.14471
2.01982
1.92189
1.86727
1.88487
1.98252
2.12499
2.26551
2.36163
2.38785
2.34039
2.23439
2.09791
1.96577
1.86956
1.82027
1.82922
1.91082
2.03127
2.14143
2.19808
2.18396
2.1158
2.0353
1.98762
1.99865
2.05108
2.12243
2.18938
2.23114
2.23606
2.20479
2.14941
2.08954
2.04682
2.03566
2.06112
2.14212
2.27548
2.42678
2.55422
2.62107
2.60528
2.50379
2.33132
2.1151
1.88773
1.67839
1.49854
1.34667
1.21911
1.11373
1.02899
0.961858
0.908032
0.862215
0.8185
0.770919
0.713978
0.643203
0.554696
0.444532
0.314371
0.168575
0
0.0364063
0.691801
2.19537
4.46889
7.03549
9.14927
10.1092
9.59308
7.81896
5.43381
3.19381
1.62136
0.829791
0.589918
0.544611
0.517577
0.498508
0.493057
0.50577
0.539404
0.594482
0.6692
0.759725
0.860869
0.966991
1.07303
1.17545
1.27231
1.3627
1.44635
1.52262
1.59071
1.64938
1.69677
1.73102
1.75109
1.75756
1.75321
1.74315
1.73449
1.73555
1.75495
1.80045
1.8779
1.99053
2.13868
2.32019
2.53118
2.76694
3.0217
3.2951
3.58988
3.89427
4.17528
4.39081
4.50574
4.51074
4.43079
4.31572
4.21656
4.16132
4.13609
4.11777
4.09505
4.05846
4.00075
3.91695
3.80389
3.6598
3.48707
3.29177
3.07856
2.85527
2.63261
2.42336
2.25031
2.15239
2.13105
2.1565
2.18561
2.18045
2.12325
2.02081
1.89801
1.78544
1.70797
1.66337
1.64273
1.64287
1.66297
1.70161
1.75327
1.80856
1.85764
1.89173
1.9048
1.89464
1.86321
1.81628
1.76244
1.71167
1.67195
1.64899
1.65196
1.69648
1.78995
1.91057
2.02729
2.11008
2.14038
2.11716
2.05606
1.98254
1.92229
1.89049
1.88211
1.8885
1.90413
1.9217
1.93323
1.93165
1.91203
1.87236
1.81361
1.73911
1.65347
1.56131
1.46644
1.37075
1.27449
1.17653
1.07462
0.965756
0.846595
0.714066
0.565948
0.40133
0.220487
0.0267894
-0.18057
-0.373139
0
1.1883
3.20152
5.75382
8.26515
10.0329
10.5029
9.51049
7.35808
4.68288
2.18764
0.374819
-0.589752
-0.842455
-0.584587
-0.337442
-0.101474
0.115052
0.304081
0.461567
0.583905
0.670594
0.724294
0.750213
0.754978
0.745327
0.727087
0.704629
0.68026
0.654934
0.628948
0.602474
0.576031
0.551042
0.531075
0.524372
0.541448
0.593812
0.690723
0.83507
1.02035
1.2305
1.44312
1.63544
1.79055
1.90725
1.98806
2.04225
2.08288
2.12352
2.17387
2.23856
2.32044
2.42095
2.53982
2.67509
2.82324
2.97996
3.13932
3.29285
3.43159
3.54726
3.6331
3.68431
3.69794
3.67246
3.60718
3.502
3.36039
3.18797
2.98991
2.77205
2.54215
2.30979
2.08548
1.87971
1.70186
1.55939
1.45789
1.40079
1.38961
1.42517
1.50621
1.6187
1.73052
1.80995
1.83209
1.78642
1.68236
1.54885
1.42568
1.34871
1.33462
1.35918
1.40721
1.46527
1.52164
1.56946
1.60766
1.63972
1.67123
1.70726
1.74927
1.7967
1.84847
1.90289
1.95775
2.01076
2.06042
2.1067
2.15128
2.19752
2.24975
2.31482
2.40319
2.50997
2.61392
2.68714
2.7068
2.66526
2.57301
2.45315
2.33051
2.22139
2.12447
2.03314
1.94299
1.85036
1.75201
1.64538
1.5285
1.3998
1.25817
1.10236
0.928001
0.72877
0.50561
0.271761
0.0415482
-0.176001
-0.374325
0
0.857235
2.42433
4.74789
7.50878
10.0042
11.4014
11.1442
9.25821
6.35948
3.36041
1.05857
-0.161248
-0.387876
-0.0769691
-0.0139591
0.0333984
0.0614246
0.0705029
0.0651901
0.0529526
0.0421108
0.0394608
0.0476868
0.0677311
0.100019
0.144154
0.199259
0.264364
0.338486
0.420522
0.508997
0.601933
0.696271
0.787074
0.867655
0.931636
0.974221
0.993676
0.992353
0.976871
0.957292
0.945416
0.952601
0.987133
1.05081
1.14164
1.25697
1.39399
1.54917
1.71852
1.89764
2.08172
2.26532
2.4404
2.59786
2.72907
2.82732
2.88908
2.91454
2.90698
2.87116
2.81144
2.7303
2.63048
2.51216
2.37442
2.21738
2.04306
1.8557
1.6615
1.46801
1.28276
1.11324
0.965306
0.842723
0.74688
0.676716
0.629001
0.59889
0.580681
0.56873
0.557995
0.544791
0.527052
0.504253
0.477008
0.446477
0.413762
0.37944
0.343464
0.305297
0.264327
0.220328
0.173806
0.126151
0.0795561
0.036796
0.000579834
-0.0265442
-0.0421202
-0.044249
-0.0317989
-0.0045332
0.0367319
0.0904028
0.154338
0.225964
0.302547
0.381562
0.460943
0.539496
0.617255
0.695701
0.777935
0.871294
0.997873
1.19883
1.45488
1.69346
1.82372
1.77449
1.523
1.10426
0.59991
0.112556
-0.265223
-0.544833
-0.768916
-0.934188
-1.04164
-1.0962
-1.10614
-1.08213
-1.03589
-0.978546
-0.919104
-0.862994
-0.811558
-0.763998
-0.718846
-0.675024
-0.508222
0
1.08124
2.85855
5.10377
7.24442
8.58618
8.64196
7.36709
5.16866
2.70419
0.600745
-0.762855
-1.33222
-1.30212
-1.21333
-1.13631
-1.0731
-1.02687
-0.997243
-0.980356
-0.969638
-0.957071
-0.934744
-0.896828
-0.835754
-0.744924
-0.630428
-0.511882
-0.411711
-0.349202
-0.336063
-0.374252
-0.455745
-0.563495
-0.673328
-0.757835
-0.796772
-0.780836
-0.711062
-0.597152
-0.451709
-0.28466
-0.105736
0.0764871
0.256209
0.430989
0.601615
0.771273
0.944233
1.12595
1.3234
1.53263
1.7285
1.8796
1.96184
1.97034
1.92457
1.86368
1.83282
1.86539
1.96289
2.108
2.26339
2.38642
2.44402
2.42213
2.32623
2.17417
1.98638
1.77932
1.56683
1.35682
1.15478
0.966701
0.799199
0.661724
0.570246
0.539104
0.556499
0.593598
0.619008
0.609522
0.557582
0.472608
0.375922
0.291625
0.237404
0.212729
0.207578
0.214459
0.229214
0.248231
0.268981
0.290129
0.311265
0.332472
0.353905
0.375557
0.397221
0.418579
0.439343
0.459406
0.478955
0.498486
0.518729
0.540496
0.564492
0.591151
0.620726
0.653064
0.688012
0.725755
0.767028
0.813026
0.864956
0.924676
0.99192
1.06112
1.12339
1.16836
1.18656
1.17149
1.12077
1.0364
0.924322
0.793634
0.65621
0.52207
0.399115
0.292636
0.204177
0.134455
0.0807112
0.0379045
0
-0.0481291
-0.101715
-0.163462
-0.234103
-0.312667
-0.396993
-0.489688
-0.358063
0.302883
1.79225
4.16753
7.06207
9.70986
11.2217
10.9953
9.03201
5.9648
2.76433
0.287497
-1.07379
-1.45933
-1.31134
-1.13489
-0.957513
-0.78263
-0.617049
-0.465597
-0.327408
-0.199609
-0.0768688
0.0478687
0.192175
0.394176
0.638391
0.863575
0.990392
0.961453
0.770475
0.46706
0.138065
-0.1241
-0.252983
-0.291972
-0.283106
-0.238528
-0.160646
-0.0523434
0.0824467
0.238516
0.411261
0.595824
0.786648
0.978168
1.16559
1.34538
1.51533
1.67433
1.82132
1.95497
2.07493
2.18132
2.27542
2.36031
2.44104
2.52397
2.6168
2.73074
2.87375
3.03611
3.19064
3.30704
3.36031
3.33518
3.22714
3.04189
2.79504
2.51152
2.22337
1.95856
1.72847
1.53163
1.36257
1.21986
1.09995
0.998354
0.91092
0.834743
0.768579
0.712634
0.667918
0.63522
0.61456
0.605276
0.605767
0.613804
0.626988
0.643128
0.660641
0.678543
0.696219
0.713136
0.72848
0.740786
0.748032
0.74848
0.74138
0.727861
0.711384
0.69743
0.69236
0.701785
0.729021
0.773452
0.832691
0.90284
0.979978
1.06143
1.14628
1.23497
1.32816
1.42577
1.5253
1.62079
1.70482
1.77061
1.81348
1.83107
1.82213
1.78362
1.71256
1.6057
1.46215
1.28624
1.08882
0.885999
0.695386
0.531435
0.396628
0.291774
0.212949
0.153681
0.107492
0.0698425
0.0389107
0.015147
0
-0.00865936
-0.00935631
0.00291328
0.323117
1.02787
2.30467
4.19478
6.44809
8.53019
9.80109
9.7938
8.4428
6.128
3.50646
1.22968
-0.294421
-0.980807
-0.898671
-0.669982
-0.452984
-0.263537
-0.111187
0.00247612
0.0854286
0.146799
0.196166
0.239338
0.277407
0.303802
0.308134
0.281888
0.223173
0.138462
0.040802
-0.0544056
-0.133911
-0.193516
-0.234628
-0.257559
-0.260713
-0.241759
-0.197302
-0.123091
-0.0147377
0.131233
0.315395
0.536244
0.788823
1.06462
1.35452
1.64264
1.91103
2.14501
2.33592
2.48249
2.59031
2.66963
2.73222
2.78842
2.84518
2.90514
2.96877
3.0355
3.10407
3.17283
3.23932
3.29917
3.34687
3.37565
3.37843
3.34915
3.2838
3.18086
3.04094
2.86614
2.65963
2.42967
2.18421
1.9302
1.67537
1.42945
1.20293
1.00527
0.843355
0.727329
0.657495
0.625794
0.621664
0.635497
0.661191
0.696856
0.743595
0.803069
0.875069
0.954866
1.03705
1.11511
1.18194
1.23159
1.26054
1.26802
1.25593
1.22826
1.19019
1.14703
1.10335
1.06246
1.0262
0.995882
0.973352
0.961484
0.9645
0.987733
1.03681
1.11644
1.22773
1.37416
1.56555
1.7909
2.01467
2.19955
2.31696
2.35393
2.31342
2.20879
2.0561
1.86914
1.66296
1.45069
1.24025
1.03841
0.85181
0.6861
0.545228
0.430183
0.339331
0.268967
0.214241
0.170161
0.132424
0.0978966
0.064727
0.0321297
0
-0.0252892
0.400014
1.42974
3.14171
5.38821
7.77612
9.75159
10.7762
10.531
9.05165
6.72158
4.11689
1.78444
0.0665924
-0.950733
-1.22692
-1.04001
-0.785701
-0.475188
-0.148663
0.135755
0.325978
0.440849
0.512783
0.554437
0.573441
0.578269
0.576769
0.575116
0.576899
0.583873
0.596934
0.616296
0.641637
0.672162
0.706737
0.743483
0.77936
0.81124
0.837382
0.85879
0.87994
0.908355
0.952871
1.02109
1.11691
1.23752
1.37731
1.52942
1.6871
1.84561
2.00315
2.16048
2.31942
2.48092
2.64354
2.80273
2.95114
3.08024
3.18228
3.25191
3.28689
3.28791
3.25763
3.19955
3.11748
3.01611
2.89935
2.77031
2.63208
2.48808
2.34201
2.19734
2.0568
1.92199
1.79313
1.66935
1.54918
1.43141
1.31586
1.20389
1.09879
1.0051
0.928
0.872177
0.840897
0.835258
0.853871
0.893856
0.950461
1.0161
1.08121
1.13653
1.17446
1.19005
1.18149
1.15019
1.1003
1.03783
0.969464
0.90149
0.838582
0.783635
0.738622
0.705778
0.688017
0.688224
0.708516
0.750118
0.812596
0.893336
0.988912
1.09162
1.19309
1.286
1.36538
1.42893
1.47642
1.50804
1.52334
1.52147
1.50104
1.46138
1.40377
1.33201
1.25184
1.16958
1.09051
1.01676
0.948299
0.884188
0.822408
0.760348
0.695254
0.624605
0.545991
0.456649
0.354719
0.242179
0.122571
0
-0.119934
0.267013
1.26752
3.02795
5.42963
7.99679
10.0133
10.8283
10.1749
8.29852
5.81486
3.40154
1.52383
0.336715
-0.242517
-0.237496
-0.17
-0.0924507
-0.00579681
0.0882534
0.18746
0.288916
0.389525
0.485775
0.57391
0.65072
0.714263
0.764502
0.803447
0.834614
0.861885
0.888122
0.914035
0.937192
0.952811
0.955766
0.942902
0.914768
0.876122
0.835172
0.801962
0.786428
0.794053
0.827299
0.889529
0.98357
1.11059
1.26926
1.45625
1.66569
1.89026
2.12
2.3445
2.55473
2.74414
2.90921
3.04919
3.16329
3.25293
3.32068
3.36875
3.39895
3.41304
3.41285
3.4002
3.37657
3.34272
3.29927
3.2459
3.18136
3.10404
3.01216
2.90378
2.77712
2.63149
2.4674
2.28661
2.09055
1.8868
1.69066
1.51898
1.38627
1.30134
1.26556
1.27301
1.31249
1.37038
1.43342
1.49151
1.53946
1.57416
1.5931
1.59464
1.57766
1.54139
1.48538
1.40976
1.31171
1.18916
1.05099
0.917357
0.810797
0.750108
0.744865
0.792693
0.880292
0.987592
1.09337
1.1817
1.2484
1.29486
1.32265
1.33236
1.32493
1.30165
1.264
1.2137
1.1527
1.08321
1.00782
0.929304
0.850487
0.773945
0.701785
0.635432
0.575478
0.521679
0.473192
0.427896
0.382777
0.335083
0.283166
0.227055
0.168414
0.109784
0.0533287
0
-0.0719486
-0.150989
-0.244571
-0.357597
-0.489854
-0.639351
-0.996852
-0.778503
0.313756
2.27868
4.73332
6.99152
8.31432
8.2289
6.75277
4.38746
1.87743
-0.128082
-1.32036
-1.76193
-1.72138
-1.64741
-1.58636
-1.54217
-1.52048
-1.52424
-1.55368
-1.6067
-1.67957
-1.76768
-1.86618
-1.97003
-2.07458
-2.175
-2.26503
-2.33801
-2.38783
-2.40986
-2.40238
-2.36751
-2.31136
-2.24289
-2.1719
-2.10658
-2.05048
-2.00351
-1.9622
-1.9206
-1.87184
-1.80996
-1.73233
-1.63901
-1.53163
-1.41326
-1.2878
-1.15898
-1.02954
-0.900719
-0.77213
-0.642078
-0.508189
-0.368188
-0.22066
-0.0653809
0.0965866
0.261236
0.419664
0.559175
0.667079
0.732198
0.746355
0.705368
0.609672
0.464763
0.281551
0.0763374
-0.130154
-0.315246
-0.458352
-0.545783
-0.574573
-0.553548
-0.500597
-0.436783
-0.379498
-0.336193
-0.30482
-0.280827
-0.257957
-0.230978
-0.198042
-0.160147
-0.11883
-0.0758934
-0.0329529
0.00895767
0.0494835
0.0888153
0.127494
0.166359
0.206608
0.250021
0.299194
0.359338
0.45074
0.643917
0.990601
1.39688
1.71565
1.8234
1.6787
1.33509
0.912106
0.549953
0.368034
0.34683
0.398821
0.486617
0.598224
0.72828
0.871697
1.0233
1.176
1.31968
1.44383
1.53887
1.59734
1.61483
1.59017
1.525
1.42301
1.28939
1.13197
0.959962
0.781971
0.60619
0.440511
0.292425
0.171669
0.0875885
0.0364296
0
-0.0451088
-0.121095
-0.242309
-0.411441
-0.619099
-0.846778
-1.05414
-0.51297
0.94586
3.27368
6.04851
8.57332
10.1311
10.2778
9.02654
6.82756
4.35554
2.21618
0.727047
-0.127279
-0.56922
-0.65519
-0.699291
-0.710265
-0.683101
-0.620869
-0.533797
-0.436235
-0.342307
-0.261718
-0.195857
-0.141731
-0.0929588
-0.0429459
0.0123161
0.0664619
0.105386
0.114166
0.0848312
0.0212578
-0.0606758
-0.13728
-0.183527
-0.185298
-0.146264
-0.0719185
0.0348854
0.171395
0.333474
0.516471
0.715974
0.928371
1.15096
1.38154
1.61781
1.85669
2.0929
2.31674
2.51743
2.6854
2.81541
2.90888
2.97436
3.02614
3.08127
3.16923
3.35225
3.67652
4.06401
4.41077
4.64095
4.69999
4.55815
4.22648
3.76817
3.29108
2.92099
2.69912
2.55454
2.44187
2.34629
2.26356
2.1913
2.12886
2.07761
2.04045
2.02145
2.02483
2.05408
2.11732
2.22956
2.40138
2.60419
2.79069
2.91485
2.94651
2.88259
2.74923
2.59251
2.46064
2.38537
2.355
2.34732
2.35203
2.36334
2.37741
2.39327
2.41281
2.43992
2.4791
2.53415
2.6061
2.69388
2.79594
2.91073
3.03681
3.17341
3.32084
3.47974
3.64698
3.80869
3.94249
4.02313
4.0296
3.95125
3.7909
3.56392
3.29444
3.01093
2.74003
2.49376
2.27519
2.08765
1.93786
1.83295
1.77314
1.74223
1.71724
1.67439
1.59422
1.46547
1.27844
1.02273
0.729259
0.442011
0.194205
0
0.0303352
0.692081
1.94689
3.87275
6.3173
8.83331
10.7714
11.5224
10.7992
8.79747
6.13192
3.57317
1.72509
0.814368
0.681255
0.805092
0.887644
0.960973
1.02448
1.07831
1.12253
1.15853
1.18819
1.21419
1.23996
1.2696
1.30725
1.35622
1.418
1.49135
1.57239
1.65656
1.73829
1.8124
1.87513
1.92484
1.96226
1.99025
2.01328
2.03672
2.06621
2.10692
2.16287
2.23724
2.3326
2.45042
2.59082
2.7526
2.93324
3.12928
3.33678
3.55183
3.77098
3.99148
4.21127
4.42891
4.64325
4.85329
5.05793
5.25553
5.44255
5.61122
5.74964
5.845
5.88199
5.84713
5.73428
5.54888
5.30866
5.04012
4.77194
4.5245
4.30085
4.10062
3.92508
3.77353
3.64412
3.53469
3.4434
3.36904
3.31087
3.26892
3.24387
3.23297
3.22753
3.21679
3.19028
3.1406
3.0654
2.96809
2.85688
2.7428
2.63673
2.54476
2.4709
2.41811
2.38723
2.37718
2.38538
2.40814
2.44102
2.47892
2.51613
2.54463
2.55625
2.54387
2.50352
2.43642
2.35038
2.25951
2.18213
2.13705
2.17822
2.34639
2.5912
2.83355
3.00247
3.06147
3.01399
2.89064
2.72936
2.55962
2.39551
2.23806
2.08606
1.93919
1.79798
1.66364
1.53784
1.42249
1.31921
1.22878
1.15107
1.08398
1.02152
0.955386
0.876885
0.779003
0.658085
0.514713
0.352139
0
0.0137711
0.799445
2.55492
5.10754
7.85416
9.94835
10.6654
9.74686
7.52175
4.73778
2.21492
0.516843
-0.201263
-0.134992
0.184672
0.421638
0.590214
0.676582
0.684554
0.634192
0.554776
0.474846
0.413778
0.371815
0.343008
0.324415
0.314357
0.311479
0.314887
0.323972
0.338054
0.356158
0.376998
0.399222
0.421858
0.444805
0.469209
0.497591
0.533654
0.58205
0.647056
0.731731
0.836977
0.961454
1.10221
1.25164
1.4016
1.54548
1.67979
1.80472
1.92335
2.03998
2.15824
2.27945
2.40233
2.52433
2.64226
2.753
2.85417
2.94443
3.02341
3.09133
3.14842
3.19453
3.22868
3.24896
3.25312
3.23897
3.20513
3.15166
3.0805
2.99548
2.90194
2.80597
2.71343
2.6289
2.55521
2.49312
2.44158
2.39824
2.3603
2.32536
2.29202
2.26016
2.23084
2.20585
2.18723
2.17663
2.1737
2.17648
2.18181
2.18607
2.18598
2.17916
2.16447
2.14191
2.11251
2.07838
2.04174
2.00481
1.96978
1.93869
1.91328
1.89479
1.88402
1.88136
1.88681
1.89997
1.92036
1.94666
1.97659
2.0073
2.03567
2.05861
2.07349
2.07841
2.07226
2.05473
2.02652
1.98888
1.94293
1.88992
1.83116
1.76808
1.7021
1.63457
1.56665
1.49918
1.43233
1.36537
1.29647
1.22276
1.14057
1.046
0.935647
0.807258
0.65959
0.49411
0.312727
0
0.034831
0.86343
2.67511
5.29371
8.14612
10.4296
11.4164
10.7558
8.63158
5.69585
2.81108
0.715371
-0.244313
-0.19816
0.138239
0.266462
0.343826
0.370775
0.358093
0.323314
0.284783
0.25639
0.240438
0.234895
0.239191
0.252572
0.27387
0.301663
0.334348
0.370209
0.407428
0.444299
0.479399
0.511718
0.540716
0.566327
0.588933
0.609584
0.630136
0.653459
0.683564
0.725377
0.784203
0.864835
0.970532
1.10213
1.25756
1.43193
1.61824
1.80839
1.99466
2.17074
2.33209
2.47617
2.60233
2.71148
2.80545
2.88625
2.95536
3.01294
3.05686
3.08332
3.08799
3.06622
3.01431
2.93077
2.81703
2.67752
2.519
2.34945
2.177
2.00763
1.84571
1.69411
1.55423
1.42628
1.30967
1.20356
1.10737
1.02117
0.945838
0.882921
0.834232
0.80196
0.788817
0.794965
0.813348
0.833442
0.8445
0.838679
0.813467
0.772526
0.724631
0.681095
0.652536
0.643232
0.651979
0.677837
0.717255
0.764644
0.813675
0.858002
0.892468
0.914587
0.925013
0.927618
0.928932
0.936854
0.958789
0.999617
1.06182
1.14185
1.22922
1.31102
1.37553
1.41525
1.42818
1.41721
1.38807
1.3469
1.29924
1.24784
1.19342
1.13575
1.07429
1.00881
0.939748
0.868458
0.797044
0.728123
0.664026
0.606027
0.553731
0.504937
0.455715
0.401419
0.337482
0.261022
0.172545
0.0661373
0
0.564358
1.91497
3.94602
6.26661
8.29133
9.42508
9.28798
7.8853
5.62811
3.17248
1.14704
-0.0914169
-0.54998
-0.495218
-0.409566
-0.317534
-0.214574
-0.0969985
0.036947
67
209
351
493
634
775
915
1056
1197
1337
1478
1618
1758
1897
2038
2179
2322
2464
2607
2748
2889
3031
3174
3315
3456
3596
3736
0
0
0
0
0
0
0
0
0
0
0
0
0
0
0
0
0
0
0
0
0
0
0
0
0
0
0
0
0
0
0
0
0
0
0
0
0
0
0
0
0
0
0
0
0
0
0
0
0
0
0
0
0
0
0
0
0
0
0
0
0
0
0
0
0
0
0
0
0
0
0
0
0
0
0
0
0
0
0
0
0
0
0
0
0
0
0
0
0
0
0
0
0
0
0
0
0
0
0
0
0
0
0
0
0
0
0
0
0
0
0
0
0
0
0
0
0
0
0
0
0
0
0
0
0
0
0
0
0
0
0
0
0
0
0
0
0
0
0
0
0
0
0
0
0
0
0
0
0
0
0
0
0
0
0
0
0
0
0
0
0
0
0
0
0
0
0
0
0
0
0
0
0
0
0
0
0
0
0
0
0
0
0
0
0
0
0
0
0
0
0
0
0
0
0
0
0
0
0
0
0
0
0
0
0
0
0
0
0
0
0
0
0
0
0
0
0
0
0
0
0
0
0
0
0
0
0
0
0
0
0
0
0
0
0
0
0
0
0
0
0
0
0
0
0
0
0
0
0
0
0
0
0
0
0
0
0
0
0
0
0
0
0
0
0
0
0
0
0
0
0
0
0
0
0
0
0
0
0
0
0
0
0
0
0
0
0
0
0
0
0
0
0
0
0
0
0
0
0
0
0
0
0
0
0
0
0
0
0
0
0
0
0
0
0
0
0
0
0
0
0
0
0
0
0
0
0
0
0
0
0
0
0
0
0
0
0
0
0
0
0
0
0
0
0
0
0
0
0
0
0
0
0
0
0
0
0
0
0
0
0
0
0
0
0
0
0
0
0
0
0
0
0
0
0
0
0
0
0
0
0
0
0
0
0
0
0
0
0
0
0
0
0
0
0
0
0
0
0
0
0
0
0
0
0
0
0
0
0
0
0
0
0
0
0
0
0
0
0
0
0
0
0
0
0
0
0
0
0
0
0
0
0
0
0
0
0
0
0
0
0
0
0
0
0
0
0
0
0
0
0
0
0
0
0
0
0
0
0
0
0
0
0
0
0
0
0
0
0
0
0
0
0
0
0
0
0
0
0
0
0
0
0
0
0
0
0
0
0
0
0
0
0
0
0
0
0
0
0
0
0
0
0
0
0
0
0
0
0
0
0
0
0
0
0
0
0
0
0
0
0
0
0
0
0
0
0
0
0
0
0
0
0
0
0
0
0
0
0
0
0
0
0
0
0
0
0
0
0
0
0
0
0
0
0
0
0
0
0
0
0
0
0
0
0
0
0
0
0
0
0
0
0
0
0
0
0
0
0
0
0
0
0
0
0
0
0
0
0
0
0
0
0
0
0
0
0
0
0
0
0
0
0
0
0
0
0
0
0
0
0
0
0
0
0
0
0
0
0
0
0
0
0
0
0
0
0
0
0
0
0
0
0
0
0
0
0
0
0
0
0
0
0
0
0
0
0
0
0
0
0
0
0
0
0
0
0
0
0
0
0
0
0
0
0
0
0
0
0
0
0
0
0
0
0
0
0
0
0
0
0
0
0
0
0
0
0
0
0
0
0
0
0
0
0
0
0
0
0
0
0
0
0
0
0
0
0
0
0
0
0
0
0
0
0
0
0
0
0
0
0
0
0
0
0
0
0
0
0
0
0
0
0
0
0
0
0
0
0
0
0
0
0
0
0
0
0
0
0
0
0
0
0
0
0
0
0
0
0
0
0
0
0
0
0
0
0
0
0
0
0
0
0
0
0
0
0
0
0
0
0
0
0
0
0
0
0
0
0
0
0
0
0
0
0
0
0
0
0
0
0
0
0
0
0
0
0
0
0
0
0
0
0
0
0
0
0
0
0
0
0
0
0
0
0
0
0
0
0
0
0
0
0
0
0
0
0
0
0
0
0
0
0
0
0
0
0
0
0
0
0
0
0
0
0
0
0
0
0
0
0
0
0
0
0
0
0
0
0
0
0
0
0
0
0
0
0
0
0
0
0
0
0
0
0
0
0
0
0
0
0
0
0
0
0
0
0
0
0
0
0
0
0
0
0
0
0
0
0
0
0
0
0
0
0
0
0
0
0
0
0
0
0
0
0
0
0
0
0
0
0
0
0
0
0
0
0
0
0
0
0
0
0
0
0
0
0
0
0
0
0
0
0
0
0
0
0
0
0
0
0
0
0
0
0
0
0
0
0
0
0
0
0
0
0
0
0
0
0
0
0
0
0
0
0
0
0
0
0
0
0
0
0
0
0
0
0
0
0
0
0
0
0
0
0
0
0
0
0
0
0
0
0
0
0
0
0
0
0
0
0
0
0
0
0
0
0
0
0
0
0
0
0
0
0
0
0
0
0
0
0
0
0
0
0
0
0
0
0
0
0
0
0
0
0
0
0
0
0
0
0
0
0
0
0
0
0
0
0
0
0
0
0
0
0
0
0
0
0
0
0
0
0
0
0
0
0
0
0
0
0
0
0
0
0
0
0
0
0
0
0
0
0
0
0
0
0
0
0
0
0
0
0
0
0
0
0
0
0
0
0
0
0
0
0
0
0
0
0
0
0
0
0
0
0
0
0
0
0
0
0
0
0
0
0
0
0
0
0
0
0
0
0
0
0
0
0
0
0
0
0
0
0
0
0
0
0
0
0
0
0
0
0
0
0
0
0
0
0
0
0
0
0
0
0
0
0
0
0
0
0
0
0
0
0
0
0
0
0
0
0
0
0
0
0
0
0
0
0
0
0
0
0
0
0
0
0
0
0
0
0
0
0
0
0
0
0
0
0
0
0
0
0
0
0
0
0
0
0
0
0
0
0
0
0
0
0
0
0
0
0
0
0
0
0
0
0
0
0
0
0
0
0
0
0
0
0
0
0
0
0
0
0
0
0
0
0
0
0
0
0
0
0
0
0
0
0
0
0
0
0
0
0
0
0
0
0
0
0
0
0
0
0
0
0
0
0
0
0
0
0
0
0
0
0
0
0
0
0
0
0
0
0
0
0
0
0
0
0
0
0
0
0
0
0
0
0
0
0
0
0
0
0
0
0
0
0
0
0
0
0
0
0
0
0
0
0
0
0
0
0
0
0
0
0
0
0
0
0
0
0
0
0
0
0
0
0
0
0
0
0
0
0
0
0
0
0
0
0
0
0
0
0
0
0
0
0
0
0
0
0
0
0
0
0
0
0
0
0
0
0
0
0
0
0
0
0
0
0
0
0
0
0
0
0
0
0
0
0
0
0
0
0
0
0
0
0
0
0
0
0
0
0
0
0
0
0
0
0
0
0
0
0
0
0
0
0
0
0
0
0
0
0
0
0
0
0
0
0
0
0
0
0
0
0
0
0
0
0
0
0
0
0
0
0
0
0
0
0
0
0
0
0
0
0
0
0
0
0
0
0
0
0
0
0
0
0
0
0
0
0
0
0
0
0
0
0
0
0
0
0
0
0
0
0
0
0
0
0
0
0
0
0
0
0
0
0
0
0
0
0
0
0
0
0
0
0
0
0
0
0
0
0
0
0
0
0
0
0
0
0
0
0
0
0
0
0
0
0
0
0
0
0
0
0
0
0
0
0
0
0
0
0
0
0
0
0
0
0
0
0
0
0
0
0
0
0
0
0
0
0
0
0
0
0
0
0
0
0
0
0
0
0
0
0
0
0
0
0
0
0
0
0
0
0
0
0
0
0
0
0
0
0
0
0
0
0
0
0
0
0
0
0
0
0
0
0
0
0
0
0
0
0
0
0
0
0
0
0
0
0
0
0
0
0
0
0
0
0
0
0
0
0
0
0
0
0
0
0
0
0
0
0
0
0
0
0
0
0
0
0
0
0
0
0
0
0
0
0
0
0
0
0
0
0
0
0
0
0
0
0
0
0
0
0
0
0
0
0
0
0
0
0
0
0
0
0
0
0
0
0
0
0
0
0
0
0
0
0
0
0
0
0
0
0
0
0
0
0
0
0
0
0
0
0
0
0
0
0
0
0
0
0
0
0
0
0
0
0
0
0
0
0
0
0
0
0
0
0
0
0
0
0
0
0
0
0
0
0
0
0
0
0
0
0
0
0
0
0
0
0
0
0
0
0
0
0
0
0
0
0
0
0
0
0
0
0
0
0
0
0
0
0
0
0
0
0
0
0
0
0
0
0
0
0
0
0
0
0
0
0
0
0
0
0
0
0
0
0
0
0
0
0
0
0
0
0
0
0
0
0
0
0
0
0
0
0
0
0
0
0
0
0
0
0
0
0
0
0
0
0
0
0
0
0
0
0
0
0
0
0
0
0
0
0
0
0
0
0
0
0
0
0
0
0
0
0
0
0
0
0
0
0
0
0
0
0
0
0
0
0
0
0
0
0
0
0
0
0
0
0
0
0
0
0
0
0
0
0
0
0
0
0
0
0
0
0
0
0
0
0
0
0
0
0
0
0
0
0
0
0
0
0
0
0
0
0
0
0
0
0
0
0
0
0
0
0
0
0
0
0
0
0
0
0
0
0
0
0
0
0
0
0
0
0
0
0
0
0
0
0
0
0
0
0
0
0
0
0
0
0
0
0
0
0
0
0
0
0
0
0
0
0
0
0
0
0
0
0
0
0
0
0
0
0
0
0
0
0
0
0
0
0
0
0
0
0
0
0
0
0
0
0
0
0
0
0
0
0
0
0
0
0
0
0
0
0
0
0
0
0
0
0
0
0
0
0
0
0
0
0
0
0
0
0
0
0
0
0
0
0
0
0
0
0
0
0
0
0
0
0
0
0
0
0
0
0
0
0
0
0
0
0
0
0
0
0
0
0
0
0
0
0
0
0
0
0
0
0
0
0
0
0
0
0
0
0
0
0
0
0
0
0
0
0
0
0
0
0
0
0
0
0
0
0
0
0
0
0
0
0
0
0
0
0
0
0
0
0
0
0
0
0
0
0
0
0
0
0
0
0
0
0
0
0
0
0
0
0
0
0
0
0
0
0
0
0
0
0
0
0
0
0
0
0
0
0
0
0
0
0
0
0
0
0
0
0
0
0
0
0
0
0
0
0
0
0
0
0
0
0
0
0
0
0
0
0
0
0
0
0
0
0
0
0
0
0
0
0
0
0
0
0
0
0
0
0
0
0
0
0
0
0
0
0
0
0
0
0
0
0
0
0
0
0
0
0
0
0
0
0
0
0
0
0
0
0
0
0
0
0
0
0
0
0
0
0
0
0
0
0
0
0
0
0
0
0
0
0
0
0
0
0
0
0
0
0
0
0
0
0
0
0
0
0
0
0
0
0
0
0
0
0
0
0
0
0
0
0
0
0
0
0
0
0
0
0
0
0
0
0
0
0
0
0
0
0
0
0
0
0
0
0
0
0
0
0
0
0
0
0
0
0
0
0
0
0
0
0
0
0
0
0
0
0
0
0
0
0
0
0
0
0
0
0
0
0
0
0
0
0
0
0
0
0
0
0
0
0
0
0
0
0
0
0
0
0
0
0
0
0
0
0
0
0
0
0
0
0
0
0
0
0
0
0
0
0
0
0
0
0
0
0
0
0
0
0
0
0
0
0
0
0
0
0
0
0
0
0
0
0
0
0
0
0
0
0
0
0
0
0
0
0
0
0
0
0
0
0
0
0
0
0
0
0
0
0
0
0
0
0
0
0
0
0
0
0
0
0
0
0
0
0
0
0
0
0
0
0
0
0
0
0
0
0
0
0
0
0
0
0
0
0
0
0
0
0
0
0
0
0
0
0
0
0
0
0
0
0
0
0
0
0
0
0
0
0
0
0
0
0
0
0
0
0
0
0
0
0
0
0
0
0
0
0
0
0
0
0
0
0
0
0
0
0
0
0
0
0
0
0
0
0
0
0
0
0
0
0
0
0
0
0
0
0
0
0
0
0
0
0
0
0
0
0
0
0
0
0
0
0
0
0
0
0
0
0
0
0
0
0
0
0
0
0
0
0
0
0
0
0
0
0
0
0
0
0
0
0
0
0
0
0
0
0
0
0
0
0
0
0
0
0
0
0
0
0
0
0
0
0
0
0
0
0
0
0
0
0
0
0
0
0
0
0
0
0
0
0
0
0
0
0
0
0
0
0
0
0
0
0
0
0
0
0
0
0
0
0
0
0
0
0
0
0
0
0
0
0
0
0
0
0
0
0
0
0
0
0
0
0
0
0
0
0
0
0
0
0
0
0
0
0
0
0
0
0
0
0
0
0
0
0
0
0
0
0
0
0
0
0
0
0
0
0
0
0
0
0
0
0
0
0
0
0
0
0
0
0
0
0
0
0
0
0
0
0
0
0
0
0
0
0
0
0
0
0
0
0
0
0
0
0
0
0
0
0
0
0
0
0
0
0
0
0
0
0
0
0
0
0
0
0
0
0
0
0
0
0
0
0
0
0
0
0
0
0
0
0
0
0
0
0
0
0
0
0
0
0
0
0
0
0
0
0
0
0
0
0
0
0
0
0
0
0
0
0
0
0
0
0
0
0
0
0
0
0
0
0
0
0
0
0
0
0
0
0
0
0
0
0
0
0
0
0
0
0
0
0
0
0
0
0
0
0
0
0
0
0
0
0
0
0
0
0
0
0
0
0
0
0
0
0
0
0
0
0
0
0
0
0
0
0
0
0
0
0
0
0
0
0
0
0
0
0
0
0
0
0
0
0
0
0
0
0
0
0
0
0
0
0
0
0
0
0
0
0
0
0
0
0
0
0
0
0
0
0
0
0
0
0
0
0
0
0
0
0
0
0
0
0
0
0
0
0
0
0
0
0
0
0
0
0
0
0
0
0
0
0
0
0
0
0
0
0
0
0
0
0
0
0
0
0
0
0
0
0
0
0
0
0
0
0
0
0
0
0
0
0
0
0
0
0
0
0
0
0
0
0
0
0
0
0
0
0
0
0
0
0
0
0
0
0
0
0
0
0
0
0
0
0
0
0
0
0
0
0
0
0
0
0
0
0
0
0
0
0
0
0
0
0
0
0
0
0
0
0
0
0
0
0
0
0
0
0
0
0
0
0
0
0
0
0
0
0
0
0
0
0
0
0
0
0
0
0
0
0
0
0
0
0
0
0
0
0
0
0
0
0
0
0
0
0
0
0
0
0
0
0
0
0
0
0
0
0
0
0
0
0
0
0
0
0
0
0
0
0
0
0
0
0
0
0
0
0
0
0
0
0
0
0
0
0
0
0
0
0
0
0
0
0
0
0
0
0
0
0
0
0
0
0
0
0
0
0
0
0
0
0
0
0
0
0
0
0
0
0
0
0
0
0
0
0
0
0
0
0
0
0
0
0
0
0
0
0
0
0
0
0
0
0
0
0
0
0
0
0
0
0
0
0
0
0
0
0
0
0
0
0
0
0
0
0
0
0
0
0
0
0
0
0
0
0
0
0
0
0
0
0
0
0
0
0
0
0
0
0
0
0
0
0
0
0
0
0
0
0
0
0
0
0
0
0
0
0
0
0
0
0
0
0
0
0
0
0
0
0
0
0
0
0
0
0
0
0
0
0
0
0
0
0
0
0
0
0
0
0
0
0
0
0
0
0
0
0
0
0
0
0
0
0
0
0
0
0
0
0
0
0
0
0
0
0
0
0
0
0
0
0
0
0
0
0
0
0
0
0
0
0
0
0
0
0
0
0
0
0
0
0
0
0
0
0
0
0
0
0
0
0
0
0
0
0
0
0
0
0
0
0
0
0
0
0
0
0
0
0
0
0
0
0
0
0
0
0
0
0
0
0
0
0
0
0
0
0
0
0
0
0
0
0
0
0
0
0
0
0
0
0
0
0
0
0
0
0
0
0
0
0
0
0
0
0
0
0
0
0
0
0
0
0
0
0
0
0
0
0
0
0
0
0
0
0
0
0
0
0
0
0
0
0
0
0
0
0
0
0
0
0
0
0
0
0
0
0
0
0
0
0
0
0
0
0
0
0
0
0
0
0
0
0
0
0
0
0
0
0
0
0
0
0
0
0
0
0
0
0
0
0
0
0
0
0
0
0
0
0
0
0
0
0
0
0
0
0
0
0
0
0
0
0
0
0
0
0
0
0
0
0
0
0
0
0
0
0
0
0
0
0
0
0
0
0
0
0
0
0
0
0
0
0
0
0
0
0
0
0
0
0
0
0
0
0
0
0
0
0
0
0
0
0
0
0
0
0
0
0
0
0
0
0
0
0
0
0
0
0
0
0
0
0
0
0
0
0
0
0
0
0
0
0
0
0
0
0
0
0
0
0
0
0
0
0
0
0
0
0
0
0
0
0
0
0
0
0
0
0
0
0
0
0
0
0
0
0
0
0
0
0
0
0
0
0
0
0
0
0
0
0
0
0
0
0
0
0
0
0
0
0
0
0
0
0
0
0
0
0
0
0
0
0
0
0
0
0
0
0
0
0
0
0
0
0
0
0
0
0
0
0
0
0
0
0
0
0
0
