0.170085
0
-0.324013
-0.322271
0.40577
2.05572
4.3437
6.47775
7.54318
7.02677
5.08681
2.42018
-0.111107
-1.84846
-2.5594
-2.3956
-2.03635
-1.69121
-1.39679
-1.1098
-0.821002
-0.566778
-0.349806
-0.169712
-0.0212288
0.104529
0.213512
0.309606
0.397207
0.480867
0.564715
0.652126
0.746173
0.848156
0.947775
1.02479
1.05678
1.029
0.943785
0.824125
0.708793
0.640016
0.648904
0.719519
0.833822
0.981487
1.14811
1.31802
1.47273
1.59739
1.68287
1.72658
1.73241
1.70996
1.67296
1.63693
1.61658
1.62144
1.65235
1.70796
1.78704
1.88759
2.00654
2.14015
2.28457
2.43635
2.59277
2.75204
2.91339
3.07681
3.24289
3.4125
3.58597
3.75923
3.92025
4.05166
4.13491
4.15575
4.10943
4.00408
3.86079
3.70941
3.58009
3.48817
3.44236
3.42357
3.39806
3.33234
3.20876
3.03396
2.83646
2.65466
2.52082
2.43107
2.38385
2.36466
2.35227
2.32543
2.26925
2.17936
2.06276
1.93533
1.81714
1.72626
1.66947
1.64876
1.66568
1.71771
1.79875
1.89923
2.00914
2.11784
2.21566
2.29517
2.35197
2.38485
2.3952
2.38614
2.36146
2.32519
2.28155
2.23364
2.1844
2.13685
2.09397
2.05847
2.03208
2.01574
2.00967
2.0131
2.02457
2.04185
2.06189
2.08206
2.1008
2.11796
2.13462
2.15247
2.17278
2.19573
2.21838
2.23443
2.23637
2.21829
2.17861
2.12152
2.0565
1.996
1.95208
1.93286
1.93692
1.96222
2.00581
2.06332
2.12956
2.19963
2.26898
2.33246
2.38573
2.42583
2.45211
2.46704
2.47649
2.48919
2.51539
2.56784
2.68573
2.91561
3.2186
3.51494
3.7257
3.80072
3.72895
3.53234
3.25567
2.9587
2.70091
2.49575
2.32259
2.16352
2.01061
1.86208
1.71904
1.58493
1.46491
1.37072
1.3103
1.26907
1.22046
1.13474
0.989944
0.779545
0.513606
0.128357
0
0.519204
1.97418
4.34073
7.02882
9.03053
9.46761
8.11327
5.48241
2.47557
-0.0915024
-1.7645
-2.48532
-2.35639
-2.01347
-1.50388
-0.885818
-0.201661
0.347283
0.646954
0.820245
0.9186
0.956252
0.957661
0.950359
0.956767
0.985094
1.02903
1.08246
1.13903
1.19165
1.23387
1.26084
1.26986
1.26046
1.23404
1.1935
1.1429
1.08687
1.03045
0.97952
0.940031
0.917604
0.916891
0.940913
0.990492
1.06398
1.15737
1.26491
1.37975
1.49533
1.60638
1.70947
1.8024
1.88432
1.95549
2.01679
2.06909
2.1126
2.14645
2.16897
2.17881
2.17538
2.16007
2.13706
2.11345
2.09852
2.10234
2.13414
2.23079
2.50909
3.01574
3.58732
4.06698
4.32822
4.32638
4.1135
3.78699
3.42731
3.09273
2.84284
2.66518
2.52712
2.40957
2.30203
2.19855
2.0951
1.9885
1.87678
1.75947
1.63785
1.51493
1.39543
1.28617
1.19427
1.12625
1.08663
1.07822
1.10344
1.15736
1.22479
1.28812
1.33165
1.34464
1.32286
1.26848
1.18883
1.09464
0.998302
0.911048
0.840126
0.790918
0.76862
0.776599
0.815994
0.887571
0.995427
1.13755
1.29698
1.44466
1.55261
1.60094
1.58352
1.50987
1.40173
1.28464
1.17801
1.08798
1.00673
0.927637
0.84791
0.767679
0.692824
0.634116
0.603884
0.61205
0.663181
0.755664
0.883114
1.03709
1.20974
1.3926
1.5821
1.77581
1.96619
2.13819
2.27237
2.34979
2.35775
2.29332
2.163
1.97937
1.75728
1.51201
1.2614
1.01645
0.785036
0.57464
0.392407
0.243594
0.130675
0.0562023
0.0207111
0.0155113
0.0269638
0.0420986
0.0515011
0.0509171
0.0411156
0.026226
0.0113285
0.000289917
-0.00605774
0
-0.0260956
0.380989
1.56141
3.40251
5.31376
6.50542
6.36023
4.71425
1.96195
-1.0615
-3.42975
-4.56385
-4.46702
-3.62947
-2.57729
-1.64461
-0.954998
-0.638205
-0.630377
-0.629343
-0.622562
-0.60428
-0.570418
-0.519919
-0.455315
-0.380901
-0.304667
-0.235279
-0.180317
-0.144812
-0.130417
-0.135329
-0.154867
-0.182498
-0.211022
-0.234168
-0.247352
-0.247719
-0.23429
-0.207458
-0.16796
-0.117789
-0.0595366
0.00461292
0.0733545
0.146352
0.223862
0.305993
0.392222
0.47996
0.563416
0.635733
0.6913
0.728033
0.748699
0.760783
0.774989
0.802883
0.85213
0.924306
1.02047
1.13975
1.2785
1.43085
1.5895
1.74681
1.89563
2.02978
2.14376
2.23414
2.29977
2.34082
2.35832
2.35383
2.32925
2.28672
2.22867
2.15793
2.07812
1.99245
1.90368
1.81374
1.72327
1.63108
1.53423
1.42845
1.30929
1.17343
1.02
0.851552
0.674275
0.497533
0.332468
0.189841
0.0907061
0.0684164
0.126301
0.225163
0.315303
0.356385
0.332869
0.258439
0.167586
0.098218
0.0738981
0.087427
0.118232
0.156684
0.195634
0.231431
0.263799
0.29425
0.324162
0.353637
0.381713
0.407585
0.431922
0.457287
0.487261
0.524612
0.569651
0.618699
0.66462
0.698852
0.714211
0.707299
0.679772
0.638107
0.591956
0.551583
0.525145
0.516027
0.521433
0.537778
0.560879
0.586842
0.613307
0.640074
0.668928
0.702831
0.744844
0.797236
0.860114
0.933218
1.01655
1.11034
1.21524
1.33215
1.46188
1.60666
1.76609
1.93121
2.08455
2.20671
2.28116
2.29784
2.25427
2.15437
2.00616
1.81991
1.60806
1.38689
1.169
0.963997
0.780695
0.627933
0.52444
0.496932
0.531106
0.589925
0.632537
0.6288
0.56934
0.46663
0.347051
0.238378
0.158789
0.101646
0.0569265
0.0271992
0
0.273165
1.31373
3.34309
5.945
8.11112
8.80248
7.60397
4.94859
1.79464
-0.90923
-2.58772
-3.12039
-2.72732
-1.95317
-1.18429
-0.659662
-0.3759
-0.190636
-0.0324757
0.113935
0.25043
0.374848
0.483824
0.573999
0.641907
0.685486
0.704245
0.699946
0.677047
0.642674
0.60601
0.577118
0.565419
0.578014
0.616021
0.680759
0.775088
0.892392
1.01379
1.11847
1.18909
1.21621
1.20073
1.15347
1.09186
1.03486
0.997907
0.985669
0.994895
1.0217
1.06427
1.12151
1.19253
1.27658
1.37278
1.47974
1.59526
1.71636
1.8395
1.96117
2.07854
2.18985
2.29454
2.39304
2.48636
2.57564
2.66199
2.74661
2.83097
2.91721
3.00818
3.10731
3.2207
3.35935
3.53149
3.71852
3.88819
4.00701
4.05193
4.01676
3.9111
3.75419
3.56815
3.37329
3.18323
3.00164
2.82889
2.66425
2.50647
2.35516
2.21112
2.07653
1.95502
1.85093
1.76852
1.71168
1.68281
1.68156
1.70473
1.74367
1.78458
1.81473
1.82509
1.81189
1.77682
1.72563
1.66597
1.60495
1.54753
1.49543
1.44925
1.41067
1.38256
1.36818
1.37128
1.39516
1.44165
1.51039
1.59955
1.70673
1.82412
1.93603
2.02474
2.07444
2.07466
2.02372
1.93043
1.81271
1.69237
1.58827
1.50832
1.44782
1.40159
1.36601
1.338
1.31607
1.30029
1.29175
1.29182
1.30041
1.31828
1.34618
1.38475
1.43542
1.50167
1.57995
1.65707
1.71562
1.73957
1.72049
1.66129
1.57542
1.48186
1.39847
1.33376
1.28613
1.25228
1.23115
1.22155
1.22279
1.23473
1.25749
1.2908
1.334
1.38491
1.43874
1.48927
1.53065
1.55919
1.57484
1.5819
1.58864
1.60552
1.64266
1.70695
1.79938
1.91349
2.04002
2.17008
2.29442
2.40476
2.4943
2.55657
2.58326
2.57004
2.5133
2.41107
2.26445
2.07903
1.86533
1.63799
1.41363
1.20665
1.02589
0.879178
0.768431
0.690205
0.634526
0.584754
0.524193
0.439399
0.322663
0.173264
-0.00264339
-0.201424
-0.322684
0
0.907155
2.58928
5.00286
7.61538
9.4874
9.75363
8.1554
5.20882
1.91162
-0.765534
-2.28341
-2.66535
-2.30071
-1.91185
-1.53795
-1.15973
-0.729517
-0.328049
0.0242928
0.327743
0.585608
0.802857
0.974961
1.10311
1.19032
1.24093
1.26033
1.25466
1.23055
1.19458
1.15284
1.11058
1.07188
1.03963
1.01673
1.00605
1.01022
1.03132
1.07038
1.12673
1.19831
1.28158
1.37192
1.46428
1.55394
1.63685
1.70973
1.77012
1.81611
1.84682
1.86304
1.86697
1.86257
1.85556
1.85314
1.86313
1.89288
1.94798
2.03048
2.1403
2.27457
2.42828
2.59461
2.76691
2.93933
3.10606
3.26056
3.39563
3.50505
3.58442
3.63088
3.64413
3.62722
3.58658
3.53116
3.47068
3.41349
3.36411
3.32211
3.28477
3.24749
3.20356
3.14538
3.06573
2.95903
2.82249
2.6569
2.46702
2.26106
2.05006
1.85186
1.68491
1.56419
1.49808
1.48637
1.52009
1.58342
1.65722
1.72315
1.76854
1.78865
1.78182
1.75049
1.69994
1.63696
1.56931
1.50369
1.44685
1.40461
1.38129
1.37891
1.39656
1.43034
1.47401
1.52029
1.56248
1.596
1.61884
1.63151
1.63605
1.63474
1.62876
1.61774
1.60025
1.57493
1.54211
1.50488
1.46903
1.44169
1.42906
1.43656
1.46272
1.49833
1.53062
1.54757
1.54179
1.51273
1.4666
1.41429
1.36836
1.33847
1.32833
1.3391
1.37658
1.43395
1.48657
1.50587
1.46893
1.36827
1.2177
1.0509
0.911792
0.839853
0.841284
0.916109
1.04807
1.21147
1.38094
1.54015
1.69044
1.83449
1.9868
2.23924
2.64581
3.10539
3.44868
3.50158
3.18492
2.57842
1.88547
1.33629
1.11837
1.08467
1.10327
1.16402
1.25658
1.36224
1.45374
1.50518
1.49681
1.41869
1.27339
1.07591
0.849587
0.618547
0.400036
0.195899
0
-0.190455
-0.361762
-0.162378
0.693981
2.35766
4.64141
6.86897
8.04155
7.39037
4.9508
1.64115
-1.28575
-2.97976
-3.34572
-2.80572
-2.05393
-1.35418
-0.836748
-0.492299
-0.266263
-0.0942377
0.0483222
0.159991
0.242916
0.303781
0.352287
0.398885
0.452428
0.517211
0.592894
0.679286
0.772795
0.865013
0.94532
1.00426
1.03598
1.03992
1.02114
0.989103
0.955215
0.930072
0.921177
0.929574
0.953542
0.99265
1.04638
1.11349
1.1918
1.27903
1.37057
1.45995
1.54098
1.60923
1.66311
1.70422
1.73659
1.76551
1.79612
1.83198
1.875
1.92697
1.9896
2.06458
2.15375
2.25875
2.38067
2.51962
2.67581
2.8488
3.03378
3.21674
3.37834
3.50004
3.56813
3.5773
3.5328
3.44955
3.34776
3.24573
3.15254
3.0637
2.96972
2.8623
2.73442
2.58345
2.41252
2.23012
2.04835
1.87964
1.73206
1.61177
1.52093
1.45786
1.41795
1.39489
1.38174
1.37206
1.36096
1.34457
1.32012
1.28602
1.24191
1.18884
1.12936
1.06741
1.00856
0.959636
0.927071
0.915704
0.927615
0.962233
1.01742
1.08416
1.15181
1.21207
1.26173
1.30362
1.34549
1.397
1.46976
1.57095
1.68767
1.79631
1.87137
1.89433
1.85912
1.77263
1.65162
1.51793
1.39378
1.29344
1.22045
1.17376
1.1537
1.15823
1.18248
1.2201
1.26284
1.30207
1.33093
1.34535
1.34445
1.33014
1.3063
1.27763
1.24863
1.22254
1.20068
1.18309
1.16854
1.15414
1.13457
1.10389
1.05748
0.991111
0.907638
0.830547
0.791443
0.818468
0.924733
1.10248
1.32577
1.5602
1.77481
1.96271
2.1279
2.26991
2.39042
2.4922
2.57768
2.64755
2.70024
2.7332
2.74181
2.72085
2.66597
2.57488
2.44811
2.28923
2.10461
1.90328
1.69658
1.494
1.3044
1.13616
0.996874
0.896133
0.846811
0.857331
0.923715
1.02689
1.13138
1.2
1.20211
1.11828
0.944307
0.693706
0.374437
0
0.300449
1.64701
4.1135
7.22004
9.88526
10.8356
9.35482
5.83085
1.60801
-1.79138
-3.47652
-3.46652
-2.39161
-1.04171
0.0296259
0.559431
0.59685
0.664013
0.733655
0.803231
0.86962
0.928857
0.977168
1.01212
1.03338
1.04287
1.04413
1.04148
1.03911
1.04035
1.04759
1.06323
1.08963
1.1292
1.1842
1.25644
1.35048
1.47237
1.6207
1.77751
1.9156
2.00751
2.0331
1.98644
1.87973
1.74262
1.61543
1.53705
1.52504
1.56584
1.63719
1.72749
1.8269
1.92686
2.0215
2.10821
2.18733
2.26112
2.33268
2.40483
2.47938
2.55733
2.63895
2.72402
2.81218
2.90326
2.99738
3.095
3.19662
3.30233
3.41132
3.52155
3.62863
3.72674
3.80967
3.8719
3.90939
3.91983
3.90228
3.85657
3.78278
3.68387
3.56196
3.41863
3.2567
3.08068
2.89686
2.71274
2.53669
2.3772
2.24149
2.13487
2.06019
2.01774
2.00524
2.01825
2.05216
2.09981
2.15191
2.1985
2.23076
2.24237
2.23061
2.19697
2.14698
2.08912
2.03298
1.98709
1.95702
1.94285
1.94279
1.95456
1.97519
2.00176
2.03172
2.06315
2.09412
2.12297
2.14881
2.17206
2.19512
2.22233
2.25916
2.31172
2.39079
2.49986
2.61687
2.70953
2.74654
2.70929
2.59954
2.44029
2.26926
2.12716
2.04246
2.00579
2.00125
2.02272
2.06293
2.1131
2.16389
2.20525
2.229
2.22975
2.20562
2.15867
2.09479
2.02292
1.95349
1.89641
1.85729
1.83983
1.84525
1.8693
1.90481
1.94563
1.98936
2.03885
2.10169
2.18783
2.30591
2.45958
2.64356
2.84982
3.05969
3.25083
3.40344
3.50433
3.54857
3.53859
3.48167
3.38721
3.26482
3.12625
2.98063
2.83427
2.69245
2.55965
2.4399
2.33695
2.24929
2.17344
2.10555
2.04303
1.98517
1.93245
1.88584
1.84011
1.77854
1.6759
1.50556
1.24898
0.903248
0.483939
0.00644445
-0.330008
0
1.05229
2.82781
5.21427
7.8084
9.81875
10.3326
8.88546
5.86348
2.33312
-0.588427
-2.3019
-2.8283
-2.42758
-1.70341
-0.880067
-0.131087
0.326376
0.540667
0.696922
0.833152
0.955216
1.06734
1.17244
1.27137
1.36314
1.44505
1.51347
1.56465
1.59566
1.60496
1.59275
1.56119
1.51431
1.45779
1.3987
1.34673
1.31184
1.30279
1.3257
1.38276
1.47158
1.58525
1.71548
1.84729
1.96504
2.05592
2.11224
2.13267
2.12226
2.09113
2.05247
2.02028
2.00591
2.01624
2.0542
2.12033
2.21472
2.33639
2.48228
2.64731
2.8256
3.00862
3.18411
3.3401
3.46727
3.56061
3.62031
3.65173
3.66425
3.66926
3.67762
3.69679
3.72877
3.77143
3.82048
3.86876
3.90791
3.92972
3.92695
3.89375
3.82564
3.71963
3.57461
3.39304
3.18245
2.95102
2.71001
2.47774
2.27254
2.10856
2.00359
1.95337
1.94114
1.9451
1.94577
1.93133
1.89916
1.85398
1.80404
1.75757
1.71844
1.68819
1.66874
1.66169
1.66827
1.68922
1.72447
1.77302
1.83295
1.90099
1.97036
2.03166
2.07635
2.0989
2.09831
2.07842
2.04677
2.01233
1.98283
1.96222
1.94884
1.93984
1.93132
1.91838
1.89595
1.86029
1.80972
1.74525
1.66934
1.58936
1.5144
1.45346
1.41373
1.39926
1.41057
1.44499
1.4975
1.56134
1.6298
1.69812
1.76259
1.8207
1.87116
1.91374
1.94865
1.97622
1.998
2.01601
2.03301
2.05283
2.08033
2.12087
2.1792
2.26388
2.38256
2.53157
2.68839
2.82177
2.90171
2.90463
2.81716
2.63982
2.38998
2.10142
1.81782
1.57793
1.39355
1.25165
1.1385
1.04937
0.978769
0.920242
0.867185
0.813637
0.754795
0.687344
0.609577
0.521332
0.42377
0.319032
0.209879
0.0988277
0
0.0784316
0.675089
2.12284
4.28332
6.39685
7.45451
6.82952
4.66089
1.72668
-1.01663
-2.87019
-3.59682
-3.38702
-2.71795
-2.00113
-1.42453
-0.91809
-0.399641
-0.113809
0.0368073
0.128
0.189155
0.230126
0.260773
0.290631
0.326809
0.37148
0.423629
0.480452
0.537562
0.590184
0.634227
0.667026
0.687645
0.696747
0.696205
0.688623
0.677043
0.664405
0.6535
0.646929
0.646952
0.655273
0.672817
0.699492
0.734606
0.776414
0.82272
0.871391
0.920809
0.970164
1.01953
1.06976
1.12218
1.17833
1.23949
1.30679
1.38105
1.46274
1.55205
1.64883
1.75262
1.86254
1.97704
2.09383
2.20957
2.32002
2.42091
2.50876
2.58175
2.64003
2.68554
2.72125
2.74983
2.7718
2.78396
2.7801
2.75139
2.68948
2.58969
2.45314
2.28693
2.10245
1.91239
1.72714
1.55086
1.38567
1.23198
1.08852
0.952977
0.822752
0.695729
0.570865
0.448655
0.331368
0.223126
0.130018
0.0587848
0.0146008
0.000402355
0.0158827
0.0571014
0.118317
0.189648
0.261225
0.325521
0.379027
0.422634
0.460527
0.497873
0.539531
0.583416
0.620492
0.638988
0.630424
0.594287
0.539176
0.480134
0.433729
0.411457
0.412376
0.432915
0.47305
0.531826
0.600419
0.661168
0.696342
0.693221
0.649044
0.573634
0.487873
0.417945
0.387487
0.405906
0.4613
0.546309
0.657832
0.792119
0.945702
1.12036
1.32024
1.54972
1.8118
2.09482
2.36208
2.5832
2.7121
2.67881
2.42508
1.95198
1.34014
0.738173
0.32768
0.120876
0.00328436
-0.0615726
-0.0832479
-0.0746446
-0.0496547
-0.0217213
-0.00264349
0
-0.0132968
-0.0447762
-0.0899503
-0.14255
-0.19627
-0.246422
-0.29134
-0.332554
-0.37227
-0.438992
-0.407408
0.265602
1.92333
4.30962
6.50059
7.39518
6.41225
3.83999
0.606272
-2.267
-4.10096
-4.69849
-4.26486
-3.25855
-2.12455
-1.13597
-0.347987
0.0858388
0.261455
0.266645
0.101928
-0.164068
-0.424106
-0.581909
-0.589664
-0.524928
-0.433269
-0.328912
-0.219613
-0.11225
-0.0122535
0.0766362
0.152287
0.213506
0.260044
0.292513
0.311883
0.319494
0.317202
0.307572
0.293979
0.280578
0.272122
0.273623
0.289982
0.325495
0.383334
0.465054
0.570195
0.696055
0.837717
0.989527
1.14227
1.28473
1.40698
1.5023
1.56869
1.60964
1.63378
1.65357
1.68313
1.73528
1.81656
1.92839
2.069
2.23432
2.4196
2.61534
2.80902
2.98838
3.14321
3.26622
3.35322
3.40253
3.41413
3.38892
3.32917
3.23767
3.1189
2.97948
2.828
2.67421
2.5277
2.39516
2.28064
2.18867
2.1187
2.0647
2.01876
1.97307
1.92154
1.86049
1.78855
1.70594
1.61371
1.51439
1.41072
1.30542
1.20333
1.11088
1.03495
0.981443
0.953936
0.953046
0.976656
1.02091
1.08142
1.15336
1.23282
1.31825
1.40625
1.49122
1.56652
1.62547
1.66283
1.67583
1.66465
1.63221
1.58374
1.52706
1.46943
1.41699
1.37512
1.34771
1.3358
1.33831
1.35337
1.3781
1.40927
1.44377
1.47886
1.51207
1.54085
1.56276
1.57574
1.57862
1.57178
1.55763
1.54068
1.52695
1.52299
1.53454
1.56432
1.61233
1.67768
1.75747
1.84734
1.94266
2.03865
2.13177
2.22063
2.30625
2.39176
2.48223
2.58806
2.71439
2.84408
2.94525
2.98295
2.93318
2.79204
2.57675
2.31973
2.05865
1.82067
1.61006
1.42362
1.25831
1.11219
0.982066
0.864351
0.75592
0.654632
0.559467
0.47032
0.387551
0.311453
0.2419
0.178104
0.118699
0.0637136
0
0.203777
1.1224
3.07354
5.80386
8.38105
9.64846
8.93419
6.44873
3.10098
-0.0355584
-2.18547
-3.05646
-2.76304
-1.9427
-1.0875
-0.55383
-0.40576
-0.284264
-0.109598
0.0820549
0.283734
0.489379
0.686774
0.862326
1.00416
1.10462
1.16137
1.17691
1.15719
1.10999
1.04512
0.97244
0.899231
0.833165
0.781959
0.752769
0.751402
0.781542
0.844198
0.943126
1.08763
1.27459
1.47003
1.63557
1.73753
1.75714
1.69831
1.58882
1.47286
1.39663
1.39111
1.43835
1.5168
1.61002
1.70073
1.77668
1.83484
1.8821
1.93216
1.99972
2.09449
2.21387
2.34855
2.49057
2.63374
2.77328
2.90699
3.03556
3.16215
3.29216
3.43684
3.61155
3.8037
3.9746
4.07498
4.06351
3.92355
3.67199
3.35779
3.0497
2.81437
2.65973
2.55764
2.49473
2.46097
2.44345
2.42881
2.40544
2.36473
2.3015
2.21367
2.10171
1.96822
1.81874
1.659
1.49412
1.3295
1.17076
1.02353
0.893803
0.788718
0.715408
0.678256
0.679958
0.723029
0.823382
0.969161
1.13229
1.28136
1.39005
1.44324
1.43875
1.3849
1.2965
1.19095
1.0853
0.989798
0.911216
0.853348
0.816361
0.799274
0.802463
0.826176
0.87031
0.935829
1.02801
1.14587
1.27368
1.39095
1.47736
1.51813
1.50753
1.44902
1.35255
1.23087
1.09682
0.961609
0.83206
0.712674
0.607423
0.52052
0.455842
0.416664
0.405058
0.421983
0.467117
0.538683
0.637212
0.763491
0.909934
1.0555
1.17703
1.25427
1.27463
1.23664
1.15114
1.03982
0.931672
0.857696
0.833435
0.860487
0.935198
1.05198
1.2068
1.39221
1.59809
1.8131
2.02372
2.21337
2.36841
2.47865
2.53786
2.54367
2.49712
2.40191
2.26377
2.09004
1.89103
1.67812
1.45911
1.23976
1.0245
0.816091
0.615732
0.423456
0.238948
0.0624485
-0.104388
-0.252752
-0.332372
-0.144539
0.291909
0.793783
1.12295
1.09787
0.678686
0
-0.860154
-0.885143
0.472904
3.11472
6.17762
8.4348
8.94576
7.50185
4.63737
1.31067
-1.50659
-3.1762
-3.59352
-3.09702
-2.44059
-1.85692
-1.42062
-1.06678
-0.797954
-0.577471
-0.389786
-0.232565
-0.109269
-0.0208578
0.0342486
0.0599694
0.0621792
0.0481927
0.0261506
0.00434074
-0.00979624
-0.0104723
0.00666857
0.0443323
0.103726
0.189353
0.31115
0.475952
0.664582
0.838199
0.95348
0.976589
0.897313
0.737184
0.547204
0.393614
0.334691
0.374687
0.47377
0.603062
0.750549
0.903695
1.05114
1.1841
1.297
1.38712
1.45433
1.50203
1.53571
1.56244
1.5905
1.62873
1.6855
1.76736
1.8776
2.01355
2.17479
2.3507
2.52423
2.67858
2.80135
2.88737
2.93939
2.96642
2.98026
2.99148
3.00652
3.02401
3.03586
3.03153
3.00294
2.94798
2.87071
2.77877
2.67924
2.57581
2.46905
2.35822
2.24301
2.12508
2.00858
1.89944
1.80399
1.72699
1.67284
1.64093
1.62463
1.61514
1.60433
1.58709
1.56257
1.53389
1.50661
1.48662
1.47687
1.4775
1.48757
1.50314
1.51871
1.52871
1.52887
1.5173
1.49493
1.46529
1.43364
1.40568
1.38605
1.37711
1.37881
1.39116
1.41176
1.43792
1.46769
1.50053
1.53729
1.57951
1.62969
1.68775
1.74567
1.79036
1.80791
1.78866
1.73126
1.64359
1.54077
1.44083
1.3602
1.30412
1.2706
1.26006
1.27211
1.30518
1.35711
1.42558
1.50824
1.6022
1.70465
1.81269
1.92122
2.02494
2.11976
2.20402
2.27907
2.34866
2.41748
2.48917
2.56466
2.64128
2.71359
2.77415
2.81498
2.82894
2.81078
2.75752
2.66869
2.54626
2.39465
2.22169
2.037
1.84956
1.66789
1.49961
1.35121
1.22914
1.13439
1.06168
1.00224
0.945666
0.881823
0.802511
0.702489
0.579865
0.435964
0.276184
0.0663378
0
0.530897
1.84187
3.8429
6.04012
7.58666
7.66091
6.00317
3.17498
0.26189
-1.77103
-2.55444
-2.28701
-1.55445
-0.824728
-0.275898
0.0375862
0.291385
0.529819
0.741735
0.903472
0.992035
0.998747
0.938209
0.846181
0.766963
0.737287
0.76641
0.83169
0.920211
1.02642
1.1463
1.27652
1.41475
1.55955
1.71018
1.86582
2.02099
2.16125
2.26697
2.31886
2.30493
2.22607
2.09738
1.94496
1.80003
1.6926
1.62814
1.60427
1.62552
1.69201
1.79936
1.93926
2.10058
2.27085
2.43811
2.59296
2.72704
2.83544
2.9162
2.97028
3.0012
3.01469
3.01814
3.01985
3.02824
3.05051
3.09109
3.15235
3.23486
3.33696
3.4556
3.58545
3.7199
3.85183
3.9723
4.06825
4.12933
4.14626
4.11187
4.02316
3.8832
3.70148
3.49222
3.27129
3.05299
2.84483
2.64954
2.47088
2.31319
2.17997
2.07371
1.99578
1.94582
1.92239
1.92151
1.93622
1.9569
1.97418
1.98049
1.97122
1.94518
1.90455
1.85422
1.80089
1.75208
1.71427
1.69214
1.68925
1.71024
1.76357
1.85719
1.97975
2.10631
2.20985
2.26864
2.27224
2.22414
2.14069
2.04689
1.96962
1.92419
1.92503
1.95758
1.98783
1.97437
1.88499
1.71044
1.46869
1.19863
1.01972
1.46408
2.33689
3.2435
3.73905
3.6061
2.98426
2.22395
1.61958
1.31548
1.40648
1.62668
1.87788
2.14076
2.40645
2.66469
2.90303
3.10874
3.27089
3.38203
3.43807
3.43804
3.38444
3.28349
3.1449
2.98079
2.80394
2.62585
2.45464
2.29346
2.14379
2.00746
1.88573
1.77928
1.6882
1.61297
1.5511
1.49122
1.41818
1.3164
1.17404
0.986754
0.759506
0.505549
0.0320013
0
0.812522
2.64434
5.2271
7.87241
9.71834
10.0607
8.63085
5.74671
2.25936
-0.770186
-2.55715
-2.94076
-2.26412
-1.31907
-0.356424
0.436107
0.821922
0.981206
1.0957
1.18686
1.25657
1.30765
1.34346
1.36722
1.38208
1.39133
1.3981
1.40542
1.41636
1.43389
1.46046
1.49749
1.54481
1.60045
1.6609
1.72075
1.7745
1.8178
1.84847
1.86685
1.87547
1.87821
1.87914
1.88153
1.88724
1.89728
1.91204
1.93193
1.95786
1.99137
2.03443
2.08889
2.15574
2.23443
2.32259
2.4168
2.51315
2.60811
2.69955
2.78742
2.87401
2.96355
3.06145
3.17303
3.30213
3.45134
3.62581
3.82158
4.01403
4.17524
4.28302
4.32769
4.31341
4.25365
4.16324
4.05163
3.92268
3.78098
3.62636
3.46004
3.28573
3.10928
2.93754
2.77575
2.62738
2.49517
2.38021
2.28199
2.19856
2.12695
2.06332
2.00232
1.93789
1.86484
1.77999
1.68293
1.57624
1.46486
1.355
1.25289
1.16324
1.08964
1.0356
1.00413
0.998196
1.02054
1.09002
1.24346
1.44985
1.64981
1.77904
1.79702
1.7065
1.55127
1.39345
1.28443
1.24641
1.24242
1.25251
1.26917
1.28449
1.29166
1.28659
1.2685
1.23999
1.20656
1.17538
1.15375
1.14743
1.1595
1.18825
1.23048
1.28325
1.34313
1.40659
1.47034
1.53015
1.58115
1.61854
1.63818
1.63778
1.61788
1.58231
1.5378
1.49297
1.45688
1.43559
1.43194
1.44773
1.48326
1.53673
1.60625
1.68523
1.76434
1.83551
1.89421
1.94106
1.98199
2.03012
2.17015
2.61208
3.20853
3.75603
4.08326
4.09287
3.79855
3.32491
2.83592
2.43219
2.12828
1.89154
1.69441
1.52458
1.37867
1.25529
1.15306
1.0699
1.00175
0.942846
0.88698
0.828264
0.761861
0.684488
0.594649
0.492578
0.379939
0.259556
0.133951
0
0.0616653
0.536616
1.78389
3.96078
6.65829
8.88646
9.55768
8.14457
5.01002
1.20084
-2.08745
-4.01678
-4.36745
-3.52275
-2.23055
-1.18251
-0.696966
-0.651886
-0.539851
-0.393665
-0.237287
-0.071356
0.0922817
0.235066
0.338648
0.391461
0.39334
0.356288
0.301213
0.252071
0.229546
0.237351
0.26974
0.330754
0.415531
0.506954
0.585939
0.63677
0.651588
0.632423
0.590086
0.540516
0.500204
0.481243
0.485388
0.510857
0.5574
0.624932
0.712567
0.818822
0.941657
1.07868
1.22851
1.38805
1.54716
1.69062
1.80398
1.87882
1.9174
1.93378
1.95
1.98846
2.06383
2.17542
2.30776
2.44971
2.59429
2.7358
2.87017
2.99501
3.10935
3.21296
3.30574
3.38711
3.4555
3.50865
3.54452
3.56118
3.55738
3.53283
3.48819
3.42465
3.34332
3.24469
3.12904
2.99711
2.84897
2.68486
2.5065
2.31752
2.12343
1.93109
1.74792
1.58077
1.43526
1.3149
1.22116
1.15388
1.11222
1.09442
1.09857
1.12263
1.16478
1.22289
1.29364
1.37066
1.44435
1.50473
1.54331
1.55482
1.53845
1.49838
1.44327
1.38479
1.33538
1.30398
1.29438
1.30938
1.34817
1.40496
1.46743
1.52027
1.55042
1.54991
1.51759
1.45922
1.38597
1.31139
1.24771
1.20107
1.16933
1.14973
1.13756
1.12739
1.1147
1.09718
1.07516
1.05122
1.02906
1.01236
1.00352
1.0041
1.01478
1.03572
1.06673
1.10838
1.16039
1.2139
1.25606
1.27405
1.261
1.22074
1.16853
1.12683
1.1175
1.15322
1.22355
1.31788
1.42975
1.55239
1.68064
1.81185
1.94645
2.08855
2.25054
2.44158
2.63707
2.79071
2.85402
2.79895
2.63046
2.38265
2.10288
1.83346
1.59186
1.3713
1.16641
0.97588
0.799761
0.638315
0.492226
0.362592
0.250751
0.1581
0.085856
0.0347766
0.00509176
0
0.0314409
0.0836537
0.144263
0.201806
0.249676
0.284563
-0.256351
-0.150504
1.10884
3.39956
5.95646
7.7145
7.80259
5.96282
2.72086
-0.810022
-3.4607
-4.59378
-4.3428
-3.35869
-2.25521
-1.3246
-0.60897
-0.235964
-0.224646
-0.237269
-0.251732
-0.260658
-0.257259
-0.23635
-0.196973
-0.1408
-0.06969
0.0135502
0.105131
0.200774
0.296071
0.386952
0.470144
0.54344
0.605855
0.657632
0.700112
0.735462
0.766308
0.795297
0.824635
0.855731
0.889042
0.924003
0.958972
0.991808
1.02054
1.04394
1.06187
1.07529
1.08601
1.09626
1.10833
1.12408
1.14509
1.17295
1.20926
1.25559
1.31342
1.38396
1.46793
1.5654
1.67564
1.79699
1.92716
2.0635
2.20183
2.33473
2.45389
2.55235
2.62682
2.6795
2.71832
2.75516
2.80309
2.87843
2.97947
3.08132
3.14714
3.14142
3.04234
2.84965
2.58612
2.29202
2.01324
1.7809
1.59505
1.44208
1.31752
1.21624
1.13185
1.05775
0.987982
0.917632
0.842951
0.761375
0.671744
0.573874
0.468757
0.358667
0.24708
0.13849
0.0382269
-0.0480758
-0.115157
-0.159454
-0.179288
-0.17522
-0.150137
-0.108993
-0.0582087
-0.00481644
0.0444955
0.0843015
0.111276
0.123551
0.120912
0.104493
0.0766271
0.0403248
-0.0011878
-0.0444323
-0.085784
-0.121684
-0.148802
-0.164336
-0.166373
-0.15404
-0.127201
-0.0868443
-0.0367084
0.0161744
0.0644924
0.102989
0.130142
0.148853
0.165764
0.189368
0.227621
0.286003
0.364241
0.459016
0.568379
0.691209
0.826629
0.975458
1.14114
1.32352
1.50332
1.65257
1.74364
1.76049
1.70607
1.60158
1.47719
1.35858
1.25607
1.15865
1.0571
0.944203
0.814215
0.664929
0.497837
0.318435
0.144596
0
-0.0993981
-0.135099
-0.106756
-0.0201865
0.0963005
0.20915
0.289164
0.319117
0.296942
0.132629
-0.0648688
0.426345
1.84876
3.93002
5.85729
6.684
5.89867
3.71538
0.904285
-1.64514
-3.30839
-3.88509
-3.58661
-2.82373
-1.99002
-1.26698
-0.611701
0.0493152
0.550172
0.953758
1.26683
1.47091
1.5602
1.53892
1.42097
1.23273
1.01459
0.815996
0.682929
0.625636
0.621411
0.650692
0.705851
0.784344
0.884723
1.0068
1.15101
1.32242
1.53195
1.76261
1.97861
2.14243
2.23041
2.24286
2.20283
2.14433
2.09696
2.07568
2.07274
2.08154
2.1007
2.13096
2.17518
2.2369
2.3184
2.41781
2.53081
2.65139
2.77276
2.88915
2.99724
3.09673
3.18979
3.27978
3.36965
3.46074
3.55255
3.64346
3.73149
3.81516
3.8941
3.96905
4.04139
4.11208
4.18053
4.24296
4.29213
4.31867
4.31294
4.2668
4.17472
4.03434
3.84684
3.61745
3.36032
3.08938
2.81665
2.55585
2.32007
2.11989
1.96211
1.84928
1.78024
1.75132
1.75767
1.79419
1.85503
1.94041
2.04627
2.15858
2.25843
2.3275
2.35307
2.332
2.27216
2.19102
2.11198
2.05928
2.04656
2.07352
2.13501
2.22508
2.33995
2.46985
2.59717
2.70327
2.7731
2.79743
2.77354
2.70442
2.59687
2.45936
2.30062
2.13068
1.95704
1.79072
1.64716
1.54237
1.48973
1.49537
1.55519
1.65527
1.77637
1.90088
2.01897
2.13214
2.24486
2.36081
2.48425
2.611
2.7268
2.81325
2.85492
2.8448
2.78558
2.68687
2.56088
2.41919
2.27309
2.12875
1.99022
1.86106
1.74372
1.6386
1.54473
1.45895
1.37623
1.29063
1.19645
1.08941
0.967771
0.832847
0.689054
0.543245
0.403545
0.277901
0.17268
0.0915607
0.0349573
0
-0.0323719
-0.0504721
-0.228688
-0.147814
0.790383
2.85964
5.65901
8.20925
9.45708
8.8162
6.42048
3.02103
-0.349714
-2.79659
-3.90712
-3.84276
-3.17007
-2.38634
-1.69786
-1.08011
-0.547775
-0.269676
-0.0855176
0.0552227
0.165551
0.246685
0.301835
0.3353
0.350907
0.352316
0.342075
0.321651
0.292049
0.254698
0.212265
0.169121
0.131224
0.105375
0.0974758
0.111808
0.149877
0.210337
0.290577
0.379587
0.464012
0.532415
0.578205
0.601092
0.60665
0.604238
0.604055
0.614379
0.637676
0.673164
0.719674
0.775652
0.839557
0.910466
0.988365
1.07404
1.16862
1.27301
1.3873
1.51043
1.64024
1.77386
1.90823
2.04078
2.16981
2.2945
2.4145
2.52817
2.63171
2.72012
2.78634
2.82348
2.82747
2.79869
2.74175
2.66356
2.57054
2.46698
2.35504
2.23404
2.10193
1.95668
1.79765
1.6263
1.44644
1.26429
1.08776
0.925816
0.792427
0.708677
0.677189
0.672901
0.660847
0.609582
0.503765
0.350468
0.17641
0.0171425
-0.0972279
-0.163957
-0.20007
-0.213332
-0.211634
-0.201878
-0.187678
-0.168197
-0.138478
-0.0788513
0.0634777
0.277912
0.501554
0.649451
0.660173
0.52907
0.310141
0.088876
-0.0571655
-0.0906467
-0.0676353
-0.0222092
0.0329918
0.0908142
0.145741
0.194181
0.234317
0.265688
0.288754
0.304699
0.315016
0.321562
0.326448
0.331825
0.339568
0.350966
0.366517
0.385964
0.408652
0.434064
0.46222
0.494069
0.531656
0.578008
0.636753
0.711536
0.805341
0.92164
1.06808
1.25057
1.45705
1.66083
1.83362
1.95138
1.9978
1.9651
1.85389
1.67376
1.44427
1.19413
0.955626
0.754392
0.594834
0.46465
0.358245
0.269861
0.194042
0.127649
0.0708595
0.0268047
0
-0.00615311
0.00878716
0.041996
0.0891525
0.144498
0.202224
0.25811
0.309993
0.352095
0.168588
0.405848
1.49912
3.59309
6.23387
8.37194
8.86068
7.19523
3.91791
0.316919
-2.35983
-3.54892
-3.43907
-2.60932
-1.60137
-0.767432
-0.280394
-0.145371
-0.0573551
0.0229149
0.0971149
0.163483
0.219506
0.263709
0.295969
0.317484
0.330402
0.337292
0.340646
0.342681
0.345116
0.3495
0.357459
0.370813
0.391509
0.421352
0.461518
0.51203
0.571855
0.638915
0.709615
0.779812
0.845627
0.904256
0.954581
0.997393
1.0352
1.07162
1.11065
1.15574
1.20931
1.27273
1.3464
1.42966
1.5213
1.61979
1.7234
1.83024
1.93832
2.04536
2.14935
2.249
2.34419
2.43613
2.52713
2.61997
2.71713
2.81985
2.92756
3.03854
3.14964
3.25599
3.35079
3.42785
3.48192
3.50937
3.50866
3.4802
3.42578
3.34766
3.24772
3.12744
2.98976
2.83707
2.67165
2.49709
2.31877
2.14364
1.97935
1.83349
1.71572
1.6379
1.59572
1.57371
1.55368
1.52111
1.46967
1.40218
1.32756
1.25566
1.1924
1.13547
1.08126
1.02639
0.968303
0.90661
0.843817
0.785307
0.738531
0.711494
0.711089
0.7416
0.805138
0.904978
1.03679
1.18154
1.31111
1.40031
1.43262
1.40372
1.32143
1.20214
1.06507
0.927038
0.799214
0.684536
0.583924
0.501991
0.44294
0.41036
0.406284
0.433276
0.495638
0.582205
0.673756
0.751136
0.800762
0.818123
0.807803
0.780109
0.745976
0.712661
0.681714
0.652205
0.623228
0.595212
0.570617
0.553495
0.548218
0.558048
0.582182
0.619447
0.668415
0.727251
0.794168
0.867585
0.946007
1.0278
1.11107
1.19388
1.27468
1.35271
1.42835
1.50323
1.57998
1.66173
1.75192
1.85396
1.97219
2.11694
2.3129
2.57512
2.86467
3.099
3.17426
3.02396
2.66645
2.20588
1.79037
1.54761
1.44887
1.39241
1.34929
1.30121
1.2356
1.14886
1.04673
0.941381
0.846387
0.771253
0.717698
0.67874
0.641345
0.591251
0.518113
0.418887
0.298131
0
0.0599518
0.812148
2.44505
4.82646
7.32082
8.94283
8.87383
6.97261
3.86869
0.584749
-1.98524
-3.38726
-3.62593
-3.0255
-2.06949
-1.13694
-0.416058
0.085585
0.314208
0.46959
0.605757
0.731456
0.851696
0.972528
1.10064
1.24643
1.43031
1.67536
1.95857
2.22194
2.40311
2.45448
2.35965
2.14078
1.85743
1.59943
1.46787
1.49206
1.61685
1.79191
1.99304
2.2046
2.40791
2.58668
2.72895
2.8279
2.88157
2.89197
2.86415
2.80564
2.72736
2.64101
2.56002
2.49841
2.46904
2.48143
2.54038
2.6456
2.79207
2.97146
3.17391
3.38838
3.60612
3.82067
4.02577
4.21422
4.3796
4.51722
4.62392
4.69864
4.74291
4.76092
4.75924
4.74608
4.73033
4.71998
4.72188
4.74485
4.79125
4.84693
4.88795
4.88859
4.82932
4.70289
4.51616
4.28717
4.03866
3.791
3.55511
3.33184
3.12052
2.92304
2.74242
2.58205
2.44514
2.33491
2.25368
2.20212
2.17866
2.17936
2.19825
2.22846
2.26217
2.29243
2.31404
2.3239
2.32087
2.30492
2.27633
2.23507
2.18135
2.11531
2.03848
1.95456
1.86963
1.79157
1.72878
1.68855
1.67528
1.69656
1.75781
1.85173
1.95335
2.03294
2.06482
2.03333
1.93725
1.79104
1.62123
1.45834
1.32722
1.23463
1.17114
1.12743
1.10118
1.08999
1.09177
1.1048
1.12788
1.16019
1.20232
1.25609
1.32457
1.41148
1.52026
1.65428
1.81982
2.01435
2.22492
2.43062
2.60464
2.72593
2.78051
2.7589
2.65561
2.47185
2.21982
1.92487
1.62247
1.34936
1.12285
0.936291
0.778025
0.64305
0.526001
0.420496
0.320119
0.21923
0.113469
0
-0.12263
-0.254952
-0.396844
-0.547862
-0.707313
-0.874491
-1.04846
-1.22816
-1.4188
-1.68335
-1.40867
-0.261562
1.68297
3.88526
5.55266
5.96849
4.79279
2.25301
-0.872096
-3.56042
-5.04957
-5.21938
-4.54796
-3.91516
-3.46674
-3.25221
-3.15419
-3.055
-2.95318
-2.85021
-2.75002
-2.6575
-2.57645
11
203
376
557
764
954
1151
1348
1531
1703
1885
2083
2268
2443
2633
2827
3002
3175
3355
3552
3732
3703
3077
3235
3394
3716
0
0
0
0
0
0
0
0
0
0
0
0
0
0
0
0
0
0
0
0
0
0
0
0
0
0
0
0
0
0
0
0
0
0
0
0
0
0
0
0
0
0
0
0
0
0
0
0
0
0
0
0
0
0
0
0
0
0
0
0
0
0
0
0
0
0
0
0
0
0
0
0
0
0
0
0
0
0
0
0
0
0
0
0
0
0
0
0
0
0
0
0
0
0
0
0
0
0
0
0
0
0
0
0
0
0
0
0
0
0
0
0
0
0
0
0
0
0
0
0
0
0
0
0
0
0
0
0
0
0
0
0
0
0
0
0
0
0
0
0
0
0
0
0
0
0
0
0
0
0
0
0
0
0
0
0
0
0
0
0
0
0
0
0
0
0
0
0
0
0
0
0
0
0
0
0
0
0
0
0
0
0
0
0
0
0
0
0
0
0
0
0
0
0
0
0
0
0
0
0
0
0
0
0
0
0
0
0
0
0
0
0
0
0
0
0
0
0
0
0
0
0
0
0
0
0
0
0
0
0
0
0
0
0
0
0
0
0
0
0
0
0
0
0
0
0
0
0
0
0
0
0
0
0
0
0
0
0
0
0
0
0
0
0
0
0
0
0
0
0
0
0
0
0
0
0
0
0
0
0
0
0
0
0
0
0
0
0
0
0
0
0
0
0
0
0
0
0
0
0
0
0
0
0
0
0
0
0
0
0
0
0
0
0
0
0
0
0
0
0
0
0
0
0
0
0
0
0
0
0
0
0
0
0
0
0
0
0
0
0
0
0
0
0
0
0
0
0
0
0
0
0
0
0
0
0
0
0
0
0
0
0
0
0
0
0
0
0
0
0
0
0
0
0
0
0
0
0
0
0
0
0
0
0
0
0
0
0
0
0
0
0
0
0
0
0
0
0
0
0
0
0
0
0
0
0
0
0
0
0
0
0
0
0
0
0
0
0
0
0
0
0
0
0
0
0
0
0
0
0
0
0
0
0
0
0
0
0
0
0
0
0
0
0
0
0
0
0
0
0
0
0
0
0
0
0
0
0
0
0
0
0
0
0
0
0
0
0
0
0
0
0
0
0
0
0
0
0
0
0
0
0
0
0
0
0
0
0
0
0
0
0
0
0
0
0
0
0
0
0
0
0
0
0
0
0
0
0
0
0
0
0
0
0
0
0
0
0
0
0
0
0
0
0
0
0
0
0
0
0
0
0
0
0
0
0
0
0
0
0
0
0
0
0
0
0
0
0
0
0
0
0
0
0
0
0
0
0
0
0
0
0
0
0
0
0
0
0
0
0
0
0
0
0
0
0
0
0
0
0
0
0
0
0
0
0
0
0
0
0
0
0
0
0
0
0
0
0
0
0
0
0
0
0
0
0
0
0
0
0
0
0
0
0
0
0
0
0
0
0
0
0
0
0
0
0
0
0
0
0
0
0
0
0
0
0
0
0
0
0
0
0
0
0
0
0
0
0
0
0
0
0
0
0
0
0
0
0
0
0
0
0
0
0
0
0
0
0
0
0
0
0
0
0
0
0
0
0
0
0
0
0
0
0
0
0
0
0
0
0
0
0
0
0
0
0
0
0
0
0
0
0
0
0
0
0
0
0
0
0
0
0
0
0
0
0
0
0
0
0
0
0
0
0
0
0
0
0
0
0
0
0
0
0
0
0
0
0
0
0
0
0
0
0
0
0
0
0
0
0
0
0
0
0
0
0
0
0
0
0
0
0
0
0
0
0
0
0
0
0
0
0
0
0
0
0
0
0
0
0
0
0
0
0
0
0
0
0
0
0
0
0
0
0
0
0
0
0
0
0
0
0
0
0
0
0
0
0
0
0
0
0
0
0
0
0
0
0
0
0
0
0
0
0
0
0
0
0
0
0
0
0
0
0
0
0
0
0
0
0
0
0
0
0
0
0
0
0
0
0
0
0
0
0
0
0
0
0
0
0
0
0
0
0
0
0
0
0
0
0
0
0
0
0
0
0
0
0
0
0
0
0
0
0
0
0
0
0
0
0
0
0
0
0
0
0
0
0
0
0
0
0
0
0
0
0
0
0
0
0
0
0
0
0
0
0
0
0
0
0
0
0
0
0
0
0
0
0
0
0
0
0
0
0
0
0
0
0
0
0
0
0
0
0
0
0
0
0
0
0
0
0
0
0
0
0
0
0
0
0
0
0
0
0
0
0
0
0
0
0
0
0
0
0
0
0
0
0
0
0
0
0
0
0
0
0
0
0
0
0
0
0
0
0
0
0
0
0
0
0
0
0
0
0
0
0
0
0
0
0
0
0
0
0
0
0
0
0
0
0
0
0
0
0
0
0
0
0
0
0
0
0
0
0
0
0
0
0
0
0
0
0
0
0
0
0
0
0
0
0
0
0
0
0
0
0
0
0
0
0
0
0
0
0
0
0
0
0
0
0
0
0
0
0
0
0
0
0
0
0
0
0
0
0
0
0
0
0
0
0
0
0
0
0
0
0
0
0
0
0
0
0
0
0
0
0
0
0
0
0
0
0
0
0
0
0
0
0
0
0
0
0
0
0
0
0
0
0
0
0
0
0
0
0
0
0
0
0
0
0
0
0
0
0
0
0
0
0
0
0
0
0
0
0
0
0
0
0
0
0
0
0
0
0
0
0
0
0
0
0
0
0
0
0
0
0
0
0
0
0
0
0
0
0
0
0
0
0
0
0
0
0
0
0
0
0
0
0
0
0
0
0
0
0
0
0
0
0
0
0
0
0
0
0
0
0
0
0
0
0
0
0
0
0
0
0
0
0
0
0
0
0
0
0
0
0
0
0
0
0
0
0
0
0
0
0
0
0
0
0
0
0
0
0
0
0
0
0
0
0
0
0
0
0
0
0
0
0
0
0
0
0
0
0
0
0
0
0
0
0
0
0
0
0
0
0
0
0
0
0
0
0
0
0
0
0
0
0
0
0
0
0
0
0
0
0
0
0
0
0
0
0
0
0
0
0
0
0
0
0
0
0
0
0
0
0
0
0
0
0
0
0
0
0
0
0
0
0
0
0
0
0
0
0
0
0
0
0
0
0
0
0
0
0
0
0
0
0
0
0
0
0
0
0
0
0
0
0
0
0
0
0
0
0
0
0
0
0
0
0
0
0
0
0
0
0
0
0
0
0
0
0
0
0
0
0
0
0
0
0
0
0
0
0
0
0
0
0
0
0
0
0
0
0
0
0
0
0
0
0
0
0
0
0
0
0
0
0
0
0
0
0
0
0
0
0
0
0
0
0
0
0
0
0
0
0
0
0
0
0
0
0
0
0
0
0
0
0
0
0
0
0
0
0
0
0
0
0
0
0
0
0
0
0
0
0
0
0
0
0
0
0
0
0
0
0
0
0
0
0
0
0
0
0
0
0
0
0
0
0
0
0
0
0
0
0
0
0
0
0
0
0
0
0
0
0
0
0
0
0
0
0
0
0
0
0
0
0
0
0
0
0
0
0
0
0
0
0
0
0
0
0
0
0
0
0
0
0
0
0
0
0
0
0
0
0
0
0
0
0
0
0
0
0
0
0
0
0
0
0
0
0
0
0
0
0
0
0
0
0
0
0
0
0
0
0
0
0
0
0
0
0
0
0
0
0
0
0
0
0
0
0
0
0
0
0
0
0
0
0
0
0
0
0
0
0
0
0
0
0
0
0
0
0
0
0
0
0
0
0
0
0
0
0
0
0
0
0
0
0
0
0
0
0
0
0
0
0
0
0
0
0
0
0
0
0
0
0
0
0
0
0
0
0
0
0
0
0
0
0
0
0
0
0
0
0
0
0
0
0
0
0
0
0
0
0
0
0
0
0
0
0
0
0
0
0
0
0
0
0
0
0
0
0
0
0
0
0
0
0
0
0
0
0
0
0
0
0
0
0
0
0
0
0
0
0
0
0
0
0
0
0
0
0
0
0
0
0
0
0
0
0
0
0
0
0
0
0
0
0
0
0
0
0
0
0
0
0
0
0
0
0
0
0
0
0
0
0
0
0
0
0
0
0
0
0
0
0
0
0
0
0
0
0
0
0
0
0
0
0
0
0
0
0
0
0
0
0
0
0
0
0
0
0
0
0
0
0
0
0
0
0
0
0
0
0
0
0
0
0
0
0
0
0
0
0
0
0
0
0
0
0
0
0
0
0
0
0
0
0
0
0
0
0
0
0
0
0
0
0
0
0
0
0
0
0
0
0
0
0
0
0
0
0
0
0
0
0
0
0
0
0
0
0
0
0
0
0
0
0
0
0
0
0
0
0
0
0
0
0
0
0
0
0
0
0
0
0
0
0
0
0
0
0
0
0
0
0
0
0
0
0
0
0
0
0
0
0
0
0
0
0
0
0
0
0
0
0
0
0
0
0
0
0
0
0
0
0
0
0
0
0
0
0
0
0
0
0
0
0
0
0
0
0
0
0
0
0
0
0
0
0
0
0
0
0
0
0
0
0
0
0
0
0
0
0
0
0
0
0
0
0
0
0
0
0
0
0
0
0
0
0
0
0
0
0
0
0
0
0
0
0
0
0
0
0
0
0
0
0
0
0
0
0
0
0
0
0
0
0
0
0
0
0
0
0
0
0
0
0
0
0
0
0
0
0
0
0
0
0
0
0
0
0
0
0
0
0
0
0
0
0
0
0
0
0
0
0
0
0
0
0
0
0
0
0
0
0
0
0
0
0
0
0
0
0
0
0
0
0
0
0
0
0
0
0
0
0
0
0
0
0
0
0
0
0
0
0
0
0
0
0
0
0
0
0
0
0
0
0
0
0
0
0
0
0
0
0
0
0
0
0
0
0
0
0
0
0
0
0
0
0
0
0
0
0
0
0
0
0
0
0
0
0
0
0
0
0
0
0
0
0
0
0
0
0
0
0
0
0
0
0
0
0
0
0
0
0
0
0
0
0
0
0
0
0
0
0
0
0
0
0
0
0
0
0
0
0
0
0
0
0
0
0
0
0
0
0
0
0
0
0
0
0
0
0
0
0
0
0
0
0
0
0
0
0
0
0
0
0
0
0
0
0
0
0
0
0
0
0
0
0
0
0
0
0
0
0
0
0
0
0
0
0
0
0
0
0
0
0
0
0
0
0
0
0
0
0
0
0
0
0
0
0
0
0
0
0
0
0
0
0
0
0
0
0
0
0
0
0
0
0
0
0
0
0
0
0
0
0
0
0
0
0
0
0
0
0
0
0
0
0
0
0
0
0
0
0
0
0
0
0
0
0
0
0
0
0
0
0
0
0
0
0
0
0
0
0
0
0
0
0
0
0
0
0
0
0
0
0
0
0
0
0
0
0
0
0
0
0
0
0
0
0
0
0
0
0
0
0
0
0
0
0
0
0
0
0
0
0
0
0
0
0
0
0
0
0
0
0
0
0
0
0
0
0
0
0
0
0
0
0
0
0
0
0
0
0
0
0
0
0
0
0
0
0
0
0
0
0
0
0
0
0
0
0
0
0
0
0
0
0
0
0
0
0
0
0
0
0
0
0
0
0
0
0
0
0
0
0
0
0
0
0
0
0
0
0
0
0
0
0
0
0
0
0
0
0
0
0
0
0
0
0
0
0
0
0
0
0
0
0
0
0
0
0
0
0
0
0
0
0
0
0
0
0
0
0
0
0
0
0
0
0
0
0
0
0
0
0
0
0
0
0
0
0
0
0
0
0
0
0
0
0
0
0
0
0
0
0
0
0
0
0
0
0
0
0
0
0
0
0
0
0
0
0
0
0
0
0
0
0
0
0
0
0
0
0
0
0
0
0
0
0
0
0
0
0
0
0
0
0
0
0
0
0
0
0
0
0
0
0
0
0
0
0
0
0
0
0
0
0
0
0
0
0
0
0
0
0
0
0
0
0
0
0
0
0
0
0
0
0
0
0
0
0
0
0
0
0
0
0
0
0
0
0
0
0
0
0
0
0
0
0
0
0
0
0
0
0
0
0
0
0
0
0
0
0
0
0
0
0
0
0
0
0
0
0
0
0
0
0
0
0
0
0
0
0
0
0
0
0
0
0
0
0
0
0
0
0
0
0
0
0
0
0
0
0
0
0
0
0
0
0
0
0
0
0
0
0
0
0
0
0
0
0
0
0
0
0
0
0
0
0
0
0
0
0
0
0
0
0
0
0
0
0
0
0
0
0
0
0
0
0
0
0
0
0
0
0
0
0
0
0
0
0
0
0
0
0
0
0
0
0
0
0
0
0
0
0
0
0
0
0
0
0
0
0
0
0
0
0
0
0
0
0
0
0
0
0
0
0
0
0
0
0
0
0
0
0
0
0
0
0
0
0
0
0
0
0
0
0
0
0
0
0
0
0
0
0
0
0
0
0
0
0
0
0
0
0
0
0
0
0
0
0
0
0
0
0
0
0
0
0
0
0
0
0
0
0
0
0
0
0
0
0
0
0
0
0
0
0
0
0
0
0
0
0
0
0
0
0
0
0
0
0
0
0
0
0
0
0
0
0
0
0
0
0
0
0
0
0
0
0
0
0
0
0
0
0
0
0
0
0
0
0
0
0
0
0
0
0
0
0
0
0
0
0
0
0
0
0
0
0
0
0
0
0
0
0
0
0
0
0
0
0
0
0
0
0
0
0
0
0
0
0
0
0
0
0
0
0
0
0
0
0
0
0
0
0
0
0
0
0
0
0
0
0
0
0
0
0
0
0
0
0
0
0
0
0
0
0
0
0
0
0
0
0
0
0
0
0
0
0
0
0
0
0
0
0
0
0
0
0
0
0
0
0
0
0
0
0
0
0
0
0
0
0
0
0
0
0
0
0
0
0
0
0
0
0
0
0
0
0
0
0
0
0
0
0
0
0
0
0
0
0
0
0
0
0
0
0
0
0
0
0
0
0
0
0
0
0
0
0
0
0
0
0
0
0
0
0
0
0
0
0
0
0
0
0
0
0
0
0
0
0
0
0
0
0
0
0
0
0
0
0
0
0
0
0
0
0
0
0
0
0
0
0
0
0
0
0
0
0
0
0
0
0
0
0
0
0
0
0
0
0
0
0
0
0
0
0
0
0
0
0
0
0
0
0
0
0
0
0
0
0
0
0
0
0
0
0
0
0
0
0
0
0
0
0
0
0
0
0
0
0
0
0
0
0
0
0
0
0
0
0
0
0
0
0
0
0
0
0
0
0
0
0
0
0
0
0
0
0
0
0
0
0
0
0
0
0
0
0
0
0
0
0
0
0
0
0
0
0
0
0
0
0
0
0
0
0
0
0
0
0
0
0
0
0
0
0
0
0
0
0
0
0
0
0
0
0
0
0
0
0
0
0
0
0
0
0
0
0
0
0
0
0
0
0
0
0
0
0
0
0
0
0
0
0
0
0
0
0
0
0
0
0
0
0
0
0
0
0
0
0
0
0
0
0
0
0
0
0
0
0
0
0
0
0
0
0
0
0
0
0
0
0
0
0
0
0
0
0
0
0
0
0
0
0
0
0
0
0
0
0
0
0
0
0
0
0
0
0
0
0
0
0
0
0
0
0
0
0
0
0
0
0
0
0
0
0
0
0
0
0
0
0
0
0
0
0
0
0
0
0
0
0
0
0
0
0
0
0
0
0
0
0
0
0
0
0
0
0
0
0
0
0
0
0
0
0
0
0
0
0
0
0
0
0
0
0
0
0
0
0
0
0
0
0
0
0
0
0
0
0
0
0
0
0
0
0
0
0
0
0
0
0
0
0
0
0
0
0
0
0
0
0
0
0
0
0
0
0
0
0
0
0
0
0
0
0
0
0
0
0
0
0
0
0
0
0
0
0
0
0
0
0
0
0
0
0
0
0
0
0
0
0
0
0
0
0
0
0
0
0
0
0
0
0
0
0
0
0
0
0
0
0
0
0
0
0
0
0
0
0
0
0
0
0
0
0
0
0
0
0
0
0
0
0
0
0
0
0
0
0
0
0
0
0
0
0
0
0
0
0
0
0
0
0
0
0
0
0
0
0
0
0
0
0
0
0
0
0
0
0
0
0
0
0
0
0
0
0
0
0
0
0
0
0
0
0
0
0
0
0
0
0
0
0
0
0
0
0
0
0
0
0
0
0
0
0
0
0
0
0
0
0
0
0
0
0
0
0
0
0
0
0
0
0
0
0
0
0
0
0
0
0
0
0
0
0
0
0
0
0
0
0
0
0
0
0
0
0
0
0
0
0
0
0
0
0
0
0
0
0
0
0
0
0
0
0
0
0
0
0
0
0
0
0
0
0
0
0
0
0
0
0
0
0
0
0
0
0
0
0
0
0
0
0
0
0
0
0
0
0
0
0
0
0
0
0
0
0
0
0
0
0
0
0
0
0
0
0
0
0
0
0
0
0
0
0
0
0
0
0
0
0
0
0
0
0
0
0
0
0
0
0
0
0
0
0
0
0
0
0
0
0
0
0
0
0
0
0
0
0
0
