0.0564178
0.0482155
0.036068
0.0219254
0.00873795
0
0.0477104
0.107279
0.182082
0.274775
0.386927
0.51873
0.670403
0.850314
1.11346
1.55131
2.15605
2.98868
4.03814
5.17219
6.14272
6.63723
6.37702
5.24196
3.37248
1.18045
-0.774092
-2.00138
-2.28111
-1.75113
-0.768719
0.257042
1.03835
1.45408
1.52107
1.57699
1.63699
1.70319
1.7776
1.86048
1.95003
2.04369
2.13887
2.23331
2.32561
2.4154
2.5032
2.59011
2.67724
2.7653
2.85428
2.94327
3.03066
3.11465
3.19386
3.26781
3.33718
3.40372
3.46982
3.53802
3.61038
3.68799
3.77111
3.85951
3.95293
4.05143
4.15577
4.26758
4.39036
4.53303
4.71691
4.96414
5.24408
5.50095
5.67618
5.73009
5.65578
5.47947
5.24905
5.01686
4.82146
4.6561
4.50265
4.35158
4.19789
4.03797
3.86993
3.69417
3.51357
3.33316
3.15934
2.99872
2.85731
2.74176
2.65734
2.59867
2.55619
2.51887
2.47724
2.42576
2.36378
2.29507
2.22624
2.16475
2.11467
2.07807
2.05708
2.05247
2.06394
2.0902
2.128
2.17101
2.2113
2.24113
2.25436
2.24761
2.22092
2.17762
2.12355
2.06578
2.0111
1.96403
1.92702
1.90156
1.88786
1.88465
1.88941
1.89844
1.90656
1.90775
1.89635
1.86825
1.82189
1.75899
1.68451
1.60587
1.53144
1.46885
1.42266
1.39515
1.38545
1.39021
1.40464
1.4235
1.44195
1.45594
1.46227
1.45858
1.44363
1.41698
1.37881
1.33033
1.27373
1.2119
1.14779
1.0838
1.02116
0.959595
0.897174
0.831039
0.758366
0.677422
0.588365
0.493528
0.397081
0.304184
0.219679
0.147176
0.0888432
0.0448496
0.0138044
-0.00655689
-0.0185574
-0.023867
-0.0230694
-0.0155949
0
0.0324739
0.0762119
0.131921
0.200647
0.294544
0.586078
1.07033
1.80948
2.90639
4.32554
5.80806
6.91161
7.18197
6.37945
4.63355
2.42541
0.392761
-0.942967
-1.38169
-0.943022
-0.406058
0.126497
0.509332
0.692485
0.811893
0.922622
1.03173
1.14035
1.24691
1.34685
1.43408
1.50296
1.55025
1.57635
1.58559
1.5854
1.58479
1.59244
1.6136
1.64976
1.70044
1.76408
1.83813
1.91925
2.00376
2.08815
2.16939
2.2452
2.31446
2.37757
2.43643
2.49438
2.55604
2.62677
2.71199
2.81618
2.94842
3.12149
3.327
3.53333
3.70524
3.81537
3.85232
3.82241
3.74557
3.64767
3.55235
3.47202
3.4045
3.34325
3.28173
3.21313
3.13009
3.02577
2.89499
2.73523
2.54715
2.33473
2.10482
1.86629
1.6289
1.40182
1.19312
1.00901
0.85343
0.728692
0.636213
0.57455
0.53694
0.515119
0.50122
0.489178
0.475657
0.460271
0.445099
0.433692
0.429914
0.436055
0.452759
0.47995
0.516949
0.562346
0.613501
0.666505
0.717019
0.760941
0.79497
0.817043
0.82654
0.824209
0.811816
0.791648
0.766063
0.736996
0.70576
0.673064
0.639097
0.60361
0.566024
0.525379
0.480648
0.431022
0.376341
0.317525
0.25678
0.198883
0.149827
0.115383
0.099538
0.103339
0.124563
0.158323
0.198385
0.238739
0.275368
0.306761
0.332775
0.35482
0.375472
0.397949
0.425497
0.460856
0.506371
0.564051
0.634429
0.711963
0.783202
0.832644
0.847081
0.819956
0.754025
0.660928
0.557405
0.459462
0.376878
0.307376
0.247202
0.192835
0.141957
0.0950162
0.0553887
0.0280515
0.0208353
0.0398973
0.0763706
0.114086
0.136171
0.132338
0.103242
0.059991
0.0193741
-0.00277452
0
0.028405
0.0696163
0.124857
0.226988
0.505044
1.14378
2.27053
3.82548
5.49845
6.78243
7.15825
6.34446
4.4794
2.10984
-0.0366317
-1.38111
-1.73399
-1.21707
-0.585357
0.00350521
0.385173
0.532253
0.646807
0.764256
0.88736
1.01981
1.16043
1.29907
1.42198
1.51616
1.57341
1.5927
1.58006
1.54646
1.50449
1.46537
1.43533
1.41628
1.40906
1.41465
1.43459
1.47032
1.52324
1.59425
1.6834
1.78938
1.90943
2.03945
2.17465
2.30992
2.4407
2.56446
2.68124
2.79368
2.90637
3.02459
3.15284
3.29519
3.45315
3.61787
3.77529
3.91011
4.00933
4.06439
4.07148
4.03043
3.94319
3.81287
3.64753
3.4549
3.24215
3.01684
2.78678
2.55878
2.33853
2.13085
1.93916
1.76538
1.60984
1.47155
1.34847
1.23815
1.13777
1.04455
0.956601
0.873381
0.7959
0.726512
0.668516
0.629418
0.616936
0.623951
0.636557
0.63916
0.620974
0.580488
0.525595
0.469612
0.425665
0.400913
0.391628
0.395971
0.412846
0.440272
0.476939
0.519198
0.559392
0.589254
0.602362
0.596838
0.576907
0.552187
0.534659
0.534404
0.554978
0.594356
0.64398
0.6922
0.728049
0.744361
0.739276
0.715928
0.680788
0.641465
0.604491
0.573486
0.550177
0.535356
0.529277
0.532091
0.543645
0.563401
0.591241
0.625904
0.663086
0.69754
0.724406
0.740589
0.745603
0.74147
0.7317
0.719845
0.708311
0.697733
0.687897
0.678375
0.668878
0.659474
0.650558
0.642691
0.636439
0.632396
0.631354
0.634369
0.642667
0.657288
0.680346
0.711331
0.742624
0.763223
0.762217
0.732889
0.675491
0.597337
0.510337
0.427393
0.358455
0.305327
0.26854
0.250468
0.252578
0.280005
0.341422
0.43481
0.541036
0.636202
0.698116
0.712076
0.673161
0.584412
0.452672
0.284862
0.0893738
-0.124968
-0.354224
-0.593651
-0.840897
-0.687827
0
1.22684
2.87851
4.69708
6.31855
7.34136
7.44085
6.5032
4.71543
2.53878
0.54678
-0.805385
-1.35646
-1.23595
-0.902929
-0.583101
-0.292711
-0.0440327
0.161719
0.337137
0.478168
0.581653
0.646292
0.673714
0.669209
0.641709
0.602808
0.564868
0.538569
0.529272
0.536657
0.557027
0.586263
0.619149
0.650735
0.677577
0.698568
0.715144
0.730874
0.750552
0.779048
0.819728
0.87428
0.942951
1.02478
1.11812
1.22118
1.33252
1.45136
1.57769
1.71271
1.85827
2.01598
2.18589
2.36197
2.52594
2.65397
2.71994
2.70045
2.58518
2.38763
2.1483
1.92463
1.76934
1.69085
1.65209
1.63571
1.62153
1.58832
1.51854
1.40202
1.23771
1.03314
0.801965
0.560435
0.323384
0.0986774
-0.109824
-0.296649
-0.45745
-0.590031
-0.693404
-0.767826
-0.814914
-0.837709
-0.840589
-0.828831
-0.8079
-0.783435
-0.759842
-0.739691
-0.723568
-0.710438
-0.69844
-0.685862
-0.671927
-0.657312
-0.644118
-0.634916
-0.631543
-0.634065
-0.640325
-0.646278
-0.647034
-0.638294
-0.617828
-0.586757
-0.547569
-0.505375
-0.466531
-0.437236
-0.422312
-0.424281
-0.442871
-0.47502
-0.515384
-0.55732
-0.594236
-0.621066
-0.633982
-0.632734
-0.623391
-0.61425
-0.612638
-0.622059
-0.640809
-0.662593
-0.678842
-0.681774
-0.668953
-0.643087
-0.60757
-0.566073
-0.523118
-0.483066
-0.449383
-0.424232
-0.408418
-0.401651
-0.402962
-0.411112
-0.424728
-0.442551
-0.463182
-0.484829
-0.505093
-0.520841
-0.528794
-0.526134
-0.511179
-0.483845
-0.445694
-0.399534
-0.348713
-0.296351
-0.244728
-0.195161
-0.148184
-0.103873
-0.0620525
-0.0225397
0.0147734
0.0499232
0.0828683
0.11343
0.141177
0.165402
0.185136
0.199277
0.206782
0.206835
0.198954
0.18302
0.159288
0.1286
0.0921188
0.0512282
0.00800993
-0.0349226
-0.0744678
-0.107096
-0.128169
-0.132718
-0.116167
-0.0744963
0
0.141369
0.341034
0.551778
0.713479
0.775651
0.717386
0.554829
0.333993
0.119022
0.42769
1.30136
2.69206
4.42189
6.1828
7.56897
8.17167
7.73067
6.26892
4.12392
1.83545
-0.0650468
-1.24903
-1.66844
-1.41251
-0.927817
-0.282274
0.420034
1.05443
1.42381
1.64767
1.82075
1.96355
2.08007
2.17627
2.25911
2.33572
2.41262
2.49483
2.58619
2.68963
2.80699
2.94035
3.09263
3.26504
3.44846
3.62143
3.76067
3.84745
3.87346
3.84425
3.77872
3.70456
3.65088
3.64037
3.67183
3.73434
3.82004
3.92407
4.04222
4.1701
4.30215
4.43119
4.54983
4.65152
4.73107
4.78522
4.81306
4.81614
4.79816
4.76419
4.71938
4.66777
4.61082
4.54721
4.47365
4.38538
4.27792
4.14849
3.99702
3.82638
3.64173
3.44939
3.25558
3.06493
2.88095
2.70648
2.54415
2.39722
2.26953
2.16456
2.08512
2.03283
2.00982
2.01331
2.03599
2.06928
2.10513
2.1378
2.16497
2.1879
2.21082
2.2396
2.27969
2.33419
2.40366
2.48638
2.57942
2.67702
2.77272
2.86053
2.93582
2.9956
3.03835
3.06347
3.07081
3.06059
3.03324
2.98987
2.93257
2.86457
2.79005
2.71381
2.64053
2.57395
2.51728
2.47293
2.44258
2.42647
2.42239
2.42662
2.43452
2.44121
2.44224
2.43406
2.41439
2.38224
2.33783
2.28268
2.21882
2.14843
2.07371
1.99666
1.91888
1.84139
1.76468
1.68872
1.61309
1.53726
1.46097
1.38462
1.30967
1.23921
1.17759
1.12955
1.09911
1.0885
1.09731
1.12234
1.15813
1.19817
1.2362
1.2678
1.29046
1.30383
1.30919
1.30859
1.30391
1.29605
1.28435
1.26622
1.23753
1.19364
1.13024
1.0445
0.936045
0.807398
0.663905
0.513041
0.363323
0.222489
0.0973154
-0.00730896
-0.0891266
-0.148447
-0.187866
-0.211232
-0.223819
-0.230809
-0.23643
-0.243447
-0.254359
-0.322556
0
0.849681
2.19933
3.82417
5.36979
6.44714
6.74221
6.12039
4.69841
2.84133
1.05467
-0.204564
-0.715267
-0.559795
-0.245836
0.0431425
0.314641
0.567837
0.809026
1.04715
1.29295
1.55764
1.85051
2.17657
2.53483
2.91792
3.31358
3.70482
4.07442
4.40827
4.69786
4.94135
5.14313
5.31212
5.45946
5.59632
5.73149
5.87041
6.01552
6.16657
6.32134
6.47658
6.62892
6.77556
6.91462
7.04502
7.16586
7.27553
7.37086
7.44813
7.50432
7.53748
7.54893
7.54482
7.53642
7.53862
7.56704
7.64087
7.8273
8.14144
8.48748
8.76097
8.89042
8.85731
8.69225
8.45199
8.18925
7.93066
7.67223
7.40577
7.12982
6.84466
6.55133
6.25219
5.95109
5.65332
5.36515
5.09311
4.84311
4.6198
4.42598
4.2625
4.12837
4.02109
3.9371
3.87276
3.82422
3.78643
3.754
3.72256
3.68943
3.65399
3.61762
3.58305
3.55329
3.53092
3.51699
3.50745
3.49514
3.47215
3.43235
3.37332
3.29702
3.20907
3.11714
3.02916
2.95035
2.88275
2.82743
2.7852
2.75627
2.739
2.72925
2.72173
2.71102
2.69245
2.66286
2.62102
2.56765
2.50497
2.436
2.36389
2.29107
2.2191
2.14882
2.08085
2.01593
1.95527
1.90042
1.85309
1.81467
1.78629
1.7673
1.75586
1.74931
1.74476
1.73953
1.73147
1.71896
1.7009
1.67684
1.64707
1.61303
1.57743
1.54425
1.51829
1.50433
1.50592
1.52739
1.57259
1.64087
1.72065
1.78988
1.82472
1.8046
1.71754
1.56456
1.36175
1.13807
0.928301
0.762526
0.643351
0.563347
0.517375
0.494678
0.482321
0.46829
0.443869
0.404825
0.351406
0.287467
0.219184
0.153454
0.0956104
0.0494412
0.0172804
0
0.00622582
0.0272781
0.0764993
0.271089
0.687345
1.44746
2.59555
3.99678
5.31187
6.07967
5.89768
4.62774
2.51668
0.141688
-1.81727
-2.8691
-2.77496
-2.13595
-1.47845
-0.947687
-0.65838
-0.614222
-0.607172
-0.607187
-0.601691
-0.582591
-0.548231
-0.501803
-0.445844
-0.382663
-0.314331
-0.24233
-0.167586
-0.0907572
-0.0125741
0.0658823
0.143197
0.218002
0.289457
0.357611
0.423466
0.488639
0.554753
0.622823
0.692801
0.762889
0.830346
0.892882
0.949944
1.00338
1.05707
1.11561
1.18252
1.25859
1.34129
1.42505
1.50295
1.56871
1.61845
1.65129
1.66893
1.67437
1.67026
1.65844
1.63942
1.61213
1.57475
1.52556
1.46327
1.38729
1.2977
1.19525
1.08126
0.956899
0.823311
0.681675
0.533176
0.379009
0.220394
0.0586167
-0.104895
-0.268464
-0.430058
-0.58722
-0.737108
-0.876671
-1.00297
-1.11357
-1.20692
-1.28253
-1.34131
-1.38562
-1.41868
-1.44399
-1.46478
-1.48356
-1.50185
-1.52024
-1.53847
-1.55588
-1.57165
-1.58513
-1.5959
-1.60383
-1.60889
-1.61098
-1.60958
-1.60332
-1.5899
-1.56671
-1.53118
-1.48147
-1.41731
-1.34042
-1.25453
-1.1649
-1.07746
-0.99771
-0.929779
-0.876475
-0.838965
-0.816934
-0.808892
-0.812355
-0.824293
-0.841777
-0.862004
-0.882514
-0.901474
-0.917953
-0.931903
-0.944075
-0.955916
-0.968965
-0.984225
-1.00173
-1.01978
-1.03471
-1.04176
-1.03625
-1.01479
-0.976206
-0.921917
-0.855599
-0.782296
-0.707274
-0.634538
-0.566087
-0.502207
-0.441568
-0.381424
-0.318149
-0.247593
-0.163829
-0.0579227
0.0737757
0.214476
0.338601
0.420584
0.443881
0.40727
0.32615
0.228631
0.147972
0.113617
0.127836
0.178679
0.263204
0.379527
0.513226
0.643152
0.749167
0.815913
0.835186
0.806729
0.737621
0.640533
0.531013
0.423961
0.328589
0.246661
0.17537
0.110938
0.0499054
-0.0111977
-0.0749554
-0.142486
-0.215236
-0.321977
0
0.884759
2.31347
4.02064
5.58007
6.53635
6.56176
5.58425
3.83602
1.78506
-0.0410425
-1.26071
-1.76637
-1.56866
-1.23355
-0.886103
-0.567354
-0.326656
-0.185037
-0.102226
-0.0691084
-0.0804981
-0.127167
-0.197502
-0.279131
-0.360168
-0.432403
-0.490888
-0.530857
-0.549529
-0.546626
-0.524487
-0.486428
-0.440205
-0.396212
-0.363846
-0.349475
-0.355146
-0.378373
-0.412949
-0.450472
-0.48206
-0.500236
-0.501576
-0.485079
-0.450111
-0.397206
-0.32852
-0.247667
-0.159355
-0.0689094
0.0183816
0.0978637
0.165942
0.219951
0.25777
0.278392
0.282016
0.269094
0.240134
0.195601
0.135828
0.0608822
-0.029608
-0.136536
-0.260887
-0.40302
-0.563002
-0.740674
-0.934611
-1.14197
-1.35861
-1.57951
-1.7992
-2.01244
-2.21453
-2.40168
-2.57125
-2.72177
-2.85302
-2.96586
-3.06206
-3.14415
-3.21509
-3.27789
-3.33505
-3.38807
-3.43699
-3.4801
-3.51372
-3.53214
-3.52921
-3.49913
-3.43786
-3.34436
-3.22148
-3.07604
-2.917
-2.75728
-2.61045
-2.48715
-2.39312
-2.32842
-2.28807
-2.26375
-2.24604
-2.22674
-2.20062
-2.16644
-2.1252
-2.07897
-2.03054
-1.98289
-1.93868
-1.89993
-1.8677
-1.84212
-1.82239
-1.80694
-1.79357
-1.77975
-1.76287
-1.74051
-1.71079
-1.67253
-1.62538
-1.56996
-1.50781
-1.44111
-1.37253
-1.30456
-1.23894
-1.17627
-1.11582
-1.05572
-0.993429
-0.926261
-0.851977
-0.769302
-0.677863
-0.578154
-0.471431
-0.35951
-0.244611
-0.129234
-0.0160973
0.0918802
0.191111
0.278101
0.350479
0.40691
0.447318
0.472821
0.485344
0.486378
0.477098
0.458805
0.432245
0.398255
0.35843
0.315405
0.272551
0.233196
0.199766
0.172569
0.150597
0.13279
0.117869
0.104536
0.0916813
0.0784763
0.0643822
0.0491478
0.0328835
0.0161434
0
-0.0109879
-0.0177715
-0.0182056
-0.0103951
0.00689468
0.0339134
0.0696384
0.11255
0.164851
0.208398
0.51435
1.32489
2.69798
4.4151
6.02224
6.99258
6.94526
5.81973
3.91967
1.7948
0.013887
-1.05198
-1.3264
-0.770667
-0.180746
0.389129
0.889507
1.27931
1.60339
1.89685
2.16654
2.42074
2.66757
2.91338
3.16148
3.41163
3.66059
3.90322
4.13363
4.34646
4.53777
4.70547
4.8493
4.9705
5.07139
5.15497
5.22455
5.28368
5.33607
5.38559
5.43613
5.49152
5.55521
5.63005
5.71797
5.81978
5.93505
6.06212
6.19826
6.3399
6.48294
6.62281
6.75414
6.87249
6.97488
7.06005
7.12857
7.18251
7.22449
7.25581
7.27412
7.27556
7.25332
7.20028
7.11221
6.98977
6.83823
6.66499
6.47607
6.2745
6.06223
5.83753
5.59876
5.34631
5.08355
4.81703
4.55575
4.30933
4.08655
3.8945
3.73986
3.62823
3.55668
3.51557
3.49333
3.47883
3.46321
3.44074
3.40879
3.36697
3.31609
3.25786
3.19375
3.12451
3.05054
2.97237
2.8909
2.8075
2.72396
2.64226
2.56433
2.49166
2.42504
2.36446
2.3092
2.2581
2.20995
2.16382
2.1193
2.0766
2.03651
2.00019
1.96892
1.94386
1.92567
1.91427
1.90861
1.90654
1.90474
1.89903
1.88505
1.85896
1.81825
1.76227
1.69254
1.61272
1.52826
1.44567
1.37157
1.31149
1.27046
1.25458
1.27556
1.3454
1.44273
1.52742
1.55645
1.49922
1.35161
1.14188
0.924027
0.759511
0.694274
0.726876
0.856434
1.03106
1.18976
1.28608
1.30324
1.25549
1.17697
1.10383
1.0576
1.03074
1.00932
0.984761
0.950164
0.902665
0.844386
0.781701
0.72313
0.676647
0.645044
0.627618
0.623417
0.629016
0.639764
0.650739
0.657546
0.656819
0.646376
0.62508
0.59255
0.54889
0.494659
0.430556
0.357412
0.275843
0.187509
0.0948074
0
-0.043465
0.328994
1.19941
2.52885
4.11863
5.66155
6.80797
7.23785
6.74497
5.33
3.25731
1.01209
-0.858256
-1.9528
-2.13629
-1.6587
-0.871057
-0.097912
0.444542
0.667104
0.742315
0.799637
0.852168
0.902248
0.951653
1.00248
1.05696
1.11717
1.1845
1.25929
1.34063
1.42646
1.51334
1.59768
1.67658
1.74851
1.81354
1.87311
1.92946
1.98499
2.0416
2.10038
2.16176
2.22568
2.29167
2.359
2.42675
2.49394
2.55975
2.62367
2.68573
2.74661
2.8075
2.86985
2.93491
3.00323
3.07455
3.14666
3.21554
3.2762
3.32336
3.35216
3.35852
3.33928
3.29228
3.21659
3.11445
2.98885
2.84422
2.68669
2.52338
2.3613
2.20578
2.05945
1.92311
1.79534
1.67308
1.55238
1.42942
1.30134
1.16704
1.02759
0.886308
0.748554
0.621222
0.511609
0.427455
0.382479
0.39488
0.469694
0.581184
0.692901
0.771718
0.796736
0.763964
0.686402
0.590062
0.506846
0.465681
0.474333
0.521721
0.594793
0.688379
0.793731
0.898479
0.989592
1.05637
1.09182
1.09344
1.06324
1.00719
0.933911
0.853139
0.774072
0.703542
0.644532
0.59773
0.563556
0.542479
0.534489
0.538382
0.55105
0.56762
0.582146
0.588845
0.583359
0.56386
0.531747
0.491687
0.4509
0.417766
0.400053
0.407045
0.448127
0.519216
0.599976
0.666305
0.698286
0.686646
0.635844
0.562901
0.492184
0.447606
0.44271
0.471669
0.52272
0.587244
0.659422
0.733698
0.804979
0.868596
0.918889
0.949342
0.954762
0.930359
0.872927
0.78231
0.662505
0.521817
0.371819
0.225327
0.0933842
-0.0190352
-0.107839
-0.171527
-0.210932
-0.228477
-0.227413
-0.211632
-0.184423
-0.14896
-0.108919
-0.0687791
-0.033785
-0.00925589
0
-0.00453739
-0.0298749
-0.0758756
-0.140403
-0.219657
-0.308698
-0.408322
-0.343278
0.0566082
0.942673
2.36883
4.1594
5.87858
6.95024
6.89962
5.60231
3.39318
0.948019
-1.018
-2.06743
-2.18611
-1.60771
-0.973948
-0.346004
0.18913
0.529783
0.766527
0.961329
1.11369
1.22502
1.30164
1.35365
1.39275
1.42963
1.47176
1.52143
1.577
1.63568
1.69419
1.74958
1.80008
1.84556
1.88759
1.9293
1.97489
2.02922
2.09736
2.18397
2.29271
2.42572
2.58301
2.76201
2.95897
3.16927
3.3875
3.60603
3.81329
3.99561
4.14228
4.24577
4.30338
4.31859
4.3013
4.26645
4.23107
4.21044
4.21287
4.23622
4.27857
4.33537
4.39465
4.43961
4.45326
4.42136
4.33514
4.1933
4.0025
3.77619
3.53183
3.28739
3.05472
2.83814
2.64111
2.46654
2.31552
2.18726
2.07927
1.98754
1.9065
1.82881
1.74697
1.65478
1.54876
1.42908
1.29981
1.16831
1.04382
0.935522
0.849825
0.793087
0.767801
0.770172
0.789648
0.813427
0.829746
0.830082
0.810359
0.771126
0.716903
0.654947
0.593734
0.540728
0.500186
0.473686
0.463736
0.469834
0.485933
0.502793
0.510746
0.502
0.47252
0.422888
0.357832
0.284533
0.210234
0.13976
0.0747551
0.0144494
-0.0431611
-0.0994687
-0.153683
-0.202291
-0.239878
-0.261017
-0.262451
-0.245012
-0.212881
-0.172857
-0.13235
-0.0972318
-0.070308
-0.0508525
-0.0352487
-0.0183963
0.00452698
0.0361892
0.0771685
0.126621
0.182757
0.243156
0.305061
0.365634
0.422006
0.471381
0.51126
0.539346
0.553614
0.552456
0.534867
0.500597
0.450257
0.385365
0.308361
0.22272
0.132611
0.0426262
-0.0423573
-0.117458
-0.178633
-0.22299
-0.246099
-0.248195
-0.235363
-0.214766
-0.191994
-0.168994
-0.143515
-0.110328
-0.0636925
0
0.0784475
0.166349
0.259238
0.352525
0.421595
0.49715
1.01555
2.15578
3.86972
5.82594
7.46777
8.19917
7.64007
5.82993
3.25251
0.646433
-1.30997
-2.26905
-2.27799
-1.74163
-1.03695
-0.436106
-0.013185
0.297865
0.585297
0.84378
1.08248
1.30287
1.50386
1.68089
1.83031
1.95127
2.04465
2.11312
2.16091
2.19337
2.21638
2.23566
2.25615
2.28142
2.31319
2.35202
2.39795
2.45062
2.50742
2.5634
2.61395
2.65666
2.69272
2.72707
2.76695
2.8192
2.88743
2.96947
3.05817
3.14728
3.23065
3.30319
3.36175
3.40514
3.4338
3.44901
3.4524
3.44526
3.42808
3.40068
3.3623
3.31166
3.2472
3.16754
3.07215
2.96051
2.83304
2.69116
2.5371
2.37356
2.2034
2.02884
1.85142
1.67189
1.49048
1.30719
1.12223
0.936436
0.751489
0.570032
0.395544
0.232069
0.0846953
-0.041665
-0.143866
-0.220398
-0.271727
-0.298855
-0.306077
-0.298509
-0.281032
-0.257466
-0.23024
-0.200666
-0.169614
-0.138234
-0.108622
-0.0835688
-0.0658131
-0.0570443
-0.0571144
-0.0638296
-0.0734379
-0.081656
-0.0848769
-0.0816353
-0.0725253
-0.0591135
-0.0440407
-0.0304668
-0.0214334
-0.0192897
-0.0252458
-0.0390948
-0.0591255
-0.0822624
-0.104459
-0.121338
-0.129131
-0.124714
-0.104723
-0.0736483
-0.0391935
-0.00907297
0.0123304
0.0262507
0.0397426
0.0636306
0.121985
0.246271
0.414713
0.575988
0.675108
0.677537
0.584051
0.432384
0.284846
0.204109
0.224564
0.303553
0.407811
0.508198
0.578386
0.60275
0.579769
0.51966
0.437893
0.348381
0.259867
0.175309
0.096138
0.0252883
-0.0334055
-0.0755591
-0.0940196
-0.0730629
-0.00569057
0.0862789
0.171711
0.221737
0.220763
0.171835
0.0943204
0.0155075
-0.039773
-0.060857
-0.0563197
-0.0345059
0
0.0410606
0.0884236
0.139935
0.197119
0.412804
0.918481
1.81753
3.16161
4.84875
6.55798
7.79531
8.07256
7.14894
5.189
2.72117
0.411894
-1.21072
-1.92765
-1.72062
-1.1387
-0.352406
0.38042
0.846289
0.952247
0.986744
1.0063
1.01808
1.02581
1.03322
1.04375
1.06033
1.08525
1.12006
1.16552
1.22174
1.28806
1.36344
1.44666
1.53614
1.62994
1.72588
1.82136
1.91386
2.00144
2.08323
2.15972
2.23271
2.30493
2.37938
2.45864
2.54411
2.63596
2.7333
2.83424
2.93608
3.03565
3.1296
3.21492
3.28939
3.35195
3.40292
3.44406
3.47835
3.50959
3.54163
3.57802
3.62205
3.67363
3.72431
3.76049
3.767
3.73067
3.64298
3.50088
3.306
3.06335
2.7806
2.47375
2.15618
1.83722
1.52529
1.22865
0.954707
0.709364
0.496395
0.31715
0.170511
0.0533502
-0.0386416
-0.111272
-0.172092
-0.228167
-0.2851
-0.346212
-0.412801
-0.482184
-0.54786
-0.601809
-0.63657
-0.647043
-0.63153
-0.591869
-0.532805
-0.460948
-0.3838
-0.308248
-0.240423
-0.185008
-0.14484
-0.120559
-0.110566
-0.111442
-0.118848
-0.128717
-0.138369
-0.147223
-0.156436
-0.168215
-0.185024
-0.20873
-0.239982
-0.278037
-0.321057
-0.366772
-0.413242
-0.459459
-0.505526
-0.552321
-0.600946
-0.652025
-0.705049
-0.757943
-0.806557
-0.844207
-0.863362
-0.856573
-0.817876
-0.744115
-0.63586
-0.49774
-0.338055
-0.167756
0.00105815
0.156811
0.289712
0.39274
0.46213
0.497311
0.500398
0.475408
0.427423
0.361934
0.284828
0.201878
0.117884
0.0373864
-0.0352458
-0.0961015
-0.142037
-0.170946
-0.181894
-0.175076
-0.151599
-0.113183
-0.0618731
0
0.0765617
0.159518
0.247137
0.337919
0.430607
0.524218
0.618059
0.711367
0.79296
1.08635
1.7893
3.02001
4.69076
6.43523
7.67678
7.85179
6.69774
4.43588
1.71375
-0.682385
-2.17985
-2.62616
-2.22714
-1.47875
-0.665016
0.0161971
0.443175
0.558936
0.599943
0.613052
0.599538
0.563979
0.51297
0.453278
0.39021
0.326378
0.262064
0.19646
0.128435
0.0569346
-0.0187162
-0.0986128
-0.182286
-0.268841
-0.357123
-0.445804
-0.533227
-0.616688
-0.691312
-0.751026
-0.789158
-0.799528
-0.778247
-0.725109
-0.643967
-0.541949
-0.427925
-0.310873
-0.197895
-0.0932129
1.05143e-005
0.0804601
0.148942
0.208395
0.263424
0.319231
0.381605
0.454848
0.528178
0.579906
0.584369
0.52144
0.384266
0.181729
-0.0651816
-0.330936
-0.593302
-0.843869
-1.08252
-1.30786
-1.51922
-1.71673
-1.90093
-2.0724
-2.23148
-2.37801
-2.51137
-2.63067
-2.73446
-2.82045
-2.88822
-2.93963
-2.97728
-3.00374
-3.02078
-3.02923
-3.02929
-3.02081
-3.00454
-2.98416
-2.96419
-2.94797
-2.93587
-2.92471
-2.90875
-2.88202
-2.84045
-2.78503
-2.71898
-2.64411
-2.56219
-2.47453
-2.38074
-2.28088
-2.18131
-2.09409
-2.03357
-2.01061
-2.02722
-2.07481
-2.13699
-2.19538
-2.23551
-2.25575
-2.26032
-2.25156
-2.23047
-2.19817
-2.15576
-2.10439
-2.0453
-1.97982
-1.9096
-1.83597
-1.75967
-1.68067
-1.59842
-1.51244
-1.42299
-1.33157
-1.24123
-1.15611
-1.08058
-1.01823
-0.971045
-0.938972
-0.919933
-0.910233
-0.90523
-0.900123
-0.891032
-0.875295
-0.85076
-0.816822
-0.776759
-0.73776
-0.707829
-0.693375
-0.697043
-0.716522
-0.74482
-0.771973
-0.787646
-0.784261
-0.760796
-0.719408
-0.661017
-0.58693
-0.49828
-0.395533
-0.278482
-0.146661
0
0.147024
0.305764
0.472634
0.643972
0.816912
0.705022
0.906472
1.74888
3.24466
5.05519
6.60822
7.33444
6.91218
5.41213
3.27493
1.1298
-0.464938
-1.23293
-1.21401
-0.745165
-0.292703
0.0937333
0.363332
0.494254
0.575956
0.638871
0.691078
0.737195
0.781091
0.825834
0.872481
0.917706
0.954069
0.972513
0.965319
0.928852
0.865321
0.783045
0.69521
0.617514
0.564776
0.545239
0.560605
0.610057
0.694548
0.813709
0.964836
1.14201
1.34205
1.55499
1.76124
1.94186
2.08304
2.17958
2.23599
2.26453
2.28122
2.30101
2.33771
2.39701
2.45969
2.49574
2.47671
2.38724
2.23227
2.03695
1.83875
1.67386
1.55927
1.4771
1.41779
1.36437
1.29756
1.20084
1.06452
0.887918
0.678998
0.451626
0.221467
0.000264168
-0.208351
-0.404095
-0.587576
-0.76152
-0.930072
-1.09799
-1.27041
-1.45437
-1.66356
-1.9184
-2.20792
-2.48524
-2.68819
-2.76121
-2.68423
-2.48761
-2.24048
-2.02003
-1.88237
-1.81453
-1.78059
-1.76515
-1.76317
-1.7722
-1.7901
-1.81531
-1.84641
-1.88223
-1.92152
-1.96272
-2.00375
-2.04218
-2.07553
-2.10174
-2.11982
-2.13005
-2.13353
-2.13239
-2.12985
-2.12942
-2.13385
-2.14433
-2.16003
-2.17807
-2.19401
-2.20268
-2.19942
-2.18112
-2.14802
-2.10262
-2.04828
-1.98898
-1.92924
-1.8731
-1.82319
-1.78013
-1.74252
-1.70721
-1.6701
-1.62571
-1.56674
-1.49205
-1.41616
-1.36071
-1.34614
-1.38295
-1.46608
-1.57486
-1.67887
-1.74765
-1.76413
-1.73965
-1.69016
-1.62275
-1.5469
-1.47125
-1.40148
-1.33901
-1.28094
-1.22119
-1.15259
-1.0692
-0.968341
-0.852669
-0.727224
-0.597635
-0.469904
-0.349597
-0.241028
-0.146625
-0.066781
0
0.0632805
0.0968393
0.288865
1.04
2.5303
4.62824
6.85906
8.56731
9.19803
8.54831
6.8547
4.67471
2.63494
1.18393
0.471906
0.391952
0.77075
1.11442
1.44163
1.7444
2.01809
2.26802
2.49779
2.71241
2.91811
3.12113
3.32659
3.5376
3.7549
3.97749
4.20101
4.41342
4.59934
4.74427
4.83854
4.88104
4.88134
4.85895
4.83913
4.84652
4.89854
4.98922
5.10624
5.24098
5.38707
5.53523
5.67547
5.79986
5.90388
5.9871
6.053
6.10808
6.16021
6.21681
6.28316
6.36051
6.44779
6.5414
6.63577
6.7238
6.79633
6.84289
6.8547
6.82397
6.74472
6.61403
6.43309
6.20765
5.94737
5.66421
5.37084
5.07699
4.78803
4.50756
4.23771
3.97953
3.73359
3.50033
3.28042
3.07483
2.88488
2.71208
2.55812
2.42459
2.31275
2.22348
2.15808
2.11699
2.09505
2.07911
2.05364
2.0041
1.92062
1.80087
1.65097
1.48399
1.31647
1.16382
1.03238
0.925953
0.843704
0.781257
0.732561
0.691726
0.654261
0.617482
0.580213
0.542154
0.503345
0.463736
0.423079
0.381027
0.337254
0.291578
0.24405
0.195012
0.14506
0.094956
0.0454689
-0.00277004
-0.0494404
-0.0945906
-0.138422
-0.180959
-0.221706
-0.259441
-0.292245
-0.317813
-0.333933
-0.339418
-0.333754
-0.317337
-0.291205
-0.257409
-0.218141
-0.175293
-0.130186
-0.0835854
-0.0359722
0.0120512
0.0590395
0.102326
0.13824
0.16273
0.172309
0.165011
0.141067
0.103078
0.0556357
0.00446978
-0.0447524
-0.0879067
-0.122752
-0.148094
-0.164311
-0.172749
-0.175071
-0.172632
-0.166054
-0.155094
-0.138802
-0.115879
-0.0853242
-0.0467016
0
0.0595781
0.124926
0.194044
0.264614
0.334576
0.40254
0.468034
0.530186
0.578421
1.01774
1.92869
3.25336
4.81961
6.38785
7.67379
8.3604
8.15948
6.94719
4.90403
2.53501
0.499269
-0.681712
-0.860179
-0.231229
0.474728
1.06685
1.41019
1.59247
1.7921
2.00152
2.21828
2.44128
2.66777
2.89307
3.10973
3.30642
3.47296
3.6032
3.69541
3.75337
3.78639
3.80762
3.83081
3.86625
3.91792
3.98154
4.05185
4.12385
4.19585
4.2707
4.35483
4.45537
4.57695
4.7182
4.87183
5.0319
5.19351
5.35251
5.50613
5.65294
5.79232
5.92276
6.04207
6.14753
6.2354
6.3018
6.34352
6.35853
6.34601
6.30599
6.23896
6.14695
6.0333
5.90052
5.75034
5.58481
5.40612
5.21634
5.01711
4.8093
4.5933
4.36927
4.1375
3.89881
3.65475
3.40769
3.16073
2.91745
2.68169
2.4572
2.24748
2.05556
1.884
1.73477
1.6092
1.50784
1.43066
1.37753
1.34709
1.33462
1.33147
1.32826
1.31669
1.2914
1.25122
1.1996
1.14384
1.09343
1.05783
1.04241
1.05499
1.10002
1.16902
1.24337
1.30284
1.33065
1.3173
1.26233
1.17388
1.06629
0.95618
0.857223
0.774282
0.705324
0.646317
0.593167
0.54086
0.484656
0.421135
0.348865
0.268593
0.182978
0.096058
0.0125615
-0.0621783
-0.121456
-0.156733
-0.161617
-0.130826
-0.0612053
0.0468384
0.188238
0.353134
0.528055
0.698195
0.850115
0.974229
1.06559
1.1241
1.15382
1.16193
1.15795
1.15243
1.15513
1.17483
1.22692
1.33243
1.47577
1.62105
1.7284
1.76916
1.73523
1.6388
1.50415
1.35744
1.21979
1.0985
0.992426
0.900473
0.82209
0.756506
0.701429
0.652718
0.604975
0.552171
0.488443
0.406015
0.287928
0.116839
-0.0804688
-0.255975
-0.358972
-0.353011
-0.227686
0
0.295073
0.66393
1.07144
1.68527
2.66947
4.02615
5.52805
6.76354
7.2791
6.77155
5.25074
3.0843
0.872614
-0.802894
-1.62576
-1.50589
-1.07283
-0.618163
-0.212104
0.0795789
0.216887
0.292099
0.3392
0.361025
0.360371
0.340733
0.306239
0.261649
0.212228
0.163248
0.119864
0.0868701
0.0682006
0.0674225
0.0872701
0.129381
0.19415
0.280668
0.386753
0.509107
0.643564
0.785366
0.92963
1.07196
1.20851
1.33615
1.45264
1.55648
1.64647
1.72202
1.78425
1.83502
1.87693
1.91318
1.94732
1.98271
2.02193
2.06611
2.11457
2.16463
2.21253
2.25365
2.2831
2.29626
2.28917
2.25879
2.2033
2.12252
2.0175
1.89077
1.74609
1.58799
1.42106
1.24935
1.07551
0.900835
0.725526
0.549229
0.371697
0.193388
0.015819
-0.158445
-0.326122
-0.483746
-0.628176
-0.75687
-0.86771
-0.958698
-1.02828
-1.07586
-1.10072
-1.10195
-1.07875
-1.03076
-0.958463
-0.8636
-0.749435
-0.619898
-0.479748
-0.341646
-0.220621
-0.12976
-0.0767555
-0.0616377
-0.0767675
-0.109305
-0.14521
-0.173192
-0.18942
-0.195453
-0.193154
-0.184062
-0.16982
-0.151975
-0.131881
-0.110797
-0.0901358
-0.0717558
-0.0579774
-0.0511346
-0.0531043
-0.064683
-0.0851114
-0.111969
-0.141542
-0.169635
-0.19261
-0.208175
-0.21581
-0.218105
-0.219783
-0.225969
-0.240477
-0.264473
-0.295933
-0.330121
-0.360971
-0.382992
-0.391252
-0.384882
-0.371872
-0.363776
-0.371018
-0.398308
-0.442032
-0.490703
-0.528288
-0.539117
-0.516065
-0.464141
-0.387427
-0.288851
-0.173661
-0.0488673
0.0749021
0.181907
0.257197
0.287105
0.261741
0.179036
0.048282
-0.109485
-0.265639
-0.391823
-0.472849
-0.51526
-0.516419
-0.487818
-0.449426
-0.42137
-0.418677
-0.447622
-0.504365
-0.576167
-0.645034
-0.693009
-0.709339
-0.695737
-0.660516
-0.611117
-0.55253
-0.489394
-0.425277
-0.364246
-0.340619
0
0.822545
2.21526
4.073
6.02719
7.49856
7.91062
6.96741
4.83206
2.0842
-0.527435
-2.39012
-3.22676
-3.08967
-2.34506
-1.32475
-0.337403
0.414276
0.725894
0.82964
0.900594
0.941087
0.950598
0.931712
0.890652
0.837476
0.78554
0.749917
0.744796
0.779474
0.853149
0.957423
1.08856
1.23522
1.38336
1.51981
1.6345
1.722
1.78189
1.81846
1.83974
1.85626
1.87931
1.91955
1.98585
2.08406
2.21525
2.37487
2.55706
2.75599
2.96553
3.17833
3.38214
3.56241
3.70683
3.80639
3.85727
3.8621
3.82975
3.7733
3.70674
3.64126
3.58153
3.52601
3.47108
3.41196
3.34302
3.25861
3.15411
3.02677
2.87628
2.70496
2.51749
2.3202
2.12021
1.92417
1.73766
1.56481
1.4082
1.26908
1.14787
1.04452
0.958851
0.890551
0.839128
0.803881
0.783692
0.776128
0.776466
0.778876
0.778226
0.771263
0.757353
0.738485
0.718483
0.701694
0.691604
0.689483
0.694282
0.704639
0.718843
0.735293
0.752855
0.770885
0.788965
0.806492
0.822251
0.834284
0.840161
0.837478
0.824521
0.800822
0.767466
0.727035
0.683218
0.640194
0.601818
0.570781
0.548473
0.535355
0.530803
0.533175
0.5401
0.548671
0.555782
0.558505
0.554407
0.541814
0.520051
0.489606
0.452219
0.410459
0.36864
0.332316
0.3068
0.296142
0.302362
0.325225
0.362629
0.411434
0.46837
0.530481
0.59535
0.661608
0.72813
0.79386
0.857903
0.919621
0.978661
1.03478
1.08681
1.13228
1.16745
1.18697
1.18512
1.15754
1.10283
1.02344
0.925582
0.81814
0.711038
0.612039
0.525742
0.455585
0.40391
0.371712
0.358978
0.364999
0.38853
0.428835
0.486916
0.558898
0.634054
0.699617
0.743231
0.75553
0.731745
0.671797
0.579168
0.45932
0.319408
0.167576
0.00953789
-0.153313
0
0.644451
1.81732
3.43592
5.26907
6.93526
7.96035
7.93849
6.75348
4.71291
2.45874
0.660684
-0.318147
-0.548219
-0.303265
-0.00104399
0.313976
0.633461
0.939735
1.21728
1.45523
1.6419
1.77198
1.84765
1.87799
1.87705
1.86118
1.84637
1.84393
1.85988
1.89706
1.95536
2.0321
2.12329
2.22418
2.32953
2.43422
2.53398
2.62601
2.70937
2.7851
2.85608
2.92663
3.00188
3.08703
3.18655
3.30347
3.43887
3.59161
3.75842
3.9346
4.11233
4.28104
4.43031
4.55132
4.6378
4.68649
4.69703
4.67157
4.61414
4.53001
4.4252
4.3063
4.17897
4.04727
3.91351
3.77822
3.64049
3.49817
3.34846
3.1885
3.01597
2.82968
2.62976
2.41781
2.19681
1.97098
1.74547
1.52615
1.3192
1.13048
0.965364
0.830189
0.731505
0.667946
0.625717
0.587627
0.537769
0.466018
0.370823
0.259404
0.145398
0.0448773
-0.02947
-0.0759407
-0.0945321
-0.0851572
-0.0488771
0.0149911
0.100074
0.189432
0.26556
0.313539
0.323866
0.29402
0.228127
0.134961
0.0252769
-0.0903801
-0.203509
-0.309592
-0.405614
-0.488515
-0.555904
-0.606402
-0.639849
-0.657385
-0.66133
-0.654859
-0.641534
-0.62481
-0.607612
-0.592001
-0.57918
-0.569401
-0.561986
-0.555352
-0.547068
-0.534017
-0.512711
-0.479794
-0.432624
-0.367232
-0.279762
-0.172942
-0.0621398
0.0328921
0.0946888
0.113549
0.0908973
0.0392564
-0.0213894
-0.0697287
-0.0896217
-0.0806135
-0.0515829
-0.00977883
0.0389824
0.0875712
0.127743
0.152675
0.15791
0.142086
0.10732
0.0590672
0.00526886
-0.0451651
-0.084242
-0.107013
-0.114466
-0.108973
-0.0930842
-0.0713704
-0.049894
-0.0339525
-0.026945
-0.029717
-0.0405009
-0.0554829
-0.0698619
-0.0791138
-0.080093
-0.0726105
-0.0561052
0
0.267515
0.891151
1.9801
3.46737
5.07198
6.352
6.84668
6.27361
4.69243
2.52732
0.397131
-1.16666
-1.94225
-1.95894
-1.70028
-1.26812
-0.763395
-0.230108
0.236447
0.506636
0.655205
0.747914
0.80191
0.823596
0.823132
0.812217
0.801537
0.79834
0.804851
0.820699
0.845493
0.879031
0.92169
0.97471
1.04002
1.11964
1.21491
1.32575
1.45006
1.58444
1.72479
1.86686
2.00695
2.14246
2.27218
2.39615
2.51534
2.63126
2.74553
2.85959
2.97456
3.09119
3.20984
3.33058
3.45332
3.57785
3.70393
3.83137
3.95986
4.08814
4.21074
4.31484
4.38117
4.38814
4.31949
4.17175
3.95745
3.70189
3.43447
3.17881
2.93963
2.71229
2.4949
2.28607
2.08441
1.88906
1.70002
1.51823
1.34547
1.18456
1.03918
0.912278
0.806323
0.72289
0.662407
0.624107
0.606212
0.606265
0.621497
0.649014
0.685624
0.728488
0.775021
0.822406
0.867713
0.908236
0.941837
0.967296
0.984555
0.994814
1.00045
1.00481
1.01185
1.02556
1.04954
1.088
1.14906
1.2399
1.34452
1.43838
1.49746
1.50829
1.47408
1.41305
1.3492
1.30081
1.27309
1.25435
1.23785
1.21871
1.19519
1.16901
1.1443
1.12578
1.11608
1.1149
1.1214
1.1343
1.15155
1.17026
1.18695
1.19844
1.20258
1.1989
1.18892
1.17612
1.16543
1.16238
1.17206
1.19757
1.23948
1.29882
1.37756
1.4738
1.57382
1.6588
1.71055
1.71628
1.67249
1.58616
1.4727
1.35134
1.23993
1.14653
1.07013
1.00852
0.959934
0.922297
0.89266
0.867087
0.841698
0.813413
24
192
363
547
742
925
1105
1291
1476
1659
1841
2019
2194
2364
2533
2702
2874
3052
3235
3419
3594
3070
3218
3366
3520
3676
2890
3055
3132
3215
3245
3309
3365
3526
3581
3685
2754
2816
2921
3033
3084
3248
3339
3410
3487
3576
3208
3249
3298
3415
3467
3538
3575
3635
3526
3597
3691
0
0
0
0
0
0
0
0
0
0
0
0
0
0
0
0
0
0
0
0
0
0
0
0
0
0
0
0
0
0
0
0
0
0
0
0
0
0
0
0
0
0
0
0
0
0
0
0
0
0
0
0
0
0
0
0
0
0
0
0
0
0
0
0
0
0
0
0
0
0
0
0
0
0
0
0
0
0
0
0
0
0
0
0
0
0
0
0
0
0
0
0
0
0
0
0
0
0
0
0
0
0
0
0
0
0
0
0
0
0
0
0
0
0
0
0
0
0
0
0
0
0
0
0
0
0
0
0
0
0
0
0
0
0
0
0
0
0
0
0
0
0
0
0
0
0
0
0
0
0
0
0
0
0
0
0
0
0
0
0
0
0
0
0
0
0
0
0
0
0
0
0
0
0
0
0
0
0
0
0
0
0
0
0
0
0
0
0
0
0
0
0
0
0
0
0
0
0
0
0
0
0
0
0
0
0
0
0
0
0
0
0
0
0
0
0
0
0
0
0
0
0
0
0
0
0
0
0
0
0
0
0
0
0
0
0
0
0
0
0
0
0
0
0
0
0
0
0
0
0
0
0
0
0
0
0
0
0
0
0
0
0
0
0
0
0
0
0
0
0
0
0
0
0
0
0
0
0
0
0
0
0
0
0
0
0
0
0
0
0
0
0
0
0
0
0
0
0
0
0
0
0
0
0
0
0
0
0
0
0
0
0
0
0
0
0
0
0
0
0
0
0
0
0
0
0
0
0
0
0
0
0
0
0
0
0
0
0
0
0
0
0
0
0
0
0
0
0
0
0
0
0
0
0
0
0
0
0
0
0
0
0
0
0
0
0
0
0
0
0
0
0
0
0
0
0
0
0
0
0
0
0
0
0
0
0
0
0
0
0
0
0
0
0
0
0
0
0
0
0
0
0
0
0
0
0
0
0
0
0
0
0
0
0
0
0
0
0
0
0
0
0
0
0
0
0
0
0
0
0
0
0
0
0
0
0
0
0
0
0
0
0
0
0
0
0
0
0
0
0
0
0
0
0
0
0
0
0
0
0
0
0
0
0
0
0
0
0
0
0
0
0
0
0
0
0
0
0
0
0
0
0
0
0
0
0
0
0
0
0
0
0
0
0
0
0
0
0
0
0
0
0
0
0
0
0
0
0
0
0
0
0
0
0
0
0
0
0
0
0
0
0
0
0
0
0
0
0
0
0
0
0
0
0
0
0
0
0
0
0
0
0
0
0
0
0
0
0
0
0
0
0
0
0
0
0
0
0
0
0
0
0
0
0
0
0
0
0
0
0
0
0
0
0
0
0
0
0
0
0
0
0
0
0
0
0
0
0
0
0
0
0
0
0
0
0
0
0
0
0
0
0
0
0
0
0
0
0
0
0
0
0
0
0
0
0
0
0
0
0
0
0
0
0
0
0
0
0
0
0
0
0
0
0
0
0
0
0
0
0
0
0
0
0
0
0
0
0
0
0
0
0
0
0
0
0
0
0
0
0
0
0
0
0
0
0
0
0
0
0
0
0
0
0
0
0
0
0
0
0
0
0
0
0
0
0
0
0
0
0
0
0
0
0
0
0
0
0
0
0
0
0
0
0
0
0
0
0
0
0
0
0
0
0
0
0
0
0
0
0
0
0
0
0
0
0
0
0
0
0
0
0
0
0
0
0
0
0
0
0
0
0
0
0
0
0
0
0
0
0
0
0
0
0
0
0
0
0
0
0
0
0
0
0
0
0
0
0
0
0
0
0
0
0
0
0
0
0
0
0
0
0
0
0
0
0
0
0
0
0
0
0
0
0
0
0
0
0
0
0
0
0
0
0
0
0
0
0
0
0
0
0
0
0
0
0
0
0
0
0
0
0
0
0
0
0
0
0
0
0
0
0
0
0
0
0
0
0
0
0
0
0
0
0
0
0
0
0
0
0
0
0
0
0
0
0
0
0
0
0
0
0
0
0
0
0
0
0
0
0
0
0
0
0
0
0
0
0
0
0
0
0
0
0
0
0
0
0
0
0
0
0
0
0
0
0
0
0
0
0
0
0
0
0
0
0
0
0
0
0
0
0
0
0
0
0
0
0
0
0
0
0
0
0
0
0
0
0
0
0
0
0
0
0
0
0
0
0
0
0
0
0
0
0
0
0
0
0
0
0
0
0
0
0
0
0
0
0
0
0
0
0
0
0
0
0
0
0
0
0
0
0
0
0
0
0
0
0
0
0
0
0
0
0
0
0
0
0
0
0
0
0
0
0
0
0
0
0
0
0
0
0
0
0
0
0
0
0
0
0
0
0
0
0
0
0
0
0
0
0
0
0
0
0
0
0
0
0
0
0
0
0
0
0
0
0
0
0
0
0
0
0
0
0
0
0
0
0
0
0
0
0
0
0
0
0
0
0
0
0
0
0
0
0
0
0
0
0
0
0
0
0
0
0
0
0
0
0
0
0
0
0
0
0
0
0
0
0
0
0
0
0
0
0
0
0
0
0
0
0
0
0
0
0
0
0
0
0
0
0
0
0
0
0
0
0
0
0
0
0
0
0
0
0
0
0
0
0
0
0
0
0
0
0
0
0
0
0
0
0
0
0
0
0
0
0
0
0
0
0
0
0
0
0
0
0
0
0
0
0
0
0
0
0
0
0
0
0
0
0
0
0
0
0
0
0
0
0
0
0
0
0
0
0
0
0
0
0
0
0
0
0
0
0
0
0
0
0
0
0
0
0
0
0
0
0
0
0
0
0
0
0
0
0
0
0
0
0
0
0
0
0
0
0
0
0
0
0
0
0
0
0
0
0
0
0
0
0
0
0
0
0
0
0
0
0
0
0
0
0
0
0
0
0
0
0
0
0
0
0
0
0
0
0
0
0
0
0
0
0
0
0
0
0
0
0
0
0
0
0
0
0
0
0
0
0
0
0
0
0
0
0
0
0
0
0
0
0
0
0
0
0
0
0
0
0
0
0
0
0
0
0
0
0
0
0
0
0
0
0
0
0
0
0
0
0
0
0
0
0
0
0
0
0
0
0
0
0
0
0
0
0
0
0
0
0
0
0
0
0
0
0
0
0
0
0
0
0
0
0
0
0
0
0
0
0
0
0
0
0
0
0
0
0
0
0
0
0
0
0
0
0
0
0
0
0
0
0
0
0
0
0
0
0
0
0
0
0
0
0
0
0
0
0
0
0
0
0
0
0
0
0
0
0
0
0
0
0
0
0
0
0
0
0
0
0
0
0
0
0
0
0
0
0
0
0
0
0
0
0
0
0
0
0
0
0
0
0
0
0
0
0
0
0
0
0
0
0
0
0
0
0
0
0
0
0
0
0
0
0
0
0
0
0
0
0
0
0
0
0
0
0
0
0
0
0
0
0
0
0
0
0
0
0
0
0
0
0
0
0
0
0
0
0
0
0
0
0
0
0
0
0
0
0
0
0
0
0
0
0
0
0
0
0
0
0
0
0
0
0
0
0
0
0
0
0
0
0
0
0
0
0
0
0
0
0
0
0
0
0
0
0
0
0
0
0
0
0
0
0
0
0
0
0
0
0
0
0
0
0
0
0
0
0
0
0
0
0
0
0
0
0
0
0
0
0
0
0
0
0
0
0
0
0
0
0
0
0
0
0
0
0
0
0
0
0
0
0
0
0
0
0
0
0
0
0
0
0
0
0
0
0
0
0
0
0
0
0
0
0
0
0
0
0
0
0
0
0
0
0
0
0
0
0
0
0
0
0
0
0
0
0
0
0
0
0
0
0
0
0
0
0
0
0
0
0
0
0
0
0
0
0
0
0
0
0
0
0
0
0
0
0
0
0
0
0
0
0
0
0
0
0
0
0
0
0
0
0
0
0
0
0
0
0
0
0
0
0
0
0
0
0
0
0
0
0
0
0
0
0
0
0
0
0
0
0
0
0
0
0
0
0
0
0
0
0
0
0
0
0
0
0
0
0
0
0
0
0
0
0
0
0
0
0
0
0
0
0
0
0
0
0
0
0
0
0
0
0
0
0
0
0
0
0
0
0
0
0
0
0
0
0
0
0
0
0
0
0
0
0
0
0
0
0
0
0
0
0
0
0
0
0
0
0
0
0
0
0
0
0
0
0
0
0
0
0
0
0
0
0
0
0
0
0
0
0
0
0
0
0
0
0
0
0
0
0
0
0
0
0
0
0
0
0
0
0
0
0
0
0
0
0
0
0
0
0
0
0
0
0
0
0
0
0
0
0
0
0
0
0
0
0
0
0
0
0
0
0
0
0
0
0
0
0
0
0
0
0
0
0
0
0
0
0
0
0
0
0
0
0
0
0
0
0
0
0
0
0
0
0
0
0
0
0
0
0
0
0
0
0
0
0
0
0
0
0
0
0
0
0
0
0
0
0
0
0
0
0
0
0
0
0
0
0
0
0
0
0
0
0
0
0
0
0
0
0
0
0
0
0
0
0
0
0
0
0
0
0
0
0
0
0
0
0
0
0
0
0
0
0
0
0
0
0
0
0
0
0
0
0
0
0
0
0
0
0
0
0
0
0
0
0
0
0
0
0
0
0
0
0
0
0
0
0
0
0
0
0
0
0
0
0
0
0
0
0
0
0
0
0
0
0
0
0
0
0
0
0
0
0
0
0
0
0
0
0
0
0
0
0
0
0
0
0
0
0
0
0
0
0
0
0
0
0
0
0
0
0
0
0
0
0
0
0
0
0
0
0
0
0
0
0
0
0
0
0
0
0
0
0
0
0
0
0
0
0
0
0
0
0
0
0
0
0
0
0
0
0
0
0
0
0
0
0
0
0
0
0
0
0
0
0
0
0
0
0
0
0
0
0
0
0
0
0
0
0
0
0
0
0
0
0
0
0
0
0
0
0
0
0
0
0
0
0
0
0
0
0
0
0
0
0
0
0
0
0
0
0
0
0
0
0
0
0
0
0
0
0
0
0
0
0
0
0
0
0
0
0
0
0
0
0
0
0
0
0
0
0
0
0
0
0
0
0
0
0
0
0
0
0
0
0
0
0
0
0
0
0
0
0
0
0
0
0
0
0
0
0
0
0
0
0
0
0
0
0
0
0
0
0
0
0
0
0
0
0
0
0
0
0
0
0
0
0
0
0
0
0
0
0
0
0
0
0
0
0
0
0
0
0
0
0
0
0
0
0
0
0
0
0
0
0
0
0
0
0
0
0
0
0
0
0
0
0
0
0
0
0
0
0
0
0
0
0
0
0
0
0
0
0
0
0
0
0
0
0
0
0
0
0
0
0
0
0
0
0
0
0
0
0
0
0
0
0
0
0
0
0
0
0
0
0
0
0
0
0
0
0
0
0
0
0
0
0
0
0
0
0
0
0
0
0
0
0
0
0
0
0
0
0
0
0
0
0
0
0
0
0
0
0
0
0
0
0
0
0
0
0
0
0
0
0
0
0
0
0
0
0
0
0
0
0
0
0
0
0
0
0
0
0
0
0
0
0
0
0
0
0
0
0
0
0
0
0
0
0
0
0
0
0
0
0
0
0
0
0
0
0
0
0
0
0
0
0
0
0
0
0
0
0
0
0
0
0
0
0
0
0
0
0
0
0
0
0
0
0
0
0
0
0
0
0
0
0
0
0
0
0
0
0
0
0
0
0
0
0
0
0
0
0
0
0
0
0
0
0
0
0
0
0
0
0
0
0
0
0
0
0
0
0
0
0
0
0
0
0
0
0
0
0
0
0
0
0
0
0
0
0
0
0
0
0
0
0
0
0
0
0
0
0
0
0
0
0
0
0
0
0
0
0
0
0
0
0
0
0
0
0
0
0
0
0
0
0
0
0
0
0
0
0
0
0
0
0
0
0
0
0
0
0
0
0
0
0
0
0
0
0
0
0
0
0
0
0
0
0
0
0
0
0
0
0
0
0
0
0
0
0
0
0
0
0
0
0
0
0
0
0
0
0
0
0
0
0
0
0
0
0
0
0
0
0
0
0
0
0
0
0
0
0
0
0
0
0
0
0
0
0
0
0
0
0
0
0
0
0
0
0
0
0
0
0
0
0
0
0
0
0
0
0
0
0
0
0
0
0
0
0
0
0
0
0
0
0
0
0
0
0
0
0
0
0
0
0
0
0
0
0
0
0
0
0
0
0
0
0
0
0
0
0
0
0
0
0
0
0
0
0
0
0
0
0
0
0
0
0
0
0
0
0
0
0
0
0
0
0
0
0
0
0
0
0
0
0
0
0
0
0
0
0
0
0
0
0
0
0
0
0
0
0
0
0
0
0
0
0
0
0
0
0
0
0
0
0
0
0
0
0
0
0
0
0
0
0
0
0
0
0
0
0
0
0
0
0
0
0
0
0
0
0
0
0
0
0
0
0
0
0
0
0
0
0
0
0
0
0
0
0
0
0
0
0
0
0
0
0
0
0
0
0
0
0
0
0
0
0
0
0
0
0
0
0
0
0
0
0
0
0
0
0
0
0
0
0
0
0
0
0
0
0
0
0
0
0
0
0
0
0
0
0
0
0
0
0
0
0
0
0
0
0
0
0
0
0
0
0
0
0
0
0
0
0
0
0
0
0
0
0
0
0
0
0
0
0
0
0
0
0
0
0
0
0
0
0
0
0
0
0
0
0
0
0
0
0
0
0
0
0
0
0
0
0
0
0
0
0
0
0
0
0
0
0
0
0
0
0
0
0
0
0
0
0
0
0
0
0
0
0
0
0
0
0
0
0
0
0
0
0
0
0
0
0
0
0
0
0
0
0
0
0
0
0
0
0
0
0
0
0
0
0
0
0
0
0
0
0
0
0
0
0
0
0
0
0
0
0
0
0
0
0
0
0
0
0
0
0
0
0
0
0
0
0
0
0
0
0
0
0
0
0
0
0
0
0
0
0
0
0
0
0
0
0
0
0
0
0
0
0
0
0
0
0
0
0
0
0
0
0
0
0
0
0
0
0
0
0
0
0
0
0
0
0
0
0
0
0
0
0
0
0
0
0
0
0
0
0
0
0
0
0
0
0
0
0
0
0
0
0
0
0
0
0
0
0
0
0
0
0
0
0
0
0
0
0
0
0
0
0
0
0
0
0
0
0
0
0
0
0
0
0
0
0
0
0
0
0
0
0
0
0
0
0
0
0
0
0
0
0
0
0
0
0
0
0
0
0
0
0
0
0
0
0
0
0
0
0
0
0
0
0
0
0
0
0
0
0
0
0
0
0
0
0
0
0
0
0
0
0
0
0
0
0
0
0
0
0
0
0
0
0
0
0
0
0
0
0
0
0
0
0
0
0
0
0
0
0
0
0
0
0
0
0
0
0
0
0
0
0
0
0
0
0
0
0
0
0
0
0
0
0
0
0
0
0
0
0
0
0
0
0
0
0
0
0
0
0
0
0
0
0
0
0
0
0
0
0
0
0
0
0
0
0
0
0
0
0
0
0
0
0
0
0
0
0
0
0
0
0
0
0
0
0
0
0
0
0
0
0
0
0
0
0
0
0
0
0
0
0
0
0
0
0
0
0
0
0
0
0
0
0
0
0
0
0
0
0
0
0
0
0
0
0
0
0
0
0
0
0
0
0
0
0
0
0
0
0
0
0
0
0
0
0
0
0
0
0
0
0
0
0
0
0
0
0
0
0
0
0
0
0
0
0
0
0
0
0
0
0
0
0
0
0
0
0
0
0
0
0
0
0
0
0
0
0
0
0
0
0
0
0
0
0
0
0
0
0
0
0
0
0
0
0
0
0
0
0
0
0
0
0
0
0
0
0
0
0
0
0
0
0
0
0
0
0
0
0
0
0
0
0
0
0
0
0
0
0
0
0
0
0
0
0
0
0
0
0
0
0
0
0
0
0
0
0
0
0
0
0
0
0
0
0
0
0
0
0
0
0
0
0
0
0
0
0
0
0
0
0
0
0
0
0
0
0
0
0
0
0
0
0
0
0
0
0
0
0
0
0
0
0
0
0
0
0
0
0
0
0
0
0
0
0
0
0
0
0
0
0
0
0
0
0
0
0
0
0
0
0
0
0
0
0
0
0
0
0
0
0
0
0
0
0
0
0
0
0
0
0
0
0
0
0
0
0
0
0
0
0
0
0
0
0
0
0
0
0
0
0
0
0
0
0
0
0
0
0
0
0
0
0
0
0
0
0
0
0
0
0
0
0
0
0
0
0
0
0
0
0
0
0
0
0
0
0
0
0
0
0
0
0
0
0
0
0
0
0
0
0
0
0
0
0
0
0
0
0
0
0
0
0
0
0
0
0
0
0
0
0
0
0
0
0
0
0
0
0
0
0
0
0
0
0
0
0
0
0
0
0
0
0
0
0
0
0
0
0
0
0
0
0
0
0
0
0
0
0
0
0
0
0
0
0
0
0
0
0
