0.921147
1.02883
1.13505
1.23801
1.33554
1.42499
1.5034
1.56837
1.61824
1.6525
1.67216
1.67983
1.67918
1.67415
1.66781
1.66155
1.65455
1.64411
1.6263
1.59706
1.55311
1.49254
1.41488
1.32089
1.21205
1.09121
0.961327
0.824832
0.684154
0.542239
0.402606
0.269264
0.146863
0.0401827
-0.0473003
-0.113486
-0.158016
-0.182206
-0.188464
-0.180843
-0.163488
-0.13982
-0.112033
-0.0810272
-0.0467779
-0.00894213
0.0325474
0.0769765
0.123124
0.169631
0.215137
0.25854
0.299144
0.336651
0.371047
0.402415
0.430766
0.455829
0.47694
0.492884
0.501975
0.502504
0.492958
0.472486
0.44136
0.401257
0.355247
0.307399
0.262086
0.223139
0.192854
0.172437
0.160866
0.155583
0.15321
0.150331
0.144152
0.132894
0.115886
0.0934058
0.0663818
0.0361698
0.00416517
-0.0283087
-0.0599323
-0.0892669
-0.114612
-0.133781
-0.144136
-0.14308
-0.128265
-0.0980827
-0.0492409
0.0208442
0.108409
0.201424
0.284768
0.345007
0.373946
0.37094
0.343394
0.305195
0.273278
0.263068
0.2822
0.327578
0.391436
0.467326
0.550995
0.639299
0.730311
0.823578
0.920001
1.02183
1.13329
1.26251
1.42248
1.61833
1.8244
2.00117
2.10717
2.10804
1.9868
1.75161
1.43728
1.10048
0.809647
0.596919
0.4409
0.320797
0.231071
0.171511
0.141011
0.134413
0.141229
0.150371
0.152573
0.141916
0.11646
0.0778297
-0.0861853
0
0.761593
2.47416
5.11867
8.27266
11.1823
13.0028
13.1146
11.3794
8.22081
4.48333
1.11614
-1.18083
-2.18044
-2.11809
-1.47699
-0.719687
-0.111338
0.288327
0.524843
0.624279
0.683445
0.732562
0.776982
0.819015
0.860412
0.902636
0.946565
0.992335
1.03936
1.08658
1.1329
1.17761
1.22064
1.26258
1.30457
1.34787
1.3936
1.44236
1.49431
1.54927
1.60691
1.66692
1.72913
1.79351
1.86009
1.92872
1.99896
2.06997
2.1405
2.20904
2.27398
2.33385
2.38738
2.43367
2.47207
2.50217
2.52371
2.53646
2.54018
2.53456
2.51931
2.49415
2.459
2.41397
2.35956
2.29672
2.22695
2.15229
2.0752
1.99836
1.92439
1.85553
1.79362
1.73911
1.69099
1.64737
1.60607
1.56519
1.52356
1.48086
1.43751
1.39442
1.35262
1.31293
1.27604
1.24228
1.21175
1.18412
1.15868
1.13477
1.11231
1.09206
1.07568
1.06539
1.06333
1.07077
1.08741
1.11146
1.13977
1.16856
1.19422
1.21421
1.22727
1.23355
1.23439
1.23189
1.22842
1.22606
1.22629
1.22993
1.23709
1.24715
1.25871
1.2699
1.27856
1.28247
1.2797
1.26889
1.24948
1.22188
1.18748
1.14854
1.10794
1.06877
1.03392
1.00563
0.985335
0.973598
0.970116
0.97392
0.983601
0.997492
1.01391
1.0312
1.04766
1.06146
1.07056
1.07292
1.06661
1.05015
1.02287
0.985242
0.938867
0.886405
0.832479
0.782846
0.743077
0.717723
0.709742
0.720343
0.74926
0.795343
0.857245
0.93394
1.02397
1.12597
1.23924
1.36539
1.50418
1.64582
1.77323
1.86866
1.91903
1.91993
1.87679
1.80258
1.71342
1.62374
1.54169
1.46749
1.39897
1.33384
1.26953
1.20306
1.13119
1.05068
0.958601
0.852598
0.730166
0.586134
0.421938
0.24154
0.0155594
0
0.57031
1.90902
3.99523
6.57964
9.21585
11.3246
12.3112
11.7505
9.5973
6.29958
2.69325
-0.316674
-2.12665
-2.64022
-2.20038
-1.33603
-0.490359
0.10407
0.404489
0.445262
0.459304
0.477214
0.500628
0.532062
0.572923
0.623107
0.681183
0.744857
0.811274
0.877332
0.940409
0.999013
1.05309
1.10402
1.15419
1.20637
1.26281
1.32457
1.39182
1.46181
1.53012
1.59248
1.64627
1.69149
1.73066
1.76775
1.80661
1.84938
1.89535
1.94212
1.98642
2.02466
2.05364
2.07116
2.0762
2.06884
2.05001
2.0213
1.98462
1.94155
1.89325
1.84043
1.78319
1.72099
1.6527
1.57673
1.49144
1.39567
1.2892
1.17327
1.05075
0.92602
0.80482
0.693313
0.596877
0.520644
0.469601
0.440442
0.42662
0.420302
0.414423
0.404078
0.386914
0.362683
0.332465
0.298233
0.26275
0.22874
0.199707
0.179468
0.171464
0.178788
0.205044
0.245073
0.288931
0.32535
0.345172
0.343976
0.322996
0.2882
0.24818
0.211731
0.184297
0.167637
0.162126
0.167519
0.18307
0.206773
0.233889
0.257216
0.269586
0.265553
0.242973
0.203948
0.154676
0.104097
0.0616425
0.0347749
0.024386
0.0293458
0.0468795
0.0726259
0.101964
0.131286
0.158847
0.184921
0.211344
0.240559
0.275085
0.316609
0.361368
0.402347
0.432282
0.44683
0.446524
0.436556
0.424516
0.417239
0.418393
0.426208
0.438597
0.453693
0.470066
0.486905
0.503575
0.518478
0.528255
0.528087
0.51343
0.482351
0.437258
0.385035
0.335407
0.29824
0.280358
0.280369
0.298771
0.335185
0.388609
0.458453
0.551607
0.680684
0.840954
1.00072
1.11782
1.15635
1.1034
0.975973
0.81382
0.662091
0.552737
0.481036
0.427648
0.383058
0.34306
0.304823
0.266269
0.226174
0.184309
0.141105
0.0972311
0.0532132
0.00920508
-0.0351318
-0.0804676
-0.139041
0
0.69903
2.20659
4.53392
7.36942
10.1195
12.0669
12.5974
11.4287
8.75607
5.23004
1.74085
-0.915121
-2.32781
-2.57377
-2.07785
-1.37936
-0.817405
-0.507696
-0.387639
-0.310295
-0.241028
-0.17446
-0.10927
-0.0444588
0.0210216
0.0880647
0.15719
0.228382
0.300985
0.373748
0.445362
0.514956
0.582446
0.6486
0.714814
0.782701
0.853664
0.928539
1.00749
1.0905
1.17733
1.26764
1.36091
1.45634
1.55279
1.64877
1.7425
1.83219
1.91624
1.99344
2.06306
2.12475
2.17833
2.22344
2.25935
2.28505
2.29959
2.30218
2.29249
2.27102
2.23902
2.19831
2.15077
2.0978
2.04006
1.97748
1.90928
1.83462
1.75308
1.66491
1.57115
1.47333
1.37321
1.27244
1.17238
1.07427
0.979434
0.889682
0.807548
0.735937
0.677615
0.634808
0.608671
0.598982
0.604162
0.621621
0.648304
0.681254
0.717938
0.756597
0.796215
0.836255
0.876489
0.916859
0.957384
0.998098
1.03898
1.07986
1.12038
1.15993
1.19769
1.23273
1.26428
1.29188
1.31552
1.33558
1.35257
1.36684
1.37804
1.38452
1.38341
1.37124
1.3446
1.3014
1.24193
1.16927
1.08906
1.00833
0.93401
0.87051
0.821357
0.78689
0.765547
0.754989
0.753221
0.759261
0.773119
0.795163
0.825242
0.861927
0.902495
0.94332
0.980774
1.0122
1.0366
1.05473
1.06873
1.08125
1.09464
1.11015
1.12814
1.14826
1.16978
1.1921
1.21513
1.23936
1.26565
1.29492
1.32767
1.36396
1.40306
1.444
1.48595
1.52858
1.57216
1.61727
1.66435
1.71322
1.76278
1.81124
1.85631
1.89534
1.92573
1.94557
1.95368
1.94969
1.934
1.90762
1.87196
1.82855
1.77872
1.72346
1.66324
1.59769
1.52563
1.44531
1.35465
1.25158
1.13314
0.993574
0.828272
0.637281
0.428121
0.220631
0.0271704
-0.15229
-0.265117
0
0.974063
2.88181
5.65612
8.89942
11.9552
14.0633
14.5704
13.1704
10.0924
6.10726
2.27437
-0.486616
-1.76734
-1.76163
-1.03774
-0.17446
0.507822
0.958822
1.22881
1.28374
1.3085
1.32199
1.32544
1.3207
1.31058
1.2983
1.28701
1.27911
1.27628
1.27982
1.29072
1.30971
1.33731
1.37388
1.41946
1.47377
1.53597
1.60456
1.67747
1.75172
1.82372
1.88997
1.94783
1.99606
2.03526
2.06781
2.09748
2.12864
2.16531
2.21023
2.26402
2.32506
2.39032
2.45568
2.51666
2.56923
2.6105
2.63892
2.65421
2.65696
2.64802
2.62793
2.59668
2.55363
2.49762
2.42742
2.34241
2.24307
2.13126
2.0101
1.88373
1.75664
1.63296
1.51606
1.40814
1.31012
1.2216
1.1411
1.06623
0.993944
0.920842
0.843413
0.75839
0.662428
0.548044
0.406363
0.251909
0.11425
0.0258274
0.00902958
0.0660407
0.176881
0.306998
0.420774
0.494272
0.53711
0.562545
0.574001
0.575108
0.569301
0.55968
0.548375
0.537008
0.526933
0.51936
0.515384
0.515944
0.521603
0.532602
0.548906
0.570075
0.59514
0.622385
0.64915
0.671883
0.686918
0.691089
0.682411
0.660565
0.627021
0.584689
0.537162
0.487754
0.438613
0.390143
0.341382
0.290571
0.235544
0.174297
0.105536
0.0286098
-0.056264
-0.14569
-0.231208
-0.302176
-0.348777
-0.364692
-0.348976
-0.306391
-0.245936
-0.178019
-0.111332
-0.0499496
0.00687799
0.0610885
0.114806
0.170385
0.229839
0.294461
0.364925
0.441292
0.523143
0.609809
0.70061
0.795049
0.892927
0.994462
1.1004
1.21162
1.32637
1.43567
1.52459
1.57635
1.57769
1.52396
1.42178
1.28824
1.14638
1.01832
0.914528
0.831074
0.761356
0.702019
0.649601
0.600514
0.551456
0.499521
0.442085
0.376651
0.301131
0.213804
0.111118
-0.00951176
-0.146807
-0.429549
-0.559378
0
1.62797
4.40665
7.92337
11.2955
13.4676
13.6556
11.7061
8.17218
4.07236
0.471963
-1.90067
-2.84168
-2.62361
-1.78028
-0.845313
-0.146273
0.249715
0.454845
0.588428
0.704525
0.800225
0.87285
0.924067
0.959621
0.987996
1.01841
1.05875
1.1128
1.17965
1.25764
1.34477
1.43833
1.53529
1.63275
1.72834
1.82038
1.90801
1.9911
2.0701
2.1458
2.21902
2.29041
2.3602
2.42807
2.49304
2.55334
2.60704
2.65216
2.68705
2.71066
2.7228
2.72405
2.71565
2.69923
2.67656
2.64945
2.61906
2.58603
2.55044
2.51181
2.46923
2.4215
2.36736
2.30581
2.23636
2.15927
2.07555
1.98687
1.89525
1.80262
1.71053
1.61989
1.53089
1.44321
1.35638
1.27026
1.18542
1.10337
1.02645
0.957437
0.899154
0.854693
0.82597
0.811359
0.806835
0.807115
0.806841
0.80176
0.789656
0.770827
0.748029
0.725888
0.709588
0.703511
0.712345
0.741043
0.783542
0.828092
0.862132
0.876999
0.87114
0.850465
0.825781
0.808553
0.806883
0.819459
0.841899
0.870797
0.903133
0.935945
0.966666
0.99349
1.01546
1.03242
1.0448
1.05341
1.05923
1.06318
1.06604
1.06849
1.07118
1.07485
1.08047
1.08916
1.10208
1.12003
1.14341
1.17176
1.20215
1.22838
1.24316
1.24013
1.21595
1.17174
1.11324
1.04969
0.991586
0.948395
0.923426
0.91734
0.930983
0.963748
1.01406
1.07929
1.15698
1.24591
1.34287
1.43957
1.52406
1.58395
1.60891
1.59319
1.537
1.44644
1.33202
1.20635
1.08167
0.965605
0.860783
0.768078
0.687939
0.62033
0.564234
0.517701
0.478022
0.441963
0.405946
0.36641
0.320213
0.26396
0.194425
0.112329
0.0202899
-0.13288
0
0.759135
2.367
4.80288
7.71369
10.4536
12.2646
12.5373
11.0591
8.13362
4.50039
1.06561
-1.43671
-2.68793
-2.81782
-2.24206
-1.42661
-0.704755
-0.225274
0.005879
0.060737
0.0949649
0.125715
0.155343
0.185245
0.217135
0.252938
0.294519
0.343364
0.400309
0.465396
0.537761
0.616064
0.698798
0.784467
0.871791
0.959842
1.04808
1.13638
1.22493
1.31427
1.40513
1.49832
1.59456
1.69418
1.79698
1.90201
2.00762
2.11168
2.21186
2.30606
2.39275
2.47114
2.54123
2.60354
2.65875
2.7071
2.74783
2.77895
2.79782
2.80099
2.78486
2.74654
2.68447
2.59887
2.49169
2.36632
2.22696
2.07882
1.92605
1.77156
1.61752
1.46559
1.31713
1.17346
1.03617
0.907276
0.789261
0.684865
0.596663
0.52682
0.477217
0.448753
0.43992
0.445768
0.458772
0.47161
0.478745
0.477604
0.469041
0.456922
0.446922
0.444824
0.454751
0.476985
0.509625
0.548996
0.589703
0.626127
0.653652
0.669626
0.673835
0.668487
0.65773
0.646825
0.641093
0.644697
0.659759
0.686936
0.726065
0.773729
0.823097
0.866327
0.896783
0.910644
0.907801
0.891761
0.868459
0.84425
0.823697
0.807673
0.793686
0.776987
0.75213
0.714968
0.664201
0.601952
0.533227
0.464547
0.402201
0.34911
0.306165
0.274043
0.252549
0.240579
0.236413
0.238415
0.245464
0.257211
0.274142
0.297445
0.328734
0.369721
0.421724
0.48541
0.561046
0.648046
0.746148
0.854172
0.966409
1.07346
1.16507
1.23191
1.26704
1.26686
1.23115
1.16259
1.06605
0.948266
0.817462
0.680613
0.543178
0.409073
0.280826
0.160311
0.0496932
-0.0473116
-0.125837
-0.18296
-0.215658
-0.221873
-0.201808
-0.15891
-0.100036
-0.0346324
-0.0230776
0
0.490097
1.78777
3.98581
6.81574
9.65589
11.6783
12.1252
10.6451
7.5229
3.63429
0.0854059
-2.27864
-3.20288
-3.00385
-2.26302
-1.4733
-0.864194
-0.445058
-0.152752
0.0136073
0.137356
0.248737
0.351511
0.442598
0.518754
0.577204
0.61638
0.636955
0.642468
0.639132
0.634722
0.636794
0.650824
0.677457
0.714052
0.757505
0.804852
0.853267
0.900764
0.946602
0.991356
1.03666
1.08472
1.13779
1.19747
1.26458
1.33921
1.42068
1.50677
1.59336
1.67451
1.74341
1.79409
1.8223
1.8265
1.80862
1.77416
1.73157
1.69083
1.66136
1.64933
1.66448
1.70334
1.74828
1.77728
1.77162
1.7221
1.6317
1.51374
1.38641
1.2661
1.15914
1.0624
0.97218
0.885817
0.800774
0.715147
0.628246
0.540832
0.455028
0.373819
0.300317
0.23793
0.188078
0.150806
0.125146
0.109712
0.103234
0.104793
0.113699
0.129107
0.149713
0.173274
0.196812
0.217065
0.231096
0.236878
0.233688
0.222201
0.204276
0.182502
0.159636
0.138068
0.119393
0.104196
0.0923629
0.0834479
0.076735
0.0714289
0.0667981
0.0622724
0.0575114
0.0524673
0.047416
0.0429779
0.0400811
0.0398631
0.0435121
0.052082
0.0662881
0.0864148
0.112216
0.142902
0.177175
0.213363
0.249519
0.283576
0.313554
0.33774
0.35482
0.363965
0.364871
0.357767
0.343398
0.32302
0.298396
0.271688
0.24528
0.221558
0.202597
0.189924
0.184471
0.186066
0.192244
0.199064
0.202976
0.202351
0.198615
0.196567
0.203674
0.228496
0.293588
0.43908
0.656833
0.888758
1.07426
1.17402
1.1784
1.10105
0.965181
0.792259
0.60004
0.408456
0.231722
0.0760623
-0.0564081
-0.165967
-0.253596
-0.319209
-0.364175
-0.390963
-0.402682
-0.402621
-0.394082
-0.379842
-0.362106
-0.342216
-0.307435
0
0.874632
2.5483
5.03565
8.02488
10.8787
12.7799
13.015
11.3012
7.9861
3.97263
0.361816
-2.01236
-2.89561
-2.61085
-1.78436
-1.00717
-0.549279
-0.458765
-0.478674
-0.492194
-0.500128
-0.499839
-0.489239
-0.467383
-0.433332
-0.386568
-0.327024
-0.255184
-0.172178
-0.0798205
0.0193516
0.122515
0.226722
0.329161
0.427432
0.519777
0.605235
0.683736
0.756092
0.823915
0.889413
0.955074
1.0233
1.09601
1.1743
1.25829
1.34717
1.43939
1.53299
1.62603
1.71682
1.80395
1.88549
1.95847
2.0202
2.06738
2.09644
2.10446
2.08988
2.05292
1.99537
1.9202
1.83113
1.73379
1.63258
1.53066
1.43068
1.33467
1.24365
1.15766
1.07573
0.996116
0.916675
0.835263
0.750157
0.660385
0.565967
0.467535
0.367832
0.272621
0.188882
0.12332
0.0809032
0.0638304
0.071285
0.0999849
0.145258
0.2022
0.265768
0.332425
0.399902
0.46644
0.530308
0.5893
0.641459
0.685075
0.719021
0.743001
0.757546
0.763722
0.762641
0.755015
0.741035
0.720691
0.693953
0.661589
0.625594
0.589211
0.556447
0.531206
0.516611
0.515612
0.526609
0.543611
0.559119
0.566449
0.561758
0.545136
0.520483
0.494322
0.473947
0.464603
0.467588
0.485252
0.516677
0.55275
0.582212
0.595084
0.58584
0.555211
0.509911
0.460398
0.417631
0.389983
0.377668
0.378119
0.389901
0.411949
0.442976
0.481844
0.527747
0.580251
0.639236
0.704764
0.776906
0.855561
0.9403
1.03031
1.12432
1.2204
1.31546
1.40466
1.48149
1.53976
1.57392
1.58018
1.55756
1.50839
1.4382
1.35471
1.2664
1.18085
1.10234
1.03187
0.969183
0.913526
0.863196
0.815444
0.766913
0.714019
0.653326
0.5819
0.497586
0.399183
0.286259
0.157249
0.0135976
-0.140821
-0.306336
-0.375834
0
1.10371
3.10667
5.91284
9.0611
11.7707
13.1827
12.7227
10.402
6.86442
3.12187
0.11779
-1.63637
-2.16126
-1.83773
-1.12406
-0.36393
0.298379
0.745625
0.849749
0.897971
0.932036
0.95519
0.970845
0.982745
0.994376
1.00843
1.0265
1.04971
1.0786
1.11316
1.15289
1.19675
1.24314
1.28992
1.3342
1.37296
1.4041
1.42715
1.44378
1.45794
1.47533
1.50233
1.54455
1.60551
1.68403
1.77615
1.87794
1.98528
2.0937
2.19887
2.29676
2.38397
2.45829
2.51892
2.56623
2.60169
2.62756
2.64645
2.66078
2.67218
2.68097
2.68608
2.68512
2.67495
2.65246
2.61521
2.56195
2.49263
2.40827
2.31062
2.2023
2.0864
1.966
1.84411
1.72396
1.60878
1.50164
1.40555
1.32225
1.25099
1.18966
1.13543
1.08564
1.03837
0.99275
0.948862
0.907399
0.869141
0.834706
0.804952
0.780537
0.76192
0.749282
0.742453
0.74091
0.743853
0.750383
0.759701
0.771215
0.784632
0.799894
0.817005
0.835874
0.856242
0.877714
0.899854
0.922363
0.945213
0.968695
0.993313
1.01957
1.04775
1.0775
1.10737
1.13459
1.15586
1.16821
1.16993
1.1612
1.14419
1.12262
1.10085
1.08293
1.07134
1.06661
1.06826
1.07534
1.08634
1.09926
1.11144
1.11962
1.1204
1.11057
1.08768
1.0506
0.999986
0.938456
0.870449
0.801604
0.738101
0.685424
0.647445
0.625901
0.620393
0.628929
0.648782
0.677389
0.712773
0.753644
0.800076
0.852455
0.909609
0.966512
1.01481
1.04512
1.04968
1.02483
0.972371
0.899257
0.815712
0.732326
0.656839
0.591387
0.534606
0.485291
0.442284
0.404434
0.370757
0.340269
0.311835
0.282221
0.246703
0.200087
0.138359
0.0603859
-0.0564636
-0.30998
0
1.18612
3.31435
6.12712
9.07422
11.4303
12.4899
11.8059
9.39973
5.82738
2.01916
-1.06938
-2.82863
-3.18985
-2.55015
-1.51584
-0.600016
-0.0702923
0.0438996
0.00727668
-0.00323291
0.00110335
0.0247493
0.0696303
0.133233
0.211604
0.300868
0.39669
0.4946
0.590448
0.680752
0.7629
0.835283
0.897321
0.949442
0.993016
1.03024
1.06398
1.09753
1.13431
1.17753
1.22975
1.29253
1.36618
1.44961
1.54052
1.63571
1.73141
1.82398
1.91039
1.98838
2.05602
2.11096
2.15149
2.1765
2.18488
2.17589
2.14965
2.10749
2.05179
1.98551
1.9114
1.83162
1.74725
1.65828
1.56407
1.46406
1.35829
1.24771
1.13426
1.02061
0.909814
0.804766
0.707778
0.620313
0.542926
0.475378
0.416868
0.366301
0.322531
0.284566
0.251725
0.223787
0.201127
0.184731
0.175764
0.1754
0.184502
0.203288
0.231148
0.266669
0.30786
0.352464
0.398229
0.443072
0.484634
0.52058
0.548974
0.568283
0.577663
0.577115
0.56734
0.549304
0.523767
0.491137
0.452541
0.408947
0.362521
0.316861
0.276649
0.24672
0.230816
0.232523
0.252438
0.283735
0.31608
0.339138
0.345493
0.332534
0.302852
0.263231
0.222726
0.190537
0.172441
0.16994
0.182853
0.210564
0.252048
0.305993
0.369278
0.435019
0.49478
0.541291
0.570202
0.58124
0.578273
0.568115
0.558388
0.555144
0.560359
0.572862
0.589368
0.605131
0.61582
0.619095
0.615574
0.608926
0.605051
0.610605
0.631288
0.669375
0.723258
0.789663
0.865611
0.94696
1.02893
1.10609
1.17143
1.21598
1.23259
1.21491
1.15894
1.06499
0.939284
0.794029
0.645561
0.510769
0.40233
0.319617
0.262119
0.227028
0.209128
0.202265
0.200652
0.199703
0.196274
0.188439
0.175057
0.155671
0.130026
0.098079
0.0299598
0
0.515099
1.89471
4.19472
7.09649
9.94661
11.947
12.4332
11.1437
8.3658
4.86563
1.59711
-0.68479
-1.70534
-1.69554
-1.16608
-0.639953
-0.28246
-0.0967714
0.0146836
0.100315
0.176129
0.245687
0.310459
0.371852
0.430742
0.486964
0.537942
0.577927
0.599273
0.595717
0.565817
0.514878
0.454392
0.399113
0.363018
0.352124
0.363203
0.3951
0.446821
0.516612
0.60254
0.702497
0.815233
0.940101
1.07625
1.22208
1.37548
1.5326
1.68527
1.82344
1.93793
2.02281
2.07709
2.10511
2.11542
2.11848
2.12369
2.13707
2.16087
2.18754
2.2047
2.20015
2.16672
2.10491
2.02235
1.93028
1.83876
1.75228
1.66877
1.58512
1.49814
1.40508
1.30449
1.19672
1.08388
0.969441
0.857514
0.751871
0.655781
0.571751
0.501292
0.445097
0.403002
0.373457
0.353773
0.340619
0.330501
0.319986
0.306478
0.288834
0.267683
0.245379
0.225558
0.212338
0.209353
0.218891
0.241259
0.275062
0.317557
0.365433
0.415585
0.465755
0.514735
0.562018
0.607507
0.65116
0.692672
0.731336
0.766096
0.795722
0.819059
0.835264
0.843948
0.845173
0.839315
0.826844
0.808098
0.783202
0.75206
0.714522
0.670704
0.621344
0.568107
0.513662
0.461531
0.415539
0.37913
0.355997
0.348205
0.353267
0.365138
0.376669
0.381583
0.376077
0.359563
0.334421
0.304992
0.276296
0.25266
0.236676
0.229755
0.233254
0.248477
0.276358
0.317297
0.370907
0.435798
0.509396
0.58877
0.670104
0.74975
0.82505
0.894821
0.959428
1.02043
1.07986
1.13943
1.19978
1.26001
1.31755
1.36853
1.40842
1.43261
1.43756
1.42118
1.38321
1.32543
1.25144
1.1663
1.07563
0.984669
0.897203
0.814704
0.737019
0.662448
0.588354
0.511879
0.430558
0.342698
0.247506
0.145034
0.0359489
-0.0783392
-0.204075
-0.32884
0
1.16442
3.36164
6.40043
9.63448
12.1164
12.957
11.7352
8.73401
4.84315
1.16633
-1.4493
-2.70133
-2.81069
-2.26441
-1.52522
-0.856131
-0.334624
0.0362961
0.170312
0.230306
0.279391
0.325455
0.371008
0.41764
0.465913
0.515367
0.564891
0.613174
0.659067
0.70188
0.741493
0.778291
0.812993
0.846455
0.879513
0.912912
0.947328
0.983435
1.02198
1.06383
1.10996
1.16137
1.21897
1.28336
1.35462
1.43213
1.51447
1.59946
1.68419
1.7651
1.83892
1.90327
1.95704
2.00057
2.03531
2.06324
2.08563
2.10275
2.11375
2.11641
2.10802
2.08642
2.05061
2.00086
1.9382
1.86384
1.77965
1.68804
1.59073
1.48943
1.38655
1.28508
1.18821
1.09887
1.0194
0.95122
0.894409
0.847909
0.810031
0.778963
0.75322
0.731924
0.714857
0.702293
0.694707
0.692336
0.695016
0.702121
0.712539
0.724492
0.735626
0.74362
0.74661
0.743509
0.734128
0.71908
0.699503
0.676743
0.652139
0.627018
0.602659
0.580592
0.56266
0.55087
0.547115
0.552786
0.568422
0.593529
0.626607
0.665374
0.707076
0.748809
0.787775
0.821406
0.847683
0.865256
0.873602
0.873142
0.865267
0.852216
0.836802
0.822008
0.810466
0.803931
0.803161
0.808182
0.818003
0.830503
0.842764
0.852013
0.856337
0.855195
0.849587
0.841791
0.83473
0.831145
0.832845
0.839915
0.851178
0.865074
0.879725
0.893388
0.904785
0.913234
0.918564
0.920872
0.920259
0.916608
0.909449
0.898336
0.883148
0.864581
0.8444
0.826763
0.817687
0.824166
0.855059
0.941717
1.13488
1.43082
1.73894
1.98278
2.1167
2.12135
1.99976
1.77926
1.51214
1.2659
1.10136
1.01003
0.955089
0.916604
0.886643
0.860735
0.834402
0.803085
0.762533
0.709083
0.637122
0.539321
0.416097
0.274763
0.12548
0
0.311831
1.22083
2.86093
5.18885
7.9331
10.6088
12.5915
13.265
12.2353
9.5497
5.78689
1.90469
-1.13045
-2.74135
-2.93296
-2.17731
-1.10166
-0.187356
0.356142
0.53613
0.50545
0.50397
0.514394
0.541041
0.586093
0.648622
0.724671
0.809513
0.898051
0.985129
1.06643
1.13913
1.20223
1.25651
1.30426
1.34866
1.39318
1.44097
1.49434
1.55447
1.62139
1.69407
1.7706
1.84855
1.92524
1.99807
2.06481
2.12383
2.17422
2.21581
2.24913
2.27525
2.29553
2.31153
2.32473
2.3363
2.34691
2.35646
2.36382
2.36624
2.35979
2.33998
2.30263
2.24501
2.16662
2.0696
1.95835
1.83877
1.71726
1.59941
1.48902
1.38966
1.30411
1.23424
1.18121
1.14577
1.12713
1.12185
1.12398
1.12673
1.12369
1.10991
1.08276
1.04231
0.991239
0.934274
0.877309
0.826057
0.784571
0.75473
0.737063
0.731078
0.734134
0.741828
0.749478
0.753199
0.750703
0.741692
0.72776
0.711843
0.69736
0.687276
0.683017
0.684383
0.690211
0.697552
0.70238
0.700588
0.688778
0.664837
0.628209
0.579883
0.522175
0.45845
0.392905
0.330304
0.276087
0.235152
0.211158
0.205769
0.218259
0.245714
0.283829
0.328014
0.374357
0.420177
0.463958
0.50421
0.53938
0.567803
0.587758
0.597982
0.598318
0.590216
0.576829
0.5626
0.552385
0.550289
0.558306
0.575778
0.601042
0.629805
0.65699
0.678058
0.690149
0.692721
0.687569
0.678304
0.669518
0.665734
0.670039
0.684369
0.710799
0.751678
0.808328
0.87624
0.943171
0.99496
1.01887
1.00684
0.957493
0.876199
0.77325
0.661035
0.551239
0.450717
0.361111
0.282635
0.215505
0.159671
0.114236
0.0776525
0.0479175
0.0227864
0
-0.0217629
-0.0449107
-0.0705817
-0.0992888
-0.1309
-0.170635
-0.156769
0.258776
1.39603
3.43812
6.23283
9.2049
11.4913
12.2789
11.1857
8.46774
4.92095
1.52693
-0.958086
-2.24815
-2.50555
-2.12188
-1.48171
-0.819625
-0.243822
0.188562
0.372583
0.434684
0.475692
0.506199
0.524335
0.528885
0.518928
0.494956
0.459898
0.419432
0.381213
0.353188
0.341611
0.347694
0.368122
0.40141
0.445307
0.497433
0.555429
0.617872
0.68392
0.75307
0.824991
0.899427
0.976225
1.0554
1.13719
1.22208
1.31064
1.40326
1.49984
1.59949
1.7004
1.79988
1.89463
1.98139
2.05741
2.12088
2.17097
2.20763
2.23108
2.24105
2.23604
2.21444
2.17421
2.11353
2.03171
1.92983
1.81103
1.68019
1.54318
1.40586
1.27273
1.14688
1.03014
0.923232
0.826211
0.738941
0.661407
0.593772
0.53642
0.490284
0.45545
0.428925
0.406741
0.385038
0.361285
0.335113
0.308395
0.284526
0.267239
0.259262
0.260463
0.270441
0.288531
0.313696
0.344718
0.380568
0.42045
0.463553
0.508887
0.555161
0.600696
0.643463
0.681356
0.712503
0.735547
0.749874
0.75577
0.754446
0.747942
0.738898
0.730232
0.724685
0.724353
0.73041
0.743338
0.762391
0.785182
0.808161
0.827402
0.83925
0.840883
0.830681
0.808373
0.774973
0.732562
0.684067
0.632743
0.581579
0.533105
0.489327
0.451742
0.421515
0.399625
0.387348
0.386182
0.397409
0.422075
0.460531
0.511977
0.574242
0.643913
0.716891
0.78915
0.857703
0.921352
0.981041
1.03971
1.10162
1.17134
1.25369
1.35707
1.48268
1.61516
1.73369
1.81862
1.85703
1.84495
1.78623
1.68936
1.56449
1.42285
1.27599
1.13169
0.995339
0.870985
0.761186
0.667741
0.591953
0.531895
0.481032
0.431285
0.374791
0.305655
0.221231
0.122602
0
-0.0323035
0.376504
1.44559
3.31755
5.93622
8.916
11.5223
12.8633
12.2762
9.71343
5.86217
1.8715
-1.17734
-2.73532
-2.91432
-2.25869
-1.36666
-0.618798
-0.125682
0.165816
0.321786
0.418667
0.503097
0.580031
0.65004
0.712984
0.768768
0.817625
0.860079
0.896901
0.929059
0.957684
0.984051
1.00957
1.03579
1.06439
1.0971
1.13566
1.1816
1.23602
1.29928
1.37075
1.44892
1.53131
1.61396
1.69258
1.76366
1.82534
1.87775
1.92281
1.96344
2.00251
2.04177
2.08106
2.11788
2.14827
2.1682
2.17489
2.16767
2.14797
2.1187
2.08318
2.04416
2.00296
1.95953
1.91288
1.86159
1.80418
1.73963
1.66759
1.58851
1.50356
1.41446
1.32334
1.23247
1.1442
1.06087
0.984635
0.917296
0.860104
0.813689
0.777738
0.750603
0.729718
0.712282
0.695815
0.678593
0.659844
0.639637
0.618549
0.597236
0.576064
0.554957
0.533499
0.511136
0.487454
0.462407
0.436421
0.410341
0.385243
0.362149
0.341743
0.32425
0.309357
0.296237
0.283672
0.270283
0.254912
0.236977
0.216738
0.195379
0.17485
0.157456
0.145251
0.139704
0.141122
0.146874
0.150375
0.142786
0.114479
0.019709
-0.218152
-0.536499
-0.820642
-0.956987
-0.891244
-0.656513
-0.352544
-0.0904237
0.0606797
0.132544
0.17813
0.209207
0.229584
0.242781
0.251958
0.259969
0.269365
0.282293
0.300286
0.324047
0.353305
0.386919
0.423717
0.462651
0.503161
0.545356
0.589931
0.637838
0.689835
0.746046
0.805745
0.866936
0.926513
0.980441
1.02386
1.05183
1.06037
1.04652
1.00866
0.94685
0.862893
0.760309
0.644092
0.520353
0.395941
0.277016
0.16897
0.0772461
0.0116943
0
0.0831859
0.22586
0.370394
0.454098
0.432567
0.294987
0.0638094
-0.232965
-0.272718
0.267536
1.55808
3.63707
6.33272
9.20484
11.5696
12.6754
12.0052
9.56664
5.98041
2.26094
-0.619688
-2.14183
-2.38812
-1.84753
-1.20955
-0.73982
-0.524856
-0.468646
-0.415912
-0.361996
-0.30694
-0.250867
-0.194264
-0.138064
-0.0835961
-0.032426
0.0139886
0.0546072
0.0891328
0.118252
0.143733
0.168345
0.195619
0.229478
0.273668
0.331255
0.404477
0.494513
0.601206
0.722937
0.85671
0.998392
1.14312
1.28582
1.42173
1.54689
1.65853
1.75524
1.83686
1.90426
1.95889
2.00221
2.03522
2.05852
2.07243
2.07682
2.07144
2.05618
2.0313
1.99732
1.95485
1.90432
1.84588
1.77952
1.70472
1.62088
1.52767
1.42534
1.31476
1.19747
1.07544
0.950908
0.826119
0.703191
0.584055
0.470505
0.364365
0.267974
0.184369
0.11677
0.0679118
0.0400937
0.0346119
0.0512146
0.0877485
0.140124
0.203627
0.2711
0.334813
0.3884
0.428032
0.45314
0.466519
0.473748
0.482015
0.49859
0.529228
0.576036
0.637567
0.711172
0.793938
0.881033
0.964857
1.03692
1.09012
1.11979
1.12467
1.1074
1.07409
1.03298
0.992348
0.958307
0.932196
0.912219
0.896077
0.880896
0.864289
0.845097
0.823528
0.800695
0.777775
0.755235
0.732278
0.707152
0.678061
0.644219
0.606512
0.567467
0.530547
0.49921
0.475944
0.461745
0.458159
0.468359
0.494641
0.539234
0.603287
0.685787
0.78303
0.889045
0.996956
1.10079
1.19765
1.2869
1.37013
1.45014
1.52959
1.60977
1.68996
1.76724
1.83706
1.89423
1.93367
1.95107
1.94315
1.90787
1.8447
1.75576
1.64472
1.51762
1.38259
1.24889
1.12546
1.019
0.936589
0.879767
0.842304
0.814153
0.783929
0.741345
0.679006
0.593265
0.484213
0.355057
0.211567
0.0321572
0
0.493769
1.85224
4.21245
7.3446
10.6228
13.1694
14.1434
13.0756
10.1127
6.03494
1.98934
-0.973035
-2.32343
-2.21216
-1.27476
-0.240199
0.429861
0.643127
0.635078
0.740113
0.861678
1.01508
1.19394
1.36558
1.49076
1.54063
1.5092
1.41614
1.29903
1.19926
1.14818
1.14364
1.16818
1.2123
1.27225
1.34561
1.4298
1.52201
1.61936
1.71793
1.81274
1.8984
1.9701
2.02455
2.0606
2.07973
2.086
2.08565
2.08619
2.09529
2.11954
2.16278
2.22495
2.30331
2.39461
2.49521
2.59782
2.69208
2.76818
2.81868
2.83962
2.83094
2.79588
2.73963
2.66765
2.5843
2.49353
2.3977
2.29805
2.19562
2.09175
1.98819
1.88692
1.78992
1.69888
1.615
1.53897
1.47106
1.41122
1.35927
1.31485
1.27761
1.24692
1.22145
1.19936
1.17858
1.15715
1.1335
1.10664
1.07627
1.04274
1.00691
0.970204
0.93436
0.901697
0.874796
0.856151
0.847736
0.850488
0.863934
0.886092
0.913743
0.94301
0.97012
0.992468
1.00855
1.01832
1.02313
1.02534
1.02782
1.03331
1.04377
1.05992
1.08144
1.10681
1.13321
1.15742
1.17675
1.18957
1.19548
1.19502
1.18913
1.17828
1.16231
1.14053
1.11233
1.07802
1.03958
1.0008
0.966598
0.941716
0.931256
0.938105
0.955914
0.974434
0.983478
0.976994
0.955573
0.926464
0.901233
0.892086
0.907568
0.94585
1.00198
1.0732
1.15677
1.24697
1.3338
1.40618
1.45416
1.47027
1.45071
1.39602
1.31112
1.20451
1.08696
0.969608
0.860328
0.762634
0.677685
0.606654
0.5484
0.500395
0.459335
0.421766
0.384589
0.345356
0.302347
0.254512
0.20144
0.143133
0.080146
0
-0.0137433
0.464432
1.73939
3.89507
6.66642
9.45999
11.5263
12.221
11.2495
8.79703
5.48338
2.14629
-0.465297
-1.95098
-2.3495
-1.97721
-1.46709
-1.01086
-0.732585
-0.62027
-0.540365
-0.464576
-0.390093
-0.316597
-0.244298
-0.173609
-0.104954
-0.0385954
0.025503
0.0877848
0.149098
0.210592
0.273532
0.339088
0.408136
0.481144
0.558138
0.638769
0.72241
0.808249
0.895352
0.982696
1.06919
1.15373
1.23533
1.31329
1.38745
1.45834
1.52726
1.59624
1.66788
1.74533
1.83316
1.93952
2.07804
2.25335
2.43644
2.58726
2.6653
2.64339
2.51976
2.32096
2.09148
1.87424
1.69252
1.53468
1.38967
1.25399
1.12798
1.01296
0.910472
0.822153
0.748521
0.687756
0.636558
0.590736
0.546098
0.499367
0.448887
0.394927
0.339544
0.286039
0.237921
0.198112
0.168886
0.151281
0.145422
0.150099
0.162975
0.181634
0.204243
0.230003
0.259251
0.293183
0.333277
0.380589
0.435805
0.497794
0.56285
0.625295
0.678948
0.7186
0.741259
0.746973
0.739065
0.723644
0.70842
0.700975
0.706872
0.727506
0.762876
0.806215
0.848205
0.879743
0.894482
0.890285
0.869212
0.836253
0.797441
0.758137
0.721379
0.688289
0.659225
0.634212
0.613085
0.595577
0.581352
0.569962
0.560784
0.552983
0.545556
0.537526
0.528248
0.517712
0.506761
0.497441
0.492797
0.496446
0.512032
0.542681
0.590578
0.656742
0.740981
0.841971
0.956959
1.08266
1.21615
1.35317
1.48747
1.61001
1.71086
1.78134
1.81446
1.80618
1.75656
1.67035
1.55658
1.42705
1.29418
1.16781
1.05176
0.946449
0.851797
0.767087
0.690417
0.619034
0.54973
0.479085
0.40321
0.318353
0.223925
0.121394
0
0.122465
0.747773
2.07247
4.14713
6.78833
9.53216
11.6908
12.5491
11.6653
9.12861
5.59406
2.03103
-0.693117
-2.15045
-2.42602
-1.93436
-1.14374
-0.385653
0.183473
0.528597
0.651712
0.694826
0.733107
0.771409
0.811352
0.854421
0.901977
0.955059
1.01422
1.07941
1.14986
1.22413
1.30024
1.37587
1.44866
1.5165
1.57786
1.63197
1.67887
1.71935
1.75474
1.78674
1.81715
1.84772
1.88006
1.91563
1.95572
2.00144
2.05348
2.11194
2.17655
2.24591
2.31542
2.37842
2.42818
2.45959
2.47031
2.46105
2.43468
2.39484
2.34461
2.28672
2.22333
2.15558
2.08465
2.01223
1.9404
1.87118
1.80608
1.74561
1.6891
1.63485
1.58052
1.52368
1.46244
1.39593
1.32461
1.25038
1.17625
1.10582
1.04276
0.990968
0.955043
0.936691
0.930048
0.926593
0.918045
0.899296
0.870196
0.835427
0.802539
0.778921
0.768454
0.768563
0.776833
0.788609
0.798718
0.802911
0.798917
0.786832
0.768803
0.748152
0.728267
0.711496
0.698581
0.689403
0.683219
0.679204
0.676988
0.676931
0.680045
0.687589
0.700537
0.71915
0.74254
0.769504
0.79873
0.829132
0.860119
0.891632
0.923931
0.957233
0.99135
1.02538
1.05756
1.0854
1.10621
1.11783
1.11917
1.11059
1.09399
1.07247
1.04971
1.02907
1.01274
1.00163
0.99419
0.987448
0.978176
0.964173
0.94524
0.923517
0.903133
0.889352
0.88749
0.900465
0.929399
0.975731
1.04425
1.14594
1.29353
1.47471
1.65203
1.78381
1.83705
1.79836
1.67745
1.50206
1.30771
1.12762
0.978736
0.855971
0.751518
0.660933
0.581845
0.512509
0.450986
0.395255
0.343405
0.293794
0.245178
0.196744
0.148063
0.0990159
0.0496714
0
0.0382727
0.388572
1.36532
3.22503
5.95041
9.0967
11.8409
13.2659
12.7685
10.3712
6.7482
2.93616
-0.114571
-1.8976
-2.44116
-2.13187
-1.45664
-0.774235
-0.247854
0.000566792
0.0171616
0.0264359
0.0415428
0.0694423
0.123607
0.215552
0.327103
0.429087
0.493542
0.505949
0.471654
0.413558
0.36261
0.346186
0.375983
0.437802
0.52078
0.620435
0.733599
0.85727
0.988568
1.11997
1.24142
1.34412
1.42336
1.4807
1.52388
1.56431
1.61282
1.67548
1.74992
1.8291
1.90727
1.97881
2.03916
2.0856
2.11744
2.13574
2.14265
2.14085
2.13259
2.11899
2.1
2.07434
2.03985
1.99392
1.93403
1.85847
1.76686
1.66046
1.5423
1.41687
1.28961
1.16597
1.05073
0.947535
0.858579
0.783886
0.721052
0.666137
0.614541
0.562004
0.505526
0.444022
0.378565
0.312083
0.249163
0.194709
0.15281
0.125885
0.114347
0.116862
0.131072
0.154505
0.185304
0.222468
0.266024
0.316384
0.37376
0.437452
0.505905
0.577078
0.648394
0.716758
0.778974
0.832377
0.87506
0.906098
0.925691
0.935173
0.936859
0.93372
0.928894
0.92511
0.924095
0.926335
0.930909
0.935381
0.93637
0.93028
0.914079
0.885986
0.845927
0.79567
0.738614
0.679264
0.622457
0.572298
0.531513
0.501746
0.483684
0.476643
0.479061
0.4891
0.505135
0.526096
0.551596
0.581883
0.61769
0.660064
0.710012
0.768703
0.837274
0.916529
1.00662
1.10755
1.21855
1.33503
1.44945
1.55339
1.6389
1.69967
1.73166
1.73328
1.70533
1.65087
1.57522
1.48529
1.38899
1.29429
1.20773
1.1323
1.0677
1.01241
0.963611
0.91672
0.865582
0.803294
0.723077
0.619172
0.48768
0.320824
0.115885
-0.118519
-0.375809
-0.504459
-0.13207
0.987923
2.98519
151
335
522
710
896
1072
1248
1427
1607
1785
1968
2153
2339
2520
2698
2877
3055
3229
3402
3578
0
0
0
0
0
0
0
0
0
0
0
0
0
0
0
0
0
0
0
0
0
0
0
0
0
0
0
0
0
0
0
0
0
0
0
0
0
0
0
0
0
0
0
0
0
0
0
0
0
0
0
0
0
0
0
0
0
0
0
0
0
0
0
0
0
0
0
0
0
0
0
0
0
0
0
0
0
0
0
0
0
0
0
0
0
0
0
0
0
0
0
0
0
0
0
0
0
0
0
0
0
0
0
0
0
0
0
0
0
0
0
0
0
0
0
0
0
0
0
0
0
0
0
0
0
0
0
0
0
0
0
0
0
0
0
0
0
0
0
0
0
0
0
0
0
0
0
0
0
0
0
0
0
0
0
0
0
0
0
0
0
0
0
0
0
0
0
0
0
0
0
0
0
0
0
0
0
0
0
0
0
0
0
0
0
0
0
0
0
0
0
0
0
0
0
0
0
0
0
0
0
0
0
0
0
0
0
0
0
0
0
0
0
0
0
0
0
0
0
0
0
0
0
0
0
0
0
0
0
0
0
0
0
0
0
0
0
0
0
0
0
0
0
0
0
0
0
0
0
0
0
0
0
0
0
0
0
0
0
0
0
0
0
0
0
0
0
0
0
0
0
0
0
0
0
0
0
0
0
0
0
0
0
0
0
0
0
0
0
0
0
0
0
0
0
0
0
0
0
0
0
0
0
0
0
0
0
0
0
0
0
0
0
0
0
0
0
0
0
0
0
0
0
0
0
0
0
0
0
0
0
0
0
0
0
0
0
0
0
0
0
0
0
0
0
0
0
0
0
0
0
0
0
0
0
0
0
0
0
0
0
0
0
0
0
0
0
0
0
0
0
0
0
0
0
0
0
0
0
0
0
0
0
0
0
0
0
0
0
0
0
0
0
0
0
0
0
0
0
0
0
0
0
0
0
0
0
0
0
0
0
0
0
0
0
0
0
0
0
0
0
0
0
0
0
0
0
0
0
0
0
0
0
0
0
0
0
0
0
0
0
0
0
0
0
0
0
0
0
0
0
0
0
0
0
0
0
0
0
0
0
0
0
0
0
0
0
0
0
0
0
0
0
0
0
0
0
0
0
0
0
0
0
0
0
0
0
0
0
0
0
0
0
0
0
0
0
0
0
0
0
0
0
0
0
0
0
0
0
0
0
0
0
0
0
0
0
0
0
0
0
0
0
0
0
0
0
0
0
0
0
0
0
0
0
0
0
0
0
0
0
0
0
0
0
0
0
0
0
0
0
0
0
0
0
0
0
0
0
0
0
0
0
0
0
0
0
0
0
0
0
0
0
0
0
0
0
0
0
0
0
0
0
0
0
0
0
0
0
0
0
0
0
0
0
0
0
0
0
0
0
0
0
0
0
0
0
0
0
0
0
0
0
0
0
0
0
0
0
0
0
0
0
0
0
0
0
0
0
0
0
0
0
0
0
0
0
0
0
0
0
0
0
0
0
0
0
0
0
0
0
0
0
0
0
0
0
0
0
0
0
0
0
0
0
0
0
0
0
0
0
0
0
0
0
0
0
0
0
0
0
0
0
0
0
0
0
0
0
0
0
0
0
0
0
0
0
0
0
0
0
0
0
0
0
0
0
0
0
0
0
0
0
0
0
0
0
0
0
0
0
0
0
0
0
0
0
0
0
0
0
0
0
0
0
0
0
0
0
0
0
0
0
0
0
0
0
0
0
0
0
0
0
0
0
0
0
0
0
0
0
0
0
0
0
0
0
0
0
0
0
0
0
0
0
0
0
0
0
0
0
0
0
0
0
0
0
0
0
0
0
0
0
0
0
0
0
0
0
0
0
0
0
0
0
0
0
0
0
0
0
0
0
0
0
0
0
0
0
0
0
0
0
0
0
0
0
0
0
0
0
0
0
0
0
0
0
0
0
0
0
0
0
0
0
0
0
0
0
0
0
0
0
0
0
0
0
0
0
0
0
0
0
0
0
0
0
0
0
0
0
0
0
0
0
0
0
0
0
0
0
0
0
0
0
0
0
0
0
0
0
0
0
0
0
0
0
0
0
0
0
0
0
0
0
0
0
0
0
0
0
0
0
0
0
0
0
0
0
0
0
0
0
0
0
0
0
0
0
0
0
0
0
0
0
0
0
0
0
0
0
0
0
0
0
0
0
0
0
0
0
0
0
0
0
0
0
0
0
0
0
0
0
0
0
0
0
0
0
0
0
0
0
0
0
0
0
0
0
0
0
0
0
0
0
0
0
0
0
0
0
0
0
0
0
0
0
0
0
0
0
0
0
0
0
0
0
0
0
0
0
0
0
0
0
0
0
0
0
0
0
0
0
0
0
0
0
0
0
0
0
0
0
0
0
0
0
0
0
0
0
0
0
0
0
0
0
0
0
0
0
0
0
0
0
0
0
0
0
0
0
0
0
0
0
0
0
0
0
0
0
0
0
0
0
0
0
0
0
0
0
0
0
0
0
0
0
0
0
0
0
0
0
0
0
0
0
0
0
0
0
0
0
0
0
0
0
0
0
0
0
0
0
0
0
0
0
0
0
0
0
0
0
0
0
0
0
0
0
0
0
0
0
0
0
0
0
0
0
0
0
0
0
0
0
0
0
0
0
0
0
0
0
0
0
0
0
0
0
0
0
0
0
0
0
0
0
0
0
0
0
0
0
0
0
0
0
0
0
0
0
0
0
0
0
0
0
0
0
0
0
0
0
0
0
0
0
0
0
0
0
0
0
0
0
0
0
0
0
0
0
0
0
0
0
0
0
0
0
0
0
0
0
0
0
0
0
0
0
0
0
0
0
0
0
0
0
0
0
0
0
0
0
0
0
0
0
0
0
0
0
0
0
0
0
0
0
0
0
0
0
0
0
0
0
0
0
0
0
0
0
0
0
0
0
0
0
0
0
0
0
0
0
0
0
0
0
0
0
0
0
0
0
0
0
0
0
0
0
0
0
0
0
0
0
0
0
0
0
0
0
0
0
0
0
0
0
0
0
0
0
0
0
0
0
0
0
0
0
0
0
0
0
0
0
0
0
0
0
0
0
0
0
0
0
0
0
0
0
0
0
0
0
0
0
0
0
0
0
0
0
0
0
0
0
0
0
0
0
0
0
0
0
0
0
0
0
0
0
0
0
0
0
0
0
0
0
0
0
0
0
0
0
0
0
0
0
0
0
0
0
0
0
0
0
0
0
0
0
0
0
0
0
0
0
0
0
0
0
0
0
0
0
0
0
0
0
0
0
0
0
0
0
0
0
0
0
0
0
0
0
0
0
0
0
0
0
0
0
0
0
0
0
0
0
0
0
0
0
0
0
0
0
0
0
0
0
0
0
0
0
0
0
0
0
0
0
0
0
0
0
0
0
0
0
0
0
0
0
0
0
0
0
0
0
0
0
0
0
0
0
0
0
0
0
0
0
0
0
0
0
0
0
0
0
0
0
0
0
0
0
0
0
0
0
0
0
0
0
0
0
0
0
0
0
0
0
0
0
0
0
0
0
0
0
0
0
0
0
0
0
0
0
0
0
0
0
0
0
0
0
0
0
0
0
0
0
0
0
0
0
0
0
0
0
0
0
0
0
0
0
0
0
0
0
0
0
0
0
0
0
0
0
0
0
0
0
0
0
0
0
0
0
0
0
0
0
0
0
0
0
0
0
0
0
0
0
0
0
0
0
0
0
0
0
0
0
0
0
0
0
0
0
0
0
0
0
0
0
0
0
0
0
0
0
0
0
0
0
0
0
0
0
0
0
0
0
0
0
0
0
0
0
0
0
0
0
0
0
0
0
0
0
0
0
0
0
0
0
0
0
0
0
0
0
0
0
0
0
0
0
0
0
0
0
0
0
0
0
0
0
0
0
0
0
0
0
0
0
0
0
0
0
0
0
0
0
0
0
0
0
0
0
0
0
0
0
0
0
0
0
0
0
0
0
0
0
0
0
0
0
0
0
0
0
0
0
0
0
0
0
0
0
0
0
0
0
0
0
0
0
0
0
0
0
0
0
0
0
0
0
0
0
0
0
0
0
0
0
0
0
0
0
0
0
0
0
0
0
0
0
0
0
0
0
0
0
0
0
0
0
0
0
0
0
0
0
0
0
0
0
0
0
0
0
0
0
0
0
0
0
0
0
0
0
0
0
0
0
0
0
0
0
0
0
0
0
0
0
0
0
0
0
0
0
0
0
0
0
0
0
0
0
0
0
0
0
0
0
0
0
0
0
0
0
0
0
0
0
0
0
0
0
0
0
0
0
0
0
0
0
0
0
0
0
0
0
0
0
0
0
0
0
0
0
0
0
0
0
0
0
0
0
0
0
0
0
0
0
0
0
0
0
0
0
0
0
0
0
0
0
0
0
0
0
0
0
0
0
0
0
0
0
0
0
0
0
0
0
0
0
0
0
0
0
0
0
0
0
0
0
0
0
0
0
0
0
0
0
0
0
0
0
0
0
0
0
0
0
0
0
0
0
0
0
0
0
0
0
0
0
0
0
0
0
0
0
0
0
0
0
0
0
0
0
0
0
0
0
0
0
0
0
0
0
0
0
0
0
0
0
0
0
0
0
0
0
0
0
0
0
0
0
0
0
0
0
0
0
0
0
0
0
0
0
0
0
0
0
0
0
0
0
0
0
0
0
0
0
0
0
0
0
0
0
0
0
0
0
0
0
0
0
0
0
0
0
0
0
0
0
0
0
0
0
0
0
0
0
0
0
0
0
0
0
0
0
0
0
0
0
0
0
0
0
0
0
0
0
0
0
0
0
0
0
0
0
0
0
0
0
0
0
0
0
0
0
0
0
0
0
0
0
0
0
0
0
0
0
0
0
0
0
0
0
0
0
0
0
0
0
0
0
0
0
0
0
0
0
0
0
0
0
0
0
0
0
0
0
0
0
0
0
0
0
0
0
0
0
0
0
0
0
0
0
0
0
0
0
0
0
0
0
0
0
0
0
0
0
0
0
0
0
0
0
0
0
0
0
0
0
0
0
0
0
0
0
0
0
0
0
0
0
0
0
0
0
0
0
0
0
0
0
0
0
0
0
0
0
0
0
0
0
0
0
0
0
0
0
0
0
0
0
0
0
0
0
0
0
0
0
0
0
0
0
0
0
0
0
0
0
0
0
0
0
0
0
0
0
0
0
0
0
0
0
0
0
0
0
0
0
0
0
0
0
0
0
0
0
0
0
0
0
0
0
0
0
0
0
0
0
0
0
0
0
0
0
0
0
0
0
0
0
0
0
0
0
0
0
0
0
0
0
0
0
0
0
0
0
0
0
0
0
0
0
0
0
0
0
0
0
0
0
0
0
0
0
0
0
0
0
0
0
0
0
0
0
0
0
0
0
0
0
0
0
0
0
0
0
0
0
0
0
0
0
0
0
0
0
0
0
0
0
0
0
0
0
0
0
0
0
0
0
0
0
0
0
0
0
0
0
0
0
0
0
0
0
0
0
0
0
0
0
0
0
0
0
0
0
0
0
0
0
0
0
0
0
0
0
0
0
0
0
0
0
0
0
0
0
0
0
0
0
0
0
0
0
0
0
0
0
0
0
0
0
0
0
0
0
0
0
0
0
0
0
0
0
0
0
0
0
0
0
0
0
0
0
0
0
0
0
0
0
0
0
0
0
0
0
0
0
0
0
0
0
0
0
0
0
0
0
0
0
0
0
0
0
0
0
0
0
0
0
0
0
0
0
0
0
0
0
0
0
0
0
0
0
0
0
0
0
0
0
0
0
0
0
0
0
0
0
0
0
0
0
0
0
0
0
0
0
0
0
0
0
0
0
0
0
0
0
0
0
0
0
0
0
0
0
0
0
0
0
0
0
0
0
0
0
0
0
0
0
0
0
0
0
0
0
0
0
0
0
0
0
0
0
0
0
0
0
0
0
0
0
0
0
0
0
0
0
0
0
0
0
0
0
0
0
0
0
0
0
0
0
0
0
0
0
0
0
0
0
0
0
0
0
0
0
0
0
0
0
0
0
0
0
0
0
0
0
0
0
0
0
0
0
0
0
0
0
0
0
0
0
0
0
0
0
0
0
0
0
0
0
0
0
0
0
0
0
0
0
0
0
0
0
0
0
0
0
0
0
0
0
0
0
0
0
0
0
0
0
0
0
0
0
0
0
0
0
0
0
0
0
0
0
0
0
0
0
0
0
0
0
0
0
0
0
0
0
0
0
0
0
0
0
0
0
0
0
0
0
0
0
0
0
0
0
0
0
0
0
0
0
0
0
0
0
0
0
0
0
0
0
0
0
0
0
0
0
0
0
0
0
0
0
0
0
0
0
0
0
0
0
0
0
0
0
0
0
0
0
0
0
0
0
0
0
0
0
0
0
0
0
0
0
0
0
0
0
0
0
0
0
0
0
0
0
0
0
0
0
0
0
0
0
0
0
0
0
0
0
0
0
0
0
0
0
0
0
0
0
0
0
0
0
0
0
0
0
0
0
0
0
0
0
0
0
0
0
0
0
0
0
0
0
0
0
0
0
0
0
0
0
0
0
0
0
0
0
0
0
0
0
0
0
0
0
0
0
0
0
0
0
0
0
0
0
0
0
0
0
0
0
0
0
0
0
0
0
0
0
0
0
0
0
0
0
0
0
0
0
0
0
0
0
0
0
0
0
0
0
0
0
0
0
0
0
0
0
0
0
0
0
0
0
0
0
0
0
0
0
0
0
0
0
0
0
0
0
0
0
0
0
0
0
0
0
0
0
0
0
0
0
0
0
0
0
0
0
0
0
0
0
0
0
0
0
0
0
0
0
0
0
0
0
0
0
0
0
0
0
0
0
0
0
0
0
0
0
0
0
0
0
0
0
0
0
0
0
0
0
0
0
0
0
0
0
0
0
0
0
0
0
0
0
0
0
0
0
0
0
0
0
0
0
0
0
0
0
0
0
0
0
0
0
0
0
0
0
0
0
0
0
0
0
0
0
0
0
0
0
0
0
0
0
0
0
0
0
0
0
0
0
0
0
0
0
0
0
0
0
0
0
0
0
0
0
0
0
0
0
0
0
0
0
0
0
0
0
0
0
0
0
0
0
0
0
0
0
0
0
0
0
0
0
0
0
0
0
0
0
0
0
0
0
0
0
0
0
0
0
0
0
0
0
0
0
0
0
0
0
0
0
0
0
0
0
0
0
0
0
0
0
0
0
0
0
0
0
0
0
0
0
0
0
0
0
0
0
0
0
0
0
0
0
0
0
0
0
0
0
0
0
0
0
0
0
0
0
0
0
0
0
0
0
0
0
0
0
0
0
0
0
0
0
0
0
0
0
0
0
0
0
0
0
0
0
0
0
0
0
0
0
0
0
0
0
0
0
0
0
0
0
0
0
0
0
0
0
0
0
0
0
0
0
0
0
0
0
0
0
0
0
0
0
0
0
0
0
0
0
0
0
0
0
0
0
0
0
0
0
0
0
0
0
0
0
0
0
0
0
0
0
0
0
0
0
0
0
0
0
0
0
0
0
0
0
0
0
0
0
0
0
0
0
0
0
0
0
0
0
0
0
0
0
0
0
0
0
0
0
0
0
0
0
0
0
0
0
0
0
0
0
0
0
0
0
0
0
0
0
0
0
0
0
0
0
0
0
0
0
0
0
0
0
0
0
0
0
0
0
0
0
0
0
0
0
0
0
0
0
0
0
0
0
0
0
0
0
0
0
0
0
0
0
0
0
0
0
0
0
0
0
0
0
0
0
0
0
0
0
0
0
0
0
0
0
0
0
0
0
0
0
0
0
0
0
0
0
0
0
0
0
0
0
0
0
0
0
0
0
0
0
0
0
0
0
0
0
0
0
0
0
0
0
0
0
0
0
0
0
0
0
0
0
0
0
0
0
0
0
0
0
0
0
0
0
0
0
0
0
0
0
0
0
0
0
0
0
0
0
0
0
0
0
0
0
0
0
0
0
0
0
0
0
0
0
0
0
0
0
0
0
0
0
0
0
0
0
0
0
0
0
0
0
0
0
0
0
0
0
0
0
0
0
0
0
0
0
0
0
0
0
0
0
0
0
0
0
0
0
0
0
0
0
0
0
0
0
0
0
0
0
0
0
0
0
0
0
0
0
0
0
0
0
0
0
0
0
0
0
0
0
0
0
0
0
0
0
0
0
0
0
0
0
0
0
0
0
0
0
0
0
0
0
0
0
0
0
0
0
0
0
0
0
0
0
0
0
0
0
0
0
0
0
0
0
0
0
0
0
0
0
0
0
0
0
0
0
0
0
0
0
0
0
0
0
0
0
0
0
0
0
0
0
0
0
0
0
0
0
0
0
0
0
0
0
0
0
0
0
0
0
0
0
0
0
0
0
0
0
0
0
0
0
0
0
0
0
0
0
0
0
0
0
0
0
0
0
0
0
0
0
0
0
0
0
0
0
0
0
0
0
0
0
0
0
0
0
0
0
0
0
0
0
0
0
0
0
0
0
