0.876748
0.819902
0.603109
0.204507
-0.327576
-0.923135
-0.977677
0
2.27684
5.79473
10.0724
14.2629
17.3747
18.6039
17.6473
14.8425
11.0418
7.26873
4.32292
2.5308
1.74698
1.55913
1.50507
1.44496
1.38678
1.33323
1.28681
1.24969
1.22372
1.2108
1.21313
1.23205
1.26834
1.32177
1.39073
1.4722
1.56212
1.65619
1.75094
1.84453
1.93702
2.03013
2.1267
2.2298
2.34199
2.4644
2.59724
2.74013
2.89233
3.05306
3.22181
3.39836
3.58268
3.77467
3.97398
4.17978
4.39075
4.60505
4.82048
5.03406
5.24055
5.4306
5.59361
5.71884
5.79641
5.81968
5.78689
5.70093
5.56733
5.39153
5.17716
4.93195
4.66407
4.37918
4.08151
3.77536
3.46575
3.15832
2.85905
2.57383
2.30799
2.06596
1.85093
1.66471
1.50773
1.37919
1.27773
1.201
1.14587
1.1091
1.08744
1.07781
1.07737
1.08364
1.09464
1.1089
1.12542
1.14358
1.16285
1.18246
1.20107
1.21663
1.22674
1.22918
1.22256
1.20685
1.1837
1.15632
1.129
1.10631
1.09205
1.08837
1.09596
1.11459
1.14284
1.17847
1.21897
1.26204
1.30599
1.35002
1.39412
1.43892
1.48535
1.53427
1.58622
1.64115
1.69847
1.75698
1.81506
1.87073
1.92187
1.96649
2.00294
2.03006
2.04727
2.05448
2.05188
2.03966
2.01773
1.98554
1.94217
1.88656
1.818
1.73669
1.64417
1.54349
1.43901
1.33595
1.23964
1.15464
1.08438
1.0307
0.993822
0.972997
0.965816
0.969223
0.980149
0.995909
1.01436
1.03384
1.05281
1.06958
1.08207
1.08615
1.04368
0.678443
0.0272614
-0.752029
-1.45183
-1.34951
0
2.7953
6.79308
11.286
15.2979
17.8889
18.4613
16.9524
13.8469
10.0049
6.36334
3.62277
2.0474
1.46049
1.4261
1.35447
1.28555
1.22077
1.16309
1.11587
1.08248
1.06585
1.06801
1.08976
1.1304
1.18757
1.25701
1.33462
1.41637
1.49903
1.58085
1.66192
1.74383
1.82907
1.92017
2.0189
2.12555
2.23924
2.35884
2.48339
2.61275
2.74815
2.89208
3.04778
3.21826
3.40521
3.6081
3.82368
4.04615
4.26814
4.48176
4.67984
4.85694
5.00985
5.13747
5.2399
5.31717
5.36827
5.39156
5.38524
5.34626
5.27136
5.15831
5.00686
4.81916
4.5997
4.35466
4.09208
3.82053
3.54691
3.2776
3.0187
2.77562
2.55274
2.35409
2.18284
2.03666
1.91028
1.79757
1.69343
1.59568
1.50592
1.42905
1.37174
1.33989
1.33631
1.35945
1.40345
1.45943
1.51738
1.56872
1.60854
1.63326
1.64093
1.63131
1.60553
1.56588
1.51567
1.45882
1.3995
1.34195
1.29
1.24661
1.21347
1.1912
1.17851
1.1729
1.17138
1.1712
1.17037
1.16788
1.16371
1.15871
1.1545
1.15346
1.15888
1.17494
1.20645
1.25827
1.33437
1.43677
1.56431
1.71218
1.87411
2.04229
2.20801
2.36255
2.4985
2.61043
2.69499
2.7508
2.77824
2.77891
2.75525
2.71032
2.64763
2.57109
2.48479
2.39277
2.29879
2.20588
2.11616
2.03105
1.95132
1.87743
1.80986
1.74942
1.69731
1.65502
1.62415
1.60617
1.6018
1.61091
1.63274
1.66616
1.70865
1.75339
1.79068
1.80955
1.79891
1.64219
1.16854
0.497736
-0.210847
-0.613792
0
1.88818
5.10337
9.2892
13.681
17.2706
19.1154
18.6916
16.132
12.2106
8.04986
4.67458
2.63297
1.87437
1.91739
2.03503
1.95193
1.85947
1.76254
1.66831
1.58526
1.5216
1.48401
1.4764
1.49918
1.54912
1.61996
1.70361
1.79174
1.87755
1.95754
2.03133
2.10019
2.16674
2.23461
2.30785
2.39021
2.48466
2.59306
2.71613
2.85357
3.0043
3.16678
3.33928
3.52012
3.70777
3.90089
4.0982
4.29841
4.50003
4.7012
4.89963
5.09223
5.27464
5.44163
5.58812
5.70934
5.80082
5.85848
5.87805
5.85618
5.79016
5.6784
5.5212
5.32154
5.08541
4.82172
4.54133
4.25581
3.97468
3.70422
3.44915
3.21221
2.9945
2.79611
2.61671
2.45608
2.31436
2.19201
2.08954
2.0073
1.94502
1.90128
1.87306
1.85573
1.84387
1.83226
1.81674
1.79482
1.76597
1.73153
1.69428
1.6577
1.62514
1.59891
1.57997
1.56844
1.5633
1.56294
1.56572
1.57033
1.57594
1.58213
1.58867
1.59531
1.60167
1.60736
1.61222
1.61657
1.62124
1.6274
1.63617
1.64822
1.66365
1.68134
1.69975
1.71778
1.73554
1.75485
1.7791
1.81253
1.85935
1.9224
2.00138
2.09493
2.20125
2.31744
2.43992
2.56418
2.68505
2.79733
2.89579
2.97515
3.03062
3.05907
3.05838
3.02767
2.96757
2.88048
2.7707
2.64426
2.50844
2.37108
2.23913
2.11758
2.01025
1.91979
1.84725
1.7922
1.75276
1.72581
1.70717
1.69175
1.67399
1.64872
1.61161
1.55965
1.4911
1.40462
1.29892
1.16866
0.995358
0.746885
0.416591
0.0398453
-0.329614
0
1.47028
4.30985
8.29213
12.7124
16.5712
18.8914
19.0562
17.0427
13.4526
9.30417
5.6509
3.19366
2.07485
1.94805
2.22108
2.19874
2.16795
2.1279
2.08067
2.03127
1.98663
1.95396
1.93705
1.93836
1.95902
1.99835
2.05452
2.12523
2.2081
2.30102
2.40261
2.51216
2.62913
2.75285
2.88247
3.01697
3.15531
3.29662
3.44038
3.58652
3.73539
3.88767
4.0442
4.20576
4.3729
4.5458
4.72411
4.90687
5.09243
5.27836
5.46135
5.63689
5.80033
5.94718
6.07347
6.17601
6.25115
6.29392
6.30223
6.27413
6.20817
6.10398
5.96285
5.78788
5.58359
5.3551
5.10821
4.84924
4.58212
4.30988
4.03591
3.76416
3.49922
3.24617
3.01022
2.79631
2.60864
2.45053
2.32369
2.22819
2.16294
2.12711
2.1174
2.12583
2.14339
2.16124
2.17179
2.16941
2.15093
2.11582
2.06614
2.00639
1.94331
1.88372
1.83423
1.80043
1.78933
1.80547
1.84451
1.89558
1.94557
1.98237
1.99761
1.98813
1.95621
1.9087
1.85553
1.80776
1.77471
1.76258
1.77379
1.80781
1.86261
1.93593
2.02538
2.12483
2.22403
2.31341
2.38632
2.44067
2.47968
2.5111
2.54519
2.59193
2.65831
2.74433
2.8509
2.97049
3.08834
3.18832
3.25675
3.28489
3.26988
3.21436
3.12505
3.01083
2.88084
2.74369
2.60601
2.47222
2.34542
2.22959
2.12828
2.04451
1.98026
1.93615
1.91128
1.90349
1.90976
1.9269
1.95183
1.98186
2.01523
2.05044
2.08597
2.12016
2.1507
2.16137
1.9349
1.34054
0.492665
-0.316526
-0.690248
0
2.04259
5.39045
9.5524
13.6782
16.792
18.1081
17.3176
14.7198
11.1147
7.48467
4.61303
2.83228
2.02052
1.80687
1.86385
1.92202
1.97869
2.03243
2.08238
2.12842
2.17124
2.21217
2.25291
2.29517
2.34046
2.38981
2.44385
2.503
2.56748
2.63734
2.71257
2.79306
2.87868
2.96936
3.06518
3.16649
3.27399
3.38874
3.51218
3.64597
3.79184
3.95127
4.12507
4.31305
4.5137
4.72411
4.94011
5.15677
5.36896
5.57199
5.76205
5.93574
6.08934
6.22034
6.32775
6.41039
6.46666
6.4945
6.49151
6.45517
6.38312
6.27371
6.12723
5.94655
5.73503
5.49709
5.23846
4.96591
4.6863
4.40533
4.12792
3.85825
3.59988
3.35585
3.12889
2.92147
2.73585
2.57401
2.43751
2.3273
2.2436
2.18646
2.15605
2.15086
2.16385
2.18345
2.19875
2.20203
2.1906
2.16724
2.13876
2.11322
2.09692
2.09144
2.09385
2.10068
2.10788
2.11227
2.11242
2.10868
2.10252
2.09552
2.08857
2.08167
2.07435
2.0663
2.05807
2.05138
2.04915
2.05496
2.07248
2.10397
2.15014
2.21126
2.28687
2.37539
2.4744
2.58082
2.69119
2.80196
2.90977
3.01152
3.10418
3.18439
3.2484
3.29233
3.31204
3.303
3.26095
3.18268
3.06698
2.91546
2.73302
2.5278
2.3108
2.094
1.88911
1.70656
1.55417
1.43647
1.35454
1.30645
1.28807
1.29413
1.3192
1.35841
1.40746
1.46266
1.52109
1.57789
1.62509
1.65223
1.64719
1.58065
1.32664
0.904807
0.373053
-0.206391
0
1.32555
3.91007
7.54291
11.6576
15.4285
17.9751
18.6354
17.2243
14.1503
10.2938
6.67258
4.04784
2.67583
2.32396
2.49599
2.48394
2.46978
2.45338
2.43618
2.42122
2.41246
2.41383
2.42711
2.45216
2.48831
2.53376
2.58442
2.6346
2.67916
2.71484
2.74114
2.7606
2.77843
2.8014
2.83658
2.88983
2.96332
3.05719
3.17115
3.30417
3.45426
3.61868
3.79413
3.97705
4.16388
4.35127
4.53636
4.71687
4.89104
5.05748
5.21481
5.36119
5.49408
5.61104
5.70948
5.78696
5.84143
5.87129
5.87523
5.85209
5.80069
5.72003
5.61035
5.47197
5.30633
5.11631
4.90617
4.68106
4.44655
4.20788
3.96947
3.73496
3.50737
3.28946
3.08404
2.89418
2.72316
2.57417
2.44978
2.352
2.28326
2.24538
2.23413
2.23824
2.24575
2.24673
2.23542
2.21101
2.17685
2.13845
2.10112
2.06805
2.03936
2.01422
1.99175
1.97112
1.95183
1.93372
1.91685
1.90117
1.88634
1.87186
1.85713
1.84172
1.82563
1.80946
1.79458
1.78304
1.77747
1.78077
1.79583
1.82506
1.86995
1.93072
2.00601
2.09283
2.18675
2.28237
2.37361
2.45449
2.51976
2.56517
2.58758
2.58482
2.55559
2.49941
2.4167
2.30924
2.18063
2.03575
1.8805
1.72165
1.56605
1.4198
1.28766
1.1721
1.07351
0.990777
0.92207
0.865611
0.820268
0.78577
0.762565
0.751235
0.751779
0.763823
0.786504
0.815781
0.840189
0.844402
0.811148
0.672383
0.353695
-0.121537
-0.686329
-0.892547
0
2.23104
5.62657
9.62964
13.4419
16.2292
17.3403
16.5039
13.9468
10.3595
6.67399
3.71781
1.91109
1.17034
1.06479
1.04178
1.02166
1.00489
0.994422
0.993244
1.00406
1.02886
1.06858
1.1227
1.18939
1.2664
1.34743
1.42536
1.49418
1.55058
1.59492
1.63119
1.666
1.70708
1.76154
1.83228
1.91992
2.02476
2.14602
2.28157
2.42833
2.5827
2.74096
2.89987
3.05711
3.21146
3.36276
3.51152
3.65854
3.80447
3.94962
4.09389
4.23687
4.37775
4.51456
4.64208
4.75136
4.82987
4.86232
4.83482
4.73929
4.57572
4.3514
4.07796
3.76822
3.43979
3.10441
2.76828
2.43654
2.11394
1.80471
1.51237
1.23965
0.988607
0.760746
0.557242
0.379002
0.226598
0.100154
0.00161848
-0.0667038
-0.110493
-0.137711
-0.155887
-0.170008
-0.181216
-0.186997
-0.182857
-0.164829
-0.131712
-0.0883287
-0.0395094
0.0097084
0.0543733
0.0905826
0.116065
0.130303
0.13428
0.130045
0.12037
0.10833
0.0970793
0.0900548
0.0908495
0.103089
0.130161
0.174829
0.238803
0.322346
0.423999
0.54049
0.668246
0.800343
0.927449
1.04029
1.13099
1.19405
1.22681
1.22935
1.20378
1.15338
1.08166
0.992542
0.889469
0.77566
0.654563
0.529851
0.405363
0.285102
0.172927
0.0723824
-0.0139772
-0.0862658
-0.146401
-0.196975
-0.240042
-0.276077
-0.303506
-0.318998
-0.317917
-0.289307
-0.220639
-0.116415
-0.00655231
0.0702902
0.0770817
-0.0126249
-0.209326
-0.551513
-1.00219
-1.51481
-2.05181
-1.63343
0
2.95376
6.90191
11.1285
14.7081
16.7873
16.8695
14.9983
11.7526
8.0345
4.72964
2.39594
1.13107
0.662171
0.586849
0.549758
0.515248
0.484823
0.459626
0.440326
0.42712
0.420032
0.4192
0.42514
0.438859
0.461777
0.495456
0.541222
0.599747
0.67082
0.75348
0.846092
0.946673
1.05324
1.1643
1.27905
1.39748
1.52034
1.64892
1.78472
1.92924
2.08361
2.24856
2.42434
2.61083
2.80763
3.01397
3.22856
3.4493
3.67305
3.89544
4.11077
4.31276
4.49518
4.65252
4.77922
4.87044
4.92395
4.93834
4.91265
4.84617
4.73842
4.58934
4.3996
4.17103
3.90736
3.61623
3.30619
2.9859
2.66529
2.35473
2.06402
1.80192
1.5741
1.38203
1.22397
1.09589
0.992937
0.910691
0.846092
0.797731
0.765517
0.74965
0.750207
0.767025
0.798741
0.840663
0.886208
0.929128
0.965037
0.992411
1.01273
1.02966
1.04764
1.07019
1.09852
1.13146
1.16658
1.20079
1.23147
1.25743
1.27937
1.29982
1.32256
1.35188
1.39137
1.44327
1.50891
1.58891
1.68289
1.78923
1.90516
2.02688
2.14805
2.26086
2.35749
2.43129
2.47751
2.49371
2.47954
2.43623
2.36607
2.2722
2.16003
2.03549
1.90458
1.77385
1.65106
1.54355
1.45695
1.39544
1.36039
1.34666
1.34642
1.3513
1.35432
1.35105
1.33965
1.32012
1.29309
1.25932
1.21912
1.1717
1.1153
1.04545
0.944653
0.743234
0.402113
-0.0317631
-0.449869
-0.74131
0
2.01308
5.33137
9.51562
13.7285
16.9798
18.4574
17.8192
15.3253
11.7471
8.07091
5.12024
3.26914
2.3912
2.05425
1.85792
1.73301
1.62343
1.53512
1.47161
1.43358
1.41923
1.42499
1.44657
1.47957
1.51943
1.56316
1.60801
1.65095
1.68946
1.72231
1.75035
1.77697
1.80783
1.84995
1.91015
1.99356
2.10082
2.22873
2.37401
2.53338
2.70316
2.87965
3.05961
3.24054
3.42095
3.60038
3.77931
3.95882
4.14008
4.32368
4.50926
4.69405
4.87125
5.03154
5.1649
5.26262
5.31865
5.33006
5.29654
5.21946
5.10098
4.94451
4.75497
4.53705
4.29565
4.03661
3.76635
3.4911
3.21674
2.94899
2.69292
2.45266
2.23122
2.03106
1.85448
1.70277
1.57598
1.47389
1.39615
1.34213
1.31084
1.3008
1.30998
1.33582
1.37526
1.42472
1.48056
1.53929
1.59783
1.65375
1.70542
1.75194
1.79322
1.82984
1.86313
1.89494
1.92743
1.96287
2.00333
2.05039
2.10491
2.1668
2.23511
2.30812
2.38396
2.46089
2.53769
2.61382
2.68941
2.76514
2.84195
2.92082
3.00248
3.0874
3.17559
3.26662
3.35949
3.45166
3.53686
3.60617
3.64924
3.65692
3.62411
3.55182
3.44717
3.32134
3.18623
3.05156
2.92199
2.79853
2.68203
2.57382
2.47545
2.38887
2.31626
2.25977
2.22128
2.20203
2.20252
2.2228
2.2631
2.32328
2.39758
2.47065
2.52429
2.53954
2.49753
2.15424
1.55051
0.803415
0.0211634
0
1.14535
3.66288
7.3753
11.6951
15.7449
18.6005
19.5854
18.5075
15.7338
12.0622
8.4323
5.59633
3.893
3.21154
3.14584
3.06053
2.92722
2.78934
2.65715
2.54261
2.45687
2.40785
2.3986
2.42676
2.48518
2.56342
2.64965
2.73384
2.81035
2.87734
2.93597
2.9886
3.03884
3.0906
3.14729
3.2111
3.28303
3.36394
3.45472
3.55632
3.66975
3.79571
3.93418
4.08398
4.24262
4.40644
4.57113
4.73237
4.88633
5.03012
5.16188
5.28038
5.38452
5.47318
5.54533
5.59979
5.63496
5.64906
5.64026
5.60687
5.54742
5.4607
5.34583
5.20282
5.03256
4.83652
4.61702
4.37752
4.12245
3.85697
3.58705
3.31925
3.06025
2.81649
2.59383
2.39722
2.22975
2.09276
1.9859
1.90735
1.85421
1.82297
1.80994
1.81159
1.8245
1.84602
1.87326
1.90208
1.9275
1.94477
1.95013
1.94167
1.91985
1.88737
1.84855
1.80837
1.7714
1.74052
1.71734
1.70287
1.69773
1.70227
1.71669
1.74124
1.77617
1.82175
1.87809
1.94496
2.02162
2.10667
2.19794
2.2926
2.38709
2.47678
2.55723
2.62488
2.67761
2.71504
2.73838
2.74971
2.75109
2.74353
2.72665
2.69873
2.65675
2.59764
2.51913
2.42066
2.30372
2.17189
2.03053
1.88591
1.74393
1.6098
1.48804
1.38215
1.29464
1.22679
1.17922
1.15254
1.14542
1.1547
1.17657
1.20692
1.24172
1.27694
1.30815
1.33092
1.34067
1.30406
0.96898
0.356071
-0.397028
-1.13821
-1.14754
0
2.55704
6.36489
10.8238
14.9985
17.8872
18.7584
17.4255
14.3344
10.4055
6.67855
3.91836
2.3727
1.79966
1.7166
1.63603
1.56305
1.49568
1.4367
1.38857
1.35326
1.33207
1.32563
1.33387
1.35614
1.39122
1.43737
1.49263
1.55488
1.62215
1.69292
1.76644
1.84292
1.92351
2.01023
2.10551
2.21185
2.33129
2.46502
2.61317
2.77467
2.94735
3.12812
3.31333
3.49914
3.68195
3.8588
4.02771
4.18786
4.33967
4.48461
4.62468
4.76191
4.89792
5.03277
5.16214
5.27706
5.36585
5.41705
5.42217
5.37733
5.28332
5.1444
4.96639
4.75514
4.51894
4.265
3.99846
3.72322
3.44294
3.16223
2.88681
2.62327
2.37843
2.15861
1.9688
1.81216
1.68993
1.60101
1.54121
1.5033
1.47943
1.46235
1.44657
1.42893
1.40876
1.38746
1.36776
1.35274
1.34472
1.3447
1.35275
1.36784
1.38795
1.4105
1.43281
1.45257
1.46817
1.47901
1.48557
1.48935
1.49274
1.49862
1.50999
1.52949
1.5589
1.59908
1.64991
1.71032
1.7785
1.85222
1.92907
2.00685
2.08365
2.15791
2.22843
2.29416
2.35408
2.40702
2.45152
2.48562
2.50684
2.51222
2.49854
2.46276
2.40248
2.31663
2.20591
2.0732
1.92348
1.76348
1.6009
1.44348
1.29799
1.16993
1.06311
0.979643
0.919979
0.883628
0.870343
0.878847
0.903646
0.935809
0.965786
0.984746
0.985879
0.965277
0.922121
0.852818
0.704896
0.336028
-0.221086
-0.859455
-1.42813
-1.28338
0
2.67245
6.55441
11.0013
15.0361
17.657
18.1993
16.59
13.3745
9.49723
5.93958
3.37998
2.01987
1.62436
1.72488
1.63685
1.55224
1.4741
1.40579
1.35032
1.30984
1.28533
1.27648
1.28183
1.29889
1.325
1.35807
1.39705
1.44207
1.49421
1.55506
1.62612
1.70835
1.80167
1.90518
2.01766
2.13765
2.26372
2.3949
2.53075
2.67164
2.81889
2.97448
3.14068
3.3194
3.51151
3.71635
3.93151
4.15284
4.37541
4.59383
4.80254
4.99619
5.16998
5.31925
5.43931
5.52695
5.57968
5.59514
5.57145
5.50763
5.40393
5.26188
5.08429
4.87506
4.64118
4.39044
4.12909
3.86239
3.5957
3.33424
3.08277
2.84529
2.62485
2.4235
2.24241
2.08208
1.94272
1.82459
1.72781
1.65221
1.59744
1.56276
1.54687
1.54783
1.56303
1.58936
1.6233
1.66129
1.69968
1.73499
1.76452
1.78668
1.8012
1.80919
1.81297
1.81569
1.82073
1.83114
1.84883
1.87454
1.90831
1.94947
1.99658
2.04769
2.10054
2.15264
2.20155
2.24553
2.28396
2.31752
2.34829
2.37936
2.41417
2.45572
2.50567
2.56365
2.62701
2.69226
2.75458
2.80779
2.84503
2.86035
2.84904
2.80829
2.73771
2.63965
2.51905
2.38291
2.23934
2.09659
1.96112
1.83773
1.73072
1.64331
1.57737
1.5338
1.5132
1.51448
1.53376
1.56461
1.5993
1.63005
1.65005
1.6541
1.63893
1.60325
1.54647
1.43587
1.12021
0.584385
-0.0826473
-0.750806
-0.900086
0
2.3332
6.09307
10.7274
15.2334
18.467
19.5595
18.2591
15.0386
10.9069
7.00256
4.15814
2.6434
2.19414
2.27934
2.22431
2.1444
2.0602
1.97419
1.88994
1.8117
1.7438
1.69015
1.65396
1.63754
1.64222
1.66828
1.7148
1.77961
1.85898
1.94899
2.04486
2.14212
2.23778
2.33115
2.4241
2.52069
2.62612
2.74537
2.88189
3.03567
3.20451
3.38496
3.57257
3.76272
3.95149
4.13625
4.31587
4.49058
4.66146
4.82983
4.99657
5.16156
5.32278
5.47493
5.6097
5.71802
5.79113
5.82219
5.80729
5.74561
5.6388
5.48999
5.30306
5.08496
4.84428
4.58814
4.3224
4.05251
3.78379
3.52136
3.26987
3.03319
2.81424
2.61504
2.43684
2.28097
2.14766
2.03651
1.94659
1.8763
1.82345
1.78524
1.75863
1.74057
1.72832
1.71953
1.71246
1.70574
1.69819
1.68873
1.67641
1.66055
1.64095
1.61811
1.5933
1.56851
1.54612
1.52848
1.5174
1.51367
1.51762
1.5284
1.54377
1.56147
1.58013
1.59987
1.62244
1.65071
1.6878
1.73603
1.79597
1.86549
1.94161
2.02123
2.10147
2.18025
2.25675
2.33147
2.40591
2.48218
2.56282
2.64884
2.73396
2.80441
2.84311
2.83469
2.7702
2.64981
2.48293
2.2861
2.07968
1.88291
1.70562
1.55106
1.42282
1.32324
1.25213
1.20699
1.18344
1.17605
1.17922
1.18802
1.19883
1.20962
1.21977
1.22953
1.23937
1.24926
1.25807
1.26343
1.26085
1.21642
0.877201
0.273402
-0.465942
-1.18074
-1.17874
0
2.61101
6.50023
11.0339
15.2406
18.1032
18.9076
17.5057
14.3751
10.4371
6.70728
3.92934
2.35819
1.77473
1.7023
1.55742
1.42266
1.29748
1.18884
1.10268
1.04301
1.01138
1.00712
1.02796
1.07075
1.13151
1.2051
1.28735
1.37464
1.46331
1.54959
1.63008
1.70243
1.76579
1.82119
1.87148
1.92102
1.97495
2.03843
2.11575
2.20966
2.32098
2.44889
2.59137
2.74559
2.90834
3.07643
3.2471
3.41821
3.58846
3.75739
3.92528
4.09288
4.26125
4.43107
4.59787
4.74904
4.86692
4.93455
4.94101
4.88316
4.76356
4.58681
4.35765
4.08597
3.78802
3.47673
3.1619
2.85167
2.55219
2.26808
2.00334
1.76064
1.54148
1.34651
1.17584
1.02936
0.906894
0.808091
0.732321
0.678921
0.647556
0.636752
0.640475
0.648515
0.650769
0.639595
0.611807
0.569528
0.519437
0.470526
0.43108
0.405404
0.392034
0.387628
0.386558
0.382644
0.370873
0.34866
0.316369
0.277099
0.235936
0.198778
0.170564
0.15484
0.153891
0.168617
0.19859
0.241943
0.295769
0.356719
0.421693
0.488453
0.556081
0.625079
0.697174
0.774846
0.860691
0.956711
1.06439
1.18498
1.31676
1.45062
1.57225
1.6667
1.72145
1.72862
1.68619
1.59786
1.4722
1.32142
1.15997
1.00128
0.853774
0.72184
0.60721
0.511086
0.432894
0.370763
0.322127
0.284296
0.25488
0.232002
0.21434
0.200978
0.191331
0.184867
0.180797
0.177777
0.173503
0.164526
0.146362
0.104987
-0.0366713
-0.412077
-0.933784
-1.46434
-1.92679
-1.50414
0
2.75391
6.59608
10.9499
14.8793
17.3551
17.6558
15.7093
12.1665
8.13121
4.67935
2.43146
1.40239
1.17219
1.17308
1.06236
0.954251
0.854971
0.770115
0.704229
0.660465
0.64044
0.644301
0.670964
0.718414
0.783963
0.863737
0.953821
1.05074
1.15133
1.25286
1.35334
1.45189
1.54883
1.64566
1.74484
1.84945
1.96277
2.08778
2.22694
2.38176
2.55254
2.73824
2.9364
3.14327
3.35407
3.56342
3.76588
3.95628
4.13063
4.28636
4.42252
4.53966
4.6394
4.72322
4.79246
4.84799
4.88949
4.91496
4.92092
4.90302
4.85669
4.77793
4.66405
4.5142
4.32976
4.11444
3.87411
3.61678
3.35146
3.08631
2.82874
2.58527
2.36104
2.15959
1.98278
1.83094
1.70318
1.59781
1.51262
1.44521
1.39332
1.35483
1.32797
1.31136
1.30406
1.30538
1.31477
1.3316
1.35488
1.38318
1.4145
1.44633
1.47597
1.50097
1.51952
1.53075
1.53492
1.53338
1.52836
1.52265
1.51919
1.52052
1.52845
1.544
1.56745
1.5984
1.63612
1.67989
1.72935
1.78469
1.84682
1.91721
1.99762
2.0897
2.19453
2.3127
2.44488
2.58963
2.74061
2.88611
3.01258
3.10783
3.16341
3.17612
3.1485
3.08799
3.00496
2.90991
2.8108
2.7116
2.61283
2.51394
2.41468
2.3154
2.21736
2.12262
2.03379
1.9535
1.88418
1.82782
1.78592
1.75957
1.74936
1.75632
1.7826
1.8288
1.88785
1.94893
1.99936
2.0236
1.86951
1.32799
0.587963
-0.110076
-0.603188
0
1.89863
5.11858
9.27159
13.5908
17.1176
18.9903
18.7454
16.51
12.9789
9.15669
5.96415
3.90425
2.96033
2.75303
2.79726
2.77744
2.75458
2.72956
2.70402
2.68068
2.66302
2.65467
2.6587
2.67695
2.70951
2.75469
2.80937
2.86979
2.93255
2.99554
3.05856
3.12334
3.19305
3.27146
3.36183
3.46609
3.58381
3.71297
3.85115
3.99594
4.14542
4.29846
4.45479
4.61467
4.77845
4.94609
5.11694
5.28988
5.46358
5.63699
5.80961
5.98162
6.15364
6.32653
6.49854
6.66021
6.7951
6.88421
6.91167
6.869
6.75635
6.58117
6.35543
6.09276
5.80925
5.51643
5.22034
4.9241
4.62988
4.33995
4.05709
3.78477
3.5271
3.2884
3.07288
2.8849
2.72686
2.59789
2.49517
2.41471
2.35213
2.3034
2.26523
2.23515
2.21139
2.19247
2.17742
2.16549
2.15616
2.14907
2.14401
2.14091
2.13976
2.14067
2.14383
2.14942
2.15739
2.16737
2.17826
2.18809
2.19467
2.19637
2.19292
2.18599
2.17917
2.17726
2.18511
2.20612
2.24046
2.28738
2.34374
2.40497
2.46708
2.52793
2.58805
2.65034
2.71901
2.79893
2.89663
3.00897
3.12029
3.21047
3.26181
3.26456
3.21895
3.13327
3.01984
2.89075
2.75599
2.62116
2.48862
2.35961
2.235
2.11551
2.00177
1.89453
1.79491
1.70464
1.6261
1.56228
1.51828
1.50432
1.53222
1.59748
1.67713
1.74193
1.76441
1.72568
1.61833
1.44539
1.09142
0.571635
-0.0147121
-0.556246
-0.824844
0
2.07936
5.41596
9.60201
13.855
17.211
18.8323
18.317
15.8698
12.2374
8.41636
5.26797
3.22302
2.21886
1.87193
1.78351
1.74148
1.70299
1.66886
1.63944
1.61481
1.59504
1.58049
1.57199
1.57087
1.57874
1.59709
1.62682
1.66763
1.7186
1.77815
1.84441
1.91565
1.99078
2.06963
2.15293
2.2422
2.33936
2.44637
2.56484
2.69577
2.83943
2.99525
3.16183
3.33696
3.51777
3.7009
3.88283
4.06022
4.23027
4.39108
4.54183
4.68274
4.81475
4.93851
5.05294
5.15408
5.23595
5.28854
5.30008
5.26041
5.1637
5.00953
4.80226
4.54953
4.2611
3.95397
3.63952
3.32491
3.01637
2.71933
2.43809
2.17573
1.93431
1.71527
1.5207
1.35271
1.21275
1.10193
1.02037
0.966683
0.937792
0.929393
0.93521
0.948356
0.962675
0.973642
0.978889
0.978254
0.973389
0.967038
0.962166
0.961113
0.964941
0.973322
0.984943
0.997712
1.00914
1.01682
1.01895
1.01467
1.00438
0.989714
0.973503
0.959422
0.951533
0.95371
0.969032
0.999069
1.04425
1.10358
1.17488
1.25522
1.34139
1.43059
1.52084
1.61108
1.70119
1.79179
1.88381
1.9782
2.07537
2.17462
2.27325
2.36523
2.44137
2.49165
2.50643
2.47842
2.40452
2.28697
2.13365
1.95698
1.77197
1.59329
1.4299
1.28548
1.16299
1.06543
0.994362
0.950109
0.932972
0.945134
0.988392
1.05559
1.13104
1.19801
1.24163
1.2515
1.22289
1.15627
1.05574
0.880783
0.464701
-0.15082
-0.840612
-1.46522
-1.30992
0
2.68311
6.57457
11.0618
15.1877
17.9348
18.6
17.088
13.9586
10.1858
6.74685
4.25742
2.83054
2.19542
1.95252
1.81057
1.68637
1.57344
1.4779
1.40465
1.35711
1.33667
1.34229
1.37058
1.41624
1.47313
1.53541
1.59888
1.66184
1.72495
1.79029
1.86076
1.9393
2.0282
2.12847
2.23981
2.36108
2.49065
2.62703
2.76933
2.91754
3.07246
3.23538
3.40755
3.58954
3.78085
3.97964
4.18281
4.38629
4.58555
4.77611
4.95398
5.11596
5.25976
5.3837
5.48609
5.5647
5.61687
5.6402
5.63155
5.58742
5.50473
5.38155
5.21791
5.01625
4.7815
4.52092
4.24407
3.9603
3.67772
3.40363
3.14412
2.90383
2.68588
2.49206
2.32307
2.17893
2.05964
1.9644
1.89201
1.84087
1.80952
1.79471
1.7919
1.79617
1.80282
1.80801
1.80927
1.80577
1.79825
1.78874
1.78003
1.77498
1.77594
1.78442
1.80067
1.82382
1.85196
1.88212
1.91098
1.93573
1.95468
1.96755
1.9755
1.98066
1.98563
1.99277
2.00371
2.01908
2.03896
2.0633
2.09227
2.12657
2.16771
2.21798
2.28024
2.35739
2.45185
2.5648
2.69786
2.85326
3.02622
3.20045
3.35627
3.4759
3.54678
3.56322
3.52617
3.44197
3.3208
3.17542
3.02069
2.86793
2.72424
2.59313
2.47504
2.36921
2.27478
2.19049
2.11525
2.04857
1.99072
1.94263
1.90548
1.88027
1.86782
1.86873
1.88278
1.90713
1.9359
1.96229
1.9797
1.98264
1.94028
1.63463
1.03442
0.270424
-0.451553
-0.769968
0
2.19623
5.83766
10.4194
14.9876
18.4147
19.7946
18.7973
15.8119
11.7921
7.86466
4.88868
3.18468
2.54613
2.4879
2.44467
2.37703
2.30768
2.23879
2.17258
2.11114
2.05638
2.01005
1.97407
1.95101
1.94483
1.95891
1.99633
2.05884
2.14605
2.25491
2.37997
2.51426
2.65081
2.78422
2.91207
3.03443
3.15375
3.27403
3.39976
3.53473
3.68116
3.83959
4.00908
4.18783
4.37391
4.56591
4.76329
4.96629
5.17547
5.3911
5.61307
5.83978
6.06675
6.28661
6.48875
6.65852
6.782
6.85059
6.85609
6.79202
6.65745
6.46096
6.2215
5.96411
5.71129
5.47216
5.24128
5.0124
4.78084
4.54269
4.29625
4.04282
3.78695
3.53573
3.29758
3.08069
2.89192
2.73564
2.61324
2.52417
2.4647
2.42844
2.40804
2.39632
2.38711
2.37578
2.35968
2.33824
2.31272
2.2858
2.26095
2.24162
2.2305
2.22911
2.23725
2.25242
2.27012
2.28421
2.28843
2.27778
2.24949
2.20377
2.14387
2.07558
2.00621
1.9432
1.89263
1.85694
1.83575
1.82894
1.83536
1.85348
1.88173
1.91905
1.96513
2.02028
2.08503
2.15969
2.24398
2.33669
2.43562
2.53772
2.63927
2.73639
2.8254
2.90291
2.96548
3.00968
3.03322
3.03398
3.01006
2.96003
2.8834
2.78099
2.65537
2.51092
2.35363
2.19087
2.02952
1.87569
1.73474
1.6104
1.50478
1.41857
1.35132
1.30174
1.26813
1.24941
1.24251
1.24127
1.23827
1.22543
1.1949
1.13989
1.05535
0.936503
0.74394
0.455142
0.0996066
-0.2807
-0.599955
0
1.77279
4.7993
8.77515
13.0148
16.5889
18.5825
18.4171
16.1146
12.3546
8.24068
4.85135
2.79961
2.04988
2.08857
2.16142
2.01754
1.86123
1.69299
1.51875
1.35636
1.22907
1.15855
1.1579
1.22611
1.34679
1.49273
1.6351
1.75334
1.84739
1.92753
1.99904
2.06564
2.13062
2.19631
2.26402
2.33444
2.40797
2.48504
2.56621
2.65225
2.74408
2.84266
2.949
3.06408
3.18884
3.32413
3.47049
3.62789
3.79538
3.97075
4.15075
4.32956
4.49879
4.64949
4.77342
4.86413
4.91757
4.93205
4.90785
4.8467
4.75127
4.62735
4.48048
4.31451
4.13267
3.93772
3.73207
3.51759
3.29544
3.06711
2.83499
2.60265
2.37483
2.15695
1.95446
1.77234
1.61363
1.47871
1.36593
1.27232
1.19452
1.12963
1.0758
1.03233
0.999433
0.977448
0.966519
0.966559
0.976742
0.995503
1.02029
1.04723
1.07212
1.09177
1.10464
1.11127
1.11397
1.11597
1.1203
1.1287
1.14101
1.15561
1.17005
1.18195
1.1898
1.1933
1.19321
1.19099
1.1884
1.18717
1.18912
1.19643
1.21162
1.23748
1.27664
1.33111
1.40175
1.4878
1.5881
1.70074
1.82342
1.95426
2.09097
2.22851
2.35706
2.46393
2.53534
2.55958
2.53034
2.44872
2.32327
2.168
1.9993
1.83263
1.67685
1.53488
1.40779
1.29673
1.20198
1.12262
1.05667
1.0017
0.955278
0.915492
0.881298
0.852627
0.830224
0.815236
0.808661
0.8113
0.822476
0.839149
0.856675
0.867404
0.813298
0.406489
-0.257959
-0.993902
-1.60316
-1.40028
0
2.81496
6.83885
11.4025
15.503
18.1107
18.5347
16.6956
13.1774
9.01663
5.30687
2.79317
1.64301
1.49967
1.72283
1.62788
1.53338
1.44402
1.36416
1.29752
1.24683
1.21245
1.1948
1.19383
1.20928
1.24091
1.28829
1.35127
1.4293
1.52106
1.62415
1.7357
1.85198
1.96924
2.08479
2.19767
2.30897
2.4216
2.53968
2.66764
2.80926
2.96651
3.13939
3.32657
3.5252
3.73122
3.93983
4.14614
4.34572
4.53514
4.7122
4.87568
5.02396
5.15512
5.26798
5.3612
5.43208
5.47695
5.49169
5.47244
5.41599
5.32017
5.18421
5.01036
4.8034
4.56824
4.30974
4.03343
3.74552
3.45184
3.15809
2.87052
2.5959
2.34179
2.11502
1.92111
1.76462
1.65151
1.57964
1.5408
1.52439
1.51956
1.51696
1.51002
1.49521
1.47175
1.44091
1.40551
1.36839
1.33195
1.29819
1.26866
1.24431
1.2256
1.21282
1.2061
1.20537
1.21031
1.22033
1.23435
1.25057
1.26689
1.28125
1.29202
1.29842
1.3007
1.30021
1.29923
1.30075
1.30795
1.32399
1.35178
1.39381
1.45188
1.52681
1.6183
1.72473
1.84315
1.9695
2.09908
2.2266
2.34736
2.45793
2.55654
2.64299
2.71805
2.78158
2.83112
2.86292
2.87118
2.84895
2.79082
2.69559
2.56781
2.41749
2.25819
2.10418
1.96505
1.84412
1.74464
1.6683
1.61496
1.58296
1.56983
1.57235
1.5867
1.60874
1.63429
1.6594
1.68036
1.69394
1.69727
1.68793
1.65591
1.53425
1.16854
0.617468
0.0245535
-0.485214
0
1.78765
4.96137
9.15396
13.5869
17.2634
19.2695
19.0926
16.8341
13.199
9.22893
5.88862
3.71381
2.70052
2.46814
2.51483
2.46121
2.40523
2.34881
2.29492
2.24749
2.21068
2.18809
2.18197
2.19267
2.21865
2.25695
2.30419
2.35753
2.41528
2.47732
2.54482
2.61951
2.70305
2.79648
2.89972
3.01217
3.13331
3.26283
3.40077
3.54751
3.7035
3.86893
4.04338
4.22574
4.4144
4.60751
4.80327
5.00014
5.19684
5.39215
5.58437
5.77033
5.94425
6.09842
6.22491
6.31614
6.36623
6.37192
6.33269
6.25008
6.12684
5.9661
5.77324
5.55546
5.31917
5.06961
4.81147
4.54928
4.28747
4.03021
3.78125
3.54382
3.32074
3.11442
2.92686
2.75961
2.61372
2.48937
2.38583
2.30173
2.2354
2.18532
2.15022
2.12902
2.12077
2.1243
2.13811
2.15984
2.18602
2.2127
2.23592
2.25232
2.25966
2.25711
2.24537
2.22652
2.20358
2.18008
2.15942
2.14435
2.13662
2.13698
2.1455
2.16166
2.18473
2.21402
2.24898
2.28931
2.33479
2.38513
2.43985
2.49825
2.5595
2.62273
2.68712
2.75197
2.81673
2.88105
2.94477
3.00794
3.07069
3.13297
3.19395
3.25065
3.29727
3.32554
3.32618
3.29139
3.21729
3.10547
2.96319
2.80197
2.63531
2.4751
2.32774
2.19688
2.08539
1.9944
1.9234
1.87064
1.8338
1.81012
1.79617
1.78889
1.78588
1.78555
1.78696
1.78961
1.79292
1.79585
1.79654
1.7864
1.67228
1.2146
0.512634
-0.175929
-0.609684
0
1.87403
5.04396
9.1467
13.4456
16.9823
18.863
18.5917
16.2958
12.701
8.83679
5.61434
3.50388
2.46745
2.14183
2.11454
2.09558
2.07782
2.06204
2.04886
2.03873
2.03196
2.02879
2.02961
2.03496
2.04568
2.06284
2.08767
2.12149
2.16551
2.22073
2.28793
2.36754
2.45968
2.56411
2.68031
2.80748
2.94464
3.09068
3.24441
3.40457
3.56978
3.73851
3.90909
4.0798
4.2491
4.41588
4.57984
4.74161
4.90284
5.06587
5.23323
5.40693
5.58862
5.77893
5.97254
6.15478
6.30729
6.41321
6.46138
6.44849
6.37831
6.25864
6.09741
5.89983
5.67207
5.42183
5.15566
4.87885
4.59707
4.31709
4.04635
3.792
3.55981
3.35346
3.17415
3.02072
2.89018
2.77848
2.6813
2.59478
2.51593
2.44291
2.37494
2.31217
2.25538
2.20565
2.16413
2.13166
2.10863
2.09483
2.08938
2.09048
2.0954
2.10083
2.10318
2.09918
2.08633
2.06345
2.03098
1.99111
1.94761
1.90533
1.86951
1.84486
1.83468
1.84039
1.86126
1.89479
1.93729
1.98481
2.03394
2.08263
2.13038
2.1781
2.22793
2.28282
2.34591
2.41987
2.50623
2.60502
2.71563
2.83408
2.95145
3.05717
3.14122
3.19594
3.21702
3.20365
3.15794
3.08393
2.98667
2.87293
2.7488
2.61919
2.4883
2.35997
2.23754
2.12393
2.02171
1.93292
1.85896
1.80056
1.75768
1.72954
1.71467
1.71078
1.71453
1.72117
1.72464
1.71815
1.69473
1.64772
1.54209
1.27268
0.862363
0.361944
-0.176064
0
1.29883
3.91016
7.63398
11.8753
15.7686
18.4076
19.1261
17.7482
14.6898
10.8281
7.16369
4.43465
2.88521
2.30388
2.26214
2.21817
2.16985
2.116
2.05545
1.98953
1.92289
1.86178
1.81253
1.78024
1.76779
1.77555
1.8017
1.84304
1.89597
1.95694
2.02389
2.09635
2.17504
2.26134
2.35688
2.46304
2.58041
2.70865
2.84642
2.99181
3.1427
3.29702
3.453
3.60928
3.76478
3.91867
4.07029
4.21916
4.365
4.50787
4.64806
4.78591
4.92152
5.05414
5.18132
5.299
5.40182
5.48349
5.53767
5.55855
5.5412
5.48179
5.37784
5.22859
5.03867
4.81199
4.55486
4.2756
3.98368
3.68902
3.39947
3.12168
2.86122
2.62241
2.40831
2.22077
2.05944
1.92254
1.80725
1.7103
1.62844
1.5589
1.49951
1.44872
1.4054
1.36854
1.33744
1.31148
1.29008
1.2728
1.25929
1.24929
1.24265
1.23923
1.23897
1.24182
1.2477
1.2564
1.26747
1.28006
16
179
344
511
674
834
990
1143
1294
1447
1602
1757
1911
2069
2228
2384
2540
2698
2857
3019
3180
3339
3497
3656
3632
3561
3705
0
0
0
0
0
0
0
0
0
0
0
0
0
0
0
0
0
0
0
0
0
0
0
0
0
0
0
0
0
0
0
0
0
0
0
0
0
0
0
0
0
0
0
0
0
0
0
0
0
0
0
0
0
0
0
0
0
0
0
0
0
0
0
0
0
0
0
0
0
0
0
0
0
0
0
0
0
0
0
0
0
0
0
0
0
0
0
0
0
0
0
0
0
0
0
0
0
0
0
0
0
0
0
0
0
0
0
0
0
0
0
0
0
0
0
0
0
0
0
0
0
0
0
0
0
0
0
0
0
0
0
0
0
0
0
0
0
0
0
0
0
0
0
0
0
0
0
0
0
0
0
0
0
0
0
0
0
0
0
0
0
0
0
0
0
0
0
0
0
0
0
0
0
0
0
0
0
0
0
0
0
0
0
0
0
0
0
0
0
0
0
0
0
0
0
0
0
0
0
0
0
0
0
0
0
0
0
0
0
0
0
0
0
0
0
0
0
0
0
0
0
0
0
0
0
0
0
0
0
0
0
0
0
0
0
0
0
0
0
0
0
0
0
0
0
0
0
0
0
0
0
0
0
0
0
0
0
0
0
0
0
0
0
0
0
0
0
0
0
0
0
0
0
0
0
0
0
0
0
0
0
0
0
0
0
0
0
0
0
0
0
0
0
0
0
0
0
0
0
0
0
0
0
0
0
0
0
0
0
0
0
0
0
0
0
0
0
0
0
0
0
0
0
0
0
0
0
0
0
0
0
0
0
0
0
0
0
0
0
0
0
0
0
0
0
0
0
0
0
0
0
0
0
0
0
0
0
0
0
0
0
0
0
0
0
0
0
0
0
0
0
0
0
0
0
0
0
0
0
0
0
0
0
0
0
0
0
0
0
0
0
0
0
0
0
0
0
0
0
0
0
0
0
0
0
0
0
0
0
0
0
0
0
0
0
0
0
0
0
0
0
0
0
0
0
0
0
0
0
0
0
0
0
0
0
0
0
0
0
0
0
0
0
0
0
0
0
0
0
0
0
0
0
0
0
0
0
0
0
0
0
0
0
0
0
0
0
0
0
0
0
0
0
0
0
0
0
0
0
0
0
0
0
0
0
0
0
0
0
0
0
0
0
0
0
0
0
0
0
0
0
0
0
0
0
0
0
0
0
0
0
0
0
0
0
0
0
0
0
0
0
0
0
0
0
0
0
0
0
0
0
0
0
0
0
0
0
0
0
0
0
0
0
0
0
0
0
0
0
0
0
0
0
0
0
0
0
0
0
0
0
0
0
0
0
0
0
0
0
0
0
0
0
0
0
0
0
0
0
0
0
0
0
0
0
0
0
0
0
0
0
0
0
0
0
0
0
0
0
0
0
0
0
0
0
0
0
0
0
0
0
0
0
0
0
0
0
0
0
0
0
0
0
0
0
0
0
0
0
0
0
0
0
0
0
0
0
0
0
0
0
0
0
0
0
0
0
0
0
0
0
0
0
0
0
0
0
0
0
0
0
0
0
0
0
0
0
0
0
0
0
0
0
0
0
0
0
0
0
0
0
0
0
0
0
0
0
0
0
0
0
0
0
0
0
0
0
0
0
0
0
0
0
0
0
0
0
0
0
0
0
0
0
0
0
0
0
0
0
0
0
0
0
0
0
0
0
0
0
0
0
0
0
0
0
0
0
0
0
0
0
0
0
0
0
0
0
0
0
0
0
0
0
0
0
0
0
0
0
0
0
0
0
0
0
0
0
0
0
0
0
0
0
0
0
0
0
0
0
0
0
0
0
0
0
0
0
0
0
0
0
0
0
0
0
0
0
0
0
0
0
0
0
0
0
0
0
0
0
0
0
0
0
0
0
0
0
0
0
0
0
0
0
0
0
0
0
0
0
0
0
0
0
0
0
0
0
0
0
0
0
0
0
0
0
0
0
0
0
0
0
0
0
0
0
0
0
0
0
0
0
0
0
0
0
0
0
0
0
0
0
0
0
0
0
0
0
0
0
0
0
0
0
0
0
0
0
0
0
0
0
0
0
0
0
0
0
0
0
0
0
0
0
0
0
0
0
0
0
0
0
0
0
0
0
0
0
0
0
0
0
0
0
0
0
0
0
0
0
0
0
0
0
0
0
0
0
0
0
0
0
0
0
0
0
0
0
0
0
0
0
0
0
0
0
0
0
0
0
0
0
0
0
0
0
0
0
0
0
0
0
0
0
0
0
0
0
0
0
0
0
0
0
0
0
0
0
0
0
0
0
0
0
0
0
0
0
0
0
0
0
0
0
0
0
0
0
0
0
0
0
0
0
0
0
0
0
0
0
0
0
0
0
0
0
0
0
0
0
0
0
0
0
0
0
0
0
0
0
0
0
0
0
0
0
0
0
0
0
0
0
0
0
0
0
0
0
0
0
0
0
0
0
0
0
0
0
0
0
0
0
0
0
0
0
0
0
0
0
0
0
0
0
0
0
0
0
0
0
0
0
0
0
0
0
0
0
0
0
0
0
0
0
0
0
0
0
0
0
0
0
0
0
0
0
0
0
0
0
0
0
0
0
0
0
0
0
0
0
0
0
0
0
0
0
0
0
0
0
0
0
0
0
0
0
0
0
0
0
0
0
0
0
0
0
0
0
0
0
0
0
0
0
0
0
0
0
0
0
0
0
0
0
0
0
0
0
0
0
0
0
0
0
0
0
0
0
0
0
0
0
0
0
0
0
0
0
0
0
0
0
0
0
0
0
0
0
0
0
0
0
0
0
0
0
0
0
0
0
0
0
0
0
0
0
0
0
0
0
0
0
0
0
0
0
0
0
0
0
0
0
0
0
0
0
0
0
0
0
0
0
0
0
0
0
0
0
0
0
0
0
0
0
0
0
0
0
0
0
0
0
0
0
0
0
0
0
0
0
0
0
0
0
0
0
0
0
0
0
0
0
0
0
0
0
0
0
0
0
0
0
0
0
0
0
0
0
0
0
0
0
0
0
0
0
0
0
0
0
0
0
0
0
0
0
0
0
0
0
0
0
0
0
0
0
0
0
0
0
0
0
0
0
0
0
0
0
0
0
0
0
0
0
0
0
0
0
0
0
0
0
0
0
0
0
0
0
0
0
0
0
0
0
0
0
0
0
0
0
0
0
0
0
0
0
0
0
0
0
0
0
0
0
0
0
0
0
0
0
0
0
0
0
0
0
0
0
0
0
0
0
0
0
0
0
0
0
0
0
0
0
0
0
0
0
0
0
0
0
0
0
0
0
0
0
0
0
0
0
0
0
0
0
0
0
0
0
0
0
0
0
0
0
0
0
0
0
0
0
0
0
0
0
0
0
0
0
0
0
0
0
0
0
0
0
0
0
0
0
0
0
0
0
0
0
0
0
0
0
0
0
0
0
0
0
0
0
0
0
0
0
0
0
0
0
0
0
0
0
0
0
0
0
0
0
0
0
0
0
0
0
0
0
0
0
0
0
0
0
0
0
0
0
0
0
0
0
0
0
0
0
0
0
0
0
0
0
0
0
0
0
0
0
0
0
0
0
0
0
0
0
0
0
0
0
0
0
0
0
0
0
0
0
0
0
0
0
0
0
0
0
0
0
0
0
0
0
0
0
0
0
0
0
0
0
0
0
0
0
0
0
0
0
0
0
0
0
0
0
0
0
0
0
0
0
0
0
0
0
0
0
0
0
0
0
0
0
0
0
0
0
0
0
0
0
0
0
0
0
0
0
0
0
0
0
0
0
0
0
0
0
0
0
0
0
0
0
0
0
0
0
0
0
0
0
0
0
0
0
0
0
0
0
0
0
0
0
0
0
0
0
0
0
0
0
0
0
0
0
0
0
0
0
0
0
0
0
0
0
0
0
0
0
0
0
0
0
0
0
0
0
0
0
0
0
0
0
0
0
0
0
0
0
0
0
0
0
0
0
0
0
0
0
0
0
0
0
0
0
0
0
0
0
0
0
0
0
0
0
0
0
0
0
0
0
0
0
0
0
0
0
0
0
0
0
0
0
0
0
0
0
0
0
0
0
0
0
0
0
0
0
0
0
0
0
0
0
0
0
0
0
0
0
0
0
0
0
0
0
0
0
0
0
0
0
0
0
0
0
0
0
0
0
0
0
0
0
0
0
0
0
0
0
0
0
0
0
0
0
0
0
0
0
0
0
0
0
0
0
0
0
0
0
0
0
0
0
0
0
0
0
0
0
0
0
0
0
0
0
0
0
0
0
0
0
0
0
0
0
0
0
0
0
0
0
0
0
0
0
0
0
0
0
0
0
0
0
0
0
0
0
0
0
0
0
0
0
0
0
0
0
0
0
0
0
0
0
0
0
0
0
0
0
0
0
0
0
0
0
0
0
0
0
0
0
0
0
0
0
0
0
0
0
0
0
0
0
0
0
0
0
0
0
0
0
0
0
0
0
0
0
0
0
0
0
0
0
0
0
0
0
0
0
0
0
0
0
0
0
0
0
0
0
0
0
0
0
0
0
0
0
0
0
0
0
0
0
0
0
0
0
0
0
0
0
0
0
0
0
0
0
0
0
0
0
0
0
0
0
0
0
0
0
0
0
0
0
0
0
0
0
0
0
0
0
0
0
0
0
0
0
0
0
0
0
0
0
0
0
0
0
0
0
0
0
0
0
0
0
0
0
0
0
0
0
0
0
0
0
0
0
0
0
0
0
0
0
0
0
0
0
0
0
0
0
0
0
0
0
0
0
0
0
0
0
0
0
0
0
0
0
0
0
0
0
0
0
0
0
0
0
0
0
0
0
0
0
0
0
0
0
0
0
0
0
0
0
0
0
0
0
0
0
0
0
0
0
0
0
0
0
0
0
0
0
0
0
0
0
0
0
0
0
0
0
0
0
0
0
0
0
0
0
0
0
0
0
0
0
0
0
0
0
0
0
0
0
0
0
0
0
0
0
0
0
0
0
0
0
0
0
0
0
0
0
0
0
0
0
0
0
0
0
0
0
0
0
0
0
0
0
0
0
0
0
0
0
0
0
0
0
0
0
0
0
0
0
0
0
0
0
0
0
0
0
0
0
0
0
0
0
0
0
0
0
0
0
0
0
0
0
0
0
0
0
0
0
0
0
0
0
0
0
0
0
0
0
0
0
0
0
0
0
0
0
0
0
0
0
0
0
0
0
0
0
0
0
0
0
0
0
0
0
0
0
0
0
0
0
0
0
0
0
0
0
0
0
0
0
0
0
0
0
0
0
0
0
0
0
0
0
0
0
0
0
0
0
0
0
0
0
0
0
0
0
0
0
0
0
0
0
0
0
0
0
0
0
0
0
0
0
0
0
0
0
0
0
0
0
0
0
0
0
0
0
0
0
0
0
0
0
0
0
0
0
0
0
0
0
0
0
0
0
0
0
0
0
0
0
0
0
0
0
0
0
0
0
0
0
0
0
0
0
0
0
0
0
0
0
0
0
0
0
0
0
0
0
0
0
0
0
0
0
0
0
0
0
0
0
0
0
0
0
0
0
0
0
0
0
0
0
0
0
0
0
0
0
0
0
0
0
0
0
0
0
0
0
0
0
0
0
0
0
0
0
0
0
0
0
0
0
0
0
0
0
0
0
0
0
0
0
0
0
0
0
0
0
0
0
0
0
0
0
0
0
0
0
0
0
0
0
0
0
0
0
0
0
0
0
0
0
0
0
0
0
0
0
0
0
0
0
0
0
0
0
0
0
0
0
0
0
0
0
0
0
0
0
0
0
0
0
0
0
0
0
0
0
0
0
0
0
0
0
0
0
0
0
0
0
0
0
0
0
0
0
0
0
0
0
0
0
0
0
0
0
0
0
0
0
0
0
0
0
0
0
0
0
0
0
0
0
0
0
0
0
0
0
0
0
0
0
0
0
0
0
0
0
0
0
0
0
0
0
0
0
0
0
0
0
0
0
0
0
0
0
0
0
0
0
0
0
0
0
0
0
0
0
0
0
0
0
0
0
0
0
0
0
0
0
0
0
0
0
0
0
0
0
0
0
0
0
0
0
0
0
0
0
0
0
0
0
0
0
0
0
0
0
0
0
0
0
0
0
0
0
0
0
0
0
0
0
0
0
0
0
0
0
0
0
0
0
0
0
0
0
0
0
0
0
0
0
0
0
0
0
0
0
0
0
0
0
0
0
0
0
0
0
0
0
0
0
0
0
0
0
0
0
0
0
0
0
0
0
0
0
0
0
0
0
0
0
0
0
0
0
0
0
0
0
0
0
0
0
0
0
0
0
0
0
0
0
0
0
0
0
0
0
0
0
0
0
0
0
0
0
0
0
0
0
0
0
0
0
0
0
0
0
0
0
0
0
0
0
0
0
0
0
0
0
0
0
0
0
0
0
0
0
0
0
0
0
0
0
0
0
0
0
0
0
0
0
0
0
0
0
0
0
0
0
0
0
0
0
0
0
0
0
0
0
0
0
0
0
0
0
0
0
0
0
0
0
0
0
0
0
0
0
0
0
0
0
0
0
0
0
0
0
0
0
0
0
0
0
0
0
0
0
0
0
0
0
0
0
0
0
0
0
0
0
0
0
0
0
0
0
0
0
0
0
0
0
0
0
0
0
0
0
0
0
0
0
0
0
0
0
0
0
0
0
0
0
0
0
0
0
0
0
0
0
0
0
0
0
0
0
0
0
0
0
0
0
0
0
0
0
0
0
0
0
0
0
0
0
0
0
0
0
0
0
0
0
0
0
0
0
0
0
0
0
0
0
0
0
0
0
0
0
0
0
0
0
0
0
0
0
0
0
0
0
0
0
0
0
0
0
0
0
0
0
0
0
0
0
0
0
0
0
0
0
0
0
0
0
0
0
0
0
0
0
0
0
0
0
0
0
0
0
0
0
0
0
0
0
0
0
0
0
0
0
0
0
0
0
0
0
0
0
0
0
0
0
0
0
0
0
0
0
0
0
0
0
0
0
0
0
0
0
0
0
0
0
0
0
0
0
0
0
0
0
0
0
0
0
0
0
0
0
0
0
0
0
0
0
0
0
0
0
0
0
0
0
0
0
0
0
0
0
0
0
0
0
0
0
0
0
0
0
0
0
0
0
0
0
0
0
0
0
0
0
0
0
0
0
0
0
0
0
0
0
0
0
0
0
0
0
0
0
0
0
0
0
0
0
0
0
0
0
0
0
0
0
0
0
0
0
0
0
0
0
0
0
0
0
0
0
0
0
0
0
0
0
0
0
0
0
0
0
0
0
0
0
0
0
0
0
0
0
0
0
0
0
0
0
0
0
0
0
0
0
0
0
0
0
0
0
0
0
0
0
0
0
0
0
0
0
0
0
0
0
0
0
0
0
0
0
0
0
0
0
0
0
0
0
0
0
0
0
0
0
0
0
0
0
0
0
0
0
0
0
0
0
0
0
0
0
0
0
0
0
0
0
0
0
0
0
0
0
0
0
0
0
0
0
0
0
0
0
0
0
0
0
0
0
0
0
0
0
0
0
0
0
0
0
0
0
0
0
0
0
0
0
0
0
0
0
0
0
0
0
0
0
0
0
0
0
0
0
0
0
0
0
0
0
0
0
0
0
0
0
0
0
0
0
0
0
0
0
0
0
0
0
0
0
0
0
0
0
0
0
0
0
0
0
0
0
0
0
0
0
0
0
0
0
0
0
0
0
0
0
0
0
0
0
0
0
0
0
0
0
0
0
0
0
0
0
0
0
0
0
0
0
0
0
0
0
0
0
0
0
0
0
0
0
0
0
0
0
0
0
0
0
0
0
0
0
0
0
0
0
0
0
0
0
0
0
0
0
0
0
0
0
0
0
0
0
0
0
0
0
0
0
0
0
0
0
0
0
0
0
0
0
0
0
0
0
0
0
0
0
0
0
0
0
0
0
0
0
0
0
0
0
0
0
0
0
0
0
0
0
0
0
0
0
0
0
0
0
0
0
0
0
0
0
0
0
0
0
0
0
0
0
0
0
0
0
0
0
0
0
0
0
0
0
0
0
0
0
0
0
0
0
0
0
0
0
0
0
0
0
0
0
0
0
0
0
0
0
0
0
0
0
0
0
0
0
0
0
0
0
0
0
0
0
0
0
0
0
0
0
0
0
0
0
0
0
0
0
0
0
0
0
0
0
0
0
0
0
0
0
0
0
0
0
0
0
0
0
0
0
0
0
0
0
0
0
0
0
0
0
0
0
0
0
0
0
0
0
0
0
0
0
0
0
0
0
0
0
0
0
0
0
0
0
0
0
0
0
0
0
0
0
0
0
0
0
0
0
0
0
0
0
0
0
0
0
0
0
0
0
0
0
0
0
0
0
0
0
0
0
0
0
0
0
0
0
0
0
0
0
0
0
0
0
0
0
0
0
0
0
0
0
0
0
0
0
0
0
0
0
0
0
0
0
0
0
0
0
0
0
0
0
0
0
0
0
0
0
0
0
0
0
0
0
0
0
0
