0.883678
1.00861
1.15154
1.31373
1.49532
1.69528
1.91139
2.14039
2.37804
2.61982
2.85857
3.08298
3.28103
3.44343
3.56385
3.63928
3.66953
3.65603
3.60048
3.50389
3.36653
3.19025
2.98013
2.74333
2.48799
2.22256
1.95493
1.69214
1.44077
1.20641
0.993125
0.803154
0.636861
0.492971
0.369022
0.261941
0.168627
0.0864452
0.0135563
-0.0509501
-0.107128
-0.15442
-0.19202
-0.219166
-0.235042
-0.239034
-0.232396
-0.219655
-0.206043
-0.195838
-0.190999
-0.190427
-0.19022
-0.184886
-0.169125
-0.139559
-0.0976075
-0.0468951
0.0091608
0.0671727
0.123711
0.175718
0.220955
0.258094
0.286658
0.306823
0.319168
0.324441
0.323399
0.316769
0.305324
0.289993
0.271973
0.252837
0.234613
0.219387
0.208922
0.204278
0.205576
0.211967
0.22183
0.233126
0.243789
0.252154
0.257094
0.25789
0.254276
0.246376
0.234698
0.219992
0.20333
0.186115
0.170024
0.156894
0.148478
0.146222
0.151109
0.163583
0.183609
0.210859
0.244977
0.285826
0.333603
0.388549
0.450759
0.520733
0.599128
0.683033
0.764337
0.833271
0.880855
0.901154
0.892455
0.857004
0.799619
0.725989
0.641516
0.551877
0.460942
0.371411
0.285688
0.20605
0.134408
0.0720621
0.0194361
-0.024001
-0.0596495
-0.0895242
-0.115827
-0.140551
-0.165177
-0.190516
-0.217962
-0.240389
0
0.762916
2.21099
4.26531
6.49561
8.21228
8.76085
7.87028
5.82903
3.35391
1.22369
-0.0893563
-0.566307
-0.515246
-0.384713
-0.28172
-0.187834
-0.102401
-0.0237154
0.0504841
0.12068
0.186504
0.247391
0.303168
0.354297
0.401632
0.446674
0.491388
0.537868
0.587963
0.642954
0.703384
0.769036
0.839338
0.913625
0.991288
1.07187
1.15504
1.24047
1.32782
1.41668
1.50678
1.59827
1.69193
1.78936
1.89287
2.00524
2.12919
2.26686
2.41936
2.58651
2.76677
2.95804
3.15813
3.36432
3.57117
3.76836
3.94392
4.08311
4.16864
4.18687
4.13471
4.02241
3.86976
3.69656
3.51168
3.31322
3.10129
2.87853
2.64713
2.40941
2.16943
1.93286
1.70625
1.49621
1.30839
1.14675
1.01339
0.910535
0.840349
0.797497
0.771887
0.753895
0.736547
0.716914
0.696221
0.678592
0.668831
0.671587
0.687269
0.709855
0.730431
0.740857
0.737031
0.720338
0.696832
0.674687
0.661105
0.658234
0.664016
0.675955
0.692078
0.71046
0.729528
0.748345
0.76666
0.784724
0.80296
0.821577
0.840235
0.857738
0.871999
0.880406
0.880336
0.869796
0.848034
0.815973
0.776329
0.733358
0.692222
0.658013
0.636182
0.634095
0.652469
0.681899
0.709584
0.723848
0.718104
0.692736
0.654347
0.612892
0.578024
0.554639
0.541448
0.535957
0.536219
0.540304
0.54619
0.552139
0.556978
0.560222
0.562059
0.563196
0.564621
0.567332
0.572099
0.579321
0.589059
0.601153
0.615434
0.631924
0.650946
0.673088
0.699034
0.729299
0.764013
0.802697
0.843931
0.88531
0.923361
0.953423
0.970314
0.969273
0.946356
0.899194
0.827709
0.73455
0.625041
0.506523
0.387162
0.274083
0.171088
0.0800934
0.00226307
-0.0626675
-0.116102
-0.160176
-0.197241
-0.229501
-0.258963
-0.287174
-0.3148
-0.303292
0
0.865814
2.43942
4.56189
6.72025
8.20671
8.44006
7.27388
5.09732
2.65217
0.668426
-0.461845
-0.790748
-0.671237
-0.609835
-0.547765
-0.484932
-0.421825
-0.359848
-0.30092
-0.247318
-0.200949
-0.162592
-0.131342
-0.10449
-0.0779228
-0.0469103
-0.00705528
0.0437054
0.105798
0.179004
0.262187
0.353219
0.449273
0.547199
0.643929
0.736892
0.824343
0.905664
0.98161
1.05424
1.12673
1.20297
1.28714
1.38312
1.49404
1.62191
1.76735
1.92954
2.10656
2.29537
2.49197
2.692
2.88803
3.06959
3.22678
3.3514
3.43826
3.48577
3.49562
3.47146
3.41731
3.33614
3.23121
3.10526
2.95982
2.79586
2.61464
2.418
2.20847
1.98928
1.76445
1.53851
1.31633
1.10299
0.905185
0.729328
0.57971
0.459125
0.368493
0.306696
0.27074
0.256274
0.258334
0.272164
0.293479
0.319302
0.348047
0.378967
0.411714
0.445993
0.481415
0.517275
0.552774
0.587359
0.621047
0.654599
0.689453
0.727405
0.770132
0.818698
0.872929
0.931689
0.993205
1.05511
1.11456
1.16849
1.2143
1.24997
1.27426
1.28677
1.2878
1.27824
1.2593
1.23233
1.19884
1.16057
1.11935
1.07718
1.03627
0.998951
0.967415
0.943906
0.93028
0.925805
0.926404
0.926785
0.921928
0.908465
0.885422
0.854079
0.817067
0.77713
0.736158
0.694795
0.652947
0.610366
0.567054
0.523561
0.481038
0.441061
0.40526
0.375062
0.351099
0.333058
0.319829
0.309825
0.301423
0.293411
0.285362
0.277837
0.272421
0.271496
0.277938
0.294757
0.324967
0.375252
0.456689
0.574704
0.711557
0.838535
0.929209
0.96624
0.944239
0.86854
0.751329
0.60755
0.452718
0.302051
0.163936
0.0406679
-0.0677533
-0.161779
-0.240444
-0.305948
-0.361954
-0.412735
-0.462251
-0.513372
-0.567501
-0.624658
-0.692846
-0.526869
0
1.0674
2.7571
4.91476
7.07636
8.58072
8.85075
7.69482
5.43713
2.78378
0.497328
-0.929581
-1.42498
-1.26448
-1.08909
-0.932871
-0.808799
-0.720186
-0.653478
-0.596934
-0.545702
-0.495873
-0.445187
-0.393085
-0.340269
-0.288307
-0.239091
-0.194301
-0.154988
-0.121351
-0.0926981
-0.0675768
-0.0440096
-0.0197699
0.00736275
0.0393764
0.0780031
0.124769
0.181039
0.248069
0.327056
0.419136
0.525326
0.646457
0.783086
0.935431
1.10331
1.28609
1.48255
1.69079
1.908
2.13035
2.35296
2.5673
2.76229
2.92782
3.05591
3.14203
3.18545
3.18839
3.15437
3.08652
2.98651
2.85871
2.70811
2.53763
2.34937
2.14644
1.93317
1.71464
1.49617
1.28273
1.07847
0.886535
0.709005
0.547048
0.40114
0.2713
0.157328
0.0591734
-0.0234692
-0.0910856
-0.144209
-0.18343
-0.209257
-0.22225
-0.223399
-0.213929
-0.195368
-0.169584
-0.138764
-0.105301
-0.0716072
-0.0398752
-0.0117895
0.0115248
0.029603
0.0426109
0.0512457
0.0566204
0.0601349
0.0634359
0.0684122
0.0771828
0.0921087
0.115608
0.149707
0.195626
0.253308
0.322023
0.398793
0.477676
0.551987
0.615545
0.663727
0.694004
0.70593
0.700729
0.680741
0.649578
0.611207
0.568809
0.525191
0.482951
0.444275
0.410767
0.383349
0.362311
0.347481
0.338431
0.33466
0.335675
0.340989
0.350183
0.362626
0.377675
0.394833
0.413931
0.435278
0.459676
0.488317
0.522577
0.563797
0.612812
0.670438
0.738405
0.821546
0.932124
1.08598
1.26795
1.43894
1.5528
1.5738
1.49189
1.32834
1.12892
0.946779
0.821671
0.740884
0.680632
0.630776
0.587831
0.549449
0.513212
0.476661
0.437314
0.39281
0.340324
0.275652
0.198407
0.109971
-0.0213566
0
0.486516
1.63543
3.45541
5.6594
7.68798
8.89709
8.84145
7.50485
5.33346
3.03526
1.25143
0.288666
0.0595001
0.236936
0.357157
0.469035
0.568054
0.650102
0.717208
0.770717
0.81105
0.839478
0.858117
0.869887
0.878407
0.88776
0.902159
0.925463
0.960484
1.00872
1.07058
1.1457
1.23261
1.32892
1.4316
1.53738
1.64323
1.7467
1.84642
1.94239
2.03601
2.12982
2.22703
2.33095
2.44438
2.56915
2.70589
2.85401
3.01235
3.1794
3.35348
3.53277
3.71567
3.89969
4.07983
4.24949
4.40117
4.52617
4.61671
4.66889
4.67986
4.64713
4.56859
4.44346
4.2735
4.06408
3.82442
3.56818
3.3086
3.05308
2.80602
2.57087
2.34951
2.14251
1.94955
1.77009
1.60391
1.45143
1.31368
1.19202
1.08777
1.00181
0.933973
0.88254
0.844756
0.817491
0.797891
0.783923
0.774707
0.770534
0.772586
0.782472
0.80153
0.830409
0.869089
0.916615
0.971225
1.03063
1.09235
1.15402
1.21368
1.26975
1.32106
1.36685
1.40658
1.43984
1.46623
1.48498
1.49513
1.49585
1.48641
1.46646
1.43625
1.39689
1.35041
1.29957
1.24763
1.19782
1.15277
1.11459
1.08454
1.06307
1.04984
1.04391
1.04398
1.04862
1.0565
1.06659
1.0783
1.0916
1.10702
1.12557
1.14861
1.17764
1.21491
1.2637
1.32604
1.39742
1.46721
1.52278
1.55241
1.54772
1.50529
1.42738
1.32208
1.20264
1.08536
0.983529
0.903164
0.843337
0.804952
0.782511
0.768139
0.753892
0.733689
0.704163
0.664312
0.614341
0.554445
0.485492
0.407636
0.320332
0.169886
0
0.321742
1.46915
3.49447
6.03543
8.36955
9.6883
9.47466
7.77583
5.2
2.62503
0.784761
-0.0277542
0.0114914
0.467442
0.570756
0.659678
0.733453
0.78975
0.829911
0.858288
0.880996
0.904522
0.933908
0.972184
1.02116
1.08147
1.15232
1.23186
1.31777
1.4043
1.48353
1.54833
1.59414
1.62024
1.62999
1.62996
1.62821
1.63246
1.64806
1.6761
1.71701
1.7719
1.84172
1.92719
2.02874
2.14629
2.27904
2.42523
2.58196
2.74519
2.90989
3.07011
3.2193
3.35142
3.46136
3.54524
3.60017
3.62444
3.61714
3.57768
3.50558
3.40054
3.26276
3.09348
2.89542
2.67319
2.43379
2.1854
1.93613
1.69371
1.46493
1.25492
1.06671
0.901202
0.75732
0.632585
0.523733
0.427402
0.340797
0.261992
0.190064
0.12513
0.0681269
0.0203178
-0.0170824
-0.0433527
-0.0585974
-0.0638727
-0.0610649
-0.0525225
-0.0405224
-0.0267078
-0.0117067
0.00493317
0.0244946
0.0491852
0.0826954
0.126858
0.174928
0.21494
0.234163
0.22404
0.183797
0.121234
0.0504256
-0.0128349
-0.0562072
-0.0795891
-0.0893997
-0.0895981
-0.0859909
-0.0848157
-0.0913837
-0.108994
-0.138319
-0.177343
-0.221818
-0.266114
-0.304462
-0.332591
-0.348203
-0.350663
-0.34027
-0.317864
-0.284869
-0.242801
-0.192902
-0.135931
-0.0719442
-0.000449562
0.0805969
0.174225
0.277657
0.377367
0.456359
0.499503
0.498369
0.453333
0.37225
0.266896
0.149423
0.0307082
-0.082161
-0.186193
-0.279137
-0.358302
-0.422075
-0.470178
-0.503674
-0.524699
-0.535963
-0.540183
-0.539688
-0.536215
-0.530566
-0.523059
-0.513407
-0.48589
-0.372844
0
0.881978
2.4013
4.41928
6.45815
7.83031
7.94208
6.62159
4.26112
1.6554
-0.387021
-1.42659
-1.53731
-1.15262
-0.94848
-0.786971
-0.682559
-0.623224
-0.575036
-0.531092
-0.490206
-0.452106
-0.417136
-0.385831
-0.358255
-0.334146
-0.312607
-0.29217
-0.271018
-0.247295
-0.219415
-0.186286
-0.147414
-0.102834
-0.0528629
0.00217905
0.062184
0.127417
0.198571
0.27669
0.362976
0.458525
0.564054
0.679691
0.804871
0.938374
1.07852
1.22344
1.37143
1.52111
1.67161
1.82241
1.97313
2.12303
2.2702
2.41058
2.53874
2.64819
2.73231
2.78525
2.80236
2.78031
2.71719
2.61268
2.46859
2.29166
2.08982
1.87149
1.64571
1.42062
1.20227
0.995914
0.805625
0.634122
0.482683
0.351182
0.238248
0.14153
0.0580826
-0.0151865
-0.081045
-0.141535
-0.19769
-0.249345
-0.295308
-0.33379
-0.362762
-0.380437
-0.385675
-0.378258
-0.358978
-0.329576
-0.292532
-0.250717
-0.207118
-0.164481
-0.12486
-0.0893888
-0.0582306
-0.0307455
-0.00584087
0.0175819
0.0402155
0.0621056
0.0826046
0.100646
0.115141
0.125435
0.131636
0.134719
0.136343
0.138468
0.142899
0.150883
0.162928
0.179189
0.199617
0.224263
0.253501
0.28805
0.328802
0.3765
0.431285
0.492494
0.558796
0.628274
0.698538
0.766974
0.830968
0.888009
0.935616
0.971313
0.992928
0.998769
0.987748
0.959734
0.915894
0.858859
0.792606
0.721996
0.652052
0.586955
0.529775
0.481761
0.441719
0.406621
0.372272
0.334124
0.288028
0.230794
0.160508
0.0765968
-0.0217823
-0.133091
-0.254107
-0.401802
-0.418672
0
1.10158
2.93606
5.25789
7.51004
8.99811
9.18925
7.97983
5.76778
3.27358
1.20704
-0.0292137
-0.444152
-0.34483
-0.264946
-0.199886
-0.140002
-0.0847542
-0.0325249
0.0184307
0.0696358
0.122235
0.176835
0.233502
0.291874
0.351406
0.411511
0.471635
0.531206
0.58936
0.6443
0.693147
0.732433
0.758658
0.769524
0.765141
0.748699
0.726302
0.705987
0.696319
0.703
0.729792
0.780589
0.858112
0.964116
1.09951
1.26343
1.45334
1.66596
1.90008
2.15734
2.43171
2.70512
2.95238
3.15215
3.29533
3.37952
3.40484
3.37243
3.28596
3.15399
2.99019
2.81027
2.62683
2.44391
2.26078
2.07639
1.88996
1.70109
1.51022
1.31879
1.12913
0.944101
0.766673
0.59946
0.444441
0.302872
0.175424
0.0624481
-0.0357464
-0.118489
-0.184936
-0.234656
-0.26773
-0.282824
-0.28009
-0.26419
-0.240593
-0.214288
-0.188602
-0.164624
-0.141451
-0.117132
-0.0898895
-0.0592114
-0.0263088
0.00723381
0.0395798
0.0689636
0.0940544
0.114161
0.129249
0.139819
0.146766
0.151071
0.153606
0.155059
0.155899
0.156384
0.156598
0.156499
0.155985
0.154943
0.153313
0.151191
0.148956
0.14741
0.147874
0.15233
0.163103
0.182613
0.212911
0.256637
0.315601
0.389437
0.474321
0.561206
0.6379
0.693114
0.718302
0.709139
0.666522
0.596708
0.510295
0.420127
0.338672
0.272015
0.219634
0.179842
0.152168
0.13528
0.125873
0.119464
0.1112
0.0965466
0.0719131
0.0351303
-0.0143028
-0.0752205
-0.145011
-0.228748
-0.278196
0
0.87084
2.44524
4.53704
6.6171
7.98654
8.10491
6.88783
4.77562
2.51235
0.769667
-0.14711
-0.344529
-0.155932
-0.000532532
0.145657
0.274591
0.380379
0.465917
0.531586
0.579105
0.611877
0.634499
0.6521
0.669682
0.691463
0.719979
0.75666
0.802566
0.85835
0.924105
0.999369
1.08311
1.17395
1.26999
1.36799
1.46262
1.54832
1.62095
1.67926
1.72595
1.76793
1.81531
1.87933
1.96979
2.09145
2.2401
2.40967
2.5957
2.79411
3.00065
3.21115
3.42174
3.6271
3.81908
3.98961
4.13104
4.23671
4.30222
4.32593
4.30826
4.25035
4.15289
4.01601
3.84565
3.64974
3.43493
3.20691
2.97127
2.7335
2.49849
2.27052
2.0531
1.84903
1.66052
1.48941
1.33724
1.2052
1.0941
1.00438
0.935461
0.885317
0.851306
0.830666
0.821047
0.820904
0.82962
0.847324
0.874805
0.914453
0.968411
1.03358
1.09992
1.15563
1.19061
1.19967
1.18428
1.15215
1.11478
1.08396
1.06772
1.06593
1.07506
1.09205
1.11463
1.14069
1.16829
1.19574
1.22171
1.24522
1.2656
1.2826
1.29656
1.30851
1.32031
1.33463
1.35473
1.38403
1.42743
1.49632
1.59895
1.71798
1.82759
1.90247
1.92656
1.89733
1.82432
1.72291
1.60693
1.48406
1.35753
1.2288
1.0991
0.969968
0.843591
0.722627
0.609821
0.507515
0.417344
0.340199
0.275855
0.223035
0.179853
0.144111
0.11357
0.0862137
0.0602509
0.0351357
0
0.262316
1.12514
2.72595
4.85833
6.94707
8.25166
8.22044
6.79289
4.45199
1.98433
0.0968132
-0.878954
-1.04145
-0.756158
-0.624297
-0.512524
-0.430023
-0.373811
-0.325851
-0.27964
-0.231932
-0.181249
-0.128043
-0.0743301
-0.0229721
0.0233597
0.062809
0.0944489
0.118564
0.136536
0.150649
0.163702
0.178661
0.198315
0.22497
0.260229
0.304857
0.358779
0.421146
0.490768
0.56647
0.647395
0.733294
0.824693
0.922889
1.0298
1.14762
1.27844
1.42371
1.58376
1.76183
1.9633
2.17323
2.36099
2.49633
2.55972
2.54865
2.47676
2.3657
2.23377
2.08726
1.92494
1.74754
1.55489
1.34538
1.11879
0.877039
0.623947
0.364795
0.105405
-0.148376
-0.391055
-0.616695
-0.81946
-0.995339
-1.14256
-1.26052
-1.34955
-1.4108
-1.44622
-1.45851
-1.45112
-1.42809
-1.39389
-1.35308
-1.30974
-1.26696
-1.22636
-1.18823
-1.15205
-1.11669
-1.08076
-1.04311
-1.00311
-0.961055
-0.919219
-0.881129
-0.85028
-0.82896
-0.817545
-0.814505
-0.817113
-0.822387
-0.827839
-0.831716
-0.832584
-0.828811
-0.8183
-0.79863
-0.767596
-0.723863
-0.667984
-0.602524
-0.529538
-0.450623
-0.36705
-0.279502
-0.187929
-0.0916161
0.0105888
0.119907
0.237199
0.362608
0.496303
0.636461
0.776867
0.908234
1.02094
1.10704
1.16156
1.1831
1.17382
1.1389
1.08572
1.02251
0.956933
0.894439
0.836991
0.783633
0.732599
0.682235
0.630938
0.57742
0.520882
0.46103
0.397995
0.332243
0.264323
0.194833
0.123732
-0.0161163
0
0.511752
1.73884
3.69731
6.01922
8.00839
8.92053
8.33828
6.41593
3.82553
1.42072
-0.176114
-0.812582
-0.752477
-0.572842
-0.415892
-0.273438
-0.149456
-0.0457214
0.0380753
0.103916
0.154868
0.194508
0.226559
0.254433
0.281124
0.308997
0.339808
0.374859
0.415147
0.461326
0.512959
0.569139
0.629079
0.692603
0.760405
0.833911
0.914732
1.00392
1.10203
1.2074
1.31672
1.42653
1.53478
1.64202
1.75182
1.87026
2.00443
2.16064
2.34029
2.54095
2.76107
2.99827
3.24116
3.47427
3.68349
3.85855
3.99395
4.08829
4.14255
4.15812
4.13562
4.07689
3.98647
3.86872
3.72736
3.56621
3.38961
3.20213
3.00785
2.81037
2.6131
2.41933
2.23238
2.05574
1.89292
1.7472
1.62118
1.5163
1.4325
1.36821
1.32071
1.2866
1.26249
1.24553
1.23377
1.22617
1.22244
1.2226
1.2265
1.23345
1.24191
1.24941
1.25277
1.24834
1.23252
1.20212
1.15479
1.08929
1.00567
0.905443
0.791451
0.667805
0.539693
0.412993
0.293782
0.18772
0.0994919
0.0326981
-0.0110199
-0.0325958
-0.0347565
-0.021463
0.00275421
0.0334045
0.0665375
0.0990173
0.12865
0.154234
0.175455
0.192563
0.206313
0.217851
0.228609
0.240169
0.254163
0.272119
0.295314
0.324564
0.360083
0.401398
0.447072
0.49454
0.540567
0.581812
0.615367
0.639258
0.652766
0.656494
0.652176
0.642297
0.629706
0.616866
0.605623
0.597075
0.591377
0.58766
0.583989
0.577423
0.564124
0.539882
0.500685
0.443451
0.366782
0.270906
0.159352
0.028627
-0.198668
0
0.807111
2.25853
4.1668
6.11933
7.5641
8.00777
7.25844
5.56128
3.50431
1.72535
0.606816
0.157411
0.12838
0.201306
0.256197
0.308034
0.356744
0.402455
0.445453
0.486124
0.524904
0.562216
0.598439
0.63387
0.66873
0.703168
0.737274
0.771095
0.804659
0.837964
0.871016
0.903801
0.936302
0.96848
1.00027
1.03163
1.06246
1.0927
1.12227
1.1511
1.17915
1.20638
1.23277
1.25829
1.28295
1.30675
1.3297
1.35183
1.37317
1.39377
1.41371
1.43306
1.45193
1.47042
1.48862
1.50659
1.52435
1.54188
1.55913
1.57599
1.59235
1.6081
1.62316
1.63748
1.65102
1.66382
1.6759
1.68732
1.69814
1.70842
1.71822
1.72758
1.73655
1.74514
1.75339
1.76128
1.76879
1.77592
1.78261
1.78882
1.79451
1.79961
1.80407
1.80785
1.8109
1.81322
1.81483
1.81575
1.81607
1.81584
1.81516
1.81407
1.81263
1.81085
1.80875
1.80632
1.80353
1.80037
1.79681
1.79283
1.7884
1.78349
1.77808
1.77216
1.76575
1.75888
1.75157
1.74387
1.73583
1.72747
1.7188
1.7098
1.70045
1.69073
1.6806
1.67007
1.6591
1.64769
1.6358
1.62339
1.61041
1.59679
1.58249
1.56749
1.55181
1.53548
1.51855
1.50112
1.48324
1.46498
1.44638
1.42748
1.40831
1.38887
1.36917
1.34921
1.32898
1.30847
1.28768
1.26656
1.24513
1.22334
1.20118
1.17865
1.15575
1.13251
1.10896
1.08511
1.06098
1.03658
1.01189
0.98688
0.961522
0.935796
0.909692
0.883217
0.856389
0.829228
0.801747
0.773944
0.745793
0.717253
0.688281
0.658843
0.628918
0.598528
0.567714
0.536554
0.505138
0.473538
0.4418
0.409932
0.377892
0.345605
0.312976
0.279922
0.246388
0.212344
0.177802
0.142793
0.107362
0.0715607
0.0354263
-0.00101929
-0.0377594
-0.074791
-0.112106
-0.149693
-0.187544
-0.225645
-0.263991
-0.302565
-0.34135
-0.380331
-0.419505
-0.458868
-0.498427
-0.538185
-0.578159
-0.618353
-0.658769
-0.69939
-0.740202
-0.781197
-0.82236
-0.863692
-0.90519
-0.946848
-0.988651
-1.03058
-1.07262
-1.11475
-1.15696
-1.19926
-1.24169
-1.28432
-1.32725
-1.37056
-1.41436
-1.4587
-1.50359
-1.54901
-1.59484
-1.64096
-1.68719
-1.73335
-1.77929
-1.82493
-1.87024
-1.91527
-1.96017
-2.00513
-2.05037
-2.09612
-2.14254
-2.18973
-2.2377
-2.28635
-2.33554
-2.38504
-2.4346
-2.48398
-2.53295
-2.58133
-2.629
-2.67592
-2.72211
-2.76764
-2.81259
-2.85705
-2.90105
-2.94457
-2.98753
-3.02985
-3.07146
-3.11237
-3.15263
-3.19235
-3.23159
-3.27033
-3.30838
-3.34544
-3.38112
-3.4151
-3.44722
-3.47745
-3.50588
-3.53245
-3.55666
-3.57737
-3.5926
-3.5997
-3.59553
-3.57692
-3.54128
-3.48723
-3.41434
-3.32332
-3.21609
-3.09556
-2.96509
-2.82802
-2.68698
-2.54355
-2.39793
-2.2492
-2.09563
-1.93545
-1.76757
-1.59224
-1.41141
-1.22869
-1.04897
-0.87769
-0.719978
-0.579904
-0.459912
-0.36062
-0.280954
-0.218564
-0.170363
-0.133105
-0.103827
-0.0801331
-0.0602753
-0.0430984
-0.0278992
-0.0142899
-0.00209808
0.00863037
0.0176056
0.024173
0.0273056
0.0258591
0.0187164
0.00510864
-0.0150925
-0.0680069
0
0.582948
1.97066
4.07984
6.4533
8.38042
9.18129
8.52487
6.60874
4.08591
1.76496
0.246559
-0.301037
-0.117595
0.35559
0.484194
0.601838
0.705851
0.792117
0.858128
0.903026
0.927467
0.933367
0.923658
0.902058
0.872863
0.84073
0.810421
0.786487
0.772914
0.772804
0.788132
0.819646
0.866942
0.928673
1.00287
1.08728
1.17968
1.27811
1.38098
1.48711
1.59574
1.70645
1.81912
1.93386
2.05095
2.17072
2.29349
2.41944
2.54854
2.68042
2.81434
2.94903
3.08261
3.21254
3.33567
3.44781
3.5438
3.61849
3.66715
3.68548
3.66936
3.61537
3.52137
3.38542
3.20611
2.98321
2.71863
2.41731
2.08763
1.74114
1.39141
1.05392
0.742728
0.468163
0.235722
0.0459953
-0.104407
-0.221331
-0.311397
-0.380606
-0.43453
-0.477086
-0.510368
-0.535407
-0.552815
-0.563136
-0.56696
-0.564957
-0.557912
-0.546676
-0.53209
-0.514945
-0.495999
-0.476027
-0.455886
-0.436534
-0.418964
-0.404056
-0.39231
-0.383568
-0.376835
-0.370258
-0.361323
-0.347262
-0.325589
-0.294625
-0.253896
-0.204333
-0.148014
-0.0878428
-0.0270804
0.0311231
0.0840771
0.129723
0.166635
0.193911
0.210959
0.217553
0.213941
0.200884
0.179781
0.1527
0.12226
0.0913643
0.0628287
0.0390202
0.0215772
0.0113939
0.00883036
0.013987
0.0270144
0.0483388
0.078709
0.119043
0.170122
0.232229
0.30484
0.386989
0.477451
0.572252
0.662359
0.735393
0.780474
0.789319
0.757556
0.685778
0.58023
0.452803
0.31974
0.198718
0.10434
0.0405293
0.00150547
-0.0201929
-0.029583
-0.030064
-0.0247131
-0.0162823
-0.00704346
0.0012413
0.00724487
0.0101479
0.00964317
0.00598412
0
-0.0156792
-0.0744377
0.278606
1.35687
3.27347
5.76141
8.16575
9.67668
9.71406
8.24234
5.8083
3.26298
1.33998
0.348762
0.146074
0.347802
0.481586
0.610465
0.738466
0.865631
0.991761
1.11601
1.23673
1.35151
1.4575
1.55179
1.632
1.69666
1.74551
1.77948
1.80049
1.81105
1.81387
1.81148
1.80601
1.79909
1.792
1.78588
1.78189
1.78147
1.78641
1.79884
1.82119
1.85601
1.90584
1.97298
2.0594
2.16648
2.29474
2.44349
2.61059
2.79225
2.98307
3.17635
3.36396
3.53622
3.68511
3.80467
3.89164
3.94548
3.9678
3.96132
3.92867
3.87147
3.78984
3.68442
3.55474
3.40022
3.22192
3.02305
2.80898
2.58661
2.36344
2.14608
1.93982
1.74843
1.57405
1.41741
1.27825
1.15575
1.0489
0.95673
0.878498
0.813575
0.761409
0.721476
0.693179
0.675736
0.668064
0.668768
0.676293
0.68858
0.702895
0.716467
0.727149
0.733879
0.736914
0.737743
0.738606
0.741733
0.748667
0.759702
0.771901
0.780236
0.779196
0.76469
0.735635
0.694721
0.648084
0.604021
0.571092
0.5538
0.554299
0.578682
0.624776
0.681289
0.734862
0.773958
0.791988
0.788712
0.769662
0.743926
0.721053
0.707263
0.703038
0.706432
0.714048
0.721093
0.722722
0.71547
0.698431
0.673888
0.647147
0.625895
0.618559
0.632447
0.67207
0.742835
0.84661
0.970454
1.09506
1.20212
1.27829
1.31689
1.31771
1.28569
1.2292
1.15831
1.08321
1.01142
0.946442
0.888417
0.835969
0.787412
0.740565
0.692594
0.640335
0.580759
0.511484
0.431258
0.339815
0.239214
0.125034
0
0.27384
1.11719
2.64581
4.73631
6.96144
8.68203
9.29833
8.5445
6.65072
4.25525
2.10351
0.708904
0.171846
0.240984
0.445946
0.635696
0.816891
0.986741
1.14321
1.28703
1.41756
1.53475
1.63909
1.73157
1.81354
1.88653
1.95212
2.01206
2.06824
2.12228
2.1758
2.2305
2.28803
2.34979
2.41683
2.48972
2.56858
2.65334
2.7441
2.84154
2.94732
3.06371
3.19332
3.33862
3.50127
3.68167
3.87872
4.08996
4.31196
4.54082
4.7729
5.00398
5.22778
5.43684
5.62382
5.78078
5.90047
5.97791
6.01116
6.00085
5.94876
5.85656
5.7291
5.5749
5.40104
5.21209
5.01108
4.8011
4.58581
4.36927
4.1558
3.9498
3.75547
3.57658
3.41612
3.27603
3.15698
3.05836
2.97848
2.915
2.86535
2.82724
2.79888
2.7791
2.76724
2.7629
2.76566
2.77486
2.78951
2.80825
2.82943
2.85136
2.87247
2.89155
2.90791
2.9214
2.9324
2.94161
2.94986
2.95785
2.96613
2.97508
2.98514
2.99698
3.01176
3.03129
3.05764
3.09297
3.13911
3.19712
3.26713
3.34822
3.43848
3.5352
3.635
3.73396
3.827
3.90884
3.97464
4.02078
4.0456
4.05002
4.03749
4.01337
3.98374
3.95416
3.92784
3.90612
3.88903
3.8754
3.8632
3.85004
3.8334
3.81082
3.77991
3.73828
3.68356
3.61354
3.52643
3.42114
3.2976
3.15687
3.00102
2.83278
2.65511
2.47067
2.28155
2.08906
1.89396
1.69666
1.49759
1.29742
1.09711
0.897809
0.700613
0.506296
0.315105
0.1267
-0.0595207
-0.236395
-0.294411
0
0.907007
2.54532
4.72609
6.91373
8.38893
8.56763
7.30701
5.00523
2.41715
0.288866
-0.967887
-1.37797
-1.25936
-1.0688
-0.890394
-0.732458
-0.598412
-0.483427
-0.378129
-0.277818
-0.17925
-0.0795189
0.0238808
0.132804
0.248607
0.372692
0.505095
0.641483
0.772558
0.887702
0.977807
1.03747
1.06636
1.06938
1.05582
1.03747
1.02639
1.03141
1.05553
1.09828
1.15876
1.23699
1.33356
1.44886
1.5828
1.7346
1.90251
2.08367
2.27404
2.46893
2.66194
2.84458
3.00817
3.1456
3.25143
3.32191
3.35462
3.34807
3.30129
3.21374
3.08532
2.91669
2.71013
2.47013
2.20379
1.91961
1.62533
1.32806
1.03539
0.75495
0.493781
0.257735
0.0509094
-0.124548
-0.268495
-0.382568
-0.46952
-0.532406
-0.573862
-0.596429
-0.601984
-0.591902
-0.56412
-0.514753
-0.446996
-0.375881
-0.318776
-0.290102
-0.296268
-0.332999
-0.386303
-0.436829
-0.466141
-0.465072
-0.440939
-0.402803
-0.35569
-0.305452
-0.258314
-0.219221
-0.19092
-0.173558
-0.164896
-0.161064
-0.157685
-0.151032
-0.139191
-0.122383
-0.101879
-0.0797707
-0.0584778
-0.0401642
-0.026313
-0.0175858
-0.013958
-0.0151306
-0.020916
-0.0310516
-0.0454712
-0.0640152
-0.0860146
-0.109933
-0.133254
-0.152672
-0.164577
-0.165695
-0.15444
-0.130569
-0.0946793
-0.0481499
0.00686798
0.0676483
0.131247
0.194329
0.252543
0.301125
0.33588
0.353249
0.35075
0.327498
0.284633
0.225536
0.155723
0.0823601
0.0132935
-0.0446404
-0.0866783
-0.11096
-0.118497
-0.110743
-0.0909027
-0.0635048
-0.0337585
-0.00673828
0.0133293
0.0237556
0.0237991
0.0147347
-0.00808411
0
0.476888
1.74796
3.8255
6.33333
8.56911
9.771
9.47242
7.74822
5.19593
2.65166
0.804761
-0.0687775
-0.12412
0.245113
0.357343
0.453426
0.53969
0.61453
0.677882
0.730858
0.775203
0.812782
0.845248
0.873936
0.899957
0.924369
0.948327
0.973109
1.00002
1.03021
1.06448
1.10317
1.14617
1.19306
1.24335
1.29672
1.35328
1.41369
1.47916
1.55139
1.63228
1.72372
1.82723
1.94374
2.07342
2.21567
2.36907
2.53157
2.70055
2.87292
3.0452
3.21353
3.37368
3.52119
3.65017
3.75388
3.8278
3.86846
3.87375
3.84284
3.77596
3.67392
3.53776
3.36853
3.168
2.93996
2.68757
2.41468
2.12628
1.82818
1.52643
1.22661
0.934255
0.656599
0.403444
0.180543
-0.00811059
-0.157002
-0.261612
-0.321959
-0.344471
-0.34072
-0.323685
-0.303728
-0.285709
-0.269866
-0.255677
-0.242677
-0.230283
-0.217871
-0.204856
-0.190773
-0.175374
-0.15876
-0.14149
-0.124633
-0.109698
-0.0984358
-0.0924971
-0.0930733
-0.100582
-0.114495
-0.133363
-0.155021
-0.176924
-0.196518
-0.21156
-0.220357
-0.221857
-0.21568
-0.202086
-0.181919
-0.156532
-0.127663
-0.0972679
-0.0672535
-0.0391808
-0.0139473
0.0084652
0.0291149
0.0500595
0.0741268
0.104507
0.144225
0.195547
0.259427
0.335072
0.419764
0.50913
0.596799
0.674674
0.73531
0.773161
0.785545
0.772972
0.738777
0.688214
0.627267
0.561541
0.495539
0.432028
0.372516
0.317898
0.268656
0.225029
0.187051
0.154488
0.126799
0.103268
0.082341
0.0624199
0.0423004
0.0215065
0
-0.233627
-0.10951
0.7256
2.41469
4.71065
6.97903
8.43404
8.5064
7.13672
4.8118
2.31714
0.355716
-0.740556
-1.05873
-0.933867
-0.827424
-0.742828
-0.663947
-0.591296
-0.524101
-0.461676
-0.40318
-0.347936
-0.295718
-0.247156
-0.204606
-0.171817
-0.151827
-0.14671
-0.156261
-0.177193
-0.203296
-0.226634
-0.239395
-0.235735
-0.214159
-0.177686
-0.12882
-0.0690971
0.000357819
0.0790718
0.167335
0.266035
0.376332
0.499288
0.635564
0.785229
0.947684
1.12166
1.30526
1.49595
1.69063
1.88566
2.07694
2.25959
2.4264
2.56912
2.68227
2.76192
2.80568
2.81268
2.78309
2.71763
2.61691
2.48126
2.31095
2.10904
1.87971
1.62787
1.35981
1.08336
0.806886
0.540561
0.294568
0.0769539
-0.106969
-0.254979
-0.36778
-0.448438
-0.501601
-0.532684
-0.547109
-0.549905
-0.545099
-0.535588
-0.523266
-0.509216
-0.49402
-0.478082
-0.461831
-0.44584
-0.430852
-0.417728
-0.407364
-0.400485
-0.397504
-0.398415
-0.402751
-0.40961
-0.417764
-0.425781
-0.432173
-0.435522
-0.434612
-0.428447
-0.41638
-0.398248
-0.374445
-0.345982
-0.31441
-0.281602
-0.249438
-0.219408
-0.192268
-0.167807
-0.144768
-0.121016
-0.0938202
-0.0602509
-0.017012
0.0428345
0.136533
0.291296
0.497012
0.700713
0.848152
0.896059
0.825601
0.65089
0.416968
0.188045
0.0299896
-0.0352875
-0.0508789
-0.0456451
-0.0306702
-0.0108185
0.00915527
0.0243088
0.0300476
0.0227875
0
-0.0462067
-0.1093
-0.187976
-0.279665
-0.380769
-0.498447
-0.488934
-0.132001
0.776508
2.3159
4.30808
6.29001
7.65024
7.88538
6.84911
4.84765
2.51284
0.515437
-0.720404
-1.14231
-0.986876
-0.707349
-0.471565
-0.281126
-0.148219
-0.0646194
-0.0248779
-0.0176422
-0.02845
-0.0433197
-0.0519485
-0.0505798
-0.0409698
-0.0252075
-0.00456238
0.0201492
0.0489731
0.0828217
0.123146
0.17139
0.228395
0.293961
0.367316
0.447267
0.532484
0.621896
0.715094
0.812572
0.915756
1.02686
1.14854
1.28344
1.43367
1.60032
1.78311
1.98014
2.18788
2.40138
2.61462
2.81924
3.00527
3.16375
3.28854
3.37603
3.425
3.43627
3.4121
3.35554
3.26984
3.15816
3.02364
2.8701
2.70166
2.52234
2.33578
2.14529
1.95426
1.76597
1.58327
1.40823
1.24209
1.08454
0.934424
0.790387
0.651607
0.518335
0.392064
0.275195
0.170866
0.0825119
0.0109467
-0.0456787
-0.0911606
-0.130316
-0.167783
-0.206871
-0.248817
-0.29254
-0.334926
-0.371803
-0.39874
-0.412083
-0.409772
-0.391783
-0.36013
-0.318475
-0.2715
-0.224234
-0.181676
-0.148309
-0.127238
-0.120042
-0.126521
-0.14463
-0.170602
-0.199391
-0.225333
-0.242909
-0.248447
-0.24035
-0.216891
-0.177132
-0.121097
-0.049173
0.0396652
0.145163
0.26371
0.387201
0.502135
0.59399
0.650087
0.660149
0.618484
0.527661
0.401526
0.264507
0.145407
0.0672684
0.0258499
0.00610504
0
-0.00209656
-0.0195526
-0.065921
-0.150601
-0.27735
-0.45408
-0.670509
-0.911855
-1.18365
-1.13028
-0.556541
0.656416
2.3952
4.30838
5.9352
6.86739
6.85764
5.87914
4.16722
2.20032
0.545068
-0.403442
-0.614923
-0.385266
-0.290614
-0.215411
-0.146339
-0.0836777
-0.0270325
0.0239456
0.0697907
0.111031
0.148351
0.182863
0.216306
0.251062
0.289926
0.33571
0.39075
0.455974
0.531352
0.616148
0.708865
0.807489
0.909834
1.01393
1.1183
1.22221
1.32566
1.42943
1.5349
1.64399
1.75893
1.88215
2.01598
2.16243
2.32282
2.49744
2.68528
2.88394
3.08975
3.2982
3.50358
3.69941
3.87927
4.03681
4.16541
4.25987
4.31841
4.3392
4.32042
4.26077
4.16036
4.0214
3.84844
3.64813
3.42995
3.2046
2.97936
2.75955
2.54992
2.35437
2.17566
2.01526
1.87336
1.74912
1.64097
1.54702
1.46541
1.39456
1.33324
1.2806
1.23595
1.19864
1.1679
1.14274
1.12195
1.10418
1.08802
1.07214
1.05538
1.03686
1.01607
0.992943
0.967941
0.942094
0.917154
0.895683
0.880681
0.875011
0.880925
0.899532
0.930425
0.971558
1.01948
1.06984
1.11808
1.16012
1.19291
1.21477
1.22548
1.22622
1.21934
1.20832
1.19718
1.19001
1.19089
1.20564
1.24616
1.3304
1.46232
1.61266
1.74543
1.83017
1.84862
1.79626
1.68054
1.51777
1.33049
1.14529
0.982425
0.845544
0.730736
0.634373
0.555371
0.493091
0.445459
0.407942
0.374445
0.338794
0.295737
0.241821
0.175864
0.0991348
0
-0.0416779
0.294229
1.21044
2.74832
4.68841
6.56711
7.82248
8.01108
7.00615
5.08373
2.83199
0.904334
-0.262125
-0.602499
-0.369081
-0.168129
0.00791168
0.143623
0.238092
0.313866
0.383095
0.452477
0.528529
0.610152
0.689316
0.755228
0.7989
0.816391
0.809699
0.785524
0.752966
0.721263
0.696632
0.681685
0.67789
0.686331
0.707637
0.741934
0.789177
0.849011
0.920892
1.00416
1.09824
1.20268
1.31713
1.4412
1.57434
1.71565
1.86376
2.01674
2.17222
2.32754
2.47987
2.62629
2.76346
2.88683
2.99027
3.06851
3.11668
3.12971
3.10357
3.03661
2.93045
2.79
2.6225
2.43627
2.24114
2.04421
1.84967
1.66106
1.48133
1.31278
1.15684
1.01408
0.884253
0.766528
0.659819
0.563116
0.475735
0.397404
0.328169
0.268198
0.217558
0.175824
0.14201
0.114749
0.0925552
0.0741241
0.0585724
0.045575
0.0353516
0.0285126
0.0258011
0.027887
0.0352127
0.0477783
0.064975
0.0856201
0.107576
0.127135
0.139862
0.141693
0.130087
0.105046
0.0695404
0.0291046
-0.00939026
-0.0394775
-0.0571274
-0.0617508
-0.0542007
-0.036969
-0.013147
0.0146317
0.0448349
0.0772842
0.112843
0.15295
0.198834
0.251129
0.310323
0.377077
0.452658
0.537822
0.627704
0.711258
0.775386
0.808469
0.803908
0.762021
0.689511
0.597203
0.497337
0.401009
0.313478
0.23627
0.170314
0.117691
0.0782349
0.0486862
0.0243576
0
-0.0154083
-0.0396103
-0.0750458
-0.122661
-0.182034
-0.250912
-0.326096
-0.41053
-0.575615
-0.395071
0.42518
2.00261
4.13803
6.3065
7.82552
8.14761
7.13179
5.12998
2.82098
0.880406
-0.314291
-0.774671
-0.769022
-0.642268
-0.537434
-0.44391
-0.365554
-0.304533
-0.260881
-0.232315
-0.21446
-0.201489
-0.187092
-0.165601
-0.133773
-0.0912643
-0.0390808
0.0212212
0.087635
0.157819
0.229566
0.301183
0.371742
0.441151
0.510086
0.579796
0.651868
0.727953
0.809554
0.897868
0.993669
1.09729
1.20871
1.32764
1.45368
1.58639
1.7253
1.86977
2.01882
2.17113
2.32449
2.47528
2.61854
2.74825
2.85841
2.9443
3.00218
3.02921
3.02327
2.98273
2.90639
2.79352
2.64416
2.46057
2.24901
2.01734
1.77307
1.52316
1.27498
1.03634
0.814752
0.616717
0.447054
0.30955
0.207823
0.142068
0.104941
0.0872307
0.0795456
0.0738449
0.0644905
0.0486206
0.0259239
-0.00202255
-0.032518
-0.0625343
-0.0897057
-0.112038
-0.127752
-0.135573
-0.134736
-0.125031
-0.106771
-0.0807457
-0.0481033
-0.0102226
0.0313995
0.0752304
0.119762
0.16344
0.204774
0.242492
0.275697
0.303972
0.327412
0.34649
0.361768
0.373573
0.381726
0.385712
0.384573
0.377444
0.364091
0.344795
0.321449
0.298917
0.283264
0.280472
0.295234
0.330182
0.385717
0.460346
0.551284
0.654929
0.769032
0.88884
1.00419
1.10286
1.17298
1.2059
1.19869
1.15484
1.08297
0.994536
0.901453
0.813504
0.734914
0.667149
0.611328
0.56948
0.542773
0.52797
0.517751
0.503265
0.475983
0.429549
0.361156
0.271971
0.166586
0
0.00495148
0.496843
1.71751
3.69052
6.08234
8.23736
9.42576
9.1942
7.61392
5.26188
2.93387
1.26523
0.486754
0.432437
0.740573
0.884611
1.02241
1.14933
1.26215
1.3629
1.45103
1.52734
1.59332
1.65102
1.70296
1.75212
1.80167
1.85479
1.91416
1.98162
2.05748
2.14091
2.23029
2.3234
2.41764
2.51072
2.60129
2.68926
2.77598
2.86409
2.95722
3.05948
3.17492
3.30673
3.45727
3.62798
3.81905
4.02936
4.25647
4.49666
4.74535
4.99714
5.24132
5.46346
5.65091
5.79436
5.88953
5.9377
5.94466
5.91826
5.86566
5.7912
5.69908
5.59283
5.47427
5.34423
5.20379
5.05493
4.90042
4.74354
4.58773
4.43618
4.29164
4.15631
4.03182
3.91939
3.81994
3.73421
3.6629
3.6064
3.56479
3.53794
3.52501
3.52458
3.53477
3.55336
3.57789
3.60597
3.63504
3.66267
3.68701
3.70718
3.72358
3.73787
3.75277
3.77145
3.79671
3.83017
3.87201
3.92073
3.97308
4.02507
4.07291
4.11367
4.14579
4.1691
4.18461
4.19417
4.20021
4.20507
4.21075
4.21889
4.23072
4.24699
4.26807
4.29406
4.32484
4.36043
4.40121
143
326
509
681
845
1005
1162
1314
1462
1614
1772
2091
2259
2421
2582
2742
2898
3046
3189
3336
3486
3637
3743
3742
3721
0
0
0
0
0
0
0
0
0
0
0
0
0
0
0
0
0
0
0
0
0
0
0
0
0
0
0
0
0
0
0
0
0
0
0
0
0
0
0
0
0
0
0
0
0
0
0
0
0
0
0
0
0
0
0
0
0
0
0
0
0
0
0
0
0
0
0
0
0
0
0
0
0
0
0
0
0
0
0
0
0
0
0
0
0
0
0
0
0
0
0
0
0
0
0
0
0
0
0
0
0
0
0
0
0
0
0
0
0
0
0
0
0
0
0
0
0
0
0
0
0
0
0
0
0
0
0
0
0
0
0
0
0
0
0
0
0
0
0
0
0
0
0
0
0
0
0
0
0
0
0
0
0
0
0
0
0
0
0
0
0
0
0
0
0
0
0
0
0
0
0
0
0
0
0
0
0
0
0
0
0
0
0
0
0
0
0
0
0
0
0
0
0
0
0
0
0
0
0
0
0
0
0
0
0
0
0
0
0
0
0
0
0
0
0
0
0
0
0
0
0
0
0
0
0
0
0
0
0
0
0
0
0
0
0
0
0
0
0
0
0
0
0
0
0
0
0
0
0
0
0
0
0
0
0
0
0
0
0
0
0
0
0
0
0
0
0
0
0
0
0
0
0
0
0
0
0
0
0
0
0
0
0
0
0
0
0
0
0
0
0
0
0
0
0
0
0
0
0
0
0
0
0
0
0
0
0
0
0
0
0
0
0
0
0
0
0
0
0
0
0
0
0
0
0
0
0
0
0
0
0
0
0
0
0
0
0
0
0
0
0
0
0
0
0
0
0
0
0
0
0
0
0
0
0
0
0
0
0
0
0
0
0
0
0
0
0
0
0
0
0
0
0
0
0
0
0
0
0
0
0
0
0
0
0
0
0
0
0
0
0
0
0
0
0
0
0
0
0
0
0
0
0
0
0
0
0
0
0
0
0
0
0
0
0
0
0
0
0
0
0
0
0
0
0
0
0
0
0
0
0
0
0
0
0
0
0
0
0
0
0
0
0
0
0
0
0
0
0
0
0
0
0
0
0
0
0
0
0
0
0
0
0
0
0
0
0
0
0
0
0
0
0
0
0
0
0
0
0
0
0
0
0
0
0
0
0
0
0
0
0
0
0
0
0
0
0
0
0
0
0
0
0
0
0
0
0
0
0
0
0
0
0
0
0
0
0
0
0
0
0
0
0
0
0
0
0
0
0
0
0
0
0
0
0
0
0
0
0
0
0
0
0
0
0
0
0
0
0
0
0
0
0
0
0
0
0
0
0
0
0
0
0
0
0
0
0
0
0
0
0
0
0
0
0
0
0
0
0
0
0
0
0
0
0
0
0
0
0
0
0
0
0
0
0
0
0
0
0
0
0
0
0
0
0
0
0
0
0
0
0
0
0
0
0
0
0
0
0
0
0
0
0
0
0
0
0
0
0
0
0
0
0
0
0
0
0
0
0
0
0
0
0
0
0
0
0
0
0
0
0
0
0
0
0
0
0
0
0
0
0
0
0
0
0
0
0
0
0
0
0
0
0
0
0
0
0
0
0
0
0
0
0
0
0
0
0
0
0
0
0
0
0
0
0
0
0
0
0
0
0
0
0
0
0
0
0
0
0
0
0
0
0
0
0
0
0
0
0
0
0
0
0
0
0
0
0
0
0
0
0
0
0
0
0
0
0
0
0
0
0
0
0
0
0
0
0
0
0
0
0
0
0
0
0
0
0
0
0
0
0
0
0
0
0
0
0
0
0
0
0
0
0
0
0
0
0
0
0
0
0
0
0
0
0
0
0
0
0
0
0
0
0
0
0
0
0
0
0
0
0
0
0
0
0
0
0
0
0
0
0
0
0
0
0
0
0
0
0
0
0
0
0
0
0
0
0
0
0
0
0
0
0
0
0
0
0
0
0
0
0
0
0
0
0
0
0
0
0
0
0
0
0
0
0
0
0
0
0
0
0
0
0
0
0
0
0
0
0
0
0
0
0
0
0
0
0
0
0
0
0
0
0
0
0
0
0
0
0
0
0
0
0
0
0
0
0
0
0
0
0
0
0
0
0
0
0
0
0
0
0
0
0
0
0
0
0
0
0
0
0
0
0
0
0
0
0
0
0
0
0
0
0
0
0
0
0
0
0
0
0
0
0
0
0
0
0
0
0
0
0
0
0
0
0
0
0
0
0
0
0
0
0
0
0
0
0
0
0
0
0
0
0
0
0
0
0
0
0
0
0
0
0
0
0
0
0
0
0
0
0
0
0
0
0
0
0
0
0
0
0
0
0
0
0
0
0
0
0
0
0
0
0
0
0
0
0
0
0
0
0
0
0
0
0
0
0
0
0
0
0
0
0
0
0
0
0
0
0
0
0
0
0
0
0
0
0
0
0
0
0
0
0
0
0
0
0
0
0
0
0
0
0
0
0
0
0
0
0
0
0
0
0
0
0
0
0
0
0
0
0
0
0
0
0
0
0
0
0
0
0
0
0
0
0
0
0
0
0
0
0
0
0
0
0
0
0
0
0
0
0
0
0
0
0
0
0
0
0
0
0
0
0
0
0
0
0
0
0
0
0
0
0
0
0
0
0
0
0
0
0
0
0
0
0
0
0
0
0
0
0
0
0
0
0
0
0
0
0
0
0
0
0
0
0
0
0
0
0
0
0
0
0
0
0
0
0
0
0
0
0
0
0
0
0
0
0
0
0
0
0
0
0
0
0
0
0
0
0
0
0
0
0
0
0
0
0
0
0
0
0
0
0
0
0
0
0
0
0
0
0
0
0
0
0
0
0
0
0
0
0
0
0
0
0
0
0
0
0
0
0
0
0
0
0
0
0
0
0
0
0
0
0
0
0
0
0
0
0
0
0
0
0
0
0
0
0
0
0
0
0
0
0
0
0
0
0
0
0
0
0
0
0
0
0
0
0
0
0
0
0
0
0
0
0
0
0
0
0
0
0
0
0
0
0
0
0
0
0
0
0
0
0
0
0
0
0
0
0
0
0
0
0
0
0
0
0
0
0
0
0
0
0
0
0
0
0
0
0
0
0
0
0
0
0
0
0
0
0
0
0
0
0
0
0
0
0
0
0
0
0
0
0
0
0
0
0
0
0
0
0
0
0
0
0
0
0
0
0
0
0
0
0
0
0
0
0
0
0
0
0
0
0
0
0
0
0
0
0
0
0
0
0
0
0
0
0
0
0
0
0
0
0
0
0
0
0
0
0
0
0
0
0
0
0
0
0
0
0
0
0
0
0
0
0
0
0
0
0
0
0
0
0
0
0
0
0
0
0
0
0
0
0
0
0
0
0
0
0
0
0
0
0
0
0
0
0
0
0
0
0
0
0
0
0
0
0
0
0
0
0
0
0
0
0
0
0
0
0
0
0
0
0
0
0
0
0
0
0
0
0
0
0
0
0
0
0
0
0
0
0
0
0
0
0
0
0
0
0
0
0
0
0
0
0
0
0
0
0
0
0
0
0
0
0
0
0
0
0
0
0
0
0
0
0
0
0
0
0
0
0
0
0
0
0
0
0
0
0
0
0
0
0
0
0
0
0
0
0
0
0
0
0
0
0
0
0
0
0
0
0
0
0
0
0
0
0
0
0
0
0
0
0
0
0
0
0
0
0
0
0
0
0
0
0
0
0
0
0
0
0
0
0
0
0
0
0
0
0
0
0
0
0
0
0
0
0
0
0
0
0
0
0
0
0
0
0
0
0
0
0
0
0
0
0
0
0
0
0
0
0
0
0
0
0
0
0
0
0
0
0
0
0
0
0
0
0
0
0
0
0
0
0
0
0
0
0
0
0
0
0
0
0
0
0
0
0
0
0
0
0
0
0
0
0
0
0
0
0
0
0
0
0
0
0
0
0
0
0
0
0
0
0
0
0
0
0
0
0
0
0
0
0
0
0
0
0
0
0
0
0
0
0
0
0
0
0
0
0
0
0
0
0
0
0
0
0
0
0
0
0
0
0
0
0
0
0
0
0
0
0
0
0
0
0
0
0
0
0
0
0
0
0
0
0
0
0
0
0
0
0
0
0
0
0
0
0
0
0
0
0
0
0
0
0
0
0
0
0
0
0
0
0
0
0
0
0
0
0
0
0
0
0
0
0
0
0
0
0
0
0
0
0
0
0
0
0
0
0
0
0
0
0
0
0
0
0
0
0
0
0
0
0
0
0
0
0
0
0
0
0
0
0
0
0
0
0
0
0
0
0
0
0
0
0
0
0
0
0
0
0
0
0
0
0
0
0
0
0
0
0
0
0
0
0
0
0
0
0
0
0
0
0
0
0
0
0
0
0
0
0
0
0
0
0
0
0
0
0
0
0
0
0
0
0
0
0
0
0
0
0
0
0
0
0
0
0
0
0
0
0
0
0
0
0
0
0
0
0
0
0
0
0
0
0
0
0
0
0
0
0
0
0
0
0
0
0
0
0
0
0
0
0
0
0
0
0
0
0
0
0
0
0
0
0
0
0
0
0
0
0
0
0
0
0
0
0
0
0
0
0
0
0
0
0
0
0
0
0
0
0
0
0
0
0
0
0
0
0
0
0
0
0
0
0
0
0
0
0
0
0
0
0
0
0
0
0
0
0
0
0
0
0
0
0
0
0
0
0
0
0
0
0
0
0
0
0
0
0
0
0
0
0
0
0
0
0
0
0
0
0
0
0
0
0
0
0
0
0
0
0
0
0
0
0
0
0
0
0
0
0
0
0
0
0
0
0
0
0
0
0
0
0
0
0
0
0
0
0
0
0
0
0
0
0
0
0
0
0
0
0
0
0
0
0
0
0
0
0
0
0
0
0
0
0
0
0
0
0
0
0
0
0
0
0
0
0
0
0
0
0
0
0
0
0
0
0
0
0
0
0
0
0
0
0
0
0
0
0
0
0
0
0
0
0
0
0
0
0
0
0
0
0
0
0
0
0
0
0
0
0
0
0
0
0
0
0
0
0
0
0
0
0
0
0
0
0
0
0
0
0
0
0
0
0
0
0
0
0
0
0
0
0
0
0
0
0
0
0
0
0
0
0
0
0
0
0
0
0
0
0
0
0
0
0
0
0
0
0
0
0
0
0
0
0
0
0
0
0
0
0
0
0
0
0
0
0
0
0
0
0
0
0
0
0
0
0
0
0
0
0
0
0
0
0
0
0
0
0
0
0
0
0
0
0
0
0
0
0
0
0
0
0
0
0
0
0
0
0
0
0
0
0
0
0
0
0
0
0
0
0
0
0
0
0
0
0
0
0
0
0
0
0
0
0
0
0
0
0
0
0
0
0
0
0
0
0
0
0
0
0
0
0
0
0
0
0
0
0
0
0
0
0
0
0
0
0
0
0
0
0
0
0
0
0
0
0
0
0
0
0
0
0
0
0
0
0
0
0
0
0
0
0
0
0
0
0
0
0
0
0
0
0
0
0
0
0
0
0
0
0
0
0
0
0
0
0
0
0
0
0
0
0
0
0
0
0
0
0
0
0
0
0
0
0
0
0
0
0
0
0
0
0
0
0
0
0
0
0
0
0
0
0
0
0
0
0
0
0
0
0
0
0
0
0
0
0
0
0
0
0
0
0
0
0
0
0
0
0
0
0
0
0
0
0
0
0
0
0
0
0
0
0
0
0
0
0
0
0
0
0
0
0
0
0
0
0
0
0
0
0
0
0
0
0
0
0
0
0
0
0
0
0
0
0
0
0
0
0
0
0
0
0
0
0
0
0
0
0
0
0
0
0
0
0
0
0
0
0
0
0
0
0
0
0
0
0
0
0
0
0
0
0
0
0
0
0
0
0
0
0
0
0
0
0
0
0
0
0
0
0
0
0
0
0
0
0
0
0
0
0
0
0
0
0
0
0
0
0
0
0
0
0
0
0
0
0
0
0
0
0
0
0
0
0
0
0
0
0
0
0
0
0
0
0
0
0
0
0
0
0
0
0
0
0
0
0
0
0
0
0
0
0
0
0
0
0
0
0
0
0
0
0
0
0
0
0
0
0
0
0
0
0
0
0
0
0
0
0
0
0
0
0
0
0
0
0
0
0
0
0
0
0
0
0
0
0
0
0
0
0
0
0
0
0
0
0
0
0
0
0
0
0
0
0
0
0
0
0
0
0
0
0
0
0
0
0
0
0
0
0
0
0
0
0
0
0
0
0
0
0
0
0
0
0
0
0
0
0
0
0
0
0
0
0
0
0
0
0
0
0
0
0
0
0
0
0
0
0
0
0
0
0
0
0
0
0
0
0
0
0
0
0
0
0
0
0
0
0
0
0
0
0
0
0
0
0
0
0
0
0
0
0
0
0
0
0
0
0
0
0
0
0
0
0
0
0
0
0
0
0
0
0
0
0
0
0
0
0
0
0
0
0
0
0
0
0
0
0
0
0
0
0
0
0
0
0
0
0
0
0
0
0
0
0
0
0
0
0
0
0
0
0
0
0
0
0
0
0
0
0
0
0
0
0
0
0
0
0
0
0
0
0
0
0
0
0
0
0
0
0
0
0
0
0
0
0
0
0
0
0
0
0
0
0
0
0
0
0
0
0
0
0
0
0
0
0
0
0
0
0
0
0
0
0
0
0
0
0
0
0
0
0
0
0
0
0
0
0
0
0
0
0
0
0
0
0
0
0
0
0
0
0
0
0
0
0
0
0
0
0
0
0
0
0
0
0
0
0
0
0
0
0
0
0
0
0
0
0
0
0
0
0
0
0
0
0
0
0
0
0
0
0
0
0
0
0
0
0
0
0
0
0
0
0
0
0
0
0
0
0
0
0
0
0
0
0
0
0
0
0
0
0
0
0
0
0
0
0
0
0
0
0
0
0
0
0
0
0
0
0
0
0
0
0
0
0
0
0
0
0
0
0
0
0
0
0
0
0
0
0
0
0
0
0
0
0
0
0
0
0
0
0
0
0
0
0
0
0
0
0
0
0
0
0
0
0
0
0
0
0
0
0
0
0
0
0
0
0
0
0
0
0
0
0
0
0
0
0
0
0
0
0
0
0
0
0
0
0
0
0
0
0
0
0
0
0
0
0
0
0
0
0
0
0
0
0
0
0
0
0
0
0
0
0
0
0
0
0
0
0
0
0
0
0
0
0
0
0
0
0
0
0
0
0
0
0
0
0
0
0
0
0
0
0
0
0
0
0
0
0
0
0
0
0
0
0
0
0
0
0
0
0
0
0
0
0
0
0
0
0
0
0
0
0
0
0
0
0
0
0
0
0
0
0
0
0
0
0
0
0
0
0
0
0
0
0
0
0
0
0
0
0
0
0
0
0
0
0
0
0
0
0
0
0
0
0
0
0
0
0
0
0
0
0
0
0
0
0
0
0
0
0
0
0
0
0
0
0
0
0
0
0
0
0
0
0
0
0
0
0
0
0
0
0
0
0
0
0
0
0
0
0
0
0
0
0
0
0
0
0
0
0
0
0
0
0
0
0
0
0
0
0
0
0
0
0
0
0
0
0
0
0
0
0
0
0
0
0
0
0
0
0
0
0
0
0
0
0
0
0
0
0
0
0
0
0
0
0
0
0
0
0
0
0
0
0
0
0
0
0
0
0
0
0
0
0
0
0
0
0
0
0
0
0
0
0
0
0
0
0
0
0
0
0
0
0
0
0
0
0
0
0
0
0
0
0
0
0
0
0
0
0
0
0
0
0
0
0
0
0
0
0
0
0
0
0
0
0
0
0
0
0
0
0
0
0
0
0
0
0
0
0
0
0
0
0
0
0
0
0
0
0
0
0
0
0
0
0
0
0
0
0
0
0
0
0
0
0
0
0
0
0
0
0
0
0
0
0
0
0
0
0
0
0
0
0
0
0
0
0
0
0
0
0
0
0
0
0
0
0
0
0
0
0
0
0
0
0
0
0
0
0
0
0
0
0
0
0
0
0
0
0
0
0
0
0
0
0
0
0
0
0
0
0
0
0
0
0
0
0
0
0
0
0
0
0
0
0
0
0
0
0
0
0
0
0
0
0
0
0
0
0
0
0
0
0
0
0
0
0
0
0
0
0
0
0
0
0
0
0
0
0
0
0
0
0
0
0
0
0
0
0
0
0
0
0
0
0
0
0
0
0
0
0
0
0
0
0
0
0
0
0
0
0
0
0
0
0
0
0
0
0
0
0
0
0
0
0
0
0
0
0
0
0
0
0
0
0
0
0
0
0
0
0
0
0
0
0
0
0
0
0
0
0
0
0
0
0
0
0
0
0
0
0
0
0
0
0
0
0
0
0
0
0
0
0
0
0
0
0
0
0
0
0
0
0
0
0
0
0
0
0
0
0
0
0
0
0
0
0
0
0
0
0
0
0
0
0
0
0
0
0
0
0
0
0
0
0
0
0
0
0
0
0
0
0
0
0
0
0
0
0
0
0
0
0
0
0
0
0
0
0
0
0
0
0
0
0
0
0
0
0
0
0
0
0
0
