-0.384144
-0.365709
-0.340593
-0.309813
-0.274307
-0.234659
-0.190762
-0.141705
-0.0859112
-0.0212097
0.0564102
0.153474
0.27316
0.404195
0.526154
0.617717
0.662666
0.653516
0.592083
0.488027
0.356891
0.218257
0.0916386
-0.0121693
-0.0904495
-0.145169
-0.18008
-0.197247
-0.201208
-0.197738
-0.192594
-0.190534
-0.194628
-0.205958
-0.223721
-0.245634
-0.268782
-0.249033
0
0.587174
1.68295
3.27561
5.07142
6.52643
7.06315
6.37052
4.5995
2.31602
0.227922
-1.14904
-1.68574
-1.59668
-1.30138
-1.03986
-0.836121
-0.687357
-0.57146
-0.471433
-0.382237
-0.302658
-0.232029
-0.169111
-0.112311
-0.0599113
-0.0102211
0.038015
0.0853741
0.131776
0.176736
0.219779
0.260872
0.30072
0.340866
0.383586
0.431634
0.487945
0.555167
0.63567
0.731425
0.843806
0.973484
1.12036
1.28359
1.46167
1.65268
1.85456
2.06539
2.28355
2.50776
2.73695
2.97096
3.20698
3.43142
3.62238
3.75621
3.81628
3.79963
3.71731
3.58817
3.42978
3.25219
3.06187
2.86383
2.66108
2.4561
2.25186
2.05179
1.85924
1.67693
1.5065
1.34839
1.20205
1.06632
0.940065
0.822762
0.714993
0.618107
0.533723
0.463472
0.408383
0.368423
0.342319
0.327694
0.321445
0.320233
0.320926
0.321052
0.318964
0.313736
0.305256
0.294218
0.282096
0.27104
0.263661
0.262652
0.270325
0.288129
0.316282
0.353601
0.39761
0.444948
0.491763
0.534403
0.57005
0.597083
0.615151
0.624961
0.627846
0.625254
0.618304
0.607596
0.593127
0.574603
0.551854
0.525276
0.496191
0.466995
0.44115
0.422787
0.416133
0.424868
0.451542
0.497182
0.561147
0.641233
0.733961
0.835708
0.941652
1.0441
1.1328
1.19804
1.23122
1.22635
1.1816
1.10016
0.989979
0.862308
0.72935
0.601535
0.483813
0.377346
0.282642
0.200478
0.130747
0.0726486
0.0249205
-0.0140091
-0.0459036
-0.0726168
-0.0960144
-0.117444
-0.144496
0
0.55644
1.69116
3.341
5.14008
6.51098
6.91052
6.10611
4.31558
2.11649
0.174217
-1.05079
-1.45548
-1.23705
-0.927204
-0.661402
-0.472398
-0.368158
-0.307463
-0.261493
-0.222157
-0.185494
-0.148835
-0.110943
-0.0717815
-0.0321949
0.00653591
0.0432552
0.0773336
0.108857
0.138572
0.167649
0.197335
0.228677
0.262376
0.298832
0.338449
0.381906
0.430398
0.485732
0.550236
0.62652
0.717145
0.82396
0.948106
1.08992
1.24848
1.42143
1.60492
1.79384
1.98219
2.16355
2.33218
2.48381
2.61606
2.72842
2.82162
2.89444
2.94456
2.97004
2.96681
2.929
2.85059
2.72733
2.55828
2.3466
2.09951
1.82749
1.5447
1.26244
0.98938
0.732946
0.49873
0.290338
0.109155
-0.045966
-0.177684
-0.289314
-0.383982
-0.463989
-0.53057
-0.58408
-0.624494
-0.65136
-0.664519
-0.666017
-0.659254
-0.647586
-0.633209
-0.616317
-0.594887
-0.565207
-0.523025
-0.46496
-0.390643
-0.302629
-0.204757
-0.10146
0.00137501
0.0978564
0.183472
0.255885
0.315222
0.363808
0.405414
0.444218
0.483753
0.526095
0.571391
0.618431
0.665195
0.709386
0.749062
0.783144
0.811693
0.835949
0.858133
0.881075
0.907715
0.94057
0.981435
1.03183
1.09173
1.15765
1.22302
1.28017
1.32156
1.34099
1.33436
1.30026
1.24009
1.15813
1.06123
0.958293
0.857937
0.767202
0.690104
0.628109
0.581372
0.546482
0.518022
0.489712
0.455638
0.411332
0.354475
0.285155
0.205696
0.112811
0
0.211709
0.997436
2.44179
4.31593
6.09224
7.14829
7.05995
5.81468
3.81994
1.70491
0.036685
-0.891429
-1.10665
-0.814392
-0.539337
-0.298596
-0.117199
-0.00627384
0.0650848
0.118196
0.160072
0.193804
0.221964
0.246622
0.269365
0.291444
0.313912
0.337737
0.363857
0.39318
0.426578
0.464835
0.508657
0.558674
0.61539
0.679132
0.749997
0.827844
0.912337
1.00307
1.09975
1.20239
1.31143
1.42774
1.55249
1.68687
1.83178
1.9874
2.15295
2.32665
2.50594
2.68575
2.85747
3.01093
3.13698
3.2284
3.28066
3.29213
3.26363
3.19751
3.09669
2.96397
2.80353
2.62068
2.42081
2.20906
1.99037
1.76965
1.55206
1.3427
1.14605
0.965489
0.802996
0.659106
0.533095
0.423354
0.327859
0.244644
0.172244
0.110251
0.0594128
0.0211475
-0.00316277
-0.0123459
-0.006143
0.0142519
0.0460073
0.0849188
0.12607
0.164701
0.197071
0.220883
0.235417
0.241297
0.240057
0.233707
0.224588
0.214783
0.206177
0.200497
0.199164
0.203119
0.212873
0.228038
0.247279
0.269015
0.292114
0.316501
0.343449
0.375403
0.415324
0.465712
0.527611
0.600529
0.681795
0.764853
0.842453
0.908574
0.959813
0.995737
1.01813
1.02957
1.03204
1.02677
1.01359
0.99147
0.959574
0.917847
0.867236
0.809604
0.747441
0.683653
0.620689
0.560661
0.505402
0.456301
0.414142
0.378977
0.350056
0.325721
0.303379
0.279972
0.252521
0.218634
0.176915
0.126553
0.0360687
0
0.37372
1.35394
2.91357
4.71972
6.20842
6.82205
6.29173
4.79162
2.85614
1.1054
-0.048238
-0.5355
-0.554997
-0.423151
-0.298119
-0.177798
-0.0642147
0.0406099
0.136207
0.221369
0.295167
0.357483
0.409225
0.452329
0.48948
0.523592
0.557168
0.591764
0.627683
0.664256
0.700222
0.734426
0.766487
0.797239
0.828807
0.864311
0.907281
0.960977
1.02751
1.10759
1.20099
1.30688
1.42393
1.55067
1.68582
1.82843
1.97794
2.13398
2.29606
2.46321
2.63385
2.80477
2.96869
3.11565
3.23547
3.31972
3.36347
3.36596
3.32984
3.25952
3.15923
3.03163
2.8809
2.71079
2.52373
2.32163
2.10699
1.8834
1.65553
1.4288
1.20898
1.00165
0.811726
0.643075
0.498273
0.378464
0.283474
0.212446
0.16372
0.133546
0.115846
0.103949
0.0913586
0.0724096
0.0428007
-4.00543e-005
-0.0567869
-0.126234
-0.205461
-0.290287
-0.375231
-0.453634
-0.519066
-0.566188
-0.591513
-0.593945
-0.574995
-0.538589
-0.49045
-0.437138
-0.384842
-0.337815
-0.297657
-0.264205
-0.235974
-0.210279
-0.183934
-0.154064
-0.118834
-0.0780499
-0.0328182
0.0142561
0.0597956
0.100357
0.133105
0.156313
0.169648
0.174244
0.172618
0.168472
0.166357
0.171239
0.187976
0.22067
0.272319
0.350783
0.463039
0.597571
0.727272
0.824327
0.868725
0.854039
0.788596
0.691778
0.58702
0.494318
0.421833
0.365702
0.321276
0.285916
0.258075
0.236237
0.218917
0.204632
0.191886
0.179053
0.164585
0.147264
0.126476
0.102403
0.0734362
0
0.253878
1.09649
2.62489
4.62376
6.5492
7.71695
7.62697
6.24072
4.03007
1.75255
0.0834406
-0.674918
-0.650798
-0.319767
-0.125222
0.0487333
0.198907
0.325882
0.438419
0.538578
0.627454
0.706264
0.776303
0.839092
0.896513
0.950832
1.00457
1.06023
1.11994
1.18513
1.25633
1.33313
1.4143
1.49803
1.58226
1.66517
1.74568
1.82402
1.90191
1.98256
2.07023
2.16958
2.2847
2.41825
2.5708
2.74017
2.92246
3.11267
3.30522
3.49466
3.67619
3.84554
3.99869
4.13189
4.24181
4.32596
4.38273
4.41057
4.40819
4.37488
4.31068
4.2163
4.09317
3.94333
3.77024
3.57926
3.37604
3.16565
2.95292
2.74281
2.54013
2.34927
2.17382
2.0165
1.87931
1.76314
1.66784
1.59247
1.53546
1.49464
1.46742
1.45094
1.44226
1.43855
1.43727
1.43639
1.43443
1.43061
1.42479
1.41745
1.40961
1.40266
1.39821
1.39783
1.40283
1.41418
1.4323
1.45699
1.48737
1.52193
1.55877
1.59575
1.63086
1.66245
1.68946
1.71156
1.72907
1.74284
1.75403
1.76384
1.77324
1.78288
1.79301
1.80357
1.81436
1.82532
1.83676
1.84945
1.86448
1.88292
1.90585
1.93327
1.96211
1.98642
1.99867
1.99141
1.9589
1.89831
1.81016
1.69791
1.56703
1.42446
1.27667
1.12836
0.982746
0.842282
0.70917
0.585286
0.472074
0.370421
0.280523
0.201632
0.132085
0.0694521
0.0115395
-0.0399253
0
0.40743
1.36287
2.84474
4.55453
5.97566
6.57145
6.03929
4.48598
2.41114
0.486812
-0.75162
-1.13004
-0.851111
-0.574757
-0.336387
-0.161738
-0.058233
0.0078048
0.0564384
0.0925251
0.120549
0.144391
0.167103
0.191074
0.218056
0.249114
0.284543
0.32383
0.365707
0.40861
0.451052
0.49207
0.531591
0.570564
0.610839
0.654826
0.705042
0.763652
0.832131
0.911328
1.00164
1.10319
1.21603
1.34038
1.47662
1.62532
1.78699
1.96199
2.15023
2.35101
2.56417
2.79108
3.03034
3.26815
3.48093
3.64441
3.73985
3.75909
3.70613
3.59428
3.44022
3.2581
3.05766
2.84832
2.63648
2.42602
2.2198
2.02025
1.82946
1.64914
1.48043
1.32411
1.18089
1.0517
0.937954
0.841057
0.762157
0.703896
0.669234
0.655253
0.653987
0.656546
0.65559
0.647307
0.632094
0.613708
0.59732
0.587332
0.584884
0.588439
0.596173
0.606292
0.616976
0.626776
0.634832
0.640912
0.645311
0.648679
0.651821
0.655555
0.660648
0.667741
0.677364
0.689929
0.705702
0.72474
0.746822
0.771622
0.798443
0.826635
0.856015
0.887183
0.921598
0.961315
1.00837
1.06399
1.12786
1.19859
1.27122
1.33826
1.39176
1.42491
1.43319
1.41485
1.37067
1.30334
1.21684
1.11661
1.00907
0.899852
0.793971
0.696032
0.610258
0.541471
0.493141
0.461447
0.437415
0.410403
0.371073
0.313922
0.238485
0.148844
0
0.0919691
0.610352
1.66193
3.19225
4.91692
6.35842
7.00816
6.55704
5.07007
2.98928
0.947906
-0.507368
-1.13144
-1.02381
-0.629041
-0.284279
-0.0284381
0.121439
0.195342
0.243017
0.273911
0.293717
0.306178
0.313229
0.315039
0.311306
0.302551
0.290882
0.27997
0.274304
0.278064
0.293344
0.319667
0.355682
0.399795
0.450122
0.504764
0.562228
0.621746
0.68348
0.748569
0.819067
0.897717
0.987592
1.09162
1.21205
1.35
1.50509
1.67528
1.85707
2.04587
2.23641
2.42207
2.59447
2.74446
2.8649
2.95062
2.99824
3.00621
2.9747
2.90526
2.80029
2.66265
2.49562
2.30524
2.09877
1.88258
1.662
1.44206
1.22762
1.02297
0.831512
0.655602
0.4966
0.355025
0.230775
0.123361
0.0320871
-0.0441304
-0.106576
-0.156635
-0.195703
-0.225102
-0.246065
-0.25976
-0.267351
-0.26999
-0.26893
-0.265343
-0.26014
-0.253789
-0.246203
-0.236753
-0.224419
-0.208044
-0.186653
-0.159743
-0.127352
-0.0901272
-0.0493601
-0.00693326
0.0346526
0.0723436
0.103418
0.126084
0.14002
0.146733
0.149522
0.152914
0.161626
0.179342
0.20767
0.24492
0.288381
0.334468
0.379736
0.421902
0.46048
0.49683
0.533658
0.574141
0.620971
0.675126
0.736278
0.803013
0.872246
0.93896
0.996511
1.0385
1.05956
1.05634
1.02831
0.978194
0.911757
0.836822
0.761642
0.692909
0.633251
0.58269
0.53877
0.497116
0.452655
0.400908
0.339001
0.266169
0.183717
0.0945832
0
0.058185
0.395557
1.1572
2.41562
4.02419
5.58349
6.56824
6.57317
5.53638
3.79112
1.90293
0.391769
-0.486793
-0.779056
-0.647935
-0.504893
-0.365521
-0.235609
-0.120226
-0.0217013
0.061751
0.13122
0.187948
0.234255
0.273337
0.308944
0.344941
0.384788
0.431054
0.485048
0.546559
0.614114
0.68575
0.759456
0.833462
0.906567
0.978312
1.049
1.11962
1.1917
1.26719
1.34826
1.43716
1.53599
1.64642
1.76953
1.90559
2.05401
2.21343
2.38183
2.5567
2.73517
2.91404
3.08976
3.25771
3.41227
3.54815
3.66038
3.74444
3.79644
3.81315
3.79198
3.73092
3.62877
3.48562
3.30529
3.09401
2.8591
2.60894
2.3529
2.10066
1.8618
1.64714
1.4678
1.3301
1.23715
1.18983
1.20608
1.27831
1.3773
1.4718
1.53707
1.56105
1.54555
1.50257
1.44795
1.3957
1.35207
1.31677
1.28892
1.26769
1.25187
1.23981
1.22981
1.22058
1.21152
1.20292
1.19593
1.19225
1.19372
1.20182
1.21726
1.23994
1.26897
1.30309
1.3409
1.38113
1.42276
1.46481
1.50608
1.54483
1.57884
1.60547
1.62207
1.6264
1.61711
1.59414
1.55896
1.5146
1.46555
1.41739
1.3761
1.34717
1.33646
1.35903
1.44908
1.63545
1.87293
2.09595
2.24649
2.29132
2.22852
2.08199
1.88829
1.68477
1.50418
1.35734
1.23755
1.13748
1.05235
0.97874
0.913413
0.852145
0.790063
0.722351
0.644994
0.555451
0.452479
0.337807
0.203489
0
0.252893
1.25059
3.01713
5.20146
7.15165
8.17757
7.8734
6.32078
4.0538
1.80601
0.182444
-0.568574
-0.581063
-0.313168
-0.191042
-0.0935291
-0.0243015
0.0170971
0.0426262
0.0568419
0.0634304
0.0657352
0.0663446
0.0669851
0.0687233
0.0721386
0.0775471
0.0851479
0.0950923
0.107477
0.122287
0.1393
0.158014
0.177675
0.197253
0.215739
0.23256
0.247979
0.263405
0.281472
0.305839
0.340727
0.390291
0.457653
0.544357
0.650776
0.776092
0.918191
1.07382
1.23885
1.40853
1.57771
1.73986
1.8877
2.01494
2.11617
2.18707
2.2243
2.22535
2.18824
2.11147
1.99439
1.83858
1.64788
1.42802
1.18746
0.936879
0.687901
0.450026
0.230028
0.0335409
-0.136197
-0.278174
-0.393376
-0.485106
-0.558526
-0.619218
-0.67234
-0.721924
-0.7704
-0.818397
-0.864831
-0.90722
-0.942134
-0.966161
-0.976606
-0.972182
-0.953433
-0.922777
-0.884116
-0.842084
-0.801095
-0.764429
-0.733666
-0.708544
-0.687316
-0.667463
-0.646562
-0.623039
-0.596632
-0.568036
-0.538683
-0.510198
-0.483871
-0.460302
-0.439296
-0.419999
-0.401174
-0.38149
-0.359735
-0.334891
-0.306036
-0.272328
-0.233019
-0.187543
-0.135649
-0.0775283
-0.0138846
0.0541986
0.125461
0.198597
0.272346
0.345435
0.416216
0.48181
0.537144
0.576358
0.593121
0.58228
0.542018
0.47546
0.390904
0.300318
0.21644
0.149434
0.100605
0.0660318
0.0432873
0.0280487
0.0152294
0
-0.0256655
-0.0595828
-0.102088
-0.15193
-0.207603
-0.283913
-0.164488
0.331693
1.34016
2.83615
4.55012
5.99656
6.64555
6.17299
4.64687
2.52218
0.433172
-1.09407
-1.83887
-1.89604
-1.50019
-1.1127
-0.774683
-0.540096
-0.443666
-0.397511
-0.368929
-0.349593
-0.335874
-0.324271
-0.311645
-0.295442
-0.273802
-0.245594
-0.210501
-0.169029
-0.122434
-0.072519
-0.0213134
0.0293401
0.0782262
0.12513
0.171039
0.218126
0.26948
0.328652
0.399079
0.483524
0.583641
0.699744
0.830808
0.974749
1.12878
1.28982
1.45484
1.6211
1.78626
1.94838
2.10571
2.25628
2.39701
2.52258
2.62605
2.70121
2.74076
2.7378
2.68753
2.58872
2.44421
2.2606
2.04738
1.81713
1.58272
1.3525
1.13217
0.926737
0.740183
0.574936
0.431759
0.309806
0.206886
0.119894
0.0453362
-0.0201229
-0.0791925
-0.133627
-0.184053
-0.230038
-0.270391
-0.303597
-0.328288
-0.343698
-0.34997
-0.348167
-0.340224
-0.32875
-0.316409
-0.305413
-0.297111
-0.291751
-0.288461
-0.285453
-0.280402
-0.270942
-0.255231
-0.232319
-0.202261
-0.166101
-0.126127
-0.0856623
-0.0486414
-0.0187527
0.00117588
0.00963764
0.00669632
-0.00601997
-0.0255617
-0.0480873
-0.0693819
-0.0853992
-0.0930685
-0.0904692
-0.0763861
-0.0501551
-0.0119169
0.0372803
0.0956341
0.160714
0.22884
0.295456
0.355937
0.406085
0.442551
0.463115
0.466818
0.453966
0.426056
0.385643
0.336374
0.282241
0.227268
0.175223
0.129074
0.090555
0.060355
0.0382872
0.0232235
0.0132576
0.00618706
0
0.00288391
0.00442619
0.0037075
-0.0562967
0.123483
0.810824
2.1731
4.11346
6.18887
7.72426
8.11038
7.13056
5.10579
2.74802
0.803436
-0.291113
-0.537547
-0.25094
-0.00637531
0.217712
0.404437
0.543118
0.647009
0.720496
0.767024
0.792144
0.803077
0.80817
0.8162
0.835427
0.878372
0.972895
1.12082
1.28413
1.41284
1.46724
1.43774
1.35127
1.25989
1.21728
1.25534
1.34683
1.46101
1.58608
1.71659
1.84879
1.98119
2.11473
2.25251
2.39895
2.55864
2.7351
2.92965
3.14294
3.37329
3.60847
3.83091
4.02388
4.17496
4.27779
4.33174
4.34012
4.30778
4.23915
4.13874
4.01106
3.85944
3.68682
3.4964
3.29183
3.07719
2.85695
2.63607
2.41989
2.21373
2.0225
1.85027
1.69994
1.5729
1.46895
1.38641
1.32229
1.27251
1.23263
1.19835
1.16601
1.1329
1.09745
1.05915
1.0184
0.976306
0.934389
0.894301
0.857613
0.825623
0.79929
0.779059
0.764815
0.756141
0.752543
0.753648
0.759294
0.769466
0.784118
0.802941
0.825221
0.849741
0.87494
0.899167
0.920964
0.939284
0.953565
0.96367
0.969703
0.971813
0.970065
0.964411
0.954772
0.941125
0.923681
0.902972
0.879828
0.855251
0.830248
0.805682
0.782221
0.760416
0.740893
0.724603
0.713114
0.708926
0.714966
0.734426
0.770494
0.831392
0.927446
1.05609
1.19636
1.32326
1.41498
1.45799
1.44856
1.39117
1.29555
1.17413
1.04076
0.908357
0.784815
0.673891
0.576731
0.49317
0.422752
0.364533
0.316619
0.276459
0.241201
0.208068
0.174698
0.139394
0.101038
0.051722
0
0.295412
1.20356
2.79834
4.82323
6.70658
7.77508
7.5737
6.10997
3.8679
1.5748
-0.139572
-0.991426
-1.0791
-0.753748
-0.48739
-0.260198
-0.0843638
0.0386615
0.13695
0.221778
0.29546
0.359341
0.414682
0.462957
0.506133
0.546764
0.58785
0.632447
0.683161
0.741621
0.808043
0.881539
0.960399
1.04234
1.12487
1.20576
1.28329
1.35655
1.42559
1.49143
1.55602
1.62209
1.69287
1.77174
1.86183
1.96561
2.08451
2.21868
2.36695
2.52685
2.69485
2.86678
3.03783
3.2027
3.35543
3.48892
3.59545
3.66941
3.70631
3.70222
3.6544
3.56215
3.42757
3.25582
3.05483
2.83459
2.60697
2.38127
2.1635
1.95871
1.77089
1.60309
1.45658
1.33059
1.22329
1.13241
1.05582
0.991824
0.939192
0.896993
0.864442
0.839697
0.819905
0.801599
0.781202
0.755669
0.723051
0.682859
0.636127
0.5852
0.533302
0.483878
0.439903
0.40342
0.375511
0.356798
0.347155
0.345543
0.350888
0.362564
0.380675
0.40603
0.439748
0.482938
0.537771
0.602964
0.670068
0.727728
0.765301
0.776401
0.76118
0.726452
0.683607
0.645056
0.620441
0.611063
0.613187
0.623841
0.638874
0.654245
0.66724
0.677234
0.685808
0.696207
0.712291
0.737321
0.772389
0.817236
0.869792
0.924589
0.973942
1.0099
1.02559
1.01624
0.979833
0.917409
0.832964
0.733032
0.625869
0.520219
0.42293
0.338041
0.267118
0.21115
0.168898
0.137389
0.112741
0.0909648
0.0686793
0.0436155
0.0148308
-0.0173627
-0.0548341
0
0.394015
1.33256
2.87265
4.78902
6.57638
7.62728
7.5145
6.2208
4.16949
2.02378
0.374163
-0.49813
-0.658812
-0.357794
-0.0899355
0.146337
0.32981
0.450308
0.534844
0.600941
0.654497
0.700233
0.742238
0.78349
0.825601
0.868978
0.913139
0.957148
1.00011
1.04154
1.08159
1.12108
1.16128
1.20375
1.25011
1.30183
1.36026
1.42679
1.50284
1.58987
1.68932
1.80238
1.92978
2.07151
2.22674
2.39369
2.56987
2.75231
2.93791
3.12382
3.30764
3.48747
3.66158
3.82761
3.98125
4.11593
4.22461
4.29773
4.32592
4.30318
4.22897
4.108
3.94811
3.75762
3.54526
3.32121
3.09201
2.86161
2.63335
2.41055
2.19636
1.99359
1.80471
1.63181
1.47677
1.3416
1.22809
1.1372
1.06898
1.02235
0.996404
0.987647
0.990557
0.999331
1.00881
1.0152
1.01639
1.01192
1.00254
0.98978
0.975597
0.961957
0.950755
0.944004
0.943714
0.951727
0.969972
1.00033
1.04302
1.09357
1.14344
1.18347
1.20658
1.21
1.19631
1.17281
1.14927
1.13491
1.13482
1.14752
1.16892
1.19548
1.22309
1.24816
1.2685
1.28373
1.2953
1.30612
1.3199
1.34019
1.36962
1.41105
1.46803
1.54273
1.62881
1.71018
1.7682
1.78644
1.75544
1.67564
1.55763
1.41921
1.28032
1.15622
1.04927
0.955945
0.873431
0.799079
0.729408
0.660756
0.589859
0.514279
0.432618
0.344552
0.250628
0.152293
0.0482074
0
0.297877
1.15121
2.59639
4.38792
6.02886
6.95863
6.81386
5.61426
3.75711
1.82114
0.302801
-0.560878
-0.806683
-0.573872
-0.348727
-0.143597
0.025141
0.148302
0.23781
0.309011
0.368263
0.419031
0.464324
0.506489
0.547166
0.587505
0.628366
0.670423
0.714123
0.759544
0.806245
0.853238
0.899156
0.942605
0.982616
1.01908
1.05307
1.08684
1.12373
1.16768
1.22276
1.29236
1.3789
1.48359
1.6063
1.74539
1.89789
2.05973
2.22625
2.39263
2.55436
2.70758
2.84936
2.97748
3.08963
3.18199
3.24864
3.28498
3.28579
3.24577
3.16118
3.03146
2.86035
2.65582
2.42904
2.19261
1.9582
1.73256
1.5212
1.32786
1.15433
1.00058
0.864944
0.744589
0.636029
0.5357
0.440472
0.348018
0.257001
0.167047
0.0785557
-0.00757103
-0.0902094
-0.168233
-0.240636
-0.306569
-0.365281
-0.416113
-0.458566
-0.492278
-0.517069
-0.532969
-0.540213
-0.539196
-0.530413
-0.514431
-0.491934
-0.463847
-0.431245
-0.395528
-0.358971
-0.324305
-0.293882
-0.269019
-0.249526
-0.233652
-0.218481
-0.200699
-0.177419
-0.147075
-0.109753
-0.0660324
-0.0165186
0.0381983
0.0977175
0.161865
0.23057
0.303728
0.380796
0.459984
0.536816
0.604016
0.653659
0.67885
0.675474
0.643341
0.586319
0.511467
0.427497
0.343182
0.265333
0.197081
0.140676
0.0980499
0.0698673
0.0553637
0.0522984
0.0571388
0.0655224
0.0729425
0.0755046
0.0706852
0.0568683
-0.00239353
0
0.375289
1.29956
2.74149
4.40787
5.79614
6.3855
5.88727
4.4135
2.4505
0.634563
-0.546281
-0.952133
-0.787417
-0.620199
-0.466658
-0.32248
-0.188891
-0.0640429
0.0537256
0.1656
0.27257
0.37517
0.47339
0.566759
0.654581
0.736238
0.811529
0.880926
0.945696
1.00784
1.06986
1.13434
1.20354
1.27899
1.36127
1.44998
1.54402
1.642
1.74275
1.84591
1.95222
2.06367
2.18326
2.3144
2.46019
2.6225
2.80128
2.99419
3.19657
3.40188
3.60226
3.7887
3.95171
4.08298
4.17754
4.23267
4.24749
4.22243
4.15881
4.05858
3.92435
3.75948
3.56834
3.3572
3.13281
2.90159
2.66929
2.44078
2.22007
2.01012
1.81281
1.62907
1.45912
1.30267
1.15911
1.02763
0.907225
0.796692
0.694802
0.600574
0.513346
0.432779
0.359081
0.292978
0.235615
0.188188
0.151641
0.126445
0.112441
0.108808
0.114165
0.12678
0.144816
0.166566
0.190542
0.215615
0.240956
0.265881
0.28975
0.311903
0.331628
0.34809
0.360228
0.366788
0.366978
0.360649
0.348449
0.332035
0.314032
0.297711
0.286385
0.282752
0.288389
0.302961
0.325163
0.353889
0.38787
0.425857
0.46663
0.508878
0.551023
0.591068
0.626592
0.654849
0.673349
0.680355
0.675039
0.657582
0.629048
0.591103
0.545685
0.494697
0.439858
0.382808
0.325046
0.268002
0.213233
0.162353
0.116836
0.0777615
0.0455841
0.0200058
0
-0.00777626
0.00127945
0.1576
0.631949
1.55142
2.86959
4.29282
5.34291
5.56108
4.75223
3.11644
1.17097
-0.501825
-1.52652
-1.86505
-1.7297
-1.60701
-1.49158
-1.38715
-1.29703
-1.22213
-1.16414
-1.12385
-1.10085
-1.0933
-1.09796
-1.11042
-1.12577
-1.13942
-1.14801
-1.15034
-1.14595
-1.13582
-1.12112
-1.10214
-1.07739
-1.04329
-0.994529
-0.92505
-0.829421
-0.704135
-0.550757
-0.37323
-0.175234
0.0389439
0.264638
0.497541
0.733952
0.970828
1.20557
1.43568
1.65846
1.87059
2.06729
2.24378
2.39625
2.52186
2.61915
2.68813
2.73
2.74658
2.73968
2.71069
2.6613
2.59321
2.50724
2.40441
2.28643
2.15569
2.01506
1.86769
1.71654
1.5642
1.41282
1.26415
1.11952
0.979945
0.846193
0.718853
0.598471
0.485714
0.381638
0.288166
0.207975
0.143681
0.0974186
0.0705677
0.0632572
0.0741352
0.100496
0.138751
0.185112
0.236252
0.289668
0.343932
0.398406
0.452772
0.506667
0.559416
0.609927
0.656775
0.698391
0.733322
0.760472
0.779277
0.789802
0.792758
0.789465
0.78176
0.771771
0.761626
0.753178
0.747742
0.7461
0.74824
0.75327
0.760192
0.768563
0.779051
0.793642
0.815377
0.847677
0.895776
0.964766
1.05579
1.16266
1.26981
1.35754
1.40763
1.40643
1.34726
1.23247
1.0738
0.890276
0.703751
0.532882
0.383755
0.254619
0.148775
0.0686569
0.0151871
-0.0124708
-0.0160267
0
0.0396082
0.0852678
0.130151
0.168292
0.0865061
0.0900114
0.589337
1.76159
3.53952
5.54849
7.18358
7.83775
7.18761
5.37763
2.97632
0.71224
-0.857426
-1.55331
-1.55173
-1.37571
-1.21185
-1.07001
-0.955909
-0.870307
-0.80954
-0.766989
-0.735067
-0.707085
-0.678517
-0.647507
-0.613557
-0.576548
-0.536392
-0.492644
-0.444324
-0.389984
-0.327954
-0.256864
-0.175882
-0.0847898
0.0157831
0.124565
0.239862
0.359359
0.481242
0.604731
0.730317
0.8596
0.994748
1.13777
1.28985
1.45092
1.61955
1.79411
1.97298
2.15474
2.33835
2.52304
2.70707
2.88535
3.04934
3.18831
3.29215
3.35414
3.37256
3.35052
3.29443
3.21173
3.10897
2.99223
2.86492
2.72871
2.58475
2.43423
2.27875
2.1207
1.96348
1.81121
1.66823
1.53857
1.42547
1.33097
1.25589
1.19983
1.16142
1.13867
1.12925
1.1308
1.14104
1.15791
1.17953
1.20426
1.23066
1.25744
1.2836
1.30862
1.33257
1.35607
1.38017
1.40601
1.43448
1.4659
1.49958
1.5339
1.56659
1.59511
1.61711
1.63077
1.63499
1.62949
1.61479
1.5921
1.5629
1.52899
1.49244
1.45559
1.42095
1.39126
1.36945
1.35826
1.3599
1.37573
1.40682
1.45239
1.50887
1.56969
1.62586
1.66811
1.68852
1.68178
1.64616
1.58386
1.50073
1.40514
1.30622
1.21165
1.125
1.04612
0.973882
0.906181
0.8402
0.773105
0.70257
0.627068
0.545905
0.45907
0.367118
0.270752
0.170694
0.0668672
-0.0653822
0
0.523659
1.65428
3.31281
5.12112
6.49363
6.88671
6.08431
4.3414
2.27542
0.559169
-0.397333
-0.585288
-0.301649
-0.130234
0.0254303
0.154639
0.251876
0.326565
0.385239
0.431497
0.469623
0.504049
0.538918
0.577747
0.623262
0.677308
0.740851
0.814
0.896047
0.985593
1.08074
1.17938
1.27952
1.37962
1.47886
1.57732
1.67596
1.77643
1.8808
1.99113
2.1091
2.23568
2.37099
2.5142
2.6637
2.81728
2.97248
3.12685
3.27827
3.42517
3.56663
3.70236
3.83245
3.95692
4.07515
4.18507
4.28222
4.36038
4.41131
4.42641
4.39881
4.32498
4.20572
4.04621
3.8553
3.64444
3.42675
3.21157
3.0045
2.80984
2.63115
2.47081
2.33001
2.20899
2.10721
2.0236
1.95672
1.90492
1.86659
1.84001
1.82299
1.81339
1.80958
1.81066
1.81656
1.82785
1.84533
1.86972
1.90175
1.93928
1.97682
2.00812
2.02835
2.03584
2.03276
2.02424
2.01647
2.01444
2.01989
2.03112
2.0461
2.06311
2.08059
2.09747
2.1133
2.12812
2.14229
2.15624
2.17042
2.18535
2.20175
2.22069
2.24368
2.27262
2.3099
2.3591
2.4268
2.52482
2.66058
2.80961
2.93216
2.98454
2.93209
2.76198
2.49026
2.15915
1.82503
1.54197
1.31367
1.12014
0.954521
0.816936
0.706448
0.620077
0.550909
0.490415
0.430357
0.364049
0.28729
0.198728
0.0995811
-0.0500324
0
0.472849
1.502
3.03452
4.77022
6.20728
6.82812
6.3508
4.89707
2.95431
1.13769
-0.104057
-0.656971
-0.700327
-0.589209
-0.498812
-0.418333
-0.349893
-0.293993
-0.247666
-0.208345
-0.173835
-0.141995
-0.110864
-0.0788676
-0.0449544
-0.00862227
0.0301214
0.0708423
0.112765
0.154843
0.195777
0.234045
0.268019
0.296334
0.318593
0.335719
0.350387
0.367202
0.392461
0.433474
0.497492
0.590491
0.715849
0.872355
1.05616
1.26275
1.48687
1.72256
1.96357
2.20378
2.4373
2.65771
2.85811
3.03319
3.17857
3.29112
3.36902
3.41176
3.41981
3.39425
3.33633
3.24735
3.12954
2.98463
2.81475
2.62295
2.41382
2.19346
1.96859
1.74618
1.5333
1.33644
1.16071
1.01038
0.888282
0.793198
0.720427
0.66399
0.617934
0.577413
0.539286
0.502114
0.46569
0.430329
0.396179
0.362914
0.329867
0.296165
0.261018
0.223975
0.185048
0.144696
0.103701
0.0630329
0.0236974
-0.0132857
-0.0468454
-0.0759847
-0.0998531
-0.117875
-0.129868
-0.136094
-0.137225
-0.134219
-0.128165
-0.120161
-0.111179
-0.10202
-0.0933495
-0.0855628
-0.078556
-0.0715326
-0.0628683
-0.0501842
-0.0307173
-0.00197186
0.0381736
0.0921699
0.156934
0.22278
0.277929
0.31174
0.317608
0.294605
0.24753
0.185546
0.119948
0.0615768
0.0169671
-0.0121889
-0.0269791
-0.0296938
-0.023055
-0.010567
0.00344734
0.0146165
0.0192246
0.0147121
0
-0.0279543
-0.0636217
-0.1105
-0.160741
0.0609615
0.770791
2.07138
3.80197
5.50273
6.56744
6.53097
5.32526
3.33716
1.22358
-0.402351
-1.22584
-1.29702
-0.941736
-0.67205
-0.432179
-0.234563
-0.0854589
0.0357416
0.136315
0.219369
0.288751
0.348682
0.40345
0.4571
0.513124
0.574169
0.641814
0.716469
0.797437
0.883218
0.971871
1.0614
1.15008
1.23672
1.32073
1.40214
1.48164
1.56052
1.64077
1.72502
1.81638
1.91827
2.03388
2.16577
2.31534
2.48261
2.66612
2.86326
3.07069
3.28475
3.50211
3.71924
3.93116
4.13073
4.30856
4.45401
4.55673
4.60705
4.59807
4.52756
4.3995
4.22462
4.01896
3.8003
3.58379
3.3764
3.17877
2.9905
2.81253
2.64607
2.49221
2.35195
2.2261
2.11522
2.01965
1.93965
1.87546
1.8271
1.79441
1.77706
1.77426
1.78458
1.80633
1.83698
1.87226
1.90669
1.93538
1.9551
1.96493
1.96637
1.96282
1.95842
1.95684
1.96019
1.96824
1.97972
1.99327
2.00778
2.02296
2.03955
2.05927
2.08434
2.11695
2.15842
2.20895
2.26778
2.33332
2.40295
2.47298
2.53873
2.59535
2.63908
2.66781
2.6816
2.68302
2.6769
2.66953
2.66724
2.67607
2.70187
2.73642
2.76251
2.7598
2.71196
2.61261
2.46766
2.29339
2.11129
1.94168
1.79097
1.65702
1.53893
1.43477
1.34064
1.25121
1.16044
1.0624
0.952062
0.82598
0.682783
0.523271
0.350154
0.149946
0
0.305936
1.22901
2.7814
4.7206
6.55577
7.68681
7.65328
6.38239
4.27877
2.06663
0.4485
-0.222854
-0.0604807
0.353014
0.540775
0.697748
0.820623
0.915313
0.98844
1.04392
1.08597
1.11929
1.14773
1.17449
1.2028
1.23591
1.27681
1.3278
1.39008
1.46351
1.54678
1.6378
1.73434
1.83461
1.93757
2.04326
2.15242
2.26624
2.38594
2.51248
2.64644
2.78796
2.9367
3.09195
3.25265
3.41748
3.58488
3.75311
3.92025
4.08423
4.24278
4.39344
4.53331
4.65891
4.76607
4.85055
4.90825
4.93509
4.92744
4.88281
4.80045
4.68186
4.53085
4.35335
4.15749
3.95196
3.74389
3.53891
3.34165
3.15562
2.98324
2.82597
2.68457
2.55937
2.45046
2.3578
2.28127
2.22059
2.17531
2.14475
2.12802
2.12415
2.13215
2.15104
2.17972
2.21686
2.26068
2.30827
2.35432
2.39071
2.4082
2.39795
2.35339
2.27186
2.15545
2.01088
1.84819
1.67881
1.51297
1.35648
1.21375
1.08749
0.978697
0.887064
0.811412
0.750182
0.701831
0.665133
0.639386
0.624302
0.61982
0.626059
0.643133
0.670993
0.709313
0.757401
0.814104
0.877709
0.946315
1.01662
1.08287
1.13815
1.17552
1.18928
1.17614
1.1359
1.07136
0.987665
0.891236
0.789236
0.687085
0.588307
0.495588
0.410671
0.334252
0.265959
0.204446
0.147606
0.0929039
0.0377855
-0.0199213
-0.081831
-0.14842
-0.218946
-0.29302
-0.311395
0
0.807122
2.15172
3.85353
5.50627
6.59437
6.70476
5.73789
3.99031
2.03608
0.457225
-0.419579
-0.622139
-0.43482
-0.297538
-0.168063
-0.0483295
0.06259
0.16909
0.27432
0.37999
0.486991
0.595338
0.704257
0.812488
0.918744
1.02205
1.12193
1.21853
1.3125
1.40477
1.49612
1.58686
1.6764
1.76251
1.84154
1.90937
1.96277
2.00075
2.02553
2.04263
2.06004
2.08668
2.13055
2.19426
2.27677
2.37627
2.48993
2.61362
2.74196
2.8689
2.98845
3.09493
3.18332
3.25038
3.29425
3.31405
3.30947
3.28053
3.22729
3.14978
3.04808
2.92251
2.77506
2.60874
2.42685
2.23306
2.03173
1.82769
1.62583
1.43057
1.24548
1.07307
0.914711
0.770767
0.640828
0.524035
0.419388
0.32598
0.243119
0.170317
0.107215
0.0535507
0.0089283
-0.0274788
-0.0564819
-0.0785694
-0.0936047
-0.100661
-0.0981159
-0.0840214
-0.0566978
-0.0153709
0.0390095
0.104255
0.176742
0.25187
0.324627
0.390317
0.445252
0.487152
0.515275
0.530279
0.533909
0.528605
0.517133
0.502331
0.486991
0.473752
0.465261
0.464056
0.472459
0.492323
0.524718
0.569625
0.62574
0.69099
0.761739
0.8325
0.89656
0.947131
0.978354
0.985824
0.967053
0.921801
0.852185
0.762534
0.658925
0.548463
0.438416
0.334875
0.241607
0.162519
0.099691
0.0537579
0.0239674
0.00835991
0.00408287
0.00783844
0.0163948
0.027026
0.0380539
0
0.282472
1.09862
2.46118
4.11472
5.5773
6.32241
6.02754
4.7511
2.92167
1.13425
-0.129371
-0.692653
-0.690555
-0.542419
-0.428412
-0.328524
-0.244638
-0.175705
-0.116859
-0.0649551
-0.01702
0.0296341
0.0770012
0.126139
0.177137
0.229262
0.281259
0.331719
0.379442
0.423723
0.464509
0.502387
0.538442
0.574021
0.610496
0.649106
0.690917
0.736932
0.788286
0.846449
0.913318
0.991155
1.08231
1.18881
1.3119
1.45166
1.6068
1.77475
1.9519
2.13413
2.31725
2.4973
2.67014
2.83014
2.96966
3.08189
3.16099
3.20051
3.19456
3.13925
3.03361
2.87982
2.68295
2.45079
2.196
1.93174
1.66784
1.41146
1.16829
0.943429
0.740676
0.562262
0.408821
0.279521
0.172323
0.0843047
0.0120327
-0.0481345
-0.0997927
-0.146181
-0.189764
-0.231937
-0.272811
-0.311059
-0.343961
-0.367964
-0.379297
-0.374779
-0.352567
-0.312651
-0.256966
-0.18909
-0.113582
-0.0351908
0.0420945
0.115555
0.183548
0.245411
0.301113
0.350704
0.39394
0.430436
0.459828
0.481944
0.497224
0.50703
0.513698
0.520304
0.530233
0.546671
0.571945
0.607186
0.65278
0.708461
0.77336
0.846367
0.924858
1.00291
1.07245
1.12517
1.15399
1.15446
1.12549
1.06944
0.991447
0.898523
0.798503
0.699012
0.605275
0.520514
0.446574
0.384221
0.333422
0.292635
0.258955
0.228728
0.19823
0.16429
0.124793
0.0789557
0.0273222
-0.0296653
-0.119514
0
0.550955
1.65869
3.23814
4.92199
6.15123
6.41845
5.53881
3.77437
1.71646
-0.00863657
-1.02372
-1.30638
-1.02489
-0.683304
-0.36139
-0.098314
0.0794045
0.206482
0.314542
0.414109
0.509988
0.606221
0.706031
0.811516
0.923501
1.04167
1.16475
1.29087
1.41788
1.54364
1.66626
1.78422
1.8964
2.00202
2.10058
2.19209
2.27732
2.35781
2.43598
2.51507
2.59882
2.69104
2.795
2.91287
3.04521
3.19098
3.34795
3.51293
3.68202
3.85099
4.0151
4.16912
4.3078
4.42617
4.51973
4.58467
4.61759
4.61563
4.57675
4.50017
4.38681
4.23959
4.0635
3.86537
3.6535
3.43561
3.21739
3.00275
2.7944
2.594
2.40248
2.22058
2.04932
1.89029
1.74572
1.618
1.50932
1.42161
1.35518
1.30849
1.2786
1.26155
1.25298
1.24864
1.24492
1.23914
1.22983
1.21678
1.20093
1.18418
1.16907
1.1583
1.15429
1.15851
1.17152
1.19285
1.2212
1.25429
1.28878
1.32092
1.34745
1.36616
1.37621
1.37826
1.37426
1.36702
1.35963
1.35483
1.35417
1.35816
1.36663
1.37839
1.39024
1.39759
1.39594
1.38232
1.35658
1.32211
1.28565
1.25628
1.25368
1.32924
1.52347
1.77468
2.00195
2.13845
2.151
2.04429
1.852
1.62148
1.39973
1.21967
1.07546
0.953366
0.846073
0.750805
0.666919
0.593989
0.531235
0.477362
0.429634
0.384159
0.336864
0.284313
0.224471
0.157127
0.0814432
-0.0967606
0
0.621475
1.88757
3.66603
5.51571
6.81342
7.02835
5.99671
4.0249
1.75109
-0.156121
-1.28755
-1.61608
-1.37343
-1.12381
-0.890489
-0.689712
-0.533705
-0.413842
-0.317768
-0.245765
-0.196423
-0.166424
-0.150673
-0.142898
-0.136636
-0.126377
-0.108939
-0.0839468
-0.0525223
-0.0163834
0.0224463
0.0619768
0.100707
0.13792
0.173797
0.209384
0.246448
0.287289
0.334536
0.391006
0.459499
0.542585
0.642341
0.760074
0.896074
1.04946
1.21817
1.39914
1.58868
1.78289
1.97806
2.17049
2.35525
2.52518
2.67236
2.78859
2.86407
2.89026
2.8632
2.7853
2.66452
2.51143
2.33584
2.14671
1.9509
1.75255
1.55454
1.35978
1.17156
0.993214
0.82769
0.677062
0.542158
0.422391
0.315873
0.219788
0.130981
0.0466135
-0.0352293
-0.115144
-0.192284
-0.26448
-0.328955
-0.383
-0.424707
-0.452869
-0.468134
-0.472852
-0.470012
-0.462381
-0.451776
-0.438682
-0.422307
-0.401023
-0.373024
-0.337308
-0.293942
-0.243806
-0.188596
-0.130675
-0.0728933
-0.0180349
0.0316843
0.0749559
0.111537
0.14219
0.168438
0.192201
0.215406
0.239641
0.265929
0.294735
0.326045
0.359493
0.394538
0.430647
0.467454
0.504881
0.543199
0.58303
0.625286
0.671041
0.721349
0.776998
0.838397
0.905555
0.97735
1.04999
1.11696
1.17091
1.20521
1.21545
1.20039
1.16197
1.10447
1.03323
0.953394
0.869537
0.784594
0.700232
0.617573
0.53749
0.460613
0.387242
0.317249
0.250048
0.18463
0.119677
0.0534065
-0.0573162
0
0.529503
1.71175
3.46813
5.39358
6.86669
7.31341
6.48924
4.61451
2.27821
0.165755
-1.23368
-1.78691
-1.67886
-1.53763
47
201
349
497
649
796
940
1088
1238
1386
1534
1691
1845
1993
2138
2284
2431
2577
2720
2863
3008
3155
3297
3441
3590
3741
0
0
0
0
0
0
0
0
0
0
0
0
0
0
0
0
0
0
0
0
0
0
0
0
0
0
0
0
0
0
0
0
0
0
0
0
0
0
0
0
0
0
0
0
0
0
0
0
0
0
0
0
0
0
0
0
0
0
0
0
0
0
0
0
0
0
0
0
0
0
0
0
0
0
0
0
0
0
0
0
0
0
0
0
0
0
0
0
0
0
0
0
0
0
0
0
0
0
0
0
0
0
0
0
0
0
0
0
0
0
0
0
0
0
0
0
0
0
0
0
0
0
0
0
0
0
0
0
0
0
0
0
0
0
0
0
0
0
0
0
0
0
0
0
0
0
0
0
0
0
0
0
0
0
0
0
0
0
0
0
0
0
0
0
0
0
0
0
0
0
0
0
0
0
0
0
0
0
0
0
0
0
0
0
0
0
0
0
0
0
0
0
0
0
0
0
0
0
0
0
0
0
0
0
0
0
0
0
0
0
0
0
0
0
0
0
0
0
0
0
0
0
0
0
0
0
0
0
0
0
0
0
0
0
0
0
0
0
0
0
0
0
0
0
0
0
0
0
0
0
0
0
0
0
0
0
0
0
0
0
0
0
0
0
0
0
0
0
0
0
0
0
0
0
0
0
0
0
0
0
0
0
0
0
0
0
0
0
0
0
0
0
0
0
0
0
0
0
0
0
0
0
0
0
0
0
0
0
0
0
0
0
0
0
0
0
0
0
0
0
0
0
0
0
0
0
0
0
0
0
0
0
0
0
0
0
0
0
0
0
0
0
0
0
0
0
0
0
0
0
0
0
0
0
0
0
0
0
0
0
0
0
0
0
0
0
0
0
0
0
0
0
0
0
0
0
0
0
0
0
0
0
0
0
0
0
0
0
0
0
0
0
0
0
0
0
0
0
0
0
0
0
0
0
0
0
0
0
0
0
0
0
0
0
0
0
0
0
0
0
0
0
0
0
0
0
0
0
0
0
0
0
0
0
0
0
0
0
0
0
0
0
0
0
0
0
0
0
0
0
0
0
0
0
0
0
0
0
0
0
0
0
0
0
0
0
0
0
0
0
0
0
0
0
0
0
0
0
0
0
0
0
0
0
0
0
0
0
0
0
0
0
0
0
0
0
0
0
0
0
0
0
0
0
0
0
0
0
0
0
0
0
0
0
0
0
0
0
0
0
0
0
0
0
0
0
0
0
0
0
0
0
0
0
0
0
0
0
0
0
0
0
0
0
0
0
0
0
0
0
0
0
0
0
0
0
0
0
0
0
0
0
0
0
0
0
0
0
0
0
0
0
0
0
0
0
0
0
0
0
0
0
0
0
0
0
0
0
0
0
0
0
0
0
0
0
0
0
0
0
0
0
0
0
0
0
0
0
0
0
0
0
0
0
0
0
0
0
0
0
0
0
0
0
0
0
0
0
0
0
0
0
0
0
0
0
0
0
0
0
0
0
0
0
0
0
0
0
0
0
0
0
0
0
0
0
0
0
0
0
0
0
0
0
0
0
0
0
0
0
0
0
0
0
0
0
0
0
0
0
0
0
0
0
0
0
0
0
0
0
0
0
0
0
0
0
0
0
0
0
0
0
0
0
0
0
0
0
0
0
0
0
0
0
0
0
0
0
0
0
0
0
0
0
0
0
0
0
0
0
0
0
0
0
0
0
0
0
0
0
0
0
0
0
0
0
0
0
0
0
0
0
0
0
0
0
0
0
0
0
0
0
0
0
0
0
0
0
0
0
0
0
0
0
0
0
0
0
0
0
0
0
0
0
0
0
0
0
0
0
0
0
0
0
0
0
0
0
0
0
0
0
0
0
0
0
0
0
0
0
0
0
0
0
0
0
0
0
0
0
0
0
0
0
0
0
0
0
0
0
0
0
0
0
0
0
0
0
0
0
0
0
0
0
0
0
0
0
0
0
0
0
0
0
0
0
0
0
0
0
0
0
0
0
0
0
0
0
0
0
0
0
0
0
0
0
0
0
0
0
0
0
0
0
0
0
0
0
0
0
0
0
0
0
0
0
0
0
0
0
0
0
0
0
0
0
0
0
0
0
0
0
0
0
0
0
0
0
0
0
0
0
0
0
0
0
0
0
0
0
0
0
0
0
0
0
0
0
0
0
0
0
0
0
0
0
0
0
0
0
0
0
0
0
0
0
0
0
0
0
0
0
0
0
0
0
0
0
0
0
0
0
0
0
0
0
0
0
0
0
0
0
0
0
0
0
0
0
0
0
0
0
0
0
0
0
0
0
0
0
0
0
0
0
0
0
0
0
0
0
0
0
0
0
0
0
0
0
0
0
0
0
0
0
0
0
0
0
0
0
0
0
0
0
0
0
0
0
0
0
0
0
0
0
0
0
0
0
0
0
0
0
0
0
0
0
0
0
0
0
0
0
0
0
0
0
0
0
0
0
0
0
0
0
0
0
0
0
0
0
0
0
0
0
0
0
0
0
0
0
0
0
0
0
0
0
0
0
0
0
0
0
0
0
0
0
0
0
0
0
0
0
0
0
0
0
0
0
0
0
0
0
0
0
0
0
0
0
0
0
0
0
0
0
0
0
0
0
0
0
0
0
0
0
0
0
0
0
0
0
0
0
0
0
0
0
0
0
0
0
0
0
0
0
0
0
0
0
0
0
0
0
0
0
0
0
0
0
0
0
0
0
0
0
0
0
0
0
0
0
0
0
0
0
0
0
0
0
0
0
0
0
0
0
0
0
0
0
0
0
0
0
0
0
0
0
0
0
0
0
0
0
0
0
0
0
0
0
0
0
0
0
0
0
0
0
0
0
0
0
0
0
0
0
0
0
0
0
0
0
0
0
0
0
0
0
0
0
0
0
0
0
0
0
0
0
0
0
0
0
0
0
0
0
0
0
0
0
0
0
0
0
0
0
0
0
0
0
0
0
0
0
0
0
0
0
0
0
0
0
0
0
0
0
0
0
0
0
0
0
0
0
0
0
0
0
0
0
0
0
0
0
0
0
0
0
0
0
0
0
0
0
0
0
0
0
0
0
0
0
0
0
0
0
0
0
0
0
0
0
0
0
0
0
0
0
0
0
0
0
0
0
0
0
0
0
0
0
0
0
0
0
0
0
0
0
0
0
0
0
0
0
0
0
0
0
0
0
0
0
0
0
0
0
0
0
0
0
0
0
0
0
0
0
0
0
0
0
0
0
0
0
0
0
0
0
0
0
0
0
0
0
0
0
0
0
0
0
0
0
0
0
0
0
0
0
0
0
0
0
0
0
0
0
0
0
0
0
0
0
0
0
0
0
0
0
0
0
0
0
0
0
0
0
0
0
0
0
0
0
0
0
0
0
0
0
0
0
0
0
0
0
0
0
0
0
0
0
0
0
0
0
0
0
0
0
0
0
0
0
0
0
0
0
0
0
0
0
0
0
0
0
0
0
0
0
0
0
0
0
0
0
0
0
0
0
0
0
0
0
0
0
0
0
0
0
0
0
0
0
0
0
0
0
0
0
0
0
0
0
0
0
0
0
0
0
0
0
0
0
0
0
0
0
0
0
0
0
0
0
0
0
0
0
0
0
0
0
0
0
0
0
0
0
0
0
0
0
0
0
0
0
0
0
0
0
0
0
0
0
0
0
0
0
0
0
0
0
0
0
0
0
0
0
0
0
0
0
0
0
0
0
0
0
0
0
0
0
0
0
0
0
0
0
0
0
0
0
0
0
0
0
0
0
0
0
0
0
0
0
0
0
0
0
0
0
0
0
0
0
0
0
0
0
0
0
0
0
0
0
0
0
0
0
0
0
0
0
0
0
0
0
0
0
0
0
0
0
0
0
0
0
0
0
0
0
0
0
0
0
0
0
0
0
0
0
0
0
0
0
0
0
0
0
0
0
0
0
0
0
0
0
0
0
0
0
0
0
0
0
0
0
0
0
0
0
0
0
0
0
0
0
0
0
0
0
0
0
0
0
0
0
0
0
0
0
0
0
0
0
0
0
0
0
0
0
0
0
0
0
0
0
0
0
0
0
0
0
0
0
0
0
0
0
0
0
0
0
0
0
0
0
0
0
0
0
0
0
0
0
0
0
0
0
0
0
0
0
0
0
0
0
0
0
0
0
0
0
0
0
0
0
0
0
0
0
0
0
0
0
0
0
0
0
0
0
0
0
0
0
0
0
0
0
0
0
0
0
0
0
0
0
0
0
0
0
0
0
0
0
0
0
0
0
0
0
0
0
0
0
0
0
0
0
0
0
0
0
0
0
0
0
0
0
0
0
0
0
0
0
0
0
0
0
0
0
0
0
0
0
0
0
0
0
0
0
0
0
0
0
0
0
0
0
0
0
0
0
0
0
0
0
0
0
0
0
0
0
0
0
0
0
0
0
0
0
0
0
0
0
0
0
0
0
0
0
0
0
0
0
0
0
0
0
0
0
0
0
0
0
0
0
0
0
0
0
0
0
0
0
0
0
0
0
0
0
0
0
0
0
0
0
0
0
0
0
0
0
0
0
0
0
0
0
0
0
0
0
0
0
0
0
0
0
0
0
0
0
0
0
0
0
0
0
0
0
0
0
0
0
0
0
0
0
0
0
0
0
0
0
0
0
0
0
0
0
0
0
0
0
0
0
0
0
0
0
0
0
0
0
0
0
0
0
0
0
0
0
0
0
0
0
0
0
0
0
0
0
0
0
0
0
0
0
0
0
0
0
0
0
0
0
0
0
0
0
0
0
0
0
0
0
0
0
0
0
0
0
0
0
0
0
0
0
0
0
0
0
0
0
0
0
0
0
0
0
0
0
0
0
0
0
0
0
0
0
0
0
0
0
0
0
0
0
0
0
0
0
0
0
0
0
0
0
0
0
0
0
0
0
0
0
0
0
0
0
0
0
0
0
0
0
0
0
0
0
0
0
0
0
0
0
0
0
0
0
0
0
0
0
0
0
0
0
0
0
0
0
0
0
0
0
0
0
0
0
0
0
0
0
0
0
0
0
0
0
0
0
0
0
0
0
0
0
0
0
0
0
0
0
0
0
0
0
0
0
0
0
0
0
0
0
0
0
0
0
0
0
0
0
0
0
0
0
0
0
0
0
0
0
0
0
0
0
0
0
0
0
0
0
0
0
0
0
0
0
0
0
0
0
0
0
0
0
0
0
0
0
0
0
0
0
0
0
0
0
0
0
0
0
0
0
0
0
0
0
0
0
0
0
0
0
0
0
0
0
0
0
0
0
0
0
0
0
0
0
0
0
0
0
0
0
0
0
0
0
0
0
0
0
0
0
0
0
0
0
0
0
0
0
0
0
0
0
0
0
0
0
0
0
0
0
0
0
0
0
0
0
0
0
0
0
0
0
0
0
0
0
0
0
0
0
0
0
0
0
0
0
0
0
0
0
0
0
0
0
0
0
0
0
0
0
0
0
0
0
0
0
0
0
0
0
0
0
0
0
0
0
0
0
0
0
0
0
0
0
0
0
0
0
0
0
0
0
0
0
0
0
0
0
0
0
0
0
0
0
0
0
0
0
0
0
0
0
0
0
0
0
0
0
0
0
0
0
0
0
0
0
0
0
0
0
0
0
0
0
0
0
0
0
0
0
0
0
0
0
0
0
0
0
0
0
0
0
0
0
0
0
0
0
0
0
0
0
0
0
0
0
0
0
0
0
0
0
0
0
0
0
0
0
0
0
0
0
0
0
0
0
0
0
0
0
0
0
0
0
0
0
0
0
0
0
0
0
0
0
0
0
0
0
0
0
0
0
0
0
0
0
0
0
0
0
0
0
0
0
0
0
0
0
0
0
0
0
0
0
0
0
0
0
0
0
0
0
0
0
0
0
0
0
0
0
0
0
0
0
0
0
0
0
0
0
0
0
0
0
0
0
0
0
0
0
0
0
0
0
0
0
0
0
0
0
0
0
0
0
0
0
0
0
0
0
0
0
0
0
0
0
0
0
0
0
0
0
0
0
0
0
0
0
0
0
0
0
0
0
0
0
0
0
0
0
0
0
0
0
0
0
0
0
0
0
0
0
0
0
0
0
0
0
0
0
0
0
0
0
0
0
0
0
0
0
0
0
0
0
0
0
0
0
0
0
0
0
0
0
0
0
0
0
0
0
0
0
0
0
0
0
0
0
0
0
0
0
0
0
0
0
0
0
0
0
0
0
0
0
0
0
0
0
0
0
0
0
0
0
0
0
0
0
0
0
0
0
0
0
0
0
0
0
0
0
0
0
0
0
0
0
0
0
0
0
0
0
0
0
0
0
0
0
0
0
0
0
0
0
0
0
0
0
0
0
0
0
0
0
0
0
0
0
0
0
0
0
0
0
0
0
0
0
0
0
0
0
0
0
0
0
0
0
0
0
0
0
0
0
0
0
0
0
0
0
0
0
0
0
0
0
0
0
0
0
0
0
0
0
0
0
0
0
0
0
0
0
0
0
0
0
0
0
0
0
0
0
0
0
0
0
0
0
0
0
0
0
0
0
0
0
0
0
0
0
0
0
0
0
0
0
0
0
0
0
0
0
0
0
0
0
0
0
0
0
0
0
0
0
0
0
0
0
0
0
0
0
0
0
0
0
0
0
0
0
0
0
0
0
0
0
0
0
0
0
0
0
0
0
0
0
0
0
0
0
0
0
0
0
0
0
0
0
0
0
0
0
0
0
0
0
0
0
0
0
0
0
0
0
0
0
0
0
0
0
0
0
0
0
0
0
0
0
0
0
0
0
0
0
0
0
0
0
0
0
0
0
0
0
0
0
0
0
0
0
0
0
0
0
0
0
0
0
0
0
0
0
0
0
0
0
0
0
0
0
0
0
0
0
0
0
0
0
0
0
0
0
0
0
0
0
0
0
0
0
0
0
0
0
0
0
0
0
0
0
0
0
0
0
0
0
0
0
0
0
0
0
0
0
0
0
0
0
0
0
0
0
0
0
0
0
0
0
0
0
0
0
0
0
0
0
0
0
0
0
0
0
0
0
0
0
0
0
0
0
0
0
0
0
0
0
0
0
0
0
0
0
0
0
0
0
0
0
0
0
0
0
0
0
0
0
0
0
0
0
0
0
0
0
0
0
0
0
0
0
0
0
0
0
0
0
0
0
0
0
0
0
0
0
0
0
0
0
0
0
0
0
0
0
0
0
0
0
0
0
0
0
0
0
0
0
0
0
0
0
0
0
0
0
0
0
0
0
0
0
0
0
0
0
0
0
0
0
0
0
0
0
0
0
0
0
0
0
0
0
0
0
0
0
0
0
0
0
0
0
0
0
0
0
0
0
0
0
0
0
0
0
0
0
0
0
0
0
0
0
0
0
0
0
0
0
0
0
0
0
0
0
0
0
0
0
0
0
0
0
0
0
0
0
0
0
0
0
0
0
0
0
0
0
0
0
0
0
0
0
0
0
0
0
0
0
0
0
0
0
0
0
0
0
0
0
0
0
0
0
0
0
0
0
0
0
0
0
0
0
0
0
0
0
0
0
0
0
0
0
0
0
0
0
0
0
0
0
0
0
0
0
0
0
0
0
0
0
0
0
0
0
0
0
0
0
0
0
0
0
0
0
0
0
0
0
0
0
0
0
0
0
0
0
0
0
0
0
0
0
0
0
0
0
0
0
0
0
0
0
0
0
0
0
0
0
0
0
0
0
0
0
0
0
0
0
0
0
0
0
0
0
0
0
0
0
0
0
0
0
0
0
0
0
0
0
0
0
0
0
0
0
0
0
0
0
0
0
0
0
0
0
0
0
0
0
0
0
0
0
0
0
0
0
0
0
0
0
0
0
0
0
0
0
0
0
0
0
0
0
0
0
0
0
0
0
0
0
0
0
0
0
0
0
0
0
0
0
0
0
0
0
0
0
0
0
0
0
0
0
0
0
0
0
0
0
0
0
0
0
0
0
0
0
0
0
0
0
0
0
0
0
0
0
0
0
0
0
0
0
0
0
0
0
0
0
0
0
0
0
0
0
0
0
0
0
0
0
0
0
0
0
0
0
0
0
0
0
0
0
0
0
0
0
0
0
0
0
0
0
0
0
0
0
0
0
0
0
0
0
0
0
0
0
0
0
0
0
0
0
0
0
0
0
0
0
0
0
0
0
0
0
0
0
0
0
0
0
0
0
0
0
0
0
0
0
0
0
0
0
0
0
0
0
0
0
0
0
0
0
0
0
0
0
0
0
0
0
0
0
0
0
0
0
0
0
0
0
0
0
0
0
0
0
0
0
0
0
0
0
0
0
0
0
0
0
0
0
0
0
0
0
0
0
0
0
0
0
0
0
0
0
0
0
0
0
0
0
0
0
0
0
0
0
0
0
0
0
0
0
0
0
0
0
0
0
0
0
0
0
0
0
0
0
0
0
0
0
0
0
0
0
0
0
0
0
0
0
0
0
0
0
0
0
0
0
0
0
0
0
0
0
0
0
0
