-2.0332
-1.99966
-1.95516
-1.90033
-1.83527
-1.75984
-1.67433
-1.58011
-1.48007
-1.37804
-1.27809
-1.18416
-1.09941
-1.02581
-0.963988
-0.913387
-0.87262
-0.840006
-0.813578
-0.791385
-0.771441
-0.751585
-0.729361
-0.702048
-0.666894
-0.621569
-0.564711
-0.493573
-0.407733
-0.31628
-0.232659
-0.169918
-0.136655
-0.134333
-0.156991
-0.193442
-0.23102
-0.259466
-0.276288
-0.283827
-0.283828
-0.279395
-0.274087
-0.270695
-0.270392
-0.272316
-0.273659
-0.270238
-0.257371
-0.230824
-0.188534
-0.130301
-0.0532463
0.0478252
0.175568
0.315516
0.441082
0.523409
0.539427
0.480572
0.358137
0.202354
0.0545364
-0.0463181
-0.0922707
-0.103188
-0.089986
-0.0626331
-0.0324406
-0.00938034
0
-0.0159004
-0.0462261
-0.0871117
-0.134017
-0.184444
-0.0559578
0.333188
1.22896
2.7922
4.90004
7.05964
8.54208
8.71321
7.3864
4.9704
2.29051
0.177758
-0.918154
-1.06073
-0.662307
-0.377639
-0.139464
0.0255756
0.115511
0.18127
0.240007
0.299971
0.368085
0.448849
0.543343
0.649543
0.764027
0.879394
0.987138
1.08028
1.15505
1.2118
1.25476
1.29097
1.32869
1.37575
1.43732
1.51539
1.61113
1.72549
1.85883
2.01101
2.18158
2.36971
2.57426
2.79376
3.02649
3.27068
3.5246
3.78743
4.06194
4.35433
4.6616
4.95387
5.19032
5.33613
5.37649
5.31875
5.18398
4.99612
4.77556
4.53784
4.29456
4.04965
3.80442
3.55988
3.31734
3.07877
2.84707
2.62584
2.41913
2.23102
2.06522
1.92468
1.81101
1.72434
1.66356
1.62762
1.61483
1.62015
1.63541
1.65381
1.67151
1.68854
1.70852
1.73725
1.78043
1.84137
1.91906
2.00789
2.10312
2.20065
2.29732
2.39142
2.48258
2.57115
2.65737
2.74047
2.81832
2.88759
2.94426
2.98443
3.00517
3.00496
2.98406
2.94441
2.88941
2.82348
2.75149
2.67814
2.60725
2.5412
2.48082
2.42616
2.37651
2.33067
2.28729
2.24525
2.20396
2.16357
2.12515
2.09066
2.06271
2.04459
2.04194
2.06395
2.11446
2.17813
2.23238
2.25424
2.22747
2.14652
2.01612
1.84757
1.65452
1.45096
1.24954
1.05682
0.876994
0.714309
0.572359
0.453224
0.358439
0.286058
0.230516
0.185137
0.143539
0.100899
0.0546772
0
-0.0877956
0.204965
1.17697
2.98771
5.4643
8.02493
9.83392
10.1609
8.76336
6.05543
2.93247
0.34114
-1.14919
-1.52649
-1.19827
-0.869342
-0.606925
-0.447072
-0.384144
-0.350554
-0.324533
-0.30051
-0.275253
-0.246952
-0.215085
-0.180107
-0.143044
-0.105082
-0.0672058
-0.0300049
0.00646591
0.0426857
0.0795578
0.118236
0.159889
0.205498
0.255723
0.31095
0.371455
0.437763
0.510995
0.593036
0.686496
0.794378
0.919543
1.06407
1.22873
1.41264
1.61336
1.82736
2.05098
2.28005
2.50815
2.72408
2.91441
3.06574
3.16017
3.18062
3.11925
2.98388
2.79859
2.59733
2.41166
2.25417
2.11433
1.98187
1.85202
1.72282
1.59399
1.46709
1.34526
1.23249
1.13274
1.05033
0.987767
0.943507
0.913818
0.893893
0.879197
0.866667
0.855484
0.847257
0.845626
0.855356
0.880479
0.923863
0.987035
1.06959
1.16893
1.28208
1.40626
1.53937
1.68023
1.82849
1.98399
2.14615
2.31339
2.48291
2.65129
2.81484
2.97013
3.11445
3.24593
3.3631
3.4646
3.54977
3.61858
3.67123
3.70844
3.7316
3.74288
3.745
3.74092
3.7333
3.72406
3.7141
3.70318
3.69017
3.67332
3.65057
3.61981
3.5791
3.52674
3.46122
3.38125
3.28613
3.17561
3.04939
2.90761
2.75091
2.5805
2.39813
2.20611
2.00724
1.8048
1.6024
1.4038
1.21266
1.03218
0.864842
0.712077
0.574126
0.449991
0.337653
0.233973
0.138128
0
0.152146
0.934827
2.5815
4.99292
7.66228
9.80648
10.6718
9.87958
7.62777
4.62456
1.77521
-0.20668
-1.05587
-0.964641
-0.570762
-0.236403
0.0506134
0.278871
0.445197
0.553405
0.611756
0.630324
0.619204
0.58981
0.551087
0.509249
0.469257
0.434956
0.408528
0.391038
0.383714
0.387605
0.403188
0.430538
0.469055
0.516786
0.571167
0.629471
0.689344
0.749318
0.809172
0.870094
0.934596
1.00621
1.08872
1.18572
1.30043
1.43518
1.59094
1.77046
1.98799
2.28621
2.71075
3.21581
3.72656
4.16258
4.44122
4.50675
4.34835
3.99984
3.52779
3.01746
2.5767
2.25867
1.99379
1.74967
1.51929
1.30372
1.10409
0.921173
0.755296
0.606286
0.473519
0.356074
0.252997
0.16361
0.0877831
0.0260883
-0.0202221
-0.0492092
-0.0563435
-0.0284779
0.0663532
0.271941
0.573578
0.889319
1.1456
1.28643
1.27472
1.09746
0.779808
0.400043
0.0868038
-0.0449169
-0.0508677
-0.00600452
0.0723602
0.18132
0.3118
0.44511
0.562462
0.650091
0.701988
0.721235
0.718906
0.710111
0.708191
0.719519
0.739386
0.760899
0.77858
0.788577
0.790204
0.786351
0.782616
0.785462
0.799577
0.828327
0.871543
0.918267
0.953077
0.960511
0.929559
0.856695
0.746517
0.609983
0.461209
0.314142
0.176863
0.0524934
-0.0549729
-0.142012
-0.203123
-0.224378
-0.189253
-0.117437
-0.042462
0
-0.0184064
-0.0974443
-0.217677
-0.596605
-0.59929
0.0911314
1.60107
3.76215
6.08898
7.90477
8.59129
7.86192
5.91402
3.36404
0.987086
-0.606948
-1.19024
-0.930834
-0.391601
0.00711851
0.359735
0.657073
0.913206
1.1398
1.34156
1.524
1.69232
1.85054
2.00102
2.1444
2.28006
2.40679
2.52363
2.63048
2.7285
2.82006
2.90841
2.99712
3.08933
3.18727
3.29189
3.40296
3.51946
3.6399
3.76312
3.88881
4.01773
4.15154
4.29236
4.44211
4.60187
4.77151
4.94976
5.13467
5.32345
5.51182
5.69209
5.85208
5.9796
6.058
6.06821
5.99446
5.83073
5.58456
5.27625
4.93414
4.588
4.25648
3.94221
3.64569
3.37004
3.11691
2.88646
2.67732
2.4866
2.31072
2.14619
1.99024
1.84132
1.6992
1.56483
1.43986
1.32605
1.22505
1.13802
1.06574
1.0088
0.968578
0.947513
0.946757
0.967108
1.00828
1.06819
1.14267
1.2258
1.31036
1.38922
1.4565
1.50822
1.54238
1.5585
1.55673
1.53762
1.50179
1.45015
1.38444
1.30768
1.22437
1.1403
1.06202
0.995351
0.945339
0.916381
0.913123
0.951883
1.05408
1.20574
1.36594
1.49153
1.55103
1.53286
1.44431
1.30379
1.13234
0.949323
0.771388
0.606856
0.459314
0.33078
0.222328
0.13471
0.0693922
0.0273384
0.00664978
0
0.00606041
0.0051836
-0.0113047
-0.0486172
-0.107612
-0.184785
-0.286902
-0.334492
0.0611254
1.14766
2.95773
5.16387
7.12001
8.12299
7.77089
6.19649
4.01172
1.98573
0.660186
0.143162
0.182109
0.382031
0.465717
0.538828
0.596756
0.636601
0.65773
0.661971
0.653349
0.637347
0.619833
0.605867
0.598396
0.597489
0.601642
0.608935
0.616632
0.621917
0.62265
0.617979
0.608721
0.597375
0.588302
0.587025
0.599572
0.631774
0.688656
0.773921
0.889553
1.03551
1.20875
1.40384
1.61471
1.83473
2.05673
2.27363
2.47823
2.66485
2.82989
2.97139
3.08853
3.17969
3.23952
3.26453
3.25107
3.19512
3.09409
2.94866
2.76383
2.54886
2.31576
2.07725
1.84366
1.62066
1.41337
1.22571
1.06056
0.919908
0.805068
0.719301
0.669691
0.654388
0.654628
0.648215
0.61597
0.548007
0.446918
0.326221
0.204743
0.0996758
0.016607
-0.0496867
-0.0992139
-0.132781
-0.15161
-0.156845
-0.149305
-0.129451
-0.0976881
-0.0540613
0.00139208
0.0684851
0.146379
0.233878
0.329309
0.430339
0.533958
0.636688
0.734882
0.825126
0.905216
0.974423
1.03356
1.08482
1.13123
1.17603
1.22191
1.27065
1.32117
1.36967
1.41054
1.43771
1.44577
1.43081
1.39071
1.32541
1.23703
1.13198
1.01693
0.897722
0.779864
0.668079
0.565042
0.471813
0.387927
0.31159
0.240288
0.171478
0.10314
0.0340982
-0.0359383
-0.106553
-0.176891
-0.244681
-0.228292
0
0.599743
1.71401
3.31104
5.07113
6.43527
6.83536
5.99477
4.10878
1.77112
-0.31591
-1.66143
-2.14816
-1.896
-1.5272
-1.18837
-0.93011
-0.778357
-0.695701
-0.637286
-0.592903
-0.559494
-0.534616
-0.516451
-0.503549
-0.49459
-0.488318
-0.483665
-0.479944
-0.476943
-0.474775
-0.473488
-0.472549
-0.470408
-0.464334
-0.450597
-0.424949
-0.383558
-0.324479
-0.246293
-0.147887
-0.0290722
0.109529
0.266861
0.44168
0.632646
0.838344
1.0588
1.29601
1.55286
1.83069
2.11808
2.38859
2.61833
2.77054
2.79736
2.66883
2.40689
2.09222
1.82537
1.65284
1.50258
1.34081
1.16747
0.981439
0.786664
0.591565
0.407088
0.244122
0.110663
0.0109917
-0.0550635
-0.0915513
-0.105182
-0.103962
-0.0963954
-0.0896718
-0.0901426
-0.102664
-0.13026
-0.173806
-0.233406
-0.306227
-0.384449
-0.45572
-0.506754
-0.526172
-0.506707
-0.446867
-0.35173
-0.23252
-0.104715
0.0151121
0.113902
0.188616
0.237571
0.262237
0.266921
0.257244
0.238679
0.215953
0.192147
0.169276
0.149343
0.135345
0.131331
0.142102
0.172814
0.230099
0.341517
0.528572
0.753139
0.962345
1.10955
1.17063
1.14774
1.06076
0.934287
0.789769
0.646291
0.516827
0.406898
0.320066
0.258506
0.230364
0.242285
0.291144
0.359358
0.421061
0.451098
0.429703
0.345871
0.199222
0
-0.288553
-0.548028
-0.233774
0.894338
2.72698
4.75433
6.25638
6.65203
5.79939
4.05885
2.08198
0.469032
-0.485412
-0.824767
-0.765577
-0.485813
-0.217577
0.0287619
0.242463
0.415442
0.544493
0.632753
0.689445
0.72763
0.760747
0.799362
0.8483
0.907009
0.975971
1.05586
1.1479
1.25379
1.37507
1.51213
1.66338
1.82431
1.98939
2.15307
2.31021
2.45683
2.59085
2.71235
2.82358
2.92861
3.03278
3.14201
3.26207
3.39789
3.55318
3.73852
3.96934
4.23257
4.48733
4.69127
4.81469
4.84899
4.80646
4.71213
4.59108
4.45668
4.30844
4.14378
3.96216
3.76301
3.54607
3.31289
3.0674
2.81547
2.56409
2.32051
2.09138
1.88218
1.69691
1.53797
1.40632
1.30167
1.22275
1.16742
1.13328
1.11887
1.12165
1.13457
1.14949
1.15884
1.15695
1.14102
1.11142
1.07117
1.02488
0.977606
0.933431
0.894768
0.86364
0.841777
0.830418
0.830533
0.842421
0.86466
0.893823
0.925288
0.953915
0.974766
0.984262
0.980999
0.966336
0.944511
0.922109
0.907645
0.909074
0.931709
0.97667
1.04041
1.1155
1.19239
1.26141
1.31586
1.35023
1.36097
1.34628
1.30599
1.24336
1.16135
1.06457
0.958943
0.850959
0.746666
0.650633
0.56528
0.490739
0.425247
0.365929
0.309655
0.253732
0.196282
0.136312
0.0736549
0.00800552
-0.0864182
0
0.553379
1.73293
3.43831
5.26385
6.62013
6.98889
6.18394
4.46482
2.42127
0.687476
-0.344136
-0.64698
-0.474611
-0.353516
-0.240234
-0.140028
-0.0547596
0.0195389
0.0877682
0.154126
0.222818
0.297254
0.38065
0.474651
0.574886
0.670023
0.747418
0.797134
0.815351
0.806036
0.78026
0.753338
0.740747
0.754086
0.793247
0.853035
0.929726
1.02126
1.12589
1.24222
1.36931
1.50676
1.65437
1.81178
1.97809
2.15142
2.32883
2.5063
2.6787
2.84034
2.98541
3.10831
3.20432
3.27065
3.30573
3.30891
3.28028
3.22059
3.13129
3.01468
2.87396
2.71323
2.53801
2.35401
2.16627
1.97912
1.79642
1.62141
1.45673
1.3045
1.16642
1.04423
0.938858
0.850651
0.781458
0.730604
0.695333
0.672555
0.65966
0.655117
0.658539
0.670156
0.689943
0.716826
0.748124
0.780735
0.811441
0.837753
0.858461
0.873738
0.884747
0.892983
0.899676
0.90544
0.910324
0.914212
0.917268
0.920294
0.92481
0.932812
0.946249
0.966402
0.993499
1.02681
1.06322
1.09816
1.12746
1.14865
1.16196
1.17044
1.17922
1.19405
1.21965
1.2577
1.30653
1.36354
1.42413
1.48238
1.53104
1.56298
1.57302
1.55817
1.5181
1.45545
1.37556
1.28556
1.19279
1.10296
1.01823
0.937257
0.857661
0.776181
0.68922
0.593588
0.487093
0.368881
0.239521
0.100996
-0.0441803
-0.196683
-0.250384
0
0.70303
1.92686
3.55925
5.24516
6.45229
6.6818
5.73258
3.85043
1.63947
-0.233182
-1.35532
-1.71064
-1.54359
-1.31048
-1.07989
-0.862735
-0.661407
-0.488987
-0.344378
-0.221906
-0.115964
-0.0204075
0.0695522
0.158039
0.248183
0.34122
0.436247
0.530307
0.619566
0.700657
0.771826
0.833555
0.888514
0.941018
0.996269
1.05927
1.1338
1.22342
1.33148
1.46056
1.6122
1.78656
1.98218
2.19582
2.42263
2.65663
2.89061
3.11523
3.31986
3.4945
3.63272
3.7305
3.78613
3.79973
3.77275
3.70743
3.60641
3.47259
3.30956
3.12385
2.92281
2.71282
2.49945
2.28806
2.08379
1.89113
1.71369
1.55389
1.41297
1.29101
1.18709
1.09948
1.02587
0.963646
0.910119
0.862762
0.819417
0.778471
0.738989
0.700801
0.664516
0.63144
0.603394
0.582256
0.569552
0.566181
0.572456
0.5869
0.606201
0.626475
0.644183
0.656961
0.66414
0.666794
0.667354
0.668927
0.674464
0.685843
0.703821
0.728349
0.75869
0.793519
0.831104
0.869557
0.907067
0.94225
0.974538
1.00443
1.03363
1.06504
1.10247
1.1545
1.24439
1.39632
1.57984
1.73881
1.81517
1.77671
1.63359
1.43383
1.23987
1.09901
1.01236
0.948412
0.893502
0.842992
0.793691
0.743396
0.690833
0.635347
0.576493
0.513756
0.446243
0.372791
0.292213
0.203617
0.10667
0
-0.170213
-0.192712
0.269675
1.35594
2.93117
4.5407
5.55714
5.47695
4.19968
2.10722
-0.120331
-1.84137
-2.73398
-2.84686
-2.74569
-2.653
-2.57749
-2.52442
-2.49529
-2.48868
-2.50161
-2.53083
-2.57237
-2.62245
-2.67929
-2.74098
-2.80542
-2.87043
-2.93397
-2.99443
-3.05053
-3.10127
-3.14595
-3.184
-3.21497
-3.23847
-3.25409
-3.26127
-3.25935
-3.24738
-3.22399
-3.18739
-3.13544
-3.06581
-2.97633
-2.86538
-2.73262
-2.57942
-2.40811
-2.22171
-2.0247
-1.8245
-1.6333
-1.46649
-1.33632
-1.25195
-1.2189
-1.23904
-1.31121
-1.43249
-1.59949
-1.80875
-2.05242
-2.31723
-2.59201
-2.8679
-3.13603
-3.38723
-3.61299
-3.80556
-3.95573
-4.0505
-4.08217
-4.06983
-4.0392
-4.01262
-4.00263
-4.0089
-4.01989
-4.01891
-3.99219
-3.93535
-3.86085
-3.7786
-3.69645
-3.61956
-3.5488
-3.48085
-3.40993
-3.33045
-3.23774
-3.13122
-3.02152
-2.9242
-2.85361
-2.81764
-2.81466
-2.83362
-2.85704
-2.86615
-2.84662
-2.79837
-2.72994
-2.64923
-2.56254
-2.47618
-2.39519
-2.32226
-2.25745
-2.19844
-2.14142
-2.08218
-2.01742
-1.94576
-1.86729
-1.78289
-1.69534
-1.60815
-1.52433
-1.44566
-1.37231
-1.30308
-1.23607
-1.16954
-1.10266
-1.03594
-0.971073
-0.910744
-0.858278
-0.817248
-0.790996
-0.782025
-0.791781
-0.820239
-0.865469
-0.927653
-0.99875
-1.06151
-1.09726
-1.09091
-1.03546
-0.934173
-0.799245
-0.647498
-0.494755
-0.349932
-0.212888
-0.105603
0
0.397697
1.2624
2.67345
4.46829
6.18387
7.19207
6.99841
5.53337
3.2366
0.858764
-0.896057
-1.66804
-1.52145
-0.786884
-0.0713593
0.471611
0.683975
0.665516
0.624409
0.584435
0.564233
0.572974
0.605735
0.649984
0.699545
0.750359
0.799937
0.847723
0.894922
0.943956
0.99779
1.05879
1.12881
1.20925
1.30079
1.40322
1.5156
1.63636
1.76386
1.8965
2.03331
2.17441
2.32103
2.47513
2.6387
2.81275
2.9965
3.18727
3.37926
3.56347
3.7301
3.87018
3.97676
4.04542
4.07402
4.062
4.0098
3.9188
3.79306
3.63668
3.45373
3.24915
3.02931
2.80172
2.57386
2.35261
2.14393
1.95236
1.78063
1.62957
1.4982
1.38404
1.28349
1.19231
1.10627
1.02164
0.935603
0.846426
0.753464
0.65697
0.557861
0.457504
0.357574
0.260024
0.167046
0.0809944
0.00404358
-0.0616188
-0.113341
-0.151347
-0.178391
-0.198132
-0.213983
-0.228091
-0.240928
-0.251611
-0.258718
-0.261171
-0.259354
-0.253906
-0.245611
-0.235239
-0.223309
-0.210024
-0.195385
-0.17936
-0.162077
-0.143742
-0.124612
-0.104968
-0.0850906
-0.0652718
-0.0458427
-0.0271637
-0.00956192
0.00680389
0.0221123
0.0370422
0.0528687
0.0714401
0.0950172
0.125912
0.166146
0.216962
0.278411
0.349114
0.426257
0.505978
0.583638
0.654662
0.71519
0.762531
0.7953
0.813268
0.816981
0.807282
0.78498
0.750642
0.704263
0.645335
0.573136
0.486941
0.386234
0.270616
0.138015
-0.0166046
-0.198032
-0.398225
-0.60491
-0.808157
-0.99695
-0.727643
0
1.25569
3.03935
5.12256
7.0467
8.23859
8.25209
7.00946
4.88112
2.53159
0.611752
-0.518314
-0.882195
-0.770799
-0.627276
-0.490719
-0.360483
-0.239205
-0.128102
-0.0281357
0.0595398
0.134582
0.197765
0.251196
0.298303
0.343594
0.392133
0.448864
0.517831
0.60145
0.700388
0.813467
0.937953
1.07021
1.20643
1.34347
1.47941
1.61378
1.74737
1.88176
2.01867
2.15933
2.3041
2.45237
2.60269
2.75309
2.90147
3.04594
3.18514
3.3183
3.44527
3.56611
3.68053
3.78693
3.88059
3.95269
3.98775
3.96777
3.87897
3.71768
3.49243
3.22131
2.92606
2.62599
2.3317
2.04489
1.7663
1.49731
1.23919
0.993577
0.762712
0.549629
0.358685
0.196043
0.0680637
-0.0191849
-0.0599457
-0.0508858
0.00648651
0.104568
0.236229
0.370392
0.47456
0.525604
0.518168
0.46658
0.398914
0.345408
0.326277
0.337985
0.364271
0.396194
0.425993
0.447564
0.457529
0.455352
0.442636
0.422005
0.396061
0.367067
0.336331
0.304784
0.273374
0.243245
0.215706
0.192012
0.173116
0.159324
0.150643
0.147008
0.148402
0.154976
0.166998
0.184636
0.207659
0.235227
0.265958
0.29805
0.329904
0.360699
0.390829
0.421991
0.456895
0.498643
0.549953
0.612247
0.685903
0.770621
0.863426
0.956662
1.03831
1.09627
1.12028
1.10359
1.04435
0.946628
0.820736
0.682284
0.549707
0.439913
0.360216
0.307795
0.278477
0.266858
0.265005
0.264119
0.256344
0.236475
0.202411
0.155389
0.0810035
0
0.225334
0.999525
2.40123
4.22751
5.97276
6.99592
6.81982
5.39644
3.16471
0.846906
-0.899704
-1.76768
-1.86222
-1.57209
-1.33665
-1.13681
-0.987669
-0.897034
-0.835469
-0.792401
-0.76267
-0.740025
-0.717994
-0.690922
-0.654885
-0.608184
-0.551916
-0.488136
-0.418637
-0.344628
-0.2662
-0.182122
-0.0900395
0.0130476
0.130212
0.264123
0.416729
0.589305
0.782543
0.996598
1.23104
1.48465
1.75517
2.03911
2.33175
2.6275
2.92041
3.20489
3.47634
3.73097
3.96466
4.17235
4.34842
4.4884
4.59008
4.65032
4.66391
4.62515
4.52963
4.37583
4.16662
3.91044
3.62149
3.31941
3.02178
2.73905
2.47501
2.23151
2.01077
1.81321
1.63772
1.48208
1.34337
1.21845
1.10433
0.998497
0.899154
0.805334
0.716866
0.634172
0.558085
0.489615
0.429737
0.379257
0.338743
0.3085
0.288542
0.278559
0.2778
0.285218
0.299483
0.319066
0.342458
0.368327
0.395571
0.423219
0.449916
0.473132
0.489653
0.495988
0.489738
0.471095
0.443597
0.413568
0.38824
0.373312
0.370841
0.377161
0.388176
0.400015
0.409264
0.413803
0.41316
0.408358
0.401387
0.394584
0.390035
0.389235
0.393363
0.403459
0.420483
0.445392
0.479181
0.523038
0.578811
0.64985
0.740156
0.845771
0.947265
1.01964
1.03855
0.98817
0.867644
0.693485
0.496571
0.31428
0.179007
0.089254
0.0292347
0
-0.0127522
-0.0214867
-0.0411644
-0.0830273
-0.1523
-0.247681
-0.362434
-0.490494
-0.458096
-0.147827
0.546705
1.72188
3.29838
4.92363
6.04408
6.15852
5.10956
3.20883
1.09592
-0.586259
-1.48838
-1.64658
-1.35773
-1.13238
-0.940271
-0.79764
-0.709529
-0.649439
-0.603573
-0.567289
-0.536922
-0.509509
-0.482903
-0.455763
-0.427343
-0.397295
-0.365509
-0.331887
-0.29633
-0.258503
-0.217686
-0.172715
-0.122043
-0.0639526
0.00317688
0.0806309
0.169267
0.269106
0.380286
0.503173
0.638236
0.785952
0.946564
1.11977
1.3044
1.4983
1.69823
1.90019
2.09862
2.28599
2.45435
2.59669
2.70723
2.78171
2.81725
2.81202
2.76524
2.67732
2.5502
2.38768
2.19539
1.98037
1.75088
1.51495
1.27858
1.04589
0.820509
0.605668
0.40426
0.21879
0.0512299
-0.0971539
-0.225969
-0.335759
-0.427896
-0.504239
-0.566992
-0.618227
-0.659495
-0.691491
-0.714382
-0.728007
-0.732223
-0.726488
-0.712132
-0.692507
-0.671903
-0.654691
-0.644357
-0.64273
-0.649607
-0.662803
-0.678568
-0.692316
-0.699825
-0.697715
-0.683706
-0.657013
-0.618477
-0.56934
-0.512673
-0.452774
-0.393604
-0.337938
-0.286906
-0.240062
-0.195943
-0.15291
-0.109922
-0.0670055
-0.0251633
0.0139114
0.04823
0.0758728
0.0951717
0.10438
0.102856
0.0907352
0.0691685
0.0403259
0.00787392
-0.0233181
-0.0479893
-0.0613056
-0.0596134
-0.0408939
-0.00485954
0.0472744
0.113175
0.18909
0.271407
0.357061
0.442746
0.524707
0.598125
0.657438
0.698101
0.716204
0.709019
0.675487
0.616415
0.534333
0.433141
0.317859
0.195118
0.0721756
-0.0428455
-0.140827
-0.212926
-0.252548
-0.240931
-0.178551
-0.094817
-0.0260094
0
-0.0228577
-0.0790855
-0.427845
-0.292888
0.591018
2.2245
4.27735
6.15907
7.23675
7.11079
5.80281
3.7407
1.55018
-0.218304
-1.27739
-1.63153
-1.428
-1.15063
-0.89652
-0.69675
-0.557683
-0.448711
-0.348026
-0.250295
-0.154581
-0.0618416
0.0255322
0.104383
0.171573
0.224772
0.263126
0.287646
0.301294
0.308774
0.316058
0.329729
0.355867
0.399013
0.461902
0.545716
0.649495
0.770318
0.903914
1.04555
1.19101
1.33741
1.48371
1.63073
1.78073
1.93683
2.10221
2.27932
2.47124
2.68285
2.91495
3.15295
3.36926
3.53718
3.63695
3.65916
3.60547
3.48676
3.31894
3.11752
2.89374
2.65771
2.41716
2.177
1.94079
1.71216
1.49477
1.29176
1.10527
0.936291
0.784637
0.649213
0.528367
0.420292
0.323358
0.236327
0.158473
0.0899006
0.0315575
-0.0157196
-0.0511509
-0.0742264
-0.085051
-0.084576
-0.0746338
-0.0577595
-0.0368534
-0.0147938
0.00598907
0.0237415
0.03731
0.0461914
0.0505028
0.0509006
0.0484528
0.0444691
0.0403122
0.0372177
0.0361603
0.0377834
0.0425243
0.0506611
0.0623665
0.0777206
0.0966686
0.118936
0.143951
0.170796
0.198223
0.224768
0.248919
0.269374
0.285261
0.296276
0.302743
0.305557
0.306016
0.305582
0.305597
0.30704
0.310341
0.315357
0.321521
0.327969
0.333752
0.338022
0.340147
0.339739
0.336598
0.330629
0.321797
0.310151
0.296022
0.280259
0.264482
0.251625
0.245781
0.2516
0.27347
0.314537
0.375864
0.455983
0.550944
0.655576
0.762263
0.861044
0.941806
0.99665
1.02033
1.01085
0.969811
0.902404
0.816582
0.721463
0.625279
0.533302
0.44675
0.364805
0.286996
0.213749
0.146439
0.0877293
0.0414829
0.0114838
0
0.00608597
0.0271294
0.0624481
0.20798
0.578157
1.36287
2.66173
4.35058
6.0379
7.17426
7.29478
6.26833
4.39209
2.2576
0.461961
-0.655666
-1.09911
-1.0531
-0.931441
-0.812295
-0.702
-0.605906
-0.527543
-0.46655
-0.421487
-0.388707
-0.363014
-0.338684
-0.310554
-0.274929
-0.23081
-0.178749
-0.119777
-0.055294
0.0130676
0.0837002
0.155209
0.226502
0.296984
0.366793
0.436965
0.509488
0.587137
0.673074
0.770302
0.881096
1.00652
1.14594
1.29809
1.46128
1.63346
1.81244
1.99589
2.18118
2.36495
2.5415
2.70404
2.84535
2.95869
3.03858
3.08119
3.08401
3.04526
2.96346
2.83767
2.67298
2.47417
2.24602
1.996
1.73386
1.47052
1.2156
0.976656
0.759509
0.567514
0.401622
0.260818
0.142803
0.0447472
-0.036034
-0.101636
-0.153415
-0.192122
-0.217727
-0.229004
-0.225625
-0.213029
-0.199759
-0.194281
-0.202208
-0.224247
-0.255954
-0.289497
-0.316697
-0.33196
-0.336068
-0.332361
-0.322681
-0.308807
-0.291748
-0.271424
-0.246835
-0.216611
-0.179722
-0.136437
-0.0875961
-0.0354778
0.0159122
0.0623772
0.10066
0.129272
0.148762
0.161363
0.170121
0.177845
0.18625
0.195494
0.204721
0.212556
0.217492
0.218231
0.213847
0.203762
0.187645
0.165402
0.137248
0.103643
0.0654861
0.0242729
-0.0171661
-0.0551693
-0.0858673
-0.105782
-0.112324
-0.104065
-0.0807652
-0.0432541
0.0067009
0.0663525
0.1334
0.202733
0.266898
0.318272
0.350628
0.360655
0.348825
0.319159
0.277957
0.231968
0.186743
0.145262
0.108289
0.0759975
0.048856
0.0273151
0.0117462
0.00244408
-0.000829315
0
0.00878449
0.0133671
0.00905914
-0.00787239
-0.03937
-0.0851662
-0.142866
-0.237959
-0.254531
0.120518
1.10085
2.70419
4.63651
6.33037
7.16351
6.76174
5.21294
3.04857
0.985541
-0.422006
-1.01041
-0.989217
-0.836585
-0.701227
-0.578561
-0.472128
-0.383533
-0.308758
-0.245701
-0.192715
-0.147564
-0.107653
-0.0703293
-0.0332207
0.00546913
0.0467197
0.0906765
0.136896
0.184544
0.232645
0.280376
0.327351
0.373851
0.420939
0.470453
0.524882
0.58711
0.660089
0.746484
0.848296
0.966677
1.10191
1.25338
1.41963
1.5985
1.78723
1.98269
2.18142
2.37983
2.5739
2.75869
2.92808
3.07491
3.19239
3.27474
3.31635
3.31231
3.25918
3.1558
3.00397
2.80876
2.57835
2.32443
2.05996
1.79506
1.53691
1.29181
1.06498
0.860273
0.680102
0.525354
0.395464
0.288715
0.202428
0.132899
0.0762253
0.0288151
-0.0121567
-0.0484722
-0.0808025
-0.108865
-0.131712
-0.148079
-0.156649
-0.15616
-0.145468
-0.12356
-0.0896225
-0.0421032
0.0228809
0.109444
0.208617
0.299849
0.360009
0.371716
0.330949
0.250056
0.154192
0.0724743
0.0276711
0.0173271
0.0279217
0.0538776
0.090395
0.131821
0.173223
0.211134
0.243837
0.271153
0.293832
0.312793
0.32845
0.340371
0.347517
0.34875
0.343573
0.33272
0.318316
0.303518
0.291721
0.285606
0.286639
0.294118
0.305667
0.318056
0.328297
0.334711
0.337673
0.339851
0.345854
0.361202
0.390633
0.437267
0.50267
0.589195
0.689842
0.792012
0.882214
0.949296
0.986654
0.992767
0.97016
0.923505
0.857776
0.778858
0.691417
0.598709
0.503573
0.409062
0.318565
0.235617
0.163338
0.104217
0.0604324
0.0316593
0.01478
0.00561543
0
-0.000216293
-0.00344391
-0.114875
0.105499
0.888243
2.29206
4.10949
5.87042
6.98468
6.98592
5.76501
3.65496
1.2973
-0.64523
-1.76719
-2.03787
-1.7065
-1.42235
-1.18431
-1.00709
-0.893486
-0.813377
-0.755627
-0.710841
-0.67104
-0.630954
-0.588661
-0.543873
-0.497034
-0.448823
-0.399811
-0.350394
-0.300868
-0.25147
-0.202269
-0.152913
-0.102359
-0.0487751
0.0102627
0.0772631
0.154168
0.241712
0.338792
0.443563
0.554091
0.668618
0.786259
0.907429
1.03389
1.16838
1.3139
1.47284
1.64614
1.83433
2.03625
2.24467
2.44724
2.62996
2.77903
2.88371
2.93728
2.93532
2.8754
2.75777
2.58661
2.37094
2.12417
1.86207
1.59996
1.3466
1.10543
0.880323
0.674668
0.491251
0.332323
0.199736
0.0969681
0.0308128
0.00443401
0.00607109
0.0198822
0.0300783
0.0249819
-0.000168991
-0.0427244
-0.0945517
-0.145534
-0.187218
-0.217771
-0.238993
-0.251981
-0.257793
-0.257125
-0.249866
-0.235098
-0.211547
-0.178308
-0.135536
-0.0845689
-0.028476
0.0288234
0.0833667
0.131866
0.172095
0.20289
0.223701
0.234769
0.236874
0.2315
0.221078
0.209023
0.199369
0.196004
0.201702
0.21768
0.242906
0.273696
0.305364
0.333629
0.355696
0.370643
0.379005
0.38188
0.380022
0.373529
0.361904
0.344929
0.323523
0.3002
0.278813
0.263586
0.25781
0.262722
0.276769
0.296818
0.318821
0.339072
0.355265
0.36707
0.37614
0.385645
0.399371
0.420562
0.451946
0.495716
0.554012
0.628788
0.722269
0.837054
0.972556
1.11571
1.2424
1.32471
1.33644
1.26213
1.10588
0.894576
0.672429
0.486944
0.362343
0.280198
0.221589
0.180698
0.152209
0.130496
0.110555
0.0887265
0.0630672
0.033322
0
-0.0425282
0.146109
0.679822
1.65813
3.08214
4.77783
6.37174
7.37376
7.36896
6.23372
4.24305
1.98105
0.0851853
-1.03398
-1.3362
-1.0694
-0.830618
-0.617553
-0.44896
-0.334665
-0.255324
-0.195714
-0.150624
-0.113979
-0.079704
-0.0426548
0.000571728
0.0511105
0.10842
0.169165
0.22907
0.284321
0.332743
0.374396
0.411446
0.447407
0.486118
0.530698
0.58237
0.641527
0.708328
0.782669
0.864432
0.953742
1.05111
1.15746
1.27404
1.40223
1.5433
1.69822
1.86738
2.05076
2.25024
2.47182
2.72397
3.00008
3.26564
3.47907
3.60174
3.6108
3.50761
3.3161
3.07038
2.7981
2.51095
2.21691
1.92411
1.63745
1.36087
1.09886
0.855983
0.635674
0.439801
0.268454
0.120075
-0.00813141
-0.1196
-0.217761
-0.305461
-0.384569
-0.455731
-0.518144
-0.57008
-0.609863
-0.636145
-0.648504
-0.647754
-0.635773
-0.615666
-0.590817
-0.564229
-0.538078
-0.513632
-0.491475
-0.471965
-0.455365
-0.441965
-0.43188
-0.424716
-0.419369
-0.414082
-0.406819
-0.395815
-0.380208
-0.360435
-0.337549
-0.313063
-0.288825
-0.266646
-0.247811
-0.232845
-0.221466
-0.212768
-0.205594
-0.199011
-0.192775
-0.187764
-0.185829
-0.188834
-0.197308
-0.209345
-0.220336
-0.223874
-0.211849
-0.169658
-0.102161
-0.029047
0.0247298
0.0398377
0.0107284
-0.0526758
-0.129765
-0.197418
-0.237698
-0.252755
-0.250106
-0.234188
-0.207844
-0.174148
-0.136442
-0.0972364
-0.0576211
-0.0169146
0.027364
0.0791593
0.151627
0.295315
0.573415
0.917404
1.21953
1.3853
1.3753
1.21583
0.97638
0.73322
0.541439
0.410507
0.310054
0.225499
0.15271
0.0918463
0.0450202
0.0140147
0
0.00543079
0.0284806
0.0657883
0.109276
0.150613
0.183701
0.206482
0.218683
-0.0151156
0.0829759
0.82032
2.29767
4.27743
6.19413
7.36063
7.28733
5.93971
3.77051
1.49773
-0.238962
-1.1408
-1.29365
-1.03229
-0.824103
-0.637652
-0.482536
-0.364681
-0.284851
-0.237977
-0.213599
-0.197516
-0.174505
-0.131614
-0.0616687
0.0323369
0.146292
0.27124
0.393173
0.498463
0.576889
0.623613
0.639815
0.632098
0.611037
0.589323
0.579841
0.592146
0.631101
0.698843
0.797073
0.927671
1.0921
1.29082
1.52304
1.78647
2.07805
2.40765
2.76855
3.11602
3.40253
3.5942
3.6835
3.69074
3.65216
3.60061
3.54948
3.49113
3.41814
3.32109
3.19427
3.03732
2.85467
2.65364
2.44195
2.22686
2.01201
1.79975
1.59205
1.39081
1.19818
1.01666
0.84886
0.697268
0.563841
0.449668
0.354698
0.277631
0.216196
0.167146
0.12557
0.0858787
0.0431298
-0.00625134
-0.0658571
-0.130885
-0.187059
-0.217269
-0.208091
-0.155414
-0.0667026
0.0412144
0.148016
0.237019
0.305905
0.358109
0.398685
0.435155
0.475239
0.528752
0.597873
0.668087
0.717937
0.729269
0.696498
0.630551
0.555282
0.497682
0.476345
0.486148
0.514533
0.550036
0.580345
0.595875
0.592125
0.570215
0.535703
0.496246
0.459018
0.427813
0.403014
0.38354
0.368151
0.355592
0.345133
0.337032
0.332679
0.334401
0.344975
0.366955
0.401446
0.448405
0.506813
0.574864
0.647285
0.716465
0.774818
0.816126
0.836433
0.834287
0.810307
0.766407
0.705066
0.629882
0.545106
0.45437
0.361273
0.270325
0.186859
0.115856
0.0610327
0.0240013
0.00386736
-0.00256435
0
0.00385731
0.00737487
0.00796206
-0.00114226
-0.0641445
0.195314
0.983723
2.37486
4.18201
5.92683
6.9863
6.87923
5.53483
3.36493
1.07628
-0.667573
-1.53255
-1.59177
-1.25842
-0.965648
-0.734691
-0.579567
-0.49719
-0.441324
-0.396565
-0.357207
-0.318859
-0.278934
-0.236605
-0.193455
-0.152442
-0.116319
-0.0862781
-0.0611471
-0.037404
-0.0100054
0.0262613
0.0753606
0.137717
0.211368
0.293917
0.382663
0.47487
0.568459
0.662585
0.757957
0.856845
0.962763
1.07988
1.21226
1.36303
1.53368
1.72361
1.93
2.14913
2.37476
2.59896
2.81397
3.01146
3.18003
3.30624
3.38629
3.41387
3.38031
3.27853
3.10858
2.88116
2.61699
2.3416
2.07802
1.83282
1.60327
1.38956
1.19192
1.01005
0.843661
0.692909
0.558455
0.441358
0.342755
0.263463
0.203608
0.16245
0.138557
0.129819
0.132471
0.140022
0.145226
0.14224
0.127967
0.102891
0.0710271
0.0388716
0.013637
0.00133672
0.00416994
0.020594
0.0496064
0.0892903
0.13747
0.191826
0.250665
0.312356
0.37511
0.436745
0.494785
0.5467
0.590213
0.623549
0.645534
0.655194
0.652488
0.637977
0.612977
0.579766
0.541677
0.502928
0.468103
0.441354
0.42578
0.424571
0.437206
0.457287
0.476889
0.489256
0.491047
0.483255
0.47051
0.459096
0.454636
0.460157
0.474601
0.496401
0.525109
0.560826
0.604485
0.658697
0.730076
0.828999
0.958742
1.09826
1.2164
1.2835
1.28077
1.2061
1.07473
0.914633
0.757659
0.629841
0.533904
0.459548
0.399065
0.348411
0.304832
0.265543
0.227796
0.189188
0.1479
0.102841
0.053704
0
-0.0720696
0.0306265
0.498272
1.47106
2.96857
4.79431
6.50927
7.54572
7.44809
6.121
3.92236
1.51938
-0.418457
-1.50513
-1.74269
-1.36127
-0.906291
-0.485643
-0.197895
-0.074853
-0.00797825
0.0449476
0.091606
0.133815
0.172332
0.207982
0.241732
0.274696
0.308066
0.342963
0.380281
0.420604
0.464227
0.511309
0.562081
0.617027
0.676944
0.742861
0.815847
0.896797
0.986227
1.08415
1.1905
1.30516
1.42805
1.55924
1.69894
1.84752
2.00545
2.17317
2.35107
2.54049
2.74596
2.9744
3.22417
3.47046
3.67865
3.81721
3.86659
3.82395
3.70279
3.5274
3.32289
3.10407
2.87351
2.63278
2.38584
2.13659
1.88901
1.64802
1.41911
1.20756
1.0176
0.851767
0.710513
0.592496
0.495068
0.414928
0.348724
0.293471
0.246733
0.206743
0.172058
0.141639
0.114859
0.0915603
0.0720896
0.057259
0.048169
0.0459219
0.0512854
0.0643054
0.0843017
0.109969
0.139221
0.168953
0.195757
0.216857
0.230731
0.23749
0.23886
0.237757
0.237547
0.241236
0.25071
0.266212
0.28754
0.314299
0.345932
0.381863
0.421453
0.463839
0.507807
0.551359
0.591954
0.626975
0.65427
0.672638
0.68206
0.683613
0.679095
0.67049
0.659513
0.64729
0.634301
0.620605
0.606138
0.590998
0.575687
0.56125
0.549357
0.542299
0.542865
0.553899
0.577939
0.61676
0.670892
0.740137
0.82405
0.916703
1.00771
1.08625
1.14338
1.17381
1.17667
1.15501
1.11456
1.06197
1.00368
0.944472
0.887006
0.832704
0.782243
0.735676
0.692399
0.651027
0.608835
0.56179
0.505357
0.435433
0.349408
0.246991
0.130499
0.00285863
-0.163021
0
0.566625
1.59498
3.06485
4.80219
6.42749
7.42474
7.35193
6.09323
3.97513
1.63659
-0.280555
-1.42054
-1.79986
-1.56521
-1.25441
-0.94168
-0.670885
-0.489594
-0.393098
-0.336688
-0.304063
-0.286619
-0.274715
-0.259366
-0.233792
-0.196289
-0.147536
-0.088706
-0.0216235
0.0513818
0.127938
0.206004
0.284095
0.361378
0.437662
0.513344
0.589352
0.667105
0.748495
0.835845
0.931814
1.0392
1.16063
1.29817
1.45282
1.62416
1.81007
2.00675
2.209
2.41081
2.60606
2.78941
2.95689
3.10614
3.23507
3.33898
3.41254
3.45357
3.45805
3.42122
3.33955
3.21257
3.04373
2.84001
2.61054
2.36585
2.11552
1.86496
1.61809
1.37823
1.1483
0.93119
0.729919
0.548404
0.391588
0.26323
0.16644
0.102998
0.0819843
0.116471
0.205229
0.319084
0.423828
0.490732
0.503419
0.461118
0.377737
0.277025
0.185061
0.122374
0.0905442
0.0805605
0.085024
0.0996657
0.121523
0.148036
0.176953
0.206422
0.235471
0.263995
0.292575
0.322116
0.35335
0.386463
0.420411
0.452669
0.480073
0.499839
0.510483
0.512221
0.506708
0.496326
0.483386
0.469731
0.456432
0.444239
0.433816
0.425795
0.420696
0.41876
0.419826
0.423409
0.428902
0.435882
0.444384
0.455025
0.468931
0.487502
0.512123
0.543688
0.582678
0.629542
0.68476
0.749018
0.823861
0.913625
1.0297
1.18707
1.36536
1.52077
1.59636
1.54435
1.35245
1.05754
0.735971
0.472077
0.319402
0.225536
0.154512
0.0996601
0.0576826
0.0269346
0.00736647
0
0.00731378
0.0281647
0.0612653
0.103771
0.151787
0.20594
0.191178
0.521997
1.48068
3.12784
5.17293
7.01405
7.96968
7.60364
5.9639
3.58326
1.22618
-0.469363
-1.24796
-1.26195
-1.01162
-0.78479
-0.59748
-0.45465
-0.35259
-0.268775
-0.197077
-0.135768
-0.0833464
-0.0379908
0.00292904
0.0429483
0.0860593
0.13582
0.19433
0.26123
0.334685
0.409812
0.479378
0.536507
0.576782
0.599816
0.61
0.616244
0.630651
0.66636
0.735054
0.842255
0.985231
1.15914
1.36057
1.58677
1.83485
2.10218
2.38664
2.69406
3.05667
3.52424
4.02888
4.4628
4.73433
4.80216
4.68622
4.45175
4.1777
3.92687
3.72627
3.54272
3.35767
3.16751
2.9716
2.76992
2.56312
2.35255
2.14013
1.92795
1.71809
1.51248
1.31305
1.1219
0.941544
0.775111
0.626335
0.498528
0.394364
0.315335
0.261348
0.230711
0.220015
0.224673
0.23967
0.259656
0.278726
0.291752
0.295502
0.289177
0.274654
0.256241
0.239829
0.231543
0.236217
0.255827
0.288244
0.330729
0.379052
0.428371
0.474251
0.512943
0.542079
0.56075
0.569503
0.57021
0.565808
0.559893
0.556162
0.55779
0.566723
0.583166
0.606593
0.634878
0.665025
0.694172
0.720409
0.743341
0.764252
0.785847
0.811647
0.84522
0.889023
0.943947
1.01112
1.09102
1.18054
1.27108
1.3519
1.41268
1.44529
1.44512
1.41169
1.34854
1.26261
1.1632
1.06078
0.963393
0.875742
0.799501
0.733906
0.677284
0.626894
0.579112
0.530074
0.476318
0.41531
0.345744
0.267365
0.181613
0.090998
-0.00226865
0
0.269268
0.970938
2.23576
3.96669
5.75568
6.99651
7.17089
6.13706
4.22532
2.06927
0.285684
86
236
382
524
662
800
935
1072
1214
1353
1501
1654
1805
1955
2113
2284
2447
2609
2778
2949
3109
3267
3431
3592
3745
3741
0
0
0
0
0
0
0
0
0
0
0
0
0
0
0
0
0
0
0
0
0
0
0
0
0
0
0
0
0
0
0
0
0
0
0
0
0
0
0
0
0
0
0
0
0
0
0
0
0
0
0
0
0
0
0
0
0
0
0
0
0
0
0
0
0
0
0
0
0
0
0
0
0
0
0
0
0
0
0
0
0
0
0
0
0
0
0
0
0
0
0
0
0
0
0
0
0
0
0
0
0
0
0
0
0
0
0
0
0
0
0
0
0
0
0
0
0
0
0
0
0
0
0
0
0
0
0
0
0
0
0
0
0
0
0
0
0
0
0
0
0
0
0
0
0
0
0
0
0
0
0
0
0
0
0
0
0
0
0
0
0
0
0
0
0
0
0
0
0
0
0
0
0
0
0
0
0
0
0
0
0
0
0
0
0
0
0
0
0
0
0
0
0
0
0
0
0
0
0
0
0
0
0
0
0
0
0
0
0
0
0
0
0
0
0
0
0
0
0
0
0
0
0
0
0
0
0
0
0
0
0
0
0
0
0
0
0
0
0
0
0
0
0
0
0
0
0
0
0
0
0
0
0
0
0
0
0
0
0
0
0
0
0
0
0
0
0
0
0
0
0
0
0
0
0
0
0
0
0
0
0
0
0
0
0
0
0
0
0
0
0
0
0
0
0
0
0
0
0
0
0
0
0
0
0
0
0
0
0
0
0
0
0
0
0
0
0
0
0
0
0
0
0
0
0
0
0
0
0
0
0
0
0
0
0
0
0
0
0
0
0
0
0
0
0
0
0
0
0
0
0
0
0
0
0
0
0
0
0
0
0
0
0
0
0
0
0
0
0
0
0
0
0
0
0
0
0
0
0
0
0
0
0
0
0
0
0
0
0
0
0
0
0
0
0
0
0
0
0
0
0
0
0
0
0
0
0
0
0
0
0
0
0
0
0
0
0
0
0
0
0
0
0
0
0
0
0
0
0
0
0
0
0
0
0
0
0
0
0
0
0
0
0
0
0
0
0
0
0
0
0
0
0
0
0
0
0
0
0
0
0
0
0
0
0
0
0
0
0
0
0
0
0
0
0
0
0
0
0
0
0
0
0
0
0
0
0
0
0
0
0
0
0
0
0
0
0
0
0
0
0
0
0
0
0
0
0
0
0
0
0
0
0
0
0
0
0
0
0
0
0
0
0
0
0
0
0
0
0
0
0
0
0
0
0
0
0
0
0
0
0
0
0
0
0
0
0
0
0
0
0
0
0
0
0
0
0
0
0
0
0
0
0
0
0
0
0
0
0
0
0
0
0
0
0
0
0
0
0
0
0
0
0
0
0
0
0
0
0
0
0
0
0
0
0
0
0
0
0
0
0
0
0
0
0
0
0
0
0
0
0
0
0
0
0
0
0
0
0
0
0
0
0
0
0
0
0
0
0
0
0
0
0
0
0
0
0
0
0
0
0
0
0
0
0
0
0
0
0
0
0
0
0
0
0
0
0
0
0
0
0
0
0
0
0
0
0
0
0
0
0
0
0
0
0
0
0
0
0
0
0
0
0
0
0
0
0
0
0
0
0
0
0
0
0
0
0
0
0
0
0
0
0
0
0
0
0
0
0
0
0
0
0
0
0
0
0
0
0
0
0
0
0
0
0
0
0
0
0
0
0
0
0
0
0
0
0
0
0
0
0
0
0
0
0
0
0
0
0
0
0
0
0
0
0
0
0
0
0
0
0
0
0
0
0
0
0
0
0
0
0
0
0
0
0
0
0
0
0
0
0
0
0
0
0
0
0
0
0
0
0
0
0
0
0
0
0
0
0
0
0
0
0
0
0
0
0
0
0
0
0
0
0
0
0
0
0
0
0
0
0
0
0
0
0
0
0
0
0
0
0
0
0
0
0
0
0
0
0
0
0
0
0
0
0
0
0
0
0
0
0
0
0
0
0
0
0
0
0
0
0
0
0
0
0
0
0
0
0
0
0
0
0
0
0
0
0
0
0
0
0
0
0
0
0
0
0
0
0
0
0
0
0
0
0
0
0
0
0
0
0
0
0
0
0
0
0
0
0
0
0
0
0
0
0
0
0
0
0
0
0
0
0
0
0
0
0
0
0
0
0
0
0
0
0
0
0
0
0
0
0
0
0
0
0
0
0
0
0
0
0
0
0
0
0
0
0
0
0
0
0
0
0
0
0
0
0
0
0
0
0
0
0
0
0
0
0
0
0
0
0
0
0
0
0
0
0
0
0
0
0
0
0
0
0
0
0
0
0
0
0
0
0
0
0
0
0
0
0
0
0
0
0
0
0
0
0
0
0
0
0
0
0
0
0
0
0
0
0
0
0
0
0
0
0
0
0
0
0
0
0
0
0
0
0
0
0
0
0
0
0
0
0
0
0
0
0
0
0
0
0
0
0
0
0
0
0
0
0
0
0
0
0
0
0
0
0
0
0
0
0
0
0
0
0
0
0
0
0
0
0
0
0
0
0
0
0
0
0
0
0
0
0
0
0
0
0
0
0
0
0
0
0
0
0
0
0
0
0
0
0
0
0
0
0
0
0
0
0
0
0
0
0
0
0
0
0
0
0
0
0
0
0
0
0
0
0
0
0
0
0
0
0
0
0
0
0
0
0
0
0
0
0
0
0
0
0
0
0
0
0
0
0
0
0
0
0
0
0
0
0
0
0
0
0
0
0
0
0
0
0
0
0
0
0
0
0
0
0
0
0
0
0
0
0
0
0
0
0
0
0
0
0
0
0
0
0
0
0
0
0
0
0
0
0
0
0
0
0
0
0
0
0
0
0
0
0
0
0
0
0
0
0
0
0
0
0
0
0
0
0
0
0
0
0
0
0
0
0
0
0
0
0
0
0
0
0
0
0
0
0
0
0
0
0
0
0
0
0
0
0
0
0
0
0
0
0
0
0
0
0
0
0
0
0
0
0
0
0
0
0
0
0
0
0
0
0
0
0
0
0
0
0
0
0
0
0
0
0
0
0
0
0
0
0
0
0
0
0
0
0
0
0
0
0
0
0
0
0
0
0
0
0
0
0
0
0
0
0
0
0
0
0
0
0
0
0
0
0
0
0
0
0
0
0
0
0
0
0
0
0
0
0
0
0
0
0
0
0
0
0
0
0
0
0
0
0
0
0
0
0
0
0
0
0
0
0
0
0
0
0
0
0
0
0
0
0
0
0
0
0
0
0
0
0
0
0
0
0
0
0
0
0
0
0
0
0
0
0
0
0
0
0
0
0
0
0
0
0
0
0
0
0
0
0
0
0
0
0
0
0
0
0
0
0
0
0
0
0
0
0
0
0
0
0
0
0
0
0
0
0
0
0
0
0
0
0
0
0
0
0
0
0
0
0
0
0
0
0
0
0
0
0
0
0
0
0
0
0
0
0
0
0
0
0
0
0
0
0
0
0
0
0
0
0
0
0
0
0
0
0
0
0
0
0
0
0
0
0
0
0
0
0
0
0
0
0
0
0
0
0
0
0
0
0
0
0
0
0
0
0
0
0
0
0
0
0
0
0
0
0
0
0
0
0
0
0
0
0
0
0
0
0
0
0
0
0
0
0
0
0
0
0
0
0
0
0
0
0
0
0
0
0
0
0
0
0
0
0
0
0
0
0
0
0
0
0
0
0
0
0
0
0
0
0
0
0
0
0
0
0
0
0
0
0
0
0
0
0
0
0
0
0
0
0
0
0
0
0
0
0
0
0
0
0
0
0
0
0
0
0
0
0
0
0
0
0
0
0
0
0
0
0
0
0
0
0
0
0
0
0
0
0
0
0
0
0
0
0
0
0
0
0
0
0
0
0
0
0
0
0
0
0
0
0
0
0
0
0
0
0
0
0
0
0
0
0
0
0
0
0
0
0
0
0
0
0
0
0
0
0
0
0
0
0
0
0
0
0
0
0
0
0
0
0
0
0
0
0
0
0
0
0
0
0
0
0
0
0
0
0
0
0
0
0
0
0
0
0
0
0
0
0
0
0
0
0
0
0
0
0
0
0
0
0
0
0
0
0
0
0
0
0
0
0
0
0
0
0
0
0
0
0
0
0
0
0
0
0
0
0
0
0
0
0
0
0
0
0
0
0
0
0
0
0
0
0
0
0
0
0
0
0
0
0
0
0
0
0
0
0
0
0
0
0
0
0
0
0
0
0
0
0
0
0
0
0
0
0
0
0
0
0
0
0
0
0
0
0
0
0
0
0
0
0
0
0
0
0
0
0
0
0
0
0
0
0
0
0
0
0
0
0
0
0
0
0
0
0
0
0
0
0
0
0
0
0
0
0
0
0
0
0
0
0
0
0
0
0
0
0
0
0
0
0
0
0
0
0
0
0
0
0
0
0
0
0
0
0
0
0
0
0
0
0
0
0
0
0
0
0
0
0
0
0
0
0
0
0
0
0
0
0
0
0
0
0
0
0
0
0
0
0
0
0
0
0
0
0
0
0
0
0
0
0
0
0
0
0
0
0
0
0
0
0
0
0
0
0
0
0
0
0
0
0
0
0
0
0
0
0
0
0
0
0
0
0
0
0
0
0
0
0
0
0
0
0
0
0
0
0
0
0
0
0
0
0
0
0
0
0
0
0
0
0
0
0
0
0
0
0
0
0
0
0
0
0
0
0
0
0
0
0
0
0
0
0
0
0
0
0
0
0
0
0
0
0
0
0
0
0
0
0
0
0
0
0
0
0
0
0
0
0
0
0
0
0
0
0
0
0
0
0
0
0
0
0
0
0
0
0
0
0
0
0
0
0
0
0
0
0
0
0
0
0
0
0
0
0
0
0
0
0
0
0
0
0
0
0
0
0
0
0
0
0
0
0
0
0
0
0
0
0
0
0
0
0
0
0
0
0
0
0
0
0
0
0
0
0
0
0
0
0
0
0
0
0
0
0
0
0
0
0
0
0
0
0
0
0
0
0
0
0
0
0
0
0
0
0
0
0
0
0
0
0
0
0
0
0
0
0
0
0
0
0
0
0
0
0
0
0
0
0
0
0
0
0
0
0
0
0
0
0
0
0
0
0
0
0
0
0
0
0
0
0
0
0
0
0
0
0
0
0
0
0
0
0
0
0
0
0
0
0
0
0
0
0
0
0
0
0
0
0
0
0
0
0
0
0
0
0
0
0
0
0
0
0
0
0
0
0
0
0
0
0
0
0
0
0
0
0
0
0
0
0
0
0
0
0
0
0
0
0
0
0
0
0
0
0
0
0
0
0
0
0
0
0
0
0
0
0
0
0
0
0
0
0
0
0
0
0
0
0
0
0
0
0
0
0
0
0
0
0
0
0
0
0
0
0
0
0
0
0
0
0
0
0
0
0
0
0
0
0
0
0
0
0
0
0
0
0
0
0
0
0
0
0
0
0
0
0
0
0
0
0
0
0
0
0
0
0
0
0
0
0
0
0
0
0
0
0
0
0
0
0
0
0
0
0
0
0
0
0
0
0
0
0
0
0
0
0
0
0
0
0
0
0
0
0
0
0
0
0
0
0
0
0
0
0
0
0
0
0
0
0
0
0
0
0
0
0
0
0
0
0
0
0
0
0
0
0
0
0
0
0
0
0
0
0
0
0
0
0
0
0
0
0
0
0
0
0
0
0
0
0
0
0
0
0
0
0
0
0
0
0
0
0
0
0
0
0
0
0
0
0
0
0
0
0
0
0
0
0
0
0
0
0
0
0
0
0
0
0
0
0
0
0
0
0
0
0
0
0
0
0
0
0
0
0
0
0
0
0
0
0
0
0
0
0
0
0
0
0
0
0
0
0
0
0
0
0
0
0
0
0
0
0
0
0
0
0
0
0
0
0
0
0
0
0
0
0
0
0
0
0
0
0
0
0
0
0
0
0
0
0
0
0
0
0
0
0
0
0
0
0
0
0
0
0
0
0
0
0
0
0
0
0
0
0
0
0
0
0
0
0
0
0
0
0
0
0
0
0
0
0
0
0
0
0
0
0
0
0
0
0
0
0
0
0
0
0
0
0
0
0
0
0
0
0
0
0
0
0
0
0
0
0
0
0
0
0
0
0
0
0
0
0
0
0
0
0
0
0
0
0
0
0
0
0
0
0
0
0
0
0
0
0
0
0
0
0
0
0
0
0
0
0
0
0
0
0
0
0
0
0
0
0
0
0
0
0
0
0
0
0
0
0
0
0
0
0
0
0
0
0
0
0
0
0
0
0
0
0
0
0
0
0
0
0
0
0
0
0
0
0
0
0
0
0
0
0
0
0
0
0
0
0
0
0
0
0
0
0
0
0
0
0
0
0
0
0
0
0
0
0
0
0
0
0
0
0
0
0
0
0
0
0
0
0
0
0
0
0
0
0
0
0
0
0
0
0
0
0
0
0
0
0
0
0
0
0
0
0
0
0
0
0
0
0
0
0
0
0
0
0
0
0
0
0
0
0
0
0
0
0
0
0
0
0
0
0
0
0
0
0
0
0
0
0
0
0
0
0
0
0
0
0
0
0
0
0
0
0
0
0
0
0
0
0
0
0
0
0
0
0
0
0
0
0
0
0
0
0
0
0
0
0
0
0
0
0
0
0
0
0
0
0
0
0
0
0
0
0
0
0
0
0
0
0
0
0
0
0
0
0
0
0
0
0
0
0
0
0
0
0
0
0
0
0
0
0
0
0
0
0
0
0
0
0
0
0
0
0
0
0
0
0
0
0
0
0
0
0
0
0
0
0
0
0
0
0
0
0
0
0
0
0
0
0
0
0
0
0
0
0
0
0
0
0
0
0
0
0
0
0
0
0
0
0
0
0
0
0
0
0
0
0
0
0
0
0
0
0
0
0
0
0
0
0
0
0
0
0
0
0
0
0
0
0
0
0
0
0
0
0
0
0
0
0
0
0
0
0
0
0
0
0
0
0
0
0
0
0
0
0
0
0
0
0
0
0
0
0
0
0
0
0
0
0
0
0
0
0
0
0
0
0
0
0
0
0
0
0
0
0
0
0
0
0
0
0
0
0
0
0
0
0
0
0
0
0
0
0
0
0
0
0
0
0
0
0
0
0
0
0
0
0
0
0
0
0
0
0
0
0
0
0
0
0
0
0
0
0
0
0
0
0
0
0
0
0
0
0
0
0
0
0
0
0
0
0
0
0
0
0
0
0
0
0
0
0
0
0
0
0
0
0
0
0
0
0
0
0
0
0
0
0
0
0
0
0
0
0
0
0
0
0
0
0
0
0
0
0
0
0
0
0
0
0
0
0
0
0
0
0
0
0
0
0
0
0
0
0
0
0
0
0
0
0
0
0
0
0
0
0
0
0
0
0
0
0
0
0
0
0
0
0
0
0
0
0
0
0
0
0
0
0
0
0
0
0
0
0
0
0
0
0
0
0
0
0
0
0
0
0
0
0
0
0
0
0
0
0
0
0
0
0
0
0
0
0
0
0
0
0
0
0
0
0
0
0
0
0
0
0
0
0
0
0
0
0
0
0
0
0
0
0
0
0
0
0
0
0
0
0
0
0
0
0
0
0
0
0
0
0
0
0
0
0
0
0
0
0
0
0
0
0
0
0
0
0
0
0
0
0
0
0
0
0
0
0
0
0
0
0
0
0
0
0
0
0
0
0
0
0
0
0
0
0
0
0
0
0
0
0
0
0
0
0
0
0
0
0
0
0
0
0
0
0
0
0
0
0
0
0
0
0
0
0
0
0
0
0
0
0
0
0
0
0
0
0
0
0
0
0
0
0
0
0
0
0
0
0
0
0
0
0
0
0
0
0
0
0
0
0
0
0
0
0
0
0
0
0
0
0
0
0
0
0
0
0
0
0
0
0
0
0
0
0
0
0
0
0
0
0
0
0
0
0
0
0
0
0
0
0
0
0
0
0
0
0
0
0
0
0
0
0
0
0
0
0
0
0
0
0
0
0
0
0
0
0
0
0
0
0
0
0
0
0
0
0
0
0
0
0
0
0
0
0
0
0
0
0
0
0
0
0
0
0
0
0
0
0
0
0
0
0
0
0
0
0
0
0
0
0
0
0
0
0
0
0
0
0
0
0
0
0
0
0
0
0
0
0
0
0
0
0
0
0
0
0
0
0
0
0
0
0
0
0
0
0
0
0
0
0
0
0
0
0
0
0
0
0
0
0
0
0
0
0
0
0
0
0
0
0
0
0
0
0
0
0
0
0
0
0
0
0
0
0
0
0
0
0
0
0
0
0
0
0
0
0
0
0
0
0
0
0
0
0
0
0
0
0
0
0
0
0
0
0
0
0
0
0
0
0
0
0
0
0
0
0
0
0
0
0
0
0
0
0
0
0
0
0
0
0
0
0
0
0
0
0
0
0
0
0
0
0
0
0
0
0
0
0
0
0
0
0
0
0
0
0
0
0
0
0
0
0
0
0
0
0
0
0
0
0
0
0
0
0
0
0
0
0
0
0
0
0
