0.587778
0.694809
0.806988
0.926488
1.05607
1.19845
1.3555
1.5277
1.71343
1.90975
2.11326
2.3202
2.52663
2.72598
2.90686
3.06025
3.17601
3.24494
3.2622
3.22959
3.15464
3.04689
2.91369
2.75875
2.58949
2.41158
2.22848
2.04338
1.85993
1.68198
1.51308
1.35598
1.21243
1.08319
0.968327
0.867556
0.780787
0.707914
0.648942
0.603901
0.572856
0.554669
0.547146
0.547311
0.551673
0.556627
0.558444
0.55416
0.542035
0.521867
0.495131
0.464837
0.43506
0.41018
0.393984
0.388455
0.394047
0.409782
0.433463
0.462316
0.493629
0.525343
0.556325
0.586133
0.614814
0.642658
0.669951
0.696796
0.723024
0.748171
0.771493
0.792138
0.80947
0.823246
0.833816
0.842204
0.850018
0.85918
0.871537
0.88848
0.910546
0.937423
0.968539
1.00323
1.04092
1.08133
1.12453
1.17082
1.22066
1.27429
1.33093
1.3873
1.43753
1.47458
1.49153
1.48298
1.44596
1.38043
1.28923
1.17774
1.05334
0.925286
0.801242
0.686523
0.584919
0.500393
0.438397
0.40435
0.394236
0.395776
0.395638
0.383417
0.354434
0.310157
0.0707771
0
0.422778
1.52901
3.27968
5.32137
7.0543
7.85797
7.3798
5.72689
3.43807
1.23861
-0.287929
-0.927946
-0.853755
-0.529487
-0.282729
-0.0887721
0.0471881
0.14071
0.218943
0.287886
0.34872
0.402092
0.448396
0.487917
0.520981
0.548037
0.569696
0.58673
0.600054
0.610758
0.620153
0.629772
0.641363
0.656834
0.677996
0.706348
0.742855
0.787829
0.840968
0.90157
0.968834
1.04215
1.12123
1.20618
1.29728
1.39472
1.49841
1.60777
1.72188
1.83968
1.96008
2.08184
2.20263
2.31783
2.42053
2.50212
2.55334
2.566
2.53449
2.45662
2.33375
2.17063
1.97484
1.75792
1.5314
1.30366
1.07964
0.862637
0.655616
0.460677
0.278959
0.110665
-0.0447661
-0.188342
-0.321117
-0.443795
-0.556446
-0.658436
-0.74863
-0.825796
-0.888637
-0.936196
-0.969084
-0.990005
-1.0025
-1.01018
-1.01597
-1.0215
-1.02683
-1.0306
-1.03041
-1.02354
-1.00799
-0.982771
-0.947888
-0.903533
-0.851474
-0.79645
-0.744608
-0.701766
-0.672211
-0.657879
-0.658165
-0.67035
-0.69048
-0.71437
-0.738415
-0.760422
-0.779292
-0.794405
-0.805418
-0.812193
-0.814662
-0.812745
-0.80631
-0.795163
-0.779058
-0.757707
-0.730793
-0.697944
-0.658714
-0.612556
-0.558818
-0.496793
-0.425776
-0.345071
-0.25415
-0.152753
-0.0409621
0.0810544
0.213869
0.358884
0.517896
0.69021
0.86559
1.02481
1.1456
1.20541
1.18735
1.08783
0.922064
0.724001
0.538743
0.407462
0.32533
0.269413
0.227106
0.19415
0.167192
0.143229
0.119934
0.0957745
0.0699593
0.0422645
0.0128795
-0.0178396
-0.0500005
-0.114569
0
0.526639
1.62541
3.27095
5.16634
6.78727
7.57035
7.16933
5.63964
3.4346
1.20464
-0.488934
-1.38683
-1.56853
-1.37849
-1.2382
-1.11424
-1.00911
-0.921433
-0.844989
-0.77257
-0.696236
-0.60915
-0.507921
-0.393167
-0.267332
-0.133653
0.00404596
0.141733
0.275661
0.402187
0.517271
0.618594
0.705575
0.779106
0.841768
0.897898
0.953304
1.01461
1.08831
1.17988
1.2909
1.42093
1.56978
1.73667
1.91994
2.11721
2.32555
2.54165
2.76194
2.98269
3.20009
3.40941
3.60345
3.7746
3.91751
4.02776
4.10228
4.13953
4.13921
4.10163
4.02714
3.91594
3.7712
3.59915
3.40494
3.19296
2.968
2.73578
2.50226
2.27322
2.05396
1.84898
1.66176
1.49468
1.34898
1.22488
1.12167
1.03794
0.97178
0.920973
0.88331
0.856525
0.838392
0.826865
0.82004
0.816068
0.813044
0.808768
0.800619
0.786141
0.763485
0.731995
0.692654
0.648158
0.602502
0.560163
0.525095
0.498911
0.48243
0.475218
0.475378
0.480259
0.487289
0.494535
0.501
0.506587
0.511785
0.51721
0.523161
0.529359
0.534904
0.538572
0.539286
0.536594
0.530999
0.524003
0.517863
0.515112
0.517786
0.526799
0.542327
0.564146
0.590812
0.619756
0.648558
0.675762
0.701511
0.727793
0.758174
0.802043
0.885042
1.02372
1.18625
1.32126
1.38209
1.34754
1.22873
1.06003
0.881691
0.725662
0.601312
0.499275
0.413191
0.341315
0.284076
0.241899
0.213681
0.195622
0.182667
0.169622
0.152085
0.127193
0.093977
0.053249
-0.0195366
0
0.334915
1.19405
2.65897
4.538
6.33598
7.41972
7.32092
6.0004
3.89738
1.71764
0.0903559
-0.696347
-0.742534
-0.396451
-0.216026
-0.0649899
0.0428894
0.106787
0.153572
0.190894
0.223277
0.253944
0.284542
0.315402
0.346178
0.376572
0.406836
0.43789
0.471052
0.507557
0.548119
0.592468
0.639898
0.689774
0.741738
0.795981
0.853398
0.915561
0.984521
1.06253
1.15171
1.25381
1.37
1.50066
1.6453
1.80241
1.96943
2.14281
2.31822
2.49084
2.65576
2.80844
2.94483
3.06127
3.15435
3.22142
3.26116
3.27227
3.25341
3.20337
3.12158
3.0086
2.86659
2.69956
2.51321
2.31499
2.11215
1.91084
1.7163
1.53263
1.36272
1.20829
1.0701
0.948229
0.842264
0.751438
0.674761
0.611186
0.559327
0.517465
0.483988
0.457594
0.437473
0.42322
0.414708
0.411802
0.414217
0.421268
0.431645
0.443948
0.457112
0.470785
0.485493
0.50252
0.523533
0.550097
0.583028
0.622096
0.666401
0.714538
0.764501
0.813527
0.858604
0.896955
0.926394
0.945632
0.95453
0.954245
0.947211
0.936926
0.927485
0.922755
0.925841
0.938446
0.960495
0.990306
1.02476
1.06028
1.09367
1.12284
1.14699
1.16643
1.18204
1.19472
1.20495
1.21254
1.2168
1.21693
1.21237
1.20318
1.19025
1.17534
1.1609
1.14974
1.14445
1.14748
1.16233
1.19129
1.22928
1.26483
1.2848
1.27792
1.23781
1.1644
1.06352
0.94511
0.821057
0.7023
0.59421
0.498723
0.417105
0.350549
0.299805
0.263425
0.23632
0.212681
0.187317
0.156863
0.120453
0.0775492
-0.097147
0
0.619379
1.92292
3.7975
5.79905
7.26832
7.61839
6.64671
4.6724
2.3903
0.519048
-0.535288
-0.79769
-0.585959
-0.413153
-0.255252
-0.113999
0.00697002
0.112668
0.205981
0.288342
0.360293
0.42163
0.473105
0.515152
0.548555
0.575067
0.597643
0.620103
0.646299
0.679102
0.719608
0.766099
0.816307
0.868023
0.9193
0.968985
1.01712
1.0651
1.11553
1.17191
1.23807
1.31767
1.41361
1.52768
1.66035
1.81079
1.9771
2.15668
2.34658
2.54382
2.74588
2.95068
3.15495
3.35205
3.53081
3.67875
3.78385
3.83622
3.82934
3.75976
3.62686
3.4337
3.18907
2.90876
2.61553
2.3274
2.05178
1.78958
1.5418
1.31091
1.09851
0.90537
0.73152
0.576386
0.439001
0.31836
0.213837
0.124759
0.0504133
-0.00983038
-0.0567482
-0.0915016
-0.115797
-0.131892
-0.142294
-0.149793
-0.15686
-0.165293
-0.175991
-0.188917
-0.203238
-0.217575
-0.230279
-0.239691
-0.244381
-0.243039
-0.234462
-0.217735
-0.192393
-0.158614
-0.117365
-0.0704348
-0.0202568
0.0303797
0.0788049
0.122926
0.161552
0.194494
0.222417
0.246479
0.267885
0.28744
0.30519
0.320353
0.331533
0.337052
0.335452
0.325918
0.30854
0.284347
0.255151
0.223258
0.191128
0.160879
0.134097
0.111805
0.0945197
0.0821578
0.0738936
0.0687694
0.0661003
0.0657929
0.0684754
0.0754156
0.0882807
0.108848
0.138472
0.177862
0.227767
0.288564
0.35993
0.442436
0.536051
0.632573
0.719412
0.783858
0.816724
0.814908
0.781676
0.724682
0.652833
0.573617
0.492536
0.412197
0.334191
0.260214
0.192355
0.132603
0.0825238
0.0439179
0.0176616
0
-0.014385
-0.0328287
-0.0607922
-0.101117
-0.153331
-0.226088
-0.231958
0.100617
0.943436
2.36361
4.20114
6.02787
7.25908
7.40086
6.30521
4.2761
1.94806
-0.00282087
-1.1479
-1.43813
-1.1243
-0.613497
-0.163045
0.140645
0.220882
0.226407
0.217466
0.201625
0.187016
0.1807
0.187066
0.205447
0.23219
0.26415
0.298417
0.332582
0.365272
0.39633
0.426671
0.457908
0.491944
0.530533
0.575095
0.627041
0.687732
0.758428
0.840229
0.933958
1.04006
1.15854
1.28896
1.43074
1.58324
1.74586
1.91803
2.09907
2.28804
2.48348
2.68327
2.88467
3.08331
3.2721
3.44183
3.58383
3.69167
3.76081
3.78878
3.77498
3.72042
3.6274
3.49932
3.34069
3.1584
2.96153
2.75883
2.55723
2.36228
2.17916
2.01227
1.86468
1.73789
1.63139
1.54288
1.4688
1.40497
1.34733
1.29253
1.23838
1.18405
1.13034
1.07984
1.03654
1.00475
0.988471
0.990648
1.01266
1.05395
1.11188
1.18198
1.25844
1.335
1.40633
1.46933
1.5222
1.56471
1.59821
1.62505
1.64791
1.66899
1.6894
1.70887
1.72588
1.73835
1.74472
1.74462
1.73927
1.73122
1.72373
1.72004
1.72207
1.73041
1.74506
1.76582
1.79173
1.8205
1.8486
1.87261
1.8901
1.90043
1.90511
1.90743
1.91158
1.9213
1.93866
1.96308
1.99245
2.02359
2.05349
2.08041
2.10442
2.12726
2.15153
2.17944
2.21245
2.2488
2.28184
2.30207
2.29966
2.26708
2.20123
2.10436
1.98373
1.84989
1.71408
1.58454
1.46364
1.35102
1.24582
1.14583
1.04775
0.947813
0.842346
0.728355
0.603924
0.468249
0.321609
0.166409
0
-0.10339
0.12154
0.879024
2.2546
4.08251
5.91655
7.16409
7.3452
6.338
4.45671
2.30612
0.498655
-0.597755
-0.948487
-0.767255
-0.496274
-0.257733
-0.0766268
0.0344721
0.0997025
0.138151
0.153401
0.149774
0.132348
0.107282
0.081429
0.062233
0.0568625
0.0710126
0.107709
0.166432
0.24412
0.335716
0.435568
0.538615
0.641899
0.744366
0.846286
0.948905
1.05399
1.16337
1.27863
1.40086
1.53062
1.66795
1.81236
1.96292
2.11833
2.27703
2.43741
2.598
2.75759
2.91531
3.07046
3.22183
3.36654
3.49999
3.61655
3.7093
3.77121
3.79602
3.77853
3.71447
3.60064
3.4361
3.22773
2.98859
2.73141
2.46897
2.21451
1.9798
1.78317
1.62726
1.50487
1.40359
1.31104
1.21931
1.12677
1.03676
0.954457
0.883551
0.821216
0.766441
0.717746
0.67392
0.634576
0.60023
0.571976
0.550978
0.537105
0.530598
0.531318
0.538864
0.552558
0.571713
0.595773
0.624167
0.656187
0.690945
0.727365
0.764243
0.800312
0.834304
0.864963
0.891034
0.911288
0.924598
0.930009
0.926837
0.914833
0.894349
0.866439
0.832842
0.795837
0.757996
0.721877
0.689683
0.663111
0.643496
0.631775
0.628578
0.634318
0.649201
0.673164
0.705766
0.746023
0.792378
0.8427
0.893942
0.942766
0.985919
1.02056
1.04445
1.05598
1.05411
1.03818
1.00787
0.963201
0.904546
0.832803
0.74959
0.657361
0.559438
0.459844
0.36269
0.272037
0.191248
0.122565
0.0685539
0.0297148
0
-0.0366516
-0.0798442
-0.134709
-0.202295
-0.287807
-0.48125
-0.285752
0.506076
1.92632
3.75543
5.53702
6.71086
6.83895
5.82419
3.98952
1.94517
0.30257
-0.598052
-0.788303
-0.562226
-0.483393
-0.41771
-0.361592
-0.316355
-0.28022
-0.251132
-0.22618
-0.202199
-0.176388
-0.146734
-0.112151
-0.0725544
-0.0287683
0.0177008
0.0649836
0.111209
0.154848
0.194987
0.231483
0.26497
0.296742
0.328544
0.362351
0.400185
0.444016
0.495747
0.557262
0.630445
0.71711
0.818833
0.936671
1.07088
1.22066
1.3841
1.55829
1.73955
1.92384
2.10704
2.28418
2.44859
2.59268
2.71014
2.79603
2.84527
2.85287
2.81458
2.72787
2.59318
2.41522
2.2035
1.97206
1.73663
1.50938
1.2955
1.09604
0.912517
0.744845
0.591695
0.45108
0.320979
0.199853
0.0869368
-0.0177217
-0.113464
-0.199365
-0.274554
-0.338531
-0.391493
-0.434475
-0.468921
-0.49623
-0.517354
-0.532559
-0.541424
-0.543068
-0.536569
-0.521404
-0.497956
-0.467499
-0.431865
-0.393226
-0.35381
-0.315532
-0.279745
-0.247155
-0.217904
-0.191784
-0.168516
-0.148036
-0.130565
-0.116523
-0.106456
-0.100753
-0.0993723
-0.101623
-0.106091
-0.110719
-0.113057
-0.110628
-0.101485
-0.0844051
-0.0589489
-0.0255657
0.0144997
0.0595154
0.107759
0.157885
0.209208
0.261806
0.316473
0.37468
0.43872
0.511154
0.589932
0.663407
0.715577
0.730818
0.699269
0.620995
0.507257
0.378148
0.257132
0.16394
0.0984272
0.0517239
0.0205975
0
-0.020089
-0.0442665
-0.0791271
-0.129275
-0.196642
-0.280301
-0.376747
-0.481448
-0.636412
-0.580219
-0.0816677
1.02665
2.69386
4.56314
6.04397
6.55193
5.80428
3.99454
1.72489
-0.278697
-1.505
-1.85389
-1.59385
-1.27376
-1.01924
-0.865271
-0.807015
-0.780288
-0.76235
-0.748532
-0.736122
-0.722747
-0.706455
-0.685833
-0.660152
-0.62949
-0.594726
-0.557359
-0.519366
-0.48262
-0.448416
-0.417103
-0.387931
-0.359106
-0.328046
-0.291721
-0.247169
-0.191882
-0.123627
-0.0405983
0.0584568
0.174308
0.307392
0.457998
0.626407
0.812919
1.01765
1.24014
1.47887
1.73142
1.99608
2.26173
2.50974
2.72182
2.88424
2.99024
3.03978
3.0374
2.98929
2.90098
2.77639
2.62227
2.44462
2.24901
2.04136
1.82778
1.61388
1.40456
1.20426
1.01653
0.843791
0.687235
0.546967
0.422195
0.311471
0.212928
0.124527
0.0440067
-0.0309395
-0.102314
-0.171533
-0.239179
-0.304864
-0.367285
-0.424538
-0.474536
-0.515506
-0.5464
-0.567124
-0.57856
-0.582399
-0.580835
-0.576275
-0.570948
-0.566762
-0.565248
-0.567575
-0.574615
-0.587019
-0.605239
-0.629503
-0.659739
-0.695468
-0.735744
-0.779118
-0.823294
-0.864729
-0.898805
-0.92086
-0.926735
-0.913576
-0.880529
-0.82908
-0.762855
-0.686848
-0.606259
-0.525312
-0.446165
-0.36913
-0.293741
-0.218906
-0.143325
-0.0658524
0.0143303
0.097926
0.185511
0.274422
0.354918
0.412925
0.433876
0.409003
0.340958
0.24512
0.145168
0.0647625
0.019165
-0.00233727
-0.00991478
-0.00800972
-0.0021946
0.00201721
0
-0.0129101
-0.0367474
-0.0713844
-0.115313
-0.166105
-0.256198
-0.238424
0.126972
1.02806
2.47356
4.18268
5.6224
6.21815
5.6438
4.01836
1.87125
-0.116875
-1.43963
-1.95917
-1.87237
-1.60231
-1.36788
-1.19635
-1.09853
-1.05093
-1.02001
-0.996283
-0.975728
-0.955055
-0.931413
-0.902537
-0.86682
-0.82342
-0.772346
-0.714487
-0.651546
-0.585828
-0.519932
-0.456319
-0.396809
-0.342167
-0.291858
-0.244043
-0.195785
-0.143459
-0.0832443
-0.0115974
0.0742893
0.176414
0.296057
0.433892
0.590112
0.764494
0.956303
1.16403
1.38504
1.61528
1.84918
2.07956
2.29774
2.49534
2.66527
2.8026
2.90476
2.9713
3.00304
3.0016
2.96871
2.906
2.81523
2.69858
2.55907
2.4008
2.22896
2.05019
1.87081
1.69678
1.5337
1.38633
1.25825
1.15195
1.06858
1.00694
0.962961
0.931286
0.906392
0.883444
0.85892
0.830911
0.799112
0.764565
0.729264
0.695644
0.665926
0.64186
0.624673
0.615247
0.613691
0.618201
0.62478
0.628946
0.626885
0.616547
0.598309
0.574941
0.550839
0.53072
0.518172
0.514764
0.520081
0.530813
0.54292
0.553355
0.561302
0.56842
0.578061
0.59387
0.61845
0.651591
0.691576
0.73737
0.788081
0.842944
0.901328
0.962816
1.02601
1.08759
1.14271
1.1858
1.21172
1.2168
1.19935
1.15968
1.09959
1.02179
0.929894
0.828333
0.721392
0.612859
0.506201
0.404834
0.312093
0.230871
0.163286
0.110422
0.0722851
0.0479549
0.0354568
0.0318062
0.0336857
0.0377808
0.0409031
0
-0.00167847
0.359452
1.33254
2.93202
4.81796
6.37609
6.99451
6.38718
4.76082
2.71149
0.913782
-0.197749
-0.565702
-0.419065
-0.218077
-0.0323521
0.126222
0.250774
0.346548
0.417271
0.468621
0.507235
0.539258
0.569463
0.600718
0.634462
0.671579
0.712627
0.757958
0.807695
0.861622
0.919047
0.978885
1.0401
1.10182
1.16349
1.22513
1.28734
1.35139
1.41903
1.49231
1.57335
1.6641
1.76608
1.88025
2.00675
2.14506
2.29403
2.45189
2.6162
2.78417
2.95212
3.1153
3.26815
3.4046
3.51902
3.60725
3.6661
3.69332
3.68752
3.64805
3.57485
3.4685
3.33041
3.16439
2.97718
2.7756
2.56537
2.35201
2.14123
1.93845
1.74823
1.5739
1.41739
1.27924
1.15883
1.05466
0.964639
0.8864
0.817428
0.754965
0.69651
0.640142
0.584828
0.530609
0.478558
0.430482
0.388434
0.354375
0.329638
0.314361
0.307899
0.309243
0.317488
0.33217
0.35334
0.381362
0.416541
0.45856
0.506523
0.558775
0.612963
0.666202
0.714959
0.755675
0.785537
0.802759
0.806913
0.799102
0.781895
0.758995
0.734717
0.713419
0.698431
0.691695
0.69511
0.710196
0.739067
0.785844
0.854006
0.936173
1.01688
1.07944
1.11104
1.10678
1.07045
1.0116
0.940663
0.864926
0.787875
0.710752
0.634435
0.560193
0.489695
0.424708
0.367048
0.317569
0.275228
0.237695
0.201905
0.16479
0.12394
0.0779027
0
0.00309038
0.329409
1.14439
2.47085
4.07737
5.48885
6.16802
5.78911
4.43576
2.58034
0.844115
-0.311163
-0.767819
-0.717692
-0.547573
-0.388053
-0.244642
-0.121897
-0.0200663
0.0674436
0.143275
0.207834
0.261835
0.3066
0.343886
0.375563
0.403265
0.428023
0.450461
0.470875
0.489671
0.507807
0.527045
0.549876
0.57913
0.617396
0.666415
0.726167
0.79583
0.874371
0.960683
1.05394
1.15393
1.26117
1.37676
1.50206
1.63823
1.78575
1.94414
2.11173
2.28567
2.46215
2.63562
2.79583
2.93299
3.03842
3.10617
3.134
3.1235
3.07885
3.00489
2.90535
2.7827
2.64208
2.48634
2.31635
2.13299
1.93815
1.73481
1.52705
1.31959
1.11764
0.926805
0.752152
0.59762
0.465795
0.35948
0.277418
0.215831
0.170031
0.135556
0.109111
0.0890439
0.0752276
0.068424
0.0693826
0.0775514
0.0919604
0.109928
0.127511
0.140644
0.146078
0.142067
0.128617
0.107286
0.0807014
0.0519848
0.0241804
-0.000403214
-0.0197456
-0.0322859
-0.0370018
-0.0334667
-0.0219614
-0.00322647
0.0216623
0.0514734
0.0850603
0.121646
0.16097
0.203355
0.249643
0.301013
0.358691
0.423781
0.49811
0.584002
0.678766
0.769291
0.839147
0.873615
0.864616
0.813622
0.731094
0.632588
0.5334
0.444361
0.366603
0.297644
0.236134
0.181776
0.134315
0.0934776
0.0585882
0.028182
0
-0.0296423
-0.0617067
-0.0975788
-0.137563
-0.181877
-0.339334
-0.319619
0.157596
1.27658
2.95661
4.77727
6.10552
6.39112
5.46439
3.64553
1.58494
-0.0703739
-0.975712
-1.17987
-0.986337
-0.83923
-0.702743
-0.585797
-0.494108
-0.421057
-0.361475
-0.313571
-0.275471
-0.244902
-0.219413
-0.196583
-0.174172
-0.150238
-0.123198
-0.0918493
-0.0554182
-0.0135475
0.0337286
0.0858551
0.141097
0.195433
0.243274
0.279451
0.301025
0.309085
0.309811
0.314216
0.33631
0.390001
0.485648
0.621096
0.787232
0.976171
1.18188
1.39811
1.61839
1.83618
2.04244
2.22724
2.38411
2.50819
2.59636
2.64735
2.66147
2.64
2.5846
2.49711
2.38113
2.24243
2.08586
1.91547
1.73537
1.54976
1.3621
1.17489
0.990323
0.81052
0.637608
0.473721
0.320882
0.18081
0.0547195
-0.0568026
-0.153749
-0.236552
-0.305784
-0.361871
-0.405087
-0.435788
-0.454114
-0.460162
-0.454284
-0.437376
-0.411065
-0.377731
-0.340363
-0.302245
-0.266483
-0.235694
-0.211708
-0.195373
-0.186491
-0.18389
-0.18558
-0.188992
-0.191288
-0.189724
-0.18194
-0.166289
-0.142068
-0.109587
-0.0700453
-0.0252138
0.0229668
0.072761
0.122846
0.172338
0.220508
0.266368
0.308572
0.345616
0.376059
0.39917
0.415543
0.427394
0.438405
0.453108
0.476043
0.510401
0.557212
0.620208
0.705319
0.817719
0.947112
1.06823
1.15227
1.17425
1.12241
1.00492
0.849315
0.69342
0.57134
0.490358
0.432826
0.387277
0.349054
0.314569
0.280477
0.244096
0.203681
0.158523
0.108883
0.0558346
0
-0.0358934
0.112327
0.668332
1.81863
3.53375
5.45995
6.99334
7.53875
6.81881
5.041
2.80773
0.819457
-0.446824
-0.899063
-0.76758
-0.520638
-0.299718
-0.124627
-0.00466518
0.0754637
0.138077
0.190344
0.236125
0.279001
0.321906
0.36686
0.414827
0.465749
0.518678
0.57199
0.623411
0.670114
0.709791
0.740971
0.763469
0.778688
0.789649
0.800678
0.816813
0.843078
0.883721
0.94015
1.01331
1.10488
1.21608
1.34738
1.49883
1.6698
1.85859
2.06228
2.27765
2.50019
2.72353
2.93994
3.13981
3.31133
3.44571
3.53839
3.58217
3.56856
3.4924
3.35648
3.17306
2.96069
2.73807
2.518
2.30343
2.0943
1.8917
1.69687
1.5112
1.33626
1.17362
1.02474
0.890722
0.77217
0.669131
0.581072
0.506954
0.445353
0.394628
0.353128
0.319404
0.292471
0.272049
0.258341
0.251782
0.252959
0.262268
0.279622
0.304294
0.334938
0.369763
0.406786
0.444076
0.48001
0.513213
0.54284
0.568559
0.590571
0.609546
0.626458
0.64229
0.657659
0.672447
0.685523
0.694821
0.697762
0.691958
0.675963
0.649849
0.615412
0.575931
0.535545
0.498403
0.467597
0.444906
0.431516
0.427864
0.433989
0.44987
0.475617
0.511424
0.557313
0.612765
0.676981
0.747778
0.821266
0.892612
0.957007
1.01054
1.05086
1.07746
1.0917
1.09644
1.0954
1.09226
1.08976
1.08885
1.0884
1.08452
1.07155
1.0437
0.996906
0.930392
0.847315
0.75429
0.65991
0.572748
0.497329
0.434978
0.386691
0.351639
0.327535
0.311156
0.298964
0.287427
0.273512
0.255002
0.230633
0.200077
0.16253
0.0180509
0
0.40864
1.45413
3.14724
5.18545
6.98108
7.87184
7.4355
5.73284
3.31531
0.97312
-0.633889
-1.2491
-1.0549
-0.659978
-0.333988
-0.12203
-0.028893
0.0132902
0.0417039
0.0657813
0.0920506
0.123887
0.158671
0.189955
0.211002
0.217954
0.211722
0.197963
0.185232
0.182139
0.194723
0.222389
0.261322
0.308921
0.363953
0.425541
0.493367
0.567636
0.648862
0.737631
0.834256
0.938941
1.05191
1.17338
1.30363
1.44301
1.59176
1.74989
1.917
2.0921
2.27356
2.45941
2.64704
2.83239
3.0086
3.1653
3.29308
3.38387
3.43037
3.42744
3.37345
3.2708
3.125
2.94313
2.73283
2.50601
2.27298
2.03991
1.81105
1.5903
1.38116
1.18634
1.0077
0.846268
0.702384
0.575917
0.466426
0.373314
0.29616
0.234068
0.184911
0.146006
0.114294
0.0866297
0.0601361
0.0325273
0.00236239
-0.0307961
-0.0663066
-0.102597
-0.136786
-0.165234
-0.184226
-0.190699
-0.182892
-0.160741
-0.125871
-0.0811931
-0.0302458
0.0234956
0.0771519
0.128905
0.177428
0.221313
0.259251
0.290197
0.313242
0.327832
0.33401
0.332562
0.325021
0.313511
0.300507
0.288519
0.279624
0.275514
0.277527
0.286428
0.302422
0.324947
0.352717
0.383673
0.414487
0.440613
0.457901
0.463658
0.457702
0.443049
0.425926
0.414954
0.419601
0.464033
0.601821
0.826206
1.06564
1.25165
1.34592
1.34543
1.26998
1.14491
0.99164
0.829946
0.681493
0.556993
0.456963
0.377553
0.313978
0.262562
0.221012
0.187195
0.158574
0.132473
0.106514
0.078928
0.0487578
0.0159111
-0.0201336
-0.11538
0
0.546581
1.68133
3.35078
5.21528
6.71437
7.28719
6.64771
4.95302
2.75018
0.720201
-0.631716
-1.16137
-1.06094
-0.797473
-0.56993
-0.403857
-0.307437
-0.256138
-0.220418
-0.192725
-0.169128
-0.146608
-0.123193
-0.0978339
-0.0701191
-0.0401048
-0.00818846
0.0249501
0.0583854
0.0909422
0.121362
0.148512
0.171612
0.190405
0.205232
0.216999
0.2271
0.237364
0.250047
0.267958
0.294562
0.333997
0.390897
0.46995
0.575224
0.709351
0.872118
1.06082
1.2704
1.49337
1.72085
1.94097
2.14203
2.31433
2.45118
2.54909
2.60737
2.62707
2.60998
2.5578
2.47385
2.36176
2.22353
2.06205
1.88154
1.68745
1.48607
1.28373
1.08589
0.896743
0.718876
0.553314
0.39982
0.257421
0.124993
0.00175323
-0.112424
-0.21684
-0.309918
-0.390175
-0.456417
-0.508129
-0.545752
-0.570503
-0.584589
-0.590522
-0.590602
-0.586468
-0.578884
-0.567805
-0.552708
-0.533057
-0.508837
-0.480795
-0.450194
-0.419062
-0.389646
-0.363844
-0.342741
-0.326376
-0.313783
-0.303323
-0.293189
-0.281964
-0.268961
-0.254624
-0.240582
-0.229142
-0.222662
-0.222898
-0.230491
-0.244686
-0.263334
-0.28317
-0.300339
-0.311264
-0.313177
-0.304385
-0.284525
-0.254317
-0.215214
-0.169297
-0.118883
-0.0661934
-0.0128889
0.0400168
0.0922628
0.144297
0.197095
0.251999
0.310841
0.37519
0.44307
0.5074
0.558413
0.586333
0.584213
0.54999
0.487247
0.404627
0.314133
0.228522
0.156472
0.100603
0.0596877
0.0313808
0.0139394
0.0049552
0.00143385
0
0.000354671
-0.0030673
-0.0120131
-0.0272259
-0.0484397
-0.0744915
-0.110625
-0.0344696
0.334292
1.16336
2.53222
4.30087
6.05354
7.20984
7.28622
6.16517
4.19221
2.01997
0.289476
-0.652811
-0.841778
-0.568346
-0.347023
-0.157747
-0.0188405
0.0698079
0.139724
0.203665
0.265909
0.329016
0.393842
0.459622
0.52416
0.584693
0.638821
0.685241
0.724143
0.757185
0.7871
0.817083
0.850155
0.888604
0.933665
0.985885
1.04566
1.11351
1.19026
1.27718
1.37585
1.48793
1.61479
1.75709
1.91448
2.08543
2.26729
2.45661
2.64954
2.84246
3.03242
3.21753
3.39671
3.56923
3.73566
3.90212
4.06875
4.21555
4.31034
4.32459
4.24747
4.09076
3.8827
3.65436
3.42585
3.1999
2.97451
2.7492
2.52429
2.30092
2.08113
1.86779
1.66444
1.47494
1.30318
1.15309
1.02759
0.928282
0.855399
0.80765
0.783256
0.779094
0.790013
0.809559
0.831195
0.849134
0.858873
0.857575
0.844275
0.819895
0.787071
0.749737
0.71249
0.679647
0.654333
0.638442
0.632882
0.635537
0.642918
0.651212
0.657358
0.659799
0.658708
0.655654
0.652864
0.652331
0.654831
0.659978
0.666682
0.672973
0.676315
0.674382
0.665694
0.650092
0.628906
0.604712
0.580699
0.559893
0.545205
0.536535
0.531165
0.525036
0.514404
0.497329
0.474436
0.448729
0.4247
0.40719
0.39892
0.40101
0.414708
0.441404
0.482082
0.537255
0.608043
0.697975
0.813102
0.957275
1.11957
1.27402
1.39472
1.46048
1.45835
1.38579
1.25134
1.0736
0.878658
0.69578
0.541575
0.414234
0.307633
0.218419
0.145732
0.0877405
0.0414033
0.00260673
-0.0328142
-0.0684086
-0.106686
-0.14858
-0.197305
-0.258084
0
0.773315
2.14489
3.98751
5.92029
7.38959
7.87339
7.1255
5.32124
3.00391
0.848011
-0.630449
-1.25627
-1.18738
-0.773585
-0.399188
-0.115085
0.0395859
0.085975
0.105369
0.113939
0.115902
0.115356
0.115947
0.120432
0.130474
0.146822
0.169513
0.198056
0.231678
0.269576
0.311114
0.355975
0.404196
0.45612
0.512269
0.573181
0.639264
0.710692
0.787372
0.868984
0.955126
1.04553
1.14032
1.24023
1.34666
1.46169
1.58772
1.72706
1.88143
2.05144
2.23634
2.43603
2.64972
2.8696
3.07633
3.24944
3.37252
3.4358
3.43732
3.3824
3.2808
3.14257
2.97455
2.78188
2.57192
2.35043
2.12103
1.88652
1.64994
1.41496
1.18577
0.96678
0.762157
0.575374
0.409193
0.265431
0.14345
0.0413012
-0.0437294
-0.114473
-0.173321
-0.221893
-0.261002
-0.290855
-0.311461
-0.322977
-0.325593
-0.319835
-0.306595
-0.287162
-0.262873
-0.235632
-0.208263
-0.184076
-0.16611
-0.15647
-0.155714
-0.162557
-0.174044
-0.186238
-0.195229
-0.198164
-0.194521
-0.184859
-0.170945
-0.155043
-0.139148
-0.124441
-0.111175
-0.0989913
-0.0875143
-0.076994
-0.0685959
-0.0640451
-0.0645758
-0.0697723
-0.0769034
-0.0811622
-0.0768297
-0.0589554
-0.0255659
0.0206225
0.0766081
0.139367
0.205576
0.272336
0.337744
0.400943
0.461866
0.52081
0.577877
0.631985
0.679676
0.715464
0.732695
0.725305
0.689605
0.625559
0.537192
0.431987
0.319443
0.209136
0.10735
0.0162911
-0.0631106
-0.12995
-0.184299
-0.22707
-0.259697
-0.283892
-0.301454
-0.314134
-0.323551
-0.330925
-0.335663
-0.284976
0
0.717491
1.9718
3.64183
5.32882
6.46715
6.57674
5.5226
3.61445
1.47013
-0.280107
-1.26798
-1.48641
-1.17801
-0.79227
-0.464996
-0.250887
-0.175591
-0.149108
-0.139208
-0.137995
-0.138226
-0.134253
-0.123092
-0.104499
-0.0789454
-0.0469045
-0.00899596
0.034125
0.0818719
0.133739
0.189262
0.247975
0.309404
0.373095
0.438685
0.505979
0.575026
0.646149
0.71995
0.797263
0.87908
0.966474
1.06051
1.16217
1.27227
1.39144
1.52
1.65791
1.80477
1.95976
2.12179
2.29005
2.46366
2.63985
2.81075
2.96437
3.0873
3.16656
3.19198
3.15757
3.06167
2.90682
2.70039
2.45545
2.193
1.93104
1.67922
1.4407
1.21737
1.01178
0.825195
0.657637
0.50819
0.375407
0.257792
0.154247
0.0645677
-0.010354
-0.0695849
-0.112188
-0.135089
-0.13418
-0.11385
-0.0842958
-0.0568928
-0.0409709
-0.0412756
-0.0571136
-0.0833999
-0.113012
-0.139387
-0.15945
-0.173252
-0.181356
-0.183957
-0.181178
-0.172749
-0.157888
-0.135405
-0.103977
-0.0625021
-0.0104791
0.0528668
0.128225
0.21507
0.307915
0.394857
0.462281
0.497805
0.493515
0.44893
0.372494
0.280672
0.194448
0.133996
0.105728
0.103253
0.134767
0.196243
0.267574
0.327192
0.359688
0.361714
0.343829
0.327249
0.336519
0.390893
0.526376
0.731436
0.947996
1.11537
1.19532
1.1825
1.09903
0.97951
0.855853
0.749141
0.661366
0.587132
0.523074
0.467591
0.419536
0.377673
0.340155
0.304668
0.268722
0.230012
0.186589
0.137052
0.0814866
0.0210194
-0.0482061
0
0.369537
1.2577
2.73222
4.59465
6.36796
7.45732
7.42408
6.22055
4.23649
2.11809
0.463618
-0.427352
-0.618901
-0.412329
-0.24684
-0.107395
-0.00109587
0.0827459
0.161712
0.240705
0.321015
0.403283
0.487608
0.573512
0.659969
0.745616
0.828344
0.905408
0.973974
1.03158
1.07677
1.10959
1.13188
1.14721
1.16053
1.17749
1.20362
1.24321
1.29902
1.37239
1.46363
1.57247
1.6982
1.83984
1.99625
2.16617
2.34811
2.54012
2.73951
2.94277
3.14507
3.33863
3.51403
3.66312
3.77963
3.85996
3.90324
3.91074
3.88485
3.82796
3.74157
3.62685
3.4861
3.32218
3.13824
2.93786
2.72535
2.50588
2.28526
2.06939
1.86346
1.67138
1.49537
1.33597
1.19234
1.06275
0.945213
0.837897
0.739455
0.649064
0.566292
0.49087
0.422474
0.360615
0.304606
0.253825
0.208516
0.170151
0.140767
0.122998
0.119436
0.13145
0.158255
0.196645
0.241544
0.287179
0.328421
0.362854
0.389966
0.409458
0.421739
0.427562
0.427807
0.423212
0.414458
0.402265
0.387464
0.370998
0.353837
0.336851
0.320705
0.305862
0.292662
0.281484
0.272885
0.267693
0.266966
0.271842
0.283262
0.301627
0.326828
0.358135
0.394444
0.433504
0.47269
0.509754
0.543273
0.572837
0.59888
0.622224
0.643416
0.662336
0.677895
0.688165
0.690835
0.683793
0.665636
0.635979
0.595491
0.545701
0.488926
0.427382
0.362881
0.296848
0.23041
0.16457
0.100736
0.0411961
-0.011483
-0.0545559
-0.0857582
-0.103984
-0.109706
-0.104957
-0.0929253
-0.0773268
-0.0618179
-0.0759275
0
0.383655
1.25031
2.64073
4.34379
5.88497
6.69017
6.3663
4.93401
2.8504
0.79158
-0.677657
-1.34623
-1.37767
-1.22207
-1.08023
-0.959752
-0.860892
-0.780887
-0.711055
-0.648771
-0.59396
-0.546623
-0.505893
-0.469952
-0.437045
-0.405317
-0.373133
-0.339285
-0.302924
-0.26333
-0.219724
-0.171153
-0.116542
-0.0549213
0.0142858
0.0910259
0.17438
0.262959
0.355336
0.450285
0.547115
0.645956
0.747888
0.854908
0.969719
1.09534
1.23457
1.38938
1.56036
1.74626
1.94387
2.14861
2.35372
2.54892
2.72311
2.86765
2.97665
3.0469
3.07727
3.06778
3.01894
2.93143
2.80646
2.64733
2.45959
2.24941
2.0235
1.78912
1.55299
1.32026
1.09551
0.882718
0.68516
0.505378
0.345096
0.205176
0.0856288
-0.0142742
-0.0957408
-0.160113
-0.208531
-0.241747
-0.260242
-0.264298
-0.254184
-0.230601
-0.195103
-0.14982
-0.0979598
-0.044886
0.00409355
0.0448309
0.0752178
0.0955457
0.108226
0.11697
0.125688
0.137449
0.153321
0.172901
0.195167
0.218151
0.239142
0.255564
0.26562
0.26873
0.265714
0.258677
0.250592
0.244664
0.243648
0.249063
0.260682
0.277459
0.297976
0.320412
0.34272
0.363094
0.380303
0.393921
0.404416
0.413087
0.421847
0.432901
0.448368
0.469819
0.498083
0.533234
0.574562
0.620677
0.669642
0.719164
0.766724
0.809562
0.844545
0.868413
0.878616
0.873148
0.850894
0.811981
0.757974
0.691815
0.617476
0.539386
0.461779
0.387758
0.319655
0.258728
0.20522
0.158513
0.117336
0.0800239
0.044963
0.0102061
-0.025977
-0.117049
0
0.590383
1.77967
3.47804
5.35201
6.89947
7.62255
7.24051
5.83604
3.83955
1.84113
0.330769
-0.482642
-0.681352
-0.48247
-0.245106
-0.0308741
0.135344
0.241961
0.317392
0.381676
0.441822
0.501253
0.562426
0.626787
0.694675
0.765557
0.838271
0.911275
0.982905
1.05159
1.11597
1.17514
1.22887
1.27769
1.32295
1.36679
1.41202
1.46182
1.51946
1.58794
1.66963
1.76601
1.87785
2.00515
2.14713
2.30225
2.46837
2.64298
2.82341
3.00712
3.19192
3.37602
3.55745
3.73317
3.89818
4.04491
4.16368
4.24344
4.27494
4.25321
4.17854
4.05591
3.89343
3.70028
3.48683
3.26279
3.03484
2.80716
2.58294
2.36576
2.15951
1.96796
1.79449
1.6429
1.51635
1.41288
1.32849
1.25812
1.1968
1.1407
1.08768
1.03732
0.990502
0.948805
0.91322
0.885096
0.865825
0.856276
0.856845
0.867312
0.88671
0.913371
0.945228
0.979471
1.01359
1.04593
1.07608
1.1048
1.13359
1.1641
1.19759
1.23332
1.26801
1.2968
1.31471
1.31812
1.30598
1.28031
1.24593
1.20945
1.17774
1.15602
1.14641
1.14771
1.1573
1.17288
1.19189
1.21185
1.23058
1.24663
1.25945
1.26938
1.27747
1.28512
1.29373
1.30441
1.3173
1.33046
1.34044
1.34299
1.33396
1.31023
1.27024
1.21418
1.14383
1.06235
0.974263
0.883546
0.793337
0.706003
0.623054
0.545225
0.472518
0.40431
0.339601
0.277273
0.216322
0.155992
0.0958115
0.0355534
-0.0251894
0
0.313284
1.13386
2.5189
4.24311
5.81028
6.63497
6.32173
4.88962
2.79577
0.725857
-0.732022
-1.33967
-1.24757
-0.91293
-0.635965
-0.453892
-0.36131
-0.304416
-0.253188
-0.204111
-0.157909
-0.118973
-0.0933102
-0.0854609
-0.0959083
-0.120103
-0.149461
-0.173861
-0.184548
-0.178891
-0.159555
-0.129212
-0.0898507
-0.0435326
0.00767704
0.0620666
0.118546
0.176814
0.237428
0.301765
0.371873
0.450194
0.539175
0.640806
0.756156
0.885011
1.02568
1.17506
1.32886
1.48209
1.62952
1.76574
1.88584
1.98654
2.06589
2.12315
2.15851
2.17263
2.16615
2.13929
2.09167
2.02312
1.93277
1.81996
1.6849
1.52909
1.35555
1.16872
0.974396
0.778437
0.58653
0.403672
0.233713
0.0791118
-0.0590632
-0.180916
-0.287359
-0.379716
-0.459375
-0.527584
-0.585273
-0.633037
-0.67161
-0.70175
-0.724285
-0.740149
-0.750395
-0.755812
-0.75723
-0.755979
-0.75287
-0.747817
-0.739653
-0.726345
-0.70567
-0.676163
-0.63796
-0.593301
-0.545993
-0.499779
-0.458026
-0.422977
-0.395378
-0.374554
-0.358837
-0.34617
-0.334585
-0.322852
-0.310357
-0.297071
-0.283574
-0.270527
-0.258101
-0.245573
-0.231247
-0.212764
-0.187742
-0.154486
-0.11247
-0.0631394
-0.00827723
0.0508838
0.113585
0.179804
0.250762
0.330263
0.427091
0.547324
0.672598
0.772744
0.817464
0.789722
0.694551
0.558111
0.41642
0.299605
0.218663
0.159116
0.111105
0.0723111
0.0421901
0.0204229
0.00662365
0
0.00231609
0.00846663
0.0162911
0.0238817
0.0300572
0.0309081
0.0503144
0.396348
1.25319
2.66279
4.42648
6.10253
7.14479
7.14079
6.02966
4.15995
2.13479
0.527477
-0.363458
-0.579168
-0.366757
-0.0795638
0.182592
0.392809
0.531318
0.626913
0.703146
0.765479
0.819536
0.870664
0.9228
0.977704
1.03464
1.09176
1.14686
1.19813
1.24479
1.28744
1.32804
1.36942
1.41475
1.46667
1.52686
1.59592
1.67356
1.75882
1.85053
1.94775
2.05018
2.15835
2.27353
2.39741
2.53163
2.67725
2.83426
3.00135
3.17582
3.35376
3.53032
3.69941
3.85442
3.98949
4.09999
4.18235
4.23417
4.25392
4.24081
4.19472
4.11628
4.00707
3.8697
3.7079
3.5264
3.33103
3.12756
2.92063
2.71421
2.51203
2.31757
2.13408
1.96445
1.81106
1.67552
1.55838
1.4591
1.37598
1.30618
1.24626
1.19295
1.14382
1.09775
1.05508
1.01736
0.986889
0.967699
0.96461
0.976132
0.995031
1.01212
1.01964
1.01411
0.997465
0.97591
0.957351
0.948295
0.949446
0.958186
0.972543
0.988721
1.0026
1.01067
1.01075
1.00221
0.98591
0.963704
0.93786
0.910606
0.8837
0.858278
0.835213
0.815244
0.798996
0.786989
0.779628
0.77718
0.779748
0.787251
0.799454
0.815999
0.836446
0.860316
0.887112
0.91632
0.947355
0.979478
1.01167
1.04244
1.06968
1.09076
1.10284
1.10329
1.09017
1.06276
1.02192
0.970179
0.911393
0.850113
0.7907
0.73634
0.689055
0.648474
0.612429
0.577637
0.540561
0.498197
0.448586
0.391
0.32585
0.254687
0.1784
0
-0.0287086
0.422211
1.58299
3.41636
5.53631
7.31029
8.1164
7.63154
5.99546
3.75251
1.59973
0.0818588
-0.601828
-0.592263
-0.236328
-0.0391772
0.129914
0.25897
0.346192
0.412048
0.463742
0.508542
0.552012
0.596997
0.643788
0.691858
0.740366
0.788654
0.836525
0.884251
0.932404
0.981628
1.03241
1.08515
1.14026
1.19827
1.25983
1.32573
1.39683
1.47392
1.55752
1.64779
1.74448
1.84701
1.95473
2.06721
2.18455
2.30758
2.43792
2.5777
2.72908
2.89731
3.09626
3.33223
3.5741
3.78232
3.92438
3.98536
3.97028
3.89842
124
283
439
601
771
933
1089
1239
1388
1535
1679
1821
1970
2132
2291
2450
2612
2769
2922
3081
3238
3390
3541
3696
3721
0
0
0
0
0
0
0
0
0
0
0
0
0
0
0
0
0
0
0
0
0
0
0
0
0
0
0
0
0
0
0
0
0
0
0
0
0
0
0
0
0
0
0
0
0
0
0
0
0
0
0
0
0
0
0
0
0
0
0
0
0
0
0
0
0
0
0
0
0
0
0
0
0
0
0
0
0
0
0
0
0
0
0
0
0
0
0
0
0
0
0
0
0
0
0
0
0
0
0
0
0
0
0
0
0
0
0
0
0
0
0
0
0
0
0
0
0
0
0
0
0
0
0
0
0
0
0
0
0
0
0
0
0
0
0
0
0
0
0
0
0
0
0
0
0
0
0
0
0
0
0
0
0
0
0
0
0
0
0
0
0
0
0
0
0
0
0
0
0
0
0
0
0
0
0
0
0
0
0
0
0
0
0
0
0
0
0
0
0
0
0
0
0
0
0
0
0
0
0
0
0
0
0
0
0
0
0
0
0
0
0
0
0
0
0
0
0
0
0
0
0
0
0
0
0
0
0
0
0
0
0
0
0
0
0
0
0
0
0
0
0
0
0
0
0
0
0
0
0
0
0
0
0
0
0
0
0
0
0
0
0
0
0
0
0
0
0
0
0
0
0
0
0
0
0
0
0
0
0
0
0
0
0
0
0
0
0
0
0
0
0
0
0
0
0
0
0
0
0
0
0
0
0
0
0
0
0
0
0
0
0
0
0
0
0
0
0
0
0
0
0
0
0
0
0
0
0
0
0
0
0
0
0
0
0
0
0
0
0
0
0
0
0
0
0
0
0
0
0
0
0
0
0
0
0
0
0
0
0
0
0
0
0
0
0
0
0
0
0
0
0
0
0
0
0
0
0
0
0
0
0
0
0
0
0
0
0
0
0
0
0
0
0
0
0
0
0
0
0
0
0
0
0
0
0
0
0
0
0
0
0
0
0
0
0
0
0
0
0
0
0
0
0
0
0
0
0
0
0
0
0
0
0
0
0
0
0
0
0
0
0
0
0
0
0
0
0
0
0
0
0
0
0
0
0
0
0
0
0
0
0
0
0
0
0
0
0
0
0
0
0
0
0
0
0
0
0
0
0
0
0
0
0
0
0
0
0
0
0
0
0
0
0
0
0
0
0
0
0
0
0
0
0
0
0
0
0
0
0
0
0
0
0
0
0
0
0
0
0
0
0
0
0
0
0
0
0
0
0
0
0
0
0
0
0
0
0
0
0
0
0
0
0
0
0
0
0
0
0
0
0
0
0
0
0
0
0
0
0
0
0
0
0
0
0
0
0
0
0
0
0
0
0
0
0
0
0
0
0
0
0
0
0
0
0
0
0
0
0
0
0
0
0
0
0
0
0
0
0
0
0
0
0
0
0
0
0
0
0
0
0
0
0
0
0
0
0
0
0
0
0
0
0
0
0
0
0
0
0
0
0
0
0
0
0
0
0
0
0
0
0
0
0
0
0
0
0
0
0
0
0
0
0
0
0
0
0
0
0
0
0
0
0
0
0
0
0
0
0
0
0
0
0
0
0
0
0
0
0
0
0
0
0
0
0
0
0
0
0
0
0
0
0
0
0
0
0
0
0
0
0
0
0
0
0
0
0
0
0
0
0
0
0
0
0
0
0
0
0
0
0
0
0
0
0
0
0
0
0
0
0
0
0
0
0
0
0
0
0
0
0
0
0
0
0
0
0
0
0
0
0
0
0
0
0
0
0
0
0
0
0
0
0
0
0
0
0
0
0
0
0
0
0
0
0
0
0
0
0
0
0
0
0
0
0
0
0
0
0
0
0
0
0
0
0
0
0
0
0
0
0
0
0
0
0
0
0
0
0
0
0
0
0
0
0
0
0
0
0
0
0
0
0
0
0
0
0
0
0
0
0
0
0
0
0
0
0
0
0
0
0
0
0
0
0
0
0
0
0
0
0
0
0
0
0
0
0
0
0
0
0
0
0
0
0
0
0
0
0
0
0
0
0
0
0
0
0
0
0
0
0
0
0
0
0
0
0
0
0
0
0
0
0
0
0
0
0
0
0
0
0
0
0
0
0
0
0
0
0
0
0
0
0
0
0
0
0
0
0
0
0
0
0
0
0
0
0
0
0
0
0
0
0
0
0
0
0
0
0
0
0
0
0
0
0
0
0
0
0
0
0
0
0
0
0
0
0
0
0
0
0
0
0
0
0
0
0
0
0
0
0
0
0
0
0
0
0
0
0
0
0
0
0
0
0
0
0
0
0
0
0
0
0
0
0
0
0
0
0
0
0
0
0
0
0
0
0
0
0
0
0
0
0
0
0
0
0
0
0
0
0
0
0
0
0
0
0
0
0
0
0
0
0
0
0
0
0
0
0
0
0
0
0
0
0
0
0
0
0
0
0
0
0
0
0
0
0
0
0
0
0
0
0
0
0
0
0
0
0
0
0
0
0
0
0
0
0
0
0
0
0
0
0
0
0
0
0
0
0
0
0
0
0
0
0
0
0
0
0
0
0
0
0
0
0
0
0
0
0
0
0
0
0
0
0
0
0
0
0
0
0
0
0
0
0
0
0
0
0
0
0
0
0
0
0
0
0
0
0
0
0
0
0
0
0
0
0
0
0
0
0
0
0
0
0
0
0
0
0
0
0
0
0
0
0
0
0
0
0
0
0
0
0
0
0
0
0
0
0
0
0
0
0
0
0
0
0
0
0
0
0
0
0
0
0
0
0
0
0
0
0
0
0
0
0
0
0
0
0
0
0
0
0
0
0
0
0
0
0
0
0
0
0
0
0
0
0
0
0
0
0
0
0
0
0
0
0
0
0
0
0
0
0
0
0
0
0
0
0
0
0
0
0
0
0
0
0
0
0
0
0
0
0
0
0
0
0
0
0
0
0
0
0
0
0
0
0
0
0
0
0
0
0
0
0
0
0
0
0
0
0
0
0
0
0
0
0
0
0
0
0
0
0
0
0
0
0
0
0
0
0
0
0
0
0
0
0
0
0
0
0
0
0
0
0
0
0
0
0
0
0
0
0
0
0
0
0
0
0
0
0
0
0
0
0
0
0
0
0
0
0
0
0
0
0
0
0
0
0
0
0
0
0
0
0
0
0
0
0
0
0
0
0
0
0
0
0
0
0
0
0
0
0
0
0
0
0
0
0
0
0
0
0
0
0
0
0
0
0
0
0
0
0
0
0
0
0
0
0
0
0
0
0
0
0
0
0
0
0
0
0
0
0
0
0
0
0
0
0
0
0
0
0
0
0
0
0
0
0
0
0
0
0
0
0
0
0
0
0
0
0
0
0
0
0
0
0
0
0
0
0
0
0
0
0
0
0
0
0
0
0
0
0
0
0
0
0
0
0
0
0
0
0
0
0
0
0
0
0
0
0
0
0
0
0
0
0
0
0
0
0
0
0
0
0
0
0
0
0
0
0
0
0
0
0
0
0
0
0
0
0
0
0
0
0
0
0
0
0
0
0
0
0
0
0
0
0
0
0
0
0
0
0
0
0
0
0
0
0
0
0
0
0
0
0
0
0
0
0
0
0
0
0
0
0
0
0
0
0
0
0
0
0
0
0
0
0
0
0
0
0
0
0
0
0
0
0
0
0
0
0
0
0
0
0
0
0
0
0
0
0
0
0
0
0
0
0
0
0
0
0
0
0
0
0
0
0
0
0
0
0
0
0
0
0
0
0
0
0
0
0
0
0
0
0
0
0
0
0
0
0
0
0
0
0
0
0
0
0
0
0
0
0
0
0
0
0
0
0
0
0
0
0
0
0
0
0
0
0
0
0
0
0
0
0
0
0
0
0
0
0
0
0
0
0
0
0
0
0
0
0
0
0
0
0
0
0
0
0
0
0
0
0
0
0
0
0
0
0
0
0
0
0
0
0
0
0
0
0
0
0
0
0
0
0
0
0
0
0
0
0
0
0
0
0
0
0
0
0
0
0
0
0
0
0
0
0
0
0
0
0
0
0
0
0
0
0
0
0
0
0
0
0
0
0
0
0
0
0
0
0
0
0
0
0
0
0
0
0
0
0
0
0
0
0
0
0
0
0
0
0
0
0
0
0
0
0
0
0
0
0
0
0
0
0
0
0
0
0
0
0
0
0
0
0
0
0
0
0
0
0
0
0
0
0
0
0
0
0
0
0
0
0
0
0
0
0
0
0
0
0
0
0
0
0
0
0
0
0
0
0
0
0
0
0
0
0
0
0
0
0
0
0
0
0
0
0
0
0
0
0
0
0
0
0
0
0
0
0
0
0
0
0
0
0
0
0
0
0
0
0
0
0
0
0
0
0
0
0
0
0
0
0
0
0
0
0
0
0
0
0
0
0
0
0
0
0
0
0
0
0
0
0
0
0
0
0
0
0
0
0
0
0
0
0
0
0
0
0
0
0
0
0
0
0
0
0
0
0
0
0
0
0
0
0
0
0
0
0
0
0
0
0
0
0
0
0
0
0
0
0
0
0
0
0
0
0
0
0
0
0
0
0
0
0
0
0
0
0
0
0
0
0
0
0
0
0
0
0
0
0
0
0
0
0
0
0
0
0
0
0
0
0
0
0
0
0
0
0
0
0
0
0
0
0
0
0
0
0
0
0
0
0
0
0
0
0
0
0
0
0
0
0
0
0
0
0
0
0
0
0
0
0
0
0
0
0
0
0
0
0
0
0
0
0
0
0
0
0
0
0
0
0
0
0
0
0
0
0
0
0
0
0
0
0
0
0
0
0
0
0
0
0
0
0
0
0
0
0
0
0
0
0
0
0
0
0
0
0
0
0
0
0
0
0
0
0
0
0
0
0
0
0
0
0
0
0
0
0
0
0
0
0
0
0
0
0
0
0
0
0
0
0
0
0
0
0
0
0
0
0
0
0
0
0
0
0
0
0
0
0
0
0
0
0
0
0
0
0
0
0
0
0
0
0
0
0
0
0
0
0
0
0
0
0
0
0
0
0
0
0
0
0
0
0
0
0
0
0
0
0
0
0
0
0
0
0
0
0
0
0
0
0
0
0
0
0
0
0
0
0
0
0
0
0
0
0
0
0
0
0
0
0
0
0
0
0
0
0
0
0
0
0
0
0
0
0
0
0
0
0
0
0
0
0
0
0
0
0
0
0
0
0
0
0
0
0
0
0
0
0
0
0
0
0
0
0
0
0
0
0
0
0
0
0
0
0
0
0
0
0
0
0
0
0
0
0
0
0
0
0
0
0
0
0
0
0
0
0
0
0
0
0
0
0
0
0
0
0
0
0
0
0
0
0
0
0
0
0
0
0
0
0
0
0
0
0
0
0
0
0
0
0
0
0
0
0
0
0
0
0
0
0
0
0
0
0
0
0
0
0
0
0
0
0
0
0
0
0
0
0
0
0
0
0
0
0
0
0
0
0
0
0
0
0
0
0
0
0
0
0
0
0
0
0
0
0
0
0
0
0
0
0
0
0
0
0
0
0
0
0
0
0
0
0
0
0
0
0
0
0
0
0
0
0
0
0
0
0
0
0
0
0
0
0
0
0
0
0
0
0
0
0
0
0
0
0
0
0
0
0
0
0
0
0
0
0
0
0
0
0
0
0
0
0
0
0
0
0
0
0
0
0
0
0
0
0
0
0
0
0
0
0
0
0
0
0
0
0
0
0
0
0
0
0
0
0
0
0
0
0
0
0
0
0
0
0
0
0
0
0
0
0
0
0
0
0
0
0
0
0
0
0
0
0
0
0
0
0
0
0
0
0
0
0
0
0
0
0
0
0
0
0
0
0
0
0
0
0
0
0
0
0
0
0
0
0
0
0
0
0
0
0
0
0
0
0
0
0
0
0
0
0
0
0
0
0
0
0
0
0
0
0
0
0
0
0
0
0
0
0
0
0
0
0
0
0
0
0
0
0
0
0
0
0
0
0
0
0
0
0
0
0
0
0
0
0
0
0
0
0
0
0
0
0
0
0
0
0
0
0
0
0
0
0
0
0
0
0
0
0
0
0
0
0
0
0
0
0
0
0
0
0
0
0
0
0
0
0
0
0
0
0
0
0
0
0
0
0
0
0
0
0
0
0
0
0
0
0
0
0
0
0
0
0
0
0
0
0
0
0
0
0
0
0
0
0
0
0
0
0
0
0
0
0
0
0
0
0
0
0
0
0
0
0
0
0
0
0
0
0
0
0
0
0
0
0
0
0
0
0
0
0
0
0
0
0
0
0
0
0
0
0
0
0
0
0
0
0
0
0
0
0
0
0
0
0
0
0
0
0
0
0
0
0
0
0
0
0
0
0
0
0
0
0
0
0
0
0
0
0
0
0
0
0
0
0
0
0
0
0
0
0
0
0
0
0
0
0
0
0
0
0
0
0
0
0
0
0
0
0
0
0
0
0
0
0
0
0
0
0
0
0
0
0
0
0
0
0
0
0
0
0
0
0
0
0
0
0
0
0
0
0
0
0
0
0
0
0
0
0
0
0
0
0
0
0
0
0
0
0
0
0
0
0
0
0
0
0
0
0
0
0
0
0
0
0
0
0
0
0
0
0
0
0
0
0
0
0
0
0
0
0
0
0
0
0
0
0
0
0
0
0
0
0
0
0
0
0
0
0
0
0
0
0
0
0
0
0
0
0
0
0
0
0
0
0
0
0
0
0
0
0
0
0
0
0
0
0
0
0
0
0
0
0
0
0
0
0
0
0
0
0
0
0
0
0
0
0
0
0
0
0
0
0
0
0
0
0
0
0
0
0
0
0
0
0
0
0
0
0
0
0
0
0
0
0
0
0
0
0
0
0
0
0
0
0
0
0
0
0
0
0
0
0
0
0
0
0
0
0
0
0
0
0
0
0
0
0
0
0
0
0
0
0
0
0
0
0
0
0
0
0
0
0
0
0
0
0
0
0
0
0
0
0
0
0
0
0
0
0
0
0
0
0
0
0
0
0
0
0
0
0
0
0
0
0
0
0
0
0
0
0
0
0
0
0
0
0
0
0
0
0
0
0
0
0
0
0
0
0
0
0
0
0
0
0
0
0
0
0
0
0
0
0
0
0
0
0
0
0
0
0
0
0
0
0
0
0
0
0
0
0
0
0
0
0
0
0
0
0
0
0
0
0
0
0
0
0
0
0
0
0
0
0
0
0
0
0
0
0
0
0
0
0
0
0
0
0
0
0
0
0
0
0
0
0
0
0
0
0
0
0
0
0
0
0
0
0
0
0
0
0
0
0
0
0
0
0
0
0
0
0
0
0
0
0
0
0
0
0
0
0
0
0
0
0
0
0
0
0
0
0
0
0
0
0
0
0
0
0
0
0
0
0
0
0
0
0
0
0
0
0
0
0
0
0
0
0
0
0
0
0
0
0
0
0
0
0
0
0
0
0
0
0
0
0
0
0
0
0
0
0
0
0
0
0
0
0
0
0
0
0
0
0
0
0
0
0
0
0
0
0
0
0
0
0
0
0
0
0
0
0
0
0
0
0
0
0
0
0
0
0
0
0
0
0
0
0
0
0
0
0
0
0
0
0
0
0
0
0
0
0
0
0
0
0
0
0
0
0
0
0
0
0
0
0
0
0
0
0
0
0
0
0
0
0
0
0
0
0
0
0
0
0
0
0
0
0
0
0
0
0
0
0
0
0
0
0
0
0
0
0
0
0
0
0
0
0
0
0
0
0
0
0
0
0
0
0
0
0
0
0
0
0
0
0
0
0
0
0
0
0
0
0
0
0
0
0
0
0
0
0
0
0
0
0
0
0
0
0
0
0
0
0
0
0
0
0
0
0
0
0
0
0
0
0
0
0
0
0
0
0
0
0
0
0
0
0
0
0
0
0
0
0
0
0
0
0
0
0
0
0
0
0
0
0
0
0
0
0
0
0
0
0
0
0
0
0
0
0
0
0
0
0
0
0
0
0
0
0
0
0
0
0
0
0
0
0
0
0
0
0
0
0
0
0
0
0
0
0
0
0
0
0
0
0
0
0
0
0
0
0
0
0
0
0
0
0
0
0
0
0
0
0
0
0
0
0
0
0
0
0
0
0
0
0
0
0
0
0
0
0
0
0
0
0
0
0
0
0
0
0
0
0
0
0
0
0
0
0
0
0
0
0
0
0
0
0
0
0
0
0
0
0
0
0
0
0
0
0
0
0
0
0
0
0
0
0
0
0
0
0
0
0
0
0
0
0
0
0
0
0
0
0
0
0
0
0
0
0
0
0
0
0
0
0
0
0
0
0
0
0
0
0
0
0
0
0
0
0
0
0
0
0
0
0
0
0
0
0
0
0
0
0
0
0
0
0
0
0
0
0
0
0
0
0
0
0
0
0
0
0
0
0
0
0
0
0
0
0
0
0
0
0
0
0
0
0
0
0
0
0
0
0
0
0
0
0
0
0
0
0
0
0
0
0
0
0
0
0
0
0
0
0
0
0
0
0
0
0
0
0
0
0
0
0
0
