0.683883
0.692535
0.69866
0.699097
0.691895
0.676405
0.65314
0.623531
0.589651
0.554063
0.519234
0.487574
0.461217
0.441811
0.43036
0.4272
0.432096
0.444466
0.463602
0.488796
0.519012
0.553385
0.590935
0.629819
0.667578
0.701817
0.730884
0.754505
0.774121
0.79277
0.814498
0.843472
0.882847
0.933649
0.995203
1.06586
1.14345
1.22565
1.31034
1.396
1.48172
1.56712
1.6519
1.73543
1.81611
1.89105
1.95691
2.01049
2.04979
2.07495
2.08852
2.09525
2.1012
2.11254
2.13502
2.17733
2.24127
2.31251
2.37124
2.39888
2.38407
2.32591
2.23357
2.12256
2.00956
1.90721
1.81796
1.73976
1.67124
1.61224
1.56282
1.52286
1.49205
1.46981
1.45532
1.44739
1.44422
1.44373
1.44393
1.44317
1.44037
1.43503
1.42723
1.4174
1.4062
1.39433
1.38248
1.37129
1.36136
1.35322
1.34723
1.34349
1.34169
1.34104
1.34024
1.33774
1.33217
1.3226
1.30881
1.2913
1.27102
1.24901
1.22596
1.20193
1.17635
1.14838
1.1175
1.08409
1.0496
1.01644
0.987274
0.964327
0.948305
0.938887
0.935027
0.935118
0.937466
0.940649
0.943699
0.946053
0.947398
0.947513
0.946133
0.942927
0.937597
0.929991
0.920206
0.908617
0.895843
0.882631
0.869678
0.857466
0.846168
0.835586
0.825149
0.814175
0.802184
0.789156
0.775661
0.762756
0.75169
0.743534
0.738858
0.737499
0.738934
0.742478
0.747681
0.754686
0.764429
0.778646
0.799696
0.83005
0.871924
0.92793
1.00509
1.11883
1.2884
1.50564
1.72389
1.89977
2.00331
2.01861
1.94323
1.78751
1.57303
1.33004
1.0951
0.895853
0.731651
0.592297
0.471488
0.367637
0.28037
0.2086
0.15078
0.105166
0.0699776
0.0436287
0.0245644
0.0107658
0
0.03153
0.056533
-0.0759064
-0.455863
-1.01434
-1.59822
-1.84789
-1.29202
0.440374
3.33997
6.85369
10.005
11.7914
11.6556
9.74986
6.83629
3.89343
1.67562
0.462563
0.0867058
0.15296
0.2135
0.244437
0.276171
0.312412
0.357487
0.412626
0.473576
0.533223
0.583799
0.619003
0.635347
0.6325
0.612932
0.58136
0.544803
0.50984
0.4826
0.468503
0.471323
0.492445
0.53065
0.58258
0.643723
0.709576
0.776427
0.842094
0.905243
0.964462
1.01782
1.06292
1.09716
1.11811
1.1243
1.11221
1.08128
1.0449
1.0207
1.02553
1.07058
1.15849
1.28346
1.43417
1.59791
1.76432
1.92875
2.09075
2.2509
2.41047
2.57119
2.73483
2.90271
3.07526
3.2518
3.43042
3.60824
3.78179
3.94766
4.10307
4.24635
4.37706
4.49591
4.60382
4.70171
4.79027
4.86927
4.93714
4.99129
5.02858
5.04627
5.04285
5.01875
4.97657
4.92083
4.85737
4.79238
4.73104
4.67619
4.62903
4.58977
4.55719
4.52878
4.50103
4.46996
4.43162
4.38262
4.32049
4.24404
4.15353
4.05068
3.93871
3.82193
3.70545
3.59473
3.49499
3.41108
3.34892
3.31381
3.30317
3.30884
3.32068
3.32898
3.32644
3.30922
3.27688
3.2315
3.17657
3.11659
3.05492
2.99368
2.93425
2.87753
2.82382
2.77279
2.7236
2.67495
2.62537
2.57349
2.51828
2.45939
2.39721
2.3329
2.2682
2.20516
2.14572
2.09145
2.04322
2.00118
1.96489
1.93353
1.9062
1.88204
1.86035
1.84049
1.82185
1.80369
1.7852
1.76551
1.74389
1.71993
1.69374
1.66608
1.63851
1.61351
1.59419
1.5836
1.58426
1.59771
1.6243
1.66317
1.71261
1.77056
1.83527
1.90572
1.98151
2.06288
2.15065
2.24577
2.34934
2.46157
2.58097
2.70315
2.81873
2.91549
2.98112
3.00479
2.97956
2.90513
2.78953
2.64809
2.49965
2.3612
2.23876
2.12944
2.03135
1.94449
1.86846
1.80262
1.74626
1.69853
1.65827
1.62399
1.59382
1.56566
1.53728
1.50639
1.46766
1.38642
1.1541
0.775764
0.313289
0
0.274051
1.51081
3.8177
6.8604
9.8836
11.9735
12.4566
11.2186
8.7511
5.89511
3.43847
1.8056
0.991705
0.720393
0.676418
0.663006
0.650871
0.640996
0.634031
0.63011
0.628793
0.629114
0.629708
0.628971
0.625277
0.617183
0.603641
0.584159
0.558898
0.528616
0.494928
0.460328
0.428135
0.40215
0.385836
0.381955
0.39215
0.41667
0.454273
0.502383
0.557493
0.615787
0.673856
0.729559
0.782262
0.832298
0.880914
0.929885
0.980993
1.03553
1.09399
1.15592
1.22037
1.28626
1.35289
1.42026
1.4892
1.56121
1.63805
1.72115
1.8112
1.90775
2.00943
2.11417
2.2196
2.32342
2.42383
2.51964
2.61025
2.6955
2.77538
2.84986
2.91875
2.9817
3.03828
3.08805
3.13069
3.16601
3.19399
3.21481
3.22866
3.23578
3.23635
3.23052
3.21836
3.1999
3.17514
3.1442
3.10733
3.06503
3.01809
2.96773
2.91556
2.86356
2.81401
2.76929
2.73168
2.7031
2.68484
2.67812
2.68424
2.70179
2.72434
2.74446
2.75565
2.75411
2.73962
2.71537
2.68649
2.65818
2.63384
2.61345
2.59568
2.57914
2.56228
2.54395
2.52382
2.5025
2.48139
2.46224
2.44664
2.43596
2.42983
2.42559
2.41936
2.40697
2.38508
2.35189
2.30736
2.25307
2.19173
2.12692
2.06217
2.00061
1.94531
1.89896
1.86359
1.84037
1.82935
1.82949
1.83872
1.85426
1.87292
1.89144
1.90695
1.91697
1.91957
1.91356
1.89853
1.87497
1.84422
1.80835
1.76992
1.73161
1.69584
1.66434
1.63805
1.61732
1.60192
1.59128
1.58474
1.58178
1.58218
1.586
1.59348
1.60485
1.62008
1.63899
1.66105
1.68536
1.71125
1.73894
1.76988
1.8069
1.85378
1.91452
1.9924
2.08909
2.21131
2.36199
2.52912
2.68686
2.81103
2.88506
2.90173
2.86246
2.77565
2.65413
2.51251
2.36493
2.22246
2.08923
1.96538
1.85035
1.7437
1.6453
1.55491
1.47234
1.39789
1.33194
1.27452
1.22497
1.18155
1.14034
1.09557
1.0348
0.900779
0.683586
0.407418
0
0.0667288
1.03571
3.11866
6.12102
9.39241
12.0158
13.1793
12.544
10.3956
7.48991
4.6877
2.59364
1.38616
0.884902
0.756683
0.677177
0.594439
0.513902
0.438037
0.368901
0.307949
0.255738
0.211725
0.174763
0.143496
0.116735
0.0937115
0.0741413
0.0581177
0.0459061
0.0377199
0.0334843
0.0330109
0.0359964
0.0420063
0.0504885
0.0607635
0.071813
0.082089
0.0896734
0.0926945
0.0897844
0.0805374
0.0657753
0.0475008
0.0285355
0.0119551
0.000524521
-0.00409679
-0.00135612
0.00894852
0.0270582
0.0530931
0.0871052
0.129081
0.178888
0.236198
0.300432
0.370792
0.446312
0.525918
0.608509
0.693007
0.778404
0.863771
0.948263
1.0311
1.11151
1.1887
1.26176
1.32959
1.39084
1.44429
1.48932
1.52606
1.55562
1.58013
1.60253
1.62616
1.65398
1.68859
1.732
1.78165
1.83063
1.87057
1.89402
1.89639
1.8768
1.83788
1.78471
1.72343
1.66016
1.59901
1.5421
1.49035
1.444
1.40289
1.36688
1.336
1.31068
1.29172
1.28016
1.27758
1.28652
1.30772
1.33452
1.35638
1.36266
1.34645
1.30728
1.2516
1.19077
1.13729
1.10114
1.0825
1.0773
1.08375
1.10017
1.12437
1.15378
1.18606
1.21866
1.24883
1.27385
1.29109
1.29821
1.29343
1.27573
1.24509
1.20265
1.15071
1.09262
1.03243
0.974313
0.921857
0.877668
0.843865
0.820946
0.80674
0.797515
0.789117
0.777953
0.761753
0.739955
0.713631
0.685061
0.657104
0.632352
0.612458
0.59827
0.590072
0.58751
0.58954
0.594645
0.601049
0.60688
0.610385
0.61018
0.605396
0.595786
0.581763
0.564361
0.545131
0.525975
0.508954
0.496206
0.489633
0.490601
0.499885
0.517636
0.543503
0.576878
0.617239
0.664492
0.719176
0.782015
0.854679
0.941809
1.05198
1.19732
1.38288
1.58553
1.77145
1.91318
1.98385
1.95892
1.82504
1.59006
1.28842
0.979705
0.734402
0.559763
0.424034
0.310155
0.21495
0.137901
0.078277
0.0352917
0.00818691
-0.00350037
0
0.0350328
0.0803597
0.131627
0.184207
0.208397
-0.0509657
-0.557459
-1.19667
-1.71286
-1.61112
-0.460202
1.91299
5.20349
8.62264
11.1687
12.0638
11.1161
8.78633
5.92552
3.35364
1.53555
0.509437
0.0399843
-0.158573
-0.19919
-0.211907
-0.218478
-0.218316
-0.21178
-0.200193
-0.185187
-0.168138
-0.149644
-0.129219
-0.105289
-0.0755207
-0.0373847
0.0111488
0.0711327
0.142257
0.222786
0.30977
0.399682
0.488274
0.571718
0.647248
0.713492
0.770474
0.819308
0.861699
0.899418
0.93395
0.966552
0.998089
1.02943
1.06164
1.09605
1.13411
1.17714
1.22606
1.2812
1.34289
1.41132
1.48672
1.56939
1.65979
1.75835
1.86515
1.97974
2.101
2.22721
2.35631
2.48623
2.61517
2.74186
2.86549
2.98566
3.10212
3.21444
3.32186
3.42325
3.51717
3.6021
3.67657
3.73932
3.78945
3.82645
3.85032
3.8615
3.86094
3.85011
3.83088
3.80536
3.77571
3.74398
3.7118
3.68025
3.64987
3.62063
3.59207
3.56359
3.53458
3.50472
3.474
3.44267
3.41116
3.37989
3.34918
3.31922
3.29023
3.26253
3.23667
3.21341
3.19346
3.17731
3.16495
3.15562
3.14795
3.14023
3.13086
3.11868
3.10325
3.08485
3.06431
3.04264
3.02073
2.99913
2.9781
2.95785
2.93887
2.92221
2.9095
2.90271
2.90488
2.91967
2.94552
2.97399
2.99341
2.99244
2.96379
2.90683
2.82778
2.73773
2.64895
2.56959
2.50064
2.44181
2.39193
2.34864
2.30924
2.27145
2.23389
2.1961
2.15823
2.12043
2.0823
2.0426
1.99929
1.94995
1.89242
1.82545
1.74908
1.66471
1.57486
1.48255
1.39073
1.30167
1.217
1.13765
1.06425
0.997993
0.941515
0.898819
0.874025
0.872096
0.897607
0.953433
1.05255
1.23833
1.53769
1.87821
2.1842
2.41116
2.52855
2.51849
2.38164
2.14277
1.85192
1.58287
1.41702
1.33957
1.30017
1.27743
1.2649
1.26071
1.26298
1.26981
1.27918
1.28861
1.29533
1.29665
1.29024
1.27445
1.24655
1.1941
1.05981
0.807963
0.442747
0.00820618
-0.280513
0
1.24815
3.62327
6.79787
9.98278
12.2167
12.7987
11.6169
9.17865
6.33409
3.87414
2.2325
1.42317
1.18381
1.19303
1.21076
1.22848
1.24575
1.26221
1.27727
1.29019
1.30017
1.30655
1.30897
1.30752
1.30288
1.2963
1.28957
1.28479
1.28414
1.28961
1.3026
1.32368
1.35231
1.38728
1.42627
1.46549
1.49995
1.52511
1.53783
1.53712
1.52439
1.50328
1.47879
1.45615
1.43966
1.43137
1.43083
1.43705
1.44942
1.46762
1.49189
1.52314
1.56289
1.61289
1.67471
1.74922
1.83612
1.93401
2.04046
2.15217
2.26539
2.3764
2.48197
2.57981
2.66875
2.74873
2.82057
2.88556
2.94494
2.99953
3.04941
3.09381
3.13155
3.16158
3.18333
3.19705
3.20398
3.20598
3.20507
3.20258
3.19847
3.18997
3.17164
3.13668
3.07909
2.99597
2.88904
2.76492
2.63398
2.508
2.39643
2.30219
2.22761
2.17266
2.13521
2.11201
2.09954
2.09429
2.09352
2.09548
2.09876
2.10194
2.10379
2.10347
2.10098
2.09733
2.09466
2.09592
2.10435
2.12273
2.15239
2.19287
2.2425
2.29862
2.35767
2.41573
2.46901
2.51436
2.54963
2.57379
2.58687
2.58981
2.58406
2.57134
2.55335
2.53151
2.50695
2.48041
2.45236
2.42307
2.39263
2.36108
2.32841
2.29463
2.25982
2.22418
2.18809
2.15211
2.117
2.08353
2.05243
2.02418
1.99884
1.97595
1.95452
1.93307
1.90973
1.88257
1.85013
1.81184
1.76828
1.7213
1.67384
1.62934
1.59105
1.56125
1.54121
1.53065
1.52655
1.52431
1.5197
1.5103
1.49642
1.48134
1.47066
1.47115
1.48932
1.54482
1.68126
1.90839
2.15409
2.35182
2.45799
2.45505
2.34921
2.16588
1.94348
1.72663
1.55908
1.44522
1.36456
1.30258
1.25257
1.21166
1.17757
1.14809
1.12136
1.09605
1.07134
1.04673
1.02176
0.995664
0.967184
0.9326
0.867407
0.674615
0.344776
-0.0705765
-0.366828
0
1.44367
4.03465
7.34504
10.4984
12.5007
12.6953
11.0798
8.29354
5.282
2.84743
1.35041
0.696087
0.544845
0.537272
0.408887
0.275019
0.134257
-0.0132479
-0.165456
-0.318535
-0.467396
-0.606538
-0.730909
-0.83639
-0.920927
-0.985783
-1.03575
-1.07873
-1.12426
-1.1816
-1.25817
-1.35819
-1.48186
-1.63008
-1.79649
-1.96056
-2.10092
-2.20099
-2.25276
-2.25761
-2.22423
-2.16471
-2.09073
-2.01126
-1.93114
-1.85206
-1.77473
-1.69954
-1.62676
-1.5564
-1.48809
-1.42094
-1.35344
-1.28344
-1.20838
-1.12553
-1.03232
-0.926788
-0.807752
-0.674926
-0.529007
-0.371552
-0.203956
-0.028294
0.149503
0.317385
0.46217
0.572164
0.639816
0.664034
0.651105
0.613572
0.567097
0.526284
0.499736
0.486664
0.483324
0.486694
0.494679
0.505103
0.515779
0.524594
0.529496
0.528505
0.519853
0.502042
0.474151
0.436091
0.388763
0.334063
0.274671
0.213717
0.154202
0.0986423
0.0488604
0.00573425
-0.0307678
-0.0614304
-0.0875669
-0.110802
-0.132906
-0.15569
-0.180958
-0.210359
-0.245211
-0.286257
-0.333423
-0.385672
-0.441052
-0.49698
-0.550726
-0.600064
-0.643668
-0.681366
-0.714434
-0.745369
-0.777276
-0.81319
-0.855775
-0.907475
-0.968768
-1.03566
-1.09827
-1.14446
-1.16352
-1.14862
-1.09852
-1.01794
-0.916395
-0.805479
-0.695451
-0.592193
-0.495754
-0.404454
-0.318047
-0.237508
-0.164005
-0.0993189
-0.045142
-0.0022419
0.0301317
0.0543671
0.07411
0.0935589
0.116602
0.145476
0.181293
0.224771
0.275903
0.334058
0.398231
0.467332
0.540533
0.61752
0.698668
0.785067
0.878404
0.980734
1.09417
1.22052
1.3611
1.52131
1.72237
2.00939
2.38447
2.75928
3.06426
3.25821
3.32005
3.24718
3.05821
2.79135
2.49433
2.21877
2.00609
1.84658
1.71737
1.60793
1.51583
1.44117
1.3832
1.34059
1.31161
1.29431
1.28675
1.28696
1.29304
1.30293
1.31441
1.32494
1.32106
1.15649
0.787011
0.274534
-0.170433
0
1.24494
3.72002
7.06375
10.4264
12.7792
13.3731
12.0932
9.49194
6.48829
3.92312
2.23524
1.40694
1.138
1.08698
0.9373
0.794971
0.661074
0.543254
0.448341
0.381812
0.346312
0.340646
0.359665
0.395225
0.437957
0.479353
0.513857
0.538915
0.554839
0.563842
0.56868
0.571463
0.573122
0.573441
0.571745
0.567584
0.5613
0.554261
0.548676
0.547107
0.551866
0.564059
0.583728
0.610699
0.644683
0.685313
0.732288
0.785564
0.845229
0.911334
0.983689
1.0617
1.14432
1.23009
1.31729
1.40417
1.48914
1.57094
1.64876
1.72225
1.79168
1.85778
1.92173
1.98492
2.0487
2.11402
2.18111
2.24938
2.31709
2.3815
2.43977
2.48978
2.53087
2.5641
2.59206
2.61817
2.64569
2.67676
2.71171
2.74922
2.78582
2.817
2.83809
2.84514
2.83548
2.80802
2.76334
2.70364
2.63271
2.55563
2.47734
2.4023
2.33414
2.27654
2.23154
2.19747
2.17098
2.14834
2.12677
2.10531
2.08504
2.06844
2.05849
2.05726
2.06454
2.07929
2.10031
2.12594
2.15393
2.18121
2.20472
2.22196
2.23145
2.23286
2.22692
2.2151
2.19898
2.17975
2.15793
2.13349
2.10588
2.0746
2.03949
2.00087
1.95953
1.91645
1.87264
1.82891
1.78585
1.74394
1.70371
1.66579
1.63094
1.60002
1.57386
1.55318
1.5385
1.53007
1.5279
1.53176
1.54122
1.55559
1.57391
1.59488
1.61678
1.63709
1.6525
1.65984
1.65668
1.64222
1.61795
1.58794
1.55854
1.53746
1.5325
1.55246
1.63627
1.85008
2.16378
2.46924
2.69415
2.80091
2.77944
2.64277
2.42436
2.1718
1.93659
1.76035
1.63955
1.5534
1.4897
1.44427
1.41752
1.40931
1.41868
1.44434
1.48566
1.54225
1.61358
1.6971
1.78498
1.86707
1.93374
1.97776
1.92835
1.51411
0.839014
0.0729485
-0.376001
0
1.55817
4.26324
7.5841
10.6209
12.4532
12.5421
10.9651
8.35026
5.55644
3.29141
1.87633
1.24467
1.11389
1.18832
1.20965
1.22778
1.2407
1.24718
1.24709
1.24134
1.23166
1.22006
1.20841
1.19801
1.18926
1.18193
1.17528
1.16845
1.16075
1.15198
1.14257
1.13346
1.12586
1.12089
1.11928
1.12114
1.12537
1.1299
1.13242
1.1311
1.12517
1.11527
1.10328
1.09186
1.08385
1.08129
1.0851
1.09552
1.11267
1.13646
1.1669
1.20422
1.24904
1.30215
1.36426
1.43569
1.51612
1.60439
1.69864
1.7965
1.89542
1.99304
2.08742
2.17731
2.26216
2.34207
2.4177
2.49003
2.5602
2.62925
2.69797
2.76671
2.83526
2.90272
2.96742
3.02689
3.07837
3.1192
3.14714
3.16063
3.15895
3.14216
3.11095
3.06648
3.01021
2.94426
2.87103
2.79277
2.71172
2.63018
2.55045
2.4747
2.40478
2.3421
2.28761
2.24182
2.20528
2.1785
2.16144
2.15388
2.15526
2.16455
2.18023
2.20038
2.22288
2.24571
2.26724
2.28636
2.30264
2.31628
2.32805
2.33913
2.35081
2.36423
2.38019
2.39861
2.41789
2.4352
2.44712
2.45039
2.44271
2.42327
2.39288
2.35379
2.3091
2.26209
2.21515
2.16949
2.12522
2.08164
2.03756
1.99171
1.94321
1.89195
1.83891
1.78623
1.73772
1.69777
1.67052
1.65887
1.66372
1.68366
1.71521
1.75349
1.79327
1.83009
1.86104
1.88529
1.90427
1.92143
1.9417
1.97054
2.01288
2.0722
2.14948
2.24353
2.35344
2.47354
2.59572
2.71155
2.81169
2.88552
2.92703
2.93193
2.8976
2.82402
2.71514
2.57965
2.43035
2.28181
2.14736
2.03073
1.93017
1.84629
1.77881
1.72643
1.6872
1.65887
1.63914
1.6258
1.61677
1.61009
1.60392
1.59584
1.57148
1.39454
1.02992
0.533018
0.0497829
0
0.816218
2.78178
5.7718
9.16274
12.0032
13.4105
12.9845
10.9918
8.20564
5.50521
3.48588
2.29403
1.72839
1.47914
1.34635
1.24264
1.14557
1.05879
0.985321
0.927102
0.884972
0.858563
0.846415
0.84628
0.855579
0.871898
0.893381
0.91879
0.947673
0.979946
1.01554
1.05406
1.09455
1.13561
1.17547
1.21199
1.24294
1.26644
1.2812
1.28659
1.28287
1.27115
1.2534
1.23222
1.21061
1.19169
1.17819
1.17232
1.17601
1.19089
1.21814
1.25847
1.31191
1.37769
1.45449
1.54029
1.63251
1.72831
1.82491
1.91988
2.01139
2.09836
2.18052
2.25833
2.33289
2.4058
2.4789
2.55397
2.63245
2.71509
2.80215
2.89242
2.98205
3.06481
3.13391
3.18328
3.20881
3.20899
3.18506
3.1406
3.0807
3.01097
2.93668
2.86179
2.78841
2.71729
2.64854
2.58202
2.51754
2.45494
2.39426
2.33576
2.27989
2.22717
2.17811
2.13301
2.09191
2.0546
2.0207
1.98977
1.96138
1.93515
1.91084
1.88822
1.86722
1.84787
1.83041
1.81532
1.80322
1.79477
1.7905
1.79056
1.79463
1.80184
1.81074
1.81949
1.82623
1.82952
1.82871
1.8242
1.81759
1.81148
1.80918
1.81407
1.82893
1.85513
1.89384
1.94472
2.00139
2.05429
2.09411
2.11433
2.11274
2.09172
2.05704
2.01603
1.97559
1.94029
1.91166
1.89017
1.87645
1.87094
1.87372
1.88447
1.90243
1.92642
1.95492
1.98635
2.01938
2.05316
2.08748
2.12277
2.16
2.20051
2.24581
2.29742
2.3569
2.42569
2.50703
2.61265
2.77658
3.0444
3.36929
3.67145
3.89685
4.00675
3.9781
3.80749
3.51475
3.14357
2.76085
2.46428
2.28572
2.16569
2.07118
1.99277
1.92889
1.87714
1.83476
1.79907
1.76777
1.73917
1.71217
1.68616
1.66074
1.63547
1.60972
1.58101
1.51084
1.21374
0.696286
0.0784782
-0.310427
0
1.38984
3.91445
7.14163
10.2282
12.238
12.5578
11.176
8.65784
5.83841
3.43149
1.78122
0.859176
0.436739
0.278357
0.246431
0.216019
0.187727
0.162769
0.142443
0.127991
0.120415
0.120392
0.127996
0.142244
0.160395
0.177699
0.188631
0.188242
0.17333
0.14335
0.100802
0.0509039
0.000562859
-0.0431688
-0.075243
-0.0946699
-0.102511
-0.100023
-0.0904646
-0.0775248
-0.0643091
-0.0525297
-0.0421104
-0.0312971
-0.0172207
0.00326805
0.0326963
0.0718761
0.120134
0.175934
0.237256
0.301847
0.367653
0.433236
0.498043
0.562495
0.627854
0.695913
0.768555
0.847267
0.93272
1.0245
1.12106
1.21994
1.31818
1.4128
1.50129
1.58198
1.65417
1.71811
1.77478
1.82556
1.87193
1.91514
1.95604
1.99501
2.03197
2.06644
2.09766
2.12457
2.14577
2.15931
2.16296
2.15505
2.1345
2.10133
2.05705
2.00475
1.94873
1.89377
1.84409
1.80359
1.77323
1.75104
1.73354
1.71719
1.69967
1.68045
1.66063
1.64211
1.62664
1.61473
1.60606
1.6003
1.59709
1.59625
1.59801
1.60309
1.61271
1.6283
1.65127
1.68262
1.72248
1.77058
1.82533
1.88205
1.93534
1.98043
2.0143
2.03631
2.04804
2.05246
2.05275
2.05127
2.04904
2.04585
2.04072
2.03242
2.0198
2.0022
1.97964
1.95287
1.92335
1.89304
1.86444
1.84008
1.82205
1.81168
1.80933
1.81436
1.82535
1.84045
1.8577
1.87536
1.89213
1.90709
1.91947
1.92869
1.93454
1.93734
1.93813
1.93883
1.94239
1.95253
1.97318
2.00779
2.05864
2.12969
2.22238
2.33393
2.4578
2.58288
2.69385
2.77914
2.8255
2.81548
2.7317
2.56622
2.32931
2.05244
1.78242
1.56488
1.39976
1.26754
1.16219
1.08252
1.02529
0.986176
0.960487
0.943749
0.932054
0.922155
0.911314
0.897026
0.876739
0.847758
0.803971
0.694625
0.419289
0
-0.493347
-0.711817
-0.102169
1.65802
4.48403
7.78218
10.6069
12.0464
11.6455
9.62011
6.73143
3.89696
1.77799
0.574679
0.0989082
0.0119444
0.0227005
0.025596
0.0280956
0.0305696
0.0333355
0.0366068
0.0404797
0.0449554
0.0500084
0.0556303
0.0618229
0.0685066
0.0753744
0.0816742
0.0859892
0.086458
0.0811424
0.0686052
0.0484751
0.021773
-0.00915318
-0.0410984
-0.0707386
-0.0955711
-0.114544
-0.1273
-0.134418
-0.136994
-0.136175
-0.132747
-0.126907
-0.118229
-0.105811
-0.0884964
-0.0652447
-0.0352291
0.0022356
0.0477009
0.101522
0.163855
0.234637
0.313572
0.400099
0.493381
0.592308
0.695518
0.801447
0.908395
1.01463
1.11848
1.21852
1.31362
1.40309
1.4867
1.56461
1.63736
1.70571
1.77056
1.83284
1.89341
1.95294
2.01177
2.06974
2.12577
2.17738
2.22118
2.25334
2.27045
2.27056
2.25379
2.22253
2.18095
2.1341
2.08691
2.04295
2.00391
1.9707
1.94392
1.92368
1.90968
1.90125
1.89755
1.89764
1.90056
1.90532
1.91097
1.91654
1.92115
1.92411
1.92507
1.92423
1.92241
1.92107
1.92218
1.92786
1.93987
1.95924
1.98592
2.01876
2.05568
2.09409
2.13145
2.16577
2.19589
2.22146
2.24285
2.26078
2.27599
2.28894
2.29955
2.30721
2.31097
2.3097
2.30246
2.28869
2.26842
2.2424
2.21202
2.17927
2.14654
2.11632
2.09106
2.0728
2.06289
2.06223
2.07147
2.08862
2.11
2.13174
2.15075
2.16535
2.17525
2.18107
2.18351
2.18283
2.1789
2.17131
2.16027
2.14709
2.13442
2.12592
2.12556
2.13686
2.16064
2.19775
2.24872
2.3135
2.39185
2.48741
2.60933
2.77324
2.98666
3.21872
3.42651
3.57547
3.63609
3.58568
3.41654
3.14573
2.81975
2.51231
2.29573
2.15387
2.04645
1.95656
1.88015
1.81472
1.75766
1.70674
1.66033
1.61752
1.57798
1.54173
1.50875
1.47867
1.45064
1.42374
1.378
1.12459
0.65774
0.0836918
-0.291945
0
1.354
3.86695
7.15238
10.3854
12.5959
13.0862
11.7503
9.10668
6.03069
3.35004
1.53366
0.617297
0.344997
0.38581
0.372385
0.357901
0.34207
0.325521
0.309823
0.297152
0.289692
0.289443
0.298211
0.314656
0.333591
0.348934
0.355894
0.352749
0.34155
0.327444
0.316945
0.315823
0.326582
0.347412
0.375892
0.410066
0.448016
0.487992
0.528683
0.569364
0.609872
0.65046
0.691566
0.733537
0.776398
0.819691
0.862096
0.901769
0.937093
0.967471
0.99393
1.01923
1.04737
1.08268
1.12866
1.18676
1.2555
1.33286
1.41688
1.50555
1.59709
1.69028
1.7845
1.87967
1.97596
2.07351
2.17209
2.27085
2.36824
2.46199
2.54912
2.62673
2.69231
2.74419
2.78182
2.80585
2.81795
2.82038
2.81554
2.80547
2.79158
2.77434
2.75333
2.72759
2.69597
2.6575
2.61182
2.55937
2.50151
2.44035
2.37847
2.31854
2.26286
2.21333
2.17119
2.13704
2.11091
2.09246
2.08109
2.07613
2.07685
2.08255
2.0925
2.10594
2.12196
2.13958
2.15757
2.17447
2.18876
2.19908
2.20451
2.20483
2.20062
2.19332
2.18499
2.17792
2.1741
2.17489
2.18081
2.18998
2.19769
2.19827
2.1867
2.16021
2.11934
2.06817
2.0134
1.96283
1.92334
1.89746
1.8846
1.88405
1.89347
1.90954
1.9286
1.94728
1.96293
1.97375
1.97927
1.98023
1.97853
1.97703
1.97912
1.98814
2.00788
2.04383
2.09601
2.15403
2.20397
2.23285
2.23291
2.20406
2.15393
2.09596
2.04628
2.01979
2.02171
2.05073
2.10463
2.1817
2.28012
2.39887
2.53736
2.69264
2.85646
3.01343
3.14571
3.23891
3.28091
3.26216
3.17748
3.02879
2.8273
2.59385
2.35635
2.14022
1.95228
1.78918
1.6496
1.53515
1.44569
1.37985
1.33557
1.31052
1.30239
1.3096
1.33238
1.37061
1.41888
1.47033
1.51701
1.51759
1.22127
0.683422
0.035582
-0.360212
0
1.4657
4.04076
7.26036
10.2773
12.1736
12.3628
10.8595
8.25577
5.41648
3.08154
1.60029
0.911158
0.714229
0.682264
0.595011
0.509634
0.428446
0.353552
0.286587
0.228557
0.179762
0.139815
0.10765
0.0817156
0.0604069
0.0424034
0.0269182
0.0138107
0.00347118
-0.00337734
-0.00596314
-0.00371819
0.0035717
0.0157429
0.0323301
0.0526777
0.0759768
0.101367
0.127949
0.154501
0.179433
0.201225
0.21885
0.232223
0.242463
0.25184
0.263381
0.280311
0.305532
0.340593
0.385787
0.441963
0.50958
0.588538
0.678003
0.776237
0.880571
0.987552
1.09363
1.19557
1.29093
1.37843
1.458
1.53063
1.59793
1.6617
1.72344
1.78418
1.84433
1.90386
1.96252
2.02006
2.07645
2.13198
2.18723
2.243
2.30009
2.35905
2.42006
2.48253
2.54386
2.59961
2.64467
2.6746
2.68686
2.68155
2.66135
2.63064
2.59424
2.55631
2.51944
2.48468
2.45251
2.42328
2.39735
2.37508
2.35673
2.34238
2.33171
2.32389
2.31752
2.3109
2.30247
2.29118
2.27678
2.25995
2.24217
2.22539
2.2116
2.20231
2.19819
2.19924
2.20478
2.21348
2.22349
2.2327
2.23924
2.24184
2.24018
2.23496
2.22794
2.22169
2.21919
2.22337
2.23622
2.25859
2.29057
2.33186
2.381
2.43377
2.4839
2.52538
2.5538
2.56732
2.56705
2.55663
2.54122
2.52615
2.51561
2.51108
2.51234
2.51866
2.52899
2.54137
2.553
2.56118
2.56401
2.5609
2.55289
2.54247
2.53299
2.52782
2.52943
2.53804
2.55312
2.57324
2.59635
2.62063
2.64519
2.67049
2.69843
2.73212
2.77529
2.83223
2.91572
3.04832
3.23737
3.44702
3.63154
3.75692
3.80616
3.77635
3.6732
3.50805
3.29914
3.07377
2.86293
2.68017
2.52281
2.38453
2.26215
2.15549
2.0638
1.98554
1.91854
1.86001
1.80674
1.75516
1.70156
1.64226
1.57376
1.49231
1.37638
1.12517
0.756669
0.318751
-0.105915
0
1.06483
3.28211
6.38678
9.62892
12.024
12.7853
11.7011
9.23063
6.25718
3.6551
1.92812
1.10401
0.886178
0.912717
0.878819
0.843407
0.807545
0.77161
0.736169
0.701849
0.669182
0.638516
0.609967
0.583471
0.558895
0.536187
0.515499
0.497228
0.481957
0.470354
0.463017
0.460322
0.462328
0.468761
0.479081
0.492596
0.50861
0.526534
0.546004
0.566924
0.589405
0.613662
0.639864
0.667973
0.697664
0.728091
0.757918
0.785753
0.810647
0.832575
0.852754
0.873659
0.898693
0.931563
0.975534
1.03224
1.10156
1.18224
1.27224
1.369
1.46972
1.57179
1.67317
1.77249
1.86908
1.96274
2.0535
2.14131
2.22585
2.30638
2.382
2.45206
2.51644
2.5758
2.63171
2.68642
2.7424
2.80181
2.86663
2.93719
3.01074
3.08187
3.14311
3.18633
3.20468
3.19327
3.14993
3.07591
2.9762
2.85919
2.73543
2.61573
2.50776
2.41314
2.33118
2.262
2.2048
2.15822
2.12075
2.09101
2.06794
2.05067
2.03855
2.03089
2.0268
2.02519
2.02509
2.02591
2.02767
2.03108
2.03738
2.04796
2.06424
2.08749
2.11666
2.14613
2.16793
2.17417
2.15945
2.12254
2.06671
1.99854
1.92576
1.85501
1.78943
1.72901
1.67332
1.62212
1.57501
1.53161
1.4916
1.45463
1.42027
1.388
1.35729
1.32775
1.29928
1.27222
1.24737
1.22585
1.20888
1.19745
1.19217
1.19316
1.19939
1.20814
1.21581
1.21895
1.21513
1.20362
1.1857
1.1645
1.14451
1.13077
1.12738
1.13661
1.15967
1.19741
1.24985
1.31616
1.39496
1.48538
1.58841
1.70955
1.85994
2.03904
2.21764
2.35058
2.39457
2.32926
2.16768
1.95133
1.73471
1.56728
1.45684
1.37779
1.31583
1.26639
1.22845
1.2012
1.18383
1.17579
1.17625
1.18222
1.18752
1.18427
1.16398
1.11882
1.03818
0.870366
0.625725
0.326802
0.000602341
0
0.689886
2.3466
4.94839
8.05024
10.8535
12.5024
12.473
10.8282
8.17975
5.37696
3.11463
1.68525
0.983098
0.699926
0.582966
0.544787
0.511183
0.483195
0.460992
0.443927
0.430842
0.420374
0.411242
0.402401
0.393061
0.38261
0.370716
0.357425
0.343371
0.329942
0.319239
0.313758
0.315812
0.326865
0.346523
0.37284
0.403544
0.43549
0.465052
0.488864
0.504359
0.510119
0.506031
0.493266
0.474106
0.451676
0.429617
0.411673
0.401201
0.400957
0.413057
0.4389
0.478986
0.532941
0.599645
0.677431
0.764225
0.85785
0.95611
1.05677
1.15753
1.25601
1.34957
1.43572
1.51257
1.57908
1.63534
1.68263
1.72322
1.75999
1.79587
1.83332
1.87385
1.91785
1.96484
2.01347
2.06139
2.10506
2.14077
2.16518
2.17592
2.17196
2.15368
2.12254
2.0806
2.02992
1.97258
1.91055
1.84535
1.7784
1.7114
1.64643
1.58569
1.53114
1.48431
1.4458
1.41532
1.39184
1.37381
1.3595
1.34723
1.33546
1.32295
1.30903
1.29377
1.27802
1.26341
1.25203
1.24602
1.24717
1.25619
1.27253
1.29541
1.32344
1.35494
1.38757
1.41802
1.4427
1.4586
1.4639
1.45871
1.44538
1.42829
1.4129
1.40429
1.40621
1.42186
1.44516
1.46632
1.47604
1.46962
1.44911
1.42245
1.40022
1.39161
1.40025
1.42137
1.45085
1.48609
1.52462
1.56376
1.60031
1.63066
1.65175
1.66124
1.65811
1.64325
1.61968
1.59228
1.56684
1.54891
1.54229
1.54752
1.56374
1.59033
1.62659
1.6718
1.72558
1.78809
1.85994
1.94197
2.03494
2.1392
2.25548
2.38509
2.52765
2.67792
2.82427
2.95102
3.04554
3.09793
3.10055
3.04833
2.94075
2.78444
2.59489
2.39545
2.21268
2.06115
1.93851
1.83872
1.7601
1.70167
1.66107
1.63485
1.61906
1.60976
1.60333
1.59673
1.58751
1.5738
1.55419
1.52325
1.44461
1.2016
0.8095
0.330787
0
0.316392
1.71431
4.31509
7.70388
10.9739
13.0832
13.3502
11.7905
9.08106
6.18154
3.86344
2.42937
1.74219
1.46621
1.31525
1.21435
1.12146
1.03677
0.963949
0.905548
0.863033
0.836713
0.82571
0.828068
0.840994
0.861224
0.885478
0.910906
0.935503
0.958353
0.979375
0.999037
1.0182
1.03789
1.05901
1.08221
1.1077
1.13531
1.16454
1.19478
1.22547
1.25625
1.28712
1.31841
1.3508
1.38522
1.42278
1.46468
1.51213
1.56635
1.62845
1.69939
1.77982
1.86993
1.96928
2.07665
2.19007
2.30696
2.4244
2.53954
2.64996
2.75404
2.85101
2.94074
3.02257
3.09523
3.15809
3.21049
3.25197
3.28323
3.3068
3.32694
3.34857
3.37582
3.41058
3.45102
3.49407
3.53684
3.57643
3.61043
3.63724
3.6561
3.66685
3.66969
3.66486
3.6526
3.6329
3.60578
3.57158
3.53114
3.48594
3.43808
3.39011
3.3446
3.30383
3.26943
3.24248
3.22304
3.20866
3.19572
3.18093
3.16259
3.14145
3.12069
3.10504
3.09927
3.10854
3.13519
3.17268
3.21056
3.23814
3.24792
3.2375
3.20941
3.16935
3.12385
3.07838
3.03555
2.99623
2.96077
2.92931
2.90193
2.87882
2.86039
2.84718
2.8399
2.83932
2.846
2.86012
2.88128
2.90842
2.93995
2.97393
3.00834
3.04153
3.07242
3.10064
3.12636
3.14991
3.17121
3.18897
3.20005
3.20015
3.18432
3.1485
3.09106
3.01391
2.92263
2.82551
2.73176
2.64905
2.58149
2.53134
2.4968
2.47391
2.45817
2.44615
2.4365
2.43026
2.43036
2.44074
2.46452
2.50296
2.5563
2.6244
2.70754
2.80812
2.93339
3.09923
3.3236
3.58958
3.85077
4.05625
4.15369
4.10495
3.9042
3.58658
3.22222
2.90263
2.69882
2.56416
2.45589
2.36116
2.27779
2.20465
2.14026
2.08287
2.03019
1.97964
1.92853
1.87436
1.81506
1.7492
1.67597
1.58918
1.4437
1.15796
0.730282
0.228157
0
0.590811
2.36797
5.27071
8.68097
11.601
13.081
12.6683
10.6121
7.70525
4.87387
2.76747
1.57163
1.09052
0.979088
0.918335
0.848597
0.779743
0.713739
0.652511
0.597782
0.550995
0.513196
0.484827
0.465791
0.45549
0.452911
0.456764
0.465661
0.478292
0.493576
0.510754
0.52942
0.549499
0.571146
0.594657
0.620336
0.648344
0.678573
0.710584
0.743039
0.773628
0.799798
0.819504
0.831978
0.83817
0.840645
0.842901
0.848341
0.859291
0.876001
0.897938
0.923979
0.953274
0.985991
1.02365
1.0689
1.12482
1.19397
1.27704
1.37212
1.47653
1.58725
1.70042
1.81094
1.913
2.00174
2.07391
2.1282
2.16562
2.18943
2.20478
2.21797
2.23537
2.26229
2.30118
2.35408
2.42125
2.49596
2.56657
2.62159
2.65287
2.6577
2.63915
2.60443
2.56173
2.51682
2.47084
2.42177
2.36754
2.30589
2.23596
2.15889
2.07776
1.9969
1.92081
1.8525
1.794
1.7453
1.70473
1.66958
1.63688
1.60413
1.56982
1.53356
1.49595
1.45823
1.42176
1.38768
1.35687
1.32987
1.30693
1.28804
1.27301
1.2614
1.25255
1.24548
1.23882
1.23102
1.22052
1.20606
1.18683
1.16266
1.13402
1.10193
1.06781
1.0333
0.999897
0.968901
0.941261
0.917517
0.89763
0.881114
0.867257
0.855362
0.844955
0.835887
0.828293
0.822431
0.818475
0.816408
0.815947
0.816645
0.818267
0.821098
0.826084
0.8347
0.848531
0.868698
0.895919
0.928951
0.965045
1.00074
1.03283
1.05924
1.07971
1.096
1.11165
1.13143
1.16002
1.20186
1.27005
1.38507
1.54497
1.71583
1.85931
1.94631
1.96434
1.91701
1.81815
1.68518
1.53488
1.38289
1.23958
1.10921
0.993288
0.892693
0.808688
0.743106
0.697104
0.671103
0.665283
0.680161
0.71577
0.76769
0.824913
0.875688
0.909054
0.91617
0.816858
0.482512
0
-0.538118
-0.770976
-0.250036
1.35392
4.02722
7.26721
10.1831
11.8497
11.7422
9.99264
7.30572
4.58525
2.50983
1.30459
0.798473
0.660231
0.629178
0.607795
0.588523
0.57247
0.56069
0.554167
0.553825
0.56053
0.575011
0.597818
0.629224
0.669103
0.716842
0.771311
0.830923
0.893772
0.957817
1.02109
1.08184
1.13864
1.1904
1.23646
1.27659
1.31092
1.33995
1.36441
1.38518
1.40314
1.41914
1.43393
1.44826
1.46304
1.47949
1.49925
1.52435
1.55709
1.59968
1.65389
1.72069
1.79992
1.89056
1.9907
2.09782
2.20903
2.32152
2.43279
2.54077
2.64403
2.74182
2.83405
2.92115
3.00396
3.08349
3.16073
3.23677
3.3127
3.38966
3.46882
3.55127
3.63781
3.72871
3.82362
3.9206
4.01604
4.10486
4.1809
4.23879
4.27445
4.28546
4.27137
4.23382
4.17659
4.10531
4.02682
3.94839
3.87603
3.81288
3.76028
3.71939
3.69037
3.67251
3.66439
3.66431
3.67066
3.6822
3.69821
3.71845
3.74303
3.77217
3.80594
3.84412
3.88619
3.93129
3.97836
4.0263
4.07408
4.12093
4.16637
4.2102
4.2524
4.29306
4.33225
4.36986
4.40558
4.43907
4.47004
4.49836
4.52428
4.54837
4.5715
4.59459
4.61838
4.64327
4.66915
4.69558
4.72191
4.74742
4.77149
4.79372
4.81401
4.83262
4.85007
4.86712
4.88459
4.90317
4.92329
4.94503
4.96802
4.99142
5.01438
5.03639
5.05762
5.07901
5.10208
5.12863
5.16029
5.19821
5.24258
5.2933
5.35057
5.4149
5.48715
5.56849
5.66011
5.76411
5.88457
6.02234
6.16963
6.31225
6.43434
6.52283
6.56861
6.56629
6.51427
6.4158
6.2806
6.12512
5.97005
5.83425
5.72374
5.63267
5.5565
5.49324
5.44028
5.39524
5.3565
5.32339
5.29606
5.27493
5.26024
5.25142
5.24695
5.24491
5.23681
5.03919
4.63494
4.0994
3.5914
3.5983
196
402
612
822
1023
1223
1419
1609
1799
1993
2185
2382
2579
2777
2971
3170
3369
3562
3736
3265
3426
3585
3626
3696
0
0
0
0
0
0
0
0
0
0
0
0
0
0
0
0
0
0
0
0
0
0
0
0
0
0
0
0
0
0
0
0
0
0
0
0
0
0
0
0
0
0
0
0
0
0
0
0
0
0
0
0
0
0
0
0
0
0
0
0
0
0
0
0
0
0
0
0
0
0
0
0
0
0
0
0
0
0
0
0
0
0
0
0
0
0
0
0
0
0
0
0
0
0
0
0
0
0
0
0
0
0
0
0
0
0
0
0
0
0
0
0
0
0
0
0
0
0
0
0
0
0
0
0
0
0
0
0
0
0
0
0
0
0
0
0
0
0
0
0
0
0
0
0
0
0
0
0
0
0
0
0
0
0
0
0
0
0
0
0
0
0
0
0
0
0
0
0
0
0
0
0
0
0
0
0
0
0
0
0
0
0
0
0
0
0
0
0
0
0
0
0
0
0
0
0
0
0
0
0
0
0
0
0
0
0
0
0
0
0
0
0
0
0
0
0
0
0
0
0
0
0
0
0
0
0
0
0
0
0
0
0
0
0
0
0
0
0
0
0
0
0
0
0
0
0
0
0
0
0
0
0
0
0
0
0
0
0
0
0
0
0
0
0
0
0
0
0
0
0
0
0
0
0
0
0
0
0
0
0
0
0
0
0
0
0
0
0
0
0
0
0
0
0
0
0
0
0
0
0
0
0
0
0
0
0
0
0
0
0
0
0
0
0
0
0
0
0
0
0
0
0
0
0
0
0
0
0
0
0
0
0
0
0
0
0
0
0
0
0
0
0
0
0
0
0
0
0
0
0
0
0
0
0
0
0
0
0
0
0
0
0
0
0
0
0
0
0
0
0
0
0
0
0
0
0
0
0
0
0
0
0
0
0
0
0
0
0
0
0
0
0
0
0
0
0
0
0
0
0
0
0
0
0
0
0
0
0
0
0
0
0
0
0
0
0
0
0
0
0
0
0
0
0
0
0
0
0
0
0
0
0
0
0
0
0
0
0
0
0
0
0
0
0
0
0
0
0
0
0
0
0
0
0
0
0
0
0
0
0
0
0
0
0
0
0
0
0
0
0
0
0
0
0
0
0
0
0
0
0
0
0
0
0
0
0
0
0
0
0
0
0
0
0
0
0
0
0
0
0
0
0
0
0
0
0
0
0
0
0
0
0
0
0
0
0
0
0
0
0
0
0
0
0
0
0
0
0
0
0
0
0
0
0
0
0
0
0
0
0
0
0
0
0
0
0
0
0
0
0
0
0
0
0
0
0
0
0
0
0
0
0
0
0
0
0
0
0
0
0
0
0
0
0
0
0
0
0
0
0
0
0
0
0
0
0
0
0
0
0
0
0
0
0
0
0
0
0
0
0
0
0
0
0
0
0
0
0
0
0
0
0
0
0
0
0
0
0
0
0
0
0
0
0
0
0
0
0
0
0
0
0
0
0
0
0
0
0
0
0
0
0
0
0
0
0
0
0
0
0
0
0
0
0
0
0
0
0
0
0
0
0
0
0
0
0
0
0
0
0
0
0
0
0
0
0
0
0
0
0
0
0
0
0
0
0
0
0
0
0
0
0
0
0
0
0
0
0
0
0
0
0
0
0
0
0
0
0
0
0
0
0
0
0
0
0
0
0
0
0
0
0
0
0
0
0
0
0
0
0
0
0
0
0
0
0
0
0
0
0
0
0
0
0
0
0
0
0
0
0
0
0
0
0
0
0
0
0
0
0
0
0
0
0
0
0
0
0
0
0
0
0
0
0
0
0
0
0
0
0
0
0
0
0
0
0
0
0
0
0
0
0
0
0
0
0
0
0
0
0
0
0
0
0
0
0
0
0
0
0
0
0
0
0
0
0
0
0
0
0
0
0
0
0
0
0
0
0
0
0
0
0
0
0
0
0
0
0
0
0
0
0
0
0
0
0
0
0
0
0
0
0
0
0
0
0
0
0
0
0
0
0
0
0
0
0
0
0
0
0
0
0
0
0
0
0
0
0
0
0
0
0
0
0
0
0
0
0
0
0
0
0
0
0
0
0
0
0
0
0
0
0
0
0
0
0
0
0
0
0
0
0
0
0
0
0
0
0
0
0
0
0
0
0
0
0
0
0
0
0
0
0
0
0
0
0
0
0
0
0
0
0
0
0
0
0
0
0
0
0
0
0
0
0
0
0
0
0
0
0
0
0
0
0
0
0
0
0
0
0
0
0
0
0
0
0
0
0
0
0
0
0
0
0
0
0
0
0
0
0
0
0
0
0
0
0
0
0
0
0
0
0
0
0
0
0
0
0
0
0
0
0
0
0
0
0
0
0
0
0
0
0
0
0
0
0
0
0
0
0
0
0
0
0
0
0
0
0
0
0
0
0
0
0
0
0
0
0
0
0
0
0
0
0
0
0
0
0
0
0
0
0
0
0
0
0
0
0
0
0
0
0
0
0
0
0
0
0
0
0
0
0
0
0
0
0
0
0
0
0
0
0
0
0
0
0
0
0
0
0
0
0
0
0
0
0
0
0
0
0
0
0
0
0
0
0
0
0
0
0
0
0
0
0
0
0
0
0
0
0
0
0
0
0
0
0
0
0
0
0
0
0
0
0
0
0
0
0
0
0
0
0
0
0
0
0
0
0
0
0
0
0
0
0
0
0
0
0
0
0
0
0
0
0
0
0
0
0
0
0
0
0
0
0
0
0
0
0
0
0
0
0
0
0
0
0
0
0
0
0
0
0
0
0
0
0
0
0
0
0
0
0
0
0
0
0
0
0
0
0
0
0
0
0
0
0
0
0
0
0
0
0
0
0
0
0
0
0
0
0
0
0
0
0
0
0
0
0
0
0
0
0
0
0
0
0
0
0
0
0
0
0
0
0
0
0
0
0
0
0
0
0
0
0
0
0
0
0
0
0
0
0
0
0
0
0
0
0
0
0
0
0
0
0
0
0
0
0
0
0
0
0
0
0
0
0
0
0
0
0
0
0
0
0
0
0
0
0
0
0
0
0
0
0
0
0
0
0
0
0
0
0
0
0
0
0
0
0
0
0
0
0
0
0
0
0
0
0
0
0
0
0
0
0
0
0
0
0
0
0
0
0
0
0
0
0
0
0
0
0
0
0
0
0
0
0
0
0
0
0
0
0
0
0
0
0
0
0
0
0
0
0
0
0
0
0
0
0
0
0
0
0
0
0
0
0
0
0
0
0
0
0
0
0
0
0
0
0
0
0
0
0
0
0
0
0
0
0
0
0
0
0
0
0
0
0
0
0
0
0
0
0
0
0
0
0
0
0
0
0
0
0
0
0
0
0
0
0
0
0
0
0
0
0
0
0
0
0
0
0
0
0
0
0
0
0
0
0
0
0
0
0
0
0
0
0
0
0
0
0
0
0
0
0
0
0
0
0
0
0
0
0
0
0
0
0
0
0
0
0
0
0
0
0
0
0
0
0
0
0
0
0
0
0
0
0
0
0
0
0
0
0
0
0
0
0
0
0
0
0
0
0
0
0
0
0
0
0
0
0
0
0
0
0
0
0
0
0
0
0
0
0
0
0
0
0
0
0
0
0
0
0
0
0
0
0
0
0
0
0
0
0
0
0
0
0
0
0
0
0
0
0
0
0
0
0
0
0
0
0
0
0
0
0
0
0
0
0
0
0
0
0
0
0
0
0
0
0
0
0
0
0
0
0
0
0
0
0
0
0
0
0
0
0
0
0
0
0
0
0
0
0
0
0
0
0
0
0
0
0
0
0
0
0
0
0
0
0
0
0
0
0
0
0
0
0
0
0
0
0
0
0
0
0
0
0
0
0
0
0
0
0
0
0
0
0
0
0
0
0
0
0
0
0
0
0
0
0
0
0
0
0
0
0
0
0
0
0
0
0
0
0
0
0
0
0
0
0
0
0
0
0
0
0
0
0
0
0
0
0
0
0
0
0
0
0
0
0
0
0
0
0
0
0
0
0
0
0
0
0
0
0
0
0
0
0
0
0
0
0
0
0
0
0
0
0
0
0
0
0
0
0
0
0
0
0
0
0
0
0
0
0
0
0
0
0
0
0
0
0
0
0
0
0
0
0
0
0
0
0
0
0
0
0
0
0
0
0
0
0
0
0
0
0
0
0
0
0
0
0
0
0
0
0
0
0
0
0
0
0
0
0
0
0
0
0
0
0
0
0
0
0
0
0
0
0
0
0
0
0
0
0
0
0
0
0
0
0
0
0
0
0
0
0
0
0
0
0
0
0
0
0
0
0
0
0
0
0
0
0
0
0
0
0
0
0
0
0
0
0
0
0
0
0
0
0
0
0
0
0
0
0
0
0
0
0
0
0
0
0
0
0
0
0
0
0
0
0
0
0
0
0
0
0
0
0
0
0
0
0
0
0
0
0
0
0
0
0
0
0
0
0
0
0
0
0
0
0
0
0
0
0
0
0
0
0
0
0
0
0
0
0
0
0
0
0
0
0
0
0
0
0
0
0
0
0
0
0
0
0
0
0
0
0
0
0
0
0
0
0
0
0
0
0
0
0
0
0
0
0
0
0
0
0
0
0
0
0
0
0
0
0
0
0
0
0
0
0
0
0
0
0
0
0
0
0
0
0
0
0
0
0
0
0
0
0
0
0
0
0
0
0
0
0
0
0
0
0
0
0
0
0
0
0
0
0
0
0
0
0
0
0
0
0
0
0
0
0
0
0
0
0
0
0
0
0
0
0
0
0
0
0
0
0
0
0
0
0
0
0
0
0
0
0
0
0
0
0
0
0
0
0
0
0
0
0
0
0
0
0
0
0
0
0
0
0
0
0
0
0
0
0
0
0
0
0
0
0
0
0
0
0
0
0
0
0
0
0
0
0
0
0
0
0
0
0
0
0
0
0
0
0
0
0
0
0
0
0
0
0
0
0
0
0
0
0
0
0
0
0
0
0
0
0
0
0
0
0
0
0
0
0
0
0
0
0
0
0
0
0
0
0
0
0
0
0
0
0
0
0
0
0
0
0
0
0
0
0
0
0
0
0
0
0
0
0
0
0
0
0
0
0
0
0
0
0
0
0
0
0
0
0
0
0
0
0
0
0
0
0
0
0
0
0
0
0
0
0
0
0
0
0
0
0
0
0
0
0
0
0
0
0
0
0
0
0
0
0
0
0
0
0
0
0
0
0
0
0
0
0
0
0
0
0
0
0
0
0
0
0
0
0
0
0
0
0
0
0
0
0
0
0
0
0
0
0
0
0
0
0
0
0
0
0
0
0
0
0
0
0
0
0
0
0
0
0
0
0
0
0
0
0
0
0
0
0
0
0
0
0
0
0
0
0
0
0
0
0
0
0
0
0
0
0
0
0
0
0
0
0
0
0
0
0
0
0
0
0
0
0
0
0
0
0
0
0
0
0
0
0
0
0
0
0
0
0
0
0
0
0
0
0
0
0
0
0
0
0
0
0
0
0
0
0
0
0
0
0
0
0
0
0
0
0
0
0
0
0
0
0
0
0
0
0
0
0
0
0
0
0
0
0
0
0
0
0
0
0
0
0
0
0
0
0
0
0
0
0
0
0
0
0
0
0
0
0
0
0
0
0
0
0
0
0
0
0
0
0
0
0
0
0
0
0
0
0
0
0
0
0
0
0
0
0
0
0
0
0
0
0
0
0
0
0
0
0
0
0
0
0
0
0
0
0
0
0
0
0
0
0
0
0
0
0
0
0
0
0
0
0
0
0
0
0
0
0
0
0
0
0
0
0
0
0
0
0
0
0
0
0
0
0
0
0
0
0
0
0
0
0
0
0
0
0
0
0
0
0
0
0
0
0
0
0
0
0
0
0
0
0
0
0
0
0
0
0
0
0
0
0
0
0
0
0
0
0
0
0
0
0
0
0
0
0
0
0
0
0
0
0
0
0
0
0
0
0
0
0
0
0
0
0
0
0
0
0
0
0
0
0
0
0
0
0
0
0
0
0
0
0
0
0
0
0
0
0
0
0
0
0
0
0
0
0
0
0
0
0
0
0
0
0
0
0
0
0
0
0
0
0
0
0
0
0
0
0
0
0
0
0
0
0
0
0
0
0
0
0
0
0
0
0
0
0
0
0
0
0
0
0
0
0
0
0
0
0
0
0
0
0
0
0
0
0
0
0
0
0
0
0
0
0
0
0
0
0
0
0
0
0
0
0
0
0
0
0
0
0
0
0
0
0
0
0
0
0
0
0
0
0
0
0
0
0
0
0
0
0
0
0
0
0
0
0
0
0
0
0
0
0
0
0
0
0
0
0
0
0
0
0
0
0
0
0
0
0
0
0
0
0
0
0
0
0
0
0
0
0
0
0
0
0
0
0
0
0
0
0
0
0
0
0
0
0
0
0
0
0
0
0
0
0
0
0
0
0
0
0
0
0
0
0
0
0
0
0
0
0
0
0
0
0
0
0
0
0
0
0
0
0
0
0
0
0
0
0
0
0
0
0
0
0
0
0
0
0
0
0
0
0
0
0
0
0
0
0
0
0
0
0
0
0
0
0
0
0
0
0
0
0
0
0
0
0
0
0
0
0
0
0
0
0
0
0
0
0
0
0
0
0
0
0
0
0
0
0
0
0
0
0
0
0
0
0
0
0
0
0
0
0
0
0
0
0
0
0
0
0
0
0
0
0
0
0
0
0
0
0
0
0
0
0
0
0
0
0
0
0
0
0
0
0
0
0
0
0
0
0
0
0
0
0
0
0
0
0
0
0
0
0
0
0
0
0
0
0
0
0
0
0
0
0
0
0
0
0
0
0
0
0
0
0
0
0
0
0
0
0
0
0
0
0
0
0
0
0
0
0
0
0
0
0
0
0
0
0
0
0
0
0
0
0
0
0
0
0
0
0
0
0
0
0
0
0
0
0
0
0
0
0
0
0
0
0
0
0
0
0
0
0
0
0
0
0
0
0
0
0
0
0
0
0
0
0
0
0
0
0
0
0
0
0
0
0
0
0
0
0
0
0
0
0
0
0
0
0
0
0
0
0
0
0
0
0
0
0
0
0
0
0
0
0
0
0
0
0
0
0
0
0
0
0
0
0
0
0
0
0
0
0
0
0
0
0
0
0
0
0
0
0
0
0
0
0
0
0
0
0
0
0
0
0
0
0
0
0
0
0
0
0
0
0
0
0
0
0
0
0
0
0
0
0
0
0
0
0
0
0
0
0
0
0
0
0
0
0
0
0
0
0
0
0
0
0
0
0
0
0
0
0
0
0
0
0
0
0
0
0
0
0
0
0
0
0
0
0
0
0
0
0
0
0
0
0
0
0
0
0
0
0
0
0
0
0
0
0
0
0
0
0
0
0
0
0
0
0
0
0
0
0
0
0
0
0
0
0
0
0
0
0
0
0
0
0
0
0
0
0
0
0
0
0
0
0
0
0
0
0
0
0
0
0
0
0
0
0
0
0
0
0
0
0
0
0
0
0
0
0
0
0
0
0
0
0
0
0
0
0
0
0
0
0
0
0
0
0
0
0
0
0
0
0
0
0
0
0
0
0
0
0
0
0
0
0
0
0
0
0
0
0
0
0
0
0
0
0
0
0
0
0
0
0
0
0
0
0
0
0
0
0
0
0
0
0
0
0
0
0
0
0
0
0
0
0
0
0
0
0
0
0
0
0
0
0
0
0
0
0
0
0
0
0
0
0
0
0
0
0
0
0
0
0
0
0
0
0
0
0
0
0
0
0
0
0
0
0
0
0
0
0
0
0
0
0
0
0
0
0
0
0
0
0
0
0
0
0
0
0
0
0
0
0
0
0
0
0
0
0
0
0
0
0
0
0
0
0
0
0
0
0
0
0
0
0
0
0
0
0
0
0
0
0
0
0
0
0
0
0
0
0
0
0
0
0
0
0
0
0
0
0
0
0
0
0
0
0
0
0
0
0
0
0
0
0
0
0
0
0
0
0
0
0
0
0
0
0
0
0
0
0
0
0
0
0
0
0
0
0
0
0
0
0
0
0
0
0
0
0
0
0
0
0
0
0
0
0
0
0
0
0
0
0
0
0
0
0
0
0
0
0
0
0
0
0
0
0
0
0
0
0
0
0
0
0
0
0
0
0
0
0
0
0
0
0
0
0
0
0
0
0
0
0
0
0
0
0
0
0
0
0
0
0
0
0
0
0
0
0
0
0
0
0
0
0
0
0
0
0
0
0
0
0
0
0
0
0
0
0
0
0
0
0
0
0
0
0
0
0
0
0
0
0
0
0
0
0
0
0
0
0
0
0
0
0
0
0
0
0
0
0
0
0
0
0
0
0
0
0
0
0
0
0
0
0
0
0
0
0
0
0
0
0
0
0
0
0
0
0
0
0
0
0
0
0
0
0
0
0
0
0
0
0
0
0
0
0
0
0
0
0
0
0
0
0
0
0
0
0
0
0
0
0
0
0
0
0
0
0
0
0
0
0
0
0
0
0
0
0
0
