1.43193
1.50819
1.56961
1.61063
1.62648
1.61431
1.57418
1.50948
1.42648
1.33319
1.23791
1.14705
1.06439
0.992201
0.932323
0.885813
0.852951
0.83463
0.832088
0.841733
0.855802
0.865076
0.860597
0.835296
0.784826
0.707383
0.602886
0.472197
0.320037
0.15166
-0.0301129
-0.221171
-0.419401
-0.457024
0
1.01209
2.49605
4.18508
5.71256
6.72353
6.96038
6.30464
4.80703
2.723
0.50963
-1.27468
-2.16995
-1.97576
-0.958042
0.190655
1.18162
1.70206
1.82627
1.91699
1.99799
2.07696
2.15813
2.2421
2.32481
2.39976
2.46056
2.50332
2.52828
2.54004
2.54668
2.55795
2.58312
2.62762
2.69322
2.77967
2.88572
3.00946
3.14827
3.3003
3.4644
3.6333
3.79028
3.91641
3.99599
4.02329
4.00719
3.97071
3.94499
3.96051
4.0388
4.16724
4.33104
4.52339
4.73952
4.97358
5.21888
5.4683
5.71491
5.95248
6.17631
6.38366
6.57396
6.74818
6.90539
7.04129
7.15089
7.22396
7.24371
7.19499
7.07271
6.88498
6.64835
6.37755
6.07629
5.74679
5.39323
5.01121
4.59996
4.16376
3.712
3.25816
2.81706
2.40254
2.02641
1.6971
1.41817
1.18931
1.00741
0.867935
0.766082
0.697522
0.658533
0.648274
0.667735
0.716252
0.783556
0.851148
0.901064
0.92099
0.908189
0.870425
0.823121
0.783565
0.764431
0.76691
0.782118
0.803436
0.823168
0.834674
0.834009
0.820685
0.797466
0.769326
0.741893
0.719567
0.704874
0.69841
0.698777
0.703715
0.71115
0.719788
0.728959
0.73779
0.743665
0.741807
0.726635
0.694748
0.648085
0.595571
0.554236
0.602307
0.802639
1.08487
1.30033
1.31443
1.09554
0.73913
0.407407
0.224325
0.204657
0.223766
0.248844
0.270927
0.285354
0.291914
0.293901
0.296507
0.304954
0.321903
0.348805
0.387124
0.437191
0.492771
0.540866
0.56754
0.562313
0.522148
0.453216
0.369374
0.287765
0.223428
0.182141
0.159157
0.15277
0.160867
0.180841
0.209693
0.244763
0.283961
0.324939
0.364723
0.400069
0.427876
0.445684
0.45208
0.446869
0.430946
0.405959
0.373898
0.336964
0.297149
0.2562
0.216043
0.178967
0.147624
0.12482
0.113061
0.114136
0.128685
0.155981
0.194009
0.239875
0.290417
0.342825
0.395039
0.445835
0.49416
0.53831
0.576006
0.603935
0.618338
0.616245
0.596702
0.561411
0.514474
0.461364
0.407547
0.356922
0.311457
0.272472
0.241517
0.221443
0.217869
0.236089
0.2818
0.359359
0.469956
0.610477
0.773549
0.948765
1.12457
1.291
1.43774
1.55309
1.62892
1.65923
1.63898
1.56502
1.43775
1.26275
1.05151
0.820657
0.589801
0.376204
0.188879
0.0369994
-0.0529627
-0.0129377
0.230313
0.589769
0.938717
1.17401
1.22948
1.09289
0.811123
0.473385
0.179206
0.00588723
-0.0731974
-0.111747
-0.132305
-0.14228
-0.135086
0
0.427376
1.28573
2.59198
4.1652
5.63225
6.52837
6.46983
5.33919
3.38922
1.18567
-0.616517
-1.55902
-1.5622
-0.87313
-0.227296
0.324931
0.736008
0.980738
1.16873
1.3238
1.45065
1.5546
1.64114
1.71553
1.78238
1.84534
1.90682
1.96791
2.02826
2.08611
2.13943
2.18732
2.23118
2.27521
2.3258
2.38993
2.47292
2.57656
2.69652
2.82657
2.9594
3.08789
3.20685
3.31428
3.41154
3.50258
3.59243
3.68554
3.78441
3.88896
3.99784
4.10913
4.22141
4.33467
4.45075
4.5732
4.70643
4.8547
5.02098
5.20588
5.40775
5.62379
5.85031
6.08265
6.31413
6.53422
6.72839
6.88358
6.98357
7.01083
6.95156
6.80057
6.56286
6.25026
5.875
5.44503
4.97811
4.49187
3.99701
3.50138
3.01433
2.54642
2.10825
1.70913
1.35588
1.05198
0.797671
0.590208
0.423935
0.292035
0.187754
0.105379
0.0407499
-0.00874448
-0.0445647
-0.0665339
-0.074191
-0.0708884
-0.0645279
-0.0635598
-0.0739589
-0.0965323
-0.125875
-0.151629
-0.161715
-0.144181
-0.0844723
0.0114494
0.117796
0.204085
0.245428
0.229261
0.157461
0.044724
-0.0855577
-0.206893
-0.297731
-0.351383
-0.37228
-0.366741
-0.338936
-0.290777
-0.224348
-0.142492
-0.0505364
0.0408077
0.117489
0.16572
0.174546
0.138595
0.0599114
-0.0520621
-0.182615
-0.31528
-0.435464
-0.536968
-0.619715
-0.683134
-0.724923
-0.74361
-0.738529
-0.706253
-0.638399
-0.536024
-0.422633
-0.326238
-0.270407
-0.26565
-0.305425
-0.369233
-0.431957
-0.475236
-0.496872
-0.508967
-0.52163
-0.543684
-0.578595
-0.622785
-0.66705
-0.70045
-0.714946
-0.711321
-0.69406
-0.669611
-0.64523
-0.626587
-0.616239
-0.613461
-0.615337
-0.618511
-0.620773
-0.621988
-0.62318
-0.625877
-0.631313
-0.639736
-0.650064
-0.659961
-0.666284
-0.665996
-0.657062
-0.638505
-0.610131
-0.572847
-0.530352
-0.488093
-0.451466
-0.424518
-0.409036
-0.404323
-0.407698
-0.415512
-0.424265
-0.431537
-0.436412
-0.438776
-0.439104
-0.438244
-0.437221
-0.437138
-0.438998
-0.4435
-0.450752
-0.459967
-0.46923
-0.475448
-0.474508
-0.461625
-0.431828
-0.381668
-0.308005
-0.208269
-0.0748589
0.113932
0.371074
0.662332
0.93536
1.14481
1.26546
1.29372
1.23937
1.11487
0.930524
0.698469
0.445326
0.201517
-0.00801582
-0.169351
-0.282292
-0.343613
-0.334388
-0.275267
-0.195651
-0.123709
-0.0772047
-0.0590706
-0.0595045
-0.0632316
-0.0581536
-0.0414946
-0.0210962
-0.00459166
0
-0.00994406
-0.0404437
-0.0904054
-0.155693
-0.230307
-0.322458
-0.17662
0.387577
1.45854
2.92015
4.42649
5.49482
5.698
4.86798
3.19781
1.17665
-0.616114
-1.74725
-2.07126
-1.53095
-0.90781
-0.236734
0.358245
0.72732
0.948949
1.12142
1.25694
1.3627
1.4484
1.52463
1.60107
1.68481
1.77834
1.88107
1.99103
2.10358
2.21236
2.31141
2.39677
2.46756
2.52636
2.57883
2.63255
2.69521
2.77277
2.86777
2.97817
3.09908
3.22512
3.35071
3.47149
3.58513
3.6916
3.79268
3.89111
3.98972
4.09071
4.19574
4.30622
4.42379
4.55078
4.69023
4.84542
5.01905
5.21216
5.42326
5.6478
5.87859
6.10663
6.32135
6.51171
6.66794
6.78204
6.84747
6.85882
6.81147
6.70162
6.52673
6.28639
5.98325
5.62454
5.22127
4.78747
4.33961
3.89389
3.46528
3.06687
2.7088
2.39745
2.13512
1.92011
1.74714
1.60816
1.4934
1.39192
1.29301
1.18723
1.06731
0.924483
0.743559
0.524877
0.310453
0.152324
0.094979
0.158717
0.329802
0.562604
0.79521
0.973496
1.08123
1.14181
1.16938
1.18019
1.18473
1.18393
1.17132
1.13884
1.08363
1.01204
0.938642
0.880855
0.851641
0.849114
0.867255
0.896442
0.925753
0.946656
0.95542
0.953546
0.94638
0.940765
0.942528
0.953707
0.974719
1.00582
1.04689
1.09721
1.15574
1.22109
1.28786
1.34211
1.36626
1.34445
1.26949
1.14801
1.00079
0.856984
0.744244
0.679566
0.649611
0.650145
0.673923
0.713661
0.76348
0.819861
0.881928
0.947165
1.00967
1.06117
1.09321
1.1
1.08055
1.03918
0.98431
0.926366
0.874907
0.834896
0.807835
0.793652
0.7918
0.800138
0.815015
0.83252
0.849323
0.863337
0.874044
0.882437
0.890639
0.901348
0.91702
0.939276
0.969033
1.00684
1.05234
1.10163
1.14732
1.18191
1.20038
1.20235
1.19269
1.17997
1.17334
1.1789
1.19634
1.22141
1.24744
1.26767
1.27772
1.27714
1.26946
1.26122
1.26043
1.27351
1.30381
1.35472
1.42926
1.53272
1.67871
1.87405
2.09213
2.29299
2.43943
2.50815
2.49507
2.41306
2.28422
2.13116
1.97185
1.81815
1.67493
1.54481
1.43066
1.33556
1.26221
1.21207
1.18502
1.17986
1.19563
1.22989
1.27011
1.2954
1.28393
1.21791
1.08873
0.899919
0.666258
0.40915
0.150642
-0.0931702
0
0.589598
1.48978
2.6998
4.14438
5.60337
6.71922
7.11539
6.57505
5.174
3.28527
1.4408
0.119925
-0.428501
-0.231241
0.194278
0.592243
0.939077
1.22332
1.45919
1.66946
1.86059
2.0364
2.19769
2.34369
2.47042
2.57291
2.64953
2.70496
2.75021
2.7997
2.86769
2.97329
3.10263
3.22513
3.31044
3.34634
3.34719
3.34804
3.38692
3.48497
3.6293
3.78802
3.94551
4.08944
4.21342
4.31813
4.41021
4.49952
4.5959
4.70485
4.82691
4.96142
5.10624
5.25832
5.41361
5.56892
5.7228
5.87598
6.03119
6.19242
6.36383
6.54857
6.74782
6.96315
7.19419
7.43199
7.65381
7.83433
7.95101
7.98733
7.93516
7.79458
7.5707
7.26916
6.89384
6.45878
5.98768
5.49807
5.00159
4.508
4.02737
3.56959
3.14352
2.75616
2.41214
2.11345
1.85958
1.64793
1.47444
1.33433
1.22281
1.13575
1.06996
1.02338
0.994861
0.984336
0.993075
1.02281
1.07157
1.12811
1.17632
1.20098
1.19258
1.15096
1.08597
1.0148
0.956631
0.926654
0.926313
0.946846
0.981318
1.02486
1.07034
1.11003
1.13755
1.14858
1.14113
1.11533
1.07294
1.01685
0.950763
0.879404
0.807945
0.742239
0.688604
0.652952
0.639575
0.649953
0.684182
0.737148
0.798466
0.856377
0.900526
0.924049
0.924632
0.904386
0.868705
0.824449
0.777986
0.733555
0.692555
0.654589
0.61892
0.585319
0.554924
0.530446
0.516369
0.525622
0.561793
0.604045
0.619264
0.579063
0.478109
0.34153
0.215051
0.142298
0.142411
0.180049
0.237882
0.297583
0.346755
0.382826
0.412239
0.445836
0.4978
0.562
0.614084
0.623968
0.573041
0.466524
0.334354
0.219665
0.159952
0.164251
0.209719
0.276778
0.342309
0.38801
0.405888
0.39856
0.374628
0.341926
0.302507
0.254764
0.194471
0.119387
0.0322063
-0.0583251
-0.13852
-0.192799
-0.174243
-0.0383114
0.165335
0.354236
0.454104
0.433263
0.313971
0.157823
0.0353426
-0.0051136
0.0195291
0.0761798
0.145921
0.20924
0.252828
0.274789
0.285982
0.306458
0.358009
0.455679
0.621083
0.833
1.03991
1.18959
1.24988
1.22026
1.13119
1.03215
0.971852
0.988484
1.06829
1.15862
1.19744
1.15015
1.03054
0.890989
0.786753
0.73784
0.709957
0.668091
0.58604
0.4564
0.294956
0.133908
0.007761
-0.0607726
-0.0918608
-0.0962558
-0.0810245
-0.0548855
-0.0265161
-0.00565825
0
-0.0136551
-0.0495582
-0.106906
-0.182364
-0.397121
-0.320895
0.377335
1.66595
3.2182
4.55835
5.27441
5.17278
4.31115
2.93224
1.36301
-0.0723454
-1.11473
-1.61112
-1.26174
-0.833756
-0.393062
0.0246641
0.380416
0.654413
0.881355
1.06915
1.21534
1.32368
1.39976
1.45062
1.4848
1.51208
1.54268
1.58577
1.6476
1.73001
1.82811
1.93622
2.04536
2.14678
2.23422
2.30557
2.3632
2.41308
2.46288
2.51988
2.5886
2.66971
2.7617
2.86224
2.96888
3.07964
3.19365
3.31144
3.43497
3.56722
3.71169
3.8717
4.04987
4.24747
4.46413
4.69748
4.94313
5.19539
5.44558
5.68252
5.89494
6.07313
6.21069
6.30467
6.35544
6.3659
6.34027
6.28268
6.19583
6.07995
5.93294
5.75238
5.53645
5.28338
4.99161
4.66119
4.29516
3.89962
3.48326
3.05666
2.63124
2.21832
1.82823
1.46954
1.14864
0.87209
0.646118
0.467562
0.328316
0.218612
0.129269
0.0536735
-0.011092
-0.0642961
-0.102717
-0.122477
-0.123148
-0.105032
-0.0702842
-0.0226736
0.031886
0.0870772
0.137684
0.180564
0.215001
0.242354
0.26515
0.285908
0.306087
0.325432
0.341871
0.352259
0.353521
0.343708
0.322595
0.291689
0.253755
0.212158
0.170351
0.131275
0.097371
0.0711335
0.0552117
0.0521449
0.0650662
0.0982042
0.155632
0.234532
0.319437
0.390964
0.431422
0.4299
0.38551
0.307684
0.213452
0.122649
0.0526852
0.008603
-0.0133018
-0.0172588
-0.00634356
0.0164361
0.0475479
0.0829714
0.117731
0.14678
0.16587
0.172102
0.164388
0.143683
0.112857
0.0762101
0.0386982
0.00495153
-0.0221062
-0.0410208
-0.0509726
-0.0524085
-0.0475477
-0.0396671
-0.0322782
-0.0284234
-0.0300734
-0.0377296
-0.0502756
-0.065068
-0.0782305
-0.0853266
-0.0821878
-0.0630761
-0.015643
0.0749711
0.192567
0.302777
0.367298
0.359804
0.27876
0.150103
0.0174944
-0.0756322
-0.103369
-0.0879791
-0.0512988
-0.00183849
0.0542453
0.111764
0.167045
0.217874
0.262993
0.301674
0.333113
0.35606
0.369113
0.371225
0.362103
0.342715
0.315519
0.284304
0.253657
0.228248
0.212162
0.207931
0.217354
0.241822
0.282389
0.339952
0.414268
0.505095
0.612108
0.735313
0.871334
1.00965
1.13566
1.23539
1.29876
1.3219
1.30779
1.26515
1.2059
1.14206
1.08273
1.03136
0.987384
0.948992
0.914079
0.880301
0.845268
0.806817
0.763132
0.712765
0.654499
0.587676
0.51229
0.429294
0.339963
0.248447
0.162118
0.0890268
0.0359219
0.00641799
0
0.014148
0.0394393
0.0670596
0.0262677
0.186764
0.888294
2.17636
3.82035
5.39583
6.45192
6.67198
5.96191
4.46261
2.5025
0.507703
-1.11497
-2.0923
-2.29323
-1.9419
-1.18133
-0.234725
0.693334
1.36222
1.60306
1.75837
1.8919
2.01003
2.11735
2.21926
2.32119
2.42899
2.54968
2.68781
2.83369
2.96389
3.05132
3.07398
3.02359
2.91178
2.77155
2.65158
2.60286
2.64833
2.76488
2.92463
3.11541
3.32158
3.5269
3.7186
3.88718
4.02809
4.1425
4.23618
4.31802
4.39829
4.48669
4.59072
4.71456
4.85872
5.01924
5.19072
5.36821
5.54677
5.722
5.88904
6.04306
6.18133
6.30253
6.40732
6.49862
6.5811
6.65917
6.73639
6.80952
6.86588
6.88642
6.85112
6.7439
6.55527
6.28258
5.92936
5.50498
5.03585
4.54432
4.04527
3.54985
3.06832
2.60992
2.18243
1.79333
1.45479
1.176
0.958378
0.800832
0.699419
0.647094
0.63397
0.648277
0.677894
0.712037
0.742895
0.766966
0.782407
0.789065
0.788057
0.781352
0.771223
0.759805
0.748881
0.739709
0.73302
0.728945
0.726935
0.726403
0.727251
0.730253
0.737045
0.74966
0.770167
0.801122
0.839503
0.878056
0.908473
0.924719
0.925473
0.914377
0.897965
0.882384
0.870617
0.860987
0.850537
0.835604
0.812814
0.779716
0.73496
0.678265
0.610601
0.535585
0.456538
0.380585
0.317948
0.279539
0.274199
0.3059
0.373041
0.471702
0.58163
0.680385
0.749743
0.780388
0.773283
0.73753
0.685943
0.630423
0.578674
0.532406
0.491249
0.455158
0.423804
0.397232
0.375417
0.358783
0.34827
0.345247
0.351165
0.367252
0.396899
0.43688
0.477912
0.509352
0.523802
0.520862
0.50775
0.496166
0.496961
0.515545
0.546744
0.586607
0.630957
0.677074
0.724384
0.773699
0.825743
0.878954
0.928687
0.968348
0.991571
0.994381
0.976437
0.941078
0.894574
0.84512
0.800664
0.768503
0.755014
0.764799
0.800038
0.860345
0.943311
1.04557
1.16397
1.29678
1.45287
1.64808
1.86841
2.07214
2.20477
2.22525
2.12626
1.93568
1.70075
1.46829
1.27438
1.12063
0.997046
0.901457
0.852766
0.867765
0.91899
0.964807
0.96421
0.894694
0.76406
0.609222
0.481818
0.469922
0.596587
0.78774
0.927902
0.92386
0.749821
0.448611
0.0920713
-0.266636
0
0.727655
1.76256
2.98156
4.28063
5.5179
6.45363
6.76347
6.16777
4.62277
2.43906
0.214495
-1.41935
-2.09394
-1.74064
-1.02114
-0.167307
0.570555
1.07036
1.34208
1.55748
1.74975
1.91813
2.06477
2.19459
2.31442
2.43169
2.55438
2.6909
2.83263
2.95933
3.04926
3.09039
3.08748
3.06139
3.0409
3.05102
3.10401
3.18522
3.28336
3.39379
3.51362
3.64245
3.78173
3.9331
4.0963
4.26802
4.44123
4.60649
4.75476
4.8802
4.98218
5.06589
5.14131
5.22108
5.31766
5.43814
5.58516
5.75887
5.95694
6.17479
6.40632
6.645
6.88298
7.10778
7.30569
7.46554
7.5775
7.63386
7.62955
7.5619
7.42948
7.23079
6.96405
6.63727
6.26288
5.85119
5.41197
4.95602
4.49429
4.03771
3.59694
3.18129
2.79801
2.45184
2.14505
1.87782
1.64873
1.45566
1.2965
1.16795
1.0667
0.98959
0.933747
0.896524
0.875404
0.868385
0.873031
0.885509
0.901054
0.914477
0.920762
0.915868
0.897578
0.866219
0.825068
0.780281
0.740225
0.714229
0.712053
0.763513
0.887226
1.04796
1.19317
1.27655
1.27902
1.21572
1.12517
1.04724
1.00273
0.979662
0.962102
0.941615
0.913336
0.877723
0.840043
0.808054
0.788965
0.784849
0.792938
0.811114
0.83644
0.864491
0.890571
0.910929
0.923392
0.927591
0.924739
0.917026
0.906792
0.895718
0.884297
0.871806
0.856623
0.836711
0.810178
0.775769
0.733199
0.68328
0.627854
0.569684
0.511909
0.457804
0.410629
0.373406
0.348807
0.338748
0.344316
0.367073
0.408067
0.463501
0.523967
0.578598
0.617205
0.632376
0.62094
0.584486
0.528989
0.46379
0.400198
0.348356
0.315431
0.305972
0.32184
0.363175
0.428368
0.516228
0.619569
0.725571
0.821292
0.895954
0.942662
0.959215
0.947966
0.914992
0.868897
0.819577
0.77618
0.745217
0.730968
0.735555
0.75961
0.803894
0.863321
0.928028
0.987085
1.03053
1.05098
1.04461
1.01118
0.95381
0.878422
0.793896
0.709954
0.638182
0.590966
0.580371
0.616645
0.706597
0.852187
1.04961
1.30345
1.60758
1.91591
2.18122
2.36771
2.45935
2.4606
2.38981
2.26914
2.11695
1.94743
1.77472
1.60787
1.45418
1.32201
1.21867
1.14888
1.11986
1.1344
1.17824
1.23216
1.27708
1.29829
1.28769
1.2436
1.16878
1.06784
0.945102
0.806606
0.656817
0.498524
0.332975
0.162862
-0.00848122
-0.177547
-0.297045
0
0.778569
2.09599
3.83966
5.71499
7.30445
8.17624
8.02106
6.77942
4.70419
2.31261
0.222685
-1.07033
-1.37423
-0.734349
0.00428581
0.685499
1.22825
1.58878
1.87874
2.13312
2.34948
2.52896
2.67319
2.78478
2.86771
2.92727
2.96956
3.00076
3.02634
3.05076
3.07696
3.10701
3.14226
3.18337
3.23066
3.28399
3.34239
3.40531
3.47333
3.54843
3.63359
3.73157
3.84346
3.96752
4.09905
4.23141
4.35811
4.47501
4.58198
4.6832
4.78606
4.89882
5.0281
5.17565
5.33925
5.51537
5.69774
5.88029
6.05878
6.23158
6.39915
6.56273
6.72268
6.87706
7.0214
7.1491
7.25252
7.32399
7.3562
7.34204
7.27415
7.14483
6.95013
6.68663
6.35224
5.94954
5.48671
4.97726
4.43893
3.89244
3.35587
2.84553
2.37512
1.95523
1.5924
1.2971
1.09103
0.987307
0.96091
0.97576
0.996826
0.997924
0.966589
0.904523
0.823838
0.740872
0.670097
0.616869
0.579672
0.556043
0.545298
0.546849
0.560775
0.588966
0.62701
0.663603
0.685492
0.681916
0.648844
0.590517
0.517381
0.441794
0.374181
0.318495
0.274536
0.2452
0.233428
0.247579
0.307788
0.422312
0.562199
0.684546
0.749224
0.735646
0.650849
0.525638
0.401325
0.313117
0.269807
0.253563
0.250596
0.25419
0.258378
0.25866
0.252767
0.240874
0.225261
0.209594
0.198007
0.193829
0.198897
0.213998
0.239249
0.27293
0.310529
0.345239
0.369678
0.377428
0.364524
0.330635
0.279588
0.219003
0.159
0.110228
0.0810036
0.0745687
0.0922103
0.131865
0.188444
0.254757
0.322675
0.382895
0.426897
0.448381
0.444007
0.414062
0.362734
0.297717
0.228983
0.166839
0.119747
0.0909349
0.0803005
0.0854034
0.101569
0.123157
0.144797
0.162814
0.174816
0.179683
0.177481
0.169259
0.156816
0.142455
0.128722
0.118115
0.112641
0.113614
0.121581
0.136403
0.156002
0.176902
0.195397
0.208474
0.214536
0.213704
0.207657
0.199148
0.191477
0.187865
0.191057
0.204207
0.230478
0.272782
0.333269
0.412674
0.511799
0.629757
0.757719
0.882609
0.99123
1.07313
1.12266
1.13963
1.12874
1.09789
1.05621
1.01219
0.9713
0.936087
0.906919
0.882695
0.861403
0.840285
0.816086
0.78514
0.743413
0.686662
0.610984
0.513422
0.393051
0.243847
0.0675783
-0.10921
-0.254194
-0.339564
-0.351763
-0.296662
-0.197861
-0.0884873
0.000362587
0.0509549
0.0744646
0.0260804
0
0.488671
1.50739
2.86204
4.23466
5.29742
5.78822
5.53816
4.50132
2.81063
0.812171
-0.996549
-2.1454
-2.3628
-1.7781
-0.843083
0.140113
0.894545
1.19961
1.31718
1.40724
1.48287
1.54674
1.60192
1.65147
1.69811
1.74389
1.79021
1.83784
1.88728
1.93905
1.99403
2.05351
2.11907
2.19218
2.2738
2.36402
2.46191
2.5657
2.67321
2.78224
2.89102
2.99841
3.10397
3.20781
3.31048
3.41283
3.51596
3.62119
3.73006
3.84418
3.96504
4.09386
4.23139
4.37778
4.53268
4.69525
4.86425
5.03812
5.21499
5.39276
5.56916
5.7418
5.90837
6.0669
6.21559
6.35235
6.47336
6.5715
6.63803
6.66351
6.63654
6.54622
6.38504
6.15089
5.84746
5.48312
5.06913
4.62406
4.16458
3.70041
3.24087
2.79592
2.37622
1.99676
1.6719
1.40993
1.21465
1.08776
1.04937
1.07706
1.13662
1.19469
1.22715
1.22372
1.18719
1.128
1.0574
0.982469
0.905958
0.828529
0.750843
0.674768
0.60372
0.542429
0.496219
0.469961
0.467347
0.490129
0.539404
0.618087
0.725554
0.848916
0.965792
1.05407
1.09649
1.08476
1.02189
0.92204
0.807666
0.704749
0.635335
0.604974
0.609462
0.644006
0.709527
0.808466
0.941791
1.10108
1.26286
1.39989
1.48753
1.50717
1.44923
1.31452
1.1142
0.868903
0.607434
0.361865
0.156925
0.0150133
-0.0504015
-0.03793
0.0415869
0.168125
0.317466
0.466119
0.598357
0.707013
0.784577
0.826332
0.830777
0.800218
0.741193
0.664262
0.58282
0.510928
0.460478
0.435734
0.435288
0.45679
0.495922
0.543109
0.588395
0.623606
0.643836
0.647913
0.637853
0.617621
0.591733
0.564171
0.537686
0.51372
0.4932
0.476528
0.463657
0.454253
0.447364
0.442035
0.437972
0.436197
0.439377
0.451593
0.477477
0.520931
0.583861
0.664353
0.759469
0.864225
0.973141
1.08144
1.18576
1.28387
1.3718
1.44451
1.49574
1.51668
1.49958
1.44225
1.35054
1.23747
1.11933
1.01074
0.917919
0.838966
0.77334
0.720367
0.67844
0.645597
0.618741
0.593836
0.566789
0.53405
0.493198
0.443337
0.385114
0.320352
0.251403
0.180504
0.109233
0.0383234
-0.0320829
-0.102267
-0.172769
-0.250557
0
0.719687
1.87729
3.27707
4.6363
5.67823
6.18115
5.99502
5.06877
3.50834
1.61604
-0.162602
-1.39644
-1.84861
-1.33696
-0.700339
0.0242394
0.69219
1.13681
1.40245
1.61051
1.77391
1.89435
1.97623
2.02627
2.05288
2.06541
2.07349
2.08561
2.1085
2.147
2.2036
2.27795
2.36769
2.47032
2.58302
2.70306
2.82793
2.95516
3.08198
3.20443
3.31823
3.41973
3.50715
3.58155
3.64705
3.71014
3.77827
3.85829
3.95345
4.06423
4.19057
4.33139
4.48456
4.64741
4.81731
4.99217
5.17094
5.35388
5.5426
5.73975
5.94848
6.17471
6.43281
6.73914
7.07403
7.38294
7.6126
7.7276
7.71801
7.59807
7.39653
7.14111
6.84336
6.50005
6.11668
5.70459
5.27249
4.82709
4.37541
3.92571
3.4871
3.06833
2.67671
2.31743
1.99342
1.70585
1.45913
1.26061
1.11088
1.00963
0.955583
0.944828
0.971632
1.02352
1.0852
1.14201
1.18319
1.2038
1.2046
1.19009
1.16552
1.13418
1.09702
1.0526
0.997434
0.927776
0.834817
0.699341
0.525025
0.352648
0.235407
0.220721
0.333693
0.690437
1.2226
1.745
2.10511
2.22443
2.10747
1.8279
1.49899
1.23313
1.09298
1.01301
0.946893
0.883473
0.820557
0.75975
0.706115
0.66648
0.647046
0.654171
0.686921
0.738045
0.796692
0.851182
0.891546
0.911166
0.90746
0.881934
0.839934
0.790512
0.744058
0.711527
0.70231
0.723269
0.786995
0.879867
0.978224
1.05688
1.09739
1.09305
1.04902
0.978597
0.898081
0.822711
0.759997
0.711614
0.678656
0.665282
0.673223
0.694555
0.717062
0.728722
0.721861
0.696223
0.659586
0.625494
0.608828
0.627846
0.698866
0.798427
0.886701
0.925154
0.894053
0.80227
0.685018
0.589954
0.557079
0.592465
0.663307
0.754796
0.848234
0.926083
0.976237
0.994507
0.984726
0.956601
0.922111
0.891653
0.870188
0.857097
0.849793
0.845328
0.840723
0.834019
0.824938
0.815037
0.80741
0.806097
0.814906
0.836705
0.873863
0.928504
1.00432
1.11006
1.26843
1.52504
1.88824
2.2911
2.65476
2.87308
2.85207
2.5672
2.08868
1.55353
1.11729
0.942988
0.938381
0.984858
1.07315
1.16894
1.23098
1.22522
1.13799
0.981791
0.790782
0.608568
0.474069
0.392238
0.374453
0.478522
0.696216
0.946706
1.13836
1.19747
1.09514
0.855523
0.538478
0.207436
-0.0968029
-0.254986
0
0.755478
2.10242
3.89878
5.73439
7.0612
7.42639
6.67128
4.98985
2.84144
0.781685
-0.711807
-1.37063
-1.18231
-0.516115
0.0990134
0.612118
0.988303
1.25524
1.47706
1.66314
1.8178
1.94568
2.05131
2.13892
2.21247
2.27564
2.33218
2.38592
2.44094
2.5016
2.57508
2.68245
2.85688
3.06958
3.25738
3.34901
3.30786
3.16323
3.0037
2.93005
2.99601
3.15862
3.34381
3.5312
3.70955
3.87335
4.02275
4.16194
4.29698
4.43396
4.57693
4.72859
4.89155
5.0678
5.25842
5.46309
5.67956
5.90449
6.13049
6.34783
6.54814
6.72705
6.88586
7.03099
7.17097
7.34044
7.54162
7.73107
7.84445
7.83146
7.67612
7.39432
7.01723
6.57588
6.09694
5.60757
5.11868
4.63498
4.16102
3.70194
3.26323
2.85059
2.46956
2.12487
1.82
1.55708
1.3356
1.15162
0.999316
0.872036
0.763483
0.668773
0.585301
0.512586
0.451922
0.405593
0.375785
0.363665
0.368695
0.388398
0.419003
0.454992
0.490653
0.521071
0.542888
0.554652
0.556718
0.550811
0.539426
0.52537
0.511165
0.498838
0.490106
0.486353
0.488559
0.497171
0.511895
0.531806
0.55506
0.578415
0.597622
0.608677
0.60889
0.597808
0.577584
0.552586
0.528212
0.509592
0.501718
0.502679
0.506274
0.505218
0.494997
0.476446
0.455756
0.441878
0.442575
0.460419
0.49225
0.5305
0.564596
0.585018
0.586492
0.569783
0.541526
0.512127
0.49237
0.489792
0.506282
0.537344
0.572034
0.59728
0.60217
0.581652
0.538585
0.483523
0.432118
0.400674
0.399455
0.428534
0.480588
0.547506
0.618521
0.682791
0.731735
0.760466
0.767998
0.756389
0.729299
0.691071
0.645564
0.595164
0.541556
0.486352
0.432297
0.384401
0.349079
0.333228
0.342597
0.380178
0.445218
0.533238
0.637038
0.748237
0.858714
0.962263
1.05075
1.11427
1.14572
1.13879
1.09032
1.00342
0.889552
0.767724
0.660295
0.586561
0.553863
0.558788
0.593535
0.646753
0.708185
0.772087
0.838107
0.909612
0.990956
1.08511
1.19016
1.30385
1.42494
1.55205
1.68418
1.82023
1.95547
2.08057
2.1833
2.25136
2.2755
2.25167
2.18138
2.07074
1.92917
1.76881
1.60353
1.44327
1.29485
1.16378
1.0573
0.976394
0.919045
0.881184
0.857726
0.843242
0.832338
0.817482
0.789276
0.73849
0.659004
0.548481
0.416277
0.278588
0.152744
0.0508546
0
0.431231
1.00202
1.75018
2.83962
4.31035
5.93732
7.24813
7.7071
6.9811
5.14095
2.67101
0.274878
-1.4173
-2.08361
-1.67552
-0.776658
0.343051
1.32945
1.84403
1.96724
2.06323
2.15458
2.24824
2.35051
2.46157
2.57021
2.66054
2.71887
2.73974
2.72811
2.69722
2.66352
2.64146
2.63674
2.64758
2.67286
2.71261
2.76613
2.83221
2.90913
2.99483
3.08714
3.18434
3.28562
3.39147
3.50377
3.62614
3.77058
3.96683
4.21178
4.4536
4.62366
4.67219
4.5998
4.4656
4.36444
4.38294
4.55785
4.80751
5.07807
5.35006
5.60728
5.83606
6.02796
6.1805
6.29724
6.38712
6.45862
6.53654
6.75976
7.1245
7.49757
7.69668
7.58631
7.14161
6.45703
5.70651
5.07161
4.60857
4.192
3.79024
3.4001
3.02141
2.65637
2.30911
1.98588
1.69272
1.43301
1.2079
1.01655
0.856776
0.725989
0.621741
0.541895
0.484366
0.445411
0.422404
0.412212
0.41092
0.413981
0.417668
0.419875
0.420523
0.421486
0.425998
0.437682
0.45943
0.492463
0.535169
0.584309
0.63619
0.686558
0.731314
0.767138
0.791826
0.804347
0.804635
0.79323
0.770891
0.738292
0.695921
0.644257
0.583846
0.515477
0.440571
0.361337
0.280794
0.202639
0.131
0.0703784
0.0248126
-0.00285702
-0.0114034
0.00189877
0.0380736
0.0869772
0.136089
0.173984
0.193532
0.193431
0.177305
0.150787
0.118082
0.0798054
0.0347437
-0.0197872
-0.084666
-0.157141
-0.230243
-0.293701
-0.336063
-0.348726
-0.321474
-0.225504
-0.0555237
0.139264
0.301492
0.385072
0.369889
0.26685
0.111167
-0.0530668
-0.18924
-0.28401
-0.34984
-0.395751
-0.424345
-0.435489
-0.428958
-0.404313
-0.358886
-0.289575
-0.202079
-0.112639
-0.0395603
0.00198622
0.00482817
-0.0274279
-0.080547
-0.132603
-0.159007
-0.1428
-0.0847896
0.00821476
0.132295
0.281205
0.438137
0.584914
0.70583
0.790354
0.833864
0.836524
0.801202
0.731689
0.636063
0.52192
0.39405
0.258309
0.123489
0.000339508
-0.100881
-0.172376
-0.210383
-0.215854
-0.194104
-0.153628
-0.104498
-0.0567874
-0.0196198
0
-0.00059948
-0.0253159
-0.0737448
-0.143339
-0.229848
-0.327896
-0.431607
-0.535029
-0.444222
-0.0292755
0.753658
1.91921
3.33642
4.69779
5.57779
5.58576
4.55935
2.69559
0.521047
-1.31403
-2.31711
-2.34979
-1.60689
-0.851276
-0.203127
0.237456
0.499558
0.737732
0.961838
1.16548
1.33309
1.44762
1.50106
1.50161
1.47289
1.44506
1.44249
1.47481
1.52615
1.58543
1.64691
1.70663
1.7635
1.81948
1.87892
1.94729
2.02971
2.12867
2.24464
2.37649
2.52131
2.67558
2.83228
2.98269
3.12018
3.24206
3.35059
3.45249
3.55711
3.67369
3.80868
3.96253
4.13044
4.30783
4.49011
4.67269
4.85172
5.02452
5.18965
5.34678
5.49633
5.63929
5.7768
5.9098
6.03814
6.15892
6.26341
6.33764
6.36153
6.31312
6.17457
5.93763
5.60604
5.19432
4.72329
4.21745
3.70043
3.18395
2.67664
2.18704
1.72482
1.306
0.942418
0.642534
0.410838
0.246463
0.142817
0.0884836
0.0692094
0.0704069
0.0794562
0.0873317
0.0889722
0.0822624
0.0672801
0.0454343
0.0190487
-0.00971756
-0.0389801
-0.0669672
-0.0919522
-0.112179
-0.125799
-0.130802
-0.125059
-0.106437
-0.071593
-0.0142295
0.0732397
0.188456
0.310973
0.414129
0.472597
0.470064
0.404714
0.291061
0.157515
0.0396904
-0.0295004
-0.0433137
-0.0154431
0.0501099
0.143896
0.246896
0.33951
0.405846
0.43661
0.430062
0.391189
0.329739
0.257862
0.187864
0.128725
0.0851429
0.0591303
0.0511334
0.0616431
0.0907924
0.136205
0.190191
0.241878
0.281373
0.302211
0.303023
0.287745
0.264132
0.241063
0.225663
0.22064
0.224033
0.233641
0.247558
0.264199
0.282613
0.302294
0.322602
0.342034
0.357353
0.364061
0.357547
0.334801
0.295988
0.245211
0.190054
0.139984
0.104077
0.0876824
0.0927321
0.11801
0.159167
0.209882
0.263246
0.313102
0.354896
0.386107
0.40632
0.416903
0.420372
0.419587
0.416994
0.414145
0.411646
0.409641
0.408439
0.409128
0.413936
0.426223
0.450095
0.489753
0.547983
0.626049
0.724387
0.843885
0.987546
1.16086
1.36217
1.56656
1.73978
1.84855
1.87096
1.8049
1.66959
1.49848
1.32789
1.18755
1.08325
1.00704
0.954025
0.926172
0.929218
0.963509
1.01617
1.06889
1.10281
1.103
1.06186
0.980535
0.867874
0.737509
0.603996
0.47809
0.363783
0.262119
0.175543
0.103803
0.045622
0
-0.0299097
0.120236
0.746036
1.70317
2.86416
4.08216
5.20681
6.05979
6.42293
6.10016
5.03436
3.39706
1.56945
0.00376811
-0.953943
-1.12445
-0.596641
0.099628
0.880199
1.55742
1.91383
2.07649
2.03322
1.84095
1.6125
1.47771
1.53208
1.72924
1.97722
2.24634
2.51676
2.76278
2.96337
3.10503
3.18292
3.20089
3.17065
3.11023
3.04181
2.98896
2.97052
2.99213
3.05133
3.14397
3.2659
3.41156
3.57288
3.74118
3.9086
4.0692
4.21935
4.35562
4.47539
4.58133
4.67797
4.77214
4.87351
4.99392
5.14488
5.33395
5.5613
5.81615
6.08111
6.34281
6.58858
6.80745
6.99115
7.13219
7.22518
7.26837
7.26075
7.20153
7.09035
6.92789
6.71644
6.46038
6.16596
5.84113
5.4948
5.13382
4.76305
4.38623
4.00642
3.62667
3.25059
2.88266
2.52794
2.19149
1.87735
1.5879
1.32366
1.08502
0.871807
0.683461
0.520744
0.387317
0.288039
0.230325
0.220709
0.261362
0.347583
0.467129
0.601823
0.731178
0.837133
0.913896
0.963095
0.983872
0.97796
0.94896
0.90177
0.842815
0.77872
0.716165
0.6621
0.622547
0.601566
0.600437
0.617386
0.647957
0.685879
0.724132
0.756411
0.776371
0.779598
0.763656
0.728582
0.677256
0.615384
0.550806
0.49227
0.447449
0.42114
0.41664
0.429847
0.453304
0.478833
0.500027
0.513672
0.519729
0.520185
0.517502
0.513533
0.508864
0.503208
0.495845
0.485992
0.473123
0.457136
0.438384
0.417433
0.394822
0.370781
0.345093
0.317276
0.286998
0.254709
0.222188
0.192745
0.170871
0.161364
0.168123
0.192204
0.236187
0.29759
0.365661
0.427532
0.471992
0.492494
0.488605
0.465475
0.431593
0.395803
0.364745
0.340517
0.322473
0.310217
0.303144
0.300861
0.303214
0.309966
0.320348
0.332797
0.344822
0.353469
0.356215
0.351884
0.341323
0.327604
0.315652
0.311372
0.32054
0.347784
0.394748
0.460577
0.544565
0.645462
0.76267
0.897264
1.05031
1.21861
1.38926
1.54086
1.65012
1.69679
1.66863
1.56539
1.4014
1.20466
1.01082
0.852103
0.736448
0.650779
0.58408
0.531106
0.486912
0.44823
0.413957
0.384641
0.361203
0.343918
0.330542
0.315899
0.293826
0.259575
0.212055
0.154922
0.0960179
0.0453231
0.012126
0
0.0131583
0.0985372
0.560253
1.20735
2.05973
3.1426
4.38011
5.5354
6.24052
6.13811
5.07395
3.22538
1.07188
-0.789404
-1.88339
-1.97681
-1.36896
-0.385073
0.549493
1.12643
1.24296
1.33284
1.42466
1.51826
1.61259
1.70431
1.78894
1.86227
1.92177
1.96759
2.00275
2.03267
2.06416
2.10391
2.15666
2.22572
2.31301
2.41844
2.5398
2.67335
2.8138
2.95481
3.09048
3.21621
3.32918
3.4285
3.51467
3.58927
3.65549
3.71731
3.7795
3.84754
3.9273
4.0244
4.14338
4.28677
4.45338
4.63977
4.8422
5.05651
5.27861
5.50509
5.73364
5.96268
6.19015
6.41063
6.61253
6.7785
6.89001
6.93264
6.89909
6.78948
6.61011
6.372
6.08867
5.77671
5.44637
5.10224
4.74657
4.38038
4.00383
3.61885
3.2298
2.84364
2.46933
2.11684
1.79562
1.51401
1.28146
1.10194
0.971688
0.883832
0.830276
0.80326
0.796177
0.803456
0.821977
0.844646
0.861521
0.862581
0.840797
0.795191
0.73215
0.664095
0.605843
0.570139
0.559863
0.572398
0.605417
0.654302
0.713339
0.776407
0.83869
0.896188
0.945738
0.985006
1.01243
1.02717
1.02911
1.01882
0.997612
0.967684
0.931629
0.892376
0.852796
0.815512
0.782301
0.754013
0.731069
0.71411
0.704443
0.703965
0.714458
0.738054
0.774562
0.817204
0.85627
0.882022
0.887865
0.872441
0.839837
0.797933
0.755697
0.720393
0.694578
0.677933
0.669923
0.669939
0.677148
0.690661
0.709582
0.733274
0.759628
0.785842
0.809169
0.827647
0.840552
0.848298
0.85181
0.851747
0.84804
0.840196
0.827752
0.811188
0.792383
0.774456
0.761036
0.755294
0.758311
0.769572
0.78861
0.814778
0.847434
0.886192
0.930957
0.98173
1.03831
1.10006
1.16595
1.23408
1.30256
1.37019
1.43701
1.50441
1.57479
1.65247
1.74193
1.83628
1.91688
1.96004
1.9463
1.8686
1.73573
1.5694
1.39649
1.24024
1.10722
0.993131
0.895387
0.814308
0.750212
0.703573
0.676643
0.676631
0.710934
0.763528
0.806814
0.810496
0.752389
0.627079
0.44779
0.240584
0.0344586
-0.147004
0
0.62054
1.46063
2.53462
3.85083
5.28053
6.49018
7.02295
6.51842
4.95052
2.71739
0.500938
-1.03821
-1.55873
-1.03639
-0.255085
0.513273
1.05436
1.3025
1.47655
1.63667
1.78764
1.92889
2.05925
2.17731
2.28191
2.37243
2.44865
2.51093
2.56141
2.60313
2.63993
2.67631
2.71708
2.76667
2.82834
2.90343
2.99297
3.0934
3.19998
3.30866
3.41758
3.52761
3.64157
3.76262
3.89252
4.03022
4.172
4.31442
4.45448
4.59033
4.72191
4.85118
4.9818
5.11853
5.26628
5.42918
5.60965
5.80785
6.02148
6.24668
6.47704
6.70422
6.91987
7.11582
7.2827
7.40969
7.48973
7.51766
7.48741
7.39277
7.22919
6.99567
6.69591
6.33841
5.93557
5.50689
5.06877
4.63128
4.2027
3.79003
3.39864
3.03207
2.69206
2.37905
2.09269
1.83252
1.59856
1.3915
1.2117
1.06342
0.952129
0.872125
0.815377
0.773935
0.742698
0.721138
0.713045
0.724366
0.760153
0.819852
0.896965
0.987589
1.08614
1.1847
1.27234
1.33942
1.37867
1.38649
1.36425
1.31906
1.26299
1.21031
1.17341
1.15886
1.16153
1.17582
1.19347
1.20626
1.20836
1.19762
1.17555
1.14627
1.11502
1.08657
1.06375
1.04832
1.0416
1.04418
1.05632
1.0771
1.10207
1.12457
1.13834
1.13961
1.12846
1.10871
1.08618
1.06605
1.05096
1.03758
1.01924
0.990682
0.952811
0.914683
0.891263
0.897694
0.942636
1.02465
1.12961
1.2362
1.32306
1.37563
1.3898
1.37136
43
297
547
781
1028
1275
1506
1752
1997
2222
2465
2710
2928
3158
3389
3602
2475
2620
2765
2911
3052
3195
3339
3485
3635
3706
0
0
0
0
0
0
0
0
0
0
0
0
0
0
0
0
0
0
0
0
0
0
0
0
0
0
0
0
0
0
0
0
0
0
0
0
0
0
0
0
0
0
0
0
0
0
0
0
0
0
0
0
0
0
0
0
0
0
0
0
0
0
0
0
0
0
0
0
0
0
0
0
0
0
0
0
0
0
0
0
0
0
0
0
0
0
0
0
0
0
0
0
0
0
0
0
0
0
0
0
0
0
0
0
0
0
0
0
0
0
0
0
0
0
0
0
0
0
0
0
0
0
0
0
0
0
0
0
0
0
0
0
0
0
0
0
0
0
0
0
0
0
0
0
0
0
0
0
0
0
0
0
0
0
0
0
0
0
0
0
0
0
0
0
0
0
0
0
0
0
0
0
0
0
0
0
0
0
0
0
0
0
0
0
0
0
0
0
0
0
0
0
0
0
0
0
0
0
0
0
0
0
0
0
0
0
0
0
0
0
0
0
0
0
0
0
0
0
0
0
0
0
0
0
0
0
0
0
0
0
0
0
0
0
0
0
0
0
0
0
0
0
0
0
0
0
0
0
0
0
0
0
0
0
0
0
0
0
0
0
0
0
0
0
0
0
0
0
0
0
0
0
0
0
0
0
0
0
0
0
0
0
0
0
0
0
0
0
0
0
0
0
0
0
0
0
0
0
0
0
0
0
0
0
0
0
0
0
0
0
0
0
0
0
0
0
0
0
0
0
0
0
0
0
0
0
0
0
0
0
0
0
0
0
0
0
0
0
0
0
0
0
0
0
0
0
0
0
0
0
0
0
0
0
0
0
0
0
0
0
0
0
0
0
0
0
0
0
0
0
0
0
0
0
0
0
0
0
0
0
0
0
0
0
0
0
0
0
0
0
0
0
0
0
0
0
0
0
0
0
0
0
0
0
0
0
0
0
0
0
0
0
0
0
0
0
0
0
0
0
0
0
0
0
0
0
0
0
0
0
0
0
0
0
0
0
0
0
0
0
0
0
0
0
0
0
0
0
0
0
0
0
0
0
0
0
0
0
0
0
0
0
0
0
0
0
0
0
0
0
0
0
0
0
0
0
0
0
0
0
0
0
0
0
0
0
0
0
0
0
0
0
0
0
0
0
0
0
0
0
0
0
0
0
0
0
0
0
0
0
0
0
0
0
0
0
0
0
0
0
0
0
0
0
0
0
0
0
0
0
0
0
0
0
0
0
0
0
0
0
0
0
0
0
0
0
0
0
0
0
0
0
0
0
0
0
0
0
0
0
0
0
0
0
0
0
0
0
0
0
0
0
0
0
0
0
0
0
0
0
0
0
0
0
0
0
0
0
0
0
0
0
0
0
0
0
0
0
0
0
0
0
0
0
0
0
0
0
0
0
0
0
0
0
0
0
0
0
0
0
0
0
0
0
0
0
0
0
0
0
0
0
0
0
0
0
0
0
0
0
0
0
0
0
0
0
0
0
0
0
0
0
0
0
0
0
0
0
0
0
0
0
0
0
0
0
0
0
0
0
0
0
0
0
0
0
0
0
0
0
0
0
0
0
0
0
0
0
0
0
0
0
0
0
0
0
0
0
0
0
0
0
0
0
0
0
0
0
0
0
0
0
0
0
0
0
0
0
0
0
0
0
0
0
0
0
0
0
0
0
0
0
0
0
0
0
0
0
0
0
0
0
0
0
0
0
0
0
0
0
0
0
0
0
0
0
0
0
0
0
0
0
0
0
0
0
0
0
0
0
0
0
0
0
0
0
0
0
0
0
0
0
0
0
0
0
0
0
0
0
0
0
0
0
0
0
0
0
0
0
0
0
0
0
0
0
0
0
0
0
0
0
0
0
0
0
0
0
0
0
0
0
0
0
0
0
0
0
0
0
0
0
0
0
0
0
0
0
0
0
0
0
0
0
0
0
0
0
0
0
0
0
0
0
0
0
0
0
0
0
0
0
0
0
0
0
0
0
0
0
0
0
0
0
0
0
0
0
0
0
0
0
0
0
0
0
0
0
0
0
0
0
0
0
0
0
0
0
0
0
0
0
0
0
0
0
0
0
0
0
0
0
0
0
0
0
0
0
0
0
0
0
0
0
0
0
0
0
0
0
0
0
0
0
0
0
0
0
0
0
0
0
0
0
0
0
0
0
0
0
0
0
0
0
0
0
0
0
0
0
0
0
0
0
0
0
0
0
0
0
0
0
0
0
0
0
0
0
0
0
0
0
0
0
0
0
0
0
0
0
0
0
0
0
0
0
0
0
0
0
0
0
0
0
0
0
0
0
0
0
0
0
0
0
0
0
0
0
0
0
0
0
0
0
0
0
0
0
0
0
0
0
0
0
0
0
0
0
0
0
0
0
0
0
0
0
0
0
0
0
0
0
0
0
0
0
0
0
0
0
0
0
0
0
0
0
0
0
0
0
0
0
0
0
0
0
0
0
0
0
0
0
0
0
0
0
0
0
0
0
0
0
0
0
0
0
0
0
0
0
0
0
0
0
0
0
0
0
0
0
0
0
0
0
0
0
0
0
0
0
0
0
0
0
0
0
0
0
0
0
0
0
0
0
0
0
0
0
0
0
0
0
0
0
0
0
0
0
0
0
0
0
0
0
0
0
0
0
0
0
0
0
0
0
0
0
0
0
0
0
0
0
0
0
0
0
0
0
0
0
0
0
0
0
0
0
0
0
0
0
0
0
0
0
0
0
0
0
0
0
0
0
0
0
0
0
0
0
0
0
0
0
0
0
0
0
0
0
0
0
0
0
0
0
0
0
0
0
0
0
0
0
0
0
0
0
0
0
0
0
0
0
0
0
0
0
0
0
0
0
0
0
0
0
0
0
0
0
0
0
0
0
0
0
0
0
0
0
0
0
0
0
0
0
0
0
0
0
0
0
0
0
0
0
0
0
0
0
0
0
0
0
0
0
0
0
0
0
0
0
0
0
0
0
0
0
0
0
0
0
0
0
0
0
0
0
0
0
0
0
0
0
0
0
0
0
0
0
0
0
0
0
0
0
0
0
0
0
0
0
0
0
0
0
0
0
0
0
0
0
0
0
0
0
0
0
0
0
0
0
0
0
0
0
0
0
0
0
0
0
0
0
0
0
0
0
0
0
0
0
0
0
0
0
0
0
0
0
0
0
0
0
0
0
0
0
0
0
0
0
0
0
0
0
0
0
0
0
0
0
0
0
0
0
0
0
0
0
0
0
0
0
0
0
0
0
0
0
0
0
0
0
0
0
0
0
0
0
0
0
0
0
0
0
0
0
0
0
0
0
0
0
0
0
0
0
0
0
0
0
0
0
0
0
0
0
0
0
0
0
0
0
0
0
0
0
0
0
0
0
0
0
0
0
0
0
0
0
0
0
0
0
0
0
0
0
0
0
0
0
0
0
0
0
0
0
0
0
0
0
0
0
0
0
0
0
0
0
0
0
0
0
0
0
0
0
0
0
0
0
0
0
0
0
0
0
0
0
0
0
0
0
0
0
0
0
0
0
0
0
0
0
0
0
0
0
0
0
0
0
0
0
0
0
0
0
0
0
0
0
0
0
0
0
0
0
0
0
0
0
0
0
0
0
0
0
0
0
0
0
0
0
0
0
0
0
0
0
0
0
0
0
0
0
0
0
0
0
0
0
0
0
0
0
0
0
0
0
0
0
0
0
0
0
0
0
0
0
0
0
0
0
0
0
0
0
0
0
0
0
0
0
0
0
0
0
0
0
0
0
0
0
0
0
0
0
0
0
0
0
0
0
0
0
0
0
0
0
0
0
0
0
0
0
0
0
0
0
0
0
0
0
0
0
0
0
0
0
0
0
0
0
0
0
0
0
0
0
0
0
0
0
0
0
0
0
0
0
0
0
0
0
0
0
0
0
0
0
0
0
0
0
0
0
0
0
0
0
0
0
0
0
0
0
0
0
0
0
0
0
0
0
0
0
0
0
0
0
0
0
0
0
0
0
0
0
0
0
0
0
0
0
0
0
0
0
0
0
0
0
0
0
0
0
0
0
0
0
0
0
0
0
0
0
0
0
0
0
0
0
0
0
0
0
0
0
0
0
0
0
0
0
0
0
0
0
0
0
0
0
0
0
0
0
0
0
0
0
0
0
0
0
0
0
0
0
0
0
0
0
0
0
0
0
0
0
0
0
0
0
0
0
0
0
0
0
0
0
0
0
0
0
0
0
0
0
0
0
0
0
0
0
0
0
0
0
0
0
0
0
0
0
0
0
0
0
0
0
0
0
0
0
0
0
0
0
0
0
0
0
0
0
0
0
0
0
0
0
0
0
0
0
0
0
0
0
0
0
0
0
0
0
0
0
0
0
0
0
0
0
0
0
0
0
0
0
0
0
0
0
0
0
0
0
0
0
0
0
0
0
0
0
0
0
0
0
0
0
0
0
0
0
0
0
0
0
0
0
0
0
0
0
0
0
0
0
0
0
0
0
0
0
0
0
0
0
0
0
0
0
0
0
0
0
0
0
0
0
0
0
0
0
0
0
0
0
0
0
0
0
0
0
0
0
0
0
0
0
0
0
0
0
0
0
0
0
0
0
0
0
0
0
0
0
0
0
0
0
0
0
0
0
0
0
0
0
0
0
0
0
0
0
0
0
0
0
0
0
0
0
0
0
0
0
0
0
0
0
0
0
0
0
0
0
0
0
0
0
0
0
0
0
0
0
0
0
0
0
0
0
0
0
0
0
0
0
0
0
0
0
0
0
0
0
0
0
0
0
0
0
0
0
0
0
0
0
0
0
0
0
0
0
0
0
0
0
0
0
0
0
0
0
0
0
0
0
0
0
0
0
0
0
0
0
0
0
0
0
0
0
0
0
0
0
0
0
0
0
0
0
0
0
0
0
0
0
0
0
0
0
0
0
0
0
0
0
0
0
0
0
0
0
0
0
0
0
0
0
0
0
0
0
0
0
0
0
0
0
0
0
0
0
0
0
0
0
0
0
0
0
0
0
0
0
0
0
0
0
0
0
0
0
0
0
0
0
0
0
0
0
0
0
0
0
0
0
0
0
0
0
0
0
0
0
0
0
0
0
0
0
0
0
0
0
0
0
0
0
0
0
0
0
0
0
0
0
0
0
0
0
0
0
0
0
0
0
0
0
0
0
0
0
0
0
0
0
0
0
0
0
0
0
0
0
0
0
0
0
0
0
0
0
0
0
0
0
0
0
0
0
0
0
0
0
0
0
0
0
0
0
0
0
0
0
0
0
0
0
0
0
0
0
0
0
0
0
0
0
0
0
0
0
0
0
0
0
0
0
0
0
0
0
0
0
0
0
0
0
0
0
0
0
0
0
0
0
0
0
0
0
0
0
0
0
0
0
0
0
0
0
0
0
0
0
0
0
0
0
0
0
0
0
0
0
0
0
0
0
0
0
0
0
0
0
0
0
0
0
0
0
0
0
0
0
0
0
0
0
0
0
0
0
0
0
0
0
0
0
0
0
0
0
0
0
0
0
0
0
0
0
0
0
0
0
0
0
0
0
0
0
0
0
0
0
0
0
0
0
0
0
0
0
0
0
0
0
0
0
0
0
0
0
0
0
0
0
0
0
0
0
0
0
0
0
0
0
0
0
0
0
0
0
0
0
0
0
0
0
0
0
0
0
0
0
0
0
0
0
0
0
0
0
0
0
0
0
0
0
0
0
0
0
0
0
0
0
0
0
0
0
0
0
0
0
0
0
0
0
0
0
0
0
0
0
0
0
0
0
0
0
0
0
0
0
0
0
0
0
0
0
0
0
0
0
0
0
0
0
0
0
0
0
0
0
0
0
0
0
0
0
0
0
0
0
0
0
0
0
0
0
0
0
0
0
0
0
0
0
0
0
0
0
0
0
0
0
0
0
0
0
0
0
0
0
0
0
0
0
0
0
0
0
0
0
0
0
0
0
0
0
0
0
0
0
0
0
0
0
0
0
0
0
0
0
0
0
0
0
0
0
0
0
0
0
0
0
0
0
0
0
0
0
0
0
0
0
0
0
0
0
0
0
0
0
0
0
0
0
0
0
0
0
0
0
0
0
0
0
0
0
0
0
0
0
0
0
0
0
0
0
0
0
0
0
0
0
0
0
0
0
0
0
0
0
0
0
0
0
0
0
0
0
0
0
0
0
0
0
0
0
0
0
0
0
0
0
0
0
0
0
0
0
0
0
0
0
0
0
0
0
0
0
0
0
0
0
0
0
0
0
0
0
0
0
0
0
0
0
0
0
0
0
0
0
0
0
0
0
0
0
0
0
0
0
0
0
0
0
0
0
0
0
0
0
0
0
0
0
0
0
0
0
0
0
0
0
0
0
0
0
0
0
0
0
0
0
0
0
0
0
0
0
0
0
0
0
0
0
0
0
0
0
0
0
0
0
0
0
0
0
0
0
0
0
0
0
0
0
0
0
0
0
0
0
0
0
0
0
0
0
0
0
0
0
0
0
0
0
0
0
0
0
0
0
0
0
0
0
0
0
0
0
0
0
0
0
0
0
0
0
0
0
0
0
0
0
0
0
0
0
0
0
0
0
0
0
0
0
0
0
0
0
0
0
0
0
0
0
0
0
0
0
0
0
0
0
0
0
0
0
0
0
0
0
0
0
0
0
0
0
0
0
0
0
0
0
0
0
0
0
0
0
0
0
0
0
0
0
0
0
0
0
0
0
0
0
0
0
0
0
0
0
0
0
0
0
0
0
0
0
0
0
0
0
0
0
0
0
0
0
0
0
0
0
0
0
0
0
0
0
0
0
0
0
0
0
0
0
0
0
0
0
0
0
0
0
0
0
0
0
0
0
0
0
0
0
0
0
0
0
0
0
0
0
0
0
0
0
0
0
0
0
0
0
0
0
0
0
0
0
0
0
0
0
0
0
0
0
0
0
0
0
0
0
0
0
0
0
0
0
0
0
0
0
0
0
0
0
0
0
0
0
0
0
0
0
0
0
0
0
0
0
0
0
0
0
0
0
0
0
0
0
0
0
0
0
0
0
0
0
0
0
0
0
0
0
0
0
0
0
0
0
0
0
0
0
0
0
0
0
0
0
0
0
0
0
0
0
0
0
0
0
0
0
0
0
0
0
0
0
0
0
0
0
0
0
0
0
0
0
0
0
0
0
0
0
0
0
0
0
0
0
0
0
0
0
0
0
0
0
0
0
0
0
0
0
0
0
0
0
0
0
0
0
0
0
0
0
0
0
0
0
0
0
0
0
0
0
0
0
0
0
0
0
0
0
0
0
0
0
0
0
0
0
0
0
0
0
0
0
0
0
0
0
0
0
0
0
0
0
0
0
0
0
0
0
0
0
0
0
0
0
0
0
0
0
0
0
0
0
0
0
0
0
0
0
0
0
0
0
0
0
0
0
0
0
0
0
0
0
0
0
0
0
0
0
0
0
0
0
0
0
0
0
0
0
0
0
0
0
0
0
0
0
0
0
0
0
0
0
0
0
0
0
0
0
0
0
0
0
0
0
0
0
0
0
0
0
0
0
0
0
0
0
0
0
0
0
0
0
0
0
0
0
0
0
0
0
0
0
0
0
0
0
0
0
0
0
0
0
0
0
0
0
0
0
0
0
0
0
0
0
0
0
0
0
0
0
0
0
0
0
0
0
0
0
0
0
0
0
0
0
0
0
0
0
0
0
0
0
0
0
0
0
0
0
0
0
0
0
0
0
0
0
0
0
0
0
0
0
0
0
0
0
0
0
0
0
0
0
0
0
0
0
0
0
0
0
0
0
0
0
0
0
0
0
0
0
0
0
0
0
0
0
0
0
0
0
0
0
0
0
0
0
0
0
0
0
0
0
0
0
0
0
0
0
0
0
0
0
0
0
0
0
0
0
0
0
0
0
0
0
0
0
0
0
0
0
0
0
0
0
0
0
0
0
0
0
0
0
0
0
0
0
0
0
0
0
0
0
0
0
0
0
0
0
0
0
0
0
0
0
0
0
0
0
0
0
0
0
0
0
0
0
0
0
0
0
0
0
0
0
0
0
0
0
0
0
0
0
0
0
0
0
0
0
0
0
0
0
0
0
0
0
0
0
0
0
0
0
0
0
0
0
0
0
0
0
0
0
0
0
0
0
0
0
0
0
0
0
0
0
0
0
0
0
0
0
0
0
0
0
0
0
0
0
0
0
0
0
0
0
0
0
0
0
0
0
0
0
0
0
0
0
0
0
0
0
0
0
0
0
0
0
0
0
0
0
0
0
0
0
0
0
0
0
0
0
0
0
0
0
0
0
0
0
0
0
0
0
0
0
0
0
0
0
0
0
0
0
0
0
0
0
0
0
0
0
0
0
0
0
0
0
0
0
0
0
0
0
0
0
0
0
0
0
0
0
0
0
0
0
0
0
0
0
0
0
0
0
0
0
0
0
0
0
0
0
0
0
0
0
0
0
0
0
0
