0.0439303
0.068148
0.0796486
0.058304
-0.00961552
-0.128776
-0.293963
-0.491191
-0.700289
-0.899009
-1.07022
-1.20139
-1.28205
-1.30693
-1.27651
-1.19704
-1.07612
-0.928004
-0.773585
-0.634592
-0.529017
-0.468367
-0.455953
-0.486549
-0.547606
-0.621928
-0.691423
-0.741709
-0.766542
-0.762579
-0.735269
-0.695907
-0.656328
-0.624632
-0.602715
-0.586583
-0.569139
-0.543973
-0.508248
-0.46414
-0.415021
-0.364168
-0.313035
-0.260934
-0.206225
-0.147825
-0.0878691
-0.0313001
0.0159514
0.0491497
0.0656511
0.0637972
0.0380207
-0.0184956
-0.1142
-0.253247
-0.431073
-0.621135
-0.781271
-0.865155
-0.837361
-0.685492
-0.424315
-0.0902868
0.270348
0.598723
0.846792
0.985691
1.00638
0.918819
0.750287
0.541091
0.336001
0.173041
0.0708159
0.0186875
0
0.0719611
0.167504
0.313691
0.717905
1.82632
3.36746
4.74649
5.36182
4.96842
3.80804
2.4204
1.31215
0.813369
0.836234
0.999038
1.20597
1.44196
1.69629
1.95648
2.20841
2.43243
2.60478
2.70727
2.72618
2.65649
2.50584
2.2949
2.05223
1.80472
1.56798
1.34006
1.11196
0.871051
0.607886
0.320959
0
1.10611
3.84001
7.69453
11.6548
14.6243
15.8984
15.4104
13.6465
11.3229
9.04714
7.14167
5.66892
4.58717
4.09118
3.88501
3.74291
3.63444
3.55462
3.50152
3.47159
3.46058
3.46277
3.47121
3.47934
3.48206
3.47663
3.4633
3.44555
3.42982
3.42474
3.43989
3.48488
3.57984
3.7682
4.09609
4.50429
4.87814
5.09441
5.06909
4.79548
4.3535
3.88439
3.54044
3.42918
3.483
3.61507
3.79312
3.99351
4.18876
4.35765
4.48959
4.58626
4.65975
4.72773
4.80711
4.90849
5.03116
5.16672
5.30651
5.4418
5.5649
5.67016
5.75385
5.81275
5.84448
5.84724
5.81857
5.75572
5.65637
5.51944
5.34552
5.13694
4.89738
4.63179
4.34608
4.04557
3.73479
3.41783
3.09856
2.78055
2.46713
2.16141
1.86644
1.58537
1.32161
1.07884
0.86088
0.671366
0.513131
0.387515
0.293962
0.230732
0.193918
0.172629
0.151369
0.116468
0.0600984
-0.0170494
-0.105737
-0.191187
-0.258232
-0.296703
-0.307167
-0.295598
-0.273207
-0.252598
-0.243798
-0.251453
-0.273923
-0.304295
-0.332753
-0.350207
-0.351251
-0.333663
-0.296699
-0.245328
-0.187664
-0.131969
-0.0844034
-0.0478333
-0.0221928
-0.00625458
0
0.0127798
0.00399151
-0.0350389
-0.109719
-0.217378
-0.344499
-0.467635
-0.558306
-0.590569
-0.538347
-0.379433
-0.151903
0.0865685
0.282116
0.404774
0.455937
0.460844
0.451566
0.450392
0.460186
0.474477
0.486906
0.493723
0.496135
0.499768
0.511964
0.538597
0.580601
0.63668
0.705815
0.787881
0.884733
1.00008
1.13884
1.30976
1.51642
1.74246
1.95264
2.10757
2.17673
2.14937
2.03914
1.88097
1.7214
1.60621
1.56277
1.71432
2.29454
3.19028
4.13086
4.81337
4.94933
4.40765
3.33578
2.13362
1.27064
1.05188
1.11225
1.22662
1.35147
1.47065
1.57094
1.64322
1.68049
1.67765
1.63077
1.53735
1.3861
1.14243
0.791673
0.407811
0.0937229
-0.0565528
0
0.304372
2.34974
5.03235
7.81117
10.238
11.8991
12.4944
11.9351
10.3967
8.28666
6.13426
4.43566
3.51739
3.29427
2.98851
2.6654
2.33704
2.01039
1.69408
1.39729
1.12986
0.898202
0.701365
0.534396
0.391037
0.266689
0.160386
0.0750166
0.0157297
-0.0127523
-0.00929394
0.0207369
0.0692242
0.127481
0.185623
0.233878
0.264214
0.27184
0.255594
0.217979
0.164771
0.104251
0.0460947
0
-0.0196451
-0.0139036
0.0183369
0.0753105
0.153719
0.247995
0.353379
0.467905
0.593739
0.739473
0.948626
1.38255
2.0613
2.79668
3.29864
3.34607
2.92403
2.23871
1.60934
1.31273
1.46465
1.78611
2.21314
2.65438
3.02076
3.24609
3.2905
3.13671
2.78857
2.27636
1.6643
1.04753
0.520634
0.119016
-0.1831
-0.422276
-0.614293
-0.773785
-0.916181
-1.05466
-1.19775
-1.34813
-1.50271
-1.65404
-1.79253
-1.90919
-1.99826
-2.05726
-2.08689
-2.09157
-2.0784
-2.05667
-2.03824
-2.03444
-2.05319
-2.09683
-2.16069
-2.23391
-2.29841
-2.3347
-2.3271
-2.26832
-2.15966
-2.01509
-1.85769
-1.71191
-1.59715
-1.52335
-1.48949
-1.48493
-1.4928
-1.49412
-1.47376
-1.42353
-1.33918
-1.21651
-1.05406
-0.856916
-0.639652
-0.425665
-0.240847
-0.10792
-0.0421314
-0.047925
-0.117214
-0.229788
-0.356179
-0.46288
-0.520628
-0.516806
-0.425943
-0.240653
-0.00932446
0.205737
0.352088
0.407616
0.388388
0.339701
0.314083
0.34662
0.431767
0.542185
0.653946
0.745101
0.803528
0.830512
0.839229
0.849407
0.880708
0.943378
1.03618
1.156
1.29948
1.46204
1.63598
1.81068
1.97648
2.12687
2.26003
2.37909
2.49082
2.60294
2.72197
2.84805
2.96809
3.06202
3.11207
3.11177
3.07008
3.0083
2.95156
2.91934
2.91583
2.9349
2.97247
3.0237
3.08438
3.15083
3.21847
3.2795
3.32224
3.33212
3.29432
3.19687
3.03324
2.80344
2.48953
2.06333
1.53989
0.999735
0.52211
0.159364
0
1.42322
4.15406
7.93848
11.9873
15.1771
16.5164
15.634
12.9846
9.6244
6.68955
4.87699
4.21398
4.19471
4.19139
4.22244
4.2839
4.38269
4.51826
4.68571
4.86871
5.04839
5.20891
5.34203
5.4491
5.53981
5.62832
5.72827
5.84668
5.9879
6.14718
6.30672
6.44168
6.5303
6.56178
6.54195
6.49439
6.45565
6.46486
6.55048
6.72695
6.9751
7.24154
7.46554
7.60295
7.64276
7.60989
7.55433
7.53284
7.59111
7.72472
7.91497
8.15494
8.44452
8.76434
9.07229
9.32746
9.50128
9.58662
9.6011
9.58222
9.57554
9.62027
9.73876
9.95172
10.2317
10.5014
10.6776
10.692
10.5074
10.1311
9.62075
9.07479
8.60444
8.28467
8.08491
7.97624
7.92347
7.88143
7.80781
7.67385
7.46954
7.20256
6.89289
6.56598
6.24576
5.94461
5.66965
5.42724
5.22241
5.05618
4.92526
4.82542
4.75349
4.70881
4.69341
4.71073
4.76324
4.85787
4.99047
5.13878
5.27575
5.37859
5.43672
5.45505
5.45103
5.44695
5.46073
5.49709
5.54959
5.60847
5.66202
5.70086
5.72093
5.72416
5.71663
5.70526
5.69431
5.68335
5.66718
5.63818
5.5898
5.5196
5.431
5.33288
5.23772
5.15895
5.10494
5.07954
5.08551
5.12553
5.20192
5.30816
5.41718
5.49653
5.51911
5.47322
5.36864
5.23474
5.11028
5.02844
5.00871
5.03825
5.08319
5.10614
5.08473
5.02193
4.9433
4.88313
4.86697
4.89348
4.9472
5.00444
5.04056
5.03963
5.00081
4.93941
4.8827
4.86204
4.90313
5.01017
5.20067
5.47868
5.81527
6.14679
6.40328
6.5271
6.48143
6.25891
5.88951
5.44045
5.00082
4.65226
4.42506
4.28349
4.19146
4.13942
4.11968
4.12606
4.15364
4.20013
4.25834
4.31588
4.35799
4.37056
4.34305
4.26978
4.14885
3.97953
3.75971
3.44904
2.89115
2.10646
1.21317
0.380716
0
1.99502
5.65511
10.1421
14.2894
17.0694
17.9496
17.0015
14.7625
11.9677
9.27132
7.06068
5.42629
4.30522
4.05156
4.03079
4.17531
4.5277
4.96467
5.30308
5.38068
5.13319
4.62793
4.03545
3.55624
3.34198
3.33918
3.43363
3.58354
3.77798
3.99627
4.2102
4.39562
4.53684
4.62916
4.67869
4.69941
4.70839
4.72109
4.74719
4.78873
4.84585
4.91852
5.00589
5.10663
5.21895
5.34042
5.46794
5.59803
5.7273
5.85329
5.97516
6.09407
6.21293
6.33579
6.46672
6.60866
6.76239
6.92623
7.09574
7.26281
7.41567
7.54209
7.63127
7.67576
7.67269
7.62406
7.53584
7.41606
7.27229
7.10988
6.93129
6.73595
6.52149
6.28524
6.02631
5.74703
5.45346
5.15488
4.86255
4.58781
4.33997
4.12551
3.9472
3.80413
3.69248
3.60623
3.53835
3.4817
3.42974
3.37696
3.31918
3.25362
3.17902
3.09562
3.00512
2.91056
2.81606
2.72655
2.64755
2.58474
2.54305
2.52631
2.53674
2.57445
2.63715
2.7203
2.81743
2.91928
3.01415
3.09067
3.14005
3.15793
3.14564
3.11031
3.06372
3.0198
2.99145
2.98698
3.01018
3.05707
3.11559
3.17019
3.20596
3.21234
3.18554
3.12923
3.05351
2.97262
2.90154
2.85172
2.82981
2.83755
2.87219
2.92825
2.99828
3.07349
3.14501
3.20487
3.24657
3.26525
3.25806
3.22446
3.16645
3.08818
2.99621
2.9033
2.82536
2.77765
2.7714
2.81095
2.89251
3.00497
3.13245
3.25806
3.36857
3.45797
3.5236
3.56647
3.59101
3.60392
3.61284
3.62518
3.64685
3.68166
3.73128
3.79556
3.87064
3.94685
4.01202
4.05399
4.06299
4.0334
3.96442
3.85967
3.72622
3.57334
3.41237
3.25279
3.10232
2.9674
2.8525
2.75951
2.6861
2.62466
2.56312
2.48679
2.38024
2.22934
2.02048
1.7098
1.25068
0.667826
0
-0.708749
-0.0596894
2.46782
6.75159
11.7916
16.0648
18.2429
17.8183
15.2626
11.6784
8.235
5.7306
4.45036
4.26333
4.61337
4.76577
4.84663
4.83846
4.74153
4.57527
4.37389
4.17715
4.01961
3.91275
3.85506
3.84286
3.86677
3.91513
3.97718
4.04452
4.11328
4.18263
4.25444
4.33257
4.42198
4.52756
4.65346
4.80676
4.98271
5.15879
5.30659
5.40233
5.43715
5.42197
5.38455
5.35983
5.37805
5.44918
5.56208
5.70559
5.8715
6.05201
6.23964
6.42808
6.61255
6.78977
6.95793
7.11641
7.26553
7.40617
7.53922
7.66479
7.78151
7.88617
7.97404
8.03906
8.07472
8.075
8.03503
7.95142
7.82236
7.64769
7.42933
7.17284
6.88618
6.57914
6.26328
5.95119
5.65514
5.38676
5.15705
4.96821
4.8115
4.67309
4.5385
4.39707
4.24472
4.08433
3.9239
3.77345
3.64036
3.52738
3.43635
3.36802
3.32163
3.29528
3.28614
3.29059
3.3042
3.32099
3.33368
3.33586
3.32397
3.2989
3.26665
3.23742
3.22325
3.23469
3.27779
3.35125
3.44863
3.55892
3.669
3.76663
3.84194
3.88842
3.90322
3.88687
3.84326
3.77837
3.70007
3.61731
3.53905
3.47293
3.42401
3.39322
3.37957
3.38022
3.39089
3.40728
3.42624
3.44644
3.46831
3.49353
3.52402
3.56093
3.60366
3.64938
3.69303
3.72801
3.74843
3.7509
3.736
3.70882
3.67814
3.65448
3.64725
3.66514
3.70922
3.76731
3.82003
3.84662
3.83143
3.76892
3.66585
3.54008
3.41655
3.32175
3.27405
3.27964
3.3362
3.44536
3.60844
3.82003
4.05493
4.27063
4.42592
4.4902
4.45256
4.32715
4.15135
3.97601
3.85063
3.80774
3.83694
3.91565
4.0292
4.16879
4.32322
4.47218
4.58958
4.65026
4.63445
4.53312
4.35162
4.10952
3.83607
3.56294
3.31745
3.10774
2.93391
2.80025
2.70933
2.66616
2.68088
2.75526
2.85221
2.91204
2.86879
2.66753
2.27938
1.67359
0.893054
0
-0.951974
0.0689771
2.99911
7.34816
11.9656
15.4589
16.8263
15.9094
13.399
10.4108
7.90475
6.28178
5.36275
4.71634
4.3323
4.03657
3.78954
3.58656
3.42849
3.31309
3.23516
3.18783
3.16377
3.15685
3.1613
3.17289
3.18918
3.20935
3.23358
3.26229
3.29552
3.33147
3.36542
3.39164
3.40574
3.40707
3.39999
3.39319
3.39709
3.42055
3.46759
3.53456
3.61647
3.70868
3.80707
3.90924
4.01492
4.12536
4.24227
4.3666
4.4979
4.6342
4.7728
4.91136
5.04873
5.18515
5.32173
5.45938
5.5974
5.73206
5.85553
5.95679
6.0253
6.05376
6.04105
5.99381
5.92614
5.85691
5.80522
5.78666
5.81928
5.87779
5.90394
5.82917
5.60104
5.20611
4.67944
4.09573
3.54503
3.10264
2.75953
2.48722
2.28075
2.12649
1.99887
1.86861
1.71106
1.51106
1.26599
0.986142
0.692374
0.411667
0.171627
0
-0.0301151
0.190276
0.692303
1.2923
1.79356
2.01483
1.84781
1.32502
0.635982
0.052576
-0.212058
-0.179113
-0.0503169
0.101771
0.256543
0.401905
0.531478
0.643817
0.740565
0.82369
0.894259
0.952781
0.999165
1.03461
1.06332
1.09302
1.1336
1.19552
1.29353
1.42364
1.55223
1.63384
1.63007
1.52772
1.34747
1.13831
0.959715
0.859182
0.840469
0.873678
0.942625
1.03274
1.13002
1.22389
1.30825
1.3804
1.44013
1.48844
1.52671
1.55602
1.57757
1.59321
1.60605
1.62058
1.6421
1.67562
1.72599
1.79635
1.87953
1.95616
2.00358
2.00437
1.95405
1.8646
1.76167
1.67623
1.63399
1.64231
1.68798
1.76144
1.85114
1.94566
2.03642
2.11856
2.19044
2.25235
2.30476
2.34748
2.37785
2.39195
2.38606
2.3581
2.30941
2.24593
2.17841
2.12156
2.09211
2.11611
2.25242
2.59637
3.17313
3.82879
4.39197
4.72881
4.76171
4.48224
3.96207
3.35
2.83585
2.57095
2.49084
2.4784
2.48336
2.48383
2.46628
2.42793
2.3754
2.32036
2.27361
2.23895
2.21127
2.18198
2.13778
2.06353
1.94558
1.76658
1.48796
1.12263
0.727575
0.36595
0.0818945
0
2.01101
5.16503
9.04309
12.8537
15.5975
16.4825
15.353
12.8133
9.91675
7.60793
6.28709
5.75808
5.41082
5.05019
4.71524
4.4115
4.14897
3.93594
3.77919
3.68189
3.63729
3.6331
3.65672
3.69815
3.75143
3.81435
3.88656
3.96803
4.05518
4.1412
4.21843
4.28157
4.3302
4.36934
4.40776
4.45502
4.51871
4.5997
4.69659
4.80833
4.93257
5.06595
5.20466
5.34374
5.47797
5.60309
5.71692
5.82017
5.91649
6.01172
6.11252
6.22491
6.35267
6.4969
6.65752
6.83373
7.02364
7.2247
7.43303
7.6401
7.83243
7.99488
8.11409
8.18231
8.2001
8.17671
8.12766
8.07001
8.01675
7.97089
7.92623
7.86734
7.77107
7.61265
7.37311
7.04618
6.64255
6.1895
5.72586
5.29338
4.9225
4.65329
4.4995
4.43158
4.40295
4.36646
4.28899
4.16004
3.99237
3.81575
3.66601
3.57062
3.53292
3.54558
3.60418
3.69296
3.78828
3.86691
3.91154
3.91434
3.87839
3.81654
3.74798
3.69329
3.66908
3.68042
3.72765
3.80293
3.88267
3.9403
3.95445
3.91593
3.83116
3.72071
3.61329
3.53717
3.51084
3.52998
3.58285
3.66041
3.75319
3.85139
3.94651
4.03235
4.10528
4.16397
4.20887
4.24163
4.26429
4.27868
4.2859
4.2858
4.27662
4.25454
4.2139
4.14879
4.0543
3.92859
3.77483
3.60234
3.42654
3.26746
3.1537
3.15757
3.39838
3.88658
4.46037
4.94226
5.20497
5.19514
4.92842
4.47794
3.96352
3.5308
3.29399
3.23666
3.28472
3.38651
3.51645
3.65936
3.80229
3.93539
4.05255
4.1511
4.23101
4.29301
4.33833
4.36793
4.38197
4.38022
4.3629
4.33164
4.29017
4.2447
4.2037
4.17692
4.17365
4.20215
4.26755
4.37041
4.51012
4.67839
4.85426
5.01388
5.13511
5.2015
5.20444
5.14311
5.0229
4.85337
4.64716
4.42091
4.18849
3.96297
3.75756
3.58376
3.44966
3.35837
3.30746
3.2893
3.29252
3.30384
3.30999
3.29973
3.26309
3.19167
3.07848
2.91705
2.68143
2.31374
1.8186
1.23794
0.620087
0
1.23714
4.1116
8.15604
12.3669
15.5867
16.9796
16.344
14.131
11.1886
8.38014
6.26237
4.96225
4.30039
4.16293
4.07979
4.00081
3.91893
3.82933
3.7292
3.61869
3.5011
3.38276
3.27189
3.17745
3.10745
3.06775
3.06107
3.08647
3.13941
3.21222
3.29508
3.3774
3.44936
3.5033
3.53486
3.54357
3.53283
3.50926
3.4817
3.45988
3.45266
3.46669
3.50607
3.57205
3.66286
3.77461
3.90186
4.03872
4.18083
4.32662
4.47762
4.63774
4.81164
5.00245
5.21243
5.43687
5.65879
5.85642
6.00928
6.10414
6.13874
6.12186
6.07011
6.00249
5.93487
5.87481
5.82266
5.774
5.72034
5.65073
5.55348
5.41769
5.23472
4.99965
4.7126
4.3825
4.0207
3.6426
3.26577
2.90713
2.58446
2.30789
2.07719
1.88564
1.72379
1.58322
1.45889
1.34932
1.25501
1.17615
1.10938
1.05056
0.994743
0.936786
0.872772
0.801238
0.723888
0.645576
0.573469
0.515673
0.479535
0.47016
0.489529
0.536451
0.607237
0.696708
0.799069
0.908138
1.01754
1.11721
1.19551
1.24052
1.24276
1.19821
1.10986
0.986805
0.841411
0.685737
0.529335
0.377685
0.234609
0.104575
0
0.00427475
0.449957
1.46462
2.70009
3.64025
3.84218
3.18036
1.93513
0.651464
-0.13979
-0.149964
0.0988629
0.39199
0.693441
0.986172
1.25391
1.48518
1.6737
1.81877
1.92486
2.00052
2.05636
2.10264
2.14684
2.19197
2.23561
2.27088
2.28974
2.28694
2.26311
2.22599
2.18921
2.1692
2.18128
2.23214
2.32073
2.44621
2.60345
2.78569
2.98195
3.17736
3.3565
3.5056
3.61416
3.67644
3.69258
3.66886
3.61713
3.55293
3.49265
3.45003
3.43323
3.4463
3.48214
3.52708
3.56455
3.57918
3.56031
3.50394
3.41299
3.29604
3.1652
3.03324
2.91008
2.80151
2.70888
2.62964
2.55798
2.48333
2.39179
2.26805
2.09765
1.85107
1.48642
1.01526
0.468443
-0.109722
0
1.66941
4.85712
8.90619
12.6296
14.8229
14.8338
12.8448
9.72002
6.54477
4.14769
2.84403
2.47257
2.43711
2.35078
2.25309
2.14755
2.03556
1.91851
1.79719
1.67182
1.54222
1.40848
1.27192
1.13589
1.0062
0.890971
0.801504
0.764631
0.865059
1.28721
1.99794
2.76064
3.29792
3.38329
2.94555
2.11502
1.16779
0.403878
0.0496532
0
0.0929552
0.259883
0.561016
1.1723
2.18084
3.30451
4.235
4.718
4.63342
4.03454
3.13338
2.2462
1.72212
1.75733
2.07345
2.49469
2.96723
3.48428
4.03935
4.61736
5.1822
5.68241
6.05058
6.21662
6.1384
5.83022
5.36783
4.86127
4.40742
4.0445
3.73709
3.4574
3.19548
2.94895
2.71761
2.50194
2.30218
2.11655
1.94101
1.76961
1.59554
1.41259
1.21674
1.00726
0.787394
0.564256
0.348083
0.151556
0
-0.00513048
0.379593
1.11601
1.94196
2.52597
2.62281
2.19515
1.42451
0.611338
0.0401487
-0.112579
-0.0566032
0.0702197
0.257439
0.462932
0.635385
0.730197
0.723318
0.621339
0.462544
0.30669
0.216341
0.236813
0.354784
0.588056
0.917601
1.27868
1.59103
1.78913
1.83043
1.70152
1.42493
1.06144
0.700137
0.434562
0.32346
0.38138
0.73611
1.3745
2.07413
2.63551
2.895
2.75007
2.21185
1.44226
0.723784
0.351322
0.432858
0.883832
1.57895
2.2726
2.74826
2.87958
2.64091
2.09245
1.36568
0.652334
0.175087
-0.00691288
0
0.222567
0.793868
1.61397
2.43336
3.02112
3.20531
2.92978
2.29833
1.56002
1.02564
0.94504
1.1957
1.55602
1.94794
2.33946
2.69705
2.99284
3.20778
3.33314
3.37007
3.32768
3.22042
3.06557
2.88242
2.68884
2.4978
2.319
2.15998
2.02597
1.91929
1.83967
1.78476
1.75052
1.73165
1.7217
1.71308
1.69678
1.66264
1.6002
1.49977
1.35392
1.15245
0.886019
0.567808
0.220273
-0.128189
0
1.85555
5.06593
8.9367
12.4165
14.514
14.6963
13.0823
10.3539
7.43622
5.10247
3.69567
3.09577
2.76216
2.41013
2.06571
1.73674
1.43307
1.16314
0.932809
0.744677
0.597866
0.488505
0.41064
0.357321
0.321254
0.295747
0.2752
0.254751
0.229671
0.195272
0.147371
0.0827501
0
-0.093947
-0.199961
-0.3095
-0.410583
-0.489018
-0.530345
-0.501139
-0.333769
-0.0303053
0.309397
0.559435
0.624293
0.48673
0.221473
-0.0341347
-0.138612
-0.00488472
0.325031
0.869342
1.48773
2.01517
2.32425
2.35101
2.1064
1.6781
1.21557
0.889206
0.828723
0.982915
1.31193
1.76391
2.22866
2.60274
2.81573
2.83117
2.64116
2.26565
1.75573
1.19128
0.664862
0.239191
-0.0915394
-0.36063
-0.590844
-0.793537
-0.9775
-1.15065
-1.31863
-1.48385
-1.64525
-1.79867
-1.93778
-2.05545
-2.14494
-2.20126
-2.22138
-2.20346
-2.14948
-2.07185
-1.99062
-1.92627
-1.89505
-1.90513
-1.95464
-2.03225
-2.11972
-2.19567
-2.24158
-2.24785
-2.20809
-2.10447
-1.90213
-1.5621
-1.12634
-0.705561
-0.424892
-0.383624
-0.614412
-1.05939
-1.57843
-1.9942
-2.16165
-2.11649
-1.96915
-1.75461
-1.50312
-1.24547
-1.00718
-0.80017
-0.632827
-0.507163
-0.419921
-0.364128
-0.330734
-0.309887
-0.292339
-0.270406
-0.238381
-0.192728
-0.131775
-0.0560171
0.0308871
0.122221
0.210757
0.290605
0.358745
0.415775
0.46564
0.514478
0.569045
0.635148
0.715588
0.811294
0.921559
1.04379
1.17377
1.30154
1.41387
1.49864
1.54925
1.5685
1.56992
1.57545
1.60974
1.69289
1.82807
2.01546
2.24253
2.48504
2.71537
2.90814
3.04436
3.11371
3.1152
3.05688
2.95477
2.83161
2.71041
2.61114
2.54833
2.52615
2.54189
2.58543
2.64203
2.69588
2.73326
2.74448
2.72438
2.6715
2.58673
2.47397
2.33608
2.17367
1.98275
1.75075
1.45678
1.111
0.735694
0.356247
0
1.18368
3.74089
7.37659
11.3552
14.6977
16.5223
16.3864
14.4685
11.4807
8.3437
5.80879
4.23662
3.6258
3.91562
4.18364
4.41942
4.59885
4.70858
4.75019
4.74003
4.70477
4.67419
4.67375
4.71189
4.78442
4.88601
5.01147
5.15271
5.29969
5.44249
5.57278
5.68517
5.77782
5.85255
5.91427
5.96971
6.02578
6.08783
6.15972
6.24039
6.32348
6.40117
6.46806
6.5242
6.57621
6.63601
6.71781
6.83469
6.99165
7.18663
7.42605
7.73052
8.12215
8.55599
8.94603
9.19517
9.23585
9.06886
8.77421
8.48456
8.33328
8.40214
8.61191
8.93216
9.30902
9.65865
9.90486
9.99877
9.93071
9.72985
9.4504
9.14837
8.85827
8.57922
8.29652
8.00141
7.68831
7.35608
7.01002
6.66145
6.32575
6.01894
5.75321
5.53923
5.38686
5.30175
5.27042
5.26528
5.25772
5.22515
5.15601
5.05131
4.92241
4.78604
4.65853
4.54929
4.45944
4.38872
4.33641
4.30103
4.28093
4.27414
4.27978
4.29399
4.30685
4.30787
4.29091
4.2591
4.22671
4.21608
4.25013
4.34315
4.49112
4.67409
4.86911
5.05022
5.19454
5.28673
5.32075
5.29918
5.23092
5.12869
5.00904
4.88581
4.77133
4.67672
4.6106
4.57773
4.5798
4.61432
4.67021
4.73455
4.79644
4.85024
4.89666
4.94154
4.99238
5.05626
5.13183
5.20089
5.23547
5.20779
5.10165
4.92046
4.68922
4.44928
4.24751
4.1194
4.06664
4.09547
4.20304
4.35122
4.49435
4.59239
4.62159
4.57935
4.48226
4.35875
4.23964
4.14816
4.0901
4.06278
4.06243
4.08465
4.12383
4.17322
4.22507
4.27139
4.30539
4.32223
4.31965
4.29814
4.26075
4.2125
4.15944
4.10762
4.06172
4.02411
3.99506
3.97221
3.94534
3.89721
3.80939
3.66881
3.47383
3.23683
2.98165
2.73618
2.5229
2.34565
2.19846
2.06668
1.92882
1.76145
1.54408
1.26304
0.906217
0.479819
0
-0.542742
0.0301859
2.47235
6.65468
11.5633
15.6741
17.6823
17.1405
14.6011
11.2086
8.05481
5.73831
4.34274
3.70151
3.73129
3.74594
3.74646
3.73327
3.70716
3.67442
3.64545
3.63234
3.6524
3.71156
3.78979
3.855
3.87743
3.84366
3.76343
3.66612
3.589
3.56338
3.59687
3.67472
3.78546
3.9239
4.08455
4.26216
4.45202
4.64909
4.84486
5.02772
5.18495
5.30528
5.38174
5.41405
5.40956
5.38262
5.35246
5.34012
5.36231
5.42881
5.54363
5.70572
5.90927
6.14514
6.40128
6.66451
6.92229
7.16425
7.38292
7.57373
7.73402
7.86059
7.94977
7.99915
8.00557
7.96606
7.87919
7.74626
7.57182
7.36335
7.13023
6.88254
6.62993
6.37975
6.13765
5.90782
5.69285
5.49374
5.30994
5.13937
4.9786
4.82397
4.6727
4.52392
4.37913
4.24208
4.11782
4.01253
3.93188
3.87727
3.84731
3.83846
3.84593
3.86404
3.88624
3.90286
3.901
3.86739
3.7927
3.67639
3.52984
3.37589
3.24439
3.16519
3.17897
3.35018
3.72121
4.21205
4.67485
4.97857
5.02331
4.76617
4.25716
3.65204
3.17029
2.99849
3.10569
3.32281
3.57554
3.82944
4.05461
4.23016
4.34651
4.40519
4.41662
4.39662
4.36247
4.32929
4.30666
4.29895
4.30646
4.3276
4.35987
4.40153
4.45294
4.5174
4.6008
4.71365
4.88388
5.15287
5.48219
5.78183
5.94588
5.89853
5.63223
5.21716
4.7768
4.44231
4.30696
4.3066
4.37952
4.52611
4.7271
4.94156
5.12895
5.25725
5.30901
5.28384
5.19662
5.07229
4.93931
4.82313
4.73727
4.68709
4.67621
4.708
4.78518
4.91117
5.09376
5.34535
5.67627
6.0736
6.47916
6.81551
7.00945
7.00686
6.78725
6.37519
5.84256
5.29609
4.84942
4.55659
4.38169
4.28087
4.24231
4.25126
4.28612
4.32442
4.34578
4.33399
4.2779
4.17119
4.01138
3.79843
3.53198
3.16933
2.60548
1.87794
1.07026
0.296489
0
1.94672
5.83918
10.8338
15.4756
18.3724
18.8303
17.0874
14.0713
10.8861
8.34096
6.73622
5.93341
5.62829
5.39794
5.16672
4.93338
4.69837
4.46381
4.23394
4.01526
3.81542
3.64246
3.50375
3.40527
3.35118
3.34384
3.38398
3.47777
3.65142
3.93638
4.28561
4.60719
4.79848
4.78825
4.57269
4.22326
3.861
3.61029
3.55335
3.63081
3.77625
3.959
4.16157
4.3664
4.55847
4.72715
4.86715
4.97837
5.06497
5.13387
5.1932
5.251
5.31427
5.38851
5.47798
5.58546
5.71223
5.85864
6.02158
6.19213
6.35531
6.49267
6.58709
6.62623
6.60504
6.52659
6.40055
6.23967
6.05527
5.85335
5.63394
5.39443
5.13162
4.84214
4.52658
4.19039
3.84324
3.49726
3.16428
2.85235
2.56755
2.31287
2.08827
1.89133
1.71817
1.56443
1.42625
1.30102
1.18777
1.08718
1.00127
0.932584
0.883329
0.854659
0.846146
0.854844
0.874147
0.895289
0.910038
0.912618
0.900938
0.876629
0.84378
0.806742
0.767728
0.72525
0.673539
0.604712
0.512002
0.393793
0.256861
0.117519
0
-0.00945848
0.265873
0.814682
1.44383
1.89788
1.99585
1.72472
1.23945
0.775361
0.529455
0.581879
0.76634
0.999612
1.25844
1.52804
1.78613
2.00641
2.16499
2.24322
2.23324
2.14325
1.99889
1.839
1.70651
1.63755
1.63557
1.70088
1.84327
2.04374
2.25299
2.42102
2.51188
2.51532
2.45085
2.3612
2.29613
2.29238
2.35195
2.45486
2.56619
2.64825
2.67617
2.6484
2.58805
2.53475
2.53036
2.60435
2.74557
2.93149
3.14629
3.37551
3.60286
3.81244
3.99263
4.13708
4.24468
4.31849
4.3641
4.38776
4.39501
4.39002
4.37612
4.35624
4.33402
4.31394
4.30062
4.29813
4.30769
4.32408
4.33772
4.33772
4.31566
4.26885
4.20178
4.12543
4.055
4.00554
3.98624
4.00182
4.05969
4.16961
4.33114
4.51514
4.68311
4.79391
4.80679
4.30766
3.02939
1.42681
0
-1.04721
0.313095
3.81825
8.84257
14.0347
17.8498
19.2665
18.2476
15.6476
12.6396
10.0696
8.16577
6.7166
5.48753
4.90594
4.81065
4.79773
4.82663
4.86717
4.88631
4.85899
4.77762
4.65592
4.52486
4.42213
4.37894
4.39849
4.46384
4.55903
4.67027
4.78265
4.88305
4.96228
5.01628
5.04614
5.05717
5.05748
5.05626
5.06189
5.08071
5.11642
5.17012
5.2405
5.32207
5.40463
5.47796
5.53519
5.57526
5.60371
5.6314
5.67157
5.73627
5.83339
5.96178
6.11598
6.29111
6.4816
6.68109
6.88273
7.07912
7.26245
7.42496
7.55937
7.6594
7.72004
7.73751
7.70895
7.63202
7.50473
7.3262
7.09649
6.81811
6.49709
6.14365
5.77218
5.40028
5.04587
4.73032
4.49089
4.35392
4.27983
4.20105
4.0474
3.77499
3.38551
2.92708
2.47632
2.11
1.85624
1.70803
1.67526
1.72081
1.77925
1.78538
1.6913
1.47857
1.16304
0.791336
0.429885
0.16042
0.28843
0.959178
1.86323
2.62185
2.98601
2.92702
2.57695
2.084
1.51854
0.919187
0.393196
0
-0.235059
0.0939044
1.13467
2.41858
3.43365
3.85072
3.63357
2.98669
2.20163
1.52593
1.13978
1.01976
1.03582
1.12597
1.26598
1.44576
1.65385
1.87291
2.08347
2.26673
2.40712
2.49452
2.52535
2.50314
2.43832
2.34703
2.24887
2.16408
2.11022
2.09733
2.1264
2.19653
2.30191
2.43303
2.57813
2.72477
2.86055
2.97492
3.06028
3.1129
3.13355
3.12761
3.10459
3.07682
3.0576
3.05866
3.08689
3.14546
3.23351
3.34694
3.47682
3.61246
3.7436
3.86222
3.96349
4.04592
4.11073
4.16078
4.19962
4.23098
4.25788
4.2828
4.3076
4.3334
4.3606
4.38858
4.41638
4.44324
4.46907
4.49426
4.51896
4.54192
4.559
4.56321
4.54612
4.50046
4.42286
4.31581
4.18788
4.05227
3.92391
3.81431
3.72858
3.66984
3.63829
3.62508
3.61268
3.58006
3.50614
3.37283
3.16443
2.77729
2.04482
1.07598
0
-1.16509
-0.751569
1.69656
5.96435
10.9627
15.1566
17.2787
16.872
14.3798
10.8126
7.26199
4.52972
2.97694
2.55265
2.72753
2.66491
2.55316
2.38454
2.15947
1.88794
1.58701
1.27678
0.976228
0.696607
0.444681
0.227527
0.0513679
-0.0751362
-0.132995
-0.077767
0.158824
0.551106
0.957132
1.20948
1.16412
0.761609
0.0752834
-0.687731
-1.25201
-1.39305
-1.19562
-0.737157
-0.188331
0.25332
0.439485
0.322713
-0.034045
-0.48534
-0.853137
-0.985436
-0.882298
-0.597944
-0.176564
0.257116
0.574068
0.691415
0.605367
0.388839
0.153936
0
0.00825462
0.103
0.244971
0.423101
0.635561
0.898953
1.24459
1.63081
1.95863
2.09742
1.94826
1.50254
0.857518
0.17843
-0.372318
-0.713619
-0.952054
-1.13375
-1.28026
-1.41296
-1.54805
-1.69299
-1.84544
-1.99513
-2.12806
-2.22366
-2.27089
-2.28217
-2.28332
-2.30186
-2.35493
-2.44258
-2.54919
-2.65096
-2.72477
-2.76226
-2.76596
-2.73328
-2.66331
-2.55752
-2.41624
-2.24325
-2.054
-1.86657
-1.69742
-1.55727
-1.4487
-1.36648
-1.30032
-1.23824
-1.16968
-1.08849
-0.988978
-0.86514
-0.711059
-0.515967
-0.257426
0.0929357
0.522323
0.954324
1.29255
1.44943
1.37434
1.07281
0.61141
0.104881
-0.313678
-0.554003
-0.587029
-0.169756
0.689604
1.66931
2.49627
3.03692
3.28449
3.27891
3.03165
2.51997
1.75392
0.847766
0
-0.643127
-0.475886
1.05652
3.1461
4.95495
5.82045
5.56532
4.52874
3.28933
2.29904
1.73839
1.63196
1.77642
2.02428
2.38146
2.87023
3.4119
3.90048
4.24101
4.38284
4.33276
4.1453
3.89926
3.67284
3.51863
3.43614
3.41206
3.43711
3.50492
3.61003
3.74673
3.90763
4.08481
4.26781
4.44519
4.60663
4.74433
4.85398
4.93494
4.98943
5.02108
5.03305
5.02723
5.00288
4.95701
4.88585
4.78645
4.65821
4.50396
4.33021
4.14661
3.96472
3.79637
3.65161
3.53903
3.46498
3.43325
3.44588
3.50598
3.61827
3.77427
3.92824
4.01805
3.97821
3.75545
3.22952
2.4369
1.47822
0.485427
0
2.07992
6.01478
10.8449
15.1782
17.8024
18.1995
16.6803
14.1046
11.4048
9.20462
7.69181
6.73248
6.16431
5.97535
5.8557
5.76564
5.69788
5.64458
5.59573
5.54185
5.47669
5.39908
5.3134
5.2286
5.15621
5.10696
5.08683
5.09969
5.14705
5.22701
5.33476
5.46349
5.60537
5.7525
5.89769
6.0349
6.15927
6.26769
6.35877
6.43308
6.49324
6.54384
6.59114
6.64235
6.70477
6.78475
6.88645
7.01142
7.15838
7.32374
7.50178
7.68324
7.85604
8.00993
8.13948
8.24609
8.3384
8.43037
8.53748
8.67198
8.83983
9.03888
9.25171
9.45353
9.61812
9.72331
9.75445
9.70538
9.57764
9.37848
9.12047
8.81754
8.4805
8.11839
7.74027
7.35475
6.96926
6.59156
6.23031
5.89429
5.59128
5.32735
5.10495
4.92057
4.76572
4.62969
4.5022
4.37593
4.24814
4.12103
4.00062
3.89466
3.80946
3.75069
3.71983
3.70783
3.69967
3.67968
3.63647
3.56666
3.47594
3.37726
3.28655
3.21763
3.17523
3.15686
3.15745
3.16866
3.18152
3.18877
3.18655
3.1748
3.1565
3.13621
3.11829
3.10523
3.09753
3.09403
3.09182
3.08703
3.07622
3.05744
3.03096
2.99938
2.96704
2.93897
2.91973
2.91242
2.91808
2.93653
2.96628
3.00498
3.04946
3.09569
3.13758
3.16782
3.17915
3.16628
3.12775
3.06723
2.99341
2.91828
2.85428
2.81072
2.79013
2.79316
2.81286
2.83632
2.84928
2.83971
2.80061
2.73127
2.63706
2.52788
2.41619
2.31492
2.23437
2.1822
2.16664
2.19406
2.26809
2.40094
2.60306
2.85545
3.11444
3.33253
3.4713
3.5117
3.45816
3.33605
3.1843
3.04574
2.95235
2.91296
2.92377
2.97594
3.06199
3.16627
3.27087
3.3589
3.41739
3.43892
3.42189
3.36954
3.28828
3.18623
3.0722
2.95299
2.8336
2.71776
2.60792
2.50529
2.40989
2.32085
2.23661
2.15507
2.07381
1.9901
1.90071
1.80193
1.68929
1.55777
1.40178
1.20743
0.966235
0.684895
0.378278
0
0.965739
3.47611
7.10106
10.8917
13.7421
14.8022
13.8011
11.1619
7.8322
4.87063
2.98794
2.29804
2.41719
2.54877
2.67108
2.78533
2.88803
2.97619
3.04848
3.10536
3.14942
3.1855
3.22024
3.26113
3.31507
3.38689
3.47765
3.58582
3.70612
3.83021
3.94794
4.05078
4.13443
4.20021
4.25506
4.30973
4.37568
4.46137
4.57002
4.69715
4.83105
4.95768
5.0657
5.15031
5.21458
5.26816
5.32441
5.39738
5.49487
5.6227
5.78652
5.98922
6.23023
6.50958
6.81892
7.14141
7.45638
7.7395
7.96606
8.12218
8.20415
8.21949
8.18679
8.13359
8.09183
8.09074
8.18393
8.36629
8.57155
8.7088
8.70214
8.52271
8.19772
7.79372
7.38492
7.02311
6.70437
6.41025
6.1314
5.86325
5.60317
5.35099
5.10908
4.88156
4.67327
4.48862
4.33084
4.20176
4.10201
4.03147
3.98959
3.97532
3.98756
4.02688
4.08942
4.15307
4.18976
4.17552
4.10113
3.97888
3.84095
3.72874
3.67738
3.70252
3.78003
3.89207
4.01601
4.13126
4.22713
4.2978
4.34272
4.36494
4.36971
4.36326
4.35137
4.33985
4.3341
4.33815
4.35565
4.38495
4.41671
4.43826
4.43805
4.41016
4.35689
4.28843
4.21968
4.16592
4.13632
4.13139
4.1492
4.18694
4.23961
4.29982
4.35743
4.40098
4.42018
4.40776
4.36121
4.28389
4.18497
4.07812
3.97896
3.90195
3.85531
3.84306
3.868
3.92368
3.98736
4.0307
4.02973
3.97257
3.86445
3.72803
3.59861
3.51544
3.51193
3.65463
4.00517
4.52365
5.0748
5.53113
5.81846
5.89537
5.72549
5.27499
4.54738
3.63641
2.75031
2.1611
1.96896
2.13928
2.7834
3.64158
4.41334
4.89267
5.02934
4.89876
4.61415
4.23987
3.75689
3.12755
2.21408
1.08472
0
-0.763556
-0.908731
-0.45656
0.304731
0.975058
1.26608
1.14199
0.940171
1.25713
3.25546
6.58206
10.2134
12.9021
13.781
12.7457
10.4358
7.83475
5.74508
4.4455
3.72219
3.17277
2.69354
2.24993
1.83944
1.46619
1.13379
0.844248
0.59747
0.387814
0.205092
0.039113
-0.117899
-0.269606
-0.415054
-0.549419
-0.66559
-0.755977
-0.815848
-0.841584
-0.830447
-0.781774
-0.686989
-0.536758
-0.352803
-0.181588
-0.0741858
-0.067263
-0.16608
-0.33904
-0.527777
-0.66884
-0.717446
-0.685398
-0.605992
-0.498471
-0.380357
-0.267891
-0.172664
-0.0993862
-0.045118
0
0.0933693
0.209655
0.36527
0.581946
0.93915
1.56374
2.34116
3.07253
3.55022
3.64537
3.37339
2.8936
2.43334
2.17207
2.14971
2.19817
2.25123
2.27668
2.25377
2.17517
2.0449
1.87369
1.67466
1.46334
1.25087
1.04521
0.854086
0.684932
0.54416
0.43609
0.362207
0.321011
0.310385
0.320935
0.333753
0.33029
0.297686
0.233069
0.14506
0.0516569
-0.0247863
-0.0634415
-0.0550604
0
0.104238
0.257481
0.466219
0.759753
1.16417
1.61808
2.02236
2.26775
2.27979
2.05582
1.67342
1.26555
0.973244
0.891811
0.954008
1.10268
1.34451
1.68701
2.10887
2.53405
2.88187
3.07994
3.08621
2.91262
2.63298
2.36337
2.21937
2.26801
2.4346
2.65225
2.89097
3.12088
3.31866
3.47181
3.5796
3.65085
3.69954
3.74008
3.7835
3.8343
3.894
3.96175
4.03454
4.106
4.16355
4.19284
4.18199
4.12647
4.03248
3.91671
3.80202
3.7106
3.65737
3.63752
3.64783
3.68157
3.73115
3.78977
3.85304
3.91893
3.98585
4.05151
4.11213
4.16213
4.19462
4.20338
4.18411
4.13542
4.05897
3.95872
3.83943
3.70516
3.55801
3.39818
3.22426
3.03459
2.82841
2.6065
2.37097
2.12443
1.86901
1.6058
1.33501
1.05689
0.772598
0.4846
0.195829
-0.0921805
-0.380337
-0.679914
-1.0116
-1.40082
-1.87035
-2.47385
-3.19573
-3.9903
-4.79886
-5.45916
-3.65528
-0.275849
3.90725
7.68236
9.85949
9.81606
7.80973
4.81688
1.95752
87
121
252
319
372
515
710
904
1108
1201
1323
1537
1660
1738
1780
1827
1887
1934
1973
2127
2327
2529
2642
2733
2844
2940
3003
3080
3150
3358
3551
3608
3650
2970
3166
3231
3275
3359
3489
3555
3606
3753
3708
3735
0
0
0
0
0
0
0
0
0
0
0
0
0
0
0
0
0
0
0
0
0
0
0
0
0
0
0
0
0
0
0
0
0
0
0
0
0
0
0
0
0
0
0
0
0
0
0
0
0
0
0
0
0
0
0
0
0
0
0
0
0
0
0
0
0
0
0
0
0
0
0
0
0
0
0
0
0
0
0
0
0
0
0
0
0
0
0
0
0
0
0
0
0
0
0
0
0
0
0
0
0
0
0
0
0
0
0
0
0
0
0
0
0
0
0
0
0
0
0
0
0
0
0
0
0
0
0
0
0
0
0
0
0
0
0
0
0
0
0
0
0
0
0
0
0
0
0
0
0
0
0
0
0
0
0
0
0
0
0
0
0
0
0
0
0
0
0
0
0
0
0
0
0
0
0
0
0
0
0
0
0
0
0
0
0
0
0
0
0
0
0
0
0
0
0
0
0
0
0
0
0
0
0
0
0
0
0
0
0
0
0
0
0
0
0
0
0
0
0
0
0
0
0
0
0
0
0
0
0
0
0
0
0
0
0
0
0
0
0
0
0
0
0
0
0
0
0
0
0
0
0
0
0
0
0
0
0
0
0
0
0
0
0
0
0
0
0
0
0
0
0
0
0
0
0
0
0
0
0
0
0
0
0
0
0
0
0
0
0
0
0
0
0
0
0
0
0
0
0
0
0
0
0
0
0
0
0
0
0
0
0
0
0
0
0
0
0
0
0
0
0
0
0
0
0
0
0
0
0
0
0
0
0
0
0
0
0
0
0
0
0
0
0
0
0
0
0
0
0
0
0
0
0
0
0
0
0
0
0
0
0
0
0
0
0
0
0
0
0
0
0
0
0
0
0
0
0
0
0
0
0
0
0
0
0
0
0
0
0
0
0
0
0
0
0
0
0
0
0
0
0
0
0
0
0
0
0
0
0
0
0
0
0
0
0
0
0
0
0
0
0
0
0
0
0
0
0
0
0
0
0
0
0
0
0
0
0
0
0
0
0
0
0
0
0
0
0
0
0
0
0
0
0
0
0
0
0
0
0
0
0
0
0
0
0
0
0
0
0
0
0
0
0
0
0
0
0
0
0
0
0
0
0
0
0
0
0
0
0
0
0
0
0
0
0
0
0
0
0
0
0
0
0
0
0
0
0
0
0
0
0
0
0
0
0
0
0
0
0
0
0
0
0
0
0
0
0
0
0
0
0
0
0
0
0
0
0
0
0
0
0
0
0
0
0
0
0
0
0
0
0
0
0
0
0
0
0
0
0
0
0
0
0
0
0
0
0
0
0
0
0
0
0
0
0
0
0
0
0
0
0
0
0
0
0
0
0
0
0
0
0
0
0
0
0
0
0
0
0
0
0
0
0
0
0
0
0
0
0
0
0
0
0
0
0
0
0
0
0
0
0
0
0
0
0
0
0
0
0
0
0
0
0
0
0
0
0
0
0
0
0
0
0
0
0
0
0
0
0
0
0
0
0
0
0
0
0
0
0
0
0
0
0
0
0
0
0
0
0
0
0
0
0
0
0
0
0
0
0
0
0
0
0
0
0
0
0
0
0
0
0
0
0
0
0
0
0
0
0
0
0
0
0
0
0
0
0
0
0
0
0
0
0
0
0
0
0
0
0
0
0
0
0
0
0
0
0
0
0
0
0
0
0
0
0
0
0
0
0
0
0
0
0
0
0
0
0
0
0
0
0
0
0
0
0
0
0
0
0
0
0
0
0
0
0
0
0
0
0
0
0
0
0
0
0
0
0
0
0
0
0
0
0
0
0
0
0
0
0
0
0
0
0
0
0
0
0
0
0
0
0
0
0
0
0
0
0
0
0
0
0
0
0
0
0
0
0
0
0
0
0
0
0
0
0
0
0
0
0
0
0
0
0
0
0
0
0
0
0
0
0
0
0
0
0
0
0
0
0
0
0
0
0
0
0
0
0
0
0
0
0
0
0
0
0
0
0
0
0
0
0
0
0
0
0
0
0
0
0
0
0
0
0
0
0
0
0
0
0
0
0
0
0
0
0
0
0
0
0
0
0
0
0
0
0
0
0
0
0
0
0
0
0
0
0
0
0
0
0
0
0
0
0
0
0
0
0
0
0
0
0
0
0
0
0
0
0
0
0
0
0
0
0
0
0
0
0
0
0
0
0
0
0
0
0
0
0
0
0
0
0
0
0
0
0
0
0
0
0
0
0
0
0
0
0
0
0
0
0
0
0
0
0
0
0
0
0
0
0
0
0
0
0
0
0
0
0
0
0
0
0
0
0
0
0
0
0
0
0
0
0
0
0
0
0
0
0
0
0
0
0
0
0
0
0
0
0
0
0
0
0
0
0
0
0
0
0
0
0
0
0
0
0
0
0
0
0
0
0
0
0
0
0
0
0
0
0
0
0
0
0
0
0
0
0
0
0
0
0
0
0
0
0
0
0
0
0
0
0
0
0
0
0
0
0
0
0
0
0
0
0
0
0
0
0
0
0
0
0
0
0
0
0
0
0
0
0
0
0
0
0
0
0
0
0
0
0
0
0
0
0
0
0
0
0
0
0
0
0
0
0
0
0
0
0
0
0
0
0
0
0
0
0
0
0
0
0
0
0
0
0
0
0
0
0
0
0
0
0
0
0
0
0
0
0
0
0
0
0
0
0
0
0
0
0
0
0
0
0
0
0
0
0
0
0
0
0
0
0
0
0
0
0
0
0
0
0
0
0
0
0
0
0
0
0
0
0
0
0
0
0
0
0
0
0
0
0
0
0
0
0
0
0
0
0
0
0
0
0
0
0
0
0
0
0
0
0
0
0
0
0
0
0
0
0
0
0
0
0
0
0
0
0
0
0
0
0
0
0
0
0
0
0
0
0
0
0
0
0
0
0
0
0
0
0
0
0
0
0
0
0
0
0
0
0
0
0
0
0
0
0
0
0
0
0
0
0
0
0
0
0
0
0
0
0
0
0
0
0
0
0
0
0
0
0
0
0
0
0
0
0
0
0
0
0
0
0
0
0
0
0
0
0
0
0
0
0
0
0
0
0
0
0
0
0
0
0
0
0
0
0
0
0
0
0
0
0
0
0
0
0
0
0
0
0
0
0
0
0
0
0
0
0
0
0
0
0
0
0
0
0
0
0
0
0
0
0
0
0
0
0
0
0
0
0
0
0
0
0
0
0
0
0
0
0
0
0
0
0
0
0
0
0
0
0
0
0
0
0
0
0
0
0
0
0
0
0
0
0
0
0
0
0
0
0
0
0
0
0
0
0
0
0
0
0
0
0
0
0
0
0
0
0
0
0
0
0
0
0
0
0
0
0
0
0
0
0
0
0
0
0
0
0
0
0
0
0
0
0
0
0
0
0
0
0
0
0
0
0
0
0
0
0
0
0
0
0
0
0
0
0
0
0
0
0
0
0
0
0
0
0
0
0
0
0
0
0
0
0
0
0
0
0
0
0
0
0
0
0
0
0
0
0
0
0
0
0
0
0
0
0
0
0
0
0
0
0
0
0
0
0
0
0
0
0
0
0
0
0
0
0
0
0
0
0
0
0
0
0
0
0
0
0
0
0
0
0
0
0
0
0
0
0
0
0
0
0
0
0
0
0
0
0
0
0
0
0
0
0
0
0
0
0
0
0
0
0
0
0
0
0
0
0
0
0
0
0
0
0
0
0
0
0
0
0
0
0
0
0
0
0
0
0
0
0
0
0
0
0
0
0
0
0
0
0
0
0
0
0
0
0
0
0
0
0
0
0
0
0
0
0
0
0
0
0
0
0
0
0
0
0
0
0
0
0
0
0
0
0
0
0
0
0
0
0
0
0
0
0
0
0
0
0
0
0
0
0
0
0
0
0
0
0
0
0
0
0
0
0
0
0
0
0
0
0
0
0
0
0
0
0
0
0
0
0
0
0
0
0
0
0
0
0
0
0
0
0
0
0
0
0
0
0
0
0
0
0
0
0
0
0
0
0
0
0
0
0
0
0
0
0
0
0
0
0
0
0
0
0
0
0
0
0
0
0
0
0
0
0
0
0
0
0
0
0
0
0
0
0
0
0
0
0
0
0
0
0
0
0
0
0
0
0
0
0
0
0
0
0
0
0
0
0
0
0
0
0
0
0
0
0
0
0
0
0
0
0
0
0
0
0
0
0
0
0
0
0
0
0
0
0
0
0
0
0
0
0
0
0
0
0
0
0
0
0
0
0
0
0
0
0
0
0
0
0
0
0
0
0
0
0
0
0
0
0
0
0
0
0
0
0
0
0
0
0
0
0
0
0
0
0
0
0
0
0
0
0
0
0
0
0
0
0
0
0
0
0
0
0
0
0
0
0
0
0
0
0
0
0
0
0
0
0
0
0
0
0
0
0
0
0
0
0
0
0
0
0
0
0
0
0
0
0
0
0
0
0
0
0
0
0
0
0
0
0
0
0
0
0
0
0
0
0
0
0
0
0
0
0
0
0
0
0
0
0
0
0
0
0
0
0
0
0
0
0
0
0
0
0
0
0
0
0
0
0
0
0
0
0
0
0
0
0
0
0
0
0
0
0
0
0
0
0
0
0
0
0
0
0
0
0
0
0
0
0
0
0
0
0
0
0
0
0
0
0
0
0
0
0
0
0
0
0
0
0
0
0
0
0
0
0
0
0
0
0
0
0
0
0
0
0
0
0
0
0
0
0
0
0
0
0
0
0
0
0
0
0
0
0
0
0
0
0
0
0
0
0
0
0
0
0
0
0
0
0
0
0
0
0
0
0
0
0
0
0
0
0
0
0
0
0
0
0
0
0
0
0
0
0
0
0
0
0
0
0
0
0
0
0
0
0
0
0
0
0
0
0
0
0
0
0
0
0
0
0
0
0
0
0
0
0
0
0
0
0
0
0
0
0
0
0
0
0
0
0
0
0
0
0
0
0
0
0
0
0
0
0
0
0
0
0
0
0
0
0
0
0
0
0
0
0
0
0
0
0
0
0
0
0
0
0
0
0
0
0
0
0
0
0
0
0
0
0
0
0
0
0
0
0
0
0
0
0
0
0
0
0
0
0
0
0
0
0
0
0
0
0
0
0
0
0
0
0
0
0
0
0
0
0
0
0
0
0
0
0
0
0
0
0
0
0
0
0
0
0
0
0
0
0
0
0
0
0
0
0
0
0
0
0
0
0
0
0
0
0
0
0
0
0
0
0
0
0
0
0
0
0
0
0
0
0
0
0
0
0
0
0
0
0
0
0
0
0
0
0
0
0
0
0
0
0
0
0
0
0
0
0
0
0
0
0
0
0
0
0
0
0
0
0
0
0
0
0
0
0
0
0
0
0
0
0
0
0
0
0
0
0
0
0
0
0
0
0
0
0
0
0
0
0
0
0
0
0
0
0
0
0
0
0
0
0
0
0
0
0
0
0
0
0
0
0
0
0
0
0
0
0
0
0
0
0
0
0
0
0
0
0
0
0
0
0
0
0
0
0
0
0
0
0
0
0
0
0
0
0
0
0
0
0
0
0
0
0
0
0
0
0
0
0
0
0
0
0
0
0
0
0
0
0
0
0
0
0
0
0
0
0
0
0
0
0
0
0
0
0
0
0
0
0
0
0
0
0
0
0
0
0
0
0
0
0
0
0
0
0
0
0
0
0
0
0
0
0
0
0
0
0
0
0
0
0
0
0
0
0
0
0
0
0
0
0
0
0
0
0
0
0
0
0
0
0
0
0
0
0
0
0
0
0
0
0
0
0
0
0
0
0
0
0
0
0
0
0
0
0
0
0
0
0
0
0
0
0
0
0
0
0
0
0
0
0
0
0
0
0
0
0
0
0
0
0
0
0
0
0
0
0
0
0
0
0
0
0
0
0
0
0
0
0
0
0
0
0
0
0
0
0
0
0
0
0
0
0
0
0
0
0
0
0
0
0
0
0
0
0
0
0
0
0
0
0
0
0
0
0
0
0
0
0
0
0
0
0
0
0
0
0
0
0
0
0
0
0
0
0
0
0
0
0
0
0
0
0
0
0
0
0
0
0
0
0
0
0
0
0
0
0
0
0
0
0
0
0
0
0
0
0
0
0
0
0
0
0
0
0
0
0
0
0
0
0
0
0
0
0
0
0
0
0
0
0
0
0
0
0
0
0
0
0
0
0
0
0
0
0
0
0
0
0
0
0
0
0
0
0
0
0
0
0
0
0
0
0
0
0
0
0
0
0
0
0
0
0
0
0
0
0
0
0
0
0
0
0
0
0
0
0
0
0
0
0
0
0
0
0
0
0
0
0
0
0
0
0
0
0
0
0
0
0
0
0
0
0
0
0
0
0
0
0
0
0
0
0
0
0
0
0
0
0
0
0
0
0
0
0
0
0
0
0
0
0
0
0
0
0
0
0
0
0
0
0
0
0
0
0
0
0
0
0
0
0
0
0
0
0
0
0
0
0
0
0
0
0
0
0
0
0
0
0
0
0
0
0
0
0
0
0
0
0
0
0
0
0
0
0
0
0
0
0
0
0
0
0
0
0
0
0
0
0
0
0
0
0
0
0
0
0
0
0
0
0
0
0
0
0
0
0
0
0
0
0
0
0
0
0
0
0
0
0
0
0
0
0
0
0
0
0
0
0
0
0
0
0
0
0
0
0
0
0
0
0
0
0
0
0
0
0
0
0
0
0
0
0
0
0
0
0
0
0
0
0
0
0
0
0
0
0
0
0
0
0
0
0
0
0
0
0
0
0
0
0
0
0
0
0
0
0
0
0
0
0
0
0
0
0
0
0
0
0
0
0
0
0
0
0
0
0
0
0
0
0
0
0
0
0
0
0
0
0
0
0
0
0
0
0
0
0
0
0
0
0
0
0
0
0
0
0
0
0
0
0
0
0
0
0
0
0
0
0
0
0
0
0
0
0
0
0
0
0
0
0
0
0
0
0
0
0
0
0
0
0
0
0
0
0
0
0
0
0
0
0
0
0
0
0
0
0
0
0
0
0
0
0
0
0
0
0
0
0
0
0
0
0
0
0
0
0
0
0
0
0
0
0
0
0
0
0
0
0
0
0
0
0
0
0
0
0
0
0
0
0
0
0
0
0
0
0
0
0
0
0
0
0
0
0
0
0
0
0
0
0
0
0
0
0
0
0
0
0
0
0
0
0
0
0
0
0
0
0
0
0
0
0
0
0
0
0
0
0
0
0
0
0
0
0
0
0
0
0
0
0
0
0
0
0
0
0
0
0
0
0
0
0
0
0
0
0
0
0
0
0
0
0
0
0
0
0
0
0
0
0
0
0
0
0
0
0
0
0
0
0
0
0
0
0
0
0
0
0
0
0
0
0
0
0
0
0
0
0
0
0
0
0
0
0
0
0
0
0
0
0
0
0
0
0
0
0
0
0
0
0
0
0
0
0
0
0
0
0
0
0
0
0
0
0
0
0
0
0
0
0
0
0
0
0
0
0
0
0
0
0
0
0
0
0
0
0
0
0
0
0
0
0
0
0
0
0
0
0
0
0
0
0
0
0
0
0
0
0
0
0
0
0
0
0
0
0
0
0
0
0
0
0
0
0
0
0
0
0
0
0
0
0
0
0
0
0
0
0
0
0
0
0
0
0
0
0
0
0
0
0
0
0
0
0
0
0
0
0
0
0
0
0
0
0
0
0
0
0
0
0
0
0
0
0
0
0
0
0
0
0
0
0
0
0
0
0
0
0
0
0
0
0
0
0
0
0
0
0
0
0
0
0
0
0
0
0
0
0
0
0
0
0
0
0
0
0
0
0
0
0
0
0
0
0
0
0
0
0
0
0
0
0
0
0
0
0
0
0
0
0
0
0
0
0
0
0
0
0
0
0
0
0
0
0
0
0
0
0
0
0
0
0
0
0
0
0
0
0
0
0
0
0
0
0
0
0
0
0
0
0
0
0
0
0
0
0
0
0
0
0
0
0
0
0
0
0
0
0
0
0
0
0
0
0
0
0
0
0
0
0
0
0
0
0
0
0
0
0
0
0
0
0
0
0
0
0
0
0
0
0
0
0
0
0
0
0
0
0
0
0
0
0
0
0
0
0
0
0
0
0
0
0
0
0
0
0
0
0
0
0
0
0
0
0
0
0
0
0
0
0
0
0
0
0
0
0
0
0
0
0
0
0
0
0
0
0
0
0
0
0
0
0
0
0
0
0
0
0
0
0
0
0
0
0
0
0
0
0
0
0
0
0
0
0
0
0
0
0
0
0
0
0
0
0
0
0
0
0
0
0
0
0
0
0
0
0
0
0
0
0
0
0
0
0
0
0
0
0
0
0
0
0
0
0
0
0
0
0
0
0
0
0
0
0
0
0
0
0
0
0
0
0
0
0
0
0
0
0
0
0
0
0
0
0
0
0
0
0
0
0
0
0
0
0
0
0
0
0
