3.70932
3.77419
3.82017
3.84555
3.84709
3.82105
3.76425
3.67471
3.55183
3.39638
3.21078
3.00206
2.77651
2.53874
2.293
2.04396
1.79672
1.55648
1.32824
1.1164
0.924374
0.754327
0.607019
0.481532
0.37569
0.286474
0.210515
0.144547
0.0857353
0.0318619
-0.0186325
-0.0666847
-0.112621
-0.156199
-0.196655
-0.232714
-0.262968
-0.286148
-0.301157
-0.306966
-0.304685
-0.29711
-0.287483
-0.278598
-0.272101
-0.268301
-0.266521
-0.265762
-0.265367
-0.265321
-0.266108
-0.268266
-0.271922
-0.276556
-0.281109
-0.284303
-0.284987
-0.282418
-0.275851
-0.264433
-0.247092
-0.222697
-0.190465
-0.150493
-0.104139
-0.05411
-0.00395813
0.0424217
0.0814407
0.1096
0.125295
0.128403
0.120231
0.103313
0.0810471
0.0571899
0.0352783
0.0181015
0.00707779
0.00195084
0.00245514
0.00791244
0.0171913
0.0288254
0.0407242
0.0498322
0.0527069
0.0461105
0.0277634
-0.00293961
-0.0445549
-0.0937248
-0.145817
-0.19588
-0.239768
-0.275631
-0.302646
-0.320483
-0.329636
-0.331174
-0.326414
-0.316729
-0.303453
-0.287576
-0.26963
-0.24972
-0.227689
-0.203319
-0.176503
-0.148386
-0.12171
-0.099617
-0.0842873
-0.0756447
-0.0707657
-0.0644051
-0.0505371
-0.0243385
0.015593
0.0657997
0.122114
0.180789
0.237874
0.289546
0.332326
0.362643
0.377366
0.374524
0.352839
0.311936
0.252609
0.17696
0.088279
-0.00938187
-0.111858
-0.215505
-0.317949
-0.417767
-0.514074
-0.60603
-0.69208
-0.76852
-0.829344
-0.866223
-0.870852
-0.837669
-0.765935
-0.660438
-0.450851
0
0.549964
1.18203
1.88463
2.60988
3.23976
3.58691
3.45559
2.74488
1.53522
0.0908035
-1.24144
-2.18308
-2.53455
-2.569
-2.40164
-2.13011
-1.84712
-1.61011
-1.45196
-1.32589
-1.20798
-1.0936
-0.981957
-0.873368
-0.768559
-0.66842
-0.573875
-0.486224
-0.407732
-0.340792
-0.286329
-0.244741
-0.215291
-0.195634
-0.181907
-0.169551
-0.154656
-0.135243
-0.112167
-0.0879028
-0.0652489
-0.046463
-0.0322571
-0.0212624
-0.0101326
0.00581665
0.0316452
0.0707703
0.1249
0.194801
0.280478
0.381218
0.495725
0.622285
0.758937
0.903587
1.05402
1.20789
1.36271
1.51583
1.66455
1.8061
1.93754
2.05569
2.15802
2.24228
2.3064
2.34832
2.36589
2.35673
2.31828
2.24807
2.14411
2.00547
1.8328
1.62859
1.39717
1.14434
0.877203
0.602802
0.3272
0.0559013
-0.206231
-0.454967
-0.686711
-0.898502
-1.08758
-1.25234
-1.39273
-1.50962
-1.60454
-1.67935
-1.73593
-1.77619
-1.80078
-1.8107
-1.80958
-1.80287
-1.79658
-1.79649
-1.80723
-1.83162
-1.87039
-1.92219
-1.98385
-2.05056
-2.11709
-2.17882
-2.23182
-2.27296
-2.30054
-2.31459
-2.31602
-2.30827
-2.29566
-2.28238
-2.27167
-2.26523
-2.26303
-2.26362
-2.26461
-2.26349
-2.25854
-2.24898
-2.23436
-2.21612
-2.19727
-2.1806
-2.16739
-2.1564
-2.14383
-2.12388
-2.07886
-1.99266
-1.8847
-1.79324
-1.75561
-1.78773
-1.87555
-1.98251
-2.06701
-2.09826
-2.08245
-2.0406
-1.98109
-1.90673
-1.81883
-1.71949
-1.61436
-1.51235
-1.423
-1.3545
-1.31232
-1.29816
-1.30973
-1.34104
-1.38344
-1.42715
-1.46304
-1.48538
-1.49315
-1.48826
-1.47319
-1.45035
-1.4225
-1.39272
-1.36416
-1.33962
-1.32121
-1.31019
-1.30692
-1.31088
-1.32077
-1.33466
-1.35026
-1.36515
-1.37718
-1.38463
-1.38642
-1.38232
-1.37252
-1.35841
-1.34225
-1.32622
-1.3117
-1.29882
-1.28623
-1.2714
-1.25126
-1.2231
-1.18562
-1.13863
-1.08244
-1.02112
-0.962888
-0.915885
-0.88558
-0.872734
-0.872562
-0.875546
-0.869804
-0.844353
-0.792191
-0.717384
-0.626383
-0.522341
-0.411017
-0.300694
-0.202059
-0.1251
-0.0768913
-0.0623138
-0.0833832
-0.138116
-0.21977
-0.31747
-0.418491
-0.511588
-0.59185
-0.661269
-0.722851
-0.778259
-0.828535
-0.87425
-0.915173
-0.950135
-0.977402
-0.995056
-1.0017
-0.997071
-0.982423
-0.949073
-0.600587
0
0.835252
1.82288
2.78887
3.53871
3.93279
3.9184
3.50729
2.73584
1.65943
0.385962
-0.899227
-1.96717
-2.61592
-2.82378
-2.65966
-2.29163
-1.89007
-1.56642
-1.36325
-1.25177
-1.16244
-1.08284
-1.00922
-0.940375
-0.875462
-0.813466
-0.752945
-0.692351
-0.630458
-0.566719
-0.501432
-0.435693
-0.371019
-0.309035
-0.251153
-0.198364
-0.15116
-0.109569
-0.0731442
-0.040976
-0.0116215
0.0169628
0.047443
0.0830021
0.127102
0.183127
0.253836
0.341127
0.445994
0.568353
0.707114
0.860382
1.02572
1.20037
1.38138
1.56559
1.74959
1.92954
2.09988
2.25382
2.38627
2.49374
2.57531
2.63316
2.67228
2.69951
2.72209
2.74621
2.77683
2.81664
2.86295
2.90355
2.92096
2.89655
2.81423
2.66477
2.44943
2.18086
1.88035
1.57245
1.27603
0.994593
0.729133
0.482893
0.257815
0.0546448
-0.1269
-0.287912
-0.43008
-0.555407
-0.665646
-0.762944
-0.849598
-0.927396
-0.997321
-1.05898
-1.11132
-1.15254
-1.18075
-1.19461
-1.19405
-1.17927
-1.15259
-1.11968
-1.08841
-1.06621
-1.0585
-1.06758
-1.09218
-1.12765
-1.16685
-1.20154
-1.22399
-1.22962
-1.21791
-1.19051
-1.14926
-1.09575
-1.03191
-0.960061
-0.882803
-0.803065
-0.724231
-0.650556
-0.586287
-0.535224
-0.500207
-0.482745
-0.482961
-0.499824
-0.531599
-0.576269
-0.631285
-0.694573
-0.765246
-0.839188
-0.906672
-0.955797
-0.975251
-0.957848
-0.903337
-0.81924
-0.719318
-0.620298
-0.537929
-0.482051
-0.458268
-0.466286
-0.500527
-0.551822
-0.60985
-0.665642
-0.71341
-0.752487
-0.784298
-0.808798
-0.825352
-0.832708
-0.82912
-0.80772
-0.753441
-0.665342
-0.569438
-0.500176
-0.485276
-0.531623
-0.62011
-0.713182
-0.772038
-0.774675
-0.739811
-0.6901
-0.636725
-0.590803
-0.561239
-0.553453
-0.568936
-0.605425
-0.657475
-0.717328
-0.776049
-0.824826
-0.856802
-0.869635
-0.864554
-0.84318
-0.806629
-0.75494
-0.687149
-0.60761
-0.529625
-0.467426
-0.432496
-0.429915
-0.456367
-0.500903
-0.548351
-0.58406
-0.598473
-0.594831
-0.578665
-0.553556
-0.522487
-0.488552
-0.454798
-0.423891
-0.397912
-0.378301
-0.365879
-0.360905
-0.363264
-0.372131
-0.386035
-0.402738
-0.419151
-0.431116
-0.433929
-0.422976
-0.394624
-0.347156
-0.278433
-0.187556
-0.0876671
0.00477829
0.0748711
0.113231
0.117908
0.0936459
0.0490704
-0.0068327
-0.067481
-0.129377
-0.191653
-0.25419
-0.316863
-0.379188
-0.440235
-0.498777
-0.553595
-0.603811
-0.649133
-0.689869
-0.726912
-0.761386
-0.794229
-0.826015
-0.856702
-0.885665
-0.907667
-0.609155
0
0.791712
1.65337
2.4825
3.20231
3.73162
3.95122
3.71404
2.9216
1.62806
0.0874758
-1.31503
-2.22913
-2.45927
-2.1015
-1.71616
-1.36317
-1.12939
-1.06624
-1.0586
-1.06781
-1.0721
-1.05203
-0.995446
-0.906731
-0.798265
-0.678118
-0.551868
-0.424802
-0.302879
-0.193397
-0.102744
-0.0346075
0.00895252
0.0281116
0.0259974
0.00891857
-0.0143133
-0.033913
-0.0409784
-0.0303328
-0.00200233
0.0423895
0.101924
0.176113
0.264081
0.364397
0.474957
0.592938
0.714923
0.837252
0.956548
1.07036
1.17767
1.27915
1.37697
1.47437
1.57485
1.68132
1.79533
1.91664
2.04309
2.17091
2.29482
2.40864
2.50657
2.58392
2.63738
2.66502
2.66583
2.63928
2.58473
2.50115
2.38721
2.24271
2.06868
1.86668
1.63916
1.39046
1.12666
0.855171
0.583995
0.320897
0.0725858
-0.155904
-0.360514
-0.53936
-0.695396
-0.833494
-0.959068
-1.07667
-1.1889
-1.29601
-1.39615
-1.48628
-1.56388
-1.6282
-1.67879
-1.71684
-1.74558
-1.77151
-1.80328
-1.84901
-1.91444
-2.0014
-2.10689
-2.22313
-2.33869
-2.4391
-2.47322
-2.37917
-2.20694
-2.04441
-1.97093
-2.01996
-2.16687
-2.34615
-2.48783
-2.55053
-2.55527
-2.53596
-2.50331
-2.45921
-2.40155
-2.32729
-2.24261
-2.1624
-2.10388
-2.08035
-2.09524
-2.14018
-2.19816
-2.25045
-2.28398
-2.29985
-2.30531
-2.30353
-2.29691
-2.28659
-2.27218
-2.25238
-2.22592
-2.19267
-2.1545
-2.11441
-2.07528
-2.03999
-2.01093
-1.98971
-1.97704
-1.97276
-1.97593
-1.98485
-1.99719
-2.01007
-2.01971
-2.0224
-2.01535
-1.99741
-1.96927
-1.93393
-1.896
-1.8603
-1.83057
-1.80858
-1.79388
-1.78426
-1.77652
-1.76752
-1.75531
-1.73922
-1.71923
-1.69595
-1.67128
-1.64827
-1.62991
-1.61845
-1.61474
-1.61814
-1.62678
-1.63829
-1.65065
-1.66282
-1.67492
-1.68764
-1.70183
-1.71794
-1.73554
-1.75305
-1.76774
-1.77587
-1.77367
-1.75808
-1.72768
-1.68269
-1.62423
-1.55918
-1.49565
-1.44094
-1.39983
-1.37384
-1.3615
-1.35947
-1.36377
-1.3706
-1.37711
-1.3812
-1.3811
-1.37529
-1.36262
-1.34236
-1.31425
-1.27899
-1.23651
-1.18637
-1.12768
-1.05684
-0.962751
-0.832743
-0.68395
-0.549401
-0.463951
-0.449189
-0.503501
-0.601082
-0.699606
-0.753522
-0.728564
-0.643608
-0.524942
-0.385493
-0.231081
-0.0655545
0.104263
0.265834
0.40625
0.514883
0.58463
0.613081
0.603075
0.562275
0.501732
0.433718
0.369199
0.313788
0.267551
0.228324
0.193746
0.161087
0.12779
0.0923473
0.0548703
0.017455
-0.0159663
-0.0408338
-0.0533054
-0.0514423
-0.0358562
0
0.298842
0.825527
1.57305
2.47842
3.40625
4.20394
4.75031
4.96446
4.78583
4.17272
3.14445
1.83706
0.508087
-0.542863
-1.10155
-1.1134
-0.785508
-0.314194
0.102692
0.368281
0.483454
0.573057
0.664558
0.758123
0.853848
0.951991
1.05273
1.15604
1.26162
1.36886
1.47615
1.57907
1.67063
1.74335
1.79153
1.81406
1.81614
1.80913
1.80801
1.82728
1.87669
1.9527
2.04674
2.15268
2.26624
2.38386
2.50303
2.62258
2.74256
2.86385
2.98752
3.11444
3.24493
3.3788
3.51562
3.65496
3.79668
3.941
4.08833
4.23903
4.39298
4.54936
4.70647
4.86185
5.0124
5.15455
5.28471
5.39971
5.49688
5.57374
5.6278
5.65717
5.66057
5.63665
5.5841
5.50196
5.38992
5.24865
5.07993
4.88685
4.67469
4.45017
4.21915
3.98697
3.7588
3.53908
3.33127
3.13737
2.95761
2.79104
2.63618
2.49175
2.35707
2.2322
2.11785
2.01607
1.92705
1.84912
1.77969
1.71599
1.65601
1.59909
1.54592
1.49803
1.45703
1.42298
1.39556
1.37444
1.35893
1.34823
1.34161
1.33857
1.33876
1.34188
1.34751
1.35499
1.36277
1.36849
1.36956
1.36362
1.34907
1.32527
1.29252
1.25173
1.20413
1.15135
1.09543
1.03834
0.982917
0.933603
0.895432
0.873221
0.87033
0.88752
0.923177
0.973602
1.02845
1.07677
1.10986
1.12331
1.11752
1.09674
1.06697
1.0339
1.00154
0.971491
0.944377
0.920798
0.901242
0.886115
0.875632
0.869653
0.867451
0.868011
0.869964
0.871727
0.871635
0.867918
0.859278
0.845033
0.82537
0.801502
0.775594
0.750397
0.728641
0.712548
0.703636
0.700755
0.701251
0.701935
0.700161
0.694577
0.685279
0.673417
0.660505
0.647808
0.635942
0.625136
0.615363
0.60641
0.59785
0.588849
0.577914
0.56304
0.542105
0.513481
0.476599
0.432273
0.382658
0.330906
0.280628
0.234615
0.195476
0.165124
0.144562
0.133807
0.131974
0.137537
0.148683
0.163657
0.180916
0.199286
0.217718
0.234894
0.249158
0.258487
0.260681
0.253728
0.23625
0.207961
0.170082
0.125615
0.0790902
0.0377565
0.00934324
0.000169754
0.0178439
0.0639625
0.125235
0.183714
0.223654
0.237181
0.226212
0.200209
0.171526
0.150898
0.141486
0.141863
0.151329
0.169724
0.197173
0.232406
0.269333
0.2995
0.314848
0.310447
0.286817
0.250766
0.214298
0.204432
0.346367
0.649694
0.992691
1.23858
1.30016
1.1756
0.936748
0.679886
0.474903
0.348111
0.261664
0.192649
0.134573
0.0862372
0.0485073
0.0217497
0.00582142
0
0.00565357
0.0185013
0.0367412
0.058667
0.0828521
0.108879
0.14584
0.433239
1.0331
1.89375
2.86387
3.76028
4.4264
4.75045
4.65251
4.08444
3.06541
1.72949
0.330295
-0.833672
-1.53932
-1.56209
-1.38251
-1.01622
-0.58591
-0.227504
-0.076758
-0.0398405
-0.0246233
-0.0170147
-0.00787249
0.00860319
0.033182
0.0624503
0.0915399
0.117485
0.141483
0.168854
0.206726
0.260649
0.331655
0.412161
0.496878
0.579926
0.655529
0.719714
0.771135
0.811203
0.843543
0.872971
0.904326
0.941528
0.986933
1.04075
1.10351
1.17593
1.25882
1.35309
1.45943
1.57805
1.70857
1.84962
2.00022
2.16003
2.32929
2.50875
2.69918
2.9018
3.1211
3.35282
3.57732
3.77174
3.91759
4.00592
4.03845
4.02472
3.97737
3.90764
3.82249
3.72553
3.61664
3.49398
3.35531
3.19902
3.02449
2.8319
2.62269
2.39973
2.16692
1.92869
1.68951
1.45344
1.22404
1.00432
0.796841
0.603813
0.427081
0.268143
0.128026
0.00674891
-0.0964272
-0.182879
-0.254434
-0.313183
-0.361181
-0.400107
-0.432417
-0.460741
-0.487472
-0.514493
-0.542955
-0.573225
-0.60506
-0.637966
-0.671597
-0.705978
-0.741574
-0.779148
-0.819492
-0.863124
-0.91001
-0.959341
-1.00939
-1.05741
-1.0991
-1.12968
-1.14435
-1.13922
-1.10238
-1.02282
-0.915573
-0.806993
-0.723411
-0.682554
-0.688848
-0.733857
-0.80074
-0.870327
-0.926402
-0.964194
-0.986241
-0.995121
-0.992231
-0.978488
-0.954812
-0.922433
-0.882837
-0.838103
-0.792122
-0.751206
-0.722101
-0.710423
-0.718934
-0.746238
-0.78654
-0.830791
-0.868973
-0.892713
-0.899976
-0.893377
-0.873851
-0.843452
-0.804703
-0.760348
-0.71284
-0.664116
-0.616691
-0.574706
-0.543157
-0.527379
-0.531811
-0.558443
-0.60565
-0.667947
-0.736897
-0.80298
-0.8578
-0.898732
-0.925421
-0.938278
-0.939343
-0.931554
-0.91797
-0.901299
-0.88326
-0.864668
-0.84575
-0.826462
-0.80687
-0.787507
-0.76993
-0.757084
-0.752382
-0.758763
-0.777372
-0.806503
-0.841304
-0.874483
-0.896672
-0.888511
-0.841409
-0.774046
-0.716829
-0.697485
-0.728281
-0.800793
-0.890059
-0.965936
-1.00647
-1.01617
-1.01067
-0.99728
-0.98103
-0.965743
-0.953224
-0.943103
-0.933292
-0.920852
-0.90305
-0.878868
-0.848363
-0.811596
-0.770022
-0.727626
-0.688999
-0.658057
-0.637051
-0.626066
-0.623165
-0.625095
-0.628223
-0.629323
-0.626595
-0.619044
-0.605661
-0.585745
-0.558958
-0.525492
-0.486236
-0.442749
-0.397276
-0.352592
-0.311211
-0.274845
-0.244058
-0.218242
-0.195887
-0.175022
-0.153657
-0.130126
-0.103255
-0.0722354
-0.0367239
0.00306511
0.0473122
0.0937218
0.138812
0.179183
0.212643
0.23874
0.258211
0.2703
0.272799
0.259997
0.224476
0.160869
0.0627963
-0.0573656
-0.178872
-0.280147
-0.346061
-0.371234
-0.358543
-0.314842
-0.247006
-0.16154
0
0.432605
1.02059
1.70878
2.45532
3.20987
3.87095
4.26658
4.19514
3.52775
2.31445
0.815734
-0.584366
-1.54959
-1.93663
-1.85293
-1.51604
-1.13176
-0.795091
-0.503888
-0.242777
-0.0665153
0.0517972
0.154864
0.2529
0.348041
0.43841
0.519879
0.586379
0.632585
0.656796
0.662499
0.657587
0.651457
0.651411
0.660184
0.674238
0.690908
0.707827
0.72404
0.740385
0.759063
0.782758
0.813839
0.85263
0.899156
0.954285
1.01914
1.09499
1.18306
1.28413
1.39819
1.52408
1.65958
1.80164
1.94686
2.09201
2.23468
2.37362
2.50896
2.64206
2.77518
2.91096
3.05209
3.20256
3.36841
3.55108
3.73319
3.88766
3.98881
4.02009
3.97936
3.87911
3.74016
3.58022
3.40381
3.20745
2.99353
2.76602
2.5274
2.28039
2.02916
1.7791
1.53607
1.30566
1.09243
0.899451
0.728108
0.578041
0.447435
0.333363
0.23153
0.137091
0.0453404
-0.0476227
-0.14427
-0.245202
-0.349199
-0.452555
-0.548654
-0.630386
-0.691923
-0.730134
-0.745216
-0.740392
-0.720873
-0.692546
-0.660828
-0.629888
-0.602605
-0.58091
-0.565933
-0.558041
-0.556827
-0.561135
-0.569181
-0.578807
-0.58781
-0.594403
-0.597632
-0.59684
-0.59191
-0.58292
-0.570896
-0.557383
-0.543844
-0.531238
-0.519786
-0.509001
-0.498006
-0.485954
-0.47237
-0.457347
-0.44108
-0.42364
-0.404754
-0.383751
-0.359741
-0.332001
-0.300245
-0.26501
-0.228692
-0.195244
-0.169007
-0.153594
-0.150901
-0.160502
-0.179607
-0.203584
-0.226944
-0.24461
-0.253716
-0.253808
-0.246016
-0.232057
-0.214642
-0.196797
-0.181274
-0.170114
-0.16447
-0.164676
-0.170522
-0.181588
-0.197348
-0.21744
-0.241672
-0.269687
-0.300728
-0.333493
-0.366094
-0.396228
-0.421615
-0.440456
-0.451784
-0.455596
-0.452937
-0.445561
-0.43546
-0.424115
-0.411994
-0.398353
-0.381399
-0.358785
-0.328326
-0.28875
-0.238412
-0.17904
-0.116674
-0.058785
-0.0124706
0.0171753
0.0280596
0.0213186
0.000898314
-0.0272872
-0.056416
-0.0805353
-0.0957349
-0.0999356
-0.0928301
-0.0754773
-0.0495418
-0.0170031
0.0205231
0.0622795
0.108528
0.160357
0.219221
0.286414
0.363009
0.450927
0.552871
0.668698
0.786222
0.885143
0.942469
0.939747
0.872081
0.752753
0.608794
0.468905
0.351381
0.253405
0.16618
0.0875991
0.0179637
-0.0418072
-0.0905665
-0.127503
-0.15256
-0.166493
-0.17057
-0.166095
-0.15406
-0.132184
0
0.41241
1.02554
1.79855
2.66375
3.50781
4.16973
4.47478
4.2973
3.61324
2.5154
1.19092
-0.123893
-1.19555
-1.8445
-2.00131
-1.74671
-1.24524
-0.710417
-0.310165
-0.124089
-0.0848532
-0.0471278
-0.00794492
0.0326177
0.0745742
0.117661
0.161304
0.204746
0.247207
0.288029
0.326819
0.363506
0.39834
0.431819
0.464576
0.497245
0.530354
0.564295
0.599356
0.635838
0.674205
0.715197
0.759882
0.809605
0.865858
0.930082
1.00348
1.08687
1.18056
1.2844
1.39778
1.51972
1.64895
1.78402
1.92338
2.06555
2.20918
2.35324
2.49694
2.63975
2.78115
2.92048
3.05666
3.18807
3.31275
3.42852
3.53321
3.62471
3.69919
3.75147
3.77854
3.77676
3.7421
3.67083
3.56044
3.41056
3.22352
3.00425
2.75988
2.50065
2.23421
1.96592
1.7001
1.44002
1.18807
0.946014
0.715296
0.497208
0.292966
0.103643
-0.069942
-0.227334
-0.368478
-0.493677
-0.603452
-0.698415
-0.779069
-0.845661
-0.898102
-0.935518
-0.952345
-0.929681
-0.84704
-0.731134
-0.627148
-0.58195
-0.621024
-0.734039
-0.879919
-1.00981
-1.09306
-1.13635
-1.16413
-1.1837
-1.19638
-1.20205
-1.1995
-1.18728
-1.16471
-1.13113
-1.08885
-1.04458
-1.00674
-0.982419
-0.975248
-0.984312
-1.00445
-1.02784
-1.04643
-1.0542
-1.05004
-1.03682
-1.01748
-0.994255
-0.969077
-0.943444
-0.918244
-0.893788
-0.869973
-0.846508
-0.823119
-0.7997
-0.776382
-0.75353
-0.731695
-0.71152
-0.693577
-0.678202
-0.665369
-0.654621
-0.6451
-0.635721
-0.62545
-0.613598
-0.600043
-0.58604
-0.574474
-0.568791
-0.571774
-0.584342
-0.604818
-0.628995
-0.651033
-0.664911
-0.666099
-0.649531
-0.612091
-0.563446
-0.519554
-0.495236
-0.498355
-0.526005
-0.564499
-0.59381
-0.595198
-0.558973
-0.496887
-0.421209
-0.343296
-0.274768
-0.224938
-0.199094
-0.197918
-0.217921
-0.252508
-0.293261
-0.331409
-0.360493
-0.376702
-0.377885
-0.363326
-0.332864
-0.289329
-0.239849
-0.191963
-0.151716
-0.122291
-0.103675
-0.093478
-0.0885658
-0.0868505
-0.0889554
-0.0981424
-0.11918
-0.155683
-0.207489
-0.270224
-0.332321
-0.37966
-0.399984
-0.386795
-0.341189
-0.271024
-0.187977
-0.103863
-0.026283
0.0433253
0.103932
0.155715
0.200078
0.239303
0.276165
0.31354
0.354059
0.400388
0.45474
0.516522
0.579422
0.633393
0.668377
0.677455
0.659153
0.618044
0.56328
0.505397
0.452552
0.407084
0.365978
0.325829
0.284013
0.238856
0.190273
0.140127
0.091953
0.0500333
0.018405
0
-0.00426893
0.0055645
0.0325987
0.178932
0.586315
1.18352
1.92267
2.71882
3.46468
4.04484
4.34837
4.28028
3.78224
2.86496
1.64071
0.327731
-0.799208
-1.50422
-1.68339
-1.43801
-0.962892
-0.483684
-0.144549
0.0250397
0.0984158
0.157595
0.213359
0.267177
0.319187
0.369088
0.416022
0.458555
0.494851
0.523032
0.541512
0.549632
0.548273
0.540241
0.530261
0.524466
0.529431
0.550643
0.590772
0.649297
0.723628
0.810139
0.904297
1.00025
1.09257
1.17794
1.25585
1.32874
1.40129
1.47919
1.56769
1.67025
1.78769
1.91746
2.05595
2.19977
2.34573
2.4914
2.63517
2.77595
2.91273
3.04419
3.16824
3.28281
3.38619
3.47756
3.55746
3.62767
3.69046
3.74675
3.7959
3.83269
3.84551
3.81906
3.7393
3.59844
3.39811
3.1495
2.87042
2.58047
2.2947
2.01795
1.75345
1.50364
1.26992
1.05328
0.854624
0.674956
0.515349
0.377993
0.265348
0.174969
0.10102
0.036109
-0.0272849
-0.0952168
-0.171001
-0.254567
-0.342572
-0.429179
-0.508167
-0.573359
-0.619876
-0.644974
-0.648469
-0.632692
-0.602027
-0.561612
-0.517718
-0.478457
-0.451185
-0.441373
-0.451938
-0.482614
-0.529666
-0.586312
-0.644045
-0.694643
-0.732875
-0.759127
-0.774999
-0.782828
-0.785903
-0.787563
-0.79039
-0.795649
-0.803075
-0.810985
-0.816664
-0.817219
-0.810217
-0.793708
-0.766547
-0.728689
-0.681171
-0.625833
-0.565017
-0.501271
-0.43714
-0.375932
-0.322817
-0.282532
-0.259497
-0.256297
-0.271919
-0.300858
-0.333968
-0.361096
-0.374532
-0.369505
-0.351063
-0.329748
-0.316908
-0.319949
-0.339617
-0.370306
-0.4029
-0.428618
-0.443069
-0.447874
-0.445496
-0.437183
-0.424041
-0.406941
-0.386557
-0.363452
-0.338871
-0.316785
-0.303501
-0.305787
-0.328179
-0.370361
-0.425932
-0.483409
-0.529339
-0.552477
-0.550886
-0.525095
-0.4814
-0.429485
-0.379781
-0.341064
-0.318971
-0.315559
-0.329692
-0.357837
-0.394645
-0.434403
-0.472422
-0.504836
-0.52891
-0.543735
-0.549725
-0.547168
-0.536751
-0.519533
-0.496984
-0.470558
-0.442036
-0.413476
-0.38685
-0.36378
-0.345322
-0.331849
-0.323091
-0.318313
-0.316552
-0.316805
-0.318275
-0.320485
-0.323208
-0.326427
-0.330233
-0.334688
-0.339668
-0.344709
-0.348907
-0.350888
-0.348895
-0.340958
-0.325127
-0.299831
-0.263889
-0.216766
-0.158685
-0.0906877
-0.0146532
0.0670581
0.151459
0.234401
0.311097
0.377049
0.428483
0.462737
0.478503
0.475861
0.456143
0.421668
0.375409
0.320882
0.26164
0.200974
0.142004
0.0886487
0.0449502
0.0144425
0
0.00672464
0.0314743
0.0729105
0.128388
0.19442
0.268149
0.368817
0.691688
1.25228
1.99665
2.82574
3.62959
4.29057
4.67273
4.63767
4.1046
3.11972
1.87896
0.668533
-0.254254
-0.767397
-0.866696
-0.80582
-0.63871
-0.418327
-0.158491
0.119511
0.345993
0.495955
0.602359
0.687385
0.760674
0.824889
0.880639
0.929225
0.97275
1.01399
1.05601
1.10155
1.15254
1.2095
1.27148
1.33738
1.40599
1.47608
1.54666
1.61705
1.68687
1.75603
1.82463
1.893
1.96174
2.03182
2.10459
2.18168
2.26482
2.35548
2.45457
2.56232
2.67827
2.80138
2.93107
3.06731
3.2107
3.36243
3.52393
3.69635
3.88007
4.07425
4.27684
4.48509
4.69201
4.8853
5.05256
5.18357
5.27214
5.31712
5.32207
5.29378
5.23981
5.16585
5.07389
4.96398
4.83563
4.68837
4.52129
4.33349
4.12592
3.90163
3.66562
3.42445
3.18537
2.95558
2.74147
2.54816
2.38014
2.23901
2.12276
2.02763
1.94906
1.8826
1.82455
1.77213
1.72344
1.67714
1.63221
1.588
1.54423
1.50106
1.45904
1.41888
1.38141
1.34668
1.3141
1.28288
1.25258
1.22353
1.19686
1.17388
1.15589
1.1419
1.12861
1.11143
1.08613
1.05053
1.00547
0.95474
0.903989
0.859142
0.823139
0.796443
0.779305
0.771196
0.770408
0.774644
0.781469
0.788686
0.79456
0.797866
0.797782
0.793711
0.78512
0.771594
0.752815
0.728703
0.699754
0.667277
0.633493
0.601413
0.57453
0.557022
0.55468
0.573798
0.614707
0.665949
0.710909
0.733246
0.721548
0.672566
0.592174
0.493791
0.394651
0.31105
0.249733
0.207715
0.182177
0.172116
0.175442
0.189393
0.210686
0.23603
0.262559
0.287618
0.308818
0.324101
0.3318
0.330612
0.319708
0.298853
0.268646
0.230534
0.186858
0.140747
0.0957679
0.05538
0.0224992
-0.00062418
-0.01323
-0.0173782
-0.017925
-0.0201419
-0.0281021
-0.0434559
-0.0650086
-0.0892484
-0.111627
-0.128097
-0.136584
-0.137907
-0.13299
-0.123283
-0.110059
-0.0939429
-0.0748345
-0.0521915
-0.0255099
0.00505285
0.0385906
0.0739645
0.109747
0.144427
0.176654
0.205463
0.230377
0.251423
0.269065
0.284063
0.297292
0.309531
0.321262
0.332509
0.342734
0.350809
0.355113
0.353838
0.345282
0.328213
0.302184
0.26775
0.22651
0.180979
0.134288
0.0898555
0.0509434
0.0203124
0
-0.00818549
-0.00439163
0.0111219
0.03752
0.0735067
0.117401
0.16917
0.252972
0.50582
0.982212
1.7053
2.58017
3.40931
3.9808
4.16287
3.93953
3.37085
2.5298
1.484
0.335029
-0.740687
-1.50697
-1.77062
-1.62396
-1.20288
-0.763297
-0.499104
-0.430336
-0.317178
-0.153101
0.0503227
0.269118
0.45791
0.571234
0.587943
0.523694
0.423405
0.338068
0.300858
0.309728
0.339552
0.382854
0.43898
0.50811
0.590517
0.690999
0.806932
0.923888
1.02448
1.09564
1.13465
1.15059
1.1605
1.18238
1.22885
1.29688
1.37896
1.47156
1.57251
1.67996
1.79264
1.90994
2.03181
2.15856
2.29061
2.42831
2.57184
2.72125
2.87656
3.03785
3.20524
3.3788
3.55856
3.7453
3.93802
4.12823
4.30081
4.4399
4.533
4.57349
4.56052
4.49676
4.38545
4.22863
4.02775
3.79291
3.53631
3.26804
2.9961
2.72688
2.46537
2.21583
1.98115
1.76268
1.56038
1.37317
1.19954
1.03808
0.887922
0.748895
0.621301
0.505785
0.404254
0.317034
0.237779
0.157852
0.0687138
-0.0352184
-0.154391
-0.283478
-0.412342
-0.366849
-0.0530265
0.370445
0.690223
0.759199
0.5675
0.226092
-0.114495
-0.344754
-0.412013
-0.401382
-0.36622
-0.318992
-0.262431
-0.197977
-0.129735
-0.0630716
-0.00341923
0.0445716
0.0777098
0.0946447
0.0959598
0.0840594
0.0629161
0.0379544
0.0145328
-0.0020932
-0.00739098
0.00183861
0.0256989
0.0631781
0.112692
0.172601
0.240005
0.309038
0.371229
0.41764
0.4399
0.431418
0.388711
0.312538
0.20855
0.0798766
-0.051213
-0.159855
-0.225222
-0.236806
-0.197788
-0.12375
-0.0369388
0.0415087
0.0983889
0.138585
0.168087
0.188748
0.202109
0.209185
0.210093
0.204361
0.191169
0.169939
0.140941
0.105687
0.0668876
0.0284437
-0.00537276
-0.0309333
-0.0460348
-0.0493867
-0.0423995
-0.0275233
-0.00718031
0.0170845
0.0448662
0.0765728
0.11377
0.15484
0.193829
0.222545
0.233677
0.223904
0.195461
0.155507
0.113763
0.0795057
0.0568053
0.0446256
0.0418319
0.0476934
0.059329
0.0738099
0.0891563
0.105059
0.123061
0.146081
0.177399
0.219427
0.272552
0.334404
0.40146
0.468896
0.531322
0.583047
0.616878
0.628054
0.613601
0.572539
0.506563
0.420664
0.323259
0.225521
0.143667
0.132084
0.246519
0.431683
0.597834
0.664863
0.595959
0.411821
0.182297
0
-0.0571095
-0.00613453
0.0847752
0.201222
0.504454
0.965279
1.60196
2.43446
3.37854
4.25117
4.839
4.9883
4.65793
3.91054
2.86312
1.64688
0.404439
-0.693657
-1.44608
-1.6863
-1.52357
-1.06059
-0.540757
-0.187768
-0.087859
-0.0100292
0.088098
0.193946
0.307849
0.422204
0.525726
0.607369
0.660042
0.682887
0.681351
0.665224
0.645593
0.631923
0.627967
0.63362
0.648309
0.671525
0.702648
0.741069
0.786466
0.838889
0.898702
0.9664
1.04237
1.12667
1.21885
1.31794
1.42246
1.53068
1.64078
1.75121
1.86089
1.9695
2.07754
2.18623
2.29721
2.41209
2.53197
2.65712
2.78688
2.91978
3.05402
3.18781
3.31964
3.44796
3.5701
3.68238
3.78115
3.86145
3.91796
3.94625
3.94325
3.90692
3.83551
3.72711
3.58233
3.40759
3.20866
2.98964
2.75577
2.5132
2.26819
2.02532
1.78808
1.55897
1.33953
1.13053
0.932225
0.744681
0.568068
0.402907
0.250906
0.114945
-0.00293139
-0.100844
-0.177653
-0.233432
-0.269674
-0.289184
-0.295722
-0.293526
-0.287092
-0.280228
-0.276401
-0.278514
-0.288841
-0.308979
-0.339812
-0.3815
-0.433445
-0.49423
-0.561396
-0.632524
-0.701258
-0.75865
-0.795673
-0.805694
-0.786825
-0.743129
-0.683949
-0.621478
-0.567408
-0.528165
-0.504885
-0.496794
-0.500195
-0.509494
-0.51839
-0.521739
-0.516513
-0.501018
-0.4742
-0.435722
-0.389396
-0.341789
-0.299954
-0.269865
-0.255236
-0.257014
-0.27365
-0.301908
-0.337857
-0.377394
-0.417225
-0.45488
-0.487598
-0.512297
-0.526386
-0.527818
-0.515652
-0.490491
-0.454579
-0.411421
-0.36505
-0.319203
-0.276422
-0.237888
-0.204694
-0.178013
-0.159124
-0.148902
-0.148096
-0.156858
-0.174263
-0.198046
-0.224758
-0.250323
-0.270835
-0.283442
-0.287008
-0.281492
-0.268039
-0.248533
-0.225178
-0.199803
-0.173556
-0.146758
-0.118848
-0.0885226
-0.0540891
-0.0140026
0.0326773
0.0871561
0.146642
0.204535
0.253063
0.285393
0.297349
0.288111
0.259871
0.216954
0.165017
0.110943
0.0612927
0.0228625
0.00137706
0
0.018918
0.0527807
0.0942394
0.135341
0.169871
0.19656
0.192895
0.272016
0.669235
1.40183
2.38045
3.42306
4.30169
4.80878
4.81013
4.26776
3.23904
1.87219
0.405071
-0.860294
-1.63707
-1.70618
-1.31385
-0.667819
-0.106904
0.141611
0.120541
0.148269
0.186663
0.233315
0.287441
0.346588
0.408139
0.469545
0.528804
0.58471
0.637035
0.686377
0.733862
0.780788
0.828313
0.877274
0.928176
0.981211
1.03651
1.09434
1.15516
1.2195
1.28772
1.35974
1.43498
1.51245
1.591
1.67018
1.75076
1.83493
1.92601
2.0277
2.14301
2.27333
2.41737
2.57192
2.73337
2.89795
3.06228
3.22395
3.38177
3.53567
3.68633
3.83471
3.98153
4.12692
4.27017
4.40968
4.54281
4.66504
4.7689
4.84588
4.88844
4.88812
4.83729
4.73166
4.57254
4.36768
4.12979
3.87348
3.61255
3.35402
3.1007
2.85498
2.61863
2.39325
2.18047
1.98204
1.79969
1.63485
1.48835
1.35998
1.24835
1.15119
1.06585
0.989844
0.921332
0.859327
0.80361
0.754323
0.71206
0.677067
0.646631
0.616037
0.580363
0.53634
0.483646
0.425854
0.371573
0.33068
0.310902
0.315217
0.341121
0.381963
0.429615
0.477207
0.521393
0.561556
0.596779
0.625736
0.646767
0.657104
0.653511
0.633507
0.596649
0.545376
0.48509
0.423409
0.368769
0.327224
0.302854
0.297553
0.310191
0.33795
0.374524
0.412531
0.445253
0.467902
0.478329
0.477053
0.46671
0.451138
0.434368
0.419568
0.4084
0.401643
0.399712
0.402211
0.408615
0.418682
0.432701
0.451479
0.476179
0.509895
0.554315
0.602894
0.645348
0.671427
0.67549
0.659505
0.63278
0.608451
0.598471
0.609168
0.634906
0.669641
0.710254
0.753191
0.794038
0.825842
0.841859
0.835642
0.802547
0.741708
0.657317
0.558218
0.455651
0.360117
0.277201
0.205177
0.14347
0.0917608
0.0493493
0.0155591
-0.0098905
-0.0269345
-0.0354109
-0.0350575
-0.0256948
0
0.170738
0.64345
1.28081
1.99898
2.71574
3.35851
3.85341
4.11376
4.04508
3.57677
2.70697
1.53612
0.262831
-0.86801
-1.6445
-1.95959
-1.86728
-1.49716
-1.03063
-0.621428
-0.354259
-0.246663
-0.196999
-0.1521
-0.108213
-0.0651394
-0.0236159
0.0146382
0.0472824
0.0720368
0.0872978
0.0928047
0.0900072
0.0819875
0.0729546
0.0674858
0.0697783
0.0823387
0.106028
0.141438
0.189139
0.249268
0.321332
0.404403
0.499284
0.602267
0.703129
0.792125
0.864118
0.921582
0.974656
1.03772
1.12379
1.23947
1.37864
1.52959
1.68563
1.84175
1.99411
2.14039
2.27972
2.41215
2.53805
2.65749
2.76984
2.87368
2.96648
3.0445
3.10351
3.14075
3.15389
3.14096
3.10041
3.03105
2.93202
2.80268
2.64272
2.4525
2.23633
2.00024
1.74997
1.4912
1.23042
0.974472
0.729705
0.50132
0.292455
0.104161
-0.0643288
-0.215014
-0.350424
-0.473003
-0.584704
-0.686851
-0.780289
-0.865423
-0.942395
-1.01126
-1.07203
-1.12477
-1.16958
-1.20666
-1.23641
-1.25949
-1.27693
-1.2901
-1.30074
-1.31121
-1.32408
-1.34149
-1.36471
-1.39375
-1.42724
-1.46265
-1.49677
-1.52648
-1.54944
-1.56521
-1.57456
-1.57842
-1.57834
-1.5761
-1.5731
-1.56995
-1.56639
-1.56139
-1.55354
-1.54145
-1.52428
-1.50195
-1.47538
-1.44601
-1.4155
-1.38556
-1.35768
-1.33301
-1.31236
-1.29626
-1.28513
-1.27944
-1.27965
-1.286
-1.29854
-1.317
-1.34065
-1.36823
-1.398
-1.42791
-1.45578
-1.47952
-1.49754
-1.5087
-1.51224
-1.50806
-1.49681
-1.47948
-1.45805
-1.43574
-1.41564
-1.39986
-1.38874
-1.38051
-1.37143
-1.35648
-1.33045
-1.28906
-1.23132
-1.15657
-1.0616
-0.946325
-0.823498
-0.71567
-0.643708
-0.621529
-0.651336
-0.720737
-0.80378
-0.86704
-0.879842
-0.829572
-0.737862
-0.625424
-0.502938
-0.379921
-0.266739
-0.171745
-0.100102
-0.0532398
-0.029073
-0.0228264
-0.0282345
-0.0387871
-0.0487511
-0.0543335
-0.0537155
-0.046064
-0.031617
-0.0112766
0.0129269
0.0369049
0.0561077
0.0665653
0.0657673
0.0531902
0.0302914
0
-0.0517895
-0.103719
0.113282
0.58116
1.30537
2.23483
3.21378
4.0198
4.44804
4.38839
3.84725
2.91766
1.73864
0.475281
-0.688925
-1.57559
-2.04619
-2.11214
-1.8432
-1.38638
-0.890733
-0.463446
-0.186419
-0.112169
-0.100024
-0.121371
-0.179043
-0.269909
-0.38542
-0.513594
-0.641887
-0.760446
-0.865651
-0.958509
-1.04084
-1.11323
-1.176
-1.22971
-1.27474
-1.3118
-1.34128
-1.36319
-1.37702
-1.38187
-1.37677
-1.3609
-1.33383
-1.29582
-1.24706
-1.1871
-1.115
-1.02934
-0.928584
-0.811734
-0.678925
-0.531892
-0.37427
-0.210657
-0.0461212
0.114572
0.26776
0.411456
0.545584
0.671859
0.793351
0.913832
1.03704
1.16596
1.30225
1.44583
1.59484
1.74592
1.89283
2.02585
2.13574
2.21457
2.25656
2.25836
2.21874
2.138
2.01751
1.85964
1.66822
1.45141
1.21765
0.974784
0.730362
0.491168
0.262687
0.0503067
-0.141084
-0.308844
-0.452121
-0.57148
-0.668638
-0.746158
-0.807105
-0.854709
-0.892065
-0.921888
-0.946569
-0.967755
-0.986367
-1.00279
-1.01696
-1.02842
-1.03644
-1.04014
-1.03862
-1.03116
-1.01739
-0.997235
-0.970845
-0.939848
-0.908208
-0.881435
-0.865057
-0.863259
-0.877608
-0.9062
-0.94352
-0.98112
-1.00911
-1.01817
-1.00212
-0.960448
-0.897425
-0.818265
-0.72724
-0.628252
-0.524947
-0.42037
-0.31684
-0.216016
-0.119028
-0.0265823
0.0610138
0.143952
0.222997
0.299465
0.375045
0.451403
0.529718
0.610555
0.691409
0.765184
0.822799
0.856204
0.861258
0.839283
0.796757
0.743338
0.689084
0.641661
0.602911
0.572019
0.548221
0.530206
0.516206
0.504845
0.495629
0.489178
0.487138
0.491769
0.505299
0.529218
0.565597
0.614609
0.670771
0.723693
0.762479
0.778411
0.766985
0.728867
0.669665
0.598728
0.527217
0.465765
0.420059
0.390079
0.373576
0.370074
0.374117
0.378626
0.37697
0.364569
0.339836
0.304245
0.26154
0.216487
0.173619
0.135631
0.103439
0.0774582
0.0577026
0.0436676
0.0342514
0.0275711
0.0209442
0.0114548
-0.00332489
-0.0246414
-0.0519424
-0.0825928
-0.112051
-0.134628
-0.144638
-0.138005
-0.112498
-0.0631485
0.00249176
0.0701859
0.12534
0.157532
0.163269
0.146117
0.114369
0.0776291
0.0438309
0.016304
-0.00474548
-0.0188934
-0.0257034
-0.0248886
-0.0162903
0
0.0508286
0.107751
0.169453
0.234657
0.302184
0.371129
0.441025
0.512343
0.718262
1.11653
1.74409
2.60388
3.61734
4.60613
5.31763
5.50267
5.01717
3.90011
2.38307
0.816554
-0.456597
-1.21978
-1.40772
-1.21881
-0.807203
-0.353605
0.0242195
0.276919
0.423921
0.531689
0.626746
0.715883
0.801597
0.887032
0.97634
1.07402
1.18402
1.30888
1.44918
1.6023
1.76465
1.93262
2.10246
2.27069
2.43441
2.59149
2.74056
2.88086
3.01199
3.133
3.24278
3.34154
3.42972
3.50827
3.57876
3.64332
3.7043
3.76373
3.82272
3.88102
3.93703
3.98826
4.03221
4.06732
4.0937
4.11349
4.13067
4.1504
4.17776
4.21649
4.26819
4.33436
4.41413
4.50236
4.59126
4.67225
4.73727
4.77961
4.79451
4.7792
4.73295
4.6568
4.5535
4.42705
4.28166
4.12126
3.94881
3.76559
3.57163
3.36691
3.15173
2.92713
2.69509
2.45854
2.22112
1.98676
1.7593
1.54205
1.33757
1.14745
0.972328
0.811853
0.664737
0.528814
0.401138
0.278155
0.155946
0.0305687
-0.101556
-0.243194
-0.39588
-0.559574
-0.732477
-0.911082
-1.09051
-1.26509
-1.42913
-1.57764
-1.707
-1.81536
-1.90256
-1.96996
-2.02
-2.05587
-2.08102
-2.09904
-2.11376
-2.12889
-2.14758
-2.17212
-2.20354
-2.24128
-2.28323
-2.32592
-2.36507
-2.3965
-2.41656
-2.42255
-2.41241
-2.38477
-2.34209
-2.29207
-2.24341
-2.20372
-2.17768
-2.16595
-2.16528
-2.16972
-2.17266
-2.16904
-2.1579
-2.13982
-2.11619
-2.08925
-2.06139
-2.03458
-2.00991
-1.98751
-1.96674
-1.94651
-1.92569
-1.90344
-1.87923
-1.85283
-1.82429
-1.79379
-1.76163
-1.72821
-1.69411
-1.66012
-1.62704
-1.59539
-1.56514
-1.53545
-1.50483
-1.47142
-1.43361
-1.39052
-1.34222
-1.29092
-1.24031
-1.19453
-1.15706
-1.1298
-1.11257
-1.10316
-1.09788
-1.09225
-1.08225
-1.06531
-1.03952
-1.00368
-0.957443
-0.901044
-0.835996
-0.765288
-0.692169
-0.619536
-0.549391
-0.482535
-0.418587
-0.356359
-0.294487
-0.23213
-0.169558
-0.108249
-0.0510637
-0.00145016
0.0373985
0.0635031
0.0767698
0.0791168
0.0739811
0.0653654
0.0567425
0.0500404
0.0456715
0.0428344
0.0399308
0.0351566
0.0268666
0.0133265
-0.00684519
-0.0301128
-0.0455084
-0.0394529
0
0.0782071
0.213155
0.651093
1.23838
1.87532
2.54182
3.22174
3.86949
4.39611
4.67403
4.56398
3.96707
2.8968
1.53047
0.184216
-0.804828
-1.22039
-1.09866
-0.618757
-0.0239911
0.508429
0.908605
1.15506
1.27818
1.38694
1.49334
1.59979
1.70756
1.81739
1.92935
2.0428
2.15665
2.26957
2.38015
2.48707
2.5891
2.68539
2.77555
2.85956
2.93781
3.01112
3.08073
3.14825
3.21561
3.28499
3.3586
3.4386
3.52725
3.62654
3.73797
3.86231
3.99941
4.14809
4.30652
4.47246
4.64358
4.81787
4.99389
5.1708
5.34825
5.52619
158
392
643
903
1167
1437
1672
1923
2177
2414
2643
2847
3037
3244
3477
3698
3195
3381
3574
0
0
0
0
0
0
0
0
0
0
0
0
0
0
0
0
0
0
0
0
0
0
0
0
0
0
0
0
0
0
0
0
0
0
0
0
0
0
0
0
0
0
0
0
0
0
0
0
0
0
0
0
0
0
0
0
0
0
0
0
0
0
0
0
0
0
0
0
0
0
0
0
0
0
0
0
0
0
0
0
0
0
0
0
0
0
0
0
0
0
0
0
0
0
0
0
0
0
0
0
0
0
0
0
0
0
0
0
0
0
0
0
0
0
0
0
0
0
0
0
0
0
0
0
0
0
0
0
0
0
0
0
0
0
0
0
0
0
0
0
0
0
0
0
0
0
0
0
0
0
0
0
0
0
0
0
0
0
0
0
0
0
0
0
0
0
0
0
0
0
0
0
0
0
0
0
0
0
0
0
0
0
0
0
0
0
0
0
0
0
0
0
0
0
0
0
0
0
0
0
0
0
0
0
0
0
0
0
0
0
0
0
0
0
0
0
0
0
0
0
0
0
0
0
0
0
0
0
0
0
0
0
0
0
0
0
0
0
0
0
0
0
0
0
0
0
0
0
0
0
0
0
0
0
0
0
0
0
0
0
0
0
0
0
0
0
0
0
0
0
0
0
0
0
0
0
0
0
0
0
0
0
0
0
0
0
0
0
0
0
0
0
0
0
0
0
0
0
0
0
0
0
0
0
0
0
0
0
0
0
0
0
0
0
0
0
0
0
0
0
0
0
0
0
0
0
0
0
0
0
0
0
0
0
0
0
0
0
0
0
0
0
0
0
0
0
0
0
0
0
0
0
0
0
0
0
0
0
0
0
0
0
0
0
0
0
0
0
0
0
0
0
0
0
0
0
0
0
0
0
0
0
0
0
0
0
0
0
0
0
0
0
0
0
0
0
0
0
0
0
0
0
0
0
0
0
0
0
0
0
0
0
0
0
0
0
0
0
0
0
0
0
0
0
0
0
0
0
0
0
0
0
0
0
0
0
0
0
0
0
0
0
0
0
0
0
0
0
0
0
0
0
0
0
0
0
0
0
0
0
0
0
0
0
0
0
0
0
0
0
0
0
0
0
0
0
0
0
0
0
0
0
0
0
0
0
0
0
0
0
0
0
0
0
0
0
0
0
0
0
0
0
0
0
0
0
0
0
0
0
0
0
0
0
0
0
0
0
0
0
0
0
0
0
0
0
0
0
0
0
0
0
0
0
0
0
0
0
0
0
0
0
0
0
0
0
0
0
0
0
0
0
0
0
0
0
0
0
0
0
0
0
0
0
0
0
0
0
0
0
0
0
0
0
0
0
0
0
0
0
0
0
0
0
0
0
0
0
0
0
0
0
0
0
0
0
0
0
0
0
0
0
0
0
0
0
0
0
0
0
0
0
0
0
0
0
0
0
0
0
0
0
0
0
0
0
0
0
0
0
0
0
0
0
0
0
0
0
0
0
0
0
0
0
0
0
0
0
0
0
0
0
0
0
0
0
0
0
0
0
0
0
0
0
0
0
0
0
0
0
0
0
0
0
0
0
0
0
0
0
0
0
0
0
0
0
0
0
0
0
0
0
0
0
0
0
0
0
0
0
0
0
0
0
0
0
0
0
0
0
0
0
0
0
0
0
0
0
0
0
0
0
0
0
0
0
0
0
0
0
0
0
0
0
0
0
0
0
0
0
0
0
0
0
0
0
0
0
0
0
0
0
0
0
0
0
0
0
0
0
0
0
0
0
0
0
0
0
0
0
0
0
0
0
0
0
0
0
0
0
0
0
0
0
0
0
0
0
0
0
0
0
0
0
0
0
0
0
0
0
0
0
0
0
0
0
0
0
0
0
0
0
0
0
0
0
0
0
0
0
0
0
0
0
0
0
0
0
0
0
0
0
0
0
0
0
0
0
0
0
0
0
0
0
0
0
0
0
0
0
0
0
0
0
0
0
0
0
0
0
0
0
0
0
0
0
0
0
0
0
0
0
0
0
0
0
0
0
0
0
0
0
0
0
0
0
0
0
0
0
0
0
0
0
0
0
0
0
0
0
0
0
0
0
0
0
0
0
0
0
0
0
0
0
0
0
0
0
0
0
0
0
0
0
0
0
0
0
0
0
0
0
0
0
0
0
0
0
0
0
0
0
0
0
0
0
0
0
0
0
0
0
0
0
0
0
0
0
0
0
0
0
0
0
0
0
0
0
0
0
0
0
0
0
0
0
0
0
0
0
0
0
0
0
0
0
0
0
0
0
0
0
0
0
0
0
0
0
0
0
0
0
0
0
0
0
0
0
0
0
0
0
0
0
0
0
0
0
0
0
0
0
0
0
0
0
0
0
0
0
0
0
0
0
0
0
0
0
0
0
0
0
0
0
0
0
0
0
0
0
0
0
0
0
0
0
0
0
0
0
0
0
0
0
0
0
0
0
0
0
0
0
0
0
0
0
0
0
0
0
0
0
0
0
0
0
0
0
0
0
0
0
0
0
0
0
0
0
0
0
0
0
0
0
0
0
0
0
0
0
0
0
0
0
0
0
0
0
0
0
0
0
0
0
0
0
0
0
0
0
0
0
0
0
0
0
0
0
0
0
0
0
0
0
0
0
0
0
0
0
0
0
0
0
0
0
0
0
0
0
0
0
0
0
0
0
0
0
0
0
0
0
0
0
0
0
0
0
0
0
0
0
0
0
0
0
0
0
0
0
0
0
0
0
0
0
0
0
0
0
0
0
0
0
0
0
0
0
0
0
0
0
0
0
0
0
0
0
0
0
0
0
0
0
0
0
0
0
0
0
0
0
0
0
0
0
0
0
0
0
0
0
0
0
0
0
0
0
0
0
0
0
0
0
0
0
0
0
0
0
0
0
0
0
0
0
0
0
0
0
0
0
0
0
0
0
0
0
0
0
0
0
0
0
0
0
0
0
0
0
0
0
0
0
0
0
0
0
0
0
0
0
0
0
0
0
0
0
0
0
0
0
0
0
0
0
0
0
0
0
0
0
0
0
0
0
0
0
0
0
0
0
0
0
0
0
0
0
0
0
0
0
0
0
0
0
0
0
0
0
0
0
0
0
0
0
0
0
0
0
0
0
0
0
0
0
0
0
0
0
0
0
0
0
0
0
0
0
0
0
0
0
0
0
0
0
0
0
0
0
0
0
0
0
0
0
0
0
0
0
0
0
0
0
0
0
0
0
0
0
0
0
0
0
0
0
0
0
0
0
0
0
0
0
0
0
0
0
0
0
0
0
0
0
0
0
0
0
0
0
0
0
0
0
0
0
0
0
0
0
0
0
0
0
0
0
0
0
0
0
0
0
0
0
0
0
0
0
0
0
0
0
0
0
0
0
0
0
0
0
0
0
0
0
0
0
0
0
0
0
0
0
0
0
0
0
0
0
0
0
0
0
0
0
0
0
0
0
0
0
0
0
0
0
0
0
0
0
0
0
0
0
0
0
0
0
0
0
0
0
0
0
0
0
0
0
0
0
0
0
0
0
0
0
0
0
0
0
0
0
0
0
0
0
0
0
0
0
0
0
0
0
0
0
0
0
0
0
0
0
0
0
0
0
0
0
0
0
0
0
0
0
0
0
0
0
0
0
0
0
0
0
0
0
0
0
0
0
0
0
0
0
0
0
0
0
0
0
0
0
0
0
0
0
0
0
0
0
0
0
0
0
0
0
0
0
0
0
0
0
0
0
0
0
0
0
0
0
0
0
0
0
0
0
0
0
0
0
0
0
0
0
0
0
0
0
0
0
0
0
0
0
0
0
0
0
0
0
0
0
0
0
0
0
0
0
0
0
0
0
0
0
0
0
0
0
0
0
0
0
0
0
0
0
0
0
0
0
0
0
0
0
0
0
0
0
0
0
0
0
0
0
0
0
0
0
0
0
0
0
0
0
0
0
0
0
0
0
0
0
0
0
0
0
0
0
0
0
0
0
0
0
0
0
0
0
0
0
0
0
0
0
0
0
0
0
0
0
0
0
0
0
0
0
0
0
0
0
0
0
0
0
0
0
0
0
0
0
0
0
0
0
0
0
0
0
0
0
0
0
0
0
0
0
0
0
0
0
0
0
0
0
0
0
0
0
0
0
0
0
0
0
0
0
0
0
0
0
0
0
0
0
0
0
0
0
0
0
0
0
0
0
0
0
0
0
0
0
0
0
0
0
0
0
0
0
0
0
0
0
0
0
0
0
0
0
0
0
0
0
0
0
0
0
0
0
0
0
0
0
0
0
0
0
0
0
0
0
0
0
0
0
0
0
0
0
0
0
0
0
0
0
0
0
0
0
0
0
0
0
0
0
0
0
0
0
0
0
0
0
0
0
0
0
0
0
0
0
0
0
0
0
0
0
0
0
0
0
0
0
0
0
0
0
0
0
0
0
0
0
0
0
0
0
0
0
0
0
0
0
0
0
0
0
0
0
0
0
0
0
0
0
0
0
0
0
0
0
0
0
0
0
0
0
0
0
0
0
0
0
0
0
0
0
0
0
0
0
0
0
0
0
0
0
0
0
0
0
0
0
0
0
0
0
0
0
0
0
0
0
0
0
0
0
0
0
0
0
0
0
0
0
0
0
0
0
0
0
0
0
0
0
0
0
0
0
0
0
0
0
0
0
0
0
0
0
0
0
0
0
0
0
0
0
0
0
0
0
0
0
0
0
0
0
0
0
0
0
0
0
0
0
0
0
0
0
0
0
0
0
0
0
0
0
0
0
0
0
0
0
0
0
0
0
0
0
0
0
0
0
0
0
0
0
0
0
0
0
0
0
0
0
0
0
0
0
0
0
0
0
0
0
0
0
0
0
0
0
0
0
0
0
0
0
0
0
0
0
0
0
0
0
0
0
0
0
0
0
0
0
0
0
0
0
0
0
0
0
0
0
0
0
0
0
0
0
0
0
0
0
0
0
0
0
0
0
0
0
0
0
0
0
0
0
0
0
0
0
0
0
0
0
0
0
0
0
0
0
0
0
0
0
0
0
0
0
0
0
0
0
0
0
0
0
0
0
0
0
0
0
0
0
0
0
0
0
0
0
0
0
0
0
0
0
0
0
0
0
0
0
0
0
0
0
0
0
0
0
0
0
0
0
0
0
0
0
0
0
0
0
0
0
0
0
0
0
0
0
0
0
0
0
0
0
0
0
0
0
0
0
0
0
0
0
0
0
0
0
0
0
0
0
0
0
0
0
0
0
0
0
0
0
0
0
0
0
0
0
0
0
0
0
0
0
0
0
0
0
0
0
0
0
0
0
0
0
0
0
0
0
0
0
0
0
0
0
0
0
0
0
0
0
0
0
0
0
0
0
0
0
0
0
0
0
0
0
0
0
0
0
0
0
0
0
0
0
0
0
0
0
0
0
0
0
0
0
0
0
0
0
0
0
0
0
0
0
0
0
0
0
0
0
0
0
0
0
0
0
0
0
0
0
0
0
0
0
0
0
0
0
0
0
0
0
0
0
0
0
0
0
0
0
0
0
0
0
0
0
0
0
0
0
0
0
0
0
0
0
0
0
0
0
0
0
0
0
0
0
0
0
0
0
0
0
0
0
0
0
0
0
0
0
0
0
0
0
0
0
0
0
0
0
0
0
0
0
0
0
0
0
0
0
0
0
0
0
0
0
0
0
0
0
0
0
0
0
0
0
0
0
0
0
0
0
0
0
0
0
0
0
0
0
0
0
0
0
0
0
0
0
0
0
0
0
0
0
0
0
0
0
0
0
0
0
0
0
0
0
0
0
0
0
0
0
0
0
0
0
0
0
0
0
0
0
0
0
0
0
0
0
0
0
0
0
0
0
0
0
0
0
0
0
0
0
0
0
0
0
0
0
0
0
0
0
0
0
0
0
0
0
0
0
0
0
0
0
0
0
0
0
0
0
0
0
0
0
0
0
0
0
0
0
0
0
0
0
0
0
0
0
0
0
0
0
0
0
0
0
0
0
0
0
0
0
0
0
0
0
0
0
0
0
0
0
0
0
0
0
0
0
0
0
0
0
0
0
0
0
0
0
0
0
0
0
0
0
0
0
0
0
0
0
0
0
0
0
0
0
0
0
0
0
0
0
0
0
0
0
0
0
0
0
0
0
0
0
0
0
0
0
0
0
0
0
0
0
0
0
0
0
0
0
0
0
0
0
0
0
0
0
0
0
0
0
0
0
0
0
0
0
0
0
0
0
0
0
0
0
0
0
0
0
0
0
0
0
0
0
0
0
0
0
0
0
0
0
0
0
0
0
0
0
0
0
0
0
0
0
0
0
0
0
0
0
0
0
0
0
0
0
0
0
0
0
0
0
0
0
0
0
0
0
0
0
0
0
0
0
0
0
0
0
0
0
0
0
0
0
0
0
0
0
0
0
0
0
0
0
0
0
0
0
0
0
0
0
0
0
0
0
0
0
0
0
0
0
0
0
0
0
0
0
0
0
0
0
0
0
0
0
0
0
0
0
0
0
0
0
0
0
0
0
0
0
0
0
0
0
0
0
0
0
0
0
0
0
0
0
0
0
0
0
0
0
0
0
0
0
0
0
0
0
0
0
0
0
0
0
0
0
0
0
0
0
0
0
0
0
0
0
0
0
0
0
0
0
0
0
0
0
0
0
0
0
0
0
0
0
0
0
0
0
0
0
0
0
0
0
0
0
0
0
0
0
0
0
0
0
0
0
0
0
0
0
0
0
0
0
0
0
0
0
0
0
0
0
0
0
0
0
0
0
0
0
0
0
0
0
0
0
0
0
0
0
0
0
0
0
0
0
0
0
0
0
0
0
0
0
0
0
0
0
0
0
0
0
0
0
0
0
0
0
0
0
0
0
0
0
0
0
0
0
0
0
0
0
0
0
0
0
0
0
0
0
0
0
0
0
0
0
0
0
0
0
0
0
0
0
0
0
0
0
0
0
0
0
0
0
0
0
0
0
0
0
0
0
0
0
0
0
0
0
0
0
0
0
0
0
0
0
0
0
0
0
0
0
0
0
0
0
0
0
0
0
0
0
0
0
0
0
0
0
0
0
0
0
0
0
0
0
0
0
0
0
0
0
0
0
0
0
0
0
0
0
0
0
0
0
0
0
0
0
0
0
0
0
0
0
0
0
0
0
0
0
0
0
0
0
0
0
0
0
0
0
0
0
0
0
0
0
0
0
0
0
0
0
0
0
0
0
0
0
0
0
0
0
0
0
0
0
0
0
0
0
0
0
0
0
0
0
0
0
0
0
0
0
0
0
0
0
0
0
0
0
0
0
0
0
0
0
0
0
0
0
0
0
0
0
0
0
0
0
0
0
0
0
0
0
0
0
0
0
0
0
0
0
0
0
0
0
0
0
0
0
0
0
0
0
0
0
0
0
0
0
0
0
0
0
0
0
0
0
0
0
0
0
0
0
0
0
0
0
0
0
0
0
0
0
0
0
0
0
0
0
0
0
0
0
0
0
0
0
0
0
0
0
0
0
0
0
0
0
0
0
0
0
0
0
0
0
0
0
0
0
0
0
0
0
0
0
0
0
0
0
0
0
0
0
0
0
0
0
0
0
0
0
0
0
0
0
0
0
0
0
0
0
0
0
0
0
0
0
0
0
0
0
0
0
0
0
0
0
0
0
0
0
0
0
0
0
0
0
0
0
0
0
0
0
0
0
0
0
0
0
0
0
0
0
0
0
0
0
0
0
0
0
0
0
0
0
0
0
0
0
0
0
0
0
0
0
0
0
0
0
0
0
0
0
0
0
0
0
0
0
0
0
0
0
0
0
0
0
0
0
0
0
0
0
0
0
0
0
0
0
0
0
0
0
0
0
0
0
0
0
0
0
0
0
0
0
0
0
0
0
0
0
0
0
0
0
0
0
0
0
0
0
0
0
0
0
0
0
0
0
0
0
0
0
0
0
0
0
0
0
0
0
0
0
0
0
0
0
0
0
0
0
0
0
0
0
0
0
0
0
0
0
0
0
0
0
0
0
0
0
0
0
0
0
0
0
0
0
0
0
0
0
0
0
0
0
0
0
0
0
0
0
0
0
0
0
0
0
0
0
0
0
0
0
0
0
0
0
0
0
0
0
0
0
0
0
0
0
0
0
0
0
0
0
0
0
0
0
0
0
0
0
0
0
0
0
0
0
0
0
0
0
0
0
0
0
0
0
0
0
0
0
0
0
0
0
0
0
0
0
0
0
0
0
0
0
0
0
0
0
0
0
0
0
0
0
0
0
0
0
0
0
0
0
0
0
0
0
0
0
0
0
0
0
0
0
0
0
0
0
0
0
0
0
0
0
0
0
0
0
0
0
0
0
0
0
0
0
0
0
0
0
0
0
0
0
0
0
0
0
0
0
0
0
0
0
0
0
0
0
0
0
0
0
0
0
0
0
0
0
0
0
0
0
0
0
0
0
0
0
0
0
0
0
0
0
0
0
0
0
0
0
0
0
0
0
0
0
0
0
