0.585654
0.602873
0.672269
0.780155
0.899951
1.00377
1.07049
1.08997
1.06245
0.995441
0.901312
0.796642
0.700329
0.626008
0.582478
0.572365
0.590525
0.636906
0.702682
0.77325
0.834477
0.876372
0.895386
0.894636
0.882128
0.867708
0.859849
0.861985
0.872735
0.88993
0.910692
0.931032
0.946811
0.95483
0.953431
0.942764
0.92469
0.902342
0.879441
0.859542
0.845426
0.838107
0.837412
0.84308
0.854236
0.869687
0.88784
0.906513
0.923611
0.937549
0.947626
0.954202
0.95856
0.962447
0.967426
0.974273
0.982624
0.991116
0.997804
1.00082
0.999003
0.992324
0.981933
0.969897
0.958709
0.950675
0.947259
0.949056
0.955937
0.967085
0.981087
0.995732
1.00821
1.01625
1.01897
1.01754
1.01527
1.01706
1.02805
1.05246
1.0963
1.15419
1.21423
1.26277
1.2894
1.29034
1.26905
1.23422
1.19634
1.1647
1.14291
1.13128
1.13053
1.14099
1.16212
1.19408
1.23501
1.28106
1.32865
1.37558
1.42174
1.46893
1.51973
1.57591
1.63713
1.70046
1.76127
1.81459
1.85677
1.88638
1.90417
1.91221
1.91251
1.90626
1.89392
1.87421
1.84554
1.80656
1.75666
1.69621
1.62665
1.55043
1.47054
1.39008
1.31207
1.23929
1.17417
1.11863
1.07394
1.04054
1.01814
1.00568
1.00154
1.00391
1.01039
1.01819
1.02489
1.02874
1.02895
1.02564
1.0196
1.01183
1.00281
0.992024
0.977667
0.956188
0.922987
0.872858
0.796476
0.669089
0.491408
0.272836
0
0.0447634
0.745589
2.20275
4.31095
6.74764
9.0161
10.559
10.9369
10.0027
7.98137
5.4011
2.90271
1.01866
0.0158695
-0.143431
0.29995
0.720068
1.08377
1.34695
1.48781
1.51236
1.45181
1.35335
1.26682
1.23018
1.24274
1.28387
1.33963
1.40292
1.46833
1.53164
1.59034
1.6436
1.69184
1.73613
1.77746
1.81649
1.8533
1.88752
1.91874
1.94673
1.97177
1.99473
2.01707
2.04077
2.06813
2.10155
2.14332
2.19534
2.25888
2.33448
2.42194
2.52053
2.62948
2.74819
2.87679
3.01632
3.16865
3.33588
3.51959
3.72001
3.93525
4.16108
4.39128
4.6184
4.83436
5.03156
5.20425
5.3487
5.46313
5.5471
5.60017
5.61908
5.60291
5.54998
5.45857
5.32795
5.15948
4.95724
4.72802
4.4807
4.22538
3.97118
3.72526
3.49342
3.27978
3.08688
2.91584
2.76657
2.63823
2.52982
2.43882
2.36198
2.29577
2.23662
2.181
2.12557
2.06703
2.0024
1.9293
1.84653
1.75458
1.65619
1.55643
1.46631
1.4507
1.6725
2.05195
2.422
2.62443
2.58539
2.34021
2.0016
1.70001
1.53857
1.52479
1.55992
1.60819
1.66035
1.7079
1.74417
1.76574
1.77317
1.77054
1.76407
1.76005
1.76299
1.77345
1.78956
1.80945
1.83099
1.85211
1.87111
1.88665
1.89766
1.90304
1.902
1.89402
1.87928
1.85891
1.83519
1.81124
1.79056
1.77618
1.76975
1.77168
1.78088
1.79471
1.80992
1.82338
1.83277
1.83687
1.83556
1.82956
1.81996
1.80806
1.79499
1.78171
1.76915
1.75837
1.75052
1.7468
1.74824
1.75544
1.76857
1.78699
1.80862
1.83047
1.84949
1.86322
1.8702
1.87005
1.86316
1.85023
1.8319
1.80895
1.78225
1.75275
1.72204
1.69239
1.66642
1.64662
1.63477
1.6317
1.6364
1.64659
1.65923
1.67125
1.68018
1.68475
1.6851
1.68293
1.68119
1.68355
1.69375
1.71482
1.74827
1.79597
1.85514
1.91851
1.97783
2.02616
2.05974
2.07866
2.08614
2.08675
2.08444
2.08112
2.07646
2.06867
2.05556
2.03538
2.00755
1.97276
1.93255
1.88868
1.84256
1.79486
1.74544
1.69375
1.6391
1.58104
1.5195
1.4548
1.38762
1.31874
1.24894
1.17899
1.10979
1.04264
0.979626
0.924226
0.88042
0.852344
0.843851
0.865712
0.920767
0.992867
1.06034
1.10348
1.11104
1.08253
1.02543
0.948949
0.857857
0.752073
0.631553
0.495004
0.338959
0.154685
-0.0568938
-0.289424
-0.599722
-0.629393
0
1.51206
3.84038
6.57061
9.02714
10.5011
10.5226
9.05912
6.54548
3.71575
1.30936
-0.207185
-0.769548
-0.647223
-0.421357
-0.241459
-0.0894428
0.0284517
0.115109
0.176978
0.216414
0.236772
0.24191
0.235727
0.221746
0.202781
0.180766
0.156844
0.131667
0.105697
0.0796299
0.0547459
0.0329224
0.0164143
0.00748253
0.00800991
0.0192207
0.0415606
0.0747152
0.117683
0.168659
0.225281
0.28538
0.346165
0.404871
0.459574
0.509866
0.557349
0.605707
0.660243
0.726892
0.81093
0.915146
1.03874
1.17874
1.33086
1.48991
1.64998
1.80615
1.9555
2.09758
2.23443
2.36992
2.50886
2.65637
2.821
3.0161
3.24627
3.48338
3.68806
3.82568
3.87463
3.83043
3.70345
3.51062
3.26653
2.98076
2.67102
2.35387
2.03827
1.72907
1.42964
1.14306
0.871567
0.61643
0.378225
0.157181
-0.0464645
-0.232252
-0.399481
-0.547383
-0.675348
-0.78309
-0.871098
-0.9405
-0.992812
-1.02965
-1.05251
-1.06262
-1.0611
-1.04864
-1.02629
-0.996422
-0.963333
-0.932896
-0.911663
-0.90585
-0.920221
-0.957045
-1.01529
-1.09224
-1.18049
-1.26419
-1.32664
-1.35435
-1.3406
-1.28716
-1.20365
-1.10484
-1.00676
-0.921651
-0.852975
-0.803768
-0.773952
-0.761056
-0.761316
-0.770865
-0.786644
-0.806658
-0.829673
-0.854992
-0.881493
-0.907108
-0.9287
-0.94236
-0.944086
-0.931207
-0.90008
-0.844893
-0.768137
-0.685509
-0.615127
-0.571679
-0.561467
-0.580329
-0.615285
-0.649189
-0.666373
-0.659715
-0.633828
-0.593739
-0.542537
-0.483078
-0.418831
-0.354569
-0.296235
-0.249123
-0.217104
-0.201872
-0.202552
-0.215986
-0.237722
-0.263349
-0.289564
-0.314575
-0.337595
-0.357404
-0.371988
-0.378259
-0.372637
-0.351901
-0.314339
-0.257536
-0.184215
-0.104742
-0.0310867
0.0268177
0.0640511
0.0819267
0.0871452
0.0894037
0.0984802
0.120441
0.155877
0.203941
0.263593
0.333071
0.4099
0.491261
0.57426
0.656201
0.734748
0.807996
0.874207
0.93186
0.980162
1.01872
1.0476
1.06734
1.07901
1.08397
1.08373
1.07955
1.07228
1.0622
1.04893
1.0317
1.00969
0.982368
0.949652
0.912037
0.870472
0.826083
0.779947
0.733122
0.686539
0.641279
0.599109
0.562448
0.534166
0.516999
0.512773
0.521793
0.542699
0.572831
0.608932
0.647902
0.687249
0.725505
0.761665
0.794934
0.824463
0.849227
0.868018
0.879409
0.881798
0.873434
0.852439
0.81687
0.764857
0.687644
0.565206
0.403032
0.214138
-0.119152
0
0.961098
2.88721
5.50059
8.17504
10.156
10.8543
10.0743
8.07841
5.47252
2.97142
1.14413
0.239047
0.152374
0.52233
0.67421
0.812352
0.931628
1.03235
1.12375
1.21028
1.29541
1.38072
1.46243
1.53263
1.58252
1.60574
1.60072
1.57139
1.52633
1.4768
1.43402
1.405
1.39174
1.3932
1.40878
1.43429
1.46524
1.4985
1.53336
1.57145
1.61567
1.66856
1.73085
1.80038
1.8741
1.94928
2.02427
2.09936
2.17679
2.26029
2.35398
2.46144
2.58334
2.71951
2.86955
3.03236
3.20635
3.38983
3.58123
3.77925
3.98292
4.19147
4.40404
4.61995
4.83659
5.04528
5.23299
5.38524
5.48981
5.53974
5.53428
5.47793
5.37832
5.24385
5.08216
4.9011
4.70578
4.49955
4.28489
4.06378
3.83795
3.60948
3.38117
3.15644
2.93906
2.73292
2.54163
2.36819
2.21478
2.0825
1.97144
1.88101
1.81022
1.75691
1.71826
1.69169
1.67516
1.6672
1.66673
1.67349
1.68658
1.70113
1.71013
1.70651
1.68571
1.64768
1.59749
1.54401
1.49722
1.4652
1.44854
1.44441
1.45081
1.46539
1.48544
1.50848
1.53279
1.55768
1.58341
1.61115
1.64262
1.67993
1.7261
1.78527
1.85659
1.9285
1.98504
2.01076
1.9959
1.93981
1.85134
1.74657
1.64479
1.56276
1.50458
1.46811
1.45143
1.45355
1.46991
1.49511
1.5242
1.55365
1.58162
1.60771
1.63225
1.65565
1.67804
1.69927
1.71903
1.73711
1.75346
1.76803
1.78065
1.79092
1.79842
1.80298
1.80518
1.80662
1.81
1.81871
1.83711
1.87356
1.93353
2.00271
2.05775
2.0745
2.03773
1.94812
1.82349
1.69384
1.5918
1.54015
1.52846
1.54281
1.58082
1.63382
1.69048
1.74055
1.77702
1.79716
1.80235
1.79667
1.78494
1.77101
1.75692
1.74332
1.73055
1.71972
1.71354
1.71628
1.73301
1.76821
1.82424
1.89823
1.98765
2.08653
2.18413
2.26996
2.33636
2.38035
2.40429
2.41509
2.42228
2.43549
2.46233
2.51288
2.58459
2.65942
2.715
2.73268
2.70353
2.63023
2.52474
2.40336
2.28178
2.17044
2.07169
1.98528
1.91131
1.85011
1.80175
1.76517
1.73739
1.71331
1.6868
1.65195
1.60415
1.54108
1.46329
1.37425
1.27988
1.18765
1.10642
1.06276
1.13731
1.3997
1.75069
2.06882
2.26499
2.29866
2.16767
1.8836
1.46277
0.944588
0.404691
-0.0709244
0
0.834935
2.57117
5.09721
7.99253
10.567
12.0523
11.914
10.1364
7.28561
4.2733
1.93939
0.701009
0.466666
0.819447
1.00805
1.13334
1.23375
1.3073
1.35622
1.38594
1.40342
1.41551
1.42762
1.44272
1.46201
1.48581
1.51365
1.54443
1.57676
1.60867
1.63821
1.66388
1.68507
1.70227
1.717
1.73141
1.7477
1.76761
1.79173
1.82
1.85219
1.88806
1.92758
1.97117
2.01966
2.0742
2.13597
2.20593
2.28453
2.3716
2.46646
2.56807
2.67542
2.78791
2.90558
3.02929
3.16062
3.30156
3.4541
3.61982
3.79947
3.99288
4.1989
4.41658
4.6469
4.89475
5.17138
5.49223
5.82511
6.10679
6.26229
6.23722
6.02647
5.68318
5.2994
4.96529
4.71988
4.49914
4.27855
4.05467
3.82674
3.59486
3.36057
3.12673
2.89715
2.67603
2.46751
2.27521
2.10192
1.94957
1.81907
1.71014
1.62153
1.55172
1.49806
1.45771
1.428
1.40671
1.39232
1.38392
1.38099
1.38311
1.38959
1.39919
1.41024
1.42046
1.42724
1.42818
1.42153
1.40651
1.38347
1.35388
1.32014
1.2852
1.25229
1.22442
1.20394
1.19322
1.19405
1.20738
1.23416
1.27613
1.32953
1.38424
1.42885
1.45396
1.45506
1.43392
1.39774
1.35646
1.31921
1.29037
1.26832
1.25024
1.23192
1.2083
1.17516
1.13054
1.07294
1.00954
0.955822
0.928591
0.939804
0.991762
1.0758
1.17523
1.2714
1.35011
1.41127
1.45547
1.48663
1.50967
1.52819
1.54297
1.55197
1.55137
1.53754
1.50905
1.46786
1.41947
1.37168
1.33247
1.30871
1.307
1.32016
1.33516
1.33926
1.3263
1.3001
1.27311
1.26109
1.27611
1.31826
1.37538
1.44022
1.50423
1.5593
1.59931
1.62108
1.62445
1.61175
1.58693
1.55453
1.51903
1.48418
1.45271
1.42717
1.40965
1.40192
1.40534
1.42082
1.44877
1.48916
1.54167
1.6058
1.68074
1.76717
1.8667
1.97731
2.08837
2.18435
2.24935
2.27158
2.24685
2.17968
2.08186
1.96933
1.85836
1.76004
1.677
1.60797
1.55103
1.50433
1.466
1.43374
1.40517
1.37819
1.35124
1.32354
1.2951
1.26662
1.23925
1.21426
1.19278
1.17541
1.16187
1.1513
1.14259
1.13485
1.12766
1.12105
1.11522
1.11003
1.10446
1.09607
1.08111
1.05496
1.01289
0.950948
0.866672
0.75217
0.599806
0.418574
0.220541
0
0.128243
0.881482
2.44965
4.75665
7.38998
9.69122
10.9855
10.8535
9.31798
6.84846
4.16994
1.96326
0.608568
0.101698
0.165582
0.392678
0.603841
0.797797
0.968764
1.11555
1.24413
1.35707
1.45449
1.53662
1.60404
1.65809
1.70049
1.73334
1.75894
1.77966
1.79761
1.81436
1.83092
1.84765
1.86446
1.88113
1.89769
1.91443
1.93191
1.95067
1.97118
1.9937
2.0187
2.04698
2.07979
2.11883
2.16604
2.22344
2.29234
2.37359
2.46819
2.57695
2.70028
2.83807
2.98965
3.15369
3.32827
3.51105
3.69947
3.89094
4.08309
4.27373
4.46091
4.64277
4.81732
4.98224
5.13482
5.272
5.39032
5.48602
5.55545
5.59573
5.60417
5.57859
5.51789
5.42244
5.29431
5.13701
4.95475
4.75177
4.53252
4.30066
4.05818
3.80617
3.54632
3.28132
3.01511
2.75271
2.49987
2.26248
2.04605
1.85565
1.69724
1.57469
1.48838
1.43659
1.41733
1.43072
1.46487
1.50626
1.54232
1.56378
1.56622
1.5501
1.51961
1.48098
1.44086
1.40416
1.37355
1.35117
1.33923
1.33884
1.34726
1.359
1.36782
1.3685
1.35842
1.33847
1.31289
1.28814
1.2711
1.26593
1.2732
1.29531
1.32885
1.36581
1.39767
1.41819
1.42533
1.42156
1.41247
1.40437
1.40179
1.40508
1.41189
1.4196
1.42488
1.42425
1.41493
1.39532
1.36548
1.32736
1.28484
1.2433
1.20891
1.18754
1.18445
1.20923
1.26515
1.33652
1.40268
1.44554
1.45604
1.43714
1.40162
1.36602
1.34319
1.33657
1.33844
1.34282
1.34441
1.33902
1.32445
1.30084
1.27055
1.23773
1.20748
1.18527
1.17625
1.18451
1.2122
1.26027
1.32762
1.40693
1.48719
1.55727
1.60829
1.6352
1.63743
1.61852
1.58503
1.54501
1.50648
1.4758
1.45655
1.44994
1.45606
1.47531
1.50741
1.55196
1.60864
1.67297
1.73722
1.7936
1.83648
1.86424
1.87992
1.89033
1.9037
1.92719
1.96788
2.01846
2.06351
2.08593
2.07402
2.02612
1.95038
1.86052
1.76975
1.68606
1.60924
1.53774
1.47132
1.41062
1.35696
1.31213
1.27857
1.25924
1.2554
1.26411
1.27941
1.29399
1.30082
1.29481
1.2739
1.23953
1.1962
1.15046
1.10915
1.07765
1.05867
1.05166
1.0544
1.06378
1.07537
1.0828
1.07822
1.05377
1.00242
0.918995
0.801148
0.646754
0.461275
0.253554
-0.0107676
0
0.592399
1.99449
4.2213
6.94336
9.5148
11.1866
11.4134
10.0972
7.63082
4.72166
2.10053
0.271136
-0.597954
-0.634295
-0.0757674
0.46537
0.939167
1.28167
1.45506
1.57868
1.68463
1.77887
1.86664
1.95233
2.03892
2.12746
2.2144
2.29274
2.35484
2.3953
2.41291
2.41094
2.3957
2.37415
2.35158
2.33034
2.3106
2.29232
2.27599
2.26314
2.25682
2.26129
2.28131
2.32121
2.38391
2.47017
2.57832
2.70451
2.84357
2.9901
3.13958
3.28941
3.43895
3.58907
3.74163
3.89856
4.06118
4.22957
4.40248
4.57763
4.75231
4.9242
5.0921
5.25632
5.4187
5.58223
5.75248
5.93784
6.13932
6.34027
6.51467
6.63822
6.69353
6.67068
6.56656
6.38584
6.14335
5.86436
5.57971
5.31121
5.06228
4.82807
4.60582
4.39461
4.19308
4.00002
3.81477
3.63752
3.46933
3.31199
3.16773
3.03881
2.92717
2.83424
2.7606
2.70585
2.66898
2.64862
2.6433
2.65152
2.67207
2.70418
2.74587
2.79212
2.83552
2.86818
2.88347
2.87783
2.85213
2.81205
2.76714
2.72877
2.70693
2.70591
2.72568
2.76335
2.81284
2.86665
2.91793
2.96226
2.99824
3.0273
3.05283
3.0788
3.1081
3.14192
3.18077
3.22239
3.26186
3.29361
3.31305
3.31776
3.30819
3.28741
3.26038
3.23293
3.21028
3.19534
3.19009
3.19708
3.21911
3.25588
3.29957
3.33953
3.36554
3.37094
3.35467
3.32132
3.27916
3.23687
3.20064
3.17115
3.14646
3.12514
3.106
3.08849
3.07302
3.06095
3.05421
3.05458
3.06308
3.0805
3.10719
3.14049
3.17585
3.20853
3.23483
3.25267
3.26154
3.26183
3.2539
3.23763
3.2133
3.18094
3.14191
3.09951
3.05892
3.0264
3.00791
3.00629
3.02294
3.05832
3.10842
3.16535
3.22055
3.26676
3.29947
3.31772
3.32396
3.32329
3.32197
3.32565
3.33815
3.36342
3.39445
3.41677
3.41403
3.37404
3.29378
3.18095
3.05135
2.92317
2.81081
2.71454
2.63018
2.55609
2.48984
2.42873
2.37045
2.31336
2.25653
2.19961
2.14253
2.08524
2.02757
1.96919
1.90959
1.8483
1.78499
1.71968
1.65294
1.58595
1.52054
1.45899
1.40366
1.35654
1.31913
1.29144
1.27005
1.24728
1.2129
1.15623
1.06847
0.944889
0.786383
0.599777
0.395732
-0.0271448
0
0.803769
2.49979
4.8814
7.44522
9.53151
10.5314
10.099
8.29076
5.56511
2.6251
0.16348
-1.37369
-1.89997
-1.63563
-0.996693
-0.387019
0.050709
0.198071
0.199141
0.178667
0.150308
0.117499
0.0818472
0.0430382
-0.000352669
-0.0499962
-0.106443
-0.168182
-0.231386
-0.290481
-0.339425
-0.372154
-0.380127
-0.362068
-0.332296
-0.309288
-0.30821
-0.334255
-0.379457
-0.424621
-0.446088
-0.424969
-0.35881
-0.258787
-0.140639
-0.0255203
0.067552
0.12746
0.154067
0.157883
0.156717
0.170582
0.216523
0.298198
0.410892
0.549561
0.710942
0.892463
1.09149
1.30549
1.53205
1.7704
2.02056
2.27642
2.52101
2.73376
2.89663
2.99803
3.03386
3.00633
2.92235
2.79261
2.63083
2.4516
2.26679
2.08114
1.89396
1.70362
1.50911
1.30977
1.10593
0.899186
0.692149
0.487925
0.289485
0.0991213
-0.0818163
-0.25285
-0.414
-0.56528
-0.706042
-0.834491
-0.948745
-1.04677
-1.12708
-1.18931
-1.23458
-1.26539
-1.28518
-1.29767
-1.3062
-1.31327
-1.32018
-1.32719
-1.33363
-1.33821
-1.33929
-1.33507
-1.3239
-1.30456
-1.27657
-1.24045
-1.19778
-1.15101
-1.10373
-1.05982
-1.02282
-0.995357
-0.978864
-0.973604
-0.978926
-0.993679
-1.0166
-1.0463
-1.08168
-1.1218
-1.16543
-1.21076
-1.25467
-1.29102
-1.31195
-1.30907
-1.27525
-1.20685
-1.10187
-0.962056
-0.80818
-0.66486
-0.553803
-0.488551
-0.47232
-0.49889
-0.55541
-0.625863
-0.694456
-0.750268
-0.788763
-0.810022
-0.816485
-0.810908
-0.795659
-0.772907
-0.744731
-0.712995
-0.679343
-0.645555
-0.614455
-0.589546
-0.574176
-0.570394
-0.577711
-0.592561
-0.608985
-0.620495
-0.622417
-0.612244
-0.593982
-0.574837
-0.561627
-0.557331
-0.559412
-0.560582
-0.551543
-0.522163
-0.458181
-0.361684
-0.260554
-0.188025
-0.170758
-0.219407
-0.323598
-0.453696
-0.570335
-0.638838
-0.648477
-0.620069
-0.570129
-0.505348
-0.428177
-0.340402
-0.24331
-0.138161
-0.0256955
0.0914195
0.205738
0.308802
0.393953
0.459071
0.50793
0.549451
0.595069
0.655238
0.735925
0.833514
0.944424
1.0653
1.18843
1.30251
1.39676
1.46234
1.49297
1.48535
1.43948
1.35895
1.25134
1.12801
1.00308
0.888857
0.794684
0.738027
0.713025
0.702143
0.684164
0.644058
0.580174
0.505027
0.439193
0.401437
0.400205
0.419871
0.450962
0.486397
0.519965
0.547594
0.567675
0.58052
0.587262
0.588694
0.584863
0.574157
0.55388
0.520723
0.471378
0.403168
0.314593
0.201354
0.0636952
-0.0920681
-0.257068
-0.368778
0
1.0825
2.97552
5.48881
8.12228
10.1812
11.0207
10.3226
8.2622
5.4608
2.72851
0.725766
-0.276077
-0.418992
-0.0905987
0.149423
0.355098
0.505808
0.592917
0.64768
0.683888
0.704374
0.710935
0.705503
0.690199
0.667419
0.63991
0.610794
0.583514
0.561732
0.549011
0.548473
0.562364
0.591951
0.64059
0.708919
0.787528
0.863103
0.922694
0.956876
0.961786
0.939625
0.897969
0.848504
0.805493
0.780385
0.77934
0.806779
0.865449
0.953314
1.06374
1.19189
1.3326
1.48129
1.6348
1.79172
1.95176
2.11532
2.28295
2.45487
2.63088
2.81025
2.99197
3.17487
3.35774
3.53928
3.71778
3.89077
4.05461
4.20358
4.32895
4.42048
4.46824
4.46084
4.38718
4.23996
4.02004
3.73974
3.42271
3.09917
2.79529
2.51816
2.2645
2.03505
1.82932
1.64534
1.48055
1.33248
1.19913
1.07917
0.97173
0.876473
0.793336
0.722427
0.663884
0.617679
0.583805
0.561719
0.54967
0.544425
0.541635
0.536914
0.526741
0.509227
0.48456
0.455001
0.424391
0.397315
0.378103
0.369457
0.37199
0.384925
0.406891
0.43586
0.469431
0.505177
0.540943
0.574912
0.605525
0.631438
0.651658
0.665436
0.67231
0.672142
0.665126
0.651731
0.632621
0.608561
0.5804
0.549157
0.515879
0.481757
0.448122
0.416334
0.387585
0.362695
0.341981
0.325051
0.310911
0.29815
0.285223
0.27078
0.254011
0.234928
0.214525
0.194779
0.178565
0.16908
0.169183
0.180676
0.203703
0.2376
0.278481
0.320222
0.356309
0.381169
0.391198
0.38526
0.364698
0.332998
0.295314
0.257938
0.226645
0.206933
0.205693
0.240534
0.321027
0.426421
0.525603
0.589081
0.600309
0.560554
0.485824
0.399078
0.322407
0.267606
0.232541
0.213645
0.212148
0.225973
0.246315
0.263521
0.270249
0.264326
0.250114
0.237651
0.239678
0.267553
0.325467
0.406236
0.510868
0.629888
0.745114
0.838892
0.898536
0.919298
0.90523
0.867869
0.823209
0.787764
0.773312
0.781171
0.809173
0.858332
0.921321
0.985574
1.03765
1.06567
1.06096
1.01889
0.939053
0.825247
0.68545
0.532432
0.379722
0.238842
0.118552
0.0315125
-0.00398464
0.00678082
0.0394264
0.0656015
0.0632732
0.0239971
-0.0455803
-0.128051
-0.20291
-0.253858
-0.280149
-0.28865
-0.283396
-0.266005
-0.237945
-0.200948
-0.15689
-0.107947
-0.0580845
-0.0171913
0
-0.0249676
-0.107759
-0.258695
-0.4778
-0.753791
-1.20414
-1.41848
-0.859386
0.645503
2.97048
5.68719
8.16037
9.7217
9.89054
8.57087
6.1251
3.25552
0.725135
-0.941495
-1.61923
-1.53739
-1.17482
-0.968155
-0.785589
-0.633029
-0.50913
-0.405067
-0.318639
-0.247329
-0.188778
-0.14129
-0.103785
-0.0751877
-0.0546532
-0.0409582
-0.032045
-0.024954
-0.0162384
-0.00274754
0.0174784
0.0445604
0.0768082
0.110825
0.142815
0.169876
0.191051
0.207731
0.223328
0.242307
0.268978
0.306058
0.354038
0.4123
0.480054
0.556207
0.639767
0.730047
0.826663
0.929408
1.03826
1.15317
1.27427
1.40205
1.53729
1.68092
1.83359
1.99531
2.16527
2.34158
2.52224
2.70545
2.88995
3.07522
3.26178
3.45181
3.65135
3.87214
4.11696
4.36032
4.56328
4.67773
4.65713
4.47245
4.12664
3.66249
3.16139
2.72961
2.39454
2.11054
1.8532
1.61924
1.40827
1.21907
1.04978
0.898085
0.761284
0.636645
0.521704
0.414473
0.313539
0.217994
0.127291
0.0410696
-0.0411034
-0.11953
-0.193904
-0.261995
-0.319145
-0.359396
-0.37607
-0.364227
-0.323083
-0.257276
-0.176298
-0.092202
-0.016424
0.0448208
0.0914551
0.123519
0.143089
0.153316
0.157444
0.158279
0.157425
0.155487
0.152416
0.14781
0.141232
0.132475
0.121733
0.109686
0.0974955
0.0867489
0.0793196
0.077144
0.0819744
0.0953392
0.118893
0.154116
0.198394
0.242603
0.276283
0.291203
0.284611
0.260575
0.228487
0.199169
0.180333
0.172977
0.172345
0.17342
0.171848
0.16602
0.157801
0.151659
0.152703
0.164506
0.185773
0.213555
0.245015
0.276224
0.303245
0.32298
0.333703
0.335261
0.328938
0.317071
0.302536
0.288234
0.276565
0.269022
0.26632
0.268439
0.274583
0.283041
0.290589
0.293157
0.287106
0.270433
0.243782
0.210724
0.177657
0.152223
0.141421
0.149821
0.178465
0.224757
0.283311
0.347388
0.410506
0.468536
0.518959
0.560376
0.592653
0.616674
0.634116
0.647148
0.658162
0.669494
0.683122
0.700437
0.722069
0.747279
0.773161
0.794957
0.807402
0.806025
0.78831
0.754308
0.706452
0.648609
0.584712
0.517526
0.448298
0.377092
0.303506
0.227715
0.151201
0.077112
0.0100784
-0.0445452
-0.0813246
-0.0898323
-0.0610626
-0.00368309
0.0648096
0.125175
0.16197
0.16691
0.139225
0.0838753
0.00927696
-0.0741388
-0.155011
-0.225679
-0.280536
-0.314071
-0.310799
-0.260297
-0.179272
-0.0931536
-0.0275103
0
-0.00474339
-0.0492565
-0.123998
-0.21924
-0.326822
-0.439984
-0.557599
-0.69695
-0.429354
0.570547
2.41972
4.88123
7.37582
9.16661
9.64861
8.61459
6.36453
3.59203
1.09592
-0.541681
-1.14928
-0.948523
-0.531083
-0.196249
0.0706533
0.254659
0.378175
0.470517
0.536932
0.583523
0.6166
0.642286
0.66587
0.691422
0.72179
0.75855
0.802108
0.851688
0.905
0.959152
1.01132
1.05938
1.10234
1.14049
1.17521
1.20866
1.24323
1.28097
1.32349
1.37188
1.42668
1.48799
1.55569
1.62965
1.70989
1.79651
1.88957
1.98888
2.09379
2.20352
2.31679
2.43252
2.55068
2.67285
2.80226
2.94326
3.10022
3.27628
3.47231
3.68588
3.91221
4.14625
4.38322
4.61905
4.8502
5.07237
5.28129
5.47213
5.63149
5.73765
5.7695
5.71594
5.58043
5.37898
5.13316
4.8621
4.5807
4.29667
4.01349
3.73397
3.4617
3.20103
2.95676
2.73368
2.53586
2.36608
2.22558
2.11343
2.02672
1.96105
1.91117
1.87167
1.83764
1.80517
1.7716
1.73555
1.69671
1.65549
1.61258
1.56872
1.52448
1.48034
1.43685
1.39486
1.35571
1.3213
1.29396
1.2772
1.28017
1.33717
1.54458
1.91526
2.34268
2.69873
2.859
2.76047
2.44079
2.02686
1.68022
1.54239
1.57691
1.65099
1.73332
1.81719
1.89938
1.97765
2.0506
2.11704
2.17554
2.22509
2.26424
2.29129
2.30473
2.30374
2.28869
2.26144
2.22543
2.18556
2.14745
2.11641
2.0971
2.09661
2.12118
2.16503
2.2183
2.27111
2.3174
2.35661
2.39218
2.42785
2.46385
2.49481
2.51205
2.50832
2.48227
2.4398
2.3918
2.34958
2.3205
2.30199
2.29096
2.285
2.2815
2.27825
2.27379
2.26739
2.25902
2.24937
2.23946
2.23069
2.2247
2.22317
2.22745
2.23822
2.25552
2.27866
2.30604
2.33547
2.3651
2.39391
2.42197
2.45027
2.48017
2.51264
2.54788
2.58366
2.61513
2.63636
2.64214
2.62976
2.59994
2.55661
2.50553
2.45226
2.40016
2.34934
2.29807
2.24362
2.18275
2.11246
2.03076
1.9371
1.83261
1.72
1.60318
1.48666
1.37503
1.27251
1.18257
1.10764
1.04905
1.00719
0.98124
0.968676
0.965547
0.966833
0.966891
0.960683
0.944736
0.91781
0.881083
0.837743
0.792017
0.74785
0.707917
0.672012
0.636621
0.595849
0.542946
0.472002
0.378227
0.25048
0.0919529
-0.0855244
-0.267865
-0.390442
0
0.961758
2.49891
4.45466
6.53197
8.32253
9.37168
9.31239
8.04145
5.82871
3.25022
0.954232
-0.602538
-1.29017
-1.23549
-0.777456
-0.358263
-0.0266293
0.181857
0.273882
0.334246
0.38327
0.439443
0.530814
0.661402
0.8034
0.917322
0.971471
0.954999
0.879659
0.772031
0.662033
0.573486
0.510249
0.46631
0.437482
0.421826
0.418269
0.425902
0.443636
0.470249
0.50444
0.544871
0.590249
0.63942
0.691567
0.746363
0.804124
0.865912
0.933471
1.00897
1.09458
1.19195
1.30172
1.42331
1.55571
1.69659
1.84358
1.99549
2.153
2.31863
2.49601
2.68858
2.89804
3.12755
3.37413
3.61766
3.83382
4.00147
4.10809
4.15175
4.13917
4.08121
3.98815
3.86624
3.72217
3.5597
3.38051
3.18561
2.97646
2.7556
2.52665
2.29396
2.06216
1.8356
1.61798
1.41222
1.2204
1.04389
0.883484
0.739387
0.611266
0.498433
0.399498
0.312066
0.233587
0.161936
0.0959976
0.0360817
-0.0159878
-0.0571796
-0.0825783
-0.0802921
-0.0262749
0.0892788
0.228266
0.339563
0.377887
0.322886
0.190221
0.0271927
-0.107566
-0.170959
-0.169202
-0.139616
-0.0987957
-0.053252
-0.00783157
0.0340637
0.0705296
0.100939
0.125493
0.144641
0.158676
0.167539
0.170848
0.168083
0.15899
0.144022
0.124648
0.103385
0.0838604
0.0701828
0.0660984
0.0741802
0.0952202
0.128006
0.169551
0.215706
0.261995
0.304551
0.340597
0.368378
0.387173
0.396598
0.397391
0.390758
0.378318
0.362062
0.34422
0.326954
0.312093
0.300662
0.291843
0.283532
0.273182
0.258882
0.240234
0.218723
0.197416
0.18014
0.169973
0.167944
0.175222
0.191663
0.212704
0.231892
0.243214
0.243083
0.231583
0.212511
0.192159
0.177349
0.173485
0.181325
0.199052
0.22494
0.25703
0.293008
0.329637
0.361774
0.384106
0.392425
0.385209
0.365005
0.338816
0.316964
0.310523
0.328164
0.371302
0.433292
0.509682
0.593917
0.678508
0.755782
0.819469
0.865362
0.891524
0.898121
0.886968
0.860891
0.823021
0.776121
0.722214
0.662522
0.597828
0.529035
0.457536
0.386725
0.323435
0.276208
0.253158
0.259397
0.29902
0.369681
0.453815
0.530646
0.582613
0.600243
0.583858
0.542038
0.488056
0.435884
0.395523
0.369367
0.356912
0.358127
0.373669
0.398731
0.424866
0.44334
0.447194
0.432749
0.399958
0.351561
0.291492
0.223321
0.150233
0.0740969
-0.0150999
0
0.544199
1.88452
3.99552
6.4883
8.71177
10.0006
9.94798
8.56652
6.26303
3.66046
1.36846
-0.194859
-0.883006
-0.807702
-0.291256
0.173623
0.537103
0.767313
0.892621
0.987578
1.06603
1.13192
1.18818
1.23537
1.27099
1.29059
1.29007
1.26761
1.22495
1.16751
1.10373
1.04386
0.998018
0.972773
0.971146
0.994849
1.04564
1.12276
1.22274
1.34005
1.46725
1.5943
1.7118
1.81271
1.89349
1.95454
1.99982
2.03581
2.07008
2.10981
2.16006
2.22411
2.30397
2.40047
2.51341
2.64197
2.78494
2.94095
3.10851
3.28601
3.4718
3.66418
3.86162
4.06289
4.26736
4.4754
4.68858
4.90788
5.12401
5.31327
5.44629
5.49831
5.45778
5.33027
5.136
4.90107
4.64588
4.37988
4.10871
3.8376
3.57046
3.31113
3.06409
2.83372
2.62395
2.43727
2.2736
2.13128
2.00784
1.90072
1.80782
1.72757
1.65956
1.60434
1.55871
1.51744
1.47519
1.42849
1.37733
1.32554
1.27944
1.2455
1.22793
1.2243
1.23227
1.24888
1.27092
1.2957
1.3216
1.34793
1.37428
1.39996
1.42305
1.43987
1.44575
1.43614
1.4083
1.36285
1.3045
1.24182
1.18577
1.14742
1.15029
1.22085
1.33223
1.43822
1.49424
1.47803
1.40028
1.2996
1.22392
1.20733
1.24641
1.30701
1.37348
1.43456
1.48116
1.50781
1.5132
1.49967
1.47209
1.43645
1.39869
1.36363
1.33437
1.3126
1.29962
1.29619
1.30224
1.31733
1.33982
1.36604
1.39182
1.4134
1.42829
1.43572
1.43643
1.43199
1.42376
1.41179
1.39504
1.37174
1.34077
1.3031
1.26253
1.2252
1.19806
1.18668
1.19329
1.21662
1.2523
1.29443
1.33743
1.3778
1.41405
1.44541
1.47149
1.49156
1.50418
1.50799
1.50203
1.48659
1.46401
1.43894
1.4177
1.40673
1.41242
1.44067
1.48577
1.5376
1.5865
1.62772
1.66289
1.69788
1.73832
1.78568
1.8357
1.88218
1.91951
1.94572
1.96375
1.98039
2.00357
2.03911
2.08722
2.14551
2.20856
2.26929
2.32004
2.34923
2.34613
2.30168
2.20848
2.06384
1.87353
1.6497
1.42353
1.2304
1.09852
1.03958
1.04588
1.09538
1.16165
1.22367
1.27404
1.3149
1.34491
1.36491
1.37545
1.37664
1.36859
1.35189
1.3277
1.29747
1.26237
1.22295
1.1794
1.1308
1.07564
1.01215
0.938217
0.847525
0.722729
0.553585
0.346375
0.117745
0
0.472218
1.7345
3.78204
6.34518
8.91184
10.834
11.5308
10.7356
8.65925
5.93744
3.35724
1.51393
0.60302
0.449664
0.706508
0.898053
1.07083
1.21241
1.31519
1.38949
1.43955
1.47011
1.48784
1.50044
1.51548
1.53919
1.57509
1.62375
1.686
1.75658
1.82612
1.88526
1.9273
1.95001
1.95586
1.95076
1.94204
1.93649
1.93838
1.94954
1.97214
2.00781
2.05757
2.12147
2.19812
2.28455
2.37616
2.46866
2.55849
2.64367
2.72444
2.80339
2.88508
2.97536
3.08027
3.2045
3.35177
3.52456
3.72363
3.94782
4.19417
4.45805
4.73345
5.0133
5.28941
5.55011
5.78353
5.98038
6.13387
6.24015
6.29813
6.30882
6.27443
6.19765
6.08135
5.9316
5.75523
5.55781
5.3444
5.1202
4.89035
4.65911
4.42983
4.20518
3.98727
3.77804
3.57953
3.39404
3.22393
3.07148
2.93987
2.83167
2.74331
2.66857
2.60074
2.53478
2.46903
2.40584
2.35073
2.31046
2.29069
2.29045
2.31025
2.34689
2.39423
2.44442
2.48925
2.52241
2.54056
2.54376
2.5351
2.51998
2.50479
2.49559
2.4969
2.51034
2.53451
2.56763
2.60826
2.65481
2.70539
2.75551
2.79858
2.82777
2.83781
2.82704
2.79851
2.75945
2.71923
2.68649
2.66563
2.65509
2.6525
2.6557
2.66184
2.66794
2.67132
2.66984
2.66225
2.64825
2.62858
2.60484
2.57956
2.55588
2.53691
2.52518
2.5222
2.52819
2.54215
2.56204
2.58524
2.60889
2.63046
2.64773
2.659
2.6631
2.65937
2.64764
2.62811
2.60125
2.56768
2.52812
2.48339
2.43459
2.38309
2.33064
2.27943
2.23197
2.19071
2.15771
2.13436
2.12125
2.11827
2.12493
2.14065
2.165
2.19789
2.23945
2.28965
2.34813
2.41399
2.48491
2.55692
2.62468
2.68244
2.72525
2.74982
2.75506
2.74238
2.71552
2.67984
2.64127
2.60499
2.57416
2.54939
2.52929
2.511
2.49118
2.46712
2.43731
2.40147
2.35994
2.31295
2.26017
2.20107
2.13456
2.06029
1.97936
1.89465
1.81058
1.7322
1.66439
1.61246
1.57715
1.55332
1.53343
1.51039
1.48032
1.44409
1.40697
1.37666
1.36039
1.36939
1.39997
1.43716
1.46251
1.46242
1.43381
1.38442
1.32711
1.27112
1.21467
1.14703
1.05477
0.922988
0.726805
0.433837
0.0598674
-0.359951
-0.544416
0
1.39841
3.51414
5.9652
8.23292
9.79991
10.2815
9.52642
7.67517
5.14923
2.54567
0.448137
-0.776869
-1.09664
-0.746021
-0.232
0.232013
0.57708
0.748341
0.8319
0.883104
0.903738
0.898907
0.876527
0.845911
0.815923
0.793326
0.780249
0.775752
0.778644
0.787794
0.80168
0.818703
0.837362
0.85648
0.875335
0.893717
0.911903
0.930541
0.950464
0.97249
0.99721
1.0249
1.05552
1.08877
1.12412
1.16107
1.19924
1.23861
1.27978
1.32422
1.37433
1.43339
1.5051
1.59305
1.70003
1.82742
1.97474
2.13962
2.31909
2.51013
2.7099
2.91591
3.12603
3.33838
3.54982
3.75379
3.94142
4.10295
4.22938
4.31385
4.35186
4.34065
4.27835
4.16369
3.99661
3.78156
3.52542
3.23807
2.93351
2.62655
2.32747
2.0429
1.77825
1.53631
1.31726
1.11921
0.939128
0.773817
0.620882
0.479326
0.349709
0.233862
0.134116
0.053139
-0.00435753
-0.0318191
-0.0323378
-0.0197093
-0.00998821
-0.0168543
-0.0476494
-0.101563
-0.170512
-0.242132
-0.303587
-0.348098
-0.376304
-0.38875
-0.384199
-0.364254
-0.335216
-0.305485
-0.282899
-0.272897
-0.277153
-0.293118
-0.314701
-0.333966
-0.34347
-0.337263
-0.31063
-0.272482
-0.236424
-0.213965
-0.208463
-0.213223
-0.21511
-0.201884
-0.16896
-0.123871
-0.0758421
-0.0324917
0.00155954
0.0258182
0.0428584
0.055879
0.066328
0.0729683
0.0727961
0.0632941
0.0447123
0.0211444
-0.000168133
-0.011018
-0.00498142
0.0170748
0.0516917
0.0964254
0.145385
0.192041
0.230645
0.257376
0.270977
0.27279
0.266283
0.256215
0.247588
0.24404
0.248369
0.264333
0.288332
0.308523
0.311563
0.289022
0.242879
0.187015
0.143215
0.133062
0.169429
0.239509
0.33241
0.437942
0.544555
0.640625
0.716623
0.767199
0.790923
0.789799
0.768491
0.733358
0.691384
0.649187
0.612313
0.583972
0.56519
0.557132
0.560911
0.57695
0.60475
0.643438
0.690015
0.740057
0.788432
0.829951
0.859991
0.874711
0.871815
0.850528
0.811674
0.75769
0.692497
0.621131
0.549137
0.481778
0.423093
0.375003
0.338728
0.314405
0.301495
0.299156
0.306446
0.322391
0.34671
0.377457
0.40904
0.434171
0.445894
0.439702
0.415013
0.375244
0.326265
0.273816
0.220937
0.16672
0.108263
0.0412738
-0.038608
-0.140022
-0.267577
-0.418212
-0.585101
-0.759065
-0.582597
0
1.06159
2.67252
4.774
7.05887
8.96595
9.86379
9.3536
7.5093
4.88666
2.27671
0.340762
-0.659526
-0.887655
-0.706891
-0.451088
-0.188164
0.0753444
0.32057
0.524445
0.661955
0.719742
0.704528
0.643331
0.574472
0.533435
0.540282
0.578032
0.630548
0.690881
0.753123
0.812629
0.866716
0.914757
0.957733
0.997438
1.03566
1.07358
1.1116
1.14962
1.18736
1.22477
1.26219
1.30053
1.34112
1.38559
1.4356
1.49277
1.55856
1.63422
1.72067
1.81851
1.92803
2.04916
2.18154
2.32445
2.47678
2.63701
2.80318
2.97304
3.14423
3.31462
3.48256
3.64706
3.80775
3.964
4.11419
4.25511
4.38172
4.48655
4.56134
4.59898
4.59504
4.54823
4.46027
4.33528
4.17907
4.00033
3.80626
3.60189
3.3906
3.1746
2.95529
2.73401
2.51287
2.29498
2.0843
1.88532
1.70257
1.53983
1.39968
1.28337
1.19092
1.12145
1.07344
1.04511
1.03484
1.04061
1.06009
1.09056
1.12772
1.16387
1.19036
1.20025
1.19036
1.16273
1.12464
1.08683
1.06015
1.05195
1.06144
1.08279
1.11046
1.13805
1.16004
1.17303
1.17631
1.17165
1.16276
1.15445
1.15134
1.15707
1.17513
1.21018
1.26991
1.35747
1.46296
1.56822
1.65406
1.70537
1.71463
1.68359
1.62307
1.55119
1.48961
1.45676
1.4597
1.49235
1.54434
1.60567
1.66512
1.71307
1.74371
1.75608
1.75377
1.74352
1.73323
1.72927
1.73461
1.75077
1.7771
1.80796
1.83571
1.85302
1.85487
1.83983
1.81019
1.77114
1.72921
1.69068
1.65939
1.63652
1.62219
1.61623
1.61801
1.62648
1.64038
1.65839
1.67939
1.70271
1.72817
1.75608
1.78704
1.82166
1.86022
1.90239
1.94721
163
416
661
908
1154
1400
1638
1889
2135
2379
2617
2857
3105
3345
3579
2990
3185
3380
3571
3717
3570
3738
3216
3353
3489
3623
3533
3665
0
0
0
0
0
0
0
0
0
0
0
0
0
0
0
0
0
0
0
0
0
0
0
0
0
0
0
0
0
0
0
0
0
0
0
0
0
0
0
0
0
0
0
0
0
0
0
0
0
0
0
0
0
0
0
0
0
0
0
0
0
0
0
0
0
0
0
0
0
0
0
0
0
0
0
0
0
0
0
0
0
0
0
0
0
0
0
0
0
0
0
0
0
0
0
0
0
0
0
0
0
0
0
0
0
0
0
0
0
0
0
0
0
0
0
0
0
0
0
0
0
0
0
0
0
0
0
0
0
0
0
0
0
0
0
0
0
0
0
0
0
0
0
0
0
0
0
0
0
0
0
0
0
0
0
0
0
0
0
0
0
0
0
0
0
0
0
0
0
0
0
0
0
0
0
0
0
0
0
0
0
0
0
0
0
0
0
0
0
0
0
0
0
0
0
0
0
0
0
0
0
0
0
0
0
0
0
0
0
0
0
0
0
0
0
0
0
0
0
0
0
0
0
0
0
0
0
0
0
0
0
0
0
0
0
0
0
0
0
0
0
0
0
0
0
0
0
0
0
0
0
0
0
0
0
0
0
0
0
0
0
0
0
0
0
0
0
0
0
0
0
0
0
0
0
0
0
0
0
0
0
0
0
0
0
0
0
0
0
0
0
0
0
0
0
0
0
0
0
0
0
0
0
0
0
0
0
0
0
0
0
0
0
0
0
0
0
0
0
0
0
0
0
0
0
0
0
0
0
0
0
0
0
0
0
0
0
0
0
0
0
0
0
0
0
0
0
0
0
0
0
0
0
0
0
0
0
0
0
0
0
0
0
0
0
0
0
0
0
0
0
0
0
0
0
0
0
0
0
0
0
0
0
0
0
0
0
0
0
0
0
0
0
0
0
0
0
0
0
0
0
0
0
0
0
0
0
0
0
0
0
0
0
0
0
0
0
0
0
0
0
0
0
0
0
0
0
0
0
0
0
0
0
0
0
0
0
0
0
0
0
0
0
0
0
0
0
0
0
0
0
0
0
0
0
0
0
0
0
0
0
0
0
0
0
0
0
0
0
0
0
0
0
0
0
0
0
0
0
0
0
0
0
0
0
0
0
0
0
0
0
0
0
0
0
0
0
0
0
0
0
0
0
0
0
0
0
0
0
0
0
0
0
0
0
0
0
0
0
0
0
0
0
0
0
0
0
0
0
0
0
0
0
0
0
0
0
0
0
0
0
0
0
0
0
0
0
0
0
0
0
0
0
0
0
0
0
0
0
0
0
0
0
0
0
0
0
0
0
0
0
0
0
0
0
0
0
0
0
0
0
0
0
0
0
0
0
0
0
0
0
0
0
0
0
0
0
0
0
0
0
0
0
0
0
0
0
0
0
0
0
0
0
0
0
0
0
0
0
0
0
0
0
0
0
0
0
0
0
0
0
0
0
0
0
0
0
0
0
0
0
0
0
0
0
0
0
0
0
0
0
0
0
0
0
0
0
0
0
0
0
0
0
0
0
0
0
0
0
0
0
0
0
0
0
0
0
0
0
0
0
0
0
0
0
0
0
0
0
0
0
0
0
0
0
0
0
0
0
0
0
0
0
0
0
0
0
0
0
0
0
0
0
0
0
0
0
0
0
0
0
0
0
0
0
0
0
0
0
0
0
0
0
0
0
0
0
0
0
0
0
0
0
0
0
0
0
0
0
0
0
0
0
0
0
0
0
0
0
0
0
0
0
0
0
0
0
0
0
0
0
0
0
0
0
0
0
0
0
0
0
0
0
0
0
0
0
0
0
0
0
0
0
0
0
0
0
0
0
0
0
0
0
0
0
0
0
0
0
0
0
0
0
0
0
0
0
0
0
0
0
0
0
0
0
0
0
0
0
0
0
0
0
0
0
0
0
0
0
0
0
0
0
0
0
0
0
0
0
0
0
0
0
0
0
0
0
0
0
0
0
0
0
0
0
0
0
0
0
0
0
0
0
0
0
0
0
0
0
0
0
0
0
0
0
0
0
0
0
0
0
0
0
0
0
0
0
0
0
0
0
0
0
0
0
0
0
0
0
0
0
0
0
0
0
0
0
0
0
0
0
0
0
0
0
0
0
0
0
0
0
0
0
0
0
0
0
0
0
0
0
0
0
0
0
0
0
0
0
0
0
0
0
0
0
0
0
0
0
0
0
0
0
0
0
0
0
0
0
0
0
0
0
0
0
0
0
0
0
0
0
0
0
0
0
0
0
0
0
0
0
0
0
0
0
0
0
0
0
0
0
0
0
0
0
0
0
0
0
0
0
0
0
0
0
0
0
0
0
0
0
0
0
0
0
0
0
0
0
0
0
0
0
0
0
0
0
0
0
0
0
0
0
0
0
0
0
0
0
0
0
0
0
0
0
0
0
0
0
0
0
0
0
0
0
0
0
0
0
0
0
0
0
0
0
0
0
0
0
0
0
0
0
0
0
0
0
0
0
0
0
0
0
0
0
0
0
0
0
0
0
0
0
0
0
0
0
0
0
0
0
0
0
0
0
0
0
0
0
0
0
0
0
0
0
0
0
0
0
0
0
0
0
0
0
0
0
0
0
0
0
0
0
0
0
0
0
0
0
0
0
0
0
0
0
0
0
0
0
0
0
0
0
0
0
0
0
0
0
0
0
0
0
0
0
0
0
0
0
0
0
0
0
0
0
0
0
0
0
0
0
0
0
0
0
0
0
0
0
0
0
0
0
0
0
0
0
0
0
0
0
0
0
0
0
0
0
0
0
0
0
0
0
0
0
0
0
0
0
0
0
0
0
0
0
0
0
0
0
0
0
0
0
0
0
0
0
0
0
0
0
0
0
0
0
0
0
0
0
0
0
0
0
0
0
0
0
0
0
0
0
0
0
0
0
0
0
0
0
0
0
0
0
0
0
0
0
0
0
0
0
0
0
0
0
0
0
0
0
0
0
0
0
0
0
0
0
0
0
0
0
0
0
0
0
0
0
0
0
0
0
0
0
0
0
0
0
0
0
0
0
0
0
0
0
0
0
0
0
0
0
0
0
0
0
0
0
0
0
0
0
0
0
0
0
0
0
0
0
0
0
0
0
0
0
0
0
0
0
0
0
0
0
0
0
0
0
0
0
0
0
0
0
0
0
0
0
0
0
0
0
0
0
0
0
0
0
0
0
0
0
0
0
0
0
0
0
0
0
0
0
0
0
0
0
0
0
0
0
0
0
0
0
0
0
0
0
0
0
0
0
0
0
0
0
0
0
0
0
0
0
0
0
0
0
0
0
0
0
0
0
0
0
0
0
0
0
0
0
0
0
0
0
0
0
0
0
0
0
0
0
0
0
0
0
0
0
0
0
0
0
0
0
0
0
0
0
0
0
0
0
0
0
0
0
0
0
0
0
0
0
0
0
0
0
0
0
0
0
0
0
0
0
0
0
0
0
0
0
0
0
0
0
0
0
0
0
0
0
0
0
0
0
0
0
0
0
0
0
0
0
0
0
0
0
0
0
0
0
0
0
0
0
0
0
0
0
0
0
0
0
0
0
0
0
0
0
0
0
0
0
0
0
0
0
0
0
0
0
0
0
0
0
0
0
0
0
0
0
0
0
0
0
0
0
0
0
0
0
0
0
0
0
0
0
0
0
0
0
0
0
0
0
0
0
0
0
0
0
0
0
0
0
0
0
0
0
0
0
0
0
0
0
0
0
0
0
0
0
0
0
0
0
0
0
0
0
0
0
0
0
0
0
0
0
0
0
0
0
0
0
0
0
0
0
0
0
0
0
0
0
0
0
0
0
0
0
0
0
0
0
0
0
0
0
0
0
0
0
0
0
0
0
0
0
0
0
0
0
0
0
0
0
0
0
0
0
0
0
0
0
0
0
0
0
0
0
0
0
0
0
0
0
0
0
0
0
0
0
0
0
0
0
0
0
0
0
0
0
0
0
0
0
0
0
0
0
0
0
0
0
0
0
0
0
0
0
0
0
0
0
0
0
0
0
0
0
0
0
0
0
0
0
0
0
0
0
0
0
0
0
0
0
0
0
0
0
0
0
0
0
0
0
0
0
0
0
0
0
0
0
0
0
0
0
0
0
0
0
0
0
0
0
0
0
0
0
0
0
0
0
0
0
0
0
0
0
0
0
0
0
0
0
0
0
0
0
0
0
0
0
0
0
0
0
0
0
0
0
0
0
0
0
0
0
0
0
0
0
0
0
0
0
0
0
0
0
0
0
0
0
0
0
0
0
0
0
0
0
0
0
0
0
0
0
0
0
0
0
0
0
0
0
0
0
0
0
0
0
0
0
0
0
0
0
0
0
0
0
0
0
0
0
0
0
0
0
0
0
0
0
0
0
0
0
0
0
0
0
0
0
0
0
0
0
0
0
0
0
0
0
0
0
0
0
0
0
0
0
0
0
0
0
0
0
0
0
0
0
0
0
0
0
0
0
0
0
0
0
0
0
0
0
0
0
0
0
0
0
0
0
0
0
0
0
0
0
0
0
0
0
0
0
0
0
0
0
0
0
0
0
0
0
0
0
0
0
0
0
0
0
0
0
0
0
0
0
0
0
0
0
0
0
0
0
0
0
0
0
0
0
0
0
0
0
0
0
0
0
0
0
0
0
0
0
0
0
0
0
0
0
0
0
0
0
0
0
0
0
0
0
0
0
0
0
0
0
0
0
0
0
0
0
0
0
0
0
0
0
0
0
0
0
0
0
0
0
0
0
0
0
0
0
0
0
0
0
0
0
0
0
0
0
0
0
0
0
0
0
0
0
0
0
0
0
0
0
0
0
0
0
0
0
0
0
0
0
0
0
0
0
0
0
0
0
0
0
0
0
0
0
0
0
0
0
0
0
0
0
0
0
0
0
0
0
0
0
0
0
0
0
0
0
0
0
0
0
0
0
0
0
0
0
0
0
0
0
0
0
0
0
0
0
0
0
0
0
0
0
0
0
0
0
0
0
0
0
0
0
0
0
0
0
0
0
0
0
0
0
0
0
0
0
0
0
0
0
0
0
0
0
0
0
0
0
0
0
0
0
0
0
0
0
0
0
0
0
0
0
0
0
0
0
0
0
0
0
0
0
0
0
0
0
0
0
0
0
0
0
0
0
0
0
0
0
0
0
0
0
0
0
0
0
0
0
0
0
0
0
0
0
0
0
0
0
0
0
0
0
0
0
0
0
0
0
0
0
0
0
0
0
0
0
0
0
0
0
0
0
0
0
0
0
0
0
0
0
0
0
0
0
0
0
0
0
0
0
0
0
0
0
0
0
0
0
0
0
0
0
0
0
0
0
0
0
0
0
0
0
0
0
0
0
0
0
0
0
0
0
0
0
0
0
0
0
0
0
0
0
0
0
0
0
0
0
0
0
0
0
0
0
0
0
0
0
0
0
0
0
0
0
0
0
0
0
0
0
0
0
0
0
0
0
0
0
0
0
0
0
0
0
0
0
0
0
0
0
0
0
0
0
0
0
0
0
0
0
0
0
0
0
0
0
0
0
0
0
0
0
0
0
0
0
0
0
0
0
0
0
0
0
0
0
0
0
0
0
0
0
0
0
0
0
0
0
0
0
0
0
0
0
0
0
0
0
0
0
0
0
0
0
0
0
0
0
0
0
0
0
0
0
0
0
0
0
0
0
0
0
0
0
0
0
0
0
0
0
0
0
0
0
0
0
0
0
0
0
0
0
0
0
0
0
0
0
0
0
0
0
0
0
0
0
0
0
0
0
0
0
0
0
0
0
0
0
0
0
0
0
0
0
0
0
0
0
0
0
0
0
0
0
0
0
0
0
0
0
0
0
0
0
0
0
0
0
0
0
0
0
0
0
0
0
0
0
0
0
0
0
0
0
0
0
0
0
0
0
0
0
0
0
0
0
0
0
0
0
0
0
0
0
0
0
0
0
0
0
0
0
0
0
0
0
0
0
0
0
0
0
0
0
0
0
0
0
0
0
0
0
0
0
0
0
0
0
0
0
0
0
0
0
0
0
0
0
0
0
0
0
0
0
0
0
0
0
0
0
0
0
0
0
0
0
0
0
0
0
0
0
0
0
0
0
0
0
0
0
0
0
0
0
0
0
0
0
0
0
0
0
0
0
0
0
0
0
0
0
0
0
0
0
0
0
0
0
0
0
0
0
0
0
0
0
0
0
0
0
0
0
0
0
0
0
0
0
0
0
0
0
0
0
0
0
0
0
0
0
0
0
0
0
0
0
0
0
0
0
0
0
0
0
0
0
0
0
0
0
0
0
0
0
0
0
0
0
0
0
0
0
0
0
0
0
0
0
0
0
0
0
0
0
0
0
0
0
0
0
0
0
0
0
0
0
0
0
0
0
0
0
0
0
0
0
0
0
0
0
0
0
0
0
0
0
0
0
0
0
0
0
0
0
0
0
0
0
0
0
0
0
0
0
0
0
0
0
0
0
0
0
0
0
0
0
0
0
0
0
0
0
0
0
0
0
0
0
0
0
0
0
0
0
0
0
0
0
0
0
0
0
0
0
0
0
0
0
0
0
0
0
0
0
0
0
0
0
0
0
0
0
0
0
0
0
0
0
0
0
0
0
0
0
0
0
0
0
0
0
0
0
0
0
0
0
0
0
0
0
0
0
0
0
0
0
0
0
0
0
0
0
0
0
0
0
0
0
0
0
0
0
0
0
0
0
0
0
0
0
0
0
0
0
0
0
0
0
0
0
0
0
0
0
0
0
0
0
0
0
0
0
0
0
0
0
0
0
0
0
0
0
0
0
0
0
0
0
0
0
0
0
0
0
0
0
0
0
0
0
0
0
0
0
0
0
0
0
0
0
0
0
0
0
0
0
0
0
0
0
0
0
0
0
0
0
0
0
0
0
0
0
0
0
0
0
0
0
0
0
0
0
0
0
0
0
0
0
0
0
0
0
0
0
0
0
0
0
0
0
0
0
0
0
0
0
0
0
0
0
0
0
0
0
0
0
0
0
0
0
0
0
0
0
0
0
0
0
0
0
0
0
0
0
0
0
0
0
0
0
0
0
0
0
0
0
0
0
0
0
0
0
0
0
0
0
0
0
0
0
0
0
0
0
0
0
0
0
0
0
0
0
0
0
0
0
0
0
0
0
0
0
0
0
0
0
0
0
0
0
0
0
0
0
0
0
0
0
0
0
0
0
0
0
0
0
0
0
0
0
0
0
0
0
0
0
0
0
0
0
0
0
0
0
0
0
0
0
0
0
0
0
0
0
0
0
0
0
0
0
0
0
0
0
0
0
0
0
0
0
0
0
0
0
0
0
0
0
0
0
0
0
0
0
0
0
0
0
0
0
0
0
0
0
0
0
0
0
0
0
0
0
0
0
0
0
0
0
0
0
0
0
0
0
0
0
0
0
0
0
0
0
0
0
0
0
0
0
0
0
0
0
0
0
0
0
0
0
0
0
0
0
0
0
0
0
0
0
0
0
0
0
0
0
0
0
0
0
0
0
0
0
0
0
0
0
0
0
0
0
0
0
0
0
0
0
0
0
0
0
0
0
0
0
0
0
0
0
0
0
0
0
0
0
0
0
0
0
0
0
0
0
0
0
0
0
0
0
0
0
0
0
0
0
0
0
0
0
0
0
0
0
0
0
0
0
0
0
0
0
0
0
0
0
0
0
0
0
0
0
0
0
0
0
0
0
0
0
0
0
0
0
0
0
0
0
0
0
0
0
0
0
0
0
0
0
0
0
0
0
0
0
0
0
0
0
0
0
0
0
0
0
0
0
0
0
0
0
0
0
0
0
0
0
0
0
0
0
0
0
0
0
0
0
0
0
0
0
0
0
0
0
0
0
0
0
0
0
0
0
0
0
0
0
0
0
0
0
0
0
0
0
0
0
0
0
0
0
0
0
0
0
0
0
0
0
0
0
0
0
0
0
0
0
0
0
0
0
0
0
0
0
0
0
0
0
0
0
0
0
0
0
0
0
0
0
0
0
0
0
0
0
0
0
0
0
0
0
0
0
0
0
0
0
0
0
0
0
0
0
0
0
0
0
0
0
0
0
0
0
0
0
0
0
0
0
0
0
0
0
0
0
0
0
0
0
0
0
0
0
0
0
0
0
0
0
0
0
0
0
0
0
0
0
0
0
0
0
0
0
0
0
0
0
0
0
0
0
0
0
0
0
0
0
0
0
0
0
0
0
0
0
0
0
0
0
0
0
0
0
0
0
0
0
0
0
0
0
0
0
0
0
0
0
0
0
0
0
0
0
0
0
0
0
0
0
0
0
0
0
0
0
0
0
0
0
0
0
0
0
0
0
0
0
0
0
0
0
0
0
0
0
0
0
0
0
0
0
0
0
0
0
0
0
0
0
0
0
0
0
0
0
0
0
0
0
0
0
0
0
0
0
0
0
0
0
0
0
0
0
0
0
0
0
0
0
0
0
