2.3716
2.3316
2.28634
2.22525
2.13853
2.01791
1.85742
1.65422
1.41252
1.13929
0.842699
0.514866
0
0.0108373
0.967963
3.14873
6.39181
9.93695
12.5856
13.1909
11.2439
7.19025
2.25248
-2.13673
-4.93871
-5.8138
-5.04383
-3.24462
-1.09087
0.842861
2.16938
2.75493
2.70199
2.67769
2.66374
2.66233
2.67325
2.69378
2.72012
2.74956
2.78055
2.81304
2.84833
2.88845
2.93559
2.99096
3.05609
3.13266
3.22228
3.32623
3.44491
3.57731
3.72066
3.8706
4.02154
4.16784
4.30494
4.43022
4.54345
4.64653
4.74294
4.83686
4.93248
5.03312
5.14156
5.26
5.39006
5.5328
5.68861
5.85713
6.03705
6.22606
6.421
6.61807
6.81337
7.00327
7.18479
7.35533
7.51178
7.64993
7.76458
7.8513
7.90399
7.9156
7.87988
7.79306
7.65487
7.46858
7.24032
6.97814
6.69483
6.40139
6.10495
5.81116
5.52488
5.24964
4.98715
4.73703
4.49678
4.2625
4.03001
3.79614
3.55973
3.32283
3.09456
2.88788
2.71566
2.5869
2.50456
2.46553
2.46239
2.48588
2.52711
2.57702
2.6304
2.68416
2.73591
2.78362
2.82536
2.85897
2.88147
2.8906
2.88472
2.86345
2.82836
2.78332
2.73436
2.68881
2.65407
2.63652
2.64568
2.68689
2.75012
2.81767
2.87138
2.89778
2.89118
2.85429
2.79638
2.7301
2.66774
2.6157
2.5737
2.53953
2.50966
2.47915
2.44346
2.40005
2.3496
2.29618
2.24653
2.20842
2.1888
2.19236
2.22081
2.27303
2.34565
2.43384
2.53318
2.63729
2.73427
2.81051
2.85329
2.85425
2.81283
2.73776
2.64559
2.55625
2.48746
2.44454
2.42209
2.41637
2.42489
2.4443
2.47111
2.50223
2.53563
2.57028
2.60592
2.64273
2.68096
2.72057
2.761
2.80114
2.83946
2.87443
2.90468
2.92932
2.948
2.96118
2.97027
2.97774
2.98727
3.00381
3.03285
3.07958
3.14776
3.24048
3.36235
3.50799
3.66042
3.7991
3.90612
3.96964
3.98491
3.95357
3.88179
3.77817
3.6519
3.51219
3.36713
3.22251
3.0819
2.94786
2.82266
2.70826
2.60591
2.51605
2.43857
2.37296
2.31857
2.27472
2.24058
2.21477
2.1953
2.17807
2.15261
2.10352
2.01383
1.86968
1.66523
1.40619
1.07059
0.189618
0
1.11572
3.76639
7.53527
11.3633
13.8905
14.0272
11.4781
6.92501
1.74591
-2.58602
-5.09201
-5.57099
-4.4908
-2.63329
-0.729128
0.764946
1.7065
2.18413
2.30764
2.43033
2.55257
2.67437
2.79558
2.9157
3.03369
3.14792
3.25645
3.35735
3.4489
3.52991
3.59912
3.65466
3.69701
3.72735
3.74784
3.76191
3.77448
3.79161
3.8199
3.86552
3.93285
4.02118
4.13047
4.26016
4.40771
4.57426
4.75527
4.93558
5.10031
5.24003
5.35463
5.4535
5.5513
5.66109
5.78819
5.92656
6.06653
6.19779
6.31441
6.4176
6.51482
6.61574
6.72709
6.84897
6.97354
7.08779
7.178
7.23397
7.25087
7.22842
7.16829
7.07145
6.93943
6.77979
6.59458
6.38461
6.15211
5.90044
5.63356
5.35607
5.07135
4.78219
4.49132
4.20183
3.91746
3.64258
3.38191
3.1399
2.92022
2.72526
2.55607
2.41251
2.29373
2.19884
2.12634
2.07457
2.04185
2.02719
2.02783
2.03848
2.05335
2.06713
2.07594
2.07791
2.07338
2.0644
2.05396
2.04503
2.03964
2.03859
2.042
2.04959
2.06079
2.07489
2.09109
2.10823
2.12442
2.1361
2.13861
2.1268
2.09632
2.04518
1.97475
1.8901
1.79921
1.7114
1.63532
1.57462
1.53024
1.50292
1.49145
1.49029
1.48881
1.47622
1.44413
1.38863
1.31164
1.22061
1.12691
1.0429
0.978628
0.934895
0.912514
0.909404
0.920073
0.937664
0.955515
0.96846
0.973686
0.971045
0.962832
0.953075
0.946458
0.947047
0.958556
0.982484
1.01286
1.0406
1.05677
1.05598
1.03831
1.00918
0.97726
0.951423
0.937291
0.934321
0.940391
0.953651
0.972075
0.993274
1.01494
1.03532
1.0535
1.06957
1.08454
1.10017
1.1185
1.14141
1.17017
1.20616
1.24893
1.2965
1.34732
1.40167
1.46231
1.53407
1.6223
1.73086
1.86032
2.00521
2.15824
2.31306
2.46291
2.60053
2.71717
2.80362
2.85553
2.8701
2.84652
2.78675
2.69621
2.58354
2.45922
2.33353
2.21427
2.10383
2.00281
1.91179
1.8308
1.75965
1.69814
1.64601
1.6029
1.56755
1.5377
1.5101
1.48059
1.44435
1.39619
1.331
1.24421
1.13237
0.994373
0.830811
0.644489
0.358087
-0.124528
0
1.22087
3.74651
7.25635
10.8369
13.244
13.4293
11.0682
6.77458
1.85104
-2.29355
-4.72721
-5.27185
-4.38469
-2.79503
-1.14626
0.194178
1.13443
1.75405
2.04213
2.28292
2.49599
2.67311
2.81022
2.90802
2.97168
3.01001
3.03391
3.0545
3.08113
3.11857
3.16755
3.22924
3.29956
3.3713
3.43727
3.49261
3.53629
3.57136
3.60406
3.64213
3.69291
3.75939
3.84177
3.94033
4.05466
4.18319
4.32341
4.47225
4.62641
4.78285
4.9392
5.09408
5.24718
5.39915
5.55126
5.70498
5.86146
6.02122
6.1839
6.34825
6.51222
6.67319
6.82792
6.97248
7.10298
7.216
7.30838
7.37723
7.4199
7.4335
7.4158
7.36499
7.27993
7.16047
7.00759
6.82331
6.61035
6.37165
6.1109
5.83202
5.5369
5.22756
4.90691
4.57921
4.2504
3.92802
3.6206
3.33694
3.089
2.89642
2.77121
2.69837
2.65436
2.61486
2.56253
2.49196
2.4101
2.33212
2.27469
2.24638
2.25665
2.29398
2.33768
2.36667
2.36844
2.34454
2.30998
2.28658
2.29317
2.34427
2.42608
2.50905
2.56245
2.56895
2.53138
2.46879
2.40527
2.35815
2.32731
2.30321
2.28001
2.25265
2.21634
2.16772
2.10563
2.03165
1.94983
1.8673
1.7926
1.73366
1.70453
1.70897
1.7367
1.77133
1.79654
1.80143
1.78293
1.74464
1.69349
1.63623
1.57779
1.52022
1.46467
1.41233
1.36458
1.32295
1.28887
1.26352
1.24744
1.23966
1.23735
1.2369
1.23488
1.22904
1.21897
1.20621
1.19382
1.18543
1.18412
1.19194
1.20907
1.23129
1.25227
1.26602
1.26914
1.26241
1.25105
1.24337
1.24846
1.27339
1.31885
1.38707
1.47115
1.55815
1.63424
1.68815
1.71349
1.7098
1.68241
1.64127
1.59928
1.56948
1.5609
1.57727
1.61794
1.67974
1.75968
1.85447
1.96059
2.07475
2.19442
2.31787
2.44379
2.57054
2.6943
2.80788
2.90248
2.96938
3.00231
2.999
2.96142
2.89471
2.80539
2.69984
2.58506
2.46612
2.34598
2.22666
2.10982
1.99674
1.88833
1.78538
1.6888
1.59987
1.52037
1.4524
1.39823
1.3606
1.34182
1.34105
1.35176
1.36216
1.35833
1.32681
1.2572
1.14438
0.989925
0.802378
0.592223
0.0924725
0
0.8067
2.85181
6.02456
9.60106
12.3935
13.2185
11.4789
7.52246
2.53415
-1.99534
-4.9196
-5.83995
-5.08956
-3.40227
-1.51708
0.0677795
1.14579
1.72996
1.89452
2.03902
2.18116
2.31887
2.44732
2.55969
2.6487
2.70989
2.74429
2.75914
2.76619
2.77861
2.8078
2.85775
2.92604
3.01125
3.11289
3.22922
3.35744
3.49376
3.63391
3.77319
3.90761
4.0346
4.15347
4.26546
4.37335
4.48078
4.59148
4.70856
4.83392
4.9686
5.11266
5.26521
5.42453
5.58834
5.75413
5.91954
6.08297
6.24394
6.40323
6.56259
6.72414
6.8894
7.05858
7.23011
7.39732
7.55022
7.67819
7.77238
7.82717
7.84006
7.81042
7.73792
7.62177
7.46729
7.2797
7.06102
6.81554
6.54967
6.27121
5.98829
5.70756
5.43376
5.16964
4.91605
4.67239
4.43717
4.20869
3.98558
3.76716
3.5537
3.34655
3.1481
2.96169
2.79149
2.64161
2.51581
2.41692
2.34632
2.30368
2.28859
2.30317
2.3458
2.40169
2.45449
2.49098
2.50464
2.4974
2.4785
2.46029
2.45273
2.45869
2.47232
2.48172
2.47347
2.43815
2.37424
2.2892
2.19745
2.11598
2.05773
2.02324
2.01884
2.03921
2.07061
2.09818
2.11134
2.10726
2.09111
2.07287
2.06204
2.06353
2.07151
2.07163
2.04714
1.98668
1.89014
1.7699
1.6467
1.54234
1.47261
1.43221
1.42065
1.43414
1.46755
1.51607
1.57431
1.63942
1.71002
1.78536
1.86468
1.94407
2.01467
2.06533
2.08581
2.07091
2.02347
1.95447
1.87982
1.81477
1.76849
1.73659
1.71507
1.69831
1.68167
1.66366
1.6468
1.63657
1.63924
1.65924
1.69475
1.74102
1.79473
1.85124
1.90602
1.95551
1.99773
2.03237
2.06046
2.0839
2.10482
2.12516
2.14643
2.16973
2.19606
2.22648
2.26247
2.30841
2.38365
2.57212
2.94362
3.39974
3.81168
4.0432
4.01518
3.7447
3.32793
2.88535
2.52071
2.32163
2.21723
2.13667
2.06411
1.99604
1.93205
1.87308
1.82118
1.77936
1.75282
1.74758
1.76275
1.78756
1.80696
1.80591
1.77354
1.70565
1.60484
1.47837
1.33505
1.18294
1.02734
0.870569
0.713423
0.556075
0.12425
0
0.770205
2.85951
6.15355
9.83208
12.5886
13.2006
11.1595
6.98438
2.00712
-2.25695
-4.77638
-5.33681
-4.41533
-2.77088
-1.0516
0.38504
1.43345
2.11536
2.24992
2.3656
2.47297
2.57092
2.65962
2.74013
2.81397
2.88271
2.94759
3.0094
3.06852
3.12525
3.18
3.23355
3.28709
3.34203
3.3996
3.46067
3.52522
3.59062
3.65205
3.70467
3.74587
3.77697
3.80369
3.83507
3.88114
3.95022
4.04509
4.16185
4.29645
4.44638
4.60955
4.78432
4.96959
5.16444
5.36753
5.57647
5.78742
5.99479
6.19094
6.36805
6.51952
6.64091
6.73045
6.78884
6.81849
6.82241
6.80324
6.76254
6.70181
6.62164
6.5214
6.40061
6.25915
6.09724
5.91525
5.71399
5.49435
5.25679
5.00238
4.73321
4.45264
4.16533
3.87685
3.59292
3.31869
3.05799
2.81303
2.58447
2.37197
2.1749
1.99308
1.82793
1.68102
1.55428
1.44927
1.36811
1.30964
1.27119
1.24922
1.24024
1.24152
1.25142
1.26915
1.29418
1.32576
1.36257
1.4012
1.43755
1.46829
1.49216
1.51047
1.52677
1.5454
1.57091
1.60474
1.64027
1.66605
1.67027
1.64547
1.59162
1.51624
1.43182
1.35183
1.2851
1.23242
1.19205
1.16246
1.14171
1.12715
1.11583
1.10483
1.09147
1.07347
1.04905
1.01712
0.977583
0.931582
0.881726
0.832261
0.789192
0.759103
0.755093
0.802367
0.893921
0.999678
1.0833
1.11858
1.10111
1.04914
0.99365
0.963312
0.97202
1.0033
1.04336
1.08544
1.12408
1.15544
1.17771
1.19113
1.19738
1.19896
1.19839
1.19759
1.19758
1.19869
1.20063
1.20291
1.2053
1.20819
1.21282
1.22124
1.23589
1.25904
1.29211
1.33651
1.39209
1.45326
1.51333
1.56697
1.61228
1.65191
1.69238
1.74216
1.80892
1.89707
2.00238
2.11931
2.24368
2.36816
2.48298
2.5794
2.65117
2.69555
2.71345
2.7087
2.68659
2.65223
2.6091
2.55943
2.50347
2.44006
2.36759
2.28474
2.19103
2.08712
1.97501
1.85802
1.74044
1.62742
1.52789
1.47783
1.60404
1.9131
2.2831
2.5552
2.60093
2.39277
2.02378
1.64978
1.38206
1.19982
1.00385
0.793011
0.569727
0.253982
-0.179136
0
1.20315
3.62343
6.99625
10.5234
13.0456
13.4959
11.4429
7.3825
2.55227
-1.64486
-4.25305
-5.05266
-4.42982
-3.01926
-1.39175
0.068919
1.15257
1.78278
1.97046
2.15764
2.34274
2.51895
2.67497
2.79709
2.87439
2.904
2.8936
2.8597
2.82244
2.79975
2.80082
2.82122
2.8573
2.90773
2.9709
3.04467
3.12671
3.21484
3.30728
3.40311
3.50236
3.60607
3.71595
3.83387
3.9611
4.09775
4.24242
4.39276
4.54475
4.69427
4.83849
4.97672
5.11056
5.2434
5.37926
5.5214
5.6712
5.82726
5.98655
6.14502
6.29811
6.4413
6.57012
6.68046
6.76924
6.83478
6.87629
6.89327
6.88532
6.85211
6.79326
6.70817
6.59576
6.45429
6.28184
6.07723
5.84063
5.57363
5.27898
4.96097
4.62632
4.28381
3.94331
3.61439
3.3054
3.02421
2.77313
2.54702
2.33678
2.13193
1.92226
1.69776
1.46898
1.26004
1.09695
0.996758
0.962009
0.98167
1.03673
1.10721
1.17772
1.24173
1.29892
1.35007
1.39578
1.43628
1.47176
1.50237
1.52818
1.54907
1.56423
1.5732
1.57594
1.57289
1.56535
1.55574
1.54747
1.54453
1.55079
1.5694
1.60095
1.64492
1.70182
1.77429
1.86784
1.98561
2.11509
2.23151
2.3077
2.32275
2.26849
2.15128
1.98911
1.80685
1.63173
1.48433
1.36897
1.28297
1.2271
1.20247
1.20781
1.23978
1.29338
1.36233
1.44028
1.51877
1.58728
1.63686
1.66214
1.66298
1.64463
1.61591
1.58584
1.56006
1.53839
1.5159
1.48498
1.43885
1.37506
1.29749
1.21631
1.14576
1.10046
1.08842
1.10716
1.15644
1.23474
1.33956
1.45565
1.56008
1.63296
1.66171
1.6437
1.58657
1.50581
1.42015
1.34638
1.29392
1.2608
1.24307
1.23909
1.24871
1.27184
1.30839
1.35799
1.41961
1.49129
1.5701
1.65255
1.73496
1.81398
1.88699
1.95245
2.00983
2.05945
2.10207
2.13854
2.16947
2.19512
2.21534
2.22965
2.23738
2.23767
2.22956
2.212
2.18377
2.1435
2.08981
2.02151
1.93797
1.83957
1.72803
1.60646
1.47919
1.35466
1.24314
1.1543
1.09527
1.06921
1.07467
1.10602
1.15461
1.21023
1.26204
1.29597
1.29769
1.25508
1.15779
0.999053
0.778054
0.501335
0
-0.597368
-0.461913
0.858003
3.45847
6.8953
10.2073
12.217
12.0204
9.43788
5.15852
0.462203
-3.3397
-5.43151
-5.71227
-4.6516
-2.94887
-1.21972
0.155108
1.03662
1.38483
1.48361
1.57591
1.66256
1.74451
1.8229
1.89906
1.97445
2.05054
2.1286
2.20954
2.29373
2.38098
2.47065
2.56189
2.6539
2.74625
2.83899
2.93266
3.02815
3.12644
3.22844
3.33478
3.44585
3.56183
3.68282
3.80888
3.93994
4.07574
4.21562
4.35849
4.50298
4.6477
4.79162
4.93442
5.07665
5.21964
5.36522
5.51523
5.67127
5.83439
6.00515
6.18377
6.37095
6.5716
6.80244
7.09435
7.42496
7.72421
7.9162
7.94859
7.81353
7.55225
7.24011
6.95705
6.75204
6.58546
6.41991
6.2457
6.05896
5.85611
5.6344
5.39268
5.13137
4.85209
4.55729
4.25001
3.9337
3.61231
3.29051
2.97387
2.6703
2.39308
2.15286
1.95875
1.8161
1.72469
1.68869
1.69246
1.71681
1.74447
1.76468
1.77489
1.77923
1.78442
1.79635
1.8128
1.82401
1.8177
1.78532
1.72615
1.64726
1.55994
1.47512
1.39932
1.33253
1.27448
1.2259
1.1874
1.15964
1.14348
1.13994
1.15024
1.17558
1.21681
1.27363
1.34479
1.42857
1.52037
1.61472
1.70636
1.79119
1.86688
1.93284
1.98978
2.039
2.08228
2.12138
2.15748
2.1918
2.2256
2.25998
2.2957
2.33262
2.36824
2.39756
2.41462
2.4146
2.3958
2.36062
2.31519
2.26761
2.22555
2.19345
2.17056
2.15496
2.14442
2.13611
2.12722
2.11562
2.10021
2.08101
2.0591
2.03625
2.01454
1.99569
1.98092
1.97095
1.96482
1.95968
1.9518
1.93755
1.91432
1.88118
1.83905
1.79042
1.73881
1.68819
1.64193
1.60326
1.57513
1.56023
1.56095
1.5794
1.61727
1.67553
1.75395
1.8506
1.96797
2.09715
2.22265
2.32962
2.40872
2.45894
2.48666
2.50138
2.50964
2.51137
2.49928
2.46333
2.39711
2.30246
2.18984
2.07408
1.96782
1.87389
1.78665
1.70043
1.60807
1.50294
1.38087
1.24117
1.08689
0.92406
0.760528
0.603468
0.45816
0.328928
0.218883
0.129996
0.0600105
0
-0.0477669
-0.109482
-0.195533
-0.312291
-0.46077
-0.636451
-0.830352
-1.19296
-1.31115
-0.819605
0.594982
3.0222
6.1104
9.01182
10.6193
10.0603
7.18865
2.74793
-1.93625
-5.56594
-7.41274
-7.49469
-6.35967
-4.69235
-3.00874
-1.56111
-0.412083
0.445917
0.967228
1.08117
1.07988
0.946203
0.723972
0.494233
0.345408
0.333281
0.394245
0.480226
0.574677
0.667677
0.750817
0.81884
0.87077
0.910212
0.944734
0.984467
1.05649
1.2363
1.51086
1.8001
2.00487
2.05619
1.94984
1.7473
1.54463
1.42926
1.44756
1.53163
1.64315
1.77205
1.91629
2.07564
2.25058
2.442
2.65059
2.87633
3.11935
3.38028
3.65802
3.94557
4.22391
4.46902
4.66125
4.78224
4.81824
4.76868
4.65336
4.5106
4.3831
4.29665
4.23688
4.18049
4.1171
4.0389
3.93893
3.81202
3.65505
3.46696
3.2494
3.00756
2.74581
2.46965
2.18579
1.90168
1.62492
1.36255
1.12043
0.902831
0.712313
0.550049
0.416808
0.312386
0.235204
0.183528
0.155588
0.149532
0.163293
0.194439
0.240105
0.297123
0.36244
0.432675
0.505014
0.577459
0.648827
0.718445
0.785178
0.847064
0.901291
0.944509
0.974253
0.990547
0.996843
0.999755
1.00753
1.0278
1.06367
1.11405
1.1778
1.25059
1.32633
1.39794
1.45723
1.49352
1.49864
1.46611
1.39265
1.27999
1.13627
0.975622
0.818301
0.686369
0.598629
0.566361
0.590823
0.679933
0.808904
0.945085
1.06043
1.14
1.1855
1.21238
1.2415
1.29506
1.37135
1.4456
1.48417
1.46429
1.38751
1.27892
1.17338
1.09775
1.05472
1.02675
1.00875
0.99717
0.990159
0.987826
0.991758
1.00408
1.02578
1.05632
1.09552
1.14238
1.19525
1.25204
1.30914
1.36178
1.40508
1.43494
1.44887
1.4466
1.43003
1.40274
1.36895
1.33265
1.29689
1.26349
1.23434
1.21185
1.19948
1.20158
1.22275
1.26728
1.33795
1.4348
1.55446
1.6901
1.83237
1.97087
2.09607
2.20079
2.28117
2.33677
2.37005
2.3854
2.38833
2.38533
2.38188
2.38252
2.39117
2.41284
2.45474
2.51694
2.58242
2.6272
2.62789
2.57015
2.45437
2.29617
2.1214
1.95776
1.82245
1.71165
1.62078
1.5488
1.49278
1.44828
1.40985
1.37141
1.32672
1.26984
1.19576
1.10103
0.984331
0.847017
0.693149
0.517776
0.0311451
0
0.902772
3.06007
6.35826
10.0703
12.9702
13.8071
11.9455
7.79116
2.68169
-1.74606
-4.33609
-4.86071
-3.90185
-2.33498
-0.821973
0.385741
1.3179
2.05021
2.36095
2.64616
2.91996
3.17511
3.40119
3.59193
3.74102
3.8417
3.89082
3.89313
3.86306
3.82316
3.79962
3.81664
3.8786
3.97721
4.10793
4.28529
4.50157
4.72047
4.90378
5.024
5.07343
5.06604
5.03155
5.00487
5.01585
5.07125
5.15941
5.2736
5.41137
5.57009
5.74599
5.93449
6.13058
6.32933
6.52647
6.71867
6.90379
7.08074
7.24912
7.40875
7.55884
7.69801
7.82464
7.93669
8.03211
8.10923
8.16661
8.20359
8.2198
8.21479
8.18774
8.13724
8.06124
7.95724
7.8227
7.65581
7.45722
7.22827
6.97083
6.68814
6.38464
6.06555
5.73658
5.40367
5.07289
4.7505
4.44291
4.15659
3.89799
3.67232
3.48828
3.36238
3.29972
3.283
3.28971
3.29831
3.29386
3.27101
3.23333
3.18981
3.15002
3.11922
3.09638
3.07904
3.06508
3.05237
3.03952
3.02636
3.01377
3.00328
2.99625
2.99303
2.9926
2.99303
2.99062
2.98092
2.95987
2.92498
2.87615
2.81603
2.74971
2.68388
2.6257
2.58078
2.55503
2.57122
2.68763
2.91235
3.17469
3.37492
3.42224
3.28275
3.00187
2.68386
2.44195
2.34726
2.33382
2.3465
2.37183
2.40567
2.4449
2.48733
2.53172
2.57726
2.62238
2.66332
2.69449
2.7096
2.70381
2.67569
2.62814
2.56786
2.50327
2.44197
2.38803
2.34109
2.30042
2.26532
2.23545
2.21155
2.19561
2.19043
2.19883
2.22357
2.2694
2.33404
2.40507
2.46738
2.50765
2.51823
2.499
2.45653
2.40131
2.34412
2.29286
2.24974
2.2142
2.18554
2.1637
2.14886
2.14174
2.1437
2.15661
2.18257
2.2237
2.28193
2.35851
2.45358
2.56591
2.69276
2.83025
2.97303
3.11298
3.2409
3.34867
3.43036
3.48289
3.50621
3.50276
3.47653
3.43194
3.3728
3.30222
3.22209
3.13317
3.03559
2.9295
2.81566
2.69587
2.57303
2.45102
2.33425
2.227
2.13321
2.05587
1.99593
1.95281
1.92476
1.90909
1.90232
1.90043
1.8966
1.87878
1.8323
1.74192
1.5953
1.3865
1.11816
0.801322
0.25655
-0.213459
0
1.33764
4.00327
7.65739
11.3316
13.7067
13.7005
11.0444
6.47973
1.43097
-2.65537
-4.90481
-5.23318
-4.1574
-2.41031
-0.618642
0.839855
1.82556
2.3047
2.41718
2.5269
2.63692
2.74965
2.86663
2.98809
3.11306
3.23824
3.35719
3.46244
3.54736
3.60792
3.64387
3.65896
3.66014
3.65629
3.65653
3.66762
3.69323
3.73571
3.79647
3.87583
3.97303
4.08642
4.21347
4.35083
4.49441
4.63972
4.78216
4.91772
5.04357
5.15859
5.26361
5.36133
5.45584
5.55203
5.65482
5.76849
5.89618
6.03967
6.19928
6.37369
6.56001
6.75464
6.95139
7.13743
7.29851
7.42229
7.50112
7.53352
7.52353
7.47803
7.40331
7.30237
7.17823
7.03415
6.86956
6.68323
6.47505
6.24597
5.99761
5.73234
5.45252
5.15974
4.85572
4.54275
4.22402
3.90382
3.58757
3.28158
2.99271
2.72899
2.4969
2.30179
2.1662
2.12894
2.18491
2.28632
2.37932
2.42209
2.39709
2.31312
2.19813
2.0873
2.01075
1.97305
1.9612
1.96643
1.98349
2.00411
2.02027
2.02602
2.01868
1.9993
1.97191
1.94205
1.91493
1.89367
1.87831
1.86805
1.86167
1.85844
1.85901
1.86574
1.88393
1.93288
2.02961
2.14609
2.22768
2.21823
2.09218
1.87331
1.62745
1.43154
1.33579
1.3038
1.30829
1.32864
1.34438
1.34101
1.31363
1.26763
1.21662
1.17822
1.16831
1.2098
1.30977
1.43355
1.53292
1.56885
1.52992
1.43608
1.32614
1.23754
1.19132
1.17434
1.17251
1.18164
1.19992
1.22571
1.25788
1.29469
1.33307
1.36926
1.39916
1.41911
1.42661
1.42097
1.40351
1.37748
1.34743
1.31831
1.29441
1.27872
1.27306
1.27758
1.29211
1.31745
1.35614
1.41251
1.49149
1.59677
1.72874
1.88908
2.06713
2.2414
2.39065
2.50077
2.56876
2.60226
2.61499
2.62032
2.62585
2.63135
2.63232
2.62282
2.59872
2.55994
2.51089
2.45894
2.41161
2.37345
2.34322
2.31693
2.28778
2.24801
2.19109
2.11346
2.01559
1.90196
1.78008
1.65872
1.54483
1.44227
1.35317
1.27715
1.211
1.14932
1.08562
1.01354
0.928051
0.826372
0.708519
0.577305
0.435028
0.0749666
0
0.614383
2.24955
4.95603
8.26792
11.1961
12.5519
11.5062
8.07451
3.20293
-1.63375
-5.09385
-6.50376
-5.99723
-4.26645
-2.14617
-0.276794
1.03976
1.80556
2.18566
2.28842
2.38639
2.47835
2.56327
2.64126
2.7134
2.78132
2.84667
2.91067
2.97394
3.03656
3.09835
3.15918
3.21922
3.27904
3.33946
3.40142
3.4659
3.53389
3.60656
3.68537
3.77209
3.86847
3.97583
4.09459
4.22404
4.36216
4.50687
4.6563
4.80928
4.96564
5.12595
5.2911
5.46161
5.6373
5.81699
5.99917
6.1824
6.36569
6.54878
6.73197
6.91568
7.09988
7.28347
7.4636
7.63569
7.79421
7.93342
8.04824
8.13459
8.18926
8.20942
8.19226
8.13487
8.03507
7.89162
7.70549
7.48059
7.2237
6.94385
6.65111
6.35495
6.06198
5.77667
5.50131
5.23647
4.98175
4.73671
4.50164
4.27798
4.06823
3.87549
3.7036
3.55699
3.4366
3.34113
3.26836
3.21612
3.18436
3.17353
3.18514
3.22055
3.27954
3.35928
3.45416
3.55648
3.65786
3.7514
3.83244
3.89843
3.94928
3.9871
4.01549
4.03877
4.0613
4.08674
4.11753
4.15489
4.19903
4.2492
4.30351
4.3585
4.40884
4.44807
4.4689
4.46364
4.42449
4.34384
4.21464
4.03094
3.78883
3.48834
3.13758
2.74837
2.33318
1.90548
1.48027
1.07267
0.696117
0.361707
0.0808334
-0.13981
-0.307215
-0.432693
-0.528537
-0.60494
-0.668018
-0.719408
-0.757341
-0.77872
-0.777407
-0.749392
-0.703166
-0.653826
-0.616275
-0.599382
-0.602315
-0.614622
-0.620253
-0.604102
-0.558458
-0.491532
-0.412895
-0.33428
-0.266796
-0.217508
-0.187518
-0.172115
-0.162788
-0.150206
-0.127255
-0.0928711
-0.048917
0.00258331
0.0595524
0.119558
0.18086
0.243251
0.308434
0.379976
0.462869
0.562718
0.685712
0.863099
1.1587
1.54963
1.93299
2.21567
2.34377
2.31362
2.16541
1.96349
1.77353
1.64689
1.58278
1.54894
1.52728
1.50964
1.48999
1.46334
1.42681
1.38016
1.32563
1.26728
1.20977
1.15733
1.1118
1.07451
1.0457
1.02451
1.00894
0.996059
0.981264
0.95871
0.922306
0.866821
0.789146
0.689367
0.571232
0.433024
0.0120567
0
0.876019
2.99483
6.25601
9.92527
12.7687
13.5497
11.6593
7.50028
2.35644
-2.2019
-5.01908
-5.76157
-4.85526
-3.08704
-1.17438
0.464496
1.69673
2.54219
2.79489
3.00622
3.20077
3.37417
3.52497
3.65401
3.76398
3.8588
3.94286
4.02028
4.09432
4.16716
4.23996
4.31326
4.38746
4.4632
4.54147
4.62352
4.71052
4.8032
4.90154
5.00483
5.11202
5.22201
5.33394
5.44747
5.56285
5.68088
5.80278
5.93015
6.06476
6.20856
6.36339
6.53081
6.71163
6.90554
7.11079
7.32404
7.54064
7.75511
7.96193
8.15642
8.33543
8.49773
8.64399
8.77639
8.89777
9.01085
9.11766
9.2186
9.31087
9.38737
9.43849
9.45314
9.42099
9.33459
9.19089
8.99193
8.74467
8.46
8.15313
7.83844
7.52433
7.21588
6.91701
6.63048
6.35816
6.10148
5.8618
5.64073
5.44007
5.26162
5.10676
4.97577
4.86771
4.7803
4.71025
4.65379
4.60698
4.56629
4.52924
4.49458
4.46252
4.43423
4.41153
4.39617
4.38921
4.39057
4.39895
4.412
4.42682
4.44057
4.4511
4.45725
4.45902
4.4575
4.45451
4.45211
4.452
4.4553
4.4616
4.46847
4.47209
4.46834
4.454
4.42767
4.39023
4.34457
4.29465
4.24422
4.19554
4.14863
4.10175
4.05203
3.99652
3.93339
3.86292
3.78791
3.71347
3.64611
3.59232
3.56669
3.58702
3.64193
3.70432
3.74343
3.73642
3.67618
3.57266
3.44799
3.32903
3.24016
3.18493
3.15703
3.17402
3.24795
3.3505
3.44289
3.48855
3.46624
3.37768
3.24585
3.10494
2.98777
2.91442
2.87492
2.85825
2.86299
2.89584
2.95844
3.03305
3.09724
3.12974
3.11763
3.06136
2.97541
2.88425
2.81525
2.78932
2.8011
2.83993
2.90219
2.98246
3.07119
3.15971
3.24265
3.31918
3.39276
3.46929
3.55437
3.65073
3.75898
3.87012
3.96997
4.044
4.08117
4.07581
4.02725
3.93801
3.81181
3.65274
3.4701
3.27305
3.06882
2.86414
2.66604
2.48126
2.31521
2.17224
2.05475
1.963
1.89565
1.85051
1.82348
1.80566
1.78543
1.7517
1.69541
1.6107
1.49544
1.35087
1.18067
0.989818
0.785012
0.572646
0.349424
-0.027
0
1.00663
3.38414
6.93686
10.7372
13.3912
13.6661
11.1473
6.52003
1.27023
-3.02385
-5.38202
-5.70812
-4.58842
-2.8339
-1.09131
0.303415
1.26329
1.82226
1.87331
1.91796
1.95772
1.9922
2.02214
2.04926
2.07584
2.10421
2.13626
2.17305
2.21486
2.26128
2.31102
2.36286
2.41625
2.47163
2.53034
2.59403
2.66383
2.73967
2.82044
2.90278
2.98288
3.05786
3.12691
3.19181
3.25645
3.32571
3.40408
3.4939
3.59484
3.70608
3.82638
3.95411
4.08769
4.22593
4.36816
4.51431
4.66474
4.82005
4.9808
5.14718
5.31871
5.49435
5.67148
5.84407
6.00342
6.1398
6.24342
6.30723
6.32674
6.30028
6.22898
6.11652
5.96865
5.79213
5.59336
5.37752
5.14969
4.91377
4.67176
4.42468
4.17387
3.92094
3.66776
3.41638
3.16897
2.92788
2.69567
2.4751
2.269
2.07998
1.91024
1.76123
1.63359
1.52737
1.44239
1.37739
1.33054
1.29963
1.28205
1.2751
1.27521
1.27876
1.28257
1.28429
1.2828
1.2782
1.2717
1.2651
1.26022
1.2582
1.25938
1.26286
1.26627
1.266
1.25831
1.2404
1.2116
1.17401
1.13271
1.09506
1.06933
1.06293
1.09233
1.166
1.26723
1.37071
1.45135
1.49172
1.48547
1.43677
1.35734
1.26286
1.16914
1.08637
1.01823
0.964293
0.921836
0.888596
0.863325
0.845244
0.834197
0.830413
0.833989
0.844994
0.862228
0.882129
0.900744
0.915231
0.925221
0.933418
0.945069
0.966851
1.01319
1.08891
1.17535
1.24368
1.26846
1.23996
1.16902
1.082
1.00872
0.969868
0.961618
0.969754
0.986428
1.00783
1.03086
1.05354
1.07501
1.09529
1.11499
1.13497
1.15621
1.17988
1.20737
1.2404
1.28093
1.33104
1.39264
1.46715
1.556
1.66202
1.78869
1.93372
2.08169
2.21084
2.30059
2.33682
2.31591
2.24653
2.14843
2.04843
1.97404
1.94126
1.95112
2.02597
2.17306
2.36244
2.5396
2.66263
2.69377
2.59443
2.34006
1.94918
1.50133
1.11944
0.913172
0.822235
0.773634
0.753975
0.757494
0.778995
0.814362
0.860277
0.916062
0.978474
1.03436
1.06302
1.04153
0.95204
0.788479
0.558899
0
-0.559179
-0.351876
1.09625
3.85891
7.39166
10.5907
12.1962
11.3718
8.14451
3.43915
-1.32607
-4.84617
-6.41092
-6.05207
-4.36737
-2.1829
-0.224803
1.08775
1.70012
1.79239
1.86476
1.93437
2.00058
2.06298
2.12138
2.17597
2.22738
2.27682
2.32611
2.37759
2.43382
2.49714
2.56919
2.65038
2.74076
2.83777
2.93444
3.02315
3.0981
3.15735
3.20384
3.24484
3.29004
3.34892
3.42834
3.52759
3.64335
3.77269
3.91252
4.05963
4.21126
4.36539
4.52074
4.67661
4.83255
4.98807
5.14241
5.29453
5.44321
5.58716
5.72535
5.85711
5.98233
6.10145
6.21555
6.32634
6.43611
6.54841
6.67284
6.83052
7.01046
7.17039
7.24768
7.18974
6.98553
6.67598
6.33388
6.02374
5.76541
5.51757
5.26669
5.00768
4.73703
4.45392
4.16004
3.85903
3.55538
3.2535
2.95701
2.6686
2.39144
2.13308
1.90289
1.70945
1.56229
1.46812
1.42741
1.43293
1.47121
1.52615
1.58334
1.63408
1.6769
1.71225
1.74044
1.76188
1.77728
1.78708
1.79156
1.79106
1.78626
1.77819
1.76823
1.75792
1.74878
1.74212
1.73911
1.74091
1.74851
1.76265
1.78368
1.81163
1.84581
1.88241
1.9136
1.93082
1.92739
1.90095
1.85457
1.79593
1.73459
1.67877
1.63271
1.59458
1.56308
1.53641
1.51316
1.4924
1.47332
1.45448
1.43324
1.40623
1.37054
1.32534
1.27315
1.22023
1.17576
1.15014
1.15149
1.20633
1.35945
1.57186
1.77707
1.91059
1.93461
1.85106
1.69654
1.52119
1.36372
1.23909
1.13283
1.03727
0.953516
0.884746
0.83488
0.807322
0.804494
0.831695
0.883396
0.944477
0.999536
1.03856
1.06077
1.07504
1.09662
1.14139
1.21991
1.32941
1.45814
1.59706
1.73953
1.87951
2.01166
2.13062
2.23082
2.30854
2.3618
2.38886
2.38865
2.36155
2.31005
2.2389
2.1545
2.06383
1.97309
1.88583
1.80336
1.72587
1.65267
1.58261
1.51465
1.44834
1.38401
1.32262
1.26543
1.21343
1.16669
1.12433
1.0841
1.04244
0.994392
0.934163
0.856068
0.755263
0.628588
0.475261
0.29729
0
-0.550279
-0.475625
0.777483
3.44645
7.15603
10.8671
13.2049
13.0682
10.2083
5.41674
0.175729
-4.0313
-6.33384
-6.68029
-5.61164
-3.84875
-1.97604
-0.34385
0.887284
1.67798
1.77397
1.84976
1.919
1.98291
2.04406
2.10567
2.17081
2.24285
2.32293
2.40318
2.47104
2.51481
2.52903
2.51775
2.49436
2.47778
2.48656
2.53322
2.61073
2.70839
2.81938
2.93755
3.05616
3.16875
3.27017
3.35728
3.42919
3.48725
3.53478
3.57652
3.61804
3.66497
3.72244
3.79468
3.88464
3.99377
4.12212
4.26844
4.43101
4.60813
4.7985
5.00139
5.21654
5.44729
5.70425
5.98827
6.26422
6.48666
6.61698
6.63801
6.55907
6.4098
6.22593
6.03448
5.84538
5.65406
5.45637
5.24927
5.02936
4.79328
4.53857
4.26431
3.97171
3.66437
3.34828
3.03129
2.72219
2.42947
2.16007
1.9185
1.70683
1.52341
1.36306
1.21905
1.08611
0.959902
0.838693
0.727808
0.637553
0.578324
0.556063
0.569746
0.611491
0.668823
0.728009
0.778304
0.815749
0.840056
0.851891
0.851896
0.841669
0.823446
0.799842
0.773685
0.747674
0.724338
0.705707
0.693046
0.686664
0.685975
0.689467
0.695227
0.701459
0.706923
0.711165
0.714418
0.717255
0.720097
0.72275
0.72405
0.721991
0.714187
0.698474
0.673444
0.638777
0.595338
0.545098
0.490965
0.436488
0.384992
0.339689
0.303386
0.278523
0.266473
0.267136
0.278045
0.292754
0.302584
0.299942
0.280459
0.244406
0.196822
0.146198
0.10206
0.0723438
0.0602144
0.0627422
0.0764807
0.0993273
0.128948
0.163264
0.199348
0.232578
0.258122
0.272034
0.272519
0.260848
0.241292
0.219922
0.202777
0.194286
0.195038
0.204278
0.221954
0.247926
0.282117
0.3244
0.374346
0.431084
0.492994
0.558798
0.627909
0.700439
0.777246
0.859688
0.949131
1.04633
1.15082
1.2614
1.37412
1.48241
1.57907
1.65755
1.7128
1.74137
1.74097
1.70977
1.6462
1.5501
1.42207
1.26536
1.0866
0.89572
0.704869
0.526687
0.370826
0.244762
0.152035
0.0919682
0.0601177
0.0492565
0.0505844
0.0548309
0.0530079
0.0373177
0
-0.0674194
-0.171534
-0.318572
-0.512592
-0.754104
-1.03892
-1.35766
-1.71577
-2.47968
-2.68807
-1.80153
0.518628
4.10509
8.12128
11.2354
12.1464
10.2343
5.94679
0.64173
-4.04784
-6.94692
-7.74135
-6.88291
-5.16954
-3.32132
-1.77453
-0.689291
-0.0656189
0.0919846
0.24403
0.389586
0.527058
0.655576
0.774974
0.885631
0.988222
1.08346
1.17159
1.25283
1.32761
1.39673
1.46173
1.52515
1.59038
1.66131
1.74161
1.83398
1.93909
2.05584
2.18204
2.31459
2.44988
2.58453
2.71603
2.84296
2.96497
3.0824
3.19586
3.3056
3.41205
3.51597
3.61905
3.72449
3.83717
3.96316
4.10851
4.27766
4.47185
4.68883
4.92793
5.16853
5.38515
5.5562
5.67064
5.73137
5.75435
5.75569
5.8372
6.14509
6.5609
6.90706
7.03237
6.86582
6.43338
5.84084
5.23901
4.78548
4.46282
4.17259
3.89308
3.62142
3.3565
3.09814
2.84688
2.6036
2.36901
2.14344
1.92687
1.71919
1.52075
1.33274
1.15738
0.997631
0.856736
0.739225
0.651192
0.593511
0.558017
0.534222
0.512574
0.48733
0.457903
0.428229
0.404558
0.392746
0.394758
0.407981
0.430101
0.458823
0.491251
0.523812
0.551454
0.569047
0.572065
0.557533
0.525031
0.4773
0.420123
0.361348
0.309258
0.269711
0.244013
0.236016
0.246583
0.268613
0.293032
0.311562
0.319107
0.314956
0.302381
0.286841
0.273582
0.265651
0.262139
0.261097
0.260418
0.258126
0.252958
0.244603
0.233577
0.220828
0.20728
0.193392
0.179065
0.163754
0.146843
0.12813
0.108312
0.0892532
0.0739147
0.0658947
0.0687027
0.0857506
0.119382
0.16928
0.232508
0.302667
0.368019
0.415256
0.432812
0.413134
0.355059
0.265411
0.158553
0.0533546
-0.0315742
-0.0843731
-0.109069
-0.111106
-0.0915497
-0.0529957
0.000811386
0.0646488
0.134046
0.204122
0.270409
0.329328
0.378595
0.417494
0.446979
0.469602
0.489301
0.510992
0.54001
0.581481
0.639533
0.716507
0.812339
0.92392
1.04742
1.17555
1.29806
1.40485
1.48755
1.54048
1.56073
1.54769
1.50226
1.4261
1.32114
1.19077
1.03988
0.873604
0.697503
0.5181
0.343295
0.182407
0.0440166
-0.0654827
-0.13836
-0.169886
-0.169618
-0.150767
-0.125739
-0.102403
-0.0826542
-0.0638481
-0.0417965
-0.0160583
0
-0.0159607
-0.0835014
-0.206946
-0.370285
-1.15684
-1.64565
-1.20689
0.612853
3.79781
7.64555
10.8721
12.0984
10.5277
6.42462
1.07232
-3.80629
-6.83581
-7.53079
-6.33109
-4.197
-2.06817
-0.499155
0.40783
0.834504
0.923286
1.00984
1.09382
1.17521
1.25486
1.33429
1.41536
1.49975
1.58863
1.6823
1.78013
1.88071
1.98201
2.08168
2.17713
2.26573
2.34518
2.4141
2.47253
2.52202
2.56568
2.60809
2.65463
2.71063
2.78022
2.86552
2.96583
3.07796
3.19824
3.32364
3.4519
3.58208
3.7147
3.85141
3.99432
4.14532
4.30514
4.47326
4.64757
4.82455
4.99947
5.16681
5.32031
5.4531
5.56103
5.64311
5.70127
5.74038
5.76782
5.79274
5.82667
5.8963
6.0292
6.19637
6.34197
6.40597
6.34493
6.14363
5.81747
5.4077
4.97052
4.55828
4.1808
3.82822
3.49818
3.19241
2.9114
2.65469
2.42116
2.20933
2.01777
1.84542
1.69178
1.55719
1.44226
1.34762
1.27362
1.22066
1.18816
1.17309
1.17016
1.1743
1.18194
1.192
1.20613
1.22812
1.26257
1.32298
1.42021
1.53527
1.63703
1.69567
1.69662
22
243
471
702
927
1154
1387
1616
1847
2079
2304
2525
2751
2975
3193
3418
3644
3283
3470
3653
3723
3626
0
0
0
0
0
0
0
0
0
0
0
0
0
0
0
0
0
0
0
0
0
0
0
0
0
0
0
0
0
0
0
0
0
0
0
0
0
0
0
0
0
0
0
0
0
0
0
0
0
0
0
0
0
0
0
0
0
0
0
0
0
0
0
0
0
0
0
0
0
0
0
0
0
0
0
0
0
0
0
0
0
0
0
0
0
0
0
0
0
0
0
0
0
0
0
0
0
0
0
0
0
0
0
0
0
0
0
0
0
0
0
0
0
0
0
0
0
0
0
0
0
0
0
0
0
0
0
0
0
0
0
0
0
0
0
0
0
0
0
0
0
0
0
0
0
0
0
0
0
0
0
0
0
0
0
0
0
0
0
0
0
0
0
0
0
0
0
0
0
0
0
0
0
0
0
0
0
0
0
0
0
0
0
0
0
0
0
0
0
0
0
0
0
0
0
0
0
0
0
0
0
0
0
0
0
0
0
0
0
0
0
0
0
0
0
0
0
0
0
0
0
0
0
0
0
0
0
0
0
0
0
0
0
0
0
0
0
0
0
0
0
0
0
0
0
0
0
0
0
0
0
0
0
0
0
0
0
0
0
0
0
0
0
0
0
0
0
0
0
0
0
0
0
0
0
0
0
0
0
0
0
0
0
0
0
0
0
0
0
0
0
0
0
0
0
0
0
0
0
0
0
0
0
0
0
0
0
0
0
0
0
0
0
0
0
0
0
0
0
0
0
0
0
0
0
0
0
0
0
0
0
0
0
0
0
0
0
0
0
0
0
0
0
0
0
0
0
0
0
0
0
0
0
0
0
0
0
0
0
0
0
0
0
0
0
0
0
0
0
0
0
0
0
0
0
0
0
0
0
0
0
0
0
0
0
0
0
0
0
0
0
0
0
0
0
0
0
0
0
0
0
0
0
0
0
0
0
0
0
0
0
0
0
0
0
0
0
0
0
0
0
0
0
0
0
0
0
0
0
0
0
0
0
0
0
0
0
0
0
0
0
0
0
0
0
0
0
0
0
0
0
0
0
0
0
0
0
0
0
0
0
0
0
0
0
0
0
0
0
0
0
0
0
0
0
0
0
0
0
0
0
0
0
0
0
0
0
0
0
0
0
0
0
0
0
0
0
0
0
0
0
0
0
0
0
0
0
0
0
0
0
0
0
0
0
0
0
0
0
0
0
0
0
0
0
0
0
0
0
0
0
0
0
0
0
0
0
0
0
0
0
0
0
0
0
0
0
0
0
0
0
0
0
0
0
0
0
0
0
0
0
0
0
0
0
0
0
0
0
0
0
0
0
0
0
0
0
0
0
0
0
0
0
0
0
0
0
0
0
0
0
0
0
0
0
0
0
0
0
0
0
0
0
0
0
0
0
0
0
0
0
0
0
0
0
0
0
0
0
0
0
0
0
0
0
0
0
0
0
0
0
0
0
0
0
0
0
0
0
0
0
0
0
0
0
0
0
0
0
0
0
0
0
0
0
0
0
0
0
0
0
0
0
0
0
0
0
0
0
0
0
0
0
0
0
0
0
0
0
0
0
0
0
0
0
0
0
0
0
0
0
0
0
0
0
0
0
0
0
0
0
0
0
0
0
0
0
0
0
0
0
0
0
0
0
0
0
0
0
0
0
0
0
0
0
0
0
0
0
0
0
0
0
0
0
0
0
0
0
0
0
0
0
0
0
0
0
0
0
0
0
0
0
0
0
0
0
0
0
0
0
0
0
0
0
0
0
0
0
0
0
0
0
0
0
0
0
0
0
0
0
0
0
0
0
0
0
0
0
0
0
0
0
0
0
0
0
0
0
0
0
0
0
0
0
0
0
0
0
0
0
0
0
0
0
0
0
0
0
0
0
0
0
0
0
0
0
0
0
0
0
0
0
0
0
0
0
0
0
0
0
0
0
0
0
0
0
0
0
0
0
0
0
0
0
0
0
0
0
0
0
0
0
0
0
0
0
0
0
0
0
0
0
0
0
0
0
0
0
0
0
0
0
0
0
0
0
0
0
0
0
0
0
0
0
0
0
0
0
0
0
0
0
0
0
0
0
0
0
0
0
0
0
0
0
0
0
0
0
0
0
0
0
0
0
0
0
0
0
0
0
0
0
0
0
0
0
0
0
0
0
0
0
0
0
0
0
0
0
0
0
0
0
0
0
0
0
0
0
0
0
0
0
0
0
0
0
0
0
0
0
0
0
0
0
0
0
0
0
0
0
0
0
0
0
0
0
0
0
0
0
0
0
0
0
0
0
0
0
0
0
0
0
0
0
0
0
0
0
0
0
0
0
0
0
0
0
0
0
0
0
0
0
0
0
0
0
0
0
0
0
0
0
0
0
0
0
0
0
0
0
0
0
0
0
0
0
0
0
0
0
0
0
0
0
0
0
0
0
0
0
0
0
0
0
0
0
0
0
0
0
0
0
0
0
0
0
0
0
0
0
0
0
0
0
0
0
0
0
0
0
0
0
0
0
0
0
0
0
0
0
0
0
0
0
0
0
0
0
0
0
0
0
0
0
0
0
0
0
0
0
0
0
0
0
0
0
0
0
0
0
0
0
0
0
0
0
0
0
0
0
0
0
0
0
0
0
0
0
0
0
0
0
0
0
0
0
0
0
0
0
0
0
0
0
0
0
0
0
0
0
0
0
0
0
0
0
0
0
0
0
0
0
0
0
0
0
0
0
0
0
0
0
0
0
0
0
0
0
0
0
0
0
0
0
0
0
0
0
0
0
0
0
0
0
0
0
0
0
0
0
0
0
0
0
0
0
0
0
0
0
0
0
0
0
0
0
0
0
0
0
0
0
0
0
0
0
0
0
0
0
0
0
0
0
0
0
0
0
0
0
0
0
0
0
0
0
0
0
0
0
0
0
0
0
0
0
0
0
0
0
0
0
0
0
0
0
0
0
0
0
0
0
0
0
0
0
0
0
0
0
0
0
0
0
0
0
0
0
0
0
0
0
0
0
0
0
0
0
0
0
0
0
0
0
0
0
0
0
0
0
0
0
0
0
0
0
0
0
0
0
0
0
0
0
0
0
0
0
0
0
0
0
0
0
0
0
0
0
0
0
0
0
0
0
0
0
0
0
0
0
0
0
0
0
0
0
0
0
0
0
0
0
0
0
0
0
0
0
0
0
0
0
0
0
0
0
0
0
0
0
0
0
0
0
0
0
0
0
0
0
0
0
0
0
0
0
0
0
0
0
0
0
0
0
0
0
0
0
0
0
0
0
0
0
0
0
0
0
0
0
0
0
0
0
0
0
0
0
0
0
0
0
0
0
0
0
0
0
0
0
0
0
0
0
0
0
0
0
0
0
0
0
0
0
0
0
0
0
0
0
0
0
0
0
0
0
0
0
0
0
0
0
0
0
0
0
0
0
0
0
0
0
0
0
0
0
0
0
0
0
0
0
0
0
0
0
0
0
0
0
0
0
0
0
0
0
0
0
0
0
0
0
0
0
0
0
0
0
0
0
0
0
0
0
0
0
0
0
0
0
0
0
0
0
0
0
0
0
0
0
0
0
0
0
0
0
0
0
0
0
0
0
0
0
0
0
0
0
0
0
0
0
0
0
0
0
0
0
0
0
0
0
0
0
0
0
0
0
0
0
0
0
0
0
0
0
0
0
0
0
0
0
0
0
0
0
0
0
0
0
0
0
0
0
0
0
0
0
0
0
0
0
0
0
0
0
0
0
0
0
0
0
0
0
0
0
0
0
0
0
0
0
0
0
0
0
0
0
0
0
0
0
0
0
0
0
0
0
0
0
0
0
0
0
0
0
0
0
0
0
0
0
0
0
0
0
0
0
0
0
0
0
0
0
0
0
0
0
0
0
0
0
0
0
0
0
0
0
0
0
0
0
0
0
0
0
0
0
0
0
0
0
0
0
0
0
0
0
0
0
0
0
0
0
0
0
0
0
0
0
0
0
0
0
0
0
0
0
0
0
0
0
0
0
0
0
0
0
0
0
0
0
0
0
0
0
0
0
0
0
0
0
0
0
0
0
0
0
0
0
0
0
0
0
0
0
0
0
0
0
0
0
0
0
0
0
0
0
0
0
0
0
0
0
0
0
0
0
0
0
0
0
0
0
0
0
0
0
0
0
0
0
0
0
0
0
0
0
0
0
0
0
0
0
0
0
0
0
0
0
0
0
0
0
0
0
0
0
0
0
0
0
0
0
0
0
0
0
0
0
0
0
0
0
0
0
0
0
0
0
0
0
0
0
0
0
0
0
0
0
0
0
0
0
0
0
0
0
0
0
0
0
0
0
0
0
0
0
0
0
0
0
0
0
0
0
0
0
0
0
0
0
0
0
0
0
0
0
0
0
0
0
0
0
0
0
0
0
0
0
0
0
0
0
0
0
0
0
0
0
0
0
0
0
0
0
0
0
0
0
0
0
0
0
0
0
0
0
0
0
0
0
0
0
0
0
0
0
0
0
0
0
0
0
0
0
0
0
0
0
0
0
0
0
0
0
0
0
0
0
0
0
0
0
0
0
0
0
0
0
0
0
0
0
0
0
0
0
0
0
0
0
0
0
0
0
0
0
0
0
0
0
0
0
0
0
0
0
0
0
0
0
0
0
0
0
0
0
0
0
0
0
0
0
0
0
0
0
0
0
0
0
0
0
0
0
0
0
0
0
0
0
0
0
0
0
0
0
0
0
0
0
0
0
0
0
0
0
0
0
0
0
0
0
0
0
0
0
0
0
0
0
0
0
0
0
0
0
0
0
0
0
0
0
0
0
0
0
0
0
0
0
0
0
0
0
0
0
0
0
0
0
0
0
0
0
0
0
0
0
0
0
0
0
0
0
0
0
0
0
0
0
0
0
0
0
0
0
0
0
0
0
0
0
0
0
0
0
0
0
0
0
0
0
0
0
0
0
0
0
0
0
0
0
0
0
0
0
0
0
0
0
0
0
0
0
0
0
0
0
0
0
0
0
0
0
0
0
0
0
0
0
0
0
0
0
0
0
0
0
0
0
0
0
0
0
0
0
0
0
0
0
0
0
0
0
0
0
0
0
0
0
0
0
0
0
0
0
0
0
0
0
0
0
0
0
0
0
0
0
0
0
0
0
0
0
0
0
0
0
0
0
0
0
0
0
0
0
0
0
0
0
0
0
0
0
0
0
0
0
0
0
0
0
0
0
0
0
0
0
0
0
0
0
0
0
0
0
0
0
0
0
0
0
0
0
0
0
0
0
0
0
0
0
0
0
0
0
0
0
0
0
0
0
0
0
0
0
0
0
0
0
0
0
0
0
0
0
0
0
0
0
0
0
0
0
0
0
0
0
0
0
0
0
0
0
0
0
0
0
0
0
0
0
0
0
0
0
0
0
0
0
0
0
0
0
0
0
0
0
0
0
0
0
0
0
0
0
0
0
0
0
0
0
0
0
0
0
0
0
0
0
0
0
0
0
0
0
0
0
0
0
0
0
0
0
0
0
0
0
0
0
0
0
0
0
0
0
0
0
0
0
0
0
0
0
0
0
0
0
0
0
0
0
0
0
0
0
0
0
0
0
0
0
0
0
0
0
0
0
0
0
0
0
0
0
0
0
0
0
0
0
0
0
0
0
0
0
0
0
0
0
0
0
0
0
0
0
0
0
0
0
0
0
0
0
0
0
0
0
0
0
0
0
0
0
0
0
0
0
0
0
0
0
0
0
0
0
0
0
0
0
0
0
0
0
0
0
0
0
0
0
0
0
0
0
0
0
0
0
0
0
0
0
0
0
0
0
0
0
0
0
0
0
0
0
0
0
0
0
0
0
0
0
0
0
0
0
0
0
0
0
0
0
0
0
0
0
0
0
0
0
0
0
0
0
0
0
0
0
0
0
0
0
0
0
0
0
0
0
0
0
0
0
0
0
0
0
0
0
0
0
0
0
0
0
0
0
0
0
0
0
0
0
0
0
0
0
0
0
0
0
0
0
0
0
0
0
0
0
0
0
0
0
0
0
0
0
0
0
0
0
0
0
0
0
0
0
0
0
0
0
0
0
0
0
0
0
0
0
0
0
0
0
0
0
0
0
0
0
0
0
0
0
0
0
0
0
0
0
0
0
0
0
0
0
0
0
0
0
0
0
0
0
0
0
0
0
0
0
0
0
0
0
0
0
0
0
0
0
0
0
0
0
0
0
0
0
0
0
0
0
0
0
0
0
0
0
0
0
0
0
0
0
0
0
0
0
0
0
0
0
0
0
0
0
0
0
0
0
0
0
0
0
0
0
0
0
0
0
0
0
0
0
0
0
0
0
0
0
0
0
0
0
0
0
0
0
0
0
0
0
0
0
0
0
0
0
0
0
0
0
0
0
0
0
0
0
0
0
0
0
0
0
0
0
0
0
0
0
0
0
0
0
0
0
0
0
0
0
0
0
0
0
0
0
0
0
0
0
0
0
0
0
0
0
0
0
0
0
0
0
0
0
0
0
0
0
0
0
0
0
0
0
0
0
0
0
0
0
0
0
0
0
0
0
0
0
0
0
0
0
0
0
0
0
0
0
0
0
0
0
0
0
0
0
0
0
0
0
0
0
0
0
0
0
0
0
0
0
0
0
0
0
0
0
0
0
0
0
0
0
0
0
0
0
0
0
0
0
0
0
0
0
0
0
0
0
0
0
0
0
0
0
0
0
0
0
0
0
0
0
0
0
0
0
0
0
0
0
0
0
0
0
0
0
0
0
0
0
0
0
0
0
0
0
0
0
0
0
0
0
0
0
0
0
0
0
0
0
0
0
0
0
0
0
0
0
0
0
0
0
0
0
0
0
0
0
0
0
0
0
0
0
0
0
0
0
0
0
0
0
0
0
0
0
0
0
0
0
0
0
0
0
0
0
0
0
0
0
0
0
0
0
0
0
0
0
0
0
0
0
0
0
0
0
0
0
0
0
0
0
0
0
0
0
0
0
0
0
0
0
0
0
0
0
0
0
0
0
0
0
0
0
0
0
0
0
0
0
0
0
0
0
0
0
0
0
0
0
0
0
0
0
0
0
0
0
0
0
0
0
0
0
0
0
0
0
0
0
0
0
0
0
0
0
0
0
0
0
0
0
0
0
0
0
0
0
0
0
0
0
0
0
0
0
0
0
0
0
0
0
0
0
0
0
0
0
0
0
0
0
0
0
0
0
0
0
0
0
0
0
0
0
0
0
0
0
0
0
0
0
0
0
0
0
0
0
0
0
0
0
0
0
0
0
0
0
0
0
0
0
0
0
0
0
0
0
0
0
0
0
0
0
0
0
0
0
0
0
0
0
0
0
0
0
0
0
0
0
0
0
0
0
0
0
0
0
0
0
0
0
0
0
0
0
0
0
0
0
0
0
0
0
0
0
0
0
0
0
0
0
0
0
0
0
0
0
0
0
0
0
0
0
0
0
0
0
0
0
0
0
0
0
0
0
0
0
0
0
0
0
0
0
0
0
0
0
0
0
0
0
0
0
0
0
0
0
0
0
0
0
0
0
0
0
0
0
0
0
0
0
0
0
0
0
0
0
0
0
0
0
0
0
0
0
0
0
0
0
0
0
0
0
0
0
0
0
0
0
0
0
0
0
0
0
0
0
0
0
0
0
0
0
0
0
0
0
0
0
0
0
0
0
0
0
0
0
0
0
0
0
0
0
0
0
0
0
0
0
0
0
0
0
0
0
0
0
0
0
0
0
0
0
0
0
0
0
0
0
0
0
0
0
0
0
0
0
0
0
0
0
0
0
0
0
0
0
0
0
0
0
0
0
0
0
0
0
0
0
0
0
0
0
0
0
0
0
0
0
0
0
0
0
0
0
0
0
0
0
0
0
0
0
0
0
0
0
0
0
0
0
0
0
0
0
0
0
0
0
0
0
0
0
0
0
0
0
0
0
0
0
0
0
0
0
0
0
0
0
0
0
0
0
0
0
0
0
0
0
0
0
0
0
0
0
0
0
0
0
0
0
0
0
0
0
0
0
0
0
0
0
0
0
0
0
0
0
0
0
0
0
0
0
0
0
0
0
0
0
0
0
0
0
0
0
0
0
0
0
0
0
0
0
0
0
0
0
0
0
0
0
0
0
0
0
0
0
0
0
0
0
0
0
0
0
0
0
0
0
0
0
0
0
0
0
0
0
0
0
0
0
0
0
0
0
0
0
0
0
0
0
0
0
0
0
0
0
0
0
0
0
0
0
0
0
0
0
0
0
0
0
0
0
0
0
0
0
0
0
0
0
0
0
0
0
0
0
0
0
0
0
0
0
0
0
0
0
0
0
0
0
0
0
0
0
0
0
0
0
0
0
0
0
0
0
0
0
0
0
0
0
0
0
0
0
0
0
0
0
0
0
0
0
0
0
0
0
0
0
0
0
0
0
0
0
0
0
0
0
0
0
0
0
0
0
0
0
0
0
0
0
0
0
0
0
0
0
0
0
