-0.401262
0.284395
0.902027
1.42237
1.78378
1.82895
1.83729
1.83925
1.83828
1.83772
1.84012
1.84677
1.85727
1.87128
1.88857
1.90925
1.93379
1.96267
1.99597
2.03298
2.07206
2.11057
2.14576
2.17554
2.19913
2.2172
2.23159
2.2446
2.25823
2.27367
2.29124
2.31053
2.33143
2.3551
2.38468
2.42522
2.48302
2.56421
2.67337
2.81065
2.97148
3.1509
3.34395
3.54474
3.74698
3.94388
4.12804
4.29273
4.4327
4.54398
4.62408
4.67204
4.68765
4.67121
4.62334
4.5449
4.43685
4.30009
4.1353
3.94379
3.72861
3.49363
3.24203
2.97719
2.70412
2.4294
2.16075
1.9062
1.67322
1.46939
1.30374
1.18163
1.09582
1.03551
0.989458
0.948997
0.909869
0.872384
0.839979
0.816895
0.805779
0.804628
0.811735
0.824365
0.839768
0.856075
0.872741
0.890419
0.910371
0.933727
0.960719
0.990647
1.02252
1.05529
1.08803
1.12018
1.15163
1.18266
1.21371
1.24509
1.27673
1.30782
1.33635
1.35965
1.37516
1.38133
1.37839
1.36853
1.35529
1.34246
1.33274
1.3268
1.32318
1.31896
1.3109
1.29661
1.27523
1.24753
1.21546
1.18151
1.1481
1.11688
1.08934
1.06672
1.04998
1.03974
1.03616
1.03896
1.04732
1.06002
1.07555
1.09236
1.10902
1.12444
1.13799
1.14944
1.15899
1.16717
1.17479
1.18277
1.19197
1.2031
1.21651
1.23199
1.2486
1.26466
1.27794
1.28619
1.28759
1.28129
1.26767
1.24835
1.22594
1.20344
1.18355
1.16804
1.15738
1.1509
1.14713
1.14439
1.14127
1.13696
1.13117
1.12389
1.115
1.10416
1.0908
1.07416
1.0537
1.02933
1.00161
0.971711
0.941238
0.911871
0.884953
0.861404
0.841571
0.824933
0.810505
0.797319
0.78489
0.773516
0.764309
0.758944
0.759188
0.766404
0.780778
0.801943
0.828877
0.860119
0.894098
0.929442
0.965182
1.00065
1.03527
1.06817
1.09757
1.12037
1.13282
1.13083
1.11096
1.07141
1.01265
0.937432
0.850162
0.755897
0.659441
0.564051
0.47156
0.383292
0.30044
0.224348
0.155808
0.0954506
0.0435879
0
-0.0168682
0.141631
0.423319
0.885687
1.6981
2.93922
4.42505
5.67474
6.0974
5.31145
3.39139
0.866771
-1.53349
-3.22169
-3.96589
-3.88192
-3.2674
-2.42596
-1.5817
-0.879597
-0.40531
-0.179962
-0.126115
-0.037212
0.0540035
0.144638
0.232171
0.313692
0.386281
0.447445
0.495378
0.529102
0.549159
0.557301
0.556382
0.550105
0.542615
0.537917
0.539242
0.548512
0.56547
0.588933
0.617216
0.648275
0.680174
0.711533
0.741792
0.771444
0.802113
0.836479
0.878022
0.930532
0.997425
1.08097
1.18162
1.29703
1.42554
1.56172
1.69923
1.83284
1.95952
2.0788
2.19222
2.30215
2.41055
2.51795
2.6234
2.72468
2.81885
2.90209
2.96896
3.01423
3.03387
3.024
2.98125
2.90353
2.79079
2.64545
2.47241
2.27851
2.073
1.86426
1.65829
1.46034
1.27479
1.10493
0.952858
0.819317
0.703821
0.604992
0.520972
0.449799
0.389651
0.338898
0.295995
0.259391
0.227016
0.19597
0.16316
0.126081
0.0836449
0.0368456
-0.0110476
-0.0549089
-0.0887747
-0.100548
-0.0712666
-0.00970058
0.0620049
0.118383
0.14182
0.129692
0.0940426
0.0545527
0.0291096
0.0272528
0.0410133
0.0639372
0.0943884
0.131327
0.174232
0.222861
0.276765
0.334811
0.39492
0.45412
0.508871
0.555774
0.592198
0.616716
0.62924
0.630843
0.623384
0.609057
0.590109
0.568484
0.545549
0.522216
0.499099
0.476623
0.455119
0.434907
0.416336
0.39977
0.385499
0.373673
0.364151
0.356279
0.349032
0.341288
0.33214
0.321177
0.308606
0.295163
0.281855
0.269604
0.258896
0.249728
0.241772
0.23453
0.227642
0.221155
0.215725
0.212718
0.213912
0.221132
0.235789
0.258478
0.288771
0.32525
0.365792
0.407998
0.449664
0.489263
0.526058
0.559905
0.591254
0.621002
0.650304
0.680371
0.712284
0.746811
0.784236
0.824117
0.864903
0.903358
0.934447
0.95232
0.951058
0.92577
0.873695
0.79509
0.693656
0.576329
0.452424
0.33208
0.22315
0.132239
0.0634815
0.0181718
-0.00506668
-0.00963173
0
0.0275947
0.0608724
0.0968285
0.134252
0.173345
0.355852
0.766554
1.50541
2.59508
3.88824
5.0344
5.57417
5.14469
3.69079
1.54342
-0.702402
-2.44983
-3.3508
-3.40582
-2.88034
-2.11788
-1.37313
-0.749167
-0.239603
0.184312
0.459196
0.503347
0.517775
0.523195
0.522608
0.519648
0.517663
0.518901
0.523549
0.530868
0.540044
0.550171
0.560635
0.571377
0.582965
0.596486
0.613283
0.634645
0.661479
0.694189
0.732863
0.777377
0.827609
0.88369
0.946135
1.01579
1.09362
1.18038
1.27627
1.38082
1.49283
1.61063
1.73264
1.85763
1.98497
2.11462
2.24692
2.38221
2.52047
2.66103
2.80257
2.94318
3.08059
3.2125
3.33648
3.44937
3.54612
3.6204
3.66648
3.67714
3.64541
3.56696
3.44204
3.27577
3.0768
2.85486
2.62011
2.38035
2.13916
1.89891
1.66184
1.4303
1.20687
0.994344
0.795654
0.613726
0.451588
0.312039
0.196903
0.10715
0.042838
0.00309982
-0.0137765
-0.0102026
0.0108793
0.0461423
0.0926231
0.147228
0.205511
0.261367
0.308784
0.342877
0.360809
0.362449
0.350421
0.329445
0.305144
0.282713
0.265318
0.253628
0.247409
0.246247
0.24936
0.25571
0.264132
0.273434
0.282635
0.291088
0.298543
0.305108
0.31109
0.31674
0.321977
0.326154
0.328006
0.325804
0.317703
0.302201
0.278565
0.247124
0.209334
0.167612
0.124978
0.0845467
0.048942
0.0201051
-0.000793839
-0.0134851
-0.0182873
-0.0161791
-0.00939341
-0.000346184
0.00899696
0.0175284
0.025138
0.0325248
0.0407365
0.0506096
0.0623308
0.0752923
0.0883041
0.100066
0.109706
0.117182
0.123409
0.130089
0.139323
0.152979
0.17221
0.197451
0.228496
0.264532
0.303757
0.342281
0.374322
0.39382
0.395751
0.37748
0.339673
0.286364
0.224067
0.160162
0.101091
0.0494999
0.00525017
-0.0319561
-0.0632973
-0.090482
-0.115256
-0.138954
-0.162164
-0.184535
-0.204755
-0.220681
-0.229521
-0.227202
-0.205378
-0.146056
-0.0282969
0.130883
0.288256
0.398999
0.430235
0.371416
0.238762
0.0713121
-0.0818396
-0.180426
-0.229659
-0.254947
-0.269235
-0.277037
-0.281196
-0.283836
-0.286234
-0.288896
-0.291788
-0.294612
-0.296379
-0.231046
0
0.558672
1.55674
2.93601
4.39374
5.44226
5.60763
4.66834
2.78932
0.461297
-1.71828
-3.28928
-4.06655
-4.12592
-3.69077
-3.0085
-2.27558
-1.62069
-1.11812
-0.806722
-0.751603
-0.740101
-0.731249
-0.721785
-0.710074
-0.695349
-0.677857
-0.65841
-0.63782
-0.61639
-0.593655
-0.568485
-0.539497
-0.50559
-0.466484
-0.422947
-0.376029
-0.326829
-0.276284
-0.224925
-0.17283
-0.119782
-0.0655371
-0.010074
0.0463308
0.103069
0.159599
0.215865
0.272638
0.331619
0.395254
0.466301
0.547295
0.640031
0.74471
0.860622
0.986433
1.12002
1.25856
1.39882
1.53714
1.66991
1.79397
1.90691
2.00714
2.09337
2.16116
2.20597
2.22424
2.2111
2.16162
2.07263
1.94418
1.7801
1.58747
1.37524
1.15415
0.932009
0.713981
0.504623
0.307926
0.127298
-0.0345371
-0.17572
-0.295441
-0.394088
-0.473345
-0.536094
-0.58611
-0.627517
-0.664156
-0.699045
-0.733971
-0.769324
-0.804181
-0.836582
-0.864104
-0.884461
-0.896053
-0.898311
-0.891823
-0.878231
-0.859959
-0.839754
-0.820689
-0.805553
-0.796513
-0.79493
-0.801326
-0.815466
-0.836534
-0.863346
-0.894543
-0.928596
-0.964081
-0.99977
-1.03449
-1.06713
-1.09666
-1.12213
-1.14271
-1.15761
-1.16607
-1.16745
-1.16121
-1.147
-1.12483
-1.09518
-1.05904
-1.01782
-0.973254
-0.927132
-0.881052
-0.836229
-0.793446
-0.753096
-0.715313
-0.680178
-0.647885
-0.618712
-0.592928
-0.570701
-0.551898
-0.535949
-0.521847
-0.508301
-0.494036
-0.478145
-0.46046
-0.441611
-0.423256
-0.408208
-0.399814
-0.401345
-0.415283
-0.442697
-0.482837
-0.53308
-0.589255
-0.646325
-0.699389
-0.745113
-0.781499
-0.807208
-0.822733
-0.830573
-0.834316
-0.837918
-0.845032
-0.85847
-0.879837
-0.909341
-0.945755
-0.986461
-1.02768
-1.06306
-1.08539
-1.08773
-1.06479
-1.01423
-0.937511
-0.834203
-0.713448
-0.595885
-0.501599
-0.444737
-0.429709
-0.450148
-0.491056
-0.533565
-0.560756
-0.564503
-0.55017
-0.524449
-0.491064
-0.453669
-0.41606
-0.381298
-0.351332
-0.32695
-0.308025
-0.293937
-0.284162
-0.278243
-0.275985
-0.277217
-0.281431
-0.287505
-0.293666
-0.297732
-0.297567
-0.291713
-0.280136
-0.263408
-0.242727
-0.220158
-0.198743
-0.181968
-0.173133
-0.174804
-0.188314
-0.213398
-0.248071
-0.28895
-0.331427
-0.370228
-0.400542
-0.418756
-0.4229
-0.412717
-0.389415
-0.355212
-0.31282
-0.265211
-0.213995
-0.156408
0
0.436031
1.33192
2.71065
4.29834
5.55336
5.896
5.01805
3.07733
0.644806
-1.56612
-3.02112
-3.55471
-3.34612
-2.73937
-2.04452
-1.43267
-0.952214
-0.608029
-0.496047
-0.468179
-0.44527
-0.419979
-0.387621
-0.344544
-0.28531
-0.208543
-0.124557
-0.0486633
0.00508881
0.0290562
0.0249947
0.00363617
-0.0190979
-0.0277412
-0.01227
0.0239697
0.0734547
0.131879
0.197104
0.267447
0.341816
0.419741
0.50127
0.586802
0.676866
0.772088
0.873033
0.980086
1.09334
1.21252
1.3369
1.46535
1.59639
1.72829
1.85918
1.98718
2.11046
2.22699
2.33499
2.43372
2.52343
2.60556
2.68271
2.75831
2.83718
2.92745
3.02608
3.11533
3.16994
3.16787
3.09971
2.97195
2.80267
2.61261
2.41634
2.21882
2.02035
1.82081
1.62053
1.4209
1.2246
1.03543
0.857803
0.696017
0.553534
0.432506
0.33343
0.254989
0.19463
0.149169
0.115626
0.0916134
0.0752941
0.065741
0.0627815
0.0666737
0.0777599
0.0961956
0.121811
0.154103
0.192353
0.235708
0.283531
0.335555
0.391841
0.452667
0.518286
0.588618
0.66297
0.739907
0.817335
0.89278
0.963857
1.02871
1.08635
1.1367
1.18043
1.21865
1.25253
1.28302
1.31068
1.33569
1.35806
1.37777
1.39488
1.40954
1.42198
1.43231
1.44043
1.446
1.44841
1.44704
1.44145
1.43165
1.41828
1.40269
1.38685
1.37313
1.36401
1.36159
1.36734
1.38212
1.40627
1.43941
1.47897
1.5196
1.55549
1.58173
1.59546
1.59651
1.58719
1.57132
1.55282
1.53427
1.51612
1.49737
1.47644
1.45175
1.42231
1.38813
1.3503
1.31077
1.27193
1.23585
1.2038
1.17617
1.15233
1.13048
1.10762
1.07997
1.04366
0.995449
0.933495
0.857868
0.770756
0.67624
0.579659
0.486708
0.402103
0.329707
0.271486
0.227621
0.196735
0.176297
0.163043
0.153324
0.143378
0.129367
0.107968
0.0768246
0.0350105
-0.0166248
-0.0753971
-0.137127
-0.196859
-0.249801
-0.292388
-0.322681
-0.340694
-0.348182
-0.348068
-0.343719
-0.338257
-0.333905
-0.331884
-0.332413
-0.334801
-0.337626
-0.338994
-0.336813
-0.329036
-0.313953
-0.289678
-0.254001
-0.207006
-0.154862
-0.106918
-0.0727409
-0.0596233
-0.0707569
-0.104636
-0.155706
-0.215797
-0.275735
-0.327938
-0.368622
-0.396002
-0.407918
-0.403679
-0.384242
-0.352134
-0.311137
-0.265737
-0.220417
-0.178833
-0.143166
-0.114478
-0.0925144
-0.076273
-0.0683109
0
0.235518
0.791448
1.77672
3.11855
4.48476
5.36531
5.30618
4.16058
2.19247
-0.0378555
-1.93195
-3.09605
-3.44315
-3.13783
-2.459
-1.67402
-0.97121
-0.447412
-0.12399
-0.00754356
0.0116886
0.0241016
0.0345993
0.0446369
0.0556156
0.0688332
0.0853016
0.105589
0.129707
0.157089
0.186663
0.217039
0.24671
0.274353
0.2992
0.321265
0.341453
0.361483
0.383642
0.410403
0.44401
0.486128
0.537544
0.598263
0.667967
0.746248
0.832774
0.927377
1.02995
1.14017
1.25722
1.37953
1.50498
1.63066
1.75361
1.87165
1.98384
2.09062
2.19342
2.29398
2.3935
2.49203
2.58825
2.67955
2.76236
2.83238
2.88482
2.91521
2.91997
2.89581
2.83976
2.74945
2.62372
2.46338
2.27187
2.05551
1.82339
1.58622
1.35358
1.13304
0.931101
0.751897
0.596111
0.462015
0.34637
0.245489
0.15618
0.0765522
0.00587502
-0.0554905
-0.106642
-0.146623
-0.174903
-0.19161
-0.197539
-0.193957
-0.182331
-0.164114
-0.140695
-0.11355
-0.0841721
-0.0541782
-0.0259029
-0.00203094
0.0148384
0.0227421
0.0208622
0.00982666
-0.008321
-0.0304588
-0.0529659
-0.0724262
-0.0864735
-0.093988
-0.0948349
-0.0892647
-0.078392
-0.0647202
-0.0511028
-0.0392597
-0.0289104
-0.0174164
-0.000185776
0.0281425
0.0720154
0.133278
0.213602
0.306475
0.397456
0.471194
0.515967
0.526802
0.506256
0.462914
0.408395
0.353949
0.306954
0.269026
0.23915
0.216024
0.198651
0.186159
0.178197
0.175116
0.177855
0.187606
0.205333
0.231245
0.264625
0.304069
0.346472
0.387107
0.420869
0.443334
0.45156
0.444623
0.423805
0.392386
0.355044
0.316943
0.282608
0.254572
0.234296
0.22052
0.207875
0.190006
0.16206
0.122745
0.075069
0.0253513
-0.0191545
-0.0530567
-0.0748518
-0.0873493
-0.0963945
-0.108497
-0.128362
-0.157218
-0.192386
-0.228039
-0.256752
-0.272462
-0.272765
-0.257387
-0.227295
-0.184673
-0.13238
-0.0745623
-0.0166349
0.035804
0.0778843
0.105983
0.117997
0.113358
0.0928633
0.0584019
0.0126825
-0.0409863
-0.0987436
-0.156621
-0.209651
-0.252893
-0.281947
-0.293548
-0.286105
-0.260037
-0.217778
-0.163454
-0.0952454
0
0.241834
0.792319
1.7409
2.99822
4.2575
5.07084
5.03294
3.98478
2.11956
-0.0804724
-2.04719
-3.35753
-3.87082
-3.71786
-3.17804
-2.53209
-1.96554
-1.54801
-1.26505
-1.06816
-0.920188
-0.793279
-0.67651
-0.567555
-0.465934
-0.371717
-0.285039
-0.205836
-0.133935
-0.0691217
-0.0110502
0.0408096
0.0872702
0.129488
0.168951
0.207372
0.246514
0.287986
0.333052
0.382494
0.436581
0.495086
0.557373
0.622535
0.689561
0.757533
0.825828
0.8943
0.963406
1.03423
1.10835
1.18759
1.27366
1.36767
1.46987
1.5794
1.6944
1.8123
1.93023
2.04559
2.15643
2.26161
2.3603
2.45102
2.53186
2.60104
2.6554
2.69071
2.70254
2.6871
2.64174
2.56506
2.45697
2.31884
2.15661
1.97708
1.78646
1.59073
1.39562
1.20627
1.02728
0.862337
0.714022
0.583792
0.472037
0.378224
0.30106
0.238712
0.188852
0.148635
0.115083
0.0854345
0.0574539
0.0296696
0.00147781
-0.0269314
-0.0548151
-0.0812323
-0.10545
-0.127162
-0.146623
-0.164698
-0.182555
-0.20132
-0.22173
-0.243917
-0.267373
-0.29113
-0.314069
-0.335253
-0.354111
-0.370528
-0.384682
-0.396675
-0.406175
-0.412089
-0.41279
-0.406392
-0.391306
-0.366789
-0.333292
-0.292475
-0.246907
-0.199545
-0.153154
-0.109695
-0.0705702
-0.0363178
-0.00675602
0.0188599
0.04163
0.0627724
0.0833742
0.104161
0.125358
0.146555
0.166797
0.184954
0.200138
0.212049
0.221091
0.228194
0.234383
0.240246
0.245478
0.248647
0.247441
0.239279
0.222124
0.1952
0.15938
0.117086
0.0717432
0.0269663
-0.0143955
-0.0507425
-0.0813427
-0.106268
-0.126001
-0.141053
-0.151791
-0.158523
-0.161809
-0.16258
-0.163178
-0.167118
-0.17822
-0.199553
-0.232411
-0.275725
-0.326159
-0.378887
-0.428802
-0.472026
-0.507251
-0.533767
-0.552028
-0.563254
-0.568954
-0.570566
-0.569246
-0.565785
-0.560668
-0.554037
-0.545675
-0.53501
-0.521239
-0.503572
-0.481587
-0.454869
-0.424595
-0.392847
-0.361605
-0.331806
-0.302746
-0.27217
-0.237086
-0.195004
-0.145121
-0.089221
-0.0309078
0.0242146
0.0698126
0.100106
0.110856
0.100059
0.0683399
0.0190474
-0.0419693
-0.106975
-0.167392
-0.215662
-0.246922
-0.248141
-0.216856
-0.169916
-0.129792
-0.116357
-0.139942
-0.198498
-0.279466
-0.364717
-0.352537
0
0.558115
1.33846
2.37659
3.62891
4.86826
5.6866
5.65787
4.58162
2.6454
0.381984
-1.56971
-2.75143
-3.04667
-2.64404
-1.86714
-1.00771
-0.252775
0.300365
0.590486
0.586145
0.587002
0.593014
0.606993
0.630151
0.661997
0.699914
0.738774
0.773084
0.798557
0.813339
0.818492
0.817624
0.815799
0.818132
0.828519
0.848069
0.875821
0.910418
0.950695
0.995523
1.04396
1.09535
1.1493
1.20559
1.26413
1.32492
1.38813
1.45422
1.52395
1.5985
1.67931
1.76795
1.8657
1.97331
2.09054
2.21602
2.34729
2.48108
2.6137
2.74189
2.86355
2.9783
3.08702
3.19172
3.31203
3.49418
3.71416
3.89855
3.97164
3.90068
3.71225
3.47219
3.24473
3.05722
2.88316
2.70498
2.52
2.32695
2.12506
1.91512
1.69971
1.48299
1.27029
1.06815
0.884046
0.724432
0.593251
0.49213
0.420253
0.374579
0.350343
0.341764
0.342842
0.348073
0.353001
0.354799
0.351914
0.343496
0.329413
0.310145
0.28673
0.260637
0.234059
0.21021
0.192699
0.184936
0.189418
0.207068
0.236845
0.275774
0.319441
0.362806
0.401283
0.432045
0.452995
0.463196
0.46281
0.452866
0.435006
0.411349
0.384058
0.355081
0.32601
0.297822
0.270718
0.24386
0.215405
0.183109
0.145168
0.10107
0.0522274
0.00209599
-0.0443157
-0.0814901
-0.102568
-0.0969442
-0.0661449
-0.0231466
0.0153221
0.0348402
0.0280466
-0.00356674
-0.0509291
-0.10068
-0.139074
-0.158899
-0.160172
-0.144968
-0.115809
-0.0751491
-0.0258624
0.0273175
0.0777147
0.119062
0.146879
0.159231
0.156903
0.142876
0.121265
0.0960796
0.0703135
0.0455646
0.0224428
0.00148134
-0.0166171
-0.030899
-0.0403818
-0.0444485
-0.0432651
-0.0382882
-0.0310895
-0.0234698
-0.0173214
-0.014398
-0.0161543
-0.0236601
-0.0375635
-0.0580641
-0.0848597
-0.117067
-0.153209
-0.191167
-0.227437
-0.257753
-0.278086
-0.28558
-0.279339
-0.260774
-0.233277
-0.201299
-0.169115
-0.139744
-0.11442
-0.0928086
-0.0737833
-0.0563767
-0.0404488
-0.026776
-0.0165456
-0.0105313
-0.00836058
-0.00823736
-0.00728369
-0.00240145
0.00866404
0.0260768
0.0490181
0.0743894
0.0983501
0.117609
0.13055
0.137813
0.142136
0.147553
0.158255
0.177265
0.205174
0.241519
0.285337
0.335034
0.388087
0.439027
0.479463
0.500264
0.493112
0.45318
0.38174
0.28722
0.183731
0.0873451
0.0114921
-0.0433901
-0.0827461
-0.108668
-0.123868
-0.131771
-0.135796
-0.138763
-0.142451
-0.147531
-0.1537
-0.16006
-0.158623
0
0.381089
1.14341
2.3744
3.94392
5.44275
6.30078
6.05882
4.63325
2.39381
-0.00727115
-1.94583
-3.07813
-3.39977
-3.12633
-2.52102
-1.79052
-1.07555
-0.48178
-0.0871929
0.0596449
0.0654749
0.0650899
0.0624964
0.0572788
0.0485382
0.035305
0.0168847
-0.00668573
-0.0342346
-0.0633906
-0.0898099
-0.108073
-0.112939
-0.100645
-0.0699882
-0.0228416
0.0360948
0.100275
0.162769
0.218183
0.263194
0.297223
0.322374
0.34283
0.363898
0.390991
0.428401
0.478676
0.543267
0.623141
0.718862
0.830458
0.957318
1.09805
1.25029
1.41073
1.57524
1.73931
1.89865
2.04974
2.19023
2.319
2.43518
2.53811
2.62749
2.70282
2.76249
2.80356
2.82262
2.81601
2.78065
2.71459
2.61742
2.49029
2.33566
2.15669
1.95699
1.74151
1.51545
1.28277
1.04726
0.81366
0.587626
0.37523
0.182466
0.0161807
-0.115124
-0.206064
-0.262477
-0.295826
-0.318501
-0.340521
-0.3672
-0.398368
-0.429256
-0.452642
-0.461537
-0.453765
-0.431577
-0.398298
-0.356925
-0.311945
-0.268076
-0.229475
-0.199121
-0.178489
-0.167512
-0.164802
-0.168034
-0.174365
-0.181031
-0.185718
-0.186752
-0.183256
-0.175251
-0.16339
-0.148656
-0.132251
-0.115456
-0.0995521
-0.0856688
-0.0747023
-0.0672824
-0.0637664
-0.0642539
-0.0686076
-0.0764839
-0.0872193
-0.0997923
-0.112763
-0.12425
-0.132133
-0.134463
-0.129965
-0.117386
-0.0977051
-0.0746788
-0.0528266
-0.0358895
-0.0254954
-0.0205731
-0.0177349
-0.012451
-0.00053978
0.0197418
0.0475269
0.0812812
0.11908
0.15843
0.19646
0.230485
0.258437
0.279109
0.292243
0.298456
0.299026
0.295584
0.289795
0.283102
0.276591
0.27097
0.266682
0.263978
0.262946
0.263461
0.265175
0.267214
0.268196
0.266528
0.260778
0.250087
0.234434
0.214643
0.192099
0.168242
0.144041
0.119634
0.0943513
0.0669886
0.0363044
0.00162272
-0.0370526
-0.0778314
-0.11681
-0.149231
-0.170602
-0.177745
-0.169436
-0.146451
-0.111097
-0.0664097
-0.0155805
0.0388013
0.0952122
0.152843
0.211209
0.269854
0.328117
0.385013
0.439227
0.489136
0.532756
0.567945
0.593368
0.608313
0.612873
0.608019
0.595512
0.577612
0.556584
0.534115
0.510784
0.485876
0.457375
0.422524
0.378492
0.323193
0.255986
0.178075
0.0925172
0
0.0119474
0.299012
0.822751
1.58956
2.5968
3.75814
4.83009
5.4371
5.22453
4.06331
2.16805
0.0344876
-1.77677
-2.88016
-3.1931
-2.89881
-2.29915
-1.65926
-1.12223
-0.71016
-0.376971
-0.074868
0.145797
0.297086
0.416363
0.514739
0.592408
0.651266
0.695342
0.729949
0.760551
0.791614
0.825661
0.862975
0.902457
0.942264
0.980326
1.01497
1.04539
1.07178
1.09524
1.11742
1.14007
1.16458
1.19177
1.22196
1.2549
1.29028
1.32805
1.36873
1.41344
1.46375
1.52138
1.58789
1.66415
1.75047
1.84701
1.95369
2.07023
2.19602
2.33007
2.47075
2.61563
2.76148
2.90429
3.03964
3.16329
3.27159
3.36171
3.43169
3.47873
3.49997
3.49419
3.46015
3.39691
3.30432
3.18347
3.03692
2.86845
2.68264
2.48518
2.28131
2.07505
1.87039
1.67148
1.48261
1.30814
1.15193
1.0176
0.909253
0.827894
0.769956
0.72979
0.700681
0.675939
0.649792
0.617927
0.577728
0.528296
0.470716
0.407592
0.34191
0.277125
0.21687
0.164384
0.122042
0.091065
0.0714814
0.0623142
0.0619117
0.0682986
0.0792474
0.0929592
0.107859
0.122666
0.136536
0.149202
0.161122
0.173546
0.188468
0.208398
0.235978
0.273329
0.32162
0.382977
0.459142
0.544366
0.626299
0.692248
0.7332
0.746738
0.737545
0.715204
0.690175
0.669707
0.654745
0.642188
0.628984
0.612164
0.589921
0.562088
0.529946
0.495528
0.46079
0.42694
0.394405
0.363429
0.334374
0.307988
0.285518
0.268572
0.258738
0.258223
0.268738
0.288326
0.31178
0.332765
0.345577
0.34672
0.335769
0.315306
0.290043
0.265518
0.246363
0.234899
0.231818
0.236931
0.249498
0.268487
0.292736
0.321057
0.352693
0.38749
0.425878
0.468631
0.516704
0.571839
0.633666
0.695835
0.749337
0.785117
0.796991
0.783595
0.748573
0.699081
0.643428
0.588908
0.539264
0.4954
0.457718
0.426578
0.402243
0.384732
0.373849
0.369208
0.370255
0.376424
0.38708
0.401771
0.420342
0.442949
0.469901
0.501681
0.538826
0.579642
0.616743
0.638912
0.634142
0.593532
0.514935
0.399565
0.264759
0.137692
0.0440573
0
0.00782948
0.0561296
0.125466
0.195597
0.252205
0.295668
0.331355
0.358865
0.39158
0.599556
1.08997
1.965
3.21699
4.62661
5.75666
6.0972
5.3187
3.48515
1.07534
-1.21955
-2.80655
-3.42547
-3.18918
-2.44579
-1.57544
-0.842023
-0.34927
-0.0835905
-0.0477702
-0.0558753
-0.0656482
-0.073483
-0.0765917
-0.0731102
-0.0624241
-0.0455756
-0.0243365
-0.00048418
0.0243969
0.0492155
0.0736189
0.0980411
0.123552
0.151556
0.183381
0.220069
0.262332
0.310012
0.360444
0.408276
0.44808
0.476347
0.493235
0.503342
0.51502
0.538317
0.5822
0.652106
0.744105
0.852106
0.971964
1.10047
1.2346
1.37173
1.50964
1.64639
1.78014
1.90909
2.03159
2.14645
2.25317
2.35218
2.44468
2.53204
2.61548
2.69556
2.76927
2.82841
2.86186
2.85973
2.81666
2.73258
2.61067
2.4543
2.26528
2.05133
1.82177
1.58239
1.33777
1.09345
0.855803
0.631308
0.425822
0.244158
0.0893182
-0.0377383
-0.137787
-0.212945
-0.266168
-0.300731
-0.319811
-0.326204
-0.32223
-0.30983
-0.290628
-0.266126
-0.238013
-0.208232
-0.179037
-0.153102
-0.133343
-0.12212
-0.12098
-0.130257
-0.148818
-0.17408
-0.202381
-0.229678
-0.252455
-0.26873
-0.277494
-0.280545
-0.282403
-0.288309
-0.302506
-0.326755
-0.359583
-0.396506
-0.431213
-0.457342
-0.470692
-0.471553
-0.461147
-0.442427
-0.419541
-0.396798
-0.377693
-0.364222
-0.356627
-0.353571
-0.352655
-0.351097
-0.346404
-0.33706
-0.322662
-0.303565
-0.280626
-0.25512
-0.228747
-0.203392
-0.180646
-0.161505
-0.1462
-0.134196
-0.124382
-0.115418
-0.106107
-0.0956116
-0.0836421
-0.0702335
-0.0553782
-0.038693
-0.0193115
0.0039113
0.0319416
0.065044
0.102372
0.141867
0.181022
0.217028
0.247006
0.268787
0.28126
0.284429
0.279362
0.267981
0.252729
0.236158
0.220516
0.207417
0.197471
0.190621
0.186487
0.18447
0.183981
0.18457
0.185934
0.187801
0.189779
0.191168
0.190998
0.1883
0.182517
0.173897
0.163687
0.15398
0.147208
0.145448
0.14977
0.159787
0.174008
0.19021
0.206127
0.2201
0.231482
0.24068
0.248852
0.257413
0.267423
0.279251
0.292672
0.30654
0.318919
0.327436
0.329656
0.323466
0.307436
0.28112
0.245274
0.201941
0.154098
0.106305
0.0639722
0.0322964
0.0153963
0.0156009
0.0330431
0.0656296
0.109363
0.159115
0.208739
0.251717
0.282678
0.29814
0.296902
0.27999
0.250158
0.211137
0.166929
0.121463
0.0780889
0.0404712
0.0130133
0
0.00361824
0.0283263
0.0748251
0.141363
0.223834
0.31634
0.412457
0.439401
0.536216
0.95665
1.85589
3.22515
4.81628
6.15934
6.71428
6.11563
4.3861
1.97353
-0.43607
-2.23011
-3.12001
-3.18787
-2.73735
-2.08069
-1.40577
-0.778509
-0.221697
0.222979
0.47292
0.480926
0.474053
0.46657
0.460863
0.458661
0.460917
0.467526
0.477931
0.491619
0.508168
0.527427
0.549557
0.574971
0.604217
0.637834
0.676267
0.719898
0.768974
0.823543
0.883383
0.947962
1.01647
1.08796
1.16156
1.23675
1.3136
1.39284
1.4757
1.56366
1.65798
1.75931
1.86742
1.98116
2.09863
2.21752
2.33549
2.45043
2.56076
2.66541
2.76387
2.85613
2.94256
3.02384
3.10074
3.17379
3.24277
3.30601
3.35915
3.39555
3.40631
3.38221
3.31602
3.20473
3.05087
2.86249
2.65172
2.43234
2.21584
2.00739
1.80969
1.62466
1.45303
1.29485
1.15005
1.01922
0.903539
0.80418
0.722192
0.657953
0.611187
0.580625
0.562809
0.553645
0.549173
0.546267
0.543048
0.538916
0.534246
0.529872
0.526533
0.524396
0.522977
0.521231
0.5176
0.51013
0.496792
0.475984
0.446844
0.409593
0.365354
0.316625
0.268293
0.225725
0.19358
0.174712
0.16953
0.176002
0.1903
0.207837
0.224358
0.2372
0.245249
0.248012
0.245778
0.239394
0.230102
0.219302
0.208499
0.199274
0.193217
0.19184
0.196451
0.207999
0.226903
0.252899
0.285067
0.322113
0.361329
0.399303
0.432994
0.460436
0.481176
0.496227
0.507549
0.517216
0.526586
0.535806
0.543927
0.549299
0.550139
0.545077
0.533526
0.515779
0.492898
0.466495
0.438579
0.411142
0.385989
0.364795
0.34898
0.340005
0.338455
0.342752
0.350048
0.356791
0.359447
0.355236
0.342676
0.321871
0.294518
0.263669
0.233299
0.207287
0.189214
0.181926
0.186802
0.203825
0.232185
0.269878
0.314199
0.361554
0.407587
0.447986
0.479209
0.498891
0.506149
0.501719
0.487909
0.46836
0.447612
0.430527
0.421338
0.422945
0.436945
0.464342
0.505835
0.562184
0.633847
0.715401
0.792188
0.847898
0.867902
0.8435
0.775274
0.67352
0.555205
0.438906
0.339913
0.259476
0.193725
0.14099
0.100817
0.0724451
0.0537748
0.0417827
0.0333243
0.0256281
0.0167021
0
-0.0481655
0.18729
0.880323
2.05871
3.51516
4.81769
5.45516
5.0665
3.63388
1.52032
-0.681118
-2.40621
-3.3429
-3.50467
-3.13964
-2.55693
-1.9808
-1.50226
-1.11725
-0.794102
-0.5359
-0.360632
-0.219866
-0.0983727
0.0080925
0.0984708
0.17216
0.229864
0.273422
0.30563
0.329956
0.35013
0.369669
0.391398
0.417063
0.44713
0.480796
0.516539
0.552678
0.587719
0.620768
0.651775
0.681575
0.711723
0.744187
0.780933
0.823607
0.873343
0.930654
0.995526
1.06761
1.14656
1.2322
1.3247
1.42448
1.53206
1.64779
1.77162
1.90294
2.0406
2.18301
2.32833
2.47464
2.61986
2.76129
2.89511
3.01626
3.11886
3.19696
3.24404
3.25365
3.22046
3.14146
3.01727
2.85304
2.65842
2.44633
2.23027
2.019
1.81562
1.62135
1.4371
1.26287
1.09828
0.94297
0.796932
0.660523
0.534307
0.418748
0.313942
0.219187
0.133087
0.0538524
-0.0202435
-0.0901645
-0.155641
-0.214849
-0.264594
-0.301097
-0.32093
-0.322067
-0.304588
-0.27079
-0.224662
-0.170845
-0.113375
-0.0546724
0.00494757
0.066847
0.133226
0.205991
0.28648
0.373487
0.461294
0.54213
0.608243
0.65386
0.676423
0.676812
0.658737
0.627692
0.590043
0.551772
0.517522
0.490651
0.473238
0.466503
0.47183
0.491454
0.526153
0.571416
0.61873
0.658859
0.684006
0.689653
0.675492
0.645182
0.605072
0.562279
0.522535
0.488236
0.459237
0.434363
0.412489
0.392596
0.374294
0.358285
0.346192
0.340199
0.342295
0.35351
0.373396
0.399958
0.43004
0.460034
0.486706
0.508048
0.523069
0.531938
0.535738
0.536077
0.534727
0.533155
0.53237
0.53291
0.534897
0.538166
0.54242
0.547435
0.553215
0.560065
0.568542
0.57929
0.592782
0.609267
0.628279
0.648219
0.666749
0.681339
0.689817
0.690777
0.683691
0.668695
0.646175
0.616351
0.57944
0.53567
0.485326
0.429058
0.368468
0.306137
0.245329
0.189602
0.142786
0.10693
0.0813156
0.0632406
0.0489178
0.0346602
0.0179691
-0.00178537
-0.0232444
-0.0434815
-0.0589747
-0.0667315
-0.0646506
-0.0518163
-0.0283958
0.00508161
0.0475908
0.0978416
0.15421
0.21503
0.278623
0.341894
0.400636
0.45038
0.487216
0.50859
0.513753
0.503683
0.480556
0.446991
0.405672
0.35912
0.309001
0.256454
0.202512
0.148528
0.0959607
0.0461099
0
-0.0369037
0.14601
0.477184
1.01819
1.88745
3.12741
4.5696
5.79842
6.2919
5.68402
3.98898
1.6352
-0.721723
-2.49327
-3.38643
-3.45536
-2.98621
-2.31619
-1.69471
-1.23597
-0.945195
-0.777372
-0.65637
-0.537734
-0.421126
-0.307337
-0.197875
-0.0955278
-0.00338573
0.0764794
0.143087
0.197043
0.240683
0.277757
0.312705
0.349741
0.392043
0.4409
0.495706
0.555394
0.618562
0.683371
0.747672
0.808804
0.864228
0.911869
0.950582
0.980576
1.00364
1.02303
1.043
1.06812
1.10227
1.14748
1.20437
1.27262
1.35108
1.43798
1.53142
1.62983
1.73238
1.8391
1.95082
2.06881
2.19426
2.32879
2.47419
2.62879
2.78485
2.92947
3.04834
3.13082
3.16962
3.16003
3.09947
2.98806
2.82954
2.63174
2.40587
2.1656
1.92408
1.68858
1.46249
1.24944
1.05281
0.875004
0.717451
0.580404
0.46278
0.362659
0.277707
0.205608
0.144404
0.0926398
0.0493231
0.0137182
-0.0149495
-0.0376601
-0.0557699
-0.0710196
-0.0854227
-0.10111
-0.120051
-0.143789
-0.173203
-0.208361
-0.248491
-0.292121
-0.337375
-0.382377
-0.425608
-0.466054
-0.503756
-0.539362
-0.573454
-0.605849
-0.634893
-0.657653
-0.670446
-0.669916
-0.65412
-0.623189
-0.579348
-0.526328
-0.468463
-0.409878
-0.353349
-0.300999
-0.254265
-0.213856
-0.179893
-0.151966
-0.129196
-0.110346
-0.0940059
-0.0788084
-0.0636312
-0.0477435
-0.0308144
-0.0128073
0.00606508
0.0253654
0.0443952
0.062071
0.0767708
0.0863404
0.0885781
0.0815586
0.0641973
0.0367531
0.00108414
-0.039484
-0.0806962
-0.118198
-0.148448
-0.170007
-0.18265
-0.187592
-0.187144
-0.184099
-0.181353
-0.181133
-0.184545
-0.191458
-0.200691
-0.210427
-0.218771
-0.224289
-0.226379
-0.22533
-0.222044
-0.217542
-0.212412
-0.206442
-0.198568
-0.187184
-0.170705
-0.148202
-0.120191
-0.0880415
-0.0537807
-0.020103
0.0102546
0.035045
0.05289
0.0634409
0.0672938
0.0657013
0.0601713
0.0520659
0.0423288
0.0313533
0.0190317
0.00498238
-0.0112145
-0.0298089
-0.050763
-0.073737
-0.0981492
-0.12326
-0.148223
-0.172109
-0.193768
-0.211741
-0.224429
-0.230172
-0.227468
-0.215237
-0.193071
-0.161376
-0.121387
-0.075062
-0.0249091
0.0262636
0.0750892
0.117879
0.1514
0.173109
0.18155
0.176688
0.160084
0.134761
0.104754
0.0743933
0.0474869
0.0263609
0.0116768
0.00307808
0
0.00244417
0.00856457
0.017546
0.0288322
0.0420589
0.0570915
0.0756491
0.17843
0.433197
0.97587
1.9193
3.23069
4.64554
5.70111
5.91442
5.02915
3.181
0.863803
-1.29509
-2.81308
-3.52016
-3.54042
-3.14278
-2.58265
-2.0244
-1.54635
-1.17601
-0.914041
-0.744336
-0.621285
-0.517007
-0.424255
-0.341124
-0.267223
-0.20122
-0.141002
-0.084124
-0.0283418
0.0279281
0.0853103
0.143476
0.201406
0.257701
0.310936
0.359984
0.404241
0.443732
0.479144
0.511799
0.543554
0.576673
0.613652
0.656982
0.708859
0.770888
0.843839
0.927528
1.02085
1.12205
1.22906
1.3399
1.45291
1.56695
1.6814
1.79602
1.91082
2.02587
2.14126
2.25708
2.37344
2.4905
2.60848
2.72752
2.84595
2.95694
3.04874
3.10738
3.12127
3.08495
2.99998
2.87295
2.7124
2.52717
2.3301
2.13042
1.93349
1.74333
1.56352
1.39717
1.24632
1.11185
0.993505
0.889605
0.797698
0.715092
0.639373
0.568804
0.502498
0.440358
0.382833
0.330594
0.284177
0.244018
0.210373
0.183391
0.1632
0.149876
0.143474
0.144306
0.15198
0.163302
0.173409
0.177361
0.171647
0.15539
0.130699
0.101953
0.0742838
0.0518908
0.035929
0.0258183
0.0206718
0.019245
0.0205442
0.0241694
0.0302842
0.0392859
0.05143
0.0664809
0.0836397
0.101943
0.120732
0.139987
0.16033
0.182687
0.207745
0.235492
0.264891
0.294598
0.323241
0.349726
0.373535
0.394818
0.414261
0.432771
0.451091
0.469469
0.4874
0.503539
0.516041
0.523063
0.523312
0.516494
0.503521
0.486439
0.468095
0.45161
0.439547
0.433338
0.434209
0.442138
0.454875
0.468743
0.479606
0.483731
0.478546
0.463115
0.438228
0.406121
0.369906
0.332891
0.297647
0.265706
0.2376
0.213127
0.191788
0.172919
0.156013
0.140987
0.128398
0.119419
0.115574
0.118461
0.129344
0.14878
0.176369
0.210686
0.249417
0.289707
0.328329
0.362334
0.389565
0.40901
0.420973
0.427031
0.429777
0.432378
0.438036
0.449443
0.468125
0.494311
0.527264
0.56564
0.607578
0.650461
0.690755
0.724785
0.74918
0.761249
0.759284
0.742741
0.712255
0.669487
0.61684
0.557338
0.494035
0.429253
0.364642
0.301259
0.239559
0.179467
0.120484
0.0619425
0
0.0308226
0.357121
1.16253
2.49951
4.15502
5.63388
6.32915
5.82204
4.13165
1.74213
-0.626859
-2.36375
-3.20927
-3.27381
-2.8634
-2.26513
-1.63321
-1.00895
-0.408443
0.117752
0.467282
0.539756
0.571507
0.593684
0.610018
0.623097
0.636
0.651896
0.673491
0.70268
0.740478
0.786899
0.840941
0.900757
0.963838
1.02716
1.08776
1.14306
1.19111
1.23058
1.26021
1.27959
1.28916
1.29008
1.28442
1.27533
1.26704
1.26464
1.27335
1.29765
1.34064
1.4037
1.48654
1.58763
1.7048
1.83491
1.97503
2.12346
2.27869
2.43924
2.6036
2.77025
2.93779
3.1051
3.27138
3.43609
3.59891
3.76006
3.91679
4.05601
4.15549
4.19192
4.15032
4.0292
3.83979
3.60118
3.33469
3.06044
2.78924
2.52403
2.2661
2.01779
1.78194
1.56144
1.35905
1.17715
1.01735
0.880219
0.765081
0.669999
0.592099
0.527759
0.472884
0.42375
0.377529
0.332655
0.288933
0.247363
0.20972
0.177974
0.153676
0.137631
0.129848
0.129128
0.133243
0.139767
0.146636
0.152544
0.157065
0.160499
0.163522
0.166797
0.170694
0.175226
0.180208
0.185535
0.191479
0.19882
0.208767
0.222647
0.241494
0.265577
0.294232
0.326264
0.359984
0.393623
0.42569
0.455198
0.481686
0.505047
0.52516
0.541776
0.554297
0.561734
0.562843
0.556334
0.541105
0.516441
0.482161
0.438723
0.387382
0.330025
0.268985
0.206903
0.146667
0.0912175
0.043373
0.00552025
-0.0209483
-0.0355806
-0.0389133
-0.0324053
-0.0182416
0.000987053
0.0226896
0.0446887
0.0655613
0.0848686
0.102928
0.12058
0.138999
0.159415
0.182849
0.209985
0.241071
0.275877
0.313752
0.353661
0.394273
0.434087
0.471499
0.504755
0.531847
0.550784
0.560162
0.559105
0.547514
0.526242
0.497065
0.462406
0.424882
0.386811
0.349834
0.31474
0.281971
0.251778
0.224431
0.200312
0.179834
0.16325
0.150432
0.140888
0.133627
0.127492
0.121501
0.115155
0.108597
0.102568
0.0981776
0.0965756
0.0986423
0.104671
0.114494
0.127783
0.144124
0.163157
0.184686
0.208709
0.235399
0.265053
0.298049
0.334831
0.375855
0.421499
0.472014
0.527896
0.58878
0.650238
0.704592
0.743353
0.7597
0.750595
0.717531
0.665609
0.601462
0.53116
0.459299
0.388184
0.319057
0.253191
0.192144
0.137433
0.090382
0.0517907
0.021636
0
0.00226278
0.0949096
0.355347
0.997043
2.1385
3.63858
5.05741
5.81569
5.48416
4.03009
1.85685
-0.393193
-2.14318
-3.10382
-3.30329
-2.96101
-2.33189
-1.62197
-0.982377
-0.520851
-0.291957
-0.264201
-0.222974
-0.175529
-0.122914
-0.0642883
0.000538349
0.0708303
0.145218
0.221706
0.297407
0.368563
0.431133
0.481684
0.517694
0.537979
0.542963
0.534693
0.516549
0.492698
0.467416
0.444464
0.426409
0.414569
0.40968
0.412548
0.424175
0.44568
0.478269
0.523076
0.580914
0.651973
0.735697
0.830772
0.935207
1.04659
1.16246
1.28068
1.39974
1.51895
1.6384
1.75879
1.88099
2.00569
2.13305
2.26239
2.3905
2.5108
2.61535
2.69644
2.74809
2.76679
2.75151
2.70283
2.62211
2.51068
2.37134
2.20869
2.02733
1.83151
1.62534
1.41296
1.19843
0.985846
0.779229
0.582403
0.398824
0.231443
0.082546
-0.0464425
-0.154784
-0.241381
-0.306484
-0.354725
-0.391816
-0.423631
-0.455252
-0.490223
-0.530173
-0.574818
-0.622236
-0.669311
-0.712783
-0.74979
-0.777019
-0.789284
-0.780293
-0.751343
-0.713395
-0.680499
-0.665383
-0.675378
-0.710294
-0.762805
-0.820856
-0.871005
-0.903776
-0.917828
-0.91493
-0.896975
-0.865856
-0.823928
-0.774181
-0.719783
-0.663657
-0.608168
-0.55505
-0.505577
227
433
643
879
1120
1330
1554
1798
2021
2244
2487
2707
2941
3176
3392
3629
3330
3527
0
0
0
0
0
0
0
0
0
0
0
0
0
0
0
0
0
0
0
0
0
0
0
0
0
0
0
0
0
0
0
0
0
0
0
0
0
0
0
0
0
0
0
0
0
0
0
0
0
0
0
0
0
0
0
0
0
0
0
0
0
0
0
0
0
0
0
0
0
0
0
0
0
0
0
0
0
0
0
0
0
0
0
0
0
0
0
0
0
0
0
0
0
0
0
0
0
0
0
0
0
0
0
0
0
0
0
0
0
0
0
0
0
0
0
0
0
0
0
0
0
0
0
0
0
0
0
0
0
0
0
0
0
0
0
0
0
0
0
0
0
0
0
0
0
0
0
0
0
0
0
0
0
0
0
0
0
0
0
0
0
0
0
0
0
0
0
0
0
0
0
0
0
0
0
0
0
0
0
0
0
0
0
0
0
0
0
0
0
0
0
0
0
0
0
0
0
0
0
0
0
0
0
0
0
0
0
0
0
0
0
0
0
0
0
0
0
0
0
0
0
0
0
0
0
0
0
0
0
0
0
0
0
0
0
0
0
0
0
0
0
0
0
0
0
0
0
0
0
0
0
0
0
0
0
0
0
0
0
0
0
0
0
0
0
0
0
0
0
0
0
0
0
0
0
0
0
0
0
0
0
0
0
0
0
0
0
0
0
0
0
0
0
0
0
0
0
0
0
0
0
0
0
0
0
0
0
0
0
0
0
0
0
0
0
0
0
0
0
0
0
0
0
0
0
0
0
0
0
0
0
0
0
0
0
0
0
0
0
0
0
0
0
0
0
0
0
0
0
0
0
0
0
0
0
0
0
0
0
0
0
0
0
0
0
0
0
0
0
0
0
0
0
0
0
0
0
0
0
0
0
0
0
0
0
0
0
0
0
0
0
0
0
0
0
0
0
0
0
0
0
0
0
0
0
0
0
0
0
0
0
0
0
0
0
0
0
0
0
0
0
0
0
0
0
0
0
0
0
0
0
0
0
0
0
0
0
0
0
0
0
0
0
0
0
0
0
0
0
0
0
0
0
0
0
0
0
0
0
0
0
0
0
0
0
0
0
0
0
0
0
0
0
0
0
0
0
0
0
0
0
0
0
0
0
0
0
0
0
0
0
0
0
0
0
0
0
0
0
0
0
0
0
0
0
0
0
0
0
0
0
0
0
0
0
0
0
0
0
0
0
0
0
0
0
0
0
0
0
0
0
0
0
0
0
0
0
0
0
0
0
0
0
0
0
0
0
0
0
0
0
0
0
0
0
0
0
0
0
0
0
0
0
0
0
0
0
0
0
0
0
0
0
0
0
0
0
0
0
0
0
0
0
0
0
0
0
0
0
0
0
0
0
0
0
0
0
0
0
0
0
0
0
0
0
0
0
0
0
0
0
0
0
0
0
0
0
0
0
0
0
0
0
0
0
0
0
0
0
0
0
0
0
0
0
0
0
0
0
0
0
0
0
0
0
0
0
0
0
0
0
0
0
0
0
0
0
0
0
0
0
0
0
0
0
0
0
0
0
0
0
0
0
0
0
0
0
0
0
0
0
0
0
0
0
0
0
0
0
0
0
0
0
0
0
0
0
0
0
0
0
0
0
0
0
0
0
0
0
0
0
0
0
0
0
0
0
0
0
0
0
0
0
0
0
0
0
0
0
0
0
0
0
0
0
0
0
0
0
0
0
0
0
0
0
0
0
0
0
0
0
0
0
0
0
0
0
0
0
0
0
0
0
0
0
0
0
0
0
0
0
0
0
0
0
0
0
0
0
0
0
0
0
0
0
0
0
0
0
0
0
0
0
0
0
0
0
0
0
0
0
0
0
0
0
0
0
0
0
0
0
0
0
0
0
0
0
0
0
0
0
0
0
0
0
0
0
0
0
0
0
0
0
0
0
0
0
0
0
0
0
0
0
0
0
0
0
0
0
0
0
0
0
0
0
0
0
0
0
0
0
0
0
0
0
0
0
0
0
0
0
0
0
0
0
0
0
0
0
0
0
0
0
0
0
0
0
0
0
0
0
0
0
0
0
0
0
0
0
0
0
0
0
0
0
0
0
0
0
0
0
0
0
0
0
0
0
0
0
0
0
0
0
0
0
0
0
0
0
0
0
0
0
0
0
0
0
0
0
0
0
0
0
0
0
0
0
0
0
0
0
0
0
0
0
0
0
0
0
0
0
0
0
0
0
0
0
0
0
0
0
0
0
0
0
0
0
0
0
0
0
0
0
0
0
0
0
0
0
0
0
0
0
0
0
0
0
0
0
0
0
0
0
0
0
0
0
0
0
0
0
0
0
0
0
0
0
0
0
0
0
0
0
0
0
0
0
0
0
0
0
0
0
0
0
0
0
0
0
0
0
0
0
0
0
0
0
0
0
0
0
0
0
0
0
0
0
0
0
0
0
0
0
0
0
0
0
0
0
0
0
0
0
0
0
0
0
0
0
0
0
0
0
0
0
0
0
0
0
0
0
0
0
0
0
0
0
0
0
0
0
0
0
0
0
0
0
0
0
0
0
0
0
0
0
0
0
0
0
0
0
0
0
0
0
0
0
0
0
0
0
0
0
0
0
0
0
0
0
0
0
0
0
0
0
0
0
0
0
0
0
0
0
0
0
0
0
0
0
0
0
0
0
0
0
0
0
0
0
0
0
0
0
0
0
0
0
0
0
0
0
0
0
0
0
0
0
0
0
0
0
0
0
0
0
0
0
0
0
0
0
0
0
0
0
0
0
0
0
0
0
0
0
0
0
0
0
0
0
0
0
0
0
0
0
0
0
0
0
0
0
0
0
0
0
0
0
0
0
0
0
0
0
0
0
0
0
0
0
0
0
0
0
0
0
0
0
0
0
0
0
0
0
0
0
0
0
0
0
0
0
0
0
0
0
0
0
0
0
0
0
0
0
0
0
0
0
0
0
0
0
0
0
0
0
0
0
0
0
0
0
0
0
0
0
0
0
0
0
0
0
0
0
0
0
0
0
0
0
0
0
0
0
0
0
0
0
0
0
0
0
0
0
0
0
0
0
0
0
0
0
0
0
0
0
0
0
0
0
0
0
0
0
0
0
0
0
0
0
0
0
0
0
0
0
0
0
0
0
0
0
0
0
0
0
0
0
0
0
0
0
0
0
0
0
0
0
0
0
0
0
0
0
0
0
0
0
0
0
0
0
0
0
0
0
0
0
0
0
0
0
0
0
0
0
0
0
0
0
0
0
0
0
0
0
0
0
0
0
0
0
0
0
0
0
0
0
0
0
0
0
0
0
0
0
0
0
0
0
0
0
0
0
0
0
0
0
0
0
0
0
0
0
0
0
0
0
0
0
0
0
0
0
0
0
0
0
0
0
0
0
0
0
0
0
0
0
0
0
0
0
0
0
0
0
0
0
0
0
0
0
0
0
0
0
0
0
0
0
0
0
0
0
0
0
0
0
0
0
0
0
0
0
0
0
0
0
0
0
0
0
0
0
0
0
0
0
0
0
0
0
0
0
0
0
0
0
0
0
0
0
0
0
0
0
0
0
0
0
0
0
0
0
0
0
0
0
0
0
0
0
0
0
0
0
0
0
0
0
0
0
0
0
0
0
0
0
0
0
0
0
0
0
0
0
0
0
0
0
0
0
0
0
0
0
0
0
0
0
0
0
0
0
0
0
0
0
0
0
0
0
0
0
0
0
0
0
0
0
0
0
0
0
0
0
0
0
0
0
0
0
0
0
0
0
0
0
0
0
0
0
0
0
0
0
0
0
0
0
0
0
0
0
0
0
0
0
0
0
0
0
0
0
0
0
0
0
0
0
0
0
0
0
0
0
0
0
0
0
0
0
0
0
0
0
0
0
0
0
0
0
0
0
0
0
0
0
0
0
0
0
0
0
0
0
0
0
0
0
0
0
0
0
0
0
0
0
0
0
0
0
0
0
0
0
0
0
0
0
0
0
0
0
0
0
0
0
0
0
0
0
0
0
0
0
0
0
0
0
0
0
0
0
0
0
0
0
0
0
0
0
0
0
0
0
0
0
0
0
0
0
0
0
0
0
0
0
0
0
0
0
0
0
0
0
0
0
0
0
0
0
0
0
0
0
0
0
0
0
0
0
0
0
0
0
0
0
0
0
0
0
0
0
0
0
0
0
0
0
0
0
0
0
0
0
0
0
0
0
0
0
0
0
0
0
0
0
0
0
0
0
0
0
0
0
0
0
0
0
0
0
0
0
0
0
0
0
0
0
0
0
0
0
0
0
0
0
0
0
0
0
0
0
0
0
0
0
0
0
0
0
0
0
0
0
0
0
0
0
0
0
0
0
0
0
0
0
0
0
0
0
0
0
0
0
0
0
0
0
0
0
0
0
0
0
0
0
0
0
0
0
0
0
0
0
0
0
0
0
0
0
0
0
0
0
0
0
0
0
0
0
0
0
0
0
0
0
0
0
0
0
0
0
0
0
0
0
0
0
0
0
0
0
0
0
0
0
0
0
0
0
0
0
0
0
0
0
0
0
0
0
0
0
0
0
0
0
0
0
0
0
0
0
0
0
0
0
0
0
0
0
0
0
0
0
0
0
0
0
0
0
0
0
0
0
0
0
0
0
0
0
0
0
0
0
0
0
0
0
0
0
0
0
0
0
0
0
0
0
0
0
0
0
0
0
0
0
0
0
0
0
0
0
0
0
0
0
0
0
0
0
0
0
0
0
0
0
0
0
0
0
0
0
0
0
0
0
0
0
0
0
0
0
0
0
0
0
0
0
0
0
0
0
0
0
0
0
0
0
0
0
0
0
0
0
0
0
0
0
0
0
0
0
0
0
0
0
0
0
0
0
0
0
0
0
0
0
0
0
0
0
0
0
0
0
0
0
0
0
0
0
0
0
0
0
0
0
0
0
0
0
0
0
0
0
0
0
0
0
0
0
0
0
0
0
0
0
0
0
0
0
0
0
0
0
0
0
0
0
0
0
0
0
0
0
0
0
0
0
0
0
0
0
0
0
0
0
0
0
0
0
0
0
0
0
0
0
0
0
0
0
0
0
0
0
0
0
0
0
0
0
0
0
0
0
0
0
0
0
0
0
0
0
0
0
0
0
0
0
0
0
0
0
0
0
0
0
0
0
0
0
0
0
0
0
0
0
0
0
0
0
0
0
0
0
0
0
0
0
0
0
0
0
0
0
0
0
0
0
0
0
0
0
0
0
0
0
0
0
0
0
0
0
0
0
0
0
0
0
0
0
0
0
0
0
0
0
0
0
0
0
0
0
0
0
0
0
0
0
0
0
0
0
0
0
0
0
0
0
0
0
0
0
0
0
0
0
0
0
0
0
0
0
0
0
0
0
0
0
0
0
0
0
0
0
0
0
0
0
0
0
0
0
0
0
0
0
0
0
0
0
0
0
0
0
0
0
0
0
0
0
0
0
0
0
0
0
0
0
0
0
0
0
0
0
0
0
0
0
0
0
0
0
0
0
0
0
0
0
0
0
0
0
0
0
0
0
0
0
0
0
0
0
0
0
0
0
0
0
0
0
0
0
0
0
0
0
0
0
0
0
0
0
0
0
0
0
0
0
0
0
0
0
0
0
0
0
0
0
0
0
0
0
0
0
0
0
0
0
0
0
0
0
0
0
0
0
0
0
0
0
0
0
0
0
0
0
0
0
0
0
0
0
0
0
0
0
0
0
0
0
0
0
0
0
0
0
0
0
0
0
0
0
0
0
0
0
0
0
0
0
0
0
0
0
0
0
0
0
0
0
0
0
0
0
0
0
0
0
0
0
0
0
0
0
0
0
0
0
0
0
0
0
0
0
0
0
0
0
0
0
0
0
0
0
0
0
0
0
0
0
0
0
0
0
0
0
0
0
0
0
0
0
0
0
0
0
0
0
0
0
0
0
0
0
0
0
0
0
0
0
0
0
0
0
0
0
0
0
0
0
0
0
0
0
0
0
0
0
0
0
0
0
0
0
0
0
0
0
0
0
0
0
0
0
0
0
0
0
0
0
0
0
0
0
0
0
0
0
0
0
0
0
0
0
0
0
0
0
0
0
0
0
0
0
0
0
0
0
0
0
0
0
0
0
0
0
0
0
0
0
0
0
0
0
0
0
0
0
0
0
0
0
0
0
0
0
0
0
0
0
0
0
0
0
0
0
0
0
0
0
0
0
0
0
0
0
0
0
0
0
0
0
0
0
0
0
0
0
0
0
0
0
0
0
0
0
0
0
0
0
0
0
0
0
0
0
0
0
0
0
0
0
0
0
0
0
0
0
0
0
0
0
0
0
0
0
0
0
0
0
0
0
0
0
0
0
0
0
0
0
0
0
0
0
0
0
0
0
0
0
0
0
0
0
0
0
0
0
0
0
0
0
0
0
0
0
0
0
0
0
0
0
0
0
0
0
0
0
0
0
0
0
0
0
0
0
0
0
0
0
0
0
0
0
0
0
0
0
0
0
0
0
0
0
0
0
0
0
0
0
0
0
0
0
0
0
0
0
0
0
0
0
0
0
0
0
0
0
0
0
0
0
0
0
0
0
0
0
0
0
0
0
0
0
0
0
0
0
0
0
0
0
0
0
0
0
0
0
0
0
0
0
0
0
0
0
0
0
0
0
0
0
0
0
0
0
0
0
0
0
0
0
0
0
0
0
0
0
0
0
0
0
0
0
0
0
0
0
0
0
0
0
0
0
0
0
0
0
0
0
0
0
0
0
0
0
0
0
0
0
0
0
0
0
0
0
0
0
0
0
0
0
0
0
0
0
0
0
0
0
0
0
0
0
0
0
0
0
0
0
0
0
0
0
0
0
0
0
0
0
0
0
0
0
0
0
0
0
0
0
0
0
0
0
0
0
0
0
0
0
0
0
0
0
0
0
0
0
0
0
0
0
0
0
0
0
0
0
0
0
0
0
0
0
0
0
0
0
0
0
0
0
0
0
0
0
0
0
0
0
0
0
0
0
0
0
0
0
0
0
0
0
0
0
0
0
0
0
0
0
0
0
0
0
0
0
0
0
0
0
0
0
0
0
0
0
0
0
0
0
0
0
0
0
0
0
0
0
0
0
0
0
0
0
0
0
0
0
0
0
0
0
0
0
0
0
0
0
0
0
0
0
0
0
0
0
0
0
0
0
0
0
0
0
0
0
0
0
0
0
0
0
0
0
0
0
0
0
0
0
0
0
0
0
0
0
0
0
0
0
0
0
0
0
0
0
0
0
0
0
0
0
0
0
0
0
0
0
0
0
0
0
0
0
0
0
0
0
0
0
0
0
0
0
0
0
0
0
0
0
0
0
0
0
0
0
0
0
0
0
0
0
0
0
0
0
0
0
0
0
0
0
0
0
0
0
0
0
0
0
0
0
0
0
0
0
0
0
0
0
0
0
0
0
0
0
0
0
0
0
0
0
0
0
0
0
0
0
0
0
0
0
0
0
0
0
0
0
0
0
0
0
0
0
0
0
0
0
0
0
0
0
0
0
0
0
0
0
0
0
0
0
0
0
0
0
0
0
0
0
0
0
0
0
0
0
0
0
0
0
0
0
0
0
0
0
0
0
0
0
0
0
0
0
0
0
0
0
0
0
0
0
0
0
0
0
0
0
0
0
0
0
0
0
0
0
0
0
0
0
0
0
0
0
0
0
0
0
0
0
0
0
0
0
0
0
0
0
0
0
0
0
0
0
0
0
0
0
0
0
0
0
0
0
0
0
0
0
0
0
0
0
0
0
0
0
0
0
0
0
0
0
0
0
0
0
0
0
0
0
0
0
0
0
0
0
0
0
0
0
0
0
0
0
0
0
0
0
0
0
0
0
0
0
0
0
0
0
0
0
0
0
0
0
0
0
0
0
0
0
0
0
0
0
0
0
0
0
0
0
0
0
0
0
0
0
0
0
0
0
0
0
0
0
0
0
0
0
0
0
0
0
0
0
0
0
0
0
0
0
0
0
0
0
0
0
0
0
0
0
0
0
0
0
0
0
0
0
0
0
0
0
0
0
0
0
0
0
0
0
0
0
0
0
0
0
0
0
0
0
0
0
0
0
0
0
0
0
0
0
0
0
0
0
0
0
0
0
0
0
0
0
0
0
0
0
0
0
0
0
0
0
0
0
0
0
0
0
0
0
0
0
0
0
0
0
0
0
0
0
0
0
0
0
0
0
0
0
0
0
0
0
0
0
0
0
0
0
0
0
0
0
0
0
0
0
0
0
0
0
0
0
0
0
0
0
0
0
0
0
0
0
0
0
0
0
0
0
0
0
0
0
0
0
0
0
0
0
0
0
0
0
0
0
0
0
0
0
0
0
0
0
0
0
0
0
0
0
0
0
0
0
0
0
0
0
0
0
0
0
0
0
0
0
0
0
0
0
0
0
0
0
0
0
0
0
0
0
0
0
0
0
0
0
0
0
0
0
0
0
0
0
0
0
0
0
0
0
0
0
0
0
0
0
