1.18199
1.13646
1.11109
1.11581
1.14812
1.20024
1.26666
1.34297
1.42554
1.51242
1.60357
1.7005
1.80531
1.91974
2.044
2.17673
2.31572
2.45795
2.60041
2.74098
2.87889
3.01502
3.1516
3.29183
3.43929
3.59753
3.76943
3.95743
4.16337
4.38827
4.6363
4.91886
5.23791
5.55942
5.83657
6.02848
6.11323
6.09271
5.98802
5.82815
5.63707
5.42521
5.19502
4.94839
4.68723
4.4129
4.12691
3.83167
3.5306
3.22794
2.92851
2.63724
2.35869
2.09648
1.85288
1.6284
1.42196
1.23051
1.04959
0.874613
0.702076
0.530816
0.363693
0.208522
0.0767691
-0.0191891
-0.0555979
0.0448486
0.344367
0.727762
1.06677
1.26809
1.28269
1.11391
0.823524
0.520242
0.320338
0.289021
0.337159
0.403831
0.471706
0.531536
0.578137
0.610989
0.633695
0.652499
0.674306
0.704314
0.744272
0.794958
0.854423
0.916652
0.97386
1.01931
1.04934
1.06455
1.06978
1.0727
1.08143
1.10309
1.14284
1.19221
1.23601
1.25882
1.25166
1.21583
1.16205
1.10581
1.06101
1.03314
1.01755
1.01052
1.00828
1.00729
1.00541
1.00253
1.0004
1.00191
1.00992
1.02622
1.05037
1.08016
1.113
1.146
1.17636
1.20185
1.22125
1.23452
1.24279
1.24827
1.25396
1.26338
1.28006
1.30708
1.34659
1.39957
1.46619
1.54549
1.63459
1.72621
1.80808
1.86721
1.89274
1.87906
1.82819
1.75049
1.6627
1.58363
1.52886
1.50181
1.49587
1.50511
1.52508
1.55054
1.57642
1.59843
1.61377
1.62134
1.62177
1.61701
1.60984
1.6031
1.59909
1.59953
1.60295
1.60636
1.60711
1.60508
1.60368
1.60933
1.62917
1.66813
1.72657
1.79661
1.87206
1.94607
2.01279
2.06866
2.11313
2.14868
2.18003
2.2131
2.2533
2.3067
2.38084
2.47883
2.59055
2.69592
2.77332
2.80556
2.78454
2.7133
2.6051
2.4796
2.3568
2.24955
2.15805
2.07587
1.99665
1.91442
1.82287
1.71612
1.5892
1.43833
1.26112
1.05803
0.827688
0.572441
0.298265
0
-0.0627245
0.466426
1.66655
3.45982
5.59309
7.64459
9.08991
9.45471
8.5209
6.47766
3.9021
1.54169
-0.00226135
-0.514984
-0.200012
0.145759
0.451227
0.690961
0.85034
0.931759
0.948162
0.920043
0.870209
0.819527
0.781367
0.760681
0.758966
0.775941
0.813888
0.872985
0.942789
1.00995
1.0631
1.09649
1.1117
1.11635
1.12021
1.13127
1.15088
1.1745
1.19666
1.21706
1.24398
1.29251
1.37858
1.5118
1.68557
1.88123
2.08786
2.29762
2.50376
2.70145
2.8883
3.06427
3.23127
3.39238
3.55106
3.71037
3.87247
4.03829
4.20765
4.37943
4.55197
4.72319
4.88987
5.04608
5.18242
5.28777
5.348
5.34827
5.2762
5.12473
4.89365
4.59016
4.22873
3.8329
3.42817
3.03027
2.64916
2.29355
1.96988
1.67976
1.42137
1.19059
0.982435
0.792482
0.61784
0.457586
0.312622
0.184778
0.0761126
-0.0106372
-0.0735884
-0.111034
-0.115936
-0.0801306
-0.0179727
0.0470579
0.0921252
0.103692
0.0836015
0.0488932
0.0246945
0.0332613
0.0844442
0.160896
0.249321
0.339424
0.421219
0.487166
0.533379
0.559857
0.569853
0.568635
0.562013
0.55499
0.550867
0.550822
0.554416
0.560316
0.566761
0.571997
0.574352
0.572801
0.567279
0.559232
0.552118
0.551486
0.564346
0.597827
0.65746
0.747742
0.877003
1.04282
1.21947
1.3733
1.47548
1.50807
1.46672
1.36054
1.20943
1.03993
0.880525
0.750923
0.653595
0.584834
0.544276
0.529915
0.537354
0.561003
0.595546
0.637244
0.684258
0.73721
0.798179
0.871678
0.963174
1.07361
1.19059
1.29094
1.34972
1.34747
1.27657
1.14534
0.978256
0.811071
0.681068
0.609172
0.585662
0.597285
0.638175
0.699739
0.772512
0.84778
0.919637
0.984768
1.04129
1.08875
1.12768
1.15922
1.1846
1.2047
1.22009
1.23096
1.23723
1.23883
1.23597
1.22934
1.22014
1.20994
1.20054
1.19369
1.19096
1.19377
1.20356
1.22169
1.24943
1.28775
1.3375
1.39922
1.47246
1.55325
1.63185
1.6963
1.73611
1.74545
1.72527
1.68334
1.63191
1.58376
1.54831
1.52734
1.51735
1.51681
1.52449
1.54026
1.56535
1.60191
1.65198
1.71659
1.79378
1.88115
1.97615
2.07439
2.16589
2.23667
2.27143
2.2566
2.18526
2.06185
1.90385
1.73883
1.59719
1.5037
1.50533
1.57566
1.65537
1.67711
1.59234
1.38823
1.08763
0.732822
0.363189
0
0.139927
0.717667
1.77266
3.3373
5.27578
7.2076
8.57175
8.84062
7.78572
5.64606
3.07644
0.875138
-0.373226
-0.545978
0.00356588
0.342602
0.618825
0.799767
0.877682
0.914105
0.92136
0.906841
0.877724
0.841859
0.805322
0.775118
0.758213
0.760614
0.78611
0.835107
0.906421
0.99205
1.08032
1.15946
1.22032
1.25825
1.27355
1.27067
1.25678
1.24017
1.22834
1.2263
1.23837
1.26798
1.3171
1.38606
1.4733
1.57635
1.69211
1.81753
1.95028
2.08953
2.23598
2.39162
2.55914
2.74095
2.9383
3.15054
3.37484
3.60642
3.83922
4.06678
4.28292
4.48146
4.65514
4.79598
4.89785
4.95548
4.96263
4.91298
4.80184
4.62811
4.39579
4.11454
3.79873
3.46629
3.13302
2.80922
2.50187
2.21571
1.95311
1.71475
1.50033
1.30932
1.14116
0.995652
0.872487
0.770525
0.687862
0.622123
0.570849
0.531953
0.504054
0.486563
0.479485
0.48301
0.496923
0.520561
0.552621
0.591274
0.634483
0.680372
0.727539
0.775224
0.823219
0.871679
0.92085
0.970849
1.02152
1.07245
1.12307
1.17278
1.22107
1.26755
1.31186
1.35349
1.39155
1.42458
1.45054
1.46731
1.47299
1.46648
1.44805
1.41964
1.38482
1.34824
1.31474
1.28807
1.27133
1.26495
1.26106
1.24834
1.21605
1.15847
1.07787
0.984937
0.896132
0.828965
0.796583
0.796197
0.826588
0.881401
0.951313
1.02398
1.08629
1.12706
1.1382
1.11541
1.0583
0.970312
0.858167
0.731012
0.599232
0.472923
0.3594
0.264273
0.194366
0.152983
0.141295
0.1581
0.199651
0.260225
0.331437
0.403856
0.468498
0.518156
0.548229
0.556833
0.544264
0.512105
0.462378
0.398622
0.323424
0.238326
0.145113
0.0462645
-0.0547105
-0.152848
-0.239987
-0.307086
-0.345118
-0.346948
-0.30882
-0.210091
-0.0634351
0.0931325
0.219383
0.28766
0.292437
0.250207
0.190095
0.140436
0.118623
0.120134
0.136348
0.16568
0.207638
0.262482
0.335657
0.42984
0.533305
0.627329
0.692124
0.714779
0.695242
0.647561
0.595877
0.566731
0.580217
0.63301
0.713299
0.811161
0.918973
1.03001
1.13814
1.23827
1.32649
1.40121
1.46295
1.5139
1.55749
1.59796
1.63973
1.68679
1.74203
1.80771
1.8837
1.96481
2.03971
2.09502
2.11872
2.10292
2.04557
1.95062
1.82673
1.68489
1.53589
1.38796
1.24431
1.10545
0.971053
0.839405
0.707762
0.572798
0.431135
0.278601
0
-0.15027
0.390193
1.78921
3.89066
6.26005
8.31606
9.48308
9.35332
7.84785
5.30983
2.4317
-0.00579882
-1.46517
-1.85837
-1.46991
-0.938704
-0.471339
-0.12819
0.0886051
0.258402
0.412229
0.555456
0.686851
0.804062
0.904418
0.985707
1.0464
1.08601
1.10543
1.10709
1.09485
1.07355
1.04836
1.02399
1.00393
0.990031
0.983503
0.984785
0.994388
1.01349
1.04417
1.08899
1.1502
1.22859
1.32364
1.43196
1.54643
1.65967
1.76653
1.8661
1.96243
2.06365
2.17985
2.32026
2.48712
2.67834
2.89048
3.11816
3.3532
3.58555
3.80662
4.01118
4.1985
4.36836
4.52277
4.7529
5.16373
5.64123
6.01398
6.14463
5.98575
5.58999
5.07303
4.54726
4.05981
3.58901
3.13964
2.71137
2.30878
1.94127
1.61805
1.35271
1.16564
1.0688
1.03642
1.03155
1.01873
0.973769
0.889821
0.778017
0.662311
0.570331
0.523378
0.548649
0.626349
0.716084
0.774441
0.771668
0.701019
0.579367
0.441595
0.331499
0.284425
0.298517
0.359239
0.467049
0.612933
0.772489
0.919838
1.03477
1.1076
1.14005
1.14242
1.12879
1.11257
1.10204
1.09993
1.10808
1.1273
1.15798
1.19917
1.24666
1.29309
1.33088
1.35405
1.35979
1.349
1.3257
1.29557
1.26432
1.23646
1.21396
1.19778
1.1885
1.18665
1.19214
1.20063
1.20682
1.20673
1.19986
1.19001
1.18391
1.18797
1.20498
1.23197
1.2624
1.28861
1.30527
1.31174
1.31237
1.31458
1.32584
1.34929
1.38389
1.42827
1.47751
1.52598
1.56908
1.60434
1.6315
1.65179
1.6666
1.67694
1.68302
1.68479
1.68255
1.67723
1.66985
1.66037
1.64644
1.62346
1.586
1.5304
1.45755
1.37417
1.29198
1.22471
1.18424
1.17301
1.19128
1.23402
1.29233
1.3556
1.41374
1.45865
1.48552
1.4932
1.48404
1.46327
1.43795
1.4155
1.40206
1.40117
1.41307
1.43463
1.46043
1.48426
1.50051
1.50532
1.49713
1.47685
1.44788
1.41603
1.38776
1.36987
1.3685
1.38904
1.44101
1.51923
1.60653
1.68304
1.73325
1.75154
1.7436
1.72343
1.70749
1.70875
1.72868
1.76246
1.80616
1.85712
1.91324
1.9736
2.03878
2.11088
2.19489
2.30302
2.45911
2.68111
2.94346
3.19011
3.37171
3.45469
3.41709
3.24341
2.9318
2.51409
2.0718
1.72088
1.51284
1.4169
1.40947
1.43489
1.4244
1.32133
1.10002
0.769769
0.364288
-0.0987294
0
0.765055
2.25565
4.35421
6.69838
8.69871
9.71328
9.33194
7.61408
5.10681
2.59498
0.728544
-0.242575
-0.472713
-0.24317
0.00737638
0.251419
0.475899
0.670643
0.840501
0.995238
1.14124
1.2821
1.41881
1.5501
1.67147
1.77603
1.85779
1.91477
1.9502
1.97124
1.98575
1.99874
2.01039
2.01667
2.01227
1.99436
1.96535
1.93323
1.90943
1.90518
1.92647
1.9697
2.02992
2.10381
2.18803
2.27964
2.37693
2.47982
2.58971
2.70915
2.84112
2.9883
3.15227
3.33301
3.5285
3.73471
3.9459
4.15529
4.35565
4.5406
4.70541
4.84736
4.96567
5.0608
5.13145
5.1745
5.18758
5.16638
5.10515
4.9984
4.84262
4.63776
4.38785
4.10076
3.78722
3.46114
3.13324
2.81186
2.50392
2.21463
1.94754
1.70481
1.48751
1.29602
1.13025
0.989618
0.873023
0.778536
0.70337
0.643962
0.595985
0.554626
0.515761
0.476657
0.43642
0.396033
0.357948
0.325265
0.300746
0.285969
0.281329
0.284991
0.293986
0.305152
0.316066
0.325653
0.334328
0.343701
0.355994
0.373345
0.397075
0.427812
0.465616
0.509783
0.558919
0.610923
0.662645
0.710375
0.750561
0.780444
0.798616
0.805314
0.802333
0.792557
0.779212
0.765065
0.75172
0.739485
0.727593
0.714562
0.698951
0.680097
0.65858
0.636258
0.615802
0.599879
0.590256
0.587734
0.590517
0.59533
0.598524
0.597328
0.590813
0.580245
0.568723
0.560256
0.558555
0.565216
0.58063
0.603955
0.630331
0.652103
0.661968
0.655431
0.632663
0.599099
0.564466
0.540489
0.538014
0.565989
0.640604
0.769707
0.93052
1.08122
1.18278
1.20719
1.14403
1.00516
0.825013
0.653505
0.540857
0.505815
0.522723
0.565827
0.622137
0.682391
0.738355
0.784172
0.817075
0.837353
0.847639
0.851798
0.853762
0.856453
0.8613
0.868592
0.877433
0.8861
0.892683
0.89564
0.894205
0.888571
0.879811
0.869585
0.859722
0.851793
0.846719
0.844725
0.845456
0.848074
0.851391
0.854084
0.854976
0.853292
0.848885
0.842373
0.835173
0.829383
0.827527
0.832158
0.845328
0.868508
0.902636
0.947366
0.998091
1.04507
1.07832
1.09107
1.08288
1.06099
1.03892
1.03261
1.05525
1.11261
1.19506
1.2925
1.39786
1.50348
1.6022
1.68646
1.749
1.78571
1.79405
1.77304
1.72357
1.64849
1.55249
1.44148
1.32177
1.1995
1.07951
0.965349
0.86033
0.76733
0.689005
0.630005
0.595473
0.57878
0.56902
0.553559
0.521211
0.464587
0.185139
0
0.530836
1.9456
4.02806
6.22757
7.86205
8.37931
7.57247
5.67102
3.25908
1.03775
-0.467954
-1.10592
-1.07975
-0.767797
-0.463913
-0.177253
0.082371
0.306599
0.502324
0.670791
0.806818
0.905214
0.966207
0.99189
0.986623
0.957512
0.914528
0.869838
0.836224
0.824935
0.843117
0.888
0.954935
1.04098
1.14147
1.251
1.36303
1.4698
1.56457
1.64281
1.70304
1.74725
1.78068
1.81094
1.84672
1.89651
1.96605
2.05853
2.1764
2.32185
2.49619
2.69917
2.92841
3.17896
3.44637
3.71847
3.97866
4.21218
4.40996
4.57108
4.70302
4.81937
4.9361
5.08453
5.27103
5.45974
5.60106
5.65487
5.6024
5.44595
5.20116
4.88851
4.52952
4.15186
3.77523
3.40719
3.05013
2.7055
2.37455
2.05757
1.75448
1.46581
1.19602
0.951765
0.73951
0.566177
0.437115
0.354374
0.315962
0.316256
0.347248
0.400026
0.465214
0.534787
0.601837
0.6582
0.696483
0.710571
0.696839
0.655213
0.589358
0.505648
0.411183
0.311682
0.210378
0.108079
0.00454602
-0.100434
-0.206302
-0.311274
-0.407958
-0.42424
-0.0605356
0.569064
1.23709
1.66494
1.65871
1.21758
0.538954
-0.0860472
-0.418465
-0.357298
-0.219205
-0.0741855
0.0695265
0.207823
0.336069
0.448815
0.541952
0.613406
0.66271
0.691702
0.704918
0.709156
0.712009
0.71963
0.735566
0.756419
0.770028
0.760537
0.714662
0.627839
0.507872
0.374486
0.254595
0.174638
0.144869
0.201074
0.321241
0.461747
0.576137
0.633257
0.627362
0.576579
0.511733
0.461631
0.441566
0.43985
0.447279
0.456493
0.460902
0.456589
0.443282
0.424194
0.404837
0.391203
0.387727
0.395261
0.412238
0.436142
0.463529
0.491262
0.517559
0.542598
0.56848
0.598556
0.636437
0.68731
0.754146
0.828494
0.892737
0.927249
0.917235
0.858311
0.75866
0.636944
0.516708
0.419427
0.352481
0.310507
0.289711
0.288103
0.302547
0.329414
0.364838
0.405184
0.447443
0.488731
0.526474
0.558559
0.583507
0.600609
0.609914
0.612071
0.608041
0.598803
0.585279
0.568154
0.548271
0.527075
0.507129
0.493439
0.492477
0.511206
0.555214
0.626765
0.7235
0.838386
0.96103
1.07996
1.18522
1.27244
1.33838
1.38218
1.40423
1.40494
1.3844
1.34105
1.27249
1.17668
1.05331
0.90511
0.738533
0.562555
0.392191
0.243494
0.132437
0.103615
0.18434
0.325337
0.457041
0.517365
0.473482
0.330705
0.127566
-0.178926
0
0.88029
2.52782
4.77524
7.19801
9.16899
10.03
9.3636
7.24107
4.27449
1.3887
-0.591514
-1.29884
-0.9147
-0.23414
0.333163
0.788196
1.1057
1.3432
1.53374
1.68428
1.8027
1.89692
1.97378
2.0382
2.09262
2.13693
2.16934
2.18721
2.1886
2.17417
2.14818
2.11829
2.09399
2.08433
2.09574
2.12757
2.17584
2.23832
2.31209
2.39389
2.48078
2.57034
2.66054
2.74978
2.83715
2.92292
3.00878
3.09795
3.19479
3.304
3.42952
3.57344
3.73446
3.90872
4.09069
4.27344
4.44902
4.60983
4.7503
4.86773
4.96274
5.03902
5.09022
5.11244
5.45639
6.11346
6.84092
7.31929
7.3318
6.87988
6.16037
5.43356
4.87941
4.52816
4.19379
3.86364
3.53771
3.21843
2.90946
2.615
2.33956
2.08772
1.86487
1.67548
1.52266
1.41172
1.36203
1.38435
1.45164
1.52855
1.58137
1.58792
1.54301
1.45765
1.35329
1.25423
1.1797
1.13202
1.10707
1.10123
1.11221
1.13729
1.17066
1.20645
1.24017
1.26968
1.29576
1.32171
1.35243
1.39299
1.4486
1.52458
1.62339
1.73844
1.84772
1.92306
1.93741
1.87133
1.72057
1.50144
1.24955
1.01115
0.846566
1.09308
1.65672
2.27967
2.68809
2.71544
2.37953
1.86521
1.42323
1.24769
1.39799
1.62235
1.86014
2.10056
2.32614
2.51861
2.66527
2.74459
2.73074
2.61173
2.40633
2.16497
1.95126
1.81569
1.75524
1.73448
1.73635
1.75616
1.79117
1.83867
1.8962
1.9614
2.03181
2.10464
2.17665
2.24392
2.3017
2.34543
2.37167
2.3784
2.36549
2.33494
2.29062
2.23743
2.18016
2.12219
2.06472
2.00695
1.94711
1.88321
1.81406
1.74003
1.66328
1.58894
1.52398
1.47551
1.44922
1.44803
1.47145
1.51566
1.5742
1.63952
1.7021
1.75257
1.78395
1.79265
1.77896
1.7466
1.70149
1.64975
1.59589
1.54177
1.48717
1.43147
1.37506
1.32039
1.27229
1.23702
1.22062
1.2272
1.25781
1.31037
1.38051
1.46283
1.55178
1.64254
1.73117
1.81233
1.88066
1.93054
1.95689
1.95609
1.92628
1.86682
1.77717
1.65605
1.5033
1.32389
1.12197
0.901986
0.671121
0.4414
0.22714
0.0531641
0
0.162987
0.447439
0.723382
0.879262
0.85678
0.659229
0.335942
-0.0452033
-0.253865
0.0277739
0.899292
2.35021
4.18107
5.98844
7.23363
7.41897
6.3179
4.13608
1.48281
-0.8743
-2.35109
-2.78668
-2.38112
-1.7685
-1.16459
-0.703378
-0.390147
-0.197526
-0.059172
0.0359569
0.0837113
0.0892312
0.066024
0.0318665
0.00294046
-0.0112603
-0.012603
-0.00568047
0.00565786
0.0191309
0.0354743
0.0583107
0.0925135
0.141792
0.206353
0.282419
0.362645
0.438042
0.50056
0.545471
0.572853
0.587839
0.599653
0.619773
0.659563
0.726109
0.822325
0.948638
1.10405
1.28669
1.49395
1.72244
1.96822
2.22689
2.49364
2.76332
3.03058
3.29006
3.5367
3.76656
3.97703
4.16626
4.33155
4.46721
4.56484
4.61865
4.61896
4.55524
4.42073
4.21652
3.95294
3.64729
3.3189
2.98409
2.65116
2.32244
1.99933
1.68272
1.37367
1.07394
0.78589
0.512209
0.255537
0.018466
-0.198473
-0.395677
-0.573838
-0.733225
-0.873242
-0.992555
-1.08856
-1.15273
-1.18614
-1.19722
-1.19669
-1.19353
-1.19153
-1.18819
-1.17677
-1.15014
-1.10465
-1.04561
-0.978724
-0.908454
-0.839181
-0.77433
-0.715928
-0.664632
-0.620062
-0.58123
-0.54683
-0.515683
-0.486762
-0.459272
-0.432716
-0.40691
-0.381926
-0.357908
-0.334807
-0.312114
-0.288686
-0.262762
-0.232182
-0.194767
-0.148814
-0.093627
-0.0292757
0.0432327
0.121661
0.201992
0.277408
0.339024
0.378366
0.38893
0.368107
0.318582
0.248484
0.169907
0.0960434
0.0378626
-0.000916147
-0.023318
-0.0312448
-0.0275534
-0.0153154
0.00303984
0.0263772
0.0549523
0.0899434
0.132855
0.184623
0.245422
0.314431
0.389785
0.468498
0.546304
0.618332
0.680296
0.729275
0.764283
0.786472
0.798909
0.80598
0.812574
0.823245
0.841089
0.86751
0.902968
0.947169
0.999099
1.0573
1.12019
1.18634
1.25468
1.32446
1.39523
1.46646
1.53721
1.60571
1.66902
1.72248
1.75932
1.77291
1.75729
1.70855
1.62646
1.51208
1.37054
1.22995
1.12248
1.0743
1.09659
1.18123
1.30365
1.43178
1.53785
1.61291
1.65978
1.69088
1.72494
1.79752
1.95545
2.16598
2.35843
2.46051
2.43084
2.27684
2.05372
1.84527
1.73069
1.73338
1.79396
1.87629
1.96718
2.0572
2.13883
2.20724
2.26033
2.29832
2.32293
2.33667
2.34254
2.34254
2.33787
2.32862
2.31343
2.28853
2.24796
2.18479
2.09185
1.96334
1.79654
1.59229
1.34292
1.05882
0.766325
0.487431
0.232509
0
0.297277
0.971454
2.07971
3.63991
5.51073
7.34576
8.64517
8.9301
7.98315
6.01902
3.64778
1.60806
0.418381
0.160714
0.519153
0.735728
0.934608
1.10314
1.23377
1.33388
1.40551
1.45349
1.48476
1.50746
1.52985
1.55886
1.59878
1.65026
1.71081
1.77408
1.83288
1.88172
1.91883
1.94682
1.97183
2.00141
2.04201
2.09603
2.16139
2.23438
2.31107
2.38749
2.46023
2.52728
2.58853
2.6458
2.70268
2.76398
2.83509
2.9212
3.02659
3.15394
3.30381
3.47496
3.66464
3.86892
4.08337
4.30369
4.5263
4.74863
4.96894
5.18511
5.39292
5.58461
5.74809
5.86826
5.93227
5.93377
5.87347
5.75574
5.58427
5.36037
5.09419
4.79998
4.48762
4.16468
3.83877
3.51737
3.2065
2.9111
2.63431
2.37742
2.14018
1.92133
1.71941
1.53341
1.36327
1.21071
1.07779
0.966752
0.879395
0.819466
0.786559
0.774645
0.776128
0.783812
0.792604
0.800276
0.807043
0.814295
0.823342
0.834236
0.84614
0.85864
0.873147
0.893355
0.924202
0.97005
1.03624
1.1138
1.18648
1.23706
1.25447
1.23841
1.1991
1.15286
1.11542
1.09424
1.08537
1.08641
1.08936
1.08537
1.06816
1.03671
0.996229
0.95676
0.929794
0.924057
0.946287
0.989534
1.03953
1.08024
1.0997
1.09364
1.06592
1.02641
0.987701
0.960719
0.950203
0.958463
0.989021
1.05042
1.15264
1.28824
1.4262
1.53194
1.57877
1.55818
1.48432
1.38946
1.31099
1.27525
1.28
1.30477
1.33261
1.34698
1.33773
1.30448
1.25626
1.20785
1.17416
1.16352
1.1733
1.1978
1.23223
1.27264
1.31521
1.3568
1.39529
1.42938
1.45883
1.4843
1.50713
1.52925
1.55296
1.58061
1.61405
1.65408
1.70003
1.74974
1.7999
1.84679
1.88728
1.91958
1.94358
1.96072
1.97336
1.98393
1.99403
2.00386
2.01205
2.01574
2.01141
1.99572
1.96652
1.92364
1.86925
1.80718
1.74404
1.68737
1.64407
1.61934
1.61596
1.63434
1.67291
1.72883
1.7986
1.87753
1.96153
2.04722
2.13134
2.21066
2.28218
2.34321
2.39162
2.42599
2.44549
2.44976
2.43885
2.41304
2.37289
2.31931
2.25363
2.17782
2.09457
2.00705
1.91861
1.83224
1.75005
1.67274
1.5986
1.52255
1.4372
1.33424
1.20619
1.04808
0.858607
0.64052
0.400174
0.106569
0
0.39143
1.48438
3.30951
5.60141
7.78528
9.14392
9.1156
7.57421
4.92657
1.95487
-0.517147
-1.95595
-2.27906
-1.69917
-0.945236
-0.200275
0.345886
0.547053
0.613925
0.65424
0.679913
0.696933
0.711985
0.731356
0.76044
0.804028
0.861179
0.921649
0.970251
0.992212
0.978056
0.927272
0.849695
0.763994
0.693376
0.65953
0.671341
0.722022
0.801054
0.903048
1.02062
1.1456
1.27022
1.38808
1.49479
1.5882
1.66839
1.73738
1.79859
1.85626
1.91485
1.9787
2.05171
2.13705
2.23787
2.35721
2.49776
2.66149
2.84922
3.06284
3.30498
3.57505
3.86737
4.16511
4.43754
4.67472
4.85882
4.94437
4.87467
4.61815
4.19624
3.6822
3.17119
2.73967
2.36662
2.01833
1.68473
1.36497
1.05895
0.767412
0.491994
0.235092
-0.000640321
-0.212938
-0.39958
-0.557918
-0.68961
-0.80116
-0.900015
-0.992466
-1.08183
-1.16754
-1.24557
-1.30992
-1.35466
-1.3783
-1.38165
-1.36487
-1.32866
-1.27727
-1.22412
-1.1851
-1.17347
-1.19611
-1.25059
-1.32503
-1.40129
-1.46048
-1.48858
-1.48772
-1.46649
-1.42883
-1.3784
-1.31907
-1.25561
-1.1942
-1.14064
-1.0998
-1.07511
-1.06812
-1.07827
-1.10306
-1.13829
-1.17858
-1.21816
-1.25211
-1.27649
-1.28889
-1.28793
-1.27495
-1.25242
-1.22281
-1.1875
-1.14622
-1.09735
-1.03903
-0.968973
-0.887161
-0.802938
-0.72965
-0.680292
-0.663085
-0.679071
-0.722664
-0.784571
-0.855308
-0.927409
-0.996658
-1.06035
-1.11375
-1.15158
-1.16798
-1.15761
-1.11731
-1.04765
-0.953625
-0.844233
-0.730909
-0.625871
-0.539205
-0.477085
-0.441165
-0.429252
-0.43698
-0.459827
-0.49477
-0.540011
-0.595225
-0.661121
-0.738969
-0.828277
-0.919134
-0.996417
-1.04479
-1.05361
-1.02023
-0.950287
-0.854862
-0.746147
-0.633671
-0.522534
-0.415426
-0.316708
-0.231802
-0.168651
-0.1355
-0.137361
-0.173202
-0.235429
-0.311871
-0.389117
-0.455543
-0.506766
-0.542273
-0.560616
-0.559802
-0.538692
-0.497351
-0.437425
-0.360253
-0.271022
-0.176906
-0.084624
0.00101566
0.0779357
0.146669
0.209435
0.268907
0.327243
0.385742
0.445147
0.506187
0.569855
0.637285
0.709241
0.785417
0.86389
0.940981
1.01163
1.07003
1.11042
1.12774
1.11818
1.07948
1.0112
0.915117
0.796281
0.661102
0.518029
0.377005
0.248632
0.142109
0.063591
0.0153034
0
0.00668478
0.0237111
0.0354939
0.0291673
-0.00279083
-0.0614926
-0.142171
-0.254856
-0.215525
0.199912
1.12956
2.60671
4.4327
6.14057
7.12498
6.91164
5.4246
3.08066
0.624603
-1.21743
-2.06706
-2.01412
-1.62829
-1.28854
-1.02774
-0.857348
-0.761806
-0.695414
-0.647804
-0.616477
-0.599386
-0.594438
-0.598843
-0.608644
-0.618708
-0.623257
-0.616863
-0.595625
-0.558968
-0.506571
-0.442459
-0.374134
-0.309768
-0.2562
-0.217212
-0.192465
-0.177258
-0.163171
-0.139507
-0.0955242
-0.0234198
0.0802244
0.227025
0.414505
0.611866
0.784338
0.906226
0.970739
0.992398
1.00113
1.03082
1.10729
1.23079
1.38493
1.55986
1.75011
1.95128
2.16022
2.37536
2.59724
2.8302
3.07943
3.33367
3.56616
3.74686
3.85464
3.8829
3.83555
3.71739
3.52706
3.25838
2.92334
2.54239
2.13401
1.71744
1.31175
0.928103
0.573042
0.25408
-0.0233248
-0.256029
-0.446608
-0.601227
-0.727686
-0.833878
-0.926455
-1.00997
-1.08666
-1.15679
-1.21942
-1.27371
-1.31924
-1.35586
-1.38424
-1.4059
-1.42252
-1.43548
-1.44539
-1.45195
-1.45411
-1.4505
-1.43976
-1.42071
-1.39478
-1.36781
-1.34736
-1.33997
-1.34861
-1.37105
-1.40011
-1.42566
-1.43776
-1.42954
-1.40224
-1.36047
-1.30763
-1.24662
-1.18002
-1.10958
-1.03626
-0.960377
-0.882225
-0.802718
-0.72445
-0.652848
-0.59458
-0.555937
-0.540717
-0.548491
-0.573968
-0.607863
-0.63917
-0.658074
-0.658675
-0.642995
-0.615787
-0.580977
-0.542089
-0.502508
-0.465124
-0.432052
-0.404588
-0.383319
-0.368314
-0.359322
-0.355965
-0.35771
-0.363901
-0.373678
-0.385887
-0.399026
-0.411287
-0.420717
-0.425498
-0.424331
-0.416818
-0.403426
-0.385837
-0.367933
-0.355618
-0.354873
-0.370016
-0.402032
-0.447561
-0.499009
-0.545905
-0.577239
-0.584115
-0.560541
-0.501569
-0.414017
-0.314973
-0.225502
-0.16425
-0.143841
-0.168924
-0.235431
-0.331056
-0.437404
-0.534211
-0.605035
-0.64531
-0.660367
-0.658441
-0.649847
-0.64213
-0.636327
-0.626039
-0.599827
-0.545947
-0.45164
-0.306604
-0.137838
0.0158518
0.118998
0.151671
0.113916
0.0220242
-0.0999945
-0.228886
-0.347716
-0.451575
-0.540466
-0.61256
-0.665454
-0.697383
-0.707352
-0.695317
-0.662357
-0.610774
-0.54405
-0.467118
-0.384484
-0.30043
-0.218223
-0.13956
-0.0643656
0.00893154
0.0826796
0.159055
0.23916
0.322309
0.406356
0.488098
0.563696
0.629328
0.681706
0.718369
0.737727
0.738913
0.721584
0.685811
0.632144
0.562051
0.478042
0.383885
0.284843
0.187421
0.0989029
0.0296614
0
0.0291143
0.0845472
0.119201
0.0830429
-0.0590149
-0.315227
-0.665687
-1.10181
-1.192
-0.525692
0.954158
3.05092
5.3451
7.28755
8.33767
8.13554
6.66574
4.32611
1.81678
-0.144341
-1.14128
-1.22309
-0.842924
-0.642936
-0.454715
-0.282751
-0.13185
-0.00640945
0.091478
0.162157
0.209493
0.241171
0.267438
0.298314
0.340279
0.393999
0.453372
0.51159
0.562043
0.600762
0.627778
0.646981
0.664703
0.687693
0.720555
0.764337
0.81886
0.883535
0.957248
1.03868
1.12672
1.22074
1.32067
1.42693
1.54018
1.66101
1.78956
1.92533
2.06706
2.21287
2.36057
2.50808
2.65384
2.7971
2.93807
3.07783
3.21819
3.36147
3.51025
3.66722
3.83596
4.027
4.26654
4.56414
4.87143
5.11782
5.24068
5.21551
5.06606
4.84672
4.60752
4.36422
4.10116
3.8162
3.5138
3.19694
2.86906
2.53562
2.20379
1.88156
1.57651
1.29491
1.04092
0.816367
0.621173
0.454082
0.313447
0.197896
0.106313
0.0379271
-0.00645981
-0.0267424
-0.0272116
-0.0159929
-0.0020586
0.00658512
0.00449219
-0.0104548
-0.0373282
-0.0733053
-0.115163
-0.160325
-0.207451
-0.256119
-0.306089
-0.356713
-0.406099
-0.45052
-0.484973
-0.504026
-0.502969
-0.478881
-0.431329
-0.362564
-0.277282
-0.18123
-0.0824638
0.0080883
0.0805586
0.12802
0.14802
0.143236
0.120739
0.0898743
0.0594139
0.035083
0.0172371
0.00364914
-0.00760155
-0.0185057
-0.0304764
-0.0441046
-0.0593325
-0.0758824
-0.093679
-0.112997
-0.134382
-0.158163
-0.1839
-0.209949
-0.233347
-0.250154
-0.256201
-0.246528
-0.215766
-0.16254
-0.0943454
-0.0254451
0.0290545
0.0574275
0.0545109
0.022994
-0.0274758
-0.0831112
-0.129935
-0.15854
-0.16825
-0.163552
-0.149057
-0.129172
-0.108621
-0.0915193
-0.0806015
-0.0766915
-0.0784551
-0.0824769
-0.083714
-0.0761022
-0.0450895
0.03839
0.15839
0.273655
0.333818
0.306196
0.197661
0.0564465
-0.0495562
-0.0663032
0.0194365
0.163694
0.330024
0.481215
0.589988
0.642666
0.637307
0.580462
0.48571
0.37394
0.27049
0.200178
0.214658
0.41752
0.740232
1.05749
1.24691
1.24216
1.0592
0.787276
0.55102
0.456579
0.515621
0.621559
0.735617
0.825018
0.870558
0.875056
0.863118
0.871113
0.931289
1.0572
1.24023
1.44466
1.62605
1.74837
1.79577
1.77503
1.70993
1.63173
1.57034
1.54092
1.5412
1.5664
1.61276
1.67787
1.75572
1.83891
1.91944
1.9883
2.03617
2.05644
2.04471
1.99914
1.92075
1.81317
1.68183
1.53244
1.36949
1.19593
1.01379
0.823418
0.624445
0.416859
0.185729
0
0.364145
1.45679
3.25738
5.49082
7.64081
9.06797
9.23121
7.94001
5.49909
2.62866
0.171141
-1.26581
-1.53056
-0.867466
-0.0658221
0.598795
0.992085
1.0636
1.06359
1.02356
0.974139
0.937285
0.921939
0.919549
0.925337
0.936815
0.953942
0.979132
1.01577
1.06605
1.12924
1.20054
1.27432
1.3449
1.40842
1.46397
1.51354
1.56088
1.60972
1.66223
1.71843
1.77624
1.8332
1.8884
1.94403
2.00579
2.08185
2.18057
2.30783
2.46402
2.64659
2.84707
3.05557
3.26428
3.47014
3.67553
3.88655
4.10989
4.34929
4.60303
4.86308
5.12178
5.37069
5.6004
5.8001
5.95832
6.06643
6.11788
6.10599
6.02441
5.86839
5.63665
5.33296
4.96711
4.55448
4.11636
3.67311
3.23948
2.82761
2.44684
2.10319
1.79946
1.53567
1.30993
1.11927
0.960439
0.830316
0.726066
0.645838
0.589342
0.554332
0.532395
0.513927
0.490143
0.455286
0.40818
0.352349
0.294521
0.241976
0.199784
0.169399
0.147551
0.128483
0.107
0.0813843
0.0549171
0.0352782
0.0319766
0.052746
0.110901
0.199046
0.294224
0.370043
0.407482
0.402295
0.365827
0.319307
0.28466
0.276193
0.289149
0.314467
0.346345
0.380178
0.411635
0.437181
0.454304
0.461504
0.458112
0.444082
0.41986
0.386368
0.345115
0.298273
0.248543
0.199583
0.155428
0.119877
0.0959491
0.0854955
0.0890813
0.106133
0.135239
0.174434
0.221066
0.272663
0.325708
0.374203
0.410862
0.428574
0.422361
0.391347
0.339864
0.277013
0.214548
0.163579
0.136252
0.134343
0.142869
0.140618
0.110793
0.0501998
-0.0276525
-0.0973746
-0.132475
-0.107288
-0.0270072
0.0761865
0.161043
0.19708
0.178025
0.122656
0.063817
0.032161
0.0429269
0.0783301
0.124269
0.173716
0.220738
0.261501
0.294974
0.322914
0.349257
0.379089
0.417329
0.469159
0.543615
0.644553
0.750807
0.832223
0.860061
0.818767
0.7136
0.569557
0.4215
0.300789
0.222731
0.173599
0.145102
0.136658
0.14767
0.177901
0.227341
0.295811
0.382499
0.48561
0.602212
0.728298
0.858801
0.988491
1.1112
1.221
1.31262
1.3817
1.42511
1.44098
1.4288
1.38937
1.32484
1.23899
1.13738
1.02607
0.91124
0.79883
0.693582
0.598103
0.513317
0.438072
0.36862
0.299176
0.22338
0.135638
0.0322536
-0.0881784
-0.22305
-0.375944
-0.447262
0
1.10919
2.82228
4.8517
6.72973
7.93823
8.08262
7.05673
5.1222
2.83489
0.820538
-0.495539
-1.04587
-1.06086
-0.92611
-0.788379
-0.645982
-0.496996
-0.340948
-0.181686
-0.02397
0.126803
0.265449
0.38809
0.490991
0.572597
0.634134
0.679593
0.714955
0.746779
0.780524
0.819127
0.8622
0.906727
0.948016
0.98126
1.0031
1.01278
1.0127
1.00823
1.00696
1.01745
1.04701
1.10049
1.18018
1.28606
1.41615
1.56672
1.73252
1.90748
2.0858
2.26279
2.43571
2.6041
2.76957
2.93511
3.10403
3.27875
3.45984
3.64573
3.83147
4.00896
4.16886
4.30208
4.40095
4.45966
4.47409
4.44137
4.35953
4.22807
4.05058
3.83025
3.57138
3.28038
2.96542
2.63566
2.30036
1.96714
1.64244
1.33152
1.03855
0.766795
0.51868
0.295778
0.0986355
-0.0733565
-0.221915
-0.349686
-0.4597
-0.554678
-0.635149
-0.70001
-0.748332
-0.778346
-0.788784
-0.780126
-0.755238
-0.719124
-0.677928
-0.637617
-0.602641
-0.575332
-0.556947
-0.547669
-0.546965
-0.553478
-0.565697
-0.581594
-0.598739
-0.614668
-0.627422
-0.635568
-0.640096
-0.644492
-0.652874
-0.667859
-0.688626
-0.710033
-0.723244
-0.717736
-0.684003
-0.612488
-0.48411
-0.297781
-0.0889929
0.0966074
0.221509
0.264282
0.222517
0.112101
-0.0369751
-0.188665
-0.311662
-0.396469
-0.452985
-0.491743
-0.518431
-0.535223
-0.543559
-0.544334
-0.538075
-0.525268
-0.506703
-0.483629
-0.457523
-0.430058
-0.402863
-0.377299
-0.354353
-0.334505
-0.317692
-0.303309
-0.290268
-0.27712
-0.262295
-0.244442
-0.222797
-0.197239
-0.169091
-0.141315
-0.117668
-0.101885
-0.0968126
-0.10374
-0.122044
-0.149192
-0.181035
-0.212324
-0.237945
-0.253607
-0.255546
-0.238666
-0.198186
-0.137267
-0.0683428
-0.00643654
0.0350578
0.0482273
0.0328812
-0.00339317
-0.0471718
-0.0823975
-0.0952452
-0.0693102
0.0327726
0.191953
0.351728
0.445752
0.42557
0.284027
0.0615644
-0.169572
-0.334915
-0.323459
0.0860268
0.684136
1.21845
1.4878
1.41299
1.06135
0.608044
0.254806
0.146935
0.21594
0.314551
0.412503
0.497956
0.563402
0.607092
0.63329
0.651275
0.673359
0.718432
0.84362
1.12358
1.50403
1.86605
2.11943
2.22101
2.16678
1.97431
1.67468
1.32043
0.996996
0.782325
0.660769
0.583411
0.52205
0.464558
0.401823
0.325741
0.230385
0.112873
-0.0270916
-0.185317
-0.370193
-0.467628
0
1.21494
3.12183
5.38708
7.46721
8.75918
8.80786
7.50976
5.20826
2.59384
0.421453
-0.814079
-1.0559
-0.621635
-0.304432
-0.0232353
0.19659
0.343316
0.44826
0.525159
0.580515
0.621778
0.656676
0.6927
0.736629
0.797117
0.898219
1.08914
1.35624
1.62887
1.82108
1.87031
1.76749
1.56144
1.33674
1.17975
1.14999
1.20523
1.30041
1.41872
1.55348
1.69941
1.85179
2.00696
2.16266
2.31797
2.47307
2.62894
2.78698
2.94885
3.11631
3.29109
3.47467
3.66797
3.87104
4.08284
4.30123
4.52312
4.7452
4.96367
5.17247
5.36303
5.52851
5.66174
5.75603
5.80638
5.81019
5.76697
5.6773
5.54177
5.36099
5.14172
4.89049
4.61243
4.3125
3.99634
3.67004
3.33926
3.0093
2.68529
2.37217
2.07457
1.79671
1.54225
1.31392
1.11344
0.941426
0.796751
0.677202
0.57991
0.501865
0.440356
0.3932
0.358743
0.335657
0.322499
0.317383
0.317845
0.320515
0.32045
0.312121
0.290723
0.253391
0.200229
0.134713
0.0631933
-0.0064949
-0.0669539
-0.113121
-0.1428
-0.157501
-0.1609
-0.156995
-0.148419
-0.135584
-0.116957
-0.0902988
-0.0542715
-0.00998058
0.0396658
0.0887152
0.130454
0.159325
0.172486
0.170505
0.156994
0.137424
0.117553
0.101955
0.0925053
0.0889374
0.0901793
0.0943934
0.0989616
0.100605
0.0967461
0.0865114
0.0715477
0.0562971
0.0474461
0.0524939
0.0777433
0.129169
0.211264
0.312384
0.413241
0.494631
0.543835
0.558451
0.546346
0.521854
0.499735
0.489157
0.491297
0.495256
0.485186
0.449049
0.385953
0.30823
0.237031
0.193651
0.190978
0.217406
0.262687
0.319388
0.379307
0.434273
0.478325
0.508883
0.526978
0.536831
0.544778
0.55761
0.583213
0.627382
0.680601
0.724955
0.74155
0.719222
0.660512
0.582133
0.509665
0.468709
0.473614
0.523215
0.617494
0.735898
0.848787
0.928734
0.956584
0.92465
0.837677
0.712083
0.573194
0.44998
0.365867
0.326527
0.327478
0.37372
0.454154
0.540323
0.60336
0.621762
0.58789
0.511934
0.421533
0.355494
0.352155
0.433789
0.586969
0.820462
1.08665
1.32972
1.5044
1.58757
1.57955
1.497
1.36287
1.19827
1.02016
0.842506
0.673656
0.518688
0.381072
0.262966
0.167654
0.097201
0.0442923
-0.00184822
-0.0527878
-0.117793
-0.201324
-0.301907
-0.41743
-0.442549
0
1.01008
2.568
4.45266
6.24208
7.42257
7.57777
6.57308
4.63417
2.26962
0.0753405
-1.48303
-2.2103
-2.09864
-1.6677
-1.12718
-0.645494
-0.318227
-0.153629
-0.0462711
0.0394241
0.111886
0.172094
0.222506
0.267583
0.31336
0.366519
0.433089
0.517094
0.61877
0.736905
0.867075
0.998756
1.11897
1.21617
1.28271
1.31637
1.32064
1.3038
1.27717
1.25313
1.24312
1.25479
1.29219
1.35776
1.45491
1.5864
1.75324
1.95408
2.18478
2.43902
2.70863
2.98347
3.25461
3.51589
3.76469
4.00155
4.22884
4.44831
4.65922
4.85706
5.03352
5.17827
5.28202
5.33889
5.34727
5.30927
5.22939
5.11275
4.96371
4.78653
4.58482
4.36187
4.12088
3.86488
3.59684
3.32028
3.03943
2.75874
2.48247
2.21425
1.95697
1.71274
1.48304
1.26887
1.07087
0.889364
0.724405
0.576066
0.445448
0.333909
0.241994
0.170423
0.119824
0.0902286
0.0805994
0.0885635
0.11046
0.141708
0.177387
0.212907
0.244858
0.270897
0.28978
0.301334
0.306272
0.305939
0.302053
0.296478
0.290949
0.286987
0.285905
0.288911
0.297084
0.311725
0.33454
0.367584
0.412875
0.471696
0.545503
0.634195
0.729264
0.817898
0.886881
0.926182
0.931494
0.904901
0.853706
0.788215
0.719433
220
464
710
959
1213
1460
1697
1938
2177
2421
2672
2918
3154
3391
3626
3669
3260
3443
3625
3372
3548
3722
0
0
0
0
0
0
0
0
0
0
0
0
0
0
0
0
0
0
0
0
0
0
0
0
0
0
0
0
0
0
0
0
0
0
0
0
0
0
0
0
0
0
0
0
0
0
0
0
0
0
0
0
0
0
0
0
0
0
0
0
0
0
0
0
0
0
0
0
0
0
0
0
0
0
0
0
0
0
0
0
0
0
0
0
0
0
0
0
0
0
0
0
0
0
0
0
0
0
0
0
0
0
0
0
0
0
0
0
0
0
0
0
0
0
0
0
0
0
0
0
0
0
0
0
0
0
0
0
0
0
0
0
0
0
0
0
0
0
0
0
0
0
0
0
0
0
0
0
0
0
0
0
0
0
0
0
0
0
0
0
0
0
0
0
0
0
0
0
0
0
0
0
0
0
0
0
0
0
0
0
0
0
0
0
0
0
0
0
0
0
0
0
0
0
0
0
0
0
0
0
0
0
0
0
0
0
0
0
0
0
0
0
0
0
0
0
0
0
0
0
0
0
0
0
0
0
0
0
0
0
0
0
0
0
0
0
0
0
0
0
0
0
0
0
0
0
0
0
0
0
0
0
0
0
0
0
0
0
0
0
0
0
0
0
0
0
0
0
0
0
0
0
0
0
0
0
0
0
0
0
0
0
0
0
0
0
0
0
0
0
0
0
0
0
0
0
0
0
0
0
0
0
0
0
0
0
0
0
0
0
0
0
0
0
0
0
0
0
0
0
0
0
0
0
0
0
0
0
0
0
0
0
0
0
0
0
0
0
0
0
0
0
0
0
0
0
0
0
0
0
0
0
0
0
0
0
0
0
0
0
0
0
0
0
0
0
0
0
0
0
0
0
0
0
0
0
0
0
0
0
0
0
0
0
0
0
0
0
0
0
0
0
0
0
0
0
0
0
0
0
0
0
0
0
0
0
0
0
0
0
0
0
0
0
0
0
0
0
0
0
0
0
0
0
0
0
0
0
0
0
0
0
0
0
0
0
0
0
0
0
0
0
0
0
0
0
0
0
0
0
0
0
0
0
0
0
0
0
0
0
0
0
0
0
0
0
0
0
0
0
0
0
0
0
0
0
0
0
0
0
0
0
0
0
0
0
0
0
0
0
0
0
0
0
0
0
0
0
0
0
0
0
0
0
0
0
0
0
0
0
0
0
0
0
0
0
0
0
0
0
0
0
0
0
0
0
0
0
0
0
0
0
0
0
0
0
0
0
0
0
0
0
0
0
0
0
0
0
0
0
0
0
0
0
0
0
0
0
0
0
0
0
0
0
0
0
0
0
0
0
0
0
0
0
0
0
0
0
0
0
0
0
0
0
0
0
0
0
0
0
0
0
0
0
0
0
0
0
0
0
0
0
0
0
0
0
0
0
0
0
0
0
0
0
0
0
0
0
0
0
0
0
0
0
0
0
0
0
0
0
0
0
0
0
0
0
0
0
0
0
0
0
0
0
0
0
0
0
0
0
0
0
0
0
0
0
0
0
0
0
0
0
0
0
0
0
0
0
0
0
0
0
0
0
0
0
0
0
0
0
0
0
0
0
0
0
0
0
0
0
0
0
0
0
0
0
0
0
0
0
0
0
0
0
0
0
0
0
0
0
0
0
0
0
0
0
0
0
0
0
0
0
0
0
0
0
0
0
0
0
0
0
0
0
0
0
0
0
0
0
0
0
0
0
0
0
0
0
0
0
0
0
0
0
0
0
0
0
0
0
0
0
0
0
0
0
0
0
0
0
0
0
0
0
0
0
0
0
0
0
0
0
0
0
0
0
0
0
0
0
0
0
0
0
0
0
0
0
0
0
0
0
0
0
0
0
0
0
0
0
0
0
0
0
0
0
0
0
0
0
0
0
0
0
0
0
0
0
0
0
0
0
0
0
0
0
0
0
0
0
0
0
0
0
0
0
0
0
0
0
0
0
0
0
0
0
0
0
0
0
0
0
0
0
0
0
0
0
0
0
0
0
0
0
0
0
0
0
0
0
0
0
0
0
0
0
0
0
0
0
0
0
0
0
0
0
0
0
0
0
0
0
0
0
0
0
0
0
0
0
0
0
0
0
0
0
0
0
0
0
0
0
0
0
0
0
0
0
0
0
0
0
0
0
0
0
0
0
0
0
0
0
0
0
0
0
0
0
0
0
0
0
0
0
0
0
0
0
0
0
0
0
0
0
0
0
0
0
0
0
0
0
0
0
0
0
0
0
0
0
0
0
0
0
0
0
0
0
0
0
0
0
0
0
0
0
0
0
0
0
0
0
0
0
0
0
0
0
0
0
0
0
0
0
0
0
0
0
0
0
0
0
0
0
0
0
0
0
0
0
0
0
0
0
0
0
0
0
0
0
0
0
0
0
0
0
0
0
0
0
0
0
0
0
0
0
0
0
0
0
0
0
0
0
0
0
0
0
0
0
0
0
0
0
0
0
0
0
0
0
0
0
0
0
0
0
0
0
0
0
0
0
0
0
0
0
0
0
0
0
0
0
0
0
0
0
0
0
0
0
0
0
0
0
0
0
0
0
0
0
0
0
0
0
0
0
0
0
0
0
0
0
0
0
0
0
0
0
0
0
0
0
0
0
0
0
0
0
0
0
0
0
0
0
0
0
0
0
0
0
0
0
0
0
0
0
0
0
0
0
0
0
0
0
0
0
0
0
0
0
0
0
0
0
0
0
0
0
0
0
0
0
0
0
0
0
0
0
0
0
0
0
0
0
0
0
0
0
0
0
0
0
0
0
0
0
0
0
0
0
0
0
0
0
0
0
0
0
0
0
0
0
0
0
0
0
0
0
0
0
0
0
0
0
0
0
0
0
0
0
0
0
0
0
0
0
0
0
0
0
0
0
0
0
0
0
0
0
0
0
0
0
0
0
0
0
0
0
0
0
0
0
0
0
0
0
0
0
0
0
0
0
0
0
0
0
0
0
0
0
0
0
0
0
0
0
0
0
0
0
0
0
0
0
0
0
0
0
0
0
0
0
0
0
0
0
0
0
0
0
0
0
0
0
0
0
0
0
0
0
0
0
0
0
0
0
0
0
0
0
0
0
0
0
0
0
0
0
0
0
0
0
0
0
0
0
0
0
0
0
0
0
0
0
0
0
0
0
0
0
0
0
0
0
0
0
0
0
0
0
0
0
0
0
0
0
0
0
0
0
0
0
0
0
0
0
0
0
0
0
0
0
0
0
0
0
0
0
0
0
0
0
0
0
0
0
0
0
0
0
0
0
0
0
0
0
0
0
0
0
0
0
0
0
0
0
0
0
0
0
0
0
0
0
0
0
0
0
0
0
0
0
0
0
0
0
0
0
0
0
0
0
0
0
0
0
0
0
0
0
0
0
0
0
0
0
0
0
0
0
0
0
0
0
0
0
0
0
0
0
0
0
0
0
0
0
0
0
0
0
0
0
0
0
0
0
0
0
0
0
0
0
0
0
0
0
0
0
0
0
0
0
0
0
0
0
0
0
0
0
0
0
0
0
0
0
0
0
0
0
0
0
0
0
0
0
0
0
0
0
0
0
0
0
0
0
0
0
0
0
0
0
0
0
0
0
0
0
0
0
0
0
0
0
0
0
0
0
0
0
0
0
0
0
0
0
0
0
0
0
0
0
0
0
0
0
0
0
0
0
0
0
0
0
0
0
0
0
0
0
0
0
0
0
0
0
0
0
0
0
0
0
0
0
0
0
0
0
0
0
0
0
0
0
0
0
0
0
0
0
0
0
0
0
0
0
0
0
0
0
0
0
0
0
0
0
0
0
0
0
0
0
0
0
0
0
0
0
0
0
0
0
0
0
0
0
0
0
0
0
0
0
0
0
0
0
0
0
0
0
0
0
0
0
0
0
0
0
0
0
0
0
0
0
0
0
0
0
0
0
0
0
0
0
0
0
0
0
0
0
0
0
0
0
0
0
0
0
0
0
0
0
0
0
0
0
0
0
0
0
0
0
0
0
0
0
0
0
0
0
0
0
0
0
0
0
0
0
0
0
0
0
0
0
0
0
0
0
0
0
0
0
0
0
0
0
0
0
0
0
0
0
0
0
0
0
0
0
0
0
0
0
0
0
0
0
0
0
0
0
0
0
0
0
0
0
0
0
0
0
0
0
0
0
0
0
0
0
0
0
0
0
0
0
0
0
0
0
0
0
0
0
0
0
0
0
0
0
0
0
0
0
0
0
0
0
0
0
0
0
0
0
0
0
0
0
0
0
0
0
0
0
0
0
0
0
0
0
0
0
0
0
0
0
0
0
0
0
0
0
0
0
0
0
0
0
0
0
0
0
0
0
0
0
0
0
0
0
0
0
0
0
0
0
0
0
0
0
0
0
0
0
0
0
0
0
0
0
0
0
0
0
0
0
0
0
0
0
0
0
0
0
0
0
0
0
0
0
0
0
0
0
0
0
0
0
0
0
0
0
0
0
0
0
0
0
0
0
0
0
0
0
0
0
0
0
0
0
0
0
0
0
0
0
0
0
0
0
0
0
0
0
0
0
0
0
0
0
0
0
0
0
0
0
0
0
0
0
0
0
0
0
0
0
0
0
0
0
0
0
0
0
0
0
0
0
0
0
0
0
0
0
0
0
0
0
0
0
0
0
0
0
0
0
0
0
0
0
0
0
0
0
0
0
0
0
0
0
0
0
0
0
0
0
0
0
0
0
0
0
0
0
0
0
0
0
0
0
0
0
0
0
0
0
0
0
0
0
0
0
0
0
0
0
0
0
0
0
0
0
0
0
0
0
0
0
0
0
0
0
0
0
0
0
0
0
0
0
0
0
0
0
0
0
0
0
0
0
0
0
0
0
0
0
0
0
0
0
0
0
0
0
0
0
0
0
0
0
0
0
0
0
0
0
0
0
0
0
0
0
0
0
0
0
0
0
0
0
0
0
0
0
0
0
0
0
0
0
0
0
0
0
0
0
0
0
0
0
0
0
0
0
0
0
0
0
0
0
0
0
0
0
0
0
0
0
0
0
0
0
0
0
0
0
0
0
0
0
0
0
0
0
0
0
0
0
0
0
0
0
0
0
0
0
0
0
0
0
0
0
0
0
0
0
0
0
0
0
0
0
0
0
0
0
0
0
0
0
0
0
0
0
0
0
0
0
0
0
0
0
0
0
0
0
0
0
0
0
0
0
0
0
0
0
0
0
0
0
0
0
0
0
0
0
0
0
0
0
0
0
0
0
0
0
0
0
0
0
0
0
0
0
0
0
0
0
0
0
0
0
0
0
0
0
0
0
0
0
0
0
0
0
0
0
0
0
0
0
0
0
0
0
0
0
0
0
0
0
0
0
0
0
0
0
0
0
0
0
0
0
0
0
0
0
0
0
0
0
0
0
0
0
0
0
0
0
0
0
0
0
0
0
0
0
0
0
0
0
0
0
0
0
0
0
0
0
0
0
0
0
0
0
0
0
0
0
0
0
0
0
0
0
0
0
0
0
0
0
0
0
0
0
0
0
0
0
0
0
0
0
0
0
0
0
0
0
0
0
0
0
0
0
0
0
0
0
0
0
0
0
0
0
0
0
0
0
0
0
0
0
0
0
0
0
0
0
0
0
0
0
0
0
0
0
0
0
0
0
0
0
0
0
0
0
0
0
0
0
0
0
0
0
0
0
0
0
0
0
0
0
0
0
0
0
0
0
0
0
0
0
0
0
0
0
0
0
0
0
0
0
0
0
0
0
0
0
0
0
0
0
0
0
0
0
0
0
0
0
0
0
0
0
0
0
0
0
0
0
0
0
0
0
0
0
0
0
0
0
0
0
0
0
0
0
0
0
0
0
0
0
0
0
0
0
0
0
0
0
0
0
0
0
0
0
0
0
0
0
0
0
0
0
0
0
0
0
0
0
0
0
0
0
0
0
0
0
0
0
0
0
0
0
0
0
0
0
0
0
0
0
0
0
0
0
0
0
0
0
0
0
0
0
0
0
0
0
0
0
0
0
0
0
0
0
0
0
0
0
0
0
0
0
0
0
0
0
0
0
0
0
0
0
0
0
0
0
0
0
0
0
0
0
0
0
0
0
0
0
0
0
0
0
0
0
0
0
0
0
0
0
0
0
0
0
0
0
0
0
0
0
0
0
0
0
0
0
0
0
0
0
0
0
0
0
0
0
0
0
0
0
0
0
0
0
0
0
0
0
0
0
0
0
0
0
0
0
0
0
0
0
0
0
0
0
0
0
0
0
0
0
0
0
0
0
0
0
0
0
0
0
0
0
0
0
0
0
0
0
0
0
0
0
0
0
0
0
0
0
0
0
0
0
0
0
0
0
0
0
0
0
0
0
0
0
0
0
0
0
0
0
0
0
0
0
0
0
0
0
0
0
0
0
0
0
0
0
0
0
0
0
0
0
0
0
0
0
0
0
0
0
0
0
0
0
0
0
0
0
0
0
0
0
0
0
0
0
0
0
0
0
0
0
0
0
0
0
0
0
0
0
0
0
0
0
0
0
0
0
0
0
0
0
0
0
0
0
0
0
0
0
0
0
0
0
0
0
0
0
0
0
0
0
0
0
0
0
0
0
0
0
0
0
0
0
0
0
0
0
0
0
0
0
0
0
0
0
0
0
0
0
0
0
0
0
0
0
0
0
0
0
0
0
0
0
0
0
0
0
0
0
0
0
0
0
0
0
0
0
0
0
0
0
0
0
0
0
0
0
0
0
0
0
0
0
0
0
0
0
0
0
0
0
0
0
0
0
0
0
0
0
0
0
0
0
0
0
0
0
0
0
0
0
0
0
0
0
0
0
0
0
0
0
0
0
0
0
0
0
0
0
0
0
0
0
0
0
0
0
0
0
0
0
0
0
0
0
0
0
0
0
0
0
0
0
0
0
0
0
0
0
0
0
0
0
0
0
0
0
0
0
0
0
0
0
0
0
0
0
0
0
0
0
0
0
0
0
0
0
0
0
0
0
0
0
0
0
0
0
0
0
0
0
0
0
0
0
0
0
0
0
0
0
0
0
0
0
0
0
0
0
0
0
0
0
0
0
0
0
0
0
0
0
0
0
0
0
0
0
0
0
0
0
0
0
0
0
0
0
0
0
0
0
0
0
0
0
0
0
0
0
0
0
0
0
0
0
0
0
0
0
0
0
0
0
0
0
0
0
0
0
0
0
0
0
0
0
0
0
0
0
0
0
0
0
0
0
0
0
0
0
0
0
0
0
0
0
0
0
0
0
0
0
0
0
0
0
0
0
0
0
0
0
0
0
0
0
0
0
0
0
0
0
0
0
0
0
0
0
0
0
0
0
0
0
0
0
0
0
0
0
0
0
0
0
0
0
0
0
0
0
0
0
0
0
0
0
0
0
0
0
0
0
0
0
0
0
0
0
0
0
0
0
0
0
0
0
0
0
0
0
0
0
0
0
0
0
0
0
0
0
0
0
0
0
0
0
0
0
0
0
0
0
0
0
0
0
0
0
0
0
0
0
0
0
0
0
0
0
0
0
0
0
0
0
0
0
0
0
0
0
0
0
0
0
0
0
0
0
0
0
0
0
0
0
0
0
0
0
0
0
0
0
0
0
0
0
0
0
0
0
0
0
0
0
0
0
0
0
0
0
0
0
0
0
0
0
0
0
0
0
0
0
0
0
0
0
0
0
0
0
0
0
0
0
0
0
0
0
0
0
0
0
0
0
0
0
0
0
0
0
0
0
0
0
0
0
0
0
0
0
0
0
0
0
0
0
0
0
0
0
0
0
0
0
0
0
0
0
0
0
0
0
0
0
0
0
0
0
0
0
0
0
0
0
0
0
0
0
0
0
0
0
0
0
0
0
0
0
0
0
0
0
0
0
0
0
0
0
0
0
0
0
0
0
0
0
0
0
0
0
0
0
0
0
0
0
0
0
0
0
0
0
0
0
0
0
0
0
0
0
0
0
0
0
0
0
0
0
0
0
0
0
0
0
0
0
0
0
0
0
0
0
0
0
0
0
0
0
0
0
0
0
0
0
0
0
0
0
0
0
0
0
0
0
0
0
0
0
0
0
0
0
0
0
0
0
0
0
0
0
0
0
0
0
0
0
0
0
0
0
0
0
0
0
0
0
0
0
0
0
0
0
0
0
0
0
0
0
0
0
0
0
0
0
0
0
0
0
0
0
0
0
0
0
0
0
0
0
0
0
0
0
0
0
0
0
0
0
0
0
0
0
0
0
0
0
0
0
0
0
0
0
0
0
0
0
0
0
0
0
0
0
0
0
0
0
0
0
0
0
0
0
0
0
0
0
0
0
0
0
0
0
0
0
0
0
0
0
0
0
0
0
0
0
0
0
0
0
0
0
0
0
0
0
0
0
0
0
0
0
0
0
0
0
0
0
0
0
0
0
0
0
0
0
0
0
0
0
0
0
0
0
0
0
0
0
0
0
0
0
0
0
0
0
0
0
0
0
0
0
0
