3.11343
3.48505
3.61754
3.7616
3.88226
3.98407
4.06621
4.12312
4.15241
4.15467
4.13291
4.0917
4.03655
3.97413
3.9099
3.84811
3.79205
3.7438
3.70424
3.67423
3.65401
3.64335
3.64237
3.65196
3.67396
3.71091
3.7654
3.83924
3.93261
4.04294
4.166
4.29631
4.4277
4.55437
4.67176
4.77655
4.86712
4.94418
5.01007
5.06821
5.12242
5.17631
5.23365
5.29736
5.36319
5.42214
5.46313
5.47617
5.45425
5.39361
5.29273
5.15176
4.97321
4.76997
4.55223
4.32704
4.10053
3.8779
3.66239
3.45605
3.25941
3.07183
2.89202
2.71871
2.55119
2.38965
2.23528
2.09003
1.95615
1.8357
1.73056
1.64207
1.56925
1.5097
1.46062
1.41958
1.3851
1.35687
1.33534
1.32135
1.31651
1.31925
1.32375
1.32264
1.30955
1.2816
1.24096
1.19464
1.15281
1.12621
1.12121
1.16047
1.26915
1.42064
1.56643
1.66037
1.67331
1.60318
1.4769
1.34135
1.24496
1.21642
1.22878
1.25598
1.28629
1.30848
1.31443
1.301
1.27058
1.23025
1.18981
1.15909
1.14367
1.14336
1.15515
1.17634
1.20307
1.23062
1.2544
1.2706
1.27668
1.27153
1.25533
1.22946
1.19617
1.15866
1.1203
1.08437
1.05403
1.03206
1.02129
1.02451
1.04224
1.06937
1.09735
1.11795
1.12602
1.12129
1.10851
1.0958
1.09157
1.10129
1.12737
1.16244
1.19417
1.20994
1.2013
1.16642
1.10969
1.03932
0.964492
0.893348
0.830212
0.781963
0.754205
0.751593
0.776405
0.827097
0.897713
0.978683
1.05891
1.1283
1.1824
1.22044
1.24126
1.24479
1.23125
1.20141
1.15589
1.0939
1.01466
0.917844
0.804088
0.675532
0.535856
0.389056
0.243958
0.113643
0.0107132
-0.0553253
-0.0802286
-0.0658741
-0.0194071
0.0491148
0.12971
0.21488
0.300377
0.0641066
0
0.500754
1.90404
4.2774
7.21992
9.85652
11.1327
10.3214
7.46299
3.4351
-0.437662
-3.0199
-3.86301
-3.28274
-2.03167
-0.831456
-0.058758
0.280807
0.375877
0.407855
0.443402
0.481151
0.521866
0.565811
0.612632
0.661291
0.709699
0.755386
0.796143
0.83063
0.858768
0.881791
0.901951
0.921994
0.944614
0.971756
1.00506
1.04584
1.09529
1.15466
1.22518
1.30784
1.40303
1.51019
1.6278
1.75341
1.8847
2.01994
2.15853
2.3012
2.44975
2.60664
2.77842
2.97295
3.18548
3.39242
3.5666
3.68856
3.74939
3.74879
3.69199
3.58832
3.45072
3.29398
3.13082
2.96654
2.80051
2.63154
2.45926
2.28366
2.10539
1.92608
1.74811
1.57418
1.40678
1.24779
1.0981
0.957664
0.825601
0.700571
0.581161
0.466255
0.355265
0.248217
0.145703
0.0487352
-0.0414181
-0.123391
-0.19585
-0.257623
-0.307832
-0.345991
-0.372037
-0.386341
-0.390077
-0.38617
-0.37889
-0.372178
-0.368756
-0.369534
-0.373529
-0.378337
-0.381018
-0.379071
-0.371441
-0.358931
-0.34294
-0.324995
-0.306812
-0.290053
-0.276006
-0.265403
-0.258352
-0.254344
-0.252366
-0.251085
-0.249099
-0.245214
-0.238696
-0.229425
-0.217832
-0.204917
-0.191927
-0.180017
-0.169923
-0.161724
-0.154756
-0.147703
-0.138867
-0.12658
-0.109629
-0.0867453
-0.0583632
-0.0297279
-0.00844593
-0.00181675
-0.0140909
-0.0445114
-0.0870708
-0.132237
-0.17005
-0.193378
-0.203615
-0.20234
-0.193522
-0.182532
-0.174314
-0.171975
-0.175965
-0.18403
-0.191934
-0.194777
-0.188532
-0.171447
-0.142101
-0.106209
-0.071769
-0.0459757
-0.0323469
-0.0292866
-0.0307501
-0.028735
-0.0164938
0.00866547
0.0427231
0.081452
0.121905
0.161508
0.19868
0.233143
0.265836
0.298466
0.332848
0.370397
0.411844
0.455189
0.495947
0.52881
0.549269
0.554967
0.546283
0.526004
0.498252
0.467125
0.435561
0.404605
0.374141
0.343558
0.312172
0.279669
0.246461
0.213831
0.183793
0.158802
0.142605
0.139922
0.148599
0.160614
0.165582
0.154392
0.122447
0.0290876
-0.179826
0
0.891221
2.71195
5.39056
8.4167
10.8821
11.7974
10.5845
7.4522
3.37809
-0.341235
-2.70475
-3.4074
-2.81763
-1.62816
-0.460352
0.345153
0.721068
0.713656
0.661286
0.612884
0.574858
0.552619
0.549993
0.565655
0.597685
0.644482
0.703532
0.771895
0.844164
0.914748
0.978758
1.03281
1.07555
1.10772
1.1319
1.1519
1.17199
1.19603
1.22712
1.26801
1.3209
1.3876
1.46946
1.56763
1.68284
1.81509
1.96344
2.12576
2.29875
2.47813
2.65922
2.83739
3.00851
3.16923
3.31703
3.44977
3.56486
3.65923
3.73123
3.77984
3.80363
3.80102
3.77062
3.71141
3.62293
3.50545
3.36032
3.19249
3.00878
2.81568
2.61958
2.42712
2.24479
2.07869
1.93562
1.81973
1.7276
1.65223
1.58482
1.51686
1.44198
1.35707
1.26254
1.16175
1.05987
0.961519
0.869784
0.787624
0.716277
0.6542
0.598682
0.547124
0.498371
0.454333
0.420541
0.404955
0.415648
0.457737
0.530946
0.633311
0.749658
0.861693
0.953376
1.01528
1.04628
1.05223
1.04241
1.02558
1.00733
0.989295
0.971321
0.952786
0.933239
0.912814
0.892357
0.873309
0.857448
0.846281
0.841293
0.843732
0.854374
0.873409
0.900407
0.9344
0.97409
1.01812
1.06533
1.11482
1.16609
1.2187
1.27133
1.3206
1.3612
1.387
1.39291
1.37694
1.34161
1.29408
1.24488
1.20559
1.18564
1.18721
1.2078
1.24921
1.31482
1.41002
1.53482
1.66956
1.78494
1.84553
1.81903
1.69198
1.48133
1.23353
1.00946
0.861969
0.778314
0.726206
0.69899
0.693592
0.706002
0.731899
0.766975
0.807559
0.850964
0.895213
0.938847
0.980536
1.01915
1.05372
1.08355
1.1083
1.12807
1.1433
1.1546
1.16277
1.16863
1.17298
1.17657
1.17997
1.18342
1.18658
1.18843
1.18732
1.18125
1.16833
1.14733
1.11816
1.0821
1.0417
1.0004
0.961655
0.92816
0.901801
0.8819
0.86432
0.842814
0.810476
0.761422
0.692283
0.603152
0.497742
0.382439
0.0895243
0
0.463424
1.83612
4.26375
7.43688
10.5196
12.4031
12.2257
9.87216
6.10862
2.22398
-0.612583
-1.87337
-1.77268
-0.956561
-0.0696436
0.570535
0.921997
1.02047
1.10029
1.17504
1.24397
1.30597
1.35913
1.40142
1.43141
1.44825
1.45267
1.44784
1.43949
1.4352
1.4428
1.46853
1.51352
1.57419
1.64798
1.73123
1.81955
1.90865
1.99503
2.07647
2.15228
2.22327
2.29148
2.35968
2.43086
2.50763
2.59183
2.68399
2.78379
2.89024
3.00169
3.11615
3.23152
3.34585
3.45757
3.56554
3.66896
3.76716
3.85936
3.94435
4.01954
4.0799
4.11848
4.12703
4.09688
4.02104
3.89628
3.72487
3.51492
3.27914
3.03204
2.78626
2.54731
2.31742
2.09836
1.89099
1.696
1.51483
1.3519
1.21045
1.09383
1.00432
0.947484
0.921092
0.9168
0.924362
0.934277
0.939798
0.93756
0.926812
0.907978
0.881484
0.848804
0.810538
0.767734
0.722446
0.677544
0.636057
0.600753
0.573064
0.551668
0.533785
0.516633
0.498953
0.481916
0.469007
0.464936
0.474011
0.497361
0.536358
0.588518
0.64741
0.703114
0.745492
0.766925
0.763861
0.73761
0.694221
0.643194
0.595156
0.559186
0.539785
0.534446
0.539413
0.553012
0.573641
0.599652
0.629354
0.66029
0.689103
0.712012
0.725309
0.726038
0.712672
0.685537
0.646811
0.600089
0.549599
0.499333
0.452015
0.408918
0.370483
0.336876
0.308152
0.284646
0.267101
0.256469
0.253885
0.260299
0.276049
0.300561
0.332313
0.369071
0.40832
0.447708
0.485436
0.520264
0.551089
0.576161
0.593315
0.600491
0.59566
0.577586
0.546569
0.504827
0.45629
0.405843
0.358297
0.316902
0.282628
0.256216
0.237556
0.225888
0.220157
0.219283
0.2224
0.229173
0.23998
0.255975
0.279002
0.315527
0.390321
0.564443
0.830693
1.10814
1.30976
1.37465
1.28974
1.09251
0.852948
0.642972
0.507693
0.422911
0.360225
0.309703
0.268964
0.237846
0.216782
0.205758
0.202501
0.20155
0.196418
0.180949
0.150701
0.103871
0.0414501
-0.129269
-0.269111
0
1.01029
2.97494
5.75374
8.71307
10.846
11.1887
9.34437
5.78533
1.6921
-1.61346
-3.30128
-3.34763
-2.37657
-1.19513
-0.353323
0.0212015
0.101748
0.161429
0.215191
0.265338
0.310028
0.348297
0.380454
0.408191
0.43429
0.461988
0.494152
0.532531
0.577475
0.627715
0.681073
0.735323
0.788993
0.841806
0.894644
0.949116
1.00701
1.06987
1.13822
1.21268
1.29414
1.38357
1.48181
1.5893
1.70574
1.82984
1.95925
2.091
2.22194
2.34927
2.4711
2.58667
2.69648
2.80195
2.90505
3.00775
3.11175
3.21808
3.32433
3.42231
3.50079
3.54871
3.5582
3.52652
3.45578
3.35087
3.21665
3.0558
2.87386
2.67602
2.46527
2.24349
2.01277
1.77617
1.53785
1.30296
1.07729
0.867318
0.680717
0.524037
0.401442
0.314972
0.264156
0.260681
0.311044
0.393053
0.478152
0.540723
0.564161
0.543763
0.485541
0.401971
0.307054
0.212947
0.126226
0.0482052
-0.0206551
-0.079678
-0.127147
-0.163131
-0.189008
-0.206253
-0.21573
-0.217213
-0.209375
-0.19029
-0.158293
-0.112864
-0.0549957
0.013316
0.0876446
0.158943
0.216447
0.25108
0.257311
0.234833
0.189475
0.132435
0.0773556
0.0359741
0.0138943
0.00510712
0.00463486
0.00595284
0.0035244
-0.0050209
-0.0178421
-0.0293369
-0.0319767
-0.018919
0.0123199
0.0633232
0.129072
0.196527
0.25142
0.28272
0.28578
0.263118
0.222733
0.174796
0.128116
0.0869036
0.0507318
0.0180851
-0.0121986
-0.0411196
-0.0691395
-0.0959208
-0.120291
-0.140403
-0.154044
-0.159017
-0.153625
-0.137007
-0.109359
-0.0719484
-0.0268835
0.0232954
0.0761021
0.1295
0.182085
0.233005
0.281672
0.327162
0.368581
0.405015
0.435995
0.462049
0.48501
0.507849
0.533991
0.56631
0.606819
0.656055
0.709017
0.757249
0.79161
0.804499
0.791357
0.751207
0.686473
0.602506
0.507097
0.410027
0.319657
0.242223
0.18237
0.144532
0.136656
0.156151
0.188934
0.218088
0.228407
0.209975
0.159774
0.0812325
-0.0176386
-0.156814
-0.234115
0
0.841451
2.58104
5.17197
8.07736
10.3473
11.0017
9.54782
6.31208
2.33923
-1.11284
-3.17597
-3.70277
-3.16003
-2.22531
-1.39283
-0.826393
-0.465785
-0.333237
-0.277387
-0.229673
-0.187735
-0.151138
-0.120798
-0.098512
-0.0872493
-0.0902007
-0.108253
-0.138128
-0.172447
-0.201978
-0.218975
-0.21975
-0.20807
-0.187173
-0.158784
-0.123316
-0.0795772
-0.0253744
0.0413447
0.121395
0.212663
0.311758
0.416173
0.52363
0.632296
0.740997
0.849187
0.956733
1.06358
1.16944
1.27351
1.3744
1.47018
1.5586
1.63745
1.70494
1.75995
1.80226
1.83247
1.85167
1.86075
1.85956
1.84629
1.81788
1.76993
1.69693
1.59382
1.4576
1.28836
1.08949
0.867044
0.628593
0.382868
0.136216
-0.107561
-0.345452
-0.575171
-0.795239
-1.0045
-1.20106
-1.38118
-1.54007
-1.67378
-1.77547
-1.83829
-1.85959
-1.84391
-1.80293
-1.75165
-1.70296
-1.66252
-1.62787
-1.59639
-1.56695
-1.53925
-1.51389
-1.49211
-1.47521
-1.46371
-1.45675
-1.4522
-1.44743
-1.4405
-1.43112
-1.42108
-1.41405
-1.41432
-1.42519
-1.44764
-1.47963
-1.51622
-1.5505
-1.57492
-1.58373
-1.57426
-1.54558
-1.49784
-1.43237
-1.35164
-1.25889
-1.15771
-1.0517
-0.944286
-0.838702
-0.738117
-0.646809
-0.569688
-0.510437
-0.471911
-0.455505
-0.460673
-0.484858
-0.523842
-0.572411
-0.625087
-0.676766
-0.723727
-0.762973
-0.789677
-0.791887
-0.749932
-0.674611
-0.601431
-0.573325
-0.620958
-0.744393
-0.906705
-1.04545
-1.09954
-1.03989
-0.92383
-0.791183
-0.656364
-0.529102
-0.417197
-0.326179
-0.258698
-0.214425
-0.190759
-0.183537
-0.187787
-0.198416
-0.210773
-0.22105
-0.22652
-0.225686
-0.218205
-0.204607
-0.186073
-0.164194
-0.140701
-0.117211
-0.0950424
-0.0750618
-0.0576263
-0.0425949
-0.0294067
-0.0172287
-0.00515594
0.00758667
0.0214638
0.0364708
0.0519684
0.0665421
0.0779076
0.0828911
0.0782341
0.0617523
0.0328697
-0.00667725
-0.0525261
-0.0980453
-0.135479
-0.15771
-0.160204
-0.143983
-0.108833
-0.0637848
-0.0216698
0.00604477
0.0130058
0
-0.0289978
-0.297846
-0.369944
0.103065
1.47055
3.84885
6.88876
9.73239
11.2905
10.7607
8.09874
4.12699
0.167286
-2.59836
-3.65273
-3.25889
-2.15574
-1.08563
-0.453023
-0.268176
-0.25232
-0.173559
-0.0912148
-0.00754013
0.0749641
0.153516
0.225485
0.288933
0.342963
0.387923
0.425348
0.457626
0.487505
0.517554
0.549763
0.58534
0.625041
0.669227
0.718407
0.773578
0.836269
0.908273
0.991105
1.08542
1.19065
1.30561
1.42756
1.55393
1.68336
1.81635
1.95533
2.1039
2.26565
2.44282
2.63549
2.84498
3.06587
3.27931
3.46052
3.59059
3.65897
3.66426
3.61418
3.52433
3.41422
3.30078
3.1917
3.08275
2.96832
2.84568
2.71197
2.56557
2.40666
2.23695
2.05918
1.87663
1.69219
1.50814
1.32644
1.14883
0.977052
0.813026
0.659061
0.518213
0.394552
0.29224
0.213918
0.161649
0.136645
0.138966
0.167223
0.219178
0.29807
0.398626
0.501485
0.586446
0.637054
0.644612
0.610048
0.542775
0.457139
0.36807
0.287424
0.218125
0.15852
0.106985
0.0627869
0.0244316
-0.0096611
-0.0406731
-0.0690056
-0.0941513
-0.114856
-0.129536
-0.136807
-0.136287
-0.128219
-0.113821
-0.0950897
-0.0745651
-0.0551254
-0.0393333
-0.0290298
-0.0250313
-0.0269836
-0.0333977
-0.0418564
-0.0493835
-0.0529968
-0.0504417
-0.0398453
-0.0192917
0.0115036
0.0491951
0.0870476
0.1175
0.134193
0.13381
0.1172
0.0894165
0.0585052
0.0333847
0.021402
0.024897
0.0412682
0.0666023
0.0978516
0.131821
0.165334
0.195651
0.220961
0.240402
0.25388
0.26176
0.264532
0.262519
0.255766
0.244128
0.227573
0.206522
0.182178
0.156605
0.132506
0.112728
0.0996559
0.094175
0.0967567
0.106477
0.121613
0.140149
0.160258
0.180606
0.200423
0.219396
0.237418
0.254435
0.270281
0.284626
0.296942
0.306472
0.312051
0.312126
0.305409
0.291208
0.270071
0.243273
0.216351
0.196507
0.190659
0.203303
0.235122
0.282926
0.340927
0.402699
0.462901
0.519075
0.569178
0.609175
0.634611
0.640581
0.621956
0.575557
0.502382
0.40873
0.305531
0.206004
0.122514
0.0588135
0.0172462
-0.0016777
0
0.0275833
0.0673134
0.114156
0.164196
0.214452
0.263152
0.309751
0.353988
0.195813
0.220486
0.816112
2.35261
4.91021
8.05157
10.8322
12.147
11.2835
8.35673
4.32279
0.523927
-1.96865
-2.81105
-2.39491
-1.47116
-0.68308
-0.294108
-0.211798
-0.189609
0.0165863
0.226989
0.42778
0.608547
0.758671
0.878159
0.971197
1.0393
1.0866
1.11905
1.14318
1.16489
1.18838
1.21534
1.24585
1.27928
1.31418
1.34897
1.38309
1.41766
1.45579
1.50218
1.56228
1.64087
1.7407
1.86135
1.99763
2.14388
2.29506
2.44636
2.5939
2.73505
2.86847
2.99367
3.11038
3.21812
3.3163
3.40379
3.47892
3.53966
3.58299
3.60569
3.60519
3.57909
3.52551
3.44345
3.33313
3.19629
3.03617
2.85737
2.66617
2.4686
2.26935
2.07233
1.88028
1.69462
1.51557
1.34247
1.17444
1.011
0.852583
0.700877
0.558743
0.429848
0.318082
0.226966
0.159276
0.116779
0.100963
0.115145
0.165193
0.247536
0.337341
0.407346
0.433815
0.404594
0.325626
0.221121
0.125214
0.0679733
0.0585182
0.0736755
0.102978
0.137812
0.169917
0.192963
0.203408
0.200639
0.186536
0.164754
0.140098
0.116892
0.0985001
0.0873291
0.0848053
0.0915688
0.107359
0.131228
0.161818
0.197611
0.237027
0.278556
0.320737
0.361646
0.399127
0.431105
0.455999
0.473123
0.482878
0.486576
0.485921
0.482334
0.476398
0.467918
0.455933
0.439246
0.416994
0.38903
0.356033
0.319314
0.280402
0.240626
0.200747
0.161002
0.121383
0.082045
0.0439255
0.00976105
-0.01623
-0.0290047
-0.0241791
0.000395203
0.0435516
0.100662
0.16451
0.226879
0.280536
0.320759
0.345326
0.354639
0.351018
0.337695
0.317865
0.29437
0.269035
0.242886
0.21664
0.19109
0.167393
0.147538
0.134819
0.132664
0.144319
0.172066
0.216328
0.275079
0.34482
0.418427
0.488062
0.546883
0.590424
0.617271
0.628932
0.629143
0.622921
0.615782
0.612222
0.615561
0.628507
0.653678
0.695519
0.762083
0.863959
0.997229
1.13379
1.24006
1.28511
1.24978
1.13394
0.958755
0.761824
0.585823
0.457487
0.364453
0.291477
0.233073
0.186578
0.149022
0.117634
0.0901993
0.0652367
0.0419678
0.0201477
0
0.00513573
0.0929611
0.424144
1.31601
3.05347
5.62913
8.54247
10.8609
11.5973
10.2294
7.03933
3.03235
-0.536358
-2.74023
-3.3295
-2.69065
-1.51521
-0.419679
0.275254
0.552633
0.566728
0.600642
0.642048
0.688512
0.740693
0.798137
0.859513
0.922578
0.984881
1.04467
1.10147
1.15631
1.2115
1.27004
1.3347
1.40714
1.48859
1.57666
1.6656
1.74885
1.82117
1.88051
1.92898
1.97275
2.02061
2.0819
2.16331
2.26615
2.38689
2.52172
2.66273
2.79874
2.91923
3.01661
3.08767
3.13395
3.16109
3.17749
3.19264
3.23304
3.47585
3.94358
4.4721
4.90937
5.13893
5.12667
4.92513
4.63148
4.32765
4.04064
3.74582
3.46209
3.20461
2.96395
2.73477
2.51465
2.30236
2.09636
1.89547
1.69962
1.51033
1.33089
1.16627
1.0216
0.901465
0.808791
0.744382
0.706927
0.6926
0.695786
0.709635
0.727009
0.741874
0.749916
0.748841
0.738388
0.72008
0.696723
0.671749
0.648467
0.629162
0.614682
0.604969
0.598744
0.593847
0.587727
0.578025
0.563129
0.54259
0.517317
0.489504
0.462265
0.439063
0.423047
0.416442
0.420853
0.436424
0.46079
0.490732
0.52307
0.555386
0.58633
0.61545
0.642656
0.667417
0.688556
0.70412
0.711892
0.71016
0.698378
0.677452
0.649541
0.617489
0.584117
0.551407
0.520198
0.490626
0.462195
0.433857
0.404415
0.373082
0.339996
0.30656
0.275573
0.250873
0.236579
0.236143
0.25255
0.287985
0.340543
0.402871
0.464477
0.515561
0.549108
0.56206
0.555402
0.533285
0.501537
0.466043
0.431489
0.400342
0.373346
0.350805
0.33314
0.320789
0.314037
0.31297
0.317095
0.324966
0.334306
0.342623
0.34783
0.348893
0.346284
0.3421
0.339775
0.343407
0.357433
0.39
0.447538
0.521371
0.594418
0.647888
0.667189
0.646052
0.587675
0.50309
0.40781
0.317827
0.242051
0.180935
0.13252
0.0955626
0.0676783
0.0452799
0.0241405
0
-0.0211756
-0.051989
-0.0942314
-0.148556
-0.214499
-0.290233
-0.37338
-0.474976
-0.612447
-0.430964
0.419
2.20433
4.873
7.88999
10.316
11.1756
9.95579
6.93445
3.09946
-0.322504
-2.44422
-3.05653
-2.56371
-1.62668
-0.782058
-0.256211
-0.00824518
0.081556
0.113333
0.140405
0.164984
0.189235
0.216237
0.249401
0.291635
0.344546
0.40725
0.477265
0.551876
0.628361
0.704122
0.777021
0.845568
0.908907
0.966715
1.01918
1.06708
1.11169
1.15473
1.1984
1.24521
1.29769
1.35793
1.4271
1.50511
1.59038
1.68058
1.77335
1.86668
1.95937
2.05141
2.14388
2.23886
2.34022
2.45759
2.61634
2.84558
3.11521
3.37018
3.55036
3.60641
3.52103
3.31733
3.04692
2.76642
2.5172
2.29484
2.0811
1.86987
1.65959
1.44992
1.24115
1.03421
0.830633
0.632457
0.442001
0.261655
0.0936651
-0.0600442
-0.197982
-0.319154
-0.423083
-0.509822
-0.579937
-0.634379
-0.67451
-0.702317
-0.7201
-0.730186
-0.734737
-0.735618
-0.734372
-0.732301
-0.730586
-0.730404
-0.732895
-0.73903
-0.749386
-0.763912
-0.781795
-0.8015
-0.821009
-0.83819
-0.851308
-0.859121
-0.860894
-0.856648
-0.846754
-0.831458
-0.810517
-0.783039
-0.747626
-0.700626
-0.634048
-0.545637
-0.449776
-0.367368
-0.317893
-0.311257
-0.343788
-0.400406
-0.461564
-0.511229
-0.54498
-0.568742
-0.587012
-0.602361
-0.61669
-0.631336
-0.646851
-0.662974
-0.678821
-0.693224
-0.705151
-0.714015
-0.719981
-0.724169
-0.728448
-0.734776
-0.744557
-0.758135
-0.774605
-0.792063
-0.808208
-0.82054
-0.827637
-0.83092
-0.833411
-0.838157
-0.846573
-0.857533
-0.867679
-0.872856
-0.87002
-0.859623
-0.843365
-0.826304
-0.814396
-0.812337
-0.821685
-0.839894
-0.860648
-0.87542
-0.875783
-0.85648
-0.818482
-0.762728
-0.692534
-0.612685
-0.528377
-0.444331
-0.363808
-0.289701
-0.224535
-0.170004
-0.127516
-0.0983284
-0.0835747
-0.0841932
-0.100809
-0.133571
-0.18196
-0.244577
-0.318345
-0.400103
-0.485773
-0.569812
-0.646407
-0.70971
-0.754046
-0.776185
-0.774946
-0.751176
-0.707611
-0.648538
-0.579253
-0.505331
-0.431861
-0.36284
-0.30024
-0.349186
-0.359941
0
1.03704
2.9545
5.6652
8.62132
10.8752
11.4463
9.84572
6.43159
2.31342
-1.18664
-3.18285
-3.5715
-2.88812
-1.84849
-0.936282
-0.282595
0.183794
0.524329
0.570108
0.581504
0.585926
0.587049
0.589558
0.598062
0.616244
0.644395
0.681909
0.728647
0.784412
0.848572
0.920042
0.997289
1.07852
1.16124
1.24273
1.32063
1.39335
1.4603
1.52191
1.57932
1.63468
1.69092
1.75144
1.82002
1.90043
1.99589
2.10829
2.2376
2.38152
2.53459
2.69167
2.84812
2.99976
3.14326
3.27624
3.39723
3.50556
3.60088
3.68272
3.7501
3.80161
3.83535
3.84879
3.83887
3.80234
3.73624
3.63854
3.50876
3.34857
3.16229
2.95682
2.74059
2.52264
2.31193
2.11646
1.94234
1.79419
1.67545
1.58441
1.51429
1.45673
1.40368
1.3491
1.29011
1.22727
1.16408
1.1058
1.05714
1.0217
1.00514
1.0095
1.02892
1.05463
1.07743
1.09005
1.08881
1.07423
1.05043
1.02386
1.00139
0.987088
0.982218
0.989832
1.00842
1.03038
1.0465
1.04913
1.03486
1.00578
0.968596
0.93192
0.903
0.883979
0.873475
0.869083
0.867874
0.86794
0.869394
0.87451
0.88701
0.910819
0.95004
1.01171
1.09576
1.18613
1.26189
1.30366
1.29933
1.24794
1.16023
1.05531
0.954267
0.873122
0.811657
0.762967
0.722784
0.689529
0.661987
0.63941
0.62161
0.60886
0.601656
0.60034
0.605076
0.615614
0.631232
0.650544
0.671281
0.690562
0.705618
0.714384
0.716013
0.711185
0.702057
0.691824
0.68396
0.681306
0.685361
0.696734
0.712636
0.728927
0.741578
0.748137
0.748666
0.745832
0.744127
0.748479
0.762612
0.792266
0.836752
0.883707
0.917474
0.925152
0.901991
0.853937
0.796069
0.747308
0.723366
0.738312
0.783949
0.829289
0.836505
0.776611
0.643003
0.457513
0.265348
0.119403
0.0596737
0.0903374
0.20518
0.357546
0.496555
0.586652
0.615043
0.586346
0.511705
0.401023
0.261934
0.0750736
-0.158667
0
0.921752
2.90846
5.79246
8.86988
11.0731
11.4232
9.54451
5.92582
1.73058
-1.75569
-3.70919
-4.04799
-3.29495
-2.18037
-1.2607
-0.752117
-0.590367
-0.606742
-0.627162
-0.64922
-0.673031
-0.698454
-0.725076
-0.752258
-0.779252
-0.805362
-0.830108
-0.853341
-0.875283
-0.896443
-0.917447
-0.938792
-0.960612
-0.982493
-1.0034
-1.02174
-1.03552
-1.04258
-1.04087
-1.02866
-1.0046
-0.967821
-0.917846
-0.854563
-0.778265
-0.689794
-0.590783
-0.483884
-0.372877
-0.262517
-0.158396
-0.0658442
0.010975
0.0698268
0.110759
0.135915
0.147328
0.146731
0.136596
0.117366
0.0847102
0.0314788
-0.049129
-0.161105
-0.304663
-0.476606
-0.671394
-0.882311
-1.10136
-1.3229
-1.5438
-1.7623
-1.97751
-2.18874
-2.39522
-2.5959
-2.78947
-2.97439
-3.149
-3.31174
-3.46159
-3.59858
-3.72348
-3.83722
-3.94038
-4.03292
-4.11421
-4.18336
-4.23977
-4.28367
-4.31665
-4.34129
-4.3601
-4.37529
-4.38837
-4.39985
-4.40922
-4.41524
-4.41638
-4.41138
-4.39966
-4.38147
-4.35786
-4.3305
-4.30135
-4.27242
-4.24556
-4.22227
-4.2037
-4.19052
-4.18288
-4.18025
-4.18133
-4.18393
-4.18507
-4.18126
-4.16895
-4.14523
-4.10846
-4.05884
-3.99777
-3.92821
-3.85688
-3.79008
-3.73164
-3.68174
-3.63684
-3.59111
-3.53865
-3.47589
-3.40366
-3.32686
-3.2513
-3.1841
-3.13165
-3.0981
-3.08441
-3.08816
-3.10403
-3.12488
-3.14306
-3.15163
-3.14593
-3.12344
-3.08315
-3.02534
-2.95146
-2.86389
-2.76564
-2.66013
-2.55097
-2.44169
-2.33539
-2.23439
-2.13978
-2.05116
-1.96662
-1.88301
-1.79661
-1.7039
-1.60249
-1.49177
-1.37319
-1.25012
-1.12711
-1.009
-0.899921
-0.802449
-0.717246
-0.643112
-0.577464
-0.517093
-0.45895
-0.4008
-0.34157
-0.281362
-0.221142
-0.162225
-0.105685
-0.0518539
0
0.051342
0.105284
0.164993
0.233496
0.313074
0.40481
0.508306
0.668946
0.99506
1.47589
2.46527
4.23246
6.64303
9.1146
10.8868
11.37
10.3437
7.99556
4.89959
1.91493
-0.0920113
-0.65076
0.0648087
1.24113
2.23273
2.92971
3.25563
3.53394
3.78058
4.00222
4.2057
4.39732
4.58226
4.76415
4.9449
5.12484
5.30315
5.4785
5.64978
5.81667
5.98003
6.14198
6.30555
6.47413
6.65066
6.83687
7.03263
7.23565
7.44153
7.64423
7.83679
8.01234
8.16493
8.29025
8.3861
8.45238
8.49091
8.50486
8.49824
8.4753
8.44009
8.39612
8.34622
8.29256
8.23666
8.17953
8.12185
8.064
8.00622
7.94863
7.89132
7.83432
7.77765
7.72134
7.66538
7.60979
7.55457
7.49971
7.44521
7.39109
7.33733
7.28395
7.23093
7.17827
7.12598
7.07406
7.0225
6.97131
6.92047
6.87
6.81989
6.77014
6.72076
6.67173
6.62305
6.57474
6.52678
6.47918
6.43194
6.38504
6.33851
6.29232
6.24649
6.20101
6.15588
6.1111
6.06667
6.02259
5.97886
5.93547
5.89243
5.84974
5.80739
5.76538
5.72372
5.6824
5.64143
5.60079
5.56049
5.52054
5.48092
5.44165
5.40271
5.3641
5.32583
5.2879
5.25031
5.21304
5.17611
5.13951
5.10325
5.06731
5.0317
4.99643
4.96148
4.92686
4.89257
4.8586
4.82496
4.79165
4.75866
4.72599
4.69364
4.66162
4.62992
4.59854
4.56747
4.53673
4.50631
4.4762
4.44641
4.41694
4.38778
4.35893
4.3304
4.30219
4.27428
4.24669
4.2194
4.19243
4.16577
4.13941
4.11337
4.08763
4.06219
4.03707
4.01224
3.98773
3.96351
3.9396
3.91599
3.89268
3.86967
3.84696
3.82455
3.80244
3.78062
3.75911
3.73789
3.71696
3.69633
3.67599
3.65594
3.63619
3.61673
3.59756
3.57868
3.56009
3.54179
3.52377
3.50605
3.4886
3.47145
3.45458
3.43799
3.42169
3.40567
3.38993
3.37448
3.3593
3.3444
3.32978
3.31544
3.30138
3.2876
3.27409
3.26085
3.24789
3.23521
3.22279
3.21065
3.19878
3.18718
3.17586
3.1648
3.15401
3.14348
3.13323
3.12324
3.11351
3.10406
3.09486
3.08593
3.07726
3.06886
3.06071
3.05282
3.0452
3.03783
3.03072
3.02387
3.01728
3.01094
3.00486
2.99903
2.99345
2.98813
2.98306
2.97825
2.97368
2.96936
2.96529
2.96147
2.9579
2.95458
2.9515
2.94866
2.94608
2.94373
2.94163
2.93978
2.93816
2.93678
2.93565
2.93476
2.9341
2.93368
2.9335
2.93356
2.93385
2.93438
2.93514
2.93614
2.93737
2.93883
2.94052
2.94244
2.9446
2.94698
2.94959
2.95243
2.95549
2.95878
2.9623
2.96605
2.97001
2.9742
2.97861
2.98325
2.9881
2.99318
2.99848
3.00399
3.00972
3.01567
3.02184
3.02822
3.03482
3.04163
3.04866
3.05589
3.06335
3.07101
3.07888
3.08696
3.09526
3.10376
3.11247
3.12138
3.1305
3.13983
3.14936
3.1591
3.16904
3.17918
3.18952
3.20007
3.21081
3.22176
3.2329
3.24424
3.25578
3.26752
3.27945
3.29158
3.3039
3.31642
3.32912
3.34202
3.35511
3.3684
3.38187
3.39553
3.40938
3.42342
3.43764
3.45205
3.46665
3.48143
3.4964
3.51154
3.52688
3.54239
3.55808
3.57396
3.59001
3.60624
3.62265
3.63924
3.65601
3.67295
3.69006
3.70735
3.72482
3.74245
3.76026
3.77824
3.79639
3.81471
3.8332
3.85186
3.87069
3.88968
3.90884
3.92816
3.94765
3.96731
3.98712
4.0071
4.02724
4.04755
4.06801
4.08863
4.10941
4.13035
4.15145
4.1727
4.19411
4.21567
4.23739
4.25926
4.28129
4.30346
4.32579
4.34827
4.3709
4.39368
4.4166
4.43968
4.4629
4.48626
4.50978
4.53343
4.55723
4.58118
4.60527
4.6295
4.65387
4.67837
4.70302
4.72781
4.75274
4.7778
4.803
4.82834
4.85381
4.87941
4.90515
4.93103
4.95703
4.98317
5.00943
5.03583
5.06235
5.08901
5.11579
5.14269
5.16973
5.19689
5.22417
5.25158
5.27911
5.30677
5.33454
5.36244
5.39045
5.41859
5.44685
5.47522
5.50371
5.53232
5.56104
5.58988
5.61883
5.6479
5.67707
5.70636
5.73577
5.76528
5.7949
5.82463
5.85447
5.88442
5.91448
5.94463
5.9749
6.00527
6.03575
6.06633
6.09701
6.12779
6.15867
6.18965
6.22074
6.25192
6.2832
6.31457
6.34605
6.37762
6.40928
6.44104
6.47289
6.50483
6.53687
6.569
6.60122
6.63353
6.66592
6.69841
6.73098
6.76364
6.79639
6.82922
6.86214
6.89514
6.92822
6.96139
6.99464
7.02797
7.06137
7.09486
7.12843
7.16207
7.19579
7.22959
7.26347
7.29742
7.33144
7.36554
7.39971
7.43395
7.46826
7.50265
7.5371
7.57162
7.60622
7.64087
7.6756
7.71039
7.74525
7.78017
7.81516
7.8502
7.88531
7.92049
7.95572
7.99102
8.02637
8.06178
8.09725
8.13278
8.16836
8.204
8.23969
8.27544
8.31124
8.3471
8.38301
8.41896
8.45497
8.49103
8.52714
8.56329
8.5995
8.63575
8.67204
8.70838
8.74477
8.7812
8.81767
8.85419
8.89075
8.92735
8.96398
9.00066
9.03736
9.0741
9.11086
9.14765
9.18445
9.22125
9.25803
9.29472
9.33125
9.36746
9.40311
9.4378
9.47093
9.50166
9.52884
9.55109
9.56675
9.5741
9.57142
9.55721
9.53028
9.48982
9.43536
9.36663
9.28349
9.18587
9.07384
8.94785
8.80897
8.6591
8.50099
8.33803
8.17376
8.01138
7.85325
7.70061
7.55361
7.41151
7.27306
7.13685
7.00155
6.86605
6.72947
6.59113
6.45063
6.30783
6.16299
6.0167
5.86981
5.72326
5.57776
5.4336
5.29051
5.14761
5.00361
4.85699
4.70633
4.55044
4.38853
4.22023
4.04558
3.86494
3.67901
3.48877
3.29543
3.10027
2.90439
2.70834
2.51176
2.31311
2.10971
1.89806
1.67451
1.43613
1.18155
0.91157
0.629319
0.336167
0
0.0835007
0.743189
2.24569
4.6799
7.74004
10.6584
12.4142
12.185
9.80425
5.92962
1.77693
-1.44586
-3.06972
-3.15669
-2.28991
-1.18312
-0.29819
0.206374
0.305615
0.32288
0.332156
0.342242
0.359167
0.383931
0.41211
0.440944
0.469476
0.497522
0.525313
0.553273
0.581718
0.610619
0.6395
0.667551
0.693868
0.717699
0.738666
0.756836
0.772702
0.787103
0.801039
0.815635
0.832107
0.851787
0.876164
0.906928
0.94598
0.995343
1.057
1.13403
1.23291
1.35775
1.49996
1.64681
1.78504
1.90491
2.00273
2.08054
2.14325
2.19484
2.23615
2.267
2.286
2.29012
2.27573
2.23968
2.17961
2.09405
1.98229
1.84425
1.68036
1.49145
1.27892
1.04497
0.792976
0.527914
0.256561
-0.0125664
-0.269699
-0.504724
-0.707671
-0.864658
-0.957032
-0.978337
-0.945103
-0.881209
-0.81204
-0.758876
-0.734958
-0.74388
-0.780329
-0.832708
-0.886894
-0.933073
-0.967891
-0.990058
-0.999779
-0.999405
-0.992752
-0.984187
-0.977708
-0.976192
-0.980996
-0.991945
-1.00767
-1.02615
-1.04545
-1.06415
-1.08171
-1.09842
-1.1152
-1.13309
-1.15275
-1.17397
-1.19538
-1.21455
-1.22839
-1.23382
-1.22827
-1.21044
-1.1813
-1.1443
-1.10427
-1.06643
-1.03515
-1.01313
-1.00096
-0.997359
-0.999843
-1.00563
-1.01269
-1.02025
-1.02875
-1.03949
-1.05409
-1.07376
-1.0987
-1.12774
-1.15839
-1.18725
-1.21069
-1.22567
-1.23044
-1.22505
-1.21136
-1.19269
-1.17306
-1.15632
-1.14526
-1.14099
-1.14268
-1.14774
-1.15248
-1.15291
-1.14546
-1.12801
-1.10064
-1.0654
-1.02588
-0.986394
-0.951153
-0.923455
-0.905147
-0.896365
-0.895383
-0.899334
-0.904902
-0.908712
-0.907863
-0.900187
-0.884763
-0.861803
-0.83203
-0.796013
-0.75359
-0.703614
-0.644172
-0.57142
-0.4786
-0.364642
-0.240543
-0.122522
-0.0268127
0.035907
0.0637741
0.0631912
0.0448334
0.0183365
-0.011087
-0.0425034
-0.0764877
-0.113914
-0.154907
-0.198386
-0.242036
-0.282645
-0.316795
-0.341428
-0.354428
-0.354948
-0.343477
-0.321664
-0.292003
-0.257459
-0.221111
-0.185834
-0.154031
-0.127423
-0.106886
-0.0923813
-0.0828705
-0.0807159
-0.19848
0
0.877037
2.67172
5.28477
8.18236
10.5228
11.4969
10.7213
8.45181
5.47313
2.71922
0.852556
0.0430161
0.0339005
0.322876
0.481104
0.62372
0.748892
0.857698
0.953929
1.04303
1.13061
1.22077
1.31519
1.41452
1.51908
1.62879
1.74329
1.86211
1.98468
2.1104
2.2386
2.36852
2.49944
2.63068
2.76178
2.89244
3.02265
3.15258
3.28255
3.41293
3.54405
3.67614
3.80935
3.94374
4.0793
4.21598
4.35373
4.49246
4.63205
4.77233
4.91307
5.05397
5.19473
5.33508
5.47487
5.61404
5.75263
5.89072
6.02836
6.1655
6.30191
6.43727
6.57121
6.7034
6.8337
6.96218
7.0892
7.21527
7.34106
7.46719
7.59418
7.72235
7.85186
7.98268
8.11464
8.24753
8.38113
8.51523
8.64972
8.78452
8.91958
9.0549
9.19048
9.32631
9.46239
9.59869
9.7352
9.87192
10.0088
10.146
10.2833
10.4209
10.5586
10.6965
10.8345
10.9727
11.1109
11.2491
11.3874
11.5256
11.6637
11.8017
11.9395
12.0771
12.2145
12.3518
12.489
12.6262
12.7634
12.9007
13.038
13.1753
13.3126
13.45
13.5873
13.7248
13.8622
13.9998
14.1374
14.2751
14.4129
14.5507
14.6886
14.8265
14.9644
15.1024
15.2404
15.3784
15.5166
15.6548
15.7931
15.9314
16.0697
16.208
16.3464
16.4848
16.6234
16.7621
16.9011
17.0403
17.1797
17.3192
17.4588
17.5984
17.7378
17.8769
18.0156
18.1538
18.2915
18.4287
18.5655
18.7019
18.8381
18.9743
19.1106
19.2471
19.3839
19.5209
19.658
19.7952
19.9323
20.0691
20.2057
20.3421
20.4783
20.6145
20.7508
20.8874
21.0243
21.1616
21.2993
21.4373
21.5756
21.7142
21.8529
21.9918
22.1308
22.2699
22.4091
22.5485
22.688
22.8276
22.9674
23.1072
23.247
23.3869
23.5268
23.6667
23.8065
23.9462
24.0858
24.2253
24.3646
24.5039
24.6431
24.7825
24.9223
25.0628
25.2044
25.3477
25.4934
25.6419
25.7938
25.949
26.1076
26.2684
26.4294
26.5878
26.7406
26.8855
27.0216
27.1489
27.2694
27.3856
27.5005
27.6166
27.7354
27.8577
27.9836
28.113
28.2456
28.3808
28.518
28.6568
28.7966
28.9371
29.078
29.219
29.3599
29.5007
29.6411
29.7812
29.9209
30.0604
30.1996
30.3386
30.4774
30.6163
30.7552
30.8941
31.0333
31.1727
31.3122
31.452
31.592
31.7322
31.8725
32.0128
32.1532
32.2936
32.4339
32.574
32.7141
32.8539
32.9936
33.1332
33.2727
33.4122
33.5518
33.6915
33.8315
33.9717
34.112
34.2525
34.393
34.5334
34.6738
34.814
34.954
35.094
35.2338
35.3737
35.5135
35.6535
35.7935
35.9336
36.0738
36.2142
36.3545
36.4949
36.6354
36.7758
36.9163
37.0569
37.1974
37.3379
37.4784
37.6189
37.7595
37.9001
38.041
38.1821
38.3236
38.4655
38.6077
38.7501
38.8927
39.0352
39.1774
39.3192
39.4607
39.6016
39.7422
39.8825
40.0226
40.1627
40.3029
40.4432
40.5838
40.7247
40.8657
41.0071
41.1486
41.2904
41.4323
41.5744
41.7166
41.8589
42.0012
42.1435
42.2856
42.4276
42.5695
42.7112
42.8528
42.9944
43.1359
43.2776
43.4193
43.5611
43.7031
43.8452
43.9875
44.1299
44.2724
44.4151
44.558
44.701
44.8441
44.9873
45.1306
45.2738
45.4169
45.5598
45.7024
45.8448
45.9868
46.1287
46.2705
46.4122
46.5541
46.6963
46.8387
46.9815
47.1247
47.2682
47.4121
47.5563
47.7008
47.8454
47.9902
48.1348
48.2793
48.4233
48.5668
48.7098
48.8522
48.9941
49.1356
49.277
49.4184
49.5599
49.7017
49.8438
49.9864
50.1294
50.2728
50.4165
50.5606
50.705
50.8495
50.9941
51.1388
51.2834
51.4279
51.5724
51.7168
51.8611
52.0053
52.1495
52.2935
52.4375
52.5812
52.7249
52.8686
53.0123
53.1562
53.3002
53.4445
53.5891
53.7339
53.879
54.0244
54.1701
54.3162
54.463
54.6109
54.7607
54.9131
55.0696
55.2317
55.4022
55.5895
55.8214
56.1316
56.4849
56.8151
57.0523
57.1589
57.1506
57.0873
57.0404
57.0612
57.1468
57.259
57.3828
57.514
57.6504
57.7906
57.9334
58.0779
58.2233
58.3693
58.5156
58.662
58.8085
58.9549
59.1013
59.2477
59.394
59.5403
59.6865
59.8328
59.9789
60.1251
60.2712
60.4172
60.5633
60.7093
60.8553
61.0013
61.1473
61.2934
61.4397
61.5863
61.7331
61.8805
62.0282
62.1765
62.3253
62.4743
62.6236
62.7728
62.9218
63.0704
63.2185
63.3661
63.5131
63.6597
63.8061
63.9524
64.0987
64.245
64.3915
64.5381
64.6848
64.8316
64.9784
65.1252
65.2721
65.4191
65.5662
65.7134
65.8608
66.0082
66.1558
66.3034
66.4509
66.5983
66.7456
66.8927
67.0398
67.1868
67.3339
67.4813
67.629
197
400
605
814
1014
1219
1437
1652
1856
2059
2260
2451
3046
3259
3484
3737
3366
3575
3544
3737
3555
3726
3540
3709
3409
3556
3701
0
0
0
0
0
0
0
0
0
0
0
0
0
0
0
0
0
0
0
0
0
0
0
0
0
0
0
0
0
0
0
0
0
0
0
0
0
0
0
0
0
0
0
0
0
0
0
0
0
0
0
0
0
0
0
0
0
0
0
0
0
0
0
0
0
0
0
0
0
0
0
0
0
0
0
0
0
0
0
0
0
0
0
0
0
0
0
0
0
0
0
0
0
0
0
0
0
0
0
0
0
0
0
0
0
0
0
0
0
0
0
0
0
0
0
0
0
0
0
0
0
0
0
0
0
0
0
0
0
0
0
0
0
0
0
0
0
0
0
0
0
0
0
0
0
0
0
0
0
0
0
0
0
0
0
0
0
0
0
0
0
0
0
0
0
0
0
0
0
0
0
0
0
0
0
0
0
0
0
0
0
0
0
0
0
0
0
0
0
0
0
0
0
0
0
0
0
0
0
0
0
0
0
0
0
0
0
0
0
0
0
0
0
0
0
0
0
0
0
0
0
0
0
0
0
0
0
0
0
0
0
0
0
0
0
0
0
0
0
0
0
0
0
0
0
0
0
0
0
0
0
0
0
0
0
0
0
0
0
0
0
0
0
0
0
0
0
0
0
0
0
0
0
0
0
0
0
0
0
0
0
0
0
0
0
0
0
0
0
0
0
0
0
0
0
0
0
0
0
0
0
0
0
0
0
0
0
0
0
0
0
0
0
0
0
0
0
0
0
0
0
0
0
0
0
0
0
0
0
0
0
0
0
0
0
0
0
0
0
0
0
0
0
0
0
0
0
0
0
0
0
0
0
0
0
0
0
0
0
0
0
0
0
0
0
0
0
0
0
0
0
0
0
0
0
0
0
0
0
0
0
0
0
0
0
0
0
0
0
0
0
0
0
0
0
0
0
0
0
0
0
0
0
0
0
0
0
0
0
0
0
0
0
0
0
0
0
0
0
0
0
0
0
0
0
0
0
0
0
0
0
0
0
0
0
0
0
0
0
0
0
0
0
0
0
0
0
0
0
0
0
0
0
0
0
0
0
0
0
0
0
0
0
0
0
0
0
0
0
0
0
0
0
0
0
0
0
0
0
0
0
0
0
0
0
0
0
0
0
0
0
0
0
0
0
0
0
0
0
0
0
0
0
0
0
0
0
0
0
0
0
0
0
0
0
0
0
0
0
0
0
0
0
0
0
0
0
0
0
0
0
0
0
0
0
0
0
0
0
0
0
0
0
0
0
0
0
0
0
0
0
0
0
0
0
0
0
0
0
0
0
0
0
0
0
0
0
0
0
0
0
0
0
0
0
0
0
0
0
0
0
0
0
0
0
0
0
0
0
0
0
0
0
0
0
0
0
0
0
0
0
0
0
0
0
0
0
0
0
0
0
0
0
0
0
0
0
0
0
0
0
0
0
0
0
0
0
0
0
0
0
0
0
0
0
0
0
0
0
0
0
0
0
0
0
0
0
0
0
0
0
0
0
0
0
0
0
0
0
0
0
0
0
0
0
0
0
0
0
0
0
0
0
0
0
0
0
0
0
0
0
0
0
0
0
0
0
0
0
0
0
0
0
0
0
0
0
0
0
0
0
0
0
0
0
0
0
0
0
0
0
0
0
0
0
0
0
0
0
0
0
0
0
0
0
0
0
0
0
0
0
0
0
0
0
0
0
0
0
0
0
0
0
0
0
0
0
0
0
0
0
0
0
0
0
0
0
0
0
0
0
0
0
0
0
0
0
0
0
0
0
0
0
0
0
0
0
0
0
0
0
0
0
0
0
0
0
0
0
0
0
0
0
0
0
0
0
0
0
0
0
0
0
0
0
0
0
0
0
0
0
0
0
0
0
0
0
0
0
0
0
0
0
0
0
0
0
0
0
0
0
0
0
0
0
0
0
0
0
0
0
0
0
0
0
0
0
0
0
0
0
0
0
0
0
0
0
0
0
0
0
0
0
0
0
0
0
0
0
0
0
0
0
0
0
0
0
0
0
0
0
0
0
0
0
0
0
0
0
0
0
0
0
0
0
0
0
0
0
0
0
0
0
0
0
0
0
0
0
0
0
0
0
0
0
0
0
0
0
0
0
0
0
0
0
0
0
0
0
0
0
0
0
0
0
0
0
0
0
0
0
0
0
0
0
0
0
0
0
0
0
0
0
0
0
0
0
0
0
0
0
0
0
0
0
0
0
0
0
0
0
0
0
0
0
0
0
0
0
0
0
0
0
0
0
0
0
0
0
0
0
0
0
0
0
0
0
0
0
0
0
0
0
0
0
0
0
0
0
0
0
0
0
0
0
0
0
0
0
0
0
0
0
0
0
0
0
0
0
0
0
0
0
0
0
0
0
0
0
0
0
0
0
0
0
0
0
0
0
0
0
0
0
0
0
0
0
0
0
0
0
0
0
0
0
0
0
0
0
0
0
0
0
0
0
0
0
0
0
0
0
0
0
0
0
0
0
0
0
0
0
0
0
0
0
0
0
0
0
0
0
0
0
0
0
0
0
0
0
0
0
0
0
0
0
0
0
0
0
0
0
0
0
0
0
0
0
0
0
0
0
0
0
0
0
0
0
0
0
0
0
0
0
0
0
0
0
0
0
0
0
0
0
0
0
0
0
0
0
0
0
0
0
0
0
0
0
0
0
0
0
0
0
0
0
0
0
0
0
0
0
0
0
0
0
0
0
0
0
0
0
0
0
0
0
0
0
0
0
0
0
0
0
0
0
0
0
0
0
0
0
0
0
0
0
0
0
0
0
0
0
0
0
0
0
0
0
0
0
0
0
0
0
0
0
0
0
0
0
0
0
0
0
0
0
0
0
0
0
0
0
0
0
0
0
0
0
0
0
0
0
0
0
0
0
0
0
0
0
0
0
0
0
0
0
0
0
0
0
0
0
0
0
0
0
0
0
0
0
0
0
0
0
0
0
0
0
0
0
0
0
0
0
0
0
0
0
0
0
0
0
0
0
0
0
0
0
0
0
0
0
0
0
0
0
0
0
0
0
0
0
0
0
0
0
0
0
0
0
0
0
0
0
0
0
0
0
0
0
0
0
0
0
0
0
0
0
0
0
0
0
0
0
0
0
0
0
0
0
0
0
0
0
0
0
0
0
0
0
0
0
0
0
0
0
0
0
0
0
0
0
0
0
0
0
0
0
0
0
0
0
0
0
0
0
0
0
0
0
0
0
0
0
0
0
0
0
0
0
0
0
0
0
0
0
0
0
0
0
0
0
0
0
0
0
0
0
0
0
0
0
0
0
0
0
0
0
0
0
0
0
0
0
0
0
0
0
0
0
0
0
0
0
0
0
0
0
0
0
0
0
0
0
0
0
0
0
0
0
0
0
0
0
0
0
0
0
0
0
0
0
0
0
0
0
0
0
0
0
0
0
0
0
0
0
0
0
0
0
0
0
0
0
0
0
0
0
0
0
0
0
0
0
0
0
0
0
0
0
0
0
0
0
0
0
0
0
0
0
0
0
0
0
0
0
0
0
0
0
0
0
0
0
0
0
0
0
0
0
0
0
0
0
0
0
0
0
0
0
0
0
0
0
0
0
0
0
0
0
0
0
0
0
0
0
0
0
0
0
0
0
0
0
0
0
0
0
0
0
0
0
0
0
0
0
0
0
0
0
0
0
0
0
0
0
0
0
0
0
0
0
0
0
0
0
0
0
0
0
0
0
0
0
0
0
0
0
0
0
0
0
0
0
0
0
0
0
0
0
0
0
0
0
0
0
0
0
0
0
0
0
0
0
0
0
0
0
0
0
0
0
0
0
0
0
0
0
0
0
0
0
0
0
0
0
0
0
0
0
0
0
0
0
0
0
0
0
0
0
0
0
0
0
0
0
0
0
0
0
0
0
0
0
0
0
0
0
0
0
0
0
0
0
0
0
0
0
0
0
0
0
0
0
0
0
0
0
0
0
0
0
0
0
0
0
0
0
0
0
0
0
0
0
0
0
0
0
0
0
0
0
0
0
0
0
0
0
0
0
0
0
0
0
0
0
0
0
0
0
0
0
0
0
0
0
0
0
0
0
0
0
0
0
0
0
0
0
0
0
0
0
0
0
0
0
0
0
0
0
0
0
0
0
0
0
0
0
0
0
0
0
0
0
0
0
0
0
0
0
0
0
0
0
0
0
0
0
0
0
0
0
0
0
0
0
0
0
0
0
0
0
0
0
0
0
0
0
0
0
0
0
0
0
0
0
0
0
0
0
0
0
0
0
0
0
0
0
0
0
0
0
0
0
0
0
0
0
0
0
0
0
0
0
0
0
0
0
0
0
0
0
0
0
0
0
0
0
0
0
0
0
0
0
0
0
0
0
0
0
0
0
0
0
0
0
0
0
0
0
0
0
0
0
0
0
0
0
0
0
0
0
0
0
0
0
0
0
0
0
0
0
0
0
0
0
0
0
0
0
0
0
0
0
0
0
0
0
0
0
0
0
0
0
0
0
0
0
0
0
0
0
0
0
0
0
0
0
0
0
0
0
0
0
0
0
0
0
0
0
0
0
0
0
0
0
0
0
0
0
0
0
0
0
0
0
0
0
0
0
0
0
0
0
0
0
0
0
0
0
0
0
0
0
0
0
0
0
0
0
0
0
0
0
0
0
0
0
0
0
0
0
0
0
0
0
0
0
0
0
0
0
0
0
0
0
0
0
0
0
0
0
0
0
0
0
0
0
0
0
0
0
0
0
0
0
0
0
0
0
0
0
0
0
0
0
0
0
0
0
0
0
0
0
0
0
0
0
0
0
0
0
0
0
0
0
0
0
0
0
0
0
0
0
0
0
0
0
0
0
0
0
0
0
0
0
0
0
0
0
0
0
0
0
0
0
0
0
0
0
0
0
0
0
0
0
0
0
0
0
0
0
0
0
0
0
0
0
0
0
0
0
0
0
0
0
0
0
0
0
0
0
0
0
0
0
0
0
0
0
0
0
0
0
0
0
0
0
0
0
0
0
0
0
0
0
0
0
0
0
0
0
0
0
0
0
0
0
0
0
0
0
0
0
0
0
0
0
0
0
0
0
0
0
0
0
0
0
0
0
0
0
0
0
0
0
0
0
0
0
0
0
0
0
0
0
0
0
0
0
0
0
0
0
0
0
0
0
0
0
0
0
0
0
0
0
0
0
0
0
0
0
0
0
0
0
0
0
0
0
0
0
0
0
0
0
0
0
0
0
0
0
0
0
0
0
0
0
0
0
0
0
0
0
0
0
0
0
0
0
0
0
0
0
0
0
0
0
0
0
0
0
0
0
0
0
0
0
0
0
0
0
0
0
0
0
0
0
0
0
0
0
0
0
0
0
0
0
0
0
0
0
0
0
0
0
0
0
0
0
0
0
0
0
0
0
0
0
0
0
0
0
0
0
0
0
0
0
0
0
0
0
0
0
0
0
0
0
0
0
0
0
0
0
0
0
0
0
0
0
0
0
0
0
0
0
0
0
0
0
0
0
0
0
0
0
0
0
0
0
0
0
0
0
0
0
0
0
0
0
0
0
0
0
0
0
0
0
0
0
0
0
0
0
0
0
0
0
0
0
0
0
0
0
0
0
0
0
0
0
0
0
0
0
0
0
0
0
0
0
0
0
0
0
0
0
0
0
0
0
0
0
0
0
0
0
0
0
0
0
0
0
0
0
0
0
0
0
0
0
0
0
0
0
0
0
0
0
0
0
0
0
0
0
0
0
0
0
0
0
0
0
0
0
0
0
0
0
0
0
0
0
0
0
0
0
0
0
0
0
0
0
0
0
0
0
0
0
0
0
0
0
0
0
0
0
0
0
0
0
0
0
0
0
0
0
0
0
0
0
0
0
0
0
0
0
0
0
0
0
0
0
0
0
0
0
0
0
0
0
0
0
0
0
0
0
0
0
0
0
0
0
0
0
0
0
0
0
0
0
0
0
0
0
0
0
0
0
0
0
0
0
0
0
0
0
0
0
0
0
0
0
0
0
0
0
0
0
0
0
0
0
0
0
0
0
0
0
0
0
0
0
0
0
0
0
0
0
0
0
0
0
0
0
0
0
0
0
0
0
0
0
0
0
0
0
0
0
0
0
0
0
0
0
0
0
0
0
0
0
0
0
0
0
0
0
0
0
0
0
0
0
0
0
0
0
0
0
0
0
0
0
0
0
0
0
0
0
0
0
0
0
0
0
0
0
0
0
0
0
0
0
0
0
0
0
0
0
0
0
0
0
0
0
0
0
0
0
0
0
0
0
0
0
0
0
0
0
0
0
0
0
0
0
0
0
0
0
0
0
0
0
0
0
0
0
0
0
0
0
0
0
0
0
0
0
0
0
0
0
0
0
0
0
0
0
0
0
0
0
0
0
0
0
0
0
0
0
0
0
0
0
0
0
0
0
0
0
0
0
0
0
0
0
0
0
0
0
0
0
0
0
0
0
0
0
0
0
0
0
0
0
0
0
0
0
0
0
0
0
0
0
0
0
0
0
0
0
0
0
0
0
0
0
0
0
0
0
0
0
0
0
0
0
0
0
0
0
0
0
0
0
0
0
0
0
0
0
0
0
0
0
0
0
0
0
0
0
0
0
0
0
0
0
0
0
0
0
0
0
0
0
0
0
0
0
0
0
0
0
0
0
0
0
0
0
0
0
0
0
0
0
0
0
0
0
0
0
0
0
0
0
0
0
0
0
0
0
0
0
0
0
0
0
0
0
0
0
0
0
0
0
0
0
0
0
0
0
0
0
0
0
0
0
0
0
0
0
0
0
0
0
0
0
0
0
0
0
0
0
0
0
0
0
0
0
0
0
0
0
0
0
0
0
0
0
0
0
0
0
0
0
0
0
0
0
0
0
0
0
0
0
0
0
0
0
0
0
0
0
0
0
0
0
0
0
0
0
0
0
0
0
0
0
0
0
0
0
0
0
0
0
0
0
0
0
0
0
0
0
0
0
0
0
0
0
0
0
0
0
0
0
0
0
0
0
0
0
0
0
0
0
0
0
0
0
0
0
0
0
0
0
0
0
0
0
0
0
0
0
0
0
0
0
0
0
0
0
0
0
0
0
0
0
0
0
0
0
0
0
0
0
0
0
0
0
0
0
0
0
0
0
0
0
0
0
0
0
0
0
0
0
0
0
0
0
0
0
0
0
0
0
0
0
0
0
0
0
0
0
0
0
0
0
0
0
0
0
0
0
0
0
0
0
0
0
0
0
0
0
0
0
0
0
0
0
0
0
0
0
0
0
0
0
0
0
0
0
0
0
0
0
0
0
0
0
0
0
0
0
0
0
0
0
0
0
0
0
0
0
0
0
0
0
0
0
0
0
0
0
0
0
0
0
0
0
0
0
0
0
0
0
0
0
0
0
0
0
0
0
0
0
0
0
0
0
0
0
0
0
0
0
0
0
0
0
0
0
0
0
0
0
0
0
0
0
0
0
0
0
0
0
0
0
0
0
0
0
0
0
0
0
0
0
0
0
0
0
0
0
0
0
0
0
0
0
0
0
0
0
0
0
0
0
0
0
0
0
0
0
0
0
0
0
0
0
0
0
0
0
0
0
0
0
0
0
0
0
0
0
0
0
0
0
0
0
0
0
0
0
0
0
0
0
0
0
0
0
0
0
0
0
0
0
0
0
0
0
0
0
0
0
0
0
0
0
0
0
0
0
0
0
0
0
0
0
0
0
0
0
0
0
0
0
0
0
0
0
0
0
0
0
0
0
0
0
0
0
0
0
0
0
0
0
0
0
0
0
0
0
0
0
0
0
0
0
0
0
0
0
0
0
0
0
0
0
0
0
0
0
0
0
0
0
0
0
0
0
0
0
0
0
0
0
0
0
0
0
0
0
0
0
0
0
0
0
0
0
0
0
0
0
0
0
0
0
0
0
0
0
0
0
0
0
0
0
0
0
0
0
0
0
0
0
0
0
0
0
0
0
0
0
0
0
0
0
0
0
0
0
0
0
0
0
0
0
0
0
0
0
0
0
0
0
0
0
0
0
0
0
0
0
0
0
0
0
0
0
0
0
0
0
0
0
0
0
0
0
0
0
0
0
0
0
0
0
0
0
0
0
0
0
0
0
0
0
0
0
0
0
0
0
0
0
0
0
0
0
0
0
0
0
0
0
0
0
0
0
0
0
0
0
0
0
0
0
0
0
0
0
0
0
0
0
0
0
0
0
0
0
0
0
0
0
0
0
0
0
0
0
0
0
0
0
0
0
0
0
0
0
0
0
0
0
0
0
0
0
0
0
0
0
0
0
0
0
0
0
0
0
0
0
0
0
0
0
0
0
0
0
0
0
0
0
0
0
0
0
0
0
0
0
0
0
0
0
0
0
0
0
0
0
0
0
0
0
0
0
0
0
0
0
0
0
0
0
0
0
0
0
0
0
0
0
0
0
0
0
0
0
0
0
0
0
0
0
0
