9.71447
9.68135
9.60332
9.47922
9.30898
9.09431
8.84094
8.55611
8.24753
7.9233
7.5916
7.26016
6.93607
6.6255
6.33353
6.06419
5.82059
5.60529
5.42057
5.2679
5.14802
5.06068
5.00426
4.97639
4.9737
4.99078
5.01952
5.0506
5.07565
5.08845
5.08563
5.06707
5.03555
4.99598
4.95416
4.9154
4.8828
4.85689
4.83664
4.81867
4.79775
4.76827
4.72553
4.66682
4.59199
4.50341
4.40535
4.30311
4.20198
4.10596
4.01808
3.9406
3.87484
3.82131
3.77973
3.74921
3.72834
3.71536
3.70842
3.7057
3.70558
3.70689
3.70891
3.7114
3.71445
3.71824
3.72281
3.72793
3.73303
3.73746
3.74085
3.74352
3.74672
3.7526
3.76382
3.78289
3.8114
3.8492
3.89493
3.9451
3.99446
4.03741
4.06904
4.08601
4.08703
4.0729
4.04629
4.01131
3.97327
3.93788
3.91163
3.90072
3.91054
3.9447
4.00422
4.08688
4.18819
4.30008
4.41032
4.50583
4.57492
4.60871
4.60185
4.55265
4.46284
4.33723
4.18332
4.01155
3.83291
3.6565
3.48881
3.33366
3.19227
3.05934
2.92144
2.76039
2.55669
2.29358
1.961
1.54283
1.054
0.49671
-0.270874
0
2.0661
6.21206
11.9185
17.803
22.0628
23.2407
20.9168
15.9165
9.8949
4.54078
0.873275
-0.988901
-1.54806
-1.43262
-1.02546
-0.55723
-0.0403067
0.464527
0.869294
1.17389
1.41935
1.6328
1.82614
2.00413
2.17067
2.3304
2.4879
2.64692
2.80984
2.97735
3.14859
3.32165
3.49425
3.66436
3.8307
3.99291
4.15146
4.30732
4.46164
4.61542
4.76953
4.92475
5.08201
5.24265
5.40845
5.58151
5.76401
5.95781
6.1641
6.38317
6.61431
6.85575
7.1054
7.36024
7.61279
7.85043
8.05906
8.22483
8.336
8.38404
8.36353
8.2715
8.10692
7.87107
7.57211
7.22266
6.83489
6.42121
5.99444
5.56511
5.14142
4.73148
4.34316
3.98375
3.65942
3.37465
3.13172
2.93055
2.7688
2.64171
2.5429
2.46547
2.40291
2.34981
2.30219
2.25754
2.21446
2.17226
2.13048
2.08858
2.04589
2.00161
1.95499
1.90552
1.85304
1.79785
1.74068
1.68269
1.62538
1.57046
1.5196
1.47417
1.4349
1.40166
1.37303
1.34618
1.31767
1.28443
1.24463
1.19837
1.14783
1.09682
1.04986
1.01103
0.982521
0.965387
0.958815
0.960783
0.968825
0.980794
0.995405
1.01246
1.03275
1.05777
1.08911
1.12815
1.176
1.23315
1.29924
1.37308
1.4527
1.53565
1.61942
1.70179
1.78125
1.85708
1.92944
1.99912
2.06733
2.1354
2.20453
2.27571
2.34958
2.42645
2.50633
2.58902
2.67425
2.76178
2.85169
2.94444
3.04084
3.14188
3.24835
3.36044
3.47742
3.59752
3.71805
3.83559
3.94621
4.04527
4.1274
4.18751
4.22167
4.22683
4.20137
4.14559
4.06194
3.95483
3.82979
3.69215
3.54589
3.39225
3.22903
3.05094
2.85058
2.61978
2.35142
2.00783
1.57939
1.09841
0.183177
0
1.2692
4.47233
9.47478
15.3159
20.3838
23.0187
22.2771
18.4085
12.7316
6.97394
2.48682
-0.212737
-1.38597
-1.66259
-1.58845
-1.45558
-1.24543
-0.885154
-0.332072
0.349575
1.00387
1.47986
1.79602
2.04119
2.25323
2.44046
2.60524
2.7507
2.88026
2.99724
3.10444
3.20391
3.29699
3.38443
3.46682
3.54507
3.62083
3.69674
3.77655
3.86478
3.96634
4.08584
4.22698
4.39197
4.58128
4.7937
5.02652
5.27599
5.53792
5.80827
6.08366
6.36162
6.64057
6.91951
7.19759
7.47338
7.74421
8.00547
8.24953
8.46409
8.63415
8.74977
8.80259
8.78707
8.70199
8.55152
8.345
8.09482
7.81329
7.51123
7.19816
6.87988
6.56003
6.24243
5.9319
5.6342
5.35557
5.10195
4.87807
4.68682
4.52882
4.40252
4.30458
4.23054
4.17567
4.13568
4.10728
4.08858
4.07916
4.08004
4.09346
4.12259
4.17117
4.24305
4.3417
4.47837
4.6962
5.06922
5.55435
6.02138
6.34995
6.46693
6.36561
6.10007
5.75708
5.41948
5.13953
4.91437
4.72381
4.55763
4.41307
4.29062
4.19149
4.11678
4.06632
4.0381
4.02674
4.02207
4.01232
3.98732
3.94076
3.87162
3.78438
3.68775
3.59221
3.50714
3.43698
3.38108
3.33728
3.30105
3.2667
3.22872
3.18293
3.12725
3.06198
2.98965
2.91464
2.84224
2.77784
2.72611
2.69026
2.6715
2.66906
2.68058
2.70288
2.73292
2.76849
2.80849
2.85311
2.90332
2.96021
3.0244
3.09556
3.17238
3.25242
3.33204
3.40622
3.46856
3.51286
3.53372
3.52721
3.49159
3.42778
3.33945
3.23247
3.11393
2.99072
2.86805
2.74795
2.62983
2.51071
2.38531
2.24677
2.0877
1.90151
1.68357
1.43215
1.14471
0.826715
0.102003
-0.516399
0
2.44211
6.97485
12.8241
18.41
21.9615
22.2828
19.2779
13.9713
8.02283
2.99291
-0.25841
-1.73646
-2.01591
-1.73659
-1.35381
-0.967436
-0.598556
-0.273436
0.0138421
0.276369
0.518597
0.741431
0.937318
1.10009
1.22564
1.31353
1.36796
1.39759
1.41404
1.42948
1.45403
1.4922
1.54302
1.60401
1.67058
1.73497
1.78677
1.81566
1.81297
1.7732
1.69529
1.58327
1.44607
1.29637
1.14883
1.01884
0.919337
0.859326
0.842989
0.869618
0.934177
1.02845
1.14263
1.26713
1.39423
1.51965
1.64257
1.76407
1.88606
2.01086
2.14089
2.27814
2.42202
2.56452
2.6903
2.78116
2.82062
2.7985
2.714
2.57627
2.40218
2.2122
2.02567
1.85365
1.69902
1.56301
1.44822
1.35727
1.29164
1.25184
1.23725
1.24624
1.2767
1.32335
1.37837
1.43335
1.48046
1.51355
1.52885
1.52547
1.50536
1.4731
1.43541
1.40003
1.3743
1.36454
1.37543
1.41149
1.47648
1.56753
1.67302
1.77754
1.86626
1.92806
1.95752
1.95556
1.9286
1.88658
1.84017
1.79773
1.76267
1.73381
1.70755
1.67923
1.64389
1.59752
1.53807
1.46583
1.38334
1.29468
1.20458
1.11702
1.03482
0.9597
0.892281
0.832009
0.777784
0.728558
0.683818
0.64377
0.609163
0.581137
0.560862
0.547104
0.536188
0.523298
0.504073
0.476312
0.441124
0.403145
0.369814
0.350083
0.350783
0.375797
0.430159
0.517473
0.639474
0.795821
0.983868
1.19902
1.43496
1.68418
1.93851
2.19004
2.43042
2.65038
2.84011
2.99185
3.10047
3.16232
3.17595
3.14308
3.0693
2.96405
2.83945
2.70829
2.5812
2.46319
2.35432
2.25221
2.152
2.04665
1.92789
1.78747
1.61037
1.34961
1.0142
0.634364
-0.000123978
0
1.39735
4.74845
9.90504
15.7666
20.5627
22.6218
21.2085
16.9017
11.265
6.03135
2.32531
0.360324
-0.322589
-0.359615
-0.074004
0.246997
0.619284
1.02715
1.4265
1.78346
2.0977
2.38197
2.64587
2.89236
3.12216
3.33564
3.53219
3.71093
3.87143
4.01389
4.13966
4.25154
4.35367
4.45119
4.54963
4.65438
4.7699
4.89942
5.04518
5.20815
5.38775
5.58199
5.78761
6.0006
6.21688
6.43309
6.6472
6.85892
7.06959
7.28182
7.49871
7.72307
7.95673
8.20054
8.45465
8.71768
8.98214
9.22816
9.4311
9.56602
9.6138
9.56757
9.43527
9.23546
8.98802
8.70544
8.39484
8.0648
7.72126
7.36757
7.00671
6.64236
6.27887
5.92074
5.57239
5.23789
4.92105
4.62542
4.35424
4.11022
3.89528
3.71061
3.55606
3.42884
3.32439
3.23778
3.16472
3.10236
3.04982
3.0076
2.97701
2.95922
2.95441
2.96137
2.97759
2.99976
3.02432
3.04806
3.06845
3.08321
3.09067
3.08987
3.08058
3.06348
3.04026
3.01346
2.98602
2.96057
2.93869
2.92034
2.9037
2.88536
2.8609
2.82567
2.77561
2.70794
2.6218
2.51851
2.40186
2.27759
2.15265
2.03457
1.93043
1.84628
1.78621
1.75174
1.74278
1.75757
1.78947
1.82836
1.86436
1.88979
1.90069
1.8974
1.88413
1.86757
1.85504
1.85246
1.86237
1.88436
1.91669
1.95777
2.00619
2.06141
2.12399
2.19545
2.27764
2.372
2.47872
2.59615
2.72112
2.84919
2.97516
3.09372
3.20013
3.29067
3.36276
3.41481
3.44587
3.45559
3.44402
3.41149
3.35875
3.28722
3.19925
3.09806
2.9875
2.87147
2.7531
2.63385
2.51294
2.38691
2.24966
2.09393
1.91282
1.70168
1.45956
1.18982
0.899617
0
-0.515531
0.158275
2.60433
6.87793
12.2351
17.2142
20.1533
19.928
16.5
10.9311
4.85043
-0.293091
-3.75236
-5.53997
-6.11581
-5.94213
-5.52885
-4.97869
-4.41422
-3.95097
-3.69374
-3.57143
-3.49945
-3.44894
-3.41044
-3.37938
-3.3517
-3.32273
-3.28742
-3.24074
-3.17794
-3.09502
-2.98891
-2.85749
-2.6996
-2.51493
-2.30387
-2.06729
-1.8065
-1.52329
-1.22003
-0.899994
-0.56749
-0.227933
0.112429
0.447085
0.770099
1.07704
1.3658
1.63703
1.89406
2.14228
2.38809
2.63763
2.89564
3.16549
3.44915
3.74409
4.04084
4.32246
4.5661
4.7532
4.87108
4.90852
4.85648
4.71204
4.48238
4.18526
3.84468
3.48475
3.12548
2.77588
2.43889
2.11791
1.81749
1.54156
1.29326
1.07465
0.886616
0.728886
0.600193
0.498466
0.421063
0.365
0.32721
0.304708
0.294578
0.294329
0.302344
0.318068
0.342012
0.375506
0.420235
0.477627
0.548264
0.631278
0.724388
0.824408
0.927548
1.02972
1.12742
1.21831
1.30139
1.37691
1.44585
1.50941
1.5683
1.62269
1.67227
1.71663
1.75582
1.7908
1.82352
1.85661
1.89275
1.9339
1.98055
2.03183
2.08565
2.1391
2.18905
2.23272
2.26817
2.2945
2.31172
2.32106
2.32464
2.32522
2.32594
2.32984
2.33933
2.3557
2.37898
2.40755
2.43877
2.46978
2.49835
2.52353
2.54594
2.56771
2.59193
2.62205
2.6609
2.71068
2.77289
2.84816
2.93628
3.03633
3.14697
3.26665
3.3938
3.52685
3.6642
3.80392
3.94353
4.07954
4.20743
4.32207
4.41803
4.49025
4.53484
4.54934
4.53296
4.48673
4.41337
4.31715
4.20331
4.07731
3.94392
3.80601
3.66373
3.5142
3.35175
3.1685
2.95553
2.70447
2.40904
2.03083
1.5642
1.04478
0.17427
0
1.25585
4.46918
9.54329
15.5
20.6682
23.3342
22.5412
18.5629
12.7531
6.86799
2.28523
-0.443518
-1.54129
-1.62
-1.2539
-0.818759
-0.385143
0.0481991
0.491921
0.903831
1.25078
1.54202
1.79331
2.01582
2.21525
2.39342
2.55202
2.69374
2.82189
2.94003
3.05154
3.15948
3.26643
3.37463
3.48612
3.60291
3.72712
3.86091
4.00632
4.16505
4.33816
4.52594
4.72796
4.94322
5.17052
5.40879
5.65728
5.91562
6.18358
6.46076
6.74617
7.03802
7.33354
7.6291
7.91998
8.19942
8.45805
8.68528
8.87134
9.00757
9.08545
9.09688
9.03486
8.89466
8.67544
8.38194
8.02563
7.62521
7.20426
6.7844
6.37954
5.99788
5.646
5.32687
5.03998
4.7821
4.54819
4.33258
4.12992
3.93604
3.74851
3.56706
3.39434
3.23548
3.09628
2.9825
2.89846
2.84591
2.82357
2.82744
2.85168
2.88975
2.9352
2.98275
3.02881
3.07067
3.10587
3.13177
3.14485
3.14061
3.11475
3.06323
2.9831
2.87335
2.7355
2.57365
2.39394
2.20358
2.00968
1.81799
1.63244
1.45543
1.28797
1.12996
0.980435
0.837748
0.699526
0.562607
0.423223
0.277309
0.120966
-0.0489906
-0.234526
-0.436037
-0.652218
-0.880076
-1.11544
-1.35352
-1.58953
-1.8194
-2.04047
-2.25204
-2.45548
-2.65358
-2.85145
-3.06114
-3.29764
-3.5432
-3.75068
-3.86281
-3.8321
-3.63566
-3.28199
-2.8103
-2.28317
-1.77238
-1.31448
-0.900133
-0.518641
-0.16953
0.148642
0.439153
0.706129
0.952703
1.17949
1.38396
1.56095
1.70512
1.81045
1.87291
1.8925
1.87417
1.82734
1.76438
1.69863
1.64214
1.60184
1.58064
1.58188
1.61397
1.68714
1.78882
1.8772
1.89975
1.80757
1.57133
1.19207
0.701278
-0.133602
-0.66236
0
2.45987
6.83911
12.4726
17.9431
21.5517
22.0522
19.2532
14.1201
8.30091
3.35764
0.153728
-1.29425
-1.52557
-1.17409
-0.730452
-0.302926
0.0905785
0.432759
0.734907
1.00853
1.25738
1.477
1.66581
1.82403
1.95405
2.06038
2.14917
2.22742
2.30199
2.37879
2.46213
2.55421
2.6563
2.76921
2.89331
3.02855
3.17457
3.33068
3.49596
3.66954
3.85095
4.04042
4.23903
4.44852
4.67093
4.90788
5.15987
5.42566
5.70192
5.98334
6.26301
6.53327
6.78652
7.01598
7.21615
7.3833
7.51555
7.61241
7.67386
7.69977
7.68942
7.64134
7.55349
7.42372
7.2504
7.03319
6.77355
6.47492
6.14302
5.78578
5.41241
5.03276
4.657
4.29494
3.95538
3.64544
3.37004
3.13178
2.931
2.76564
2.63216
2.5266
2.44638
2.38876
2.35142
2.3331
2.33326
2.35155
2.38755
2.44062
2.50987
2.59407
2.69112
2.80095
2.91982
3.03641
3.13607
3.20507
3.23508
3.22636
3.18802
3.13507
3.08329
3.04411
3.01878
3.0025
2.9907
2.97818
2.95962
2.93047
2.88764
2.82987
2.75784
2.67436
2.58334
2.48946
2.39777
2.31295
2.23851
2.17715
2.13036
2.09838
2.08029
2.07422
2.07764
2.08767
2.10133
2.11576
2.12838
2.13701
2.14006
2.13665
2.12663
2.11065
2.09008
2.06682
2.04306
2.02097
2.00239
1.98858
1.98027
1.97768
1.98063
1.98874
2.00179
2.02009
2.04473
2.07761
2.12137
2.17905
2.25364
2.34764
2.46239
2.59839
2.75737
2.94358
3.16109
3.3981
3.62115
3.7922
3.87823
3.86232
3.75058
3.57026
3.35918
3.15171
2.96709
2.80042
2.64252
2.4871
2.32827
2.15878
1.97082
1.75694
1.51128
1.21982
0.886157
0.463539
-0.303864
0
2.1493
6.40123
12.1292
17.8553
21.7597
22.4805
19.7725
14.6246
8.74498
3.73121
0.423484
-1.22525
-1.79695
-1.8926
-1.74164
-1.52916
-1.23287
-0.882094
-0.549713
-0.302704
-0.138511
-0.0158382
0.0906452
0.190712
0.28907
0.389112
0.493249
0.602897
0.718632
0.840407
0.967816
1.10033
1.23748
1.37896
1.52464
1.67452
1.82862
1.98687
2.14907
2.31498
2.48444
2.65768
2.83553
3.01965
3.21249
3.41708
3.63659
3.87362
4.1296
4.4041
4.69449
4.99585
5.30128
5.60239
5.88953
6.15267
6.38301
6.57402
6.72165
6.824
6.88089
6.8933
6.8629
6.79176
6.68228
6.53722
6.35993
6.15462
5.9265
5.68171
5.42685
5.16837
4.91283
4.66681
4.43654
4.22749
4.04374
3.88766
3.7602
3.6603
3.58461
3.52882
3.4884
3.4594
3.43887
3.42499
3.41686
3.41415
3.41664
3.42383
3.43509
3.44974
3.4672
3.48718
3.50966
3.53482
3.56276
3.59321
3.62531
3.65725
3.68644
3.70992
3.72491
3.72933
3.72225
3.70405
3.67637
3.64184
3.60358
3.56478
3.52812
3.49544
3.46766
3.44472
3.42554
3.40794
3.3886
3.36286
3.32541
3.27083
3.19441
3.09307
2.96624
2.81631
2.64873
2.4716
2.29473
2.12986
1.98764
1.87611
1.79956
1.75807
1.7478
1.76194
1.79222
1.83051
1.87029
1.90812
1.94315
1.97698
2.01319
2.05658
2.1121
2.1838
2.27382
2.38181
2.50445
2.63656
2.77222
2.90541
3.03097
3.14553
3.24799
3.33937
3.42235
3.50028
3.57594
3.65111
3.72404
3.78849
3.83568
3.85718
3.84752
3.80564
3.73475
3.64086
3.5307
3.41051
3.28329
3.14841
3.00221
2.83867
2.65031
2.42879
2.16244
1.78607
1.31385
0.785564
-0.0695929
0
1.81471
5.8113
11.5589
17.676
22.2889
23.8488
21.8442
17.0044
10.901
5.21438
1.07676
-1.20122
-1.97243
-1.85118
-1.34139
-0.726739
-0.0588557
0.622538
1.15999
1.43622
1.6018
1.72395
1.82208
1.90142
1.96853
2.0303
2.09302
2.16142
2.23822
2.32455
2.42026
2.52415
2.63436
2.74881
2.86554
2.98307
3.10067
3.21856
3.33802
3.46124
3.59111
3.73082
3.8834
4.05134
4.23628
4.43886
4.6588
4.89499
5.14585
5.40959
5.68458
5.96962
6.26403
6.56762
6.88189
7.2122
7.56388
7.92167
8.2453
8.48926
8.61915
8.62253
8.50974
8.30564
8.03718
7.72357
7.37732
7.01284
6.64198
6.27296
5.91211
5.5651
5.23756
4.93426
4.65831
4.4108
4.19088
3.9961
3.82295
3.66752
3.52611
3.39568
3.27415
3.16049
3.05478
2.95822
2.87272
2.80024
2.74251
2.70051
2.67413
2.66204
2.66177
2.67014
2.68367
2.69913
2.71382
2.72575
2.73341
2.73626
2.73477
2.73057
2.72661
2.72699
2.7364
2.75926
2.79855
2.85602
2.93086
3.01626
3.1018
3.17642
3.23084
3.25941
3.261
3.23884
3.19954
3.15149
3.10307
3.06088
3.02874
3.00765
2.99683
2.99573
3.00374
3.02055
3.04604
3.08028
3.12339
3.17336
3.22477
3.27001
3.30134
3.31308
3.30334
3.27475
3.2338
3.18907
3.14884
3.11872
3.10011
3.092
3.0934
3.10333
3.12168
3.14945
3.18833
3.23986
3.30448
3.38025
3.46368
3.55101
3.63818
3.72087
3.79504
3.85732
3.90506
3.93622
3.94928
3.94318
3.91738
3.87197
3.80788
3.72724
3.63319
3.52962
3.42082
3.31082
3.20252
3.09696
2.99305
2.88744
2.77488
2.64888
2.50279
2.33087
2.12943
1.89717
1.62861
1.33069
0.540442
0
0.691775
3.29248
7.81609
13.3624
18.3476
21.146
20.806
17.4576
12.211
6.62356
2.03733
-0.875999
-2.17349
-2.36264
-2.01275
-1.68224
-1.39375
-1.1521
-0.928285
-0.692215
-0.444572
-0.189923
0.0665791
0.31871
0.55989
0.785136
0.991283
1.17626
1.34025
1.48555
1.61611
1.73683
1.8528
1.9686
2.0879
2.21318
2.34574
2.48595
2.63345
2.78756
2.94744
3.11233
3.28162
3.45494
3.63222
3.81374
4.0002
4.19271
4.39265
4.60145
4.82023
5.0494
5.28836
5.53565
5.78864
6.04167
6.28412
6.50134
6.67959
6.80655
6.87246
6.87094
6.7995
6.65969
6.45682
6.19942
5.89835
5.56868
5.22459
4.87652
4.53147
4.19525
3.87365
3.57227
3.2963
3.05038
2.8381
2.66142
2.52048
2.41379
2.33846
2.28953
2.26096
2.24688
2.24236
2.24394
2.24982
2.25964
2.27407
2.29423
2.3211
2.35537
2.39749
2.44794
2.50729
2.57629
2.65579
2.74642
2.84841
2.96205
3.08477
3.20816
3.32037
3.40965
3.46729
3.48998
3.48051
3.44664
3.39861
3.34618
3.29614
3.25094
3.21046
3.17396
3.14067
3.10993
3.08139
3.05479
3.02963
3.00474
2.97811
2.94684
2.9074
2.85605
2.78938
2.70494
2.60159
2.47984
2.34182
2.1911
2.03233
1.87075
1.71168
1.56031
1.42161
1.30001
1.19891
1.12047
1.06581
1.03502
1.02733
1.04122
1.07474
1.1257
1.19193
1.27126
1.36144
1.46018
1.5652
1.67403
1.78405
1.89255
1.9971
2.09587
2.18802
2.27385
2.35483
2.4333
2.51201
2.59354
2.67999
2.77216
2.86807
2.96165
3.04362
3.10339
3.13097
3.11875
3.06308
2.96524
2.83177
2.67374
2.50477
2.33795
2.18107
2.03703
1.90221
1.76301
1.60135
1.40037
1.1279
0.789573
-0.258955
-0.895787
0
3.01663
7.96223
13.8119
19.0443
22.1974
22.3763
19.5491
14.5583
8.82579
3.81319
0.451786
-1.14514
-1.51353
-1.36054
-1.12502
-0.856927
-0.522958
-0.110074
0.332084
0.751788
1.12134
1.4392
1.71867
1.96902
2.19313
2.39532
2.58091
2.75529
2.92317
3.08808
3.25227
3.41687
3.58233
3.74872
3.91604
4.08429
4.2534
4.42313
4.59307
4.76267
4.93145
5.09919
5.26612
5.433
5.60116
5.77235
5.94863
6.13211
6.32459
6.52712
6.73947
6.95972
7.18401
7.40618
7.61722
7.80764
7.96892
8.0949
8.18234
8.2306
8.24051
8.2128
8.14685
8.04199
7.89781
7.71148
7.48087
7.20635
6.89173
6.5444
6.17496
5.79648
5.4222
5.06483
4.73549
4.44291
4.19275
3.98755
3.82714
3.70895
3.62765
3.5754
3.54333
3.52299
3.50726
3.49098
3.47119
3.44701
3.41925
3.38982
3.36107
3.33532
3.31448
3.30003
3.29335
3.29561
3.30766
3.32993
3.36219
3.40337
3.45153
3.50365
3.55594
3.60438
3.64519
3.67529
3.69252
3.69576
3.68492
3.66086
3.62537
3.58106
3.53125
3.47986
3.43141
3.39101
3.36324
3.35152
3.35749
3.38061
3.41866
3.46706
3.5205
3.57414
3.62459
3.67027
3.71119
3.7481
3.78135
3.81032
3.8331
3.84691
3.84912
3.83826
3.81482
3.78143
3.7424
3.70296
3.6681
3.64144
3.6252
3.62072
3.62912
3.65132
3.68856
3.74278
3.81681
3.91423
4.03887
4.1941
4.382
4.60862
4.89176
5.24373
5.6272
5.97669
6.23501
6.36715
6.36608
6.24964
6.04987
5.79991
5.5258
5.24817
4.97917
4.7234
4.48276
4.25808
4.04905
3.85358
3.66681
3.48151
3.2888
3.07899
2.81895
2.30972
1.58237
0.729682
-0.113885
0
1.89531
5.95498
11.709
17.7729
22.3154
23.8449
21.8978
17.2361
11.4478
6.19073
2.51446
0.606247
0.00950985
0.0762934
0.366551
0.682768
1.04676
1.46141
1.8832
2.26286
2.58972
2.87265
3.12444
3.35264
3.55929
3.74667
3.91798
4.07695
4.22756
4.37355
4.51793
4.66249
4.80743
4.95065
5.08742
5.21185
5.31862
5.40498
5.47207
5.52547
5.57447
5.6305
5.70505
5.80694
5.93941
6.1022
6.29417
6.51368
6.75793
7.02309
7.30449
7.59668
7.89362
8.18854
8.47357
8.74035
8.98013
9.18331
9.34057
9.44688
9.49826
9.49168
9.42541
9.29953
9.1163
8.88014
8.59707
8.27417
7.92253
7.55202
7.16902
6.77892
6.38783
6.00281
5.63195
5.28402
4.96921
4.69546
4.46836
4.29144
4.16959
4.09707
4.06136
4.048
4.04321
4.03617
4.02011
3.99237
3.95361
3.9066
3.85543
3.80372
3.75433
3.70961
3.67151
3.64146
3.62044
3.60895
3.60699
3.61405
3.62909
3.65048
3.67564
3.7009
3.72217
3.73578
3.73936
3.7325
3.71706
3.69689
3.67701
3.66249
3.6571
3.66223
3.67779
3.7021
3.7322
3.76445
3.79506
3.82053
3.83798
3.84539
3.8416
3.82645
3.80073
3.76617
3.72546
3.68201
3.63977
3.60259
3.57389
3.55652
3.55295
3.5645
3.58781
3.61508
3.63818
3.65155
3.65448
3.65157
3.65112
3.66177
3.69079
3.73826
3.7948
3.84751
3.88636
3.9093
3.92325
3.94075
3.97396
4.02898
4.09861
4.17469
4.249
4.31268
4.35775
4.37817
4.37034
4.33315
4.26761
4.17636
4.06311
3.9321
3.78807
3.63585
3.47968
3.32296
3.16839
3.01754
2.87033
2.72448
2.57406
2.40987
2.2212
1.9982
1.73426
1.42761
1.08149
0.196577
-0.520507
0
2.44662
6.94167
12.7281
18.2363
21.6549
21.7617
18.541
13.1833
7.45774
2.85258
0.00617447
-1.29266
-1.66619
-1.59986
-1.28714
-0.896342
-0.419538
0.10551
0.611972
1.05801
1.44958
1.8045
2.12722
2.4126
2.65843
2.86458
3.03345
3.17019
3.28238
3.37926
3.47041
3.56432
3.66802
3.78825
3.92337
4.05729
4.16976
4.24418
4.27471
4.27024
4.25367
4.25639
4.30966
4.43387
4.61876
4.84738
5.10884
5.39564
5.70058
6.01716
6.3403
6.66654
6.9937
7.32017
7.64324
7.95598
8.2456
8.49665
8.69355
8.82453
8.88361
8.87035
8.78775
8.64045
8.4342
8.18032
7.89405
7.58839
7.27368
6.95788
6.64609
6.34124
6.04532
5.75957
5.48494
5.22268
4.97454
4.74279
4.52983
4.33772
4.1677
4.01992
3.89339
3.78623
3.69603
3.6203
3.55677
3.50358
3.4593
3.42268
3.39258
3.36765
3.34584
3.3244
3.3004
3.27121
3.23497
3.19099
3.13982
3.08312
3.02334
2.96328
2.90553
2.85235
2.80562
2.76668
2.73633
2.71475
2.70165
2.69636
2.69794
2.7053
2.71716
2.732
2.74799
2.76293
2.77422
2.7791
2.77499
2.7598
2.7323
2.6924
2.64124
2.58118
2.51553
2.44819
2.3831
2.32357
2.27214
2.23044
2.199
2.17694
2.1623
2.15281
2.14661
2.14272
2.14134
2.14357
2.15092
2.16455
2.18504
2.21099
2.23854
2.26223
2.27646
2.27712
2.26288
2.23595
2.20198
2.16894
2.14544
2.13851
2.151
2.1812
2.22624
2.28079
2.33783
2.3903
2.43225
2.45934
2.46891
2.4595
2.4304
2.38141
2.3136
2.22854
2.12943
2.02119
1.91016
1.80295
1.70511
1.6195
1.5467
1.48232
1.41701
1.33958
1.23983
1.09966
0.918451
0.711277
0.0629215
0
1.32348
4.64701
9.91878
16.1404
21.5593
24.3606
23.5343
19.3998
13.4438
7.55819
3.15502
0.681647
-0.257145
-0.381366
-0.158971
0.0908527
0.417967
0.959751
1.65945
2.34936
2.87586
3.13608
3.07645
2.67779
1.97222
1.06691
0.156925
-0.456223
-0.629433
-0.678292
-0.695237
-0.690471
-0.667881
-0.631105
-0.582924
-0.52585
-0.461113
-0.388969
-0.309214
-0.221484
-0.125282
-0.0198269
0.0962452
0.225051
0.36949
0.533052
0.719362
0.931506
1.17126
1.43838
1.73024
2.04182
2.36622
2.69564
3.02257
3.34093
3.64676
3.93744
4.20965
4.46001
4.68698
4.88303
5.02577
5.08705
5.04579
4.89755
4.65655
4.35014
4.00911
3.65876
3.3128
2.97473
2.64614
2.33014
2.0306
1.75181
1.49769
1.27142
1.0751
0.909198
0.772834
0.664934
0.584842
0.530804
0.501764
0.497291
0.517201
0.561033
0.627627
0.714901
0.819903
0.938865
1.06742
1.20176
1.33842
1.47416
1.60571
1.72942
1.8412
1.93704
2.01364
2.0685
2.10047
2.11046
2.10177
2.08017
2.0533
2.02954
2.0166
2.0195
2.03942
2.0739
2.11908
2.16892
2.21645
2.25489
2.27854
2.28337
2.26722
2.22979
2.17258
2.09911
2.01438
1.92427
1.83523
1.7538
1.6856
1.63589
1.6094
1.60581
1.6166
1.63045
1.63651
1.62743
1.60119
1.56121
1.51485
1.47077
1.43632
1.4142
1.40354
1.40251
1.40971
1.42395
1.44473
1.47254
1.50881
1.55567
1.61554
1.69038
1.78161
1.8898
2.01433
2.1532
2.30296
2.45885
2.61512
2.76538
2.90329
3.02339
3.12155
3.19527
3.24361
3.26696
3.26666
3.24465
3.20342
3.14625
3.0769
2.99981
2.91987
2.84177
2.76941
2.70534
2.64433
2.5674
2.4473
2.25563
1.97131
1.58746
1.11428
0.392453
-0.393845
0
2.25527
6.54657
12.23
17.8656
21.6952
22.3988
19.7302
14.6353
8.76405
3.67861
0.239093
-1.51874
-2.06669
-1.94248
-1.47603
-0.962749
-0.435023
0.0282253
0.368856
0.638316
0.875804
1.09593
1.3032
1.49929
1.68553
1.86265
2.03063
2.18893
2.3368
2.47369
2.59968
2.7157
2.82361
2.92608
3.02645
3.12846
3.236
3.35283
3.48231
3.62691
3.78779
3.96434
4.15394
4.352
4.55236
4.74642
4.92532
5.08219
5.21359
5.3204
5.40775
5.48387
5.5581
5.63856
5.7326
5.84163
5.95302
6.04761
6.10618
6.11495
6.06797
5.96584
5.81204
5.60963
5.3638
5.08543
4.78246
4.46034
4.12474
3.78264
3.44189
3.11043
2.79553
2.50323
2.23806
2.00307
1.80005
1.62967
1.4917
1.38515
1.30808
1.25765
1.23047
1.2232
1.23143
1.24955
1.27287
1.29842
1.32544
1.35551
1.39201
1.43912
1.50068
1.57894
1.67301
1.78035
1.89754
2.02023
2.14278
2.25821
2.35941
2.44046
2.49706
2.52701
2.53068
2.51107
2.47357
2.42523
2.37369
2.3259
2.28651
2.2576
2.23931
2.23066
2.22908
2.23101
2.23263
2.23061
2.22257
2.20743
2.18552
2.1584
2.12849
2.09862
2.07146
2.049
2.03236
2.02179
2.01656
2.01529
2.01622
2.01765
2.01833
2.01779
2.0166
2.01639
2.01979
2.02999
2.05005
2.08214
2.12696
2.18329
2.24837
2.31763
2.38603
2.44921
2.50429
2.55029
2.5881
2.61999
2.64894
2.67814
2.71023
2.74736
2.79109
2.84233
2.90131
2.96739
3.03822
3.10884
3.17199
3.21926
3.24225
3.23387
3.1896
3.10849
2.99382
2.85315
2.69781
2.54149
2.39693
2.27302
2.18658
2.15824
2.16294
2.1566
2.0916
1.93587
1.68757
1.37794
0.354483
0
1.17294
4.40698
9.5691
15.6442
20.9476
23.7618
23.1175
19.2644
13.5336
7.66858
3.04428
0.221239
-0.996472
-1.17529
-0.813874
-0.340405
0.193948
0.743566
1.25523
1.66757
1.99695
2.27535
2.51988
2.73611
2.92377
3.08483
3.22329
3.34469
3.45525
3.56081
3.66593
3.77322
3.8834
3.99531
4.10707
4.21738
4.32641
4.43615
4.55
4.67193
4.80557
4.95294
5.11435
5.28998
5.47982
5.68358
5.90083
6.1309
6.37276
6.62491
6.88533
7.15165
7.42136
7.69205
7.96164
8.22843
8.49106
8.7481
8.99753
9.23619
9.45896
9.6577
9.82135
9.93895
9.99866
9.98991
9.90608
9.74705
9.5209
9.24375
8.93758
8.6266
8.32903
8.05212
7.80015
7.57807
7.38903
7.23529
7.1181
7.03674
6.98933
6.9728
6.98496
7.02041
7.07067
7.12634
7.17803
7.21726
7.2373
7.23389
7.2057
7.15471
7.08646
7.00902
6.93202
6.86523
6.82092
6.81387
6.83735
6.8726
6.89651
6.89054
6.8474
6.77275
6.68179
6.59301
6.52218
6.4713
6.43713
6.41812
6.41363
6.42116
6.43534
6.45072
6.46295
6.46972
6.47102
6.46862
6.46488
6.46124
6.45705
6.44938
6.43361
6.40475
6.359
6.29513
6.21507
6.12371
6.02788
5.93482
5.85005
5.77685
5.71722
5.6715
5.63882
5.61774
5.60677
5.60469
5.61063
5.62388
5.64363
5.66857
5.69706
5.727
5.7558
5.7808
5.79985
5.81179
5.81671
5.81589
5.81142
5.80545
5.79934
5.79298
5.78418
5.76884
5.74164
5.69696
5.62983
5.53673
5.416
5.26804
5.09559
4.90421
4.70014
4.48956
4.27858
4.07275
3.87605
3.69005
3.51327
3.34048
3.16253
2.96784
2.74409
2.48036
2.11918
1.64571
1.10403
0.1548
0
1.42894
4.95284
10.3325
16.3997
21.3595
23.5298
22.1338
17.6719
11.6416
5.78941
1.36266
-1.23144
-2.27364
-2.3218
-1.86587
-1.21593
-0.537599
0.0566025
0.495419
0.776283
0.993191
1.19574
1.39571
1.59656
1.80009
2.0073
2.2183
2.43213
2.64665
2.85889
3.06562
3.26403
3.45237
3.63035
3.79919
3.96139
4.12034
4.27981
4.44351
4.61475
4.79628
4.99015
5.19768
5.4195
5.65557
5.90521
6.16718
6.43968
6.72032
7.00613
7.29345
7.578
7.85496
8.11912
8.36498
8.58676
8.77807
8.93257
9.04635
9.11714
9.14328
9.12346
9.05657
8.94163
8.77787
8.56502
8.30381
7.99897
7.65799
7.2886
6.89856
6.49631
6.09094
5.69147
5.30617
4.94203
4.60461
4.29942
4.03294
3.81045
3.63271
3.49913
3.40742
3.35321
3.33002
3.32968
3.3433
3.36254
3.38075
3.39422
3.40173
3.40315
3.3993
3.39144
3.3809
3.36877
3.35594
3.34317
3.33128
3.32125
3.31415
3.31099
3.31242
3.3184
3.32811
3.33992
3.35166
3.36099
3.36583
3.36475
3.35713
3.34321
3.32392
3.30065
3.27505
3.24874
3.2232
3.19969
3.17923
3.16256
3.15014
3.1422
3.13866
3.13919
3.14311
3.14944
3.1568
3.16339
3.16746
3.16772
3.16384
3.15657
3.14766
3.13925
3.13308
3.1302
3.12906
3.1256
3.1152
3.09498
3.06572
3.03257
3.0041
2.98998
2.99819
3.02989
3.08104
3.14753
3.22489
3.30769
3.39042
3.46801
3.53616
3.59106
3.62897
3.6463
3.64038
3.60886
3.55008
3.46361
3.35076
3.21491
3.06147
2.89738
2.73044
2.56781
2.41488
2.27534
2.15145
2.04367
1.94321
1.8352
1.70454
1.54097
1.3432
1.09596
0.120613
0
1.6694
5.57796
11.2006
17.0433
21.1939
22.1852
19.6895
14.6361
8.69746
3.47913
-0.105644
-1.98132
-2.61896
-2.59643
-2.29154
-1.92319
-1.48255
-0.989448
-0.53312
-0.197949
0.0430923
0.232927
0.395276
0.539935
0.672193
0.797766
0.922026
1.04939
1.18296
1.32444
1.47435
1.63222
1.79685
1.96648
2.13895
2.31182
2.48263
2.64924
2.8103
2.96576
3.11718
3.2679
3.42279
3.58767
3.76844
3.97002
4.19544
4.44506
4.71629
5.00391
5.30073
5.59877
5.89051
6.16999
6.43355
6.67984
6.90873
7.11994
7.31286
7.48588
7.63191
7.7338
7.7693
7.719
7.57283
7.3332
7.01444
6.63971
6.23689
5.83373
5.4435
5.07046
4.71741
4.38667
4.07863
3.79235
3.52632
3.27925
3.05119
2.84281
2.65546
2.49079
2.35014
2.23402
2.14191
2.07245
2.02332
1.99174
1.97476
1.96953
1.97355
1.98488
2.0024
2.02593
2.05603
2.09395
2.14104
2.19822
2.26552
2.34168
2.42453
2.5113
2.59897
2.68479
2.76673
2.84368
2.91537
2.98202
3.04353
3.09908
3.14726
3.18642
3.21546
3.2351
3.24887
3.26293
3.28462
3.32029
3.37297
3.44001
3.51536
3.59256
3.66507
3.72788
3.77867
3.81806
3.84894
3.87519
3.9001
3.92522
3.94897
3.96657
3.97188
3.95976
3.92833
3.88018
3.82224
3.76427
3.7165
3.68644
3.67589
3.68291
3.70458
3.73729
3.77674
3.81877
3.86015
3.89892
3.93433
3.96667
3.99685
4.02583
4.05424
4.08194
4.1078
4.12966
4.14454
4.14908
4.14002
4.11473
4.07167
4.0107
3.9332
3.84188
3.74031
3.63215
3.52019
3.40544
3.28656
3.15945
3.01762
2.85276
2.65586
2.4107
2.02708
1.51181
0.918398
0.053511
0
1.51091
5.06527
10.44
16.5242
21.5868
23.9628
22.8224
18.5676
12.6133
6.6887
2.08496
-0.734874
-2.032
-2.38326
-2.28048
-1.9737
-1.51777
-0.929906
-0.27792
0.334691
0.822198
1.17289
1.43338
1.64865
1.83738
2.00512
2.15301
2.28287
2.39809
2.50312
2.60269
2.70099
2.8012
2.9053
3.01438
3.12911
3.25041
3.37994
3.52016
3.67392
3.84364
4.0304
4.23318
4.44851
4.67117
4.89523
5.1151
5.32685
5.5291
5.72335
5.91357
6.10516
6.30351
6.51252
6.73338
6.96498
7.20152
7.43175
7.64241
7.82042
7.95446
8.03406
8.05255
8.00532
7.88975
7.70557
7.45584
7.14785
6.79355
6.40886
6.01221
5.62092
5.24662
4.8988
4.58431
4.30719
4.0688
3.86892
3.70714
3.58298
3.49403
3.43782
3.41203
3.41406
3.44053
3.48729
3.54962
3.62279
3.70253
3.78516
3.86818
3.95
4.02949
4.10588
4.17884
4.24839
4.31496
4.37927
4.44217
4.50448
4.56669
4.62876
4.68986
4.74798
4.79961
4.84027
4.86549
4.87161
4.85683
4.82202
4.77075
4.70874
4.64267
4.57879
4.52132
4.47179
4.43058
4.3973
4.37095
4.35034
4.33422
4.32129
4.31006
4.2985
4.28401
4.26392
4.23608
4.19944
4.15442
4.10271
4.0466
3.9881
3.92809
3.8661
3.80062
3.73007
3.65396
3.57396
3.49433
3.42247
3.36691
3.33516
3.33155
3.3584
3.41077
3.47723
3.54428
3.59963
3.63482
3.6466
3.6369
3.61156
3.57835
3.54474
3.51551
3.49254
3.47497
3.45941
3.4412
3.41577
3.37984
3.33217
3.27354
3.2063
3.1336
3.05872
2.9838
2.90981
2.83645
2.76205
2.68343
2.59596
2.49377
2.35283
2.02394
1.50087
0.850136
0
0.0632142
1.93144
5.99309
11.6675
17.4553
21.5546
22.6829
20.6106
16.1582
10.7507
5.81422
2.28431
0.392366
-0.221717
-0.156648
0.131085
0.43506
0.766255
1.12588
1.49932
1.86863
2.22313
2.55747
2.86999
3.15913
3.42144
3.65358
3.85409
4.02355
4.16458
4.28148
4.37976
4.46554
4.54499
4.62374
4.70656
4.79702
4.89748
5.00924
5.13289
5.26876
5.41747
5.58028
5.75921
5.95683
6.17571
6.41765
6.68291
6.96959
7.2734
7.58776
7.90436
8.21402
8.5074
8.77565
9.01219
9.21282
9.37575
9.50121
9.59066
9.64593
9.66665
9.65241
9.60196
9.51319
9.38397
9.21317
9.00143
8.75143
8.46776
8.15635
7.82511
7.48121
7.13111
6.7814
6.43888
6.11045
5.80295
5.52273
5.27497
5.06315
4.88866
4.75066
4.64628
4.5711
4.51987
4.48697
4.46705
4.4556
4.44918
4.44543
4.44295
4.44094
4.43895
4.43656
4.43331
4.4287
4.42236
4.41413
4.40417
4.39277
4.38004
4.36557
4.34825
4.32647
4.29866
4.26402
4.22312
4.17798
4.13157
4.08676
4.04515
4.00648
3.96768
3.92397
3.87037
3.80344
3.72251
3.63011
3.53144
3.43321
3.34184
3.26133
3.19377
3.14025
3.10031
3.07212
3.05264
3.03733
3.02071
2.9976
2.96398
2.91763
2.85864
2.78932
2.71387
2.6376
2.56599
2.50339
2.45348
2.41889
2.40114
2.40084
2.41794
2.45188
2.5018
2.56637
2.64382
2.73214
2.82916
2.93254
3.03985
3.14861
3.2561
3.35823
3.44874
3.52094
3.56761
3.58236
3.56129
3.50422
3.41483
3.29983
3.16743
3.02606
2.88297
2.74234
2.60632
2.4756
2.34891
2.22242
2.08839
1.93591
1.75229
1.52521
1.17283
0.705247
0.168182
-0.81105
-0.807827
0.951107
4.74066
10.0227
132
314
496
676
857
1038
1219
1399
1579
1761
1946
2126
2308
2490
2674
2856
3037
3215
3394
3573
3673
3571
3742
3646
3725
3722
0
0
0
0
0
0
0
0
0
0
0
0
0
0
0
0
0
0
0
0
0
0
0
0
0
0
0
0
0
0
0
0
0
0
0
0
0
0
0
0
0
0
0
0
0
0
0
0
0
0
0
0
0
0
0
0
0
0
0
0
0
0
0
0
0
0
0
0
0
0
0
0
0
0
0
0
0
0
0
0
0
0
0
0
0
0
0
0
0
0
0
0
0
0
0
0
0
0
0
0
0
0
0
0
0
0
0
0
0
0
0
0
0
0
0
0
0
0
0
0
0
0
0
0
0
0
0
0
0
0
0
0
0
0
0
0
0
0
0
0
0
0
0
0
0
0
0
0
0
0
0
0
0
0
0
0
0
0
0
0
0
0
0
0
0
0
0
0
0
0
0
0
0
0
0
0
0
0
0
0
0
0
0
0
0
0
0
0
0
0
0
0
0
0
0
0
0
0
0
0
0
0
0
0
0
0
0
0
0
0
0
0
0
0
0
0
0
0
0
0
0
0
0
0
0
0
0
0
0
0
0
0
0
0
0
0
0
0
0
0
0
0
0
0
0
0
0
0
0
0
0
0
0
0
0
0
0
0
0
0
0
0
0
0
0
0
0
0
0
0
0
0
0
0
0
0
0
0
0
0
0
0
0
0
0
0
0
0
0
0
0
0
0
0
0
0
0
0
0
0
0
0
0
0
0
0
0
0
0
0
0
0
0
0
0
0
0
0
0
0
0
0
0
0
0
0
0
0
0
0
0
0
0
0
0
0
0
0
0
0
0
0
0
0
0
0
0
0
0
0
0
0
0
0
0
0
0
0
0
0
0
0
0
0
0
0
0
0
0
0
0
0
0
0
0
0
0
0
0
0
0
0
0
0
0
0
0
0
0
0
0
0
0
0
0
0
0
0
0
0
0
0
0
0
0
0
0
0
0
0
0
0
0
0
0
0
0
0
0
0
0
0
0
0
0
0
0
0
0
0
0
0
0
0
0
0
0
0
0
0
0
0
0
0
0
0
0
0
0
0
0
0
0
0
0
0
0
0
0
0
0
0
0
0
0
0
0
0
0
0
0
0
0
0
0
0
0
0
0
0
0
0
0
0
0
0
0
0
0
0
0
0
0
0
0
0
0
0
0
0
0
0
0
0
0
0
0
0
0
0
0
0
0
0
0
0
0
0
0
0
0
0
0
0
0
0
0
0
0
0
0
0
0
0
0
0
0
0
0
0
0
0
0
0
0
0
0
0
0
0
0
0
0
0
0
0
0
0
0
0
0
0
0
0
0
0
0
0
0
0
0
0
0
0
0
0
0
0
0
0
0
0
0
0
0
0
0
0
0
0
0
0
0
0
0
0
0
0
0
0
0
0
0
0
0
0
0
0
0
0
0
0
0
0
0
0
0
0
0
0
0
0
0
0
0
0
0
0
0
0
0
0
0
0
0
0
0
0
0
0
0
0
0
0
0
0
0
0
0
0
0
0
0
0
0
0
0
0
0
0
0
0
0
0
0
0
0
0
0
0
0
0
0
0
0
0
0
0
0
0
0
0
0
0
0
0
0
0
0
0
0
0
0
0
0
0
0
0
0
0
0
0
0
0
0
0
0
0
0
0
0
0
0
0
0
0
0
0
0
0
0
0
0
0
0
0
0
0
0
0
0
0
0
0
0
0
0
0
0
0
0
0
0
0
0
0
0
0
0
0
0
0
0
0
0
0
0
0
0
0
0
0
0
0
0
0
0
0
0
0
0
0
0
0
0
0
0
0
0
0
0
0
0
0
0
0
0
0
0
0
0
0
0
0
0
0
0
0
0
0
0
0
0
0
0
0
0
0
0
0
0
0
0
0
0
0
0
0
0
0
0
0
0
0
0
0
0
0
0
0
0
0
0
0
0
0
0
0
0
0
0
0
0
0
0
0
0
0
0
0
0
0
0
0
0
0
0
0
0
0
0
0
0
0
0
0
0
0
0
0
0
0
0
0
0
0
0
0
0
0
0
0
0
0
0
0
0
0
0
0
0
0
0
0
0
0
0
0
0
0
0
0
0
0
0
0
0
0
0
0
0
0
0
0
0
0
0
0
0
0
0
0
0
0
0
0
0
0
0
0
0
0
0
0
0
0
0
0
0
0
0
0
0
0
0
0
0
0
0
0
0
0
0
0
0
0
0
0
0
0
0
0
0
0
0
0
0
0
0
0
0
0
0
0
0
0
0
0
0
0
0
0
0
0
0
0
0
0
0
0
0
0
0
0
0
0
0
0
0
0
0
0
0
0
0
0
0
0
0
0
0
0
0
0
0
0
0
0
0
0
0
0
0
0
0
0
0
0
0
0
0
0
0
0
0
0
0
0
0
0
0
0
0
0
0
0
0
0
0
0
0
0
0
0
0
0
0
0
0
0
0
0
0
0
0
0
0
0
0
0
0
0
0
0
0
0
0
0
0
0
0
0
0
0
0
0
0
0
0
0
0
0
0
0
0
0
0
0
0
0
0
0
0
0
0
0
0
0
0
0
0
0
0
0
0
0
0
0
0
0
0
0
0
0
0
0
0
0
0
0
0
0
0
0
0
0
0
0
0
0
0
0
0
0
0
0
0
0
0
0
0
0
0
0
0
0
0
0
0
0
0
0
0
0
0
0
0
0
0
0
0
0
0
0
0
0
0
0
0
0
0
0
0
0
0
0
0
0
0
0
0
0
0
0
0
0
0
0
0
0
0
0
0
0
0
0
0
0
0
0
0
0
0
0
0
0
0
0
0
0
0
0
0
0
0
0
0
0
0
0
0
0
0
0
0
0
0
0
0
0
0
0
0
0
0
0
0
0
0
0
0
0
0
0
0
0
0
0
0
0
0
0
0
0
0
0
0
0
0
0
0
0
0
0
0
0
0
0
0
0
0
0
0
0
0
0
0
0
0
0
0
0
0
0
0
0
0
0
0
0
0
0
0
0
0
0
0
0
0
0
0
0
0
0
0
0
0
0
0
0
0
0
0
0
0
0
0
0
0
0
0
0
0
0
0
0
0
0
0
0
0
0
0
0
0
0
0
0
0
0
0
0
0
0
0
0
0
0
0
0
0
0
0
0
0
0
0
0
0
0
0
0
0
0
0
0
0
0
0
0
0
0
0
0
0
0
0
0
0
0
0
0
0
0
0
0
0
0
0
0
0
0
0
0
0
0
0
0
0
0
0
0
0
0
0
0
0
0
0
0
0
0
0
0
0
0
0
0
0
0
0
0
0
0
0
0
0
0
0
0
0
0
0
0
0
0
0
0
0
0
0
0
0
0
0
0
0
0
0
0
0
0
0
0
0
0
0
0
0
0
0
0
0
0
0
0
0
0
0
0
0
0
0
0
0
0
0
0
0
0
0
0
0
0
0
0
0
0
0
0
0
0
0
0
0
0
0
0
0
0
0
0
0
0
0
0
0
0
0
0
0
0
0
0
0
0
0
0
0
0
0
0
0
0
0
0
0
0
0
0
0
0
0
0
0
0
0
0
0
0
0
0
0
0
0
0
0
0
0
0
0
0
0
0
0
0
0
0
0
0
0
0
0
0
0
0
0
0
0
0
0
0
0
0
0
0
0
0
0
0
0
0
0
0
0
0
0
0
0
0
0
0
0
0
0
0
0
0
0
0
0
0
0
0
0
0
0
0
0
0
0
0
0
0
0
0
0
0
0
0
0
0
0
0
0
0
0
0
0
0
0
0
0
0
0
0
0
0
0
0
0
0
0
0
0
0
0
0
0
0
0
0
0
0
0
0
0
0
0
0
0
0
0
0
0
0
0
0
0
0
0
0
0
0
0
0
0
0
0
0
0
0
0
0
0
0
0
0
0
0
0
0
0
0
0
0
0
0
0
0
0
0
0
0
0
0
0
0
0
0
0
0
0
0
0
0
0
0
0
0
0
0
0
0
0
0
0
0
0
0
0
0
0
0
0
0
0
0
0
0
0
0
0
0
0
0
0
0
0
0
0
0
0
0
0
0
0
0
0
0
0
0
0
0
0
0
0
0
0
0
0
0
0
0
0
0
0
0
0
0
0
0
0
0
0
0
0
0
0
0
0
0
0
0
0
0
0
0
0
0
0
0
0
0
0
0
0
0
0
0
0
0
0
0
0
0
0
0
0
0
0
0
0
0
0
0
0
0
0
0
0
0
0
0
0
0
0
0
0
0
0
0
0
0
0
0
0
0
0
0
0
0
0
0
0
0
0
0
0
0
0
0
0
0
0
0
0
0
0
0
0
0
0
0
0
0
0
0
0
0
0
0
0
0
0
0
0
0
0
0
0
0
0
0
0
0
0
0
0
0
0
0
0
0
0
0
0
0
0
0
0
0
0
0
0
0
0
0
0
0
0
0
0
0
0
0
0
0
0
0
0
0
0
0
0
0
0
0
0
0
0
0
0
0
0
0
0
0
0
0
0
0
0
0
0
0
0
0
0
0
0
0
0
0
0
0
0
0
0
0
0
0
0
0
0
0
0
0
0
0
0
0
0
0
0
0
0
0
0
0
0
0
0
0
0
0
0
0
0
0
0
0
0
0
0
0
0
0
0
0
0
0
0
0
0
0
0
0
0
0
0
0
0
0
0
0
0
0
0
0
0
0
0
0
0
0
0
0
0
0
0
0
0
0
0
0
0
0
0
0
0
0
0
0
0
0
0
0
0
0
0
0
0
0
0
0
0
0
0
0
0
0
0
0
0
0
0
0
0
0
0
0
0
0
0
0
0
0
0
0
0
0
0
0
0
0
0
0
0
0
0
0
0
0
0
0
0
0
0
0
0
0
0
0
0
0
0
0
0
0
0
0
0
0
0
0
0
0
0
0
0
0
0
0
0
0
0
0
0
0
0
0
0
0
0
0
0
0
0
0
0
0
0
0
0
0
0
0
0
0
0
0
0
0
0
0
0
0
0
0
0
0
0
0
0
0
0
0
0
0
0
0
0
0
0
0
0
0
0
0
0
0
0
0
0
0
0
0
0
0
0
0
0
0
0
0
0
0
0
0
0
0
0
0
0
0
0
0
0
0
0
0
0
0
0
0
0
0
0
0
0
0
0
0
0
0
0
0
0
0
0
0
0
0
0
0
0
0
0
0
0
0
0
0
0
0
0
0
0
0
0
0
0
0
0
0
0
0
0
0
0
0
0
0
0
0
0
0
0
0
0
0
0
0
0
0
0
0
0
0
0
0
0
0
0
0
0
0
0
0
0
0
0
0
0
0
0
0
0
0
0
0
0
0
0
0
0
0
0
0
0
0
0
0
0
0
0
0
0
0
0
0
0
0
0
0
0
0
0
0
0
0
0
0
0
0
0
0
0
0
0
0
0
0
0
0
0
0
0
0
0
0
0
0
0
0
0
0
0
0
0
0
0
0
0
0
0
0
0
0
0
0
0
0
0
0
0
0
0
0
0
0
0
0
0
0
0
0
0
0
0
0
0
0
0
0
0
0
0
0
0
0
0
0
0
0
0
0
0
0
0
0
0
0
0
0
0
0
0
0
0
0
0
0
0
0
0
0
0
0
0
0
0
0
0
0
0
0
0
0
0
0
0
0
0
0
0
0
0
0
0
0
0
0
0
0
0
0
0
0
0
0
0
0
0
0
0
0
0
0
0
0
0
0
0
0
0
0
0
0
0
0
0
0
0
0
0
0
0
0
0
0
0
0
0
0
0
0
0
0
0
0
0
0
0
0
0
0
0
0
0
0
0
0
0
0
0
0
0
0
0
0
0
0
0
0
0
0
0
0
0
0
0
0
0
0
0
0
0
0
0
0
0
0
0
0
0
0
0
0
0
0
0
0
0
0
0
0
0
0
0
0
0
0
0
0
0
0
0
0
0
0
0
0
0
0
0
0
0
0
0
0
0
0
0
0
0
0
0
0
0
0
0
0
0
0
0
0
0
0
0
0
0
0
0
0
0
0
0
0
0
0
0
0
0
0
0
0
0
0
0
0
0
0
0
0
0
0
0
0
0
0
0
0
0
0
0
0
0
0
0
0
0
0
0
0
0
0
0
0
0
0
0
0
0
0
0
0
0
0
0
0
0
0
0
0
0
0
0
0
0
0
0
0
0
0
0
0
0
0
0
0
0
0
0
0
0
0
0
0
0
0
0
0
0
0
0
0
0
0
0
0
0
0
0
0
0
0
0
0
0
0
0
0
0
0
0
0
0
0
0
0
0
0
0
0
0
0
0
0
0
0
0
0
0
0
0
0
0
0
0
0
0
0
0
0
0
0
0
0
0
0
0
0
0
0
0
0
0
0
0
0
0
0
0
0
0
0
0
0
0
0
0
0
0
0
0
0
0
0
0
0
0
0
0
0
0
0
0
0
0
0
0
0
0
0
0
0
0
0
0
0
0
0
0
0
0
0
0
0
0
0
0
0
0
0
0
0
0
0
0
0
0
0
0
0
0
0
0
0
0
0
0
0
0
0
0
0
0
0
0
0
0
0
0
0
0
0
0
0
0
0
0
0
0
0
0
0
0
0
0
0
0
0
0
0
0
0
0
0
0
0
0
0
0
0
0
0
0
0
0
0
0
0
0
0
0
0
0
0
0
0
0
0
0
0
0
0
0
0
0
0
0
0
0
0
0
0
0
0
0
0
0
0
0
0
0
0
0
0
0
0
0
0
0
0
0
0
0
0
0
0
0
0
0
0
0
0
0
0
0
0
0
0
0
0
0
0
0
0
0
0
0
0
0
0
0
0
0
0
0
0
0
0
0
0
0
0
0
0
0
0
0
0
0
0
0
0
0
0
0
0
0
0
0
0
0
0
0
0
0
0
0
0
0
0
0
0
0
0
0
0
0
0
0
0
0
0
0
0
0
0
0
0
0
0
0
0
0
0
0
0
0
0
0
0
0
0
0
0
0
0
0
0
0
0
0
0
0
0
0
0
0
0
0
0
0
0
0
0
0
0
0
0
0
0
0
0
0
0
0
0
0
0
0
0
0
0
0
0
0
0
0
0
0
0
0
0
0
0
0
0
0
0
0
0
0
0
0
0
0
0
0
0
0
0
0
0
0
0
0
0
0
0
0
0
0
0
0
0
0
0
0
0
0
0
0
0
0
0
0
0
0
0
0
0
0
0
0
0
0
0
0
0
0
0
0
0
0
0
0
0
0
0
0
0
0
0
0
0
0
0
0
0
0
0
0
0
0
0
0
0
0
0
0
0
0
0
0
0
0
0
0
0
0
0
0
0
0
0
0
0
0
0
0
0
0
0
0
0
0
0
0
0
0
0
0
0
0
0
0
0
0
0
0
0
0
0
0
0
0
0
0
0
0
0
0
0
0
0
0
0
0
0
0
0
0
0
0
0
0
0
0
0
0
0
0
0
0
0
0
0
0
0
0
0
0
0
0
0
0
0
0
0
0
0
0
0
0
0
0
0
0
0
0
0
0
0
0
0
0
0
0
0
0
0
0
0
0
0
0
0
0
0
0
0
0
0
0
0
0
0
0
0
0
0
0
0
0
0
0
0
0
0
0
0
0
0
0
0
0
0
0
0
0
0
0
0
0
0
0
0
0
0
0
0
0
0
0
0
0
0
0
0
0
0
0
0
0
0
0
0
0
0
0
0
0
0
0
0
0
0
0
0
0
0
0
0
0
0
0
0
0
0
0
0
0
0
0
0
0
0
0
0
0
0
0
0
0
0
0
0
0
0
0
0
0
0
0
0
0
0
0
0
0
0
0
0
0
0
0
0
0
0
0
0
0
0
0
0
0
0
0
0
0
0
0
0
0
0
0
0
0
0
0
0
0
0
0
0
0
0
0
0
0
0
0
0
0
0
0
0
0
0
0
0
0
0
0
0
0
0
0
0
0
0
0
0
0
0
0
0
0
0
0
0
0
0
0
0
0
0
0
0
0
0
0
0
0
0
0
0
0
0
0
0
0
0
0
0
0
0
0
0
0
0
0
0
0
0
0
0
0
0
0
0
0
0
0
0
0
0
0
0
0
0
0
0
0
0
0
0
0
0
0
0
0
0
0
0
0
0
0
0
0
0
0
0
0
0
0
0
0
0
0
0
0
0
0
0
0
0
0
0
0
0
0
0
0
0
0
0
0
0
0
0
0
0
0
0
0
0
0
0
0
0
0
0
0
0
0
0
0
0
0
0
0
0
0
0
0
0
0
0
0
0
0
0
0
0
0
0
0
0
0
0
0
0
0
0
0
0
0
0
0
0
0
0
0
0
0
0
0
0
0
0
0
0
0
0
0
0
0
0
0
0
0
0
0
0
0
0
0
0
0
0
0
0
0
0
0
0
0
0
0
0
0
0
0
0
0
0
0
0
0
0
0
0
0
0
0
0
0
0
0
0
0
0
0
0
0
0
0
0
0
0
0
0
0
0
0
0
0
0
0
0
0
0
0
0
0
0
0
0
0
0
0
