2.46725
2.46502
2.45818
2.44902
2.43945
2.43094
2.42459
2.42099
2.42016
2.42154
2.42404
2.42597
2.42521
2.41977
2.4082
2.38999
2.3657
2.3369
2.3057
2.27432
2.24456
2.21749
2.19373
2.1736
2.15744
2.14587
2.13984
2.1406
2.14948
2.16737
2.19488
2.23218
2.27874
2.33319
2.39374
2.45784
2.52167
2.58129
2.63372
2.67783
2.71475
2.74771
2.78129
2.82022
2.8688
2.93055
3.00427
3.0799
3.14162
3.17363
3.16449
3.1104
3.01671
2.89681
2.76848
2.64854
2.54621
2.45919
2.38259
2.31366
2.25034
2.19103
2.13499
2.08257
2.03505
1.99426
1.962
1.93971
1.92797
1.92614
1.93197
1.9411
1.94616
1.93683
1.90204
1.83128
1.71666
1.5549
1.34883
1.10789
0.840604
0.200376
0
0.766832
2.96006
6.64034
11.2392
15.5661
18.1749
17.9773
14.7959
9.51282
3.69322
-1.11483
-3.99898
-4.89429
-4.35213
-3.10395
-1.7128
-0.469221
0.528556
1.25668
1.52971
1.67696
1.81323
1.94104
2.06194
2.17709
2.28696
2.39123
2.48889
2.57858
2.659
2.72923
2.78898
2.83869
2.8794
2.91275
2.9408
2.96582
2.99021
3.01646
3.04705
3.08435
3.13052
3.18734
3.2559
3.33663
3.42912
3.53199
3.64284
3.75846
3.87509
3.98893
4.09664
4.19587
4.28555
4.36601
4.43872
4.50588
4.5698
4.63225
4.69387
4.75331
4.80646
4.84721
4.86859
4.86399
4.82816
4.75749
4.65004
4.50552
4.32557
4.11751
3.89104
3.65472
3.41683
3.18584
2.96959
2.77466
2.60566
2.46384
2.34592
2.24625
2.15832
2.07631
1.99631
1.91695
1.83924
1.76589
1.70026
1.6448
1.60147
1.57111
1.55325
1.54668
1.54998
1.56188
1.58121
1.60759
1.63986
1.67365
1.70192
1.71693
1.71269
1.68718
1.64369
1.59035
1.53806
1.49756
1.47496
1.46943
1.47772
1.49737
1.52478
1.55585
1.58662
1.61387
1.63537
1.65
1.65775
1.65949
1.65681
1.65167
1.64612
1.6419
1.64019
1.64138
1.64484
1.64843
1.64878
1.64236
1.62653
1.6006
1.56644
1.52835
1.49267
1.46605
1.45384
1.45869
1.48013
1.51497
1.5585
1.60602
1.65408
1.70121
1.74731
1.79306
1.83934
1.88652
1.93375
1.97735
2.00986
2.02199
2.00459
1.95152
1.86233
1.74371
1.60886
1.47473
1.35779
1.26529
1.19456
1.14685
1.11943
1.1067
1.10216
1.09981
1.09522
1.08596
1.07144
1.0522
1.02896
1.00189
0.970053
0.931329
0.882618
0.820364
0.741344
0.643414
0.526126
0.391081
0.24191
0.081818
-0.304997
-0.486802
0
1.64438
4.68007
8.79895
13.0356
16.0099
16.4974
14.0494
9.28767
3.65349
-1.26424
-4.42128
-5.63358
-5.39629
-4.41845
-3.22496
-2.03707
-0.902123
0.127679
0.936469
1.25796
1.35304
1.43417
1.50744
1.5748
1.63773
1.69718
1.75369
1.80744
1.85853
1.90706
1.95316
1.99694
2.03847
2.07788
2.11534
2.15125
2.18629
2.22153
2.25826
2.29791
2.34181
2.39089
2.44568
2.50653
2.57355
2.6466
2.72541
2.80965
2.89899
2.99309
3.09149
3.19346
3.29775
3.40251
3.50508
3.60228
3.69079
3.76762
3.83039
3.87745
3.90775
3.92044
3.91452
3.8887
3.84157
3.77159
3.6777
3.55985
3.41928
3.25861
3.0817
2.89352
2.69968
2.50562
2.31672
2.13794
1.97359
1.82698
1.70013
1.59376
1.5074
1.43966
1.38857
1.35186
1.32725
1.31256
1.30575
1.30495
1.30838
1.31434
1.3212
1.32735
1.33124
1.33146
1.32689
1.31685
1.30126
1.2807
1.25637
1.22996
1.20332
1.17819
1.15585
1.13698
1.12161
1.10914
1.09849
1.08846
1.07801
1.06648
1.0537
1.0398
1.02498
1.00914
0.991576
0.970908
0.94541
0.913588
0.874907
0.830406
0.782916
0.736742
0.696829
0.667619
0.654038
0.658068
0.67577
0.700315
0.72398
0.740232
0.745264
0.738646
0.723115
0.703794
0.687077
0.678572
0.68242
0.701733
0.738507
0.793228
0.865383
0.953771
1.056
1.16792
1.28158
1.38464
1.46465
1.51102
1.51726
1.48334
1.41712
1.3337
1.25224
1.19079
1.15778
1.14798
1.15854
1.1823
1.21014
1.23345
1.24621
1.24623
1.23511
1.21705
1.19708
1.17928
1.16491
1.15289
1.14088
1.12529
1.10149
1.06344
1.0055
0.922637
0.811186
0.669538
0.495863
0.29404
-0.113161
-0.432428
0
1.55584
4.34594
8.03897
11.8274
14.6013
15.3379
13.5669
9.65694
4.71809
0.130676
-3.04671
-4.4527
-4.40023
-3.53937
-2.46216
-1.48927
-0.690109
-0.0318722
0.48028
0.627048
0.715868
0.794224
0.867297
0.938212
1.00986
1.08434
1.16259
1.24434
1.32842
1.4128
1.49427
1.56804
1.62866
1.6718
1.69458
1.69672
1.68124
1.6545
1.62502
1.60165
1.5915
1.59724
1.61707
1.64893
1.69219
1.74642
1.81156
1.88787
1.97552
2.07411
2.18211
2.29754
2.41626
2.52959
2.6271
2.69951
2.74089
2.75009
2.73086
2.69049
2.63724
2.57762
2.51439
2.44691
2.373
2.28918
2.19213
2.07955
1.95064
1.80633
1.64906
1.48251
1.31086
1.13808
0.967749
0.802985
0.646327
0.499743
0.364625
0.241837
0.131761
0.0339151
-0.0527407
-0.129616
-0.198211
-0.259825
-0.315326
-0.365044
-0.408814
-0.446099
-0.476383
-0.49941
-0.515434
-0.525313
-0.530421
-0.532654
-0.533935
-0.5358
-0.53907
-0.543699
-0.548864
-0.553268
-0.555591
-0.554995
-0.551358
-0.54547
-0.53925
-0.535433
-0.537024
-0.546743
-0.566502
-0.597008
-0.637574
-0.686155
-0.739629
-0.794284
-0.84646
-0.893262
-0.932908
-0.964346
-0.987621
-1.00353
-1.01311
-1.01718
-1.01607
-1.0096
-0.997219
-0.978288
-0.952321
-0.919294
-0.879231
-0.832083
-0.777734
-0.716018
-0.646839
-0.570359
-0.487154
-0.398277
-0.305181
-0.209438
-0.112684
-0.0166122
0.0766037
0.163583
0.240053
0.301787
0.344967
0.367391
0.369513
0.354842
0.329464
0.300834
0.276258
0.26096
0.256762
0.263728
0.281435
0.308994
0.344886
0.387116
0.433411
0.481414
0.528863
0.573726
0.614242
0.648823
0.675779
0.692802
0.696363
0.681969
0.645381
0.582682
0.491333
0.370414
0.216938
0.0388115
-0.417402
-0.61396
0
1.82711
4.94991
8.93438
12.8213
15.3998
15.6972
13.4488
9.27249
4.41172
0.175024
-2.60578
-3.79856
-3.80106
-3.1625
-2.28167
-1.33554
-0.39306
0.458166
1.06687
1.18717
1.26454
1.3341
1.39908
1.46282
1.52863
1.59975
1.67876
1.76366
1.84483
1.91012
1.94979
1.96092
1.94996
1.93167
1.92454
1.94419
1.99752
2.07424
2.16236
2.255
2.34702
2.43543
2.51997
2.60285
2.68801
2.77982
2.88145
2.99412
3.11737
3.24879
3.38431
3.51869
3.64641
3.7626
3.86356
3.94703
4.0123
4.06007
4.09177
4.10909
4.11339
4.10528
4.08438
4.04931
3.99786
3.9277
3.83673
3.72359
3.58836
3.43291
3.2609
3.07739
2.88825
2.6993
2.51569
2.34143
2.17924
2.0306
1.89607
1.77555
1.66867
1.57495
1.49399
1.42556
1.37015
1.32862
1.3012
1.28794
1.28846
1.30152
1.32489
1.35538
1.38922
1.42261
1.45243
1.47678
1.49499
1.50757
1.51584
1.52139
1.52569
1.52969
1.53385
1.53827
1.54302
1.54831
1.55467
1.56285
1.57362
1.5874
1.60424
1.62311
1.64174
1.6576
1.66877
1.67478
1.67692
1.67797
1.68128
1.68962
1.70461
1.72513
1.74681
1.76399
1.77172
1.76754
1.75242
1.73062
1.70861
1.6935
1.69067
1.70198
1.72753
1.76717
1.82048
1.88645
1.96375
2.05085
2.14601
2.24723
2.35156
2.45287
2.53961
2.5976
2.61169
2.57024
2.47034
2.32171
2.14666
1.97499
1.83518
1.73833
1.67566
1.64504
1.64042
1.65409
1.67883
1.70862
1.73997
1.7711
1.80066
1.82728
1.84921
1.86414
1.86918
1.86087
1.8353
1.78828
1.71566
1.61387
1.48077
1.31633
1.11325
0.878911
0.627354
0.0287623
0
1.05337
3.47898
7.14093
11.3821
15.1335
17.2405
16.9171
14.1214
9.63115
4.73371
0.675485
-1.82623
-2.74915
-2.5678
-1.87559
-1.08716
-0.355318
0.330033
0.997773
1.53002
1.76798
1.94692
2.10215
2.23541
2.34983
2.45009
2.54136
2.62818
2.7136
2.79883
2.88349
2.96606
3.04419
3.11541
3.17795
3.23109
3.27548
3.31314
3.34728
3.38179
3.4207
3.46758
3.52462
3.5926
3.67148
3.76041
3.85785
3.96179
4.07011
4.1808
4.29215
4.40279
4.51163
4.61775
4.72012
4.81704
4.9059
4.98372
5.04745
5.09422
5.12183
5.12909
5.11575
5.08213
5.02857
4.95493
4.86147
4.7488
4.61732
4.46745
4.30029
4.11818
3.92477
3.72479
3.5237
3.32717
3.14063
2.9688
2.81533
2.683
2.57393
2.48793
2.42299
2.37635
2.34512
2.32666
2.31869
2.31936
2.32768
2.34023
2.35216
2.3589
2.35763
2.34845
2.33436
2.31995
2.30918
2.30408
2.30207
2.2978
2.28626
2.26583
2.23983
2.21557
2.20137
2.20294
2.22134
2.25108
2.2815
2.30098
2.30087
2.27824
2.23643
2.18354
2.12965
2.0839
2.05016
2.02757
2.0142
2.00823
2.00745
2.00862
2.00807
2.00256
1.98986
1.96924
1.9417
1.9099
1.87771
1.84959
1.8296
1.82109
1.8261
1.84525
1.87771
1.92149
1.97373
2.03105
2.0901
2.148
2.2024
2.25151
2.29411
2.32938
2.35671
2.3751
2.38299
2.37921
2.36268
2.33292
2.29047
2.23722
2.17626
2.11146
2.04672
1.98522
1.92858
1.87735
1.83087
1.78751
1.7451
1.70126
1.65407
1.60259
1.54735
1.49062
1.43625
1.38918
1.35616
1.34966
1.38156
1.44037
1.49898
1.52501
1.49008
1.37676
1.1814
0.913215
0.591281
0.237288
-0.115569
0
1.04062
3.34934
6.87645
11.0118
14.6739
16.6711
16.2002
13.2364
8.59099
3.57697
-0.54889
-3.06622
-3.94972
-3.67406
-2.84389
-1.89685
-1.01274
-0.206981
0.523067
1.02599
1.16495
1.2759
1.37734
1.47185
1.56179
1.64853
1.73195
1.81067
1.88264
1.94606
2.00019
2.04574
2.08455
2.11899
2.15119
2.18254
2.21369
2.24498
2.27712
2.31173
2.35152
2.39999
2.46063
2.53592
2.62644
2.72999
2.84313
2.9612
3.07959
3.19488
3.30546
3.41157
3.51464
3.61623
3.71679
3.81444
3.90433
3.97972
4.03384
4.06169
4.06102
4.03227
3.97755
3.89918
3.79852
3.67748
3.53787
3.38097
3.20772
3.01955
2.81917
2.61059
2.39883
2.18944
1.98794
1.79931
1.62751
1.4752
1.34363
1.23297
1.14193
1.06756
1.00644
0.955361
0.911898
0.874735
0.843651
0.81913
0.80175
0.792341
0.790652
0.793635
0.797074
0.797202
0.79218
0.783001
0.773357
0.768493
0.773414
0.791139
0.81998
0.85694
0.898308
0.939493
0.976093
1.00504
1.02522
1.03756
1.04473
1.0504
1.05831
1.07134
1.09089
1.11633
1.14559
1.17627
1.2057
1.23133
1.25103
1.26293
1.26607
1.26026
1.24614
1.2253
1.20026
1.1742
1.15052
1.13222
1.1212
1.1181
1.12203
1.13037
1.13978
1.14704
1.14985
1.14739
1.14052
1.13156
1.12387
1.1213
1.12737
1.14468
1.17496
1.21945
1.28019
1.36022
1.46105
1.57582
1.68783
1.77818
1.83012
1.833
1.78496
1.69356
1.57422
1.44663
1.32971
1.2329
1.15506
1.09185
1.04015
0.998604
0.966081
0.942046
0.926558
0.919907
0.922728
0.935699
0.95578
0.977543
0.995026
1.00338
1.00003
0.984697
0.958325
0.921311
0.871942
0.808117
0.726865
0.623553
0.494829
0.333544
0.137605
-0.0819317
-0.564746
-0.70977
0
1.97762
5.32459
9.62033
13.8953
16.8754
17.4671
15.2706
10.8301
5.43937
0.579471
-2.70058
-4.11882
-4.07136
-3.25097
-2.25493
-1.38964
-0.706789
-0.150674
0.310195
0.518149
0.659124
0.781266
0.891602
0.991166
1.08122
1.16297
1.23722
1.30447
1.36497
1.41882
1.46629
1.50788
1.54438
1.57681
1.60637
1.6344
1.66235
1.69184
1.72464
1.7626
1.8075
1.86089
1.92392
1.997
2.08006
2.17262
2.27372
2.38197
2.49554
2.61228
2.72979
2.84563
2.9575
3.06342
3.1619
3.25192
3.33287
3.40425
3.46523
3.51412
3.54792
3.56289
3.55507
3.5204
3.4557
3.35948
3.23253
3.07799
2.90079
2.70687
2.50288
2.29459
2.08615
1.88117
1.68308
1.49533
1.32141
1.16472
1.02813
0.913628
0.822075
0.752688
0.703251
0.670539
0.650671
0.639383
0.63283
0.628193
0.623936
0.619821
0.616706
0.616174
0.62008
0.630106
0.647246
0.671717
0.703245
0.741101
0.784174
0.831112
0.880442
0.930615
0.979918
1.02616
1.06656
1.09874
1.12086
1.13225
1.13388
1.12843
1.11975
1.11199
1.10854
1.11115
1.11948
1.13281
1.14998
1.16992
1.19184
1.21507
1.23879
1.26092
1.2782
1.28689
1.28411
1.26905
1.24363
1.21214
1.18002
1.15236
1.13191
1.11871
1.11222
1.11177
1.11628
1.12448
1.13504
1.14663
1.15774
1.16686
1.17265
1.17418
1.17116
1.16415
1.15463
1.14498
1.13823
1.13767
1.14639
1.16703
1.20108
1.24962
1.31347
1.38612
1.45653
1.51299
1.546
1.55022
1.52506
1.47367
1.40125
1.31341
1.21693
1.11705
1.0175
0.921752
0.83324
0.754963
0.689763
0.639244
0.602354
0.576381
0.557534
0.541712
0.525281
0.50567
0.481739
0.453907
0.424076
0.395162
0.370414
0.353065
0.347799
0.359107
0.381271
0.397884
0.388309
0.334266
0.226313
0.0675063
-0.127351
-0.531729
-0.648385
0
1.84747
5.07669
9.34652
13.7014
16.8055
17.4775
15.2684
10.7409
5.24729
0.315555
-2.99855
-4.43417
-4.40198
-3.58131
-2.53752
-1.55534
-0.699902
0.031631
0.607716
0.808786
0.888721
0.951155
1.00373
1.04788
1.08519
1.11728
1.14575
1.17219
1.19821
1.22542
1.25524
1.28872
1.32634
1.36781
1.41229
1.45857
1.5053
1.55127
1.59559
1.63784
1.67805
1.71656
1.75392
1.79073
1.82759
1.86512
1.90407
1.94543
1.99049
2.04082
2.09819
2.16426
2.24066
2.32915
2.43169
2.55025
2.68478
2.82612
2.95453
3.04772
3.08529
3.05499
2.9582
2.8107
2.63639
2.45628
2.27913
2.10109
1.91938
1.7334
1.54319
1.35014
1.15709
0.967784
0.786248
0.61617
0.460455
0.321041
0.198946
0.094524
0.00753107
-0.0626823
-0.117101
-0.157053
-0.184206
-0.200383
-0.207708
-0.208302
-0.204006
-0.196188
-0.185656
-0.172682
-0.157153
-0.138789
-0.117393
-0.0931056
-0.0664537
-0.0384094
-0.0106669
0.0146006
0.0354024
0.0504801
0.0597277
0.0642894
0.0662527
0.0680215
0.0716106
0.0781572
0.0875891
0.0995736
0.113723
0.129965
0.148619
0.170121
0.194681
0.221527
0.247186
0.266037
0.272232
0.262022
0.235747
0.198612
0.159779
0.129989
0.118529
0.128495
0.156554
0.200477
0.255039
0.312788
0.364649
0.402655
0.421502
0.419402
0.398444
0.364358
0.32547
0.290898
0.268375
0.262254
0.270625
0.289165
0.315011
0.34538
0.378267
0.412968
0.450198
0.491856
0.54054
0.598754
0.668477
0.751177
0.84825
0.962575
1.09784
1.25215
1.41123
1.55462
1.66272
1.72081
1.72143
1.66468
1.55789
1.41538
1.25803
1.11005
0.98807
0.896671
0.831496
0.787256
0.760363
0.746233
0.740628
0.740694
0.74535
0.754959
0.770433
0.792149
0.818897
0.847954
0.874677
0.893097
0.896595
0.878611
0.833309
0.756182
0.644634
0.498503
0.314137
0.0937089
-0.149413
-0.605561
-0.723155
0
1.99299
5.37452
9.70107
13.9421
16.7737
17.1253
14.7041
10.1841
4.91601
0.31413
-2.71984
-4.02628
-4.01324
-3.27539
-2.28459
-1.29026
-0.392699
0.350628
0.867058
1.03064
1.16073
1.27946
1.38353
1.47092
1.54157
1.59693
1.64019
1.67621
1.71105
1.75108
1.80167
1.86614
1.94407
2.03227
2.12695
2.22419
2.32024
2.41238
2.49932
2.58147
2.66064
2.73956
2.8212
2.90804
3.00161
3.10214
3.20862
3.31917
3.43151
3.54352
3.65372
3.76163
3.86779
3.97367
4.0812
4.19277
4.31148
4.4388
4.56696
4.67944
4.75744
4.78604
4.75895
4.6796
4.55828
4.4068
4.23417
4.04779
3.8542
3.65773
3.46153
3.26869
3.08222
2.90474
2.73771
2.58115
2.43401
2.29476
2.16219
2.03605
1.91742
1.8086
1.71245
1.63174
1.56844
1.52329
1.49576
1.48432
1.48691
1.50143
1.52585
1.5584
1.59789
1.64314
1.69199
1.74067
1.78444
1.81863
1.83982
1.8467
1.84064
1.82544
1.80648
1.78946
1.77904
1.77738
1.78401
1.79713
1.81473
1.83467
1.85489
1.87359
1.88942
1.90141
1.90899
1.91189
1.91011
1.90395
1.89407
1.88154
1.86781
1.85464
1.84388
1.83723
1.83598
1.84067
1.8511
1.86622
1.88417
1.90229
1.91769
1.92795
1.93147
1.92776
1.91732
1.90144
1.88171
1.85974
1.83699
1.81475
1.7944
1.77758
1.7662
1.76216
1.76693
1.78115
1.8045
1.83545
1.87189
1.91172
1.95351
1.99672
2.04169
2.08927
2.14032
2.19529
2.25396
2.31595
2.38074
2.44789
2.51698
2.58766
2.65935
2.73081
2.79969
2.86227
2.91342
2.94773
2.96046
2.94828
2.91018
2.84807
2.7669
2.67418
2.5789
2.4901
2.41426
2.35356
2.30836
2.27854
2.26237
2.25703
2.25909
2.26495
2.27152
2.27658
2.27879
2.2776
2.27272
2.26352
2.24836
2.2237
2.18318
2.11949
2.0246
1.89142
1.71548
1.49628
1.23786
0.948229
0.392124
0
0.396491
2.04154
5.14853
9.44069
14.0424
17.6581
19.0392
17.5505
13.5169
8.11849
2.86658
-1.04207
-3.12637
-3.60119
-3.04312
-2.01158
-0.853957
0.274284
1.28507
2.03533
2.10178
2.10629
2.03712
1.92894
1.84674
1.85376
1.9808
2.16565
2.37756
2.59355
2.78691
2.9364
3.03093
3.07152
3.07025
3.04638
3.02087
3.01083
3.02224
3.05132
3.09317
3.14391
3.2001
3.25855
3.31682
3.37341
3.42777
3.4801
3.53115
3.58213
3.63462
3.6906
3.75239
3.82254
3.90347
3.99704
4.10403
4.2251
4.36057
4.50488
4.64491
4.76577
4.85425
4.90115
4.90197
4.85634
4.76653
4.63617
4.46976
4.27634
4.06536
3.84462
3.62081
3.39977
3.18628
2.98445
2.79757
2.62789
2.47661
2.34406
2.22979
2.13281
2.05164
1.98455
1.92952
1.8843
1.84668
1.8146
1.78637
1.76088
1.73772
1.71728
1.70083
1.69051
1.68885
1.69844
1.72143
1.75899
1.81084
1.87609
1.95197
2.03188
2.10657
2.167
2.206
2.21942
2.2067
2.17082
2.11768
2.0552
1.99223
1.93665
1.89335
1.86512
1.85376
1.8589
1.87816
1.90755
1.94208
1.97647
2.00593
2.02575
2.03214
2.02296
1.99765
1.9575
1.90574
1.84732
1.78833
1.73511
1.6932
1.66519
1.65269
1.65528
1.67073
1.69555
1.72545
1.75532
1.78022
1.79616
1.80054
1.79256
1.77328
1.74559
1.71383
1.68313
1.65866
1.64444
1.64299
1.65596
1.68378
1.72567
1.77998
1.84456
1.91708
1.99531
2.07741
2.16166
2.24557
2.32415
2.39046
2.43631
2.45385
2.43769
2.38664
2.30449
2.19934
2.08219
1.96488
1.85653
1.76131
1.68205
1.6215
1.58091
1.56009
1.55742
1.57011
1.59518
1.62858
1.66347
1.69166
1.70598
1.70165
1.67736
1.63551
1.58125
1.52041
1.45695
1.39109
1.31949
1.23613
1.13418
1.00833
0.856671
0.681958
0.468409
0
0.0424696
1.1171
3.6344
7.55817
12.173
16.1627
18.0835
17.0385
13.1728
7.65899
2.14912
-1.98145
-4.1538
-4.6074
-4.01308
-3.00544
-1.92606
-0.859527
0.18442
1.1367
1.83214
2.00205
2.1374
2.26222
2.37513
2.47522
2.56255
2.63734
2.69986
2.7506
2.79047
2.82104
2.84473
2.86478
2.88518
2.91007
2.94352
2.9889
3.04842
3.12285
3.2108
3.31031
3.41893
3.53399
3.65296
3.77389
3.8953
4.01611
4.13548
4.25261
4.36669
4.47686
4.58232
4.68238
4.77656
4.86459
4.94634
5.02159
5.08985
5.1503
5.20172
5.2423
5.26963
5.28072
5.27206
5.23986
5.18044
5.09076
4.96939
4.81658
4.63469
4.42835
4.20406
3.96946
3.73253
3.50036
3.2789
3.07265
2.88465
2.71673
2.56974
2.44378
2.3384
2.25259
2.18483
2.13312
2.09502
2.06777
2.04853
2.0345
2.02321
2.01265
2.00139
1.98869
1.97444
1.95921
1.94406
1.93041
1.91988
1.91405
1.91426
1.92146
1.93606
1.95788
1.98605
2.01922
2.05543
2.09176
2.12488
2.15176
2.17047
2.18063
2.18378
2.18312
2.18278
2.18685
2.19822
2.21779
2.24513
2.27779
2.3127
2.34723
2.38003
2.41121
2.44196
2.4737
2.50719
2.54191
2.57628
2.60805
2.63476
2.65433
2.66548
2.66805
2.66302
2.65239
2.6391
2.62661
2.61869
2.61908
2.6311
2.65706
2.69848
2.75752
2.83297
2.91567
2.99228
3.05064
3.08346
3.09053
3.07863
3.05877
3.04158
3.03266
3.02974
3.02375
3.00245
2.95577
2.88037
2.78151
2.6712
2.56372
2.47073
2.39313
2.32859
2.27612
2.23381
2.1994
2.17072
2.14582
2.12263
2.0989
2.07217
2.0399
1.99937
1.94766
1.88127
1.79598
1.68687
1.55131
1.38552
1.18725
0.956801
0.697676
0.416523
0.119968
-0.321833
-0.498722
0
1.61759
4.59454
8.59899
12.6503
15.3964
15.6969
13.2063
8.59733
3.26049
-1.35251
-4.34788
-5.62434
-5.65884
-5.06929
-4.27795
-3.44182
-2.59197
-1.78832
-1.14621
-0.76195
-0.631725
-0.544568
-0.470254
-0.408396
-0.361983
-0.332492
-0.319461
-0.320383
-0.331073
-0.346446
-0.361589
-0.37282
-0.378277
-0.377889
-0.375511
-0.377622
-0.39059
-0.418431
-0.461251
-0.514871
-0.571741
-0.622768
-0.659375
-0.676728
-0.675217
-0.656246
-0.62044
-0.568643
-0.502586
-0.4249
-0.339061
-0.24911
-0.159539
-0.0746472
0.00202426
0.0680701
0.12234
0.164778
0.195441
0.215035
0.224597
0.224888
0.216308
0.198885
0.172237
0.135016
0.0855582
0.0221838
-0.0565471
-0.151161
-0.260668
-0.382285
-0.511625
-0.64329
-0.771649
-0.892457
-1.00138
-1.09468
-1.17014
-1.22649
-1.26341
-1.28158
-1.28266
-1.26916
-1.24422
-1.21125
-1.17356
-1.13394
-1.09419
-1.05524
-1.01711
-0.978696
-0.937937
-0.892039
-0.838035
-0.77352
-0.697464
-0.610828
-0.516537
-0.419724
-0.326743
-0.243562
-0.174431
-0.121047
-0.0824501
-0.0556673
-0.0368343
-0.0224264
-0.0100555
0.000824738
0.00932236
0.0135565
0.0113632
0.000997162
-0.0183353
-0.0462021
-0.0809256
-0.119767
-0.159249
-0.195685
-0.225729
-0.246573
-0.256473
-0.254994
-0.242082
-0.220472
-0.195496
-0.173011
-0.158131
-0.15413
-0.161758
-0.179121
-0.20206
-0.224946
-0.241974
-0.24888
-0.242654
-0.222005
-0.187779
-0.14263
-0.0904171
-0.0350971
0.0203022
0.074382
0.127497
0.181267
0.23763
0.297768
0.361532
0.42628
0.486354
0.535134
0.56691
0.578302
0.568703
0.539603
0.493219
0.431157
0.353954
0.263634
0.158197
0.0355763
-0.0913921
-0.204279
-0.285258
-0.324039
-0.321721
-0.289558
-0.243508
-0.19766
-0.158852
-0.125518
-0.0964542
-0.0703671
-0.0461922
-0.0238277
-0.005019
0.00515366
0
-0.0252644
-0.0809898
-0.171465
-0.296238
-0.545545
-0.961202
-0.735934
0.66799
3.52845
7.59479
11.9886
15.4034
16.6028
15.0018
11.0011
5.83502
0.993607
-2.43953
-4.14411
-4.45654
-3.96767
-3.15443
-2.25362
-1.35793
-0.54915
0.0552284
0.282072
0.454013
0.613542
0.76231
0.900175
1.02754
1.14526
1.25451
1.35669
1.45329
1.54571
1.63512
1.72238
1.80798
1.89212
1.97481
2.05603
2.13585
2.21454
2.29256
2.37066
2.4498
2.53121
2.61635
2.70678
2.80406
2.90946
3.0237
3.14669
3.27736
3.41362
3.55265
3.69122
3.82623
3.95514
4.07629
4.18895
4.29291
4.38774
4.47242
4.54528
4.60392
4.64444
4.66214
4.65227
4.6109
4.53538
4.42475
4.27984
4.10409
3.90429
3.68776
3.46155
3.23247
3.00703
2.79149
2.5915
2.41158
2.25483
2.12332
2.01722
1.93296
1.8648
1.80616
1.75064
1.69322
1.63098
1.5635
1.49288
1.42319
1.3595
1.30654
1.26871
1.25183
1.26525
1.31248
1.37851
1.44369
1.49016
1.50768
1.49657
1.46629
1.4303
1.40002
1.38019
1.36752
1.35938
1.35443
1.3527
1.35564
1.36535
1.38562
1.41566
1.44809
1.47246
1.47961
1.46579
1.43436
1.3941
1.35496
1.32336
1.29811
1.27495
1.24923
1.21692
1.17642
1.12941
1.08046
1.03557
1.00028
0.976755
0.964217
0.961426
0.965924
0.97486
0.985783
0.997175
1.00865
1.0208
1.03489
1.05229
1.07413
1.10124
1.134
1.17215
1.21471
1.25978
1.30442
1.344
1.37151
1.37957
1.36101
1.31036
1.22553
1.10921
0.969334
0.818438
0.671769
0.545211
0.475708
0.494637
0.572572
0.657824
0.700057
0.671009
0.573326
0.435038
0.294418
0.184155
0.112654
0.065877
0.0351837
0.01712
0.00874729
0.00557842
0
-0.0179735
-0.05958
-0.134713
-0.250259
-0.408487
-0.606336
-0.835903
-1.22954
-1.40913
-0.876823
0.673299
3.35689
6.95953
10.8476
14.0407
15.4983
14.5505
11.2521
6.43237
1.37338
-2.71505
-5.13525
-5.84297
-5.28603
-4.09669
-2.82554
-1.80511
-1.13759
-0.759489
-0.548949
-0.47667
-0.421396
-0.374604
-0.336273
-0.304831
-0.277549
-0.251185
-0.222662
-0.189706
-0.151448
-0.107769
-0.0591339
-0.00675507
0.0476665
0.10145
0.151467
0.194825
0.229477
0.254728
0.271491
0.2822
0.290444
0.300464
0.316429
0.341588
0.378719
0.430331
0.498042
0.58229
0.682081
0.794867
0.916599
1.04226
1.16622
1.283
1.38795
1.47768
1.55008
1.60417
1.6394
1.65511
1.65064
1.62474
1.57578
1.50205
1.40232
1.27628
1.1249
0.950538
0.757026
0.549479
0.333388
0.114398
-0.101816
-0.30991
-0.505262
-0.68437
-0.845026
-0.985866
-1.10733
-1.21262
-1.30567
-1.39009
-1.46827
-1.5407
-1.60623
-1.66263
-1.70755
-1.73948
-1.75826
-1.76513
-1.76228
-1.75216
-1.73718
-1.71908
-1.6989
-1.67744
-1.65551
-1.6341
-1.61434
-1.59742
-1.58429
-1.57559
-1.57147
-1.5718
-1.57628
-1.58469
-1.59697
-1.61333
-1.63404
-1.65921
-1.6886
-1.72157
-1.75717
-1.79442
-1.83274
-1.87204
-1.91272
-1.95518
-1.99896
-2.04211
-2.08108
-2.11141
-2.12912
-2.12805
-2.10872
-2.0794
-2.0512
-2.03364
-2.03097
-2.04077
-2.05525
-2.06452
-2.0602
-2.0406
-2.0085
-1.96623
-1.91547
-1.85771
-1.794
-1.72464
-1.64911
-1.56618
-1.47417
-1.37142
-1.25671
-1.12874
-0.985653
-0.82801
-0.663507
-0.507736
-0.377757
-0.287718
-0.246128
-0.254414
-0.30672
-0.390959
-0.491081
-0.59025
-0.674737
-0.73901
-0.784108
-0.812469
-0.825154
-0.822449
-0.805236
-0.774848
-0.732871
-0.680897
-0.620291
-0.552057
-0.476554
-0.392783
-0.299714
-0.20112
-0.108181
-0.0359917
0
-0.00995483
-0.0737873
-0.190889
-0.355491
-0.558434
-0.787538
-1.08423
-1.2978
-0.908275
0.620699
3.60704
7.82385
12.3778
15.9286
17.2096
15.6079
11.4883
6.06484
0.873941
-2.86565
-4.66774
-4.78533
-3.88334
-2.63016
-1.44206
-0.466351
0.290367
0.69624
0.807045
0.90171
0.98616
1.06368
1.13792
1.2122
1.28882
1.36841
1.45006
1.5319
1.61141
1.68603
1.75365
1.81307
1.86409
1.90757
1.94514
1.97908
2.01203
2.04676
2.08602
2.13231
2.18775
2.25388
2.33155
2.42079
2.52083
2.63039
2.74786
2.87159
3.00014
3.13257
3.26863
3.40879
3.55414
3.70607
3.86611
4.037
4.22188
4.41902
4.61469
4.78789
4.91838
4.99159
5.00132
4.95034
4.84909
4.71274
4.55669
4.39162
4.22087
4.04347
3.85852
3.66587
3.46611
3.26144
3.05628
2.8569
2.67055
2.50408
2.36385
2.25594
2.18064
2.13286
2.10515
2.08976
2.08031
2.07279
2.06569
2.05932
2.05472
2.05271
2.05348
2.05697
2.06315
2.07254
2.08646
2.10689
2.13691
2.18259
2.24351
2.30695
2.3548
2.37052
2.34635
2.28706
2.20877
2.13355
2.08242
2.06288
2.06833
2.09803
2.15436
2.23355
2.32204
2.40208
2.4575
2.47714
2.45756
2.40424
2.3305
2.25423
2.19287
2.15643
2.14279
2.14499
2.15739
2.17581
2.19566
2.21244
2.22218
2.22201
2.21039
2.1873
2.15443
2.11511
2.07412
2.03715
2.01002
1.99738
2.00352
2.03505
2.09405
2.16853
2.24044
2.29315
2.31683
2.31182
2.28857
2.26436
2.2579
2.28877
2.38485
2.5348
2.69564
2.82274
2.88503
2.87028
2.78322
2.641
2.46922
2.29728
2.14863
2.02899
1.93328
1.85528
1.79136
1.74012
1.70055
1.67141
1.65123
1.63787
1.62808
1.61806
1.60424
1.58389
1.55557
1.51929
1.47619
1.42784
1.3753
1.31854
1.2561
1.18496
1.10133
1.00149
0.882758
0.744362
0.587958
0.369597
0
0.18875
1.43164
4.05485
7.95519
12.4352
16.3012
18.2644
17.5056
14.0978
9.02107
3.72865
-0.490425
-2.9865
-3.82963
-3.53797
-2.69657
-1.71429
-0.789188
-0.00098629
0.598394
0.889439
0.974912
1.04355
1.10431
1.1569
1.20158
1.2392
1.27128
1.30016
1.32908
1.36183
1.40206
1.4525
1.5142
1.58557
1.66356
1.74481
1.82589
1.9038
1.97655
2.04341
2.10487
2.16235
2.21779
2.27327
2.33076
2.39201
2.45861
2.53199
2.61352
2.7043
2.80504
2.91579
3.03582
3.16368
3.29738
3.43477
3.57378
3.71243
3.84805
3.97624
4.09095
4.18457
4.24825
4.27389
4.25608
4.19301
4.08634
3.94025
3.76039
3.55509
3.33271
3.09974
2.8613
2.62168
2.38488
2.15548
1.93945
1.7437
1.57376
1.43382
1.32585
1.24912
1.20021
1.1736
1.1626
1.16047
1.16125
1.16052
1.15529
1.14366
1.12449
1.09718
1.06183
1.01907
0.970525
0.919046
0.86858
0.823729
0.788976
0.769682
0.771342
0.793778
0.828618
0.864239
0.888743
0.892668
0.87072
0.822321
0.751178
0.66424
0.570374
0.478778
0.396412
0.327344
0.273034
0.233345
0.207861
0.195229
0.192596
0.194797
0.194323
0.183607
0.156788
0.111192
0.0482763
-0.0263611
-0.104065
-0.175106
-0.230985
-0.268355
-0.285743
-0.284946
-0.270233
-0.247134
-0.221306
-0.19713
-0.177424
-0.163156
-0.153359
-0.145289
-0.134857
-0.117311
-0.0881088
-0.0438072
0.0165844
0.0913631
0.17938
0.277747
0.379977
0.475125
0.551571
0.599123
0.610539
0.582783
0.517777
0.422442
0.30792
0.188
0.0764725
-0.0183788
-0.0938202
-0.149402
-0.182949
-0.195593
-0.192476
-0.180706
-0.167727
-0.160012
-0.162032
-0.175617
-0.199751
-0.230782
-0.263002
-0.289618
-0.303418
-0.285582
-0.210659
-0.103871
-0.0147171
0
-0.0991154
-0.319919
-0.630964
-1.21889
-1.53213
-1.08442
0.514419
3.43104
7.369
11.4456
14.3765
14.9869
12.816
8.43077
3.20528
-1.33877
-4.22796
-5.34946
-5.24772
-4.62841
-3.93822
-3.26444
-2.51007
-1.62974
-0.739766
-0.148028
-0.0244328
0.0396263
0.0857624
0.117171
0.138706
0.156348
0.176542
0.204543
0.244911
0.300719
0.3729
0.4599
0.557775
0.660783
0.762345
0.856406
0.938597
1.00697
1.06217
1.10696
1.14545
1.18211
1.22085
1.26427
1.3139
1.3701
1.43226
1.49905
1.56874
1.63955
1.7099
1.7785
1.84433
1.9063
1.96295
2.01287
2.05451
2.08635
2.10702
2.11543
2.11051
2.09095
2.05479
1.99933
1.92284
1.82254
1.69602
1.54203
1.36084
1.15439
0.926074
0.681026
0.424887
0.163496
-0.0967514
-0.348959
-0.585939
-0.79719
-0.948041
-0.959905
-0.84691
-0.682662
-0.556072
-0.531326
-0.620971
-0.786075
-0.960886
-1.08622
-1.13375
-1.14269
-1.13736
-1.12588
-1.11296
-1.10229
-1.09628
-1.09596
-1.1012
-1.11103
-1.12401
-1.13849
-1.15286
-1.16566
-1.17556
-1.1814
-1.1822
-1.17725
-1.16612
-1.14873
-1.12537
-1.09673
-1.06392
-1.02838
-0.992018
-0.957115
-0.92601
-0.900827
-0.883254
-0.87442
-0.87489
-0.884686
-0.903276
-0.929244
-0.960443
-0.994079
-1.02654
-1.05376
-1.07182
-1.07678
-1.0631
-1.03014
-0.986392
-0.942727
-0.908159
-0.886125
-0.872933
-0.859108
-0.833077
-0.785656
-0.715661
-0.630373
-0.536488
-0.439553
-0.345213
-0.258762
-0.184534
-0.125572
-0.0836836
-0.0596041
-0.0531824
-0.0634949
-0.088866
-0.126819
-0.174043
-0.226448
-0.279488
-0.328497
-0.369353
-0.399082
-0.415798
-0.418812
-0.410249
-0.393149
-0.370445
-0.344084
-0.314618
-0.281393
-0.243176
-0.197942
-0.146311
-0.0929716
-0.0452728
-0.0116667
0
-0.00966702
-0.0505653
-0.123043
-0.224178
-0.346279
-0.49006
-0.905109
-0.883259
0.134005
2.51914
6.15638
10.3132
13.8018
15.4183
14.4714
11.129
6.37423
1.57754
-2.08587
-4.05752
-4.45884
-3.83373
-2.7846
-1.71792
-0.793074
-0.0141163
0.626598
0.956053
1.23535
1.45206
1.5943
1.66369
1.67499
1.65318
1.62802
1.62683
1.6645
1.7354
1.82667
1.92799
2.03223
2.13305
2.22614
2.30981
2.38494
2.45442
2.52223
2.59249
2.66834
2.75198
2.84463
2.94634
3.05614
3.17228
3.29248
3.41439
3.53587
3.65536
3.77207
3.88611
3.99846
4.11085
4.22554
4.3454
4.47535
4.62529
4.80688
5.00894
5.19746
5.33275
5.38375
5.33952
5.21288
5.03425
4.83808
4.64811
4.4668
4.28803
4.10907
3.92933
3.74937
3.57098
3.3971
3.23151
3.07822
2.94092
2.82233
2.72389
2.64583
2.587
2.5443
2.51369
2.49087
2.47185
2.45333
2.43296
2.40934
2.38186
2.35057
2.31609
2.27934
2.24142
2.20379
2.16815
2.13658
2.11165
2.09618
2.09233
2.10164
2.12456
2.16023
2.20635
2.25941
2.31514
2.36908
2.41734
2.4575
2.48753
2.50623
2.51317
2.50857
2.49323
2.46839
2.43557
2.39654
2.35307
2.30698
2.26004
2.21392
2.17029
2.13077
2.09686
2.06982
2.05039
2.03868
2.03408
2.03537
2.0408
2.04838
2.05597
2.06168
2.06432
2.06377
2.06121
2.05908
2.06087
2.07031
2.09044
2.12282
2.16694
2.22017
2.27827
2.33596
2.38801
2.43007
2.45926
2.47421
2.47491
2.46222
2.43744
2.40224
2.35857
2.30815
2.25249
2.19323
2.13206
2.07046
2.00941
1.94925
1.88946
1.82884
1.76609
1.70063
1.63326
1.56643
1.50403
1.45054
1.4118
1.39296
1.39215
1.40229
1.41295
1.41258
1.39053
1.33845
1.25095
1.12577
0.963959
0.772564
0.560561
0.31609
0
0.181163
1.30371
3.68823
7.25288
11.3464
14.8516
16.5867
15.8388
12.7301
8.1874
3.51348
-0.185156
-2.38603
-3.17514
-2.98483
-2.27718
-1.37283
-0.451566
0.373072
1.00951
1.32943
1.40506
1.45923
1.50499
1.54376
1.57767
1.60926
1.64115
1.67566
1.71439
1.75813
1.80676
1.85896
1.91207
1.96254
2.00683
2.04223
2.06761
2.08379
2.09371
2.10209
2.11471
2.13749
2.17494
2.22908
2.29982
2.38573
2.48422
2.59154
2.70329
2.81508
2.9231
3.02476
3.11891
3.20582
3.28685
3.36385
3.43834
3.51109
3.58108
3.64504
3.69787
3.73371
3.74712
3.73395
3.69168
3.61939
3.51732
3.3865
3.23015
3.05248
2.85796
2.65118
2.43677
2.21986
2.00633
1.80241
1.61434
1.44771
1.30655
1.19312
1.10792
1.04974
1.01558
1.00156
1.00346
1.01711
1.03854
1.06419
1.08993
1.11085
1.12217
1.11998
1.10227
1.0698
1.02636
0.978339
0.933355
0.898604
0.877889
0.872061
0.881116
0.902264
0.931182
0.963048
0.993524
1.01951
1.03957
1.05397
1.06438
1.07324
1.08303
1.09541
1.11116
1.12773
1.13967
1.14063
1.12566
1.09325
1.04605
0.990248
0.933689
0.883784
0.84413
0.815039
0.79765
0.792431
0.799305
0.817705
0.847086
0.886428
0.932631
0.980858
1.02572
1.06213
1.08627
1.09627
1.09258
1.07796
1.05703
1.03561
1.01935
1.0128
1.01885
1.0384
1.07092
1.11455
1.16634
1.22292
1.28111
1.33843
1.39326
1.44468
1.49186
1.53324
1.5665
1.58861
1.59592
1.58508
1.55403
1.50268
1.43306
1.34909
1.25596
1.15979
1.06591
0.978745
0.902772
0.84172
0.798374
0.774412
0.77183
0.790265
0.825081
0.868513
0.911446
0.944322
0.957962
0.944133
0.895986
0.808533
0.679214
0.508522
0.298216
0.0527054
-0.214894
-0.61667
-0.691508
0
1.86466
5.03683
9.12828
13.177
15.9241
16.3411
14.1387
9.94531
5.02597
0.702661
-2.1798
-3.4591
-3.49465
-2.8349
-1.94419
-1.10618
-0.453343
-0.0248827
0.186859
0.322463
0.481264
0.646987
0.815581
0.983737
1.1465
1.29833
1.43421
1.55076
1.64701
1.72457
1.78722
1.83999
1.8882
1.93646
1.98775
2.04374
2.10508
2.17175
2.24323
2.31899
2.39902
2.48418
2.57622
2.67741
2.79002
2.91554
3.05414
3.20416
3.36248
3.5253
3.68859
3.84867
4.00259
4.14812
4.28367
4.40783
4.51861
4.61283
4.68703
4.7375
4.76066
4.75425
4.71825
4.65507
4.56881
4.46403
4.34449
4.21383
4.07493
3.92933
3.77786
3.62177
3.46293
3.30386
3.14746
2.99668
2.85424
2.72231
2.60238
2.49519
2.40084
2.31891
2.24873
2.18961
2.14104
2.10285
2.07518
2.05837
2.05269
2.05808
2.07399
2.09937
2.13195
2.16725
2.19958
2.22332
2.23389
2.2285
2.2066
2.16992
2.12216
2.06849
2.01485
1.96641
1.9277
1.90266
1.89414
1.90366
1.93135
91
275
456
635
812
994
1181
1375
1569
1772
1969
2157
2343
2528
2715
2906
3092
3273
3458
3646
0
0
0
0
0
0
0
0
0
0
0
0
0
0
0
0
0
0
0
0
0
0
0
0
0
0
0
0
0
0
0
0
0
0
0
0
0
0
0
0
0
0
0
0
0
0
0
0
0
0
0
0
0
0
0
0
0
0
0
0
0
0
0
0
0
0
0
0
0
0
0
0
0
0
0
0
0
0
0
0
0
0
0
0
0
0
0
0
0
0
0
0
0
0
0
0
0
0
0
0
0
0
0
0
0
0
0
0
0
0
0
0
0
0
0
0
0
0
0
0
0
0
0
0
0
0
0
0
0
0
0
0
0
0
0
0
0
0
0
0
0
0
0
0
0
0
0
0
0
0
0
0
0
0
0
0
0
0
0
0
0
0
0
0
0
0
0
0
0
0
0
0
0
0
0
0
0
0
0
0
0
0
0
0
0
0
0
0
0
0
0
0
0
0
0
0
0
0
0
0
0
0
0
0
0
0
0
0
0
0
0
0
0
0
0
0
0
0
0
0
0
0
0
0
0
0
0
0
0
0
0
0
0
0
0
0
0
0
0
0
0
0
0
0
0
0
0
0
0
0
0
0
0
0
0
0
0
0
0
0
0
0
0
0
0
0
0
0
0
0
0
0
0
0
0
0
0
0
0
0
0
0
0
0
0
0
0
0
0
0
0
0
0
0
0
0
0
0
0
0
0
0
0
0
0
0
0
0
0
0
0
0
0
0
0
0
0
0
0
0
0
0
0
0
0
0
0
0
0
0
0
0
0
0
0
0
0
0
0
0
0
0
0
0
0
0
0
0
0
0
0
0
0
0
0
0
0
0
0
0
0
0
0
0
0
0
0
0
0
0
0
0
0
0
0
0
0
0
0
0
0
0
0
0
0
0
0
0
0
0
0
0
0
0
0
0
0
0
0
0
0
0
0
0
0
0
0
0
0
0
0
0
0
0
0
0
0
0
0
0
0
0
0
0
0
0
0
0
0
0
0
0
0
0
0
0
0
0
0
0
0
0
0
0
0
0
0
0
0
0
0
0
0
0
0
0
0
0
0
0
0
0
0
0
0
0
0
0
0
0
0
0
0
0
0
0
0
0
0
0
0
0
0
0
0
0
0
0
0
0
0
0
0
0
0
0
0
0
0
0
0
0
0
0
0
0
0
0
0
0
0
0
0
0
0
0
0
0
0
0
0
0
0
0
0
0
0
0
0
0
0
0
0
0
0
0
0
0
0
0
0
0
0
0
0
0
0
0
0
0
0
0
0
0
0
0
0
0
0
0
0
0
0
0
0
0
0
0
0
0
0
0
0
0
0
0
0
0
0
0
0
0
0
0
0
0
0
0
0
0
0
0
0
0
0
0
0
0
0
0
0
0
0
0
0
0
0
0
0
0
0
0
0
0
0
0
0
0
0
0
0
0
0
0
0
0
0
0
0
0
0
0
0
0
0
0
0
0
0
0
0
0
0
0
0
0
0
0
0
0
0
0
0
0
0
0
0
0
0
0
0
0
0
0
0
0
0
0
0
0
0
0
0
0
0
0
0
0
0
0
0
0
0
0
0
0
0
0
0
0
0
0
0
0
0
0
0
0
0
0
0
0
0
0
0
0
0
0
0
0
0
0
0
0
0
0
0
0
0
0
0
0
0
0
0
0
0
0
0
0
0
0
0
0
0
0
0
0
0
0
0
0
0
0
0
0
0
0
0
0
0
0
0
0
0
0
0
0
0
0
0
0
0
0
0
0
0
0
0
0
0
0
0
0
0
0
0
0
0
0
0
0
0
0
0
0
0
0
0
0
0
0
0
0
0
0
0
0
0
0
0
0
0
0
0
0
0
0
0
0
0
0
0
0
0
0
0
0
0
0
0
0
0
0
0
0
0
0
0
0
0
0
0
0
0
0
0
0
0
0
0
0
0
0
0
0
0
0
0
0
0
0
0
0
0
0
0
0
0
0
0
0
0
0
0
0
0
0
0
0
0
0
0
0
0
0
0
0
0
0
0
0
0
0
0
0
0
0
0
0
0
0
0
0
0
0
0
0
0
0
0
0
0
0
0
0
0
0
0
0
0
0
0
0
0
0
0
0
0
0
0
0
0
0
0
0
0
0
0
0
0
0
0
0
0
0
0
0
0
0
0
0
0
0
0
0
0
0
0
0
0
0
0
0
0
0
0
0
0
0
0
0
0
0
0
0
0
0
0
0
0
0
0
0
0
0
0
0
0
0
0
0
0
0
0
0
0
0
0
0
0
0
0
0
0
0
0
0
0
0
0
0
0
0
0
0
0
0
0
0
0
0
0
0
0
0
0
0
0
0
0
0
0
0
0
0
0
0
0
0
0
0
0
0
0
0
0
0
0
0
0
0
0
0
0
0
0
0
0
0
0
0
0
0
0
0
0
0
0
0
0
0
0
0
0
0
0
0
0
0
0
0
0
0
0
0
0
0
0
0
0
0
0
0
0
0
0
0
0
0
0
0
0
0
0
0
0
0
0
0
0
0
0
0
0
0
0
0
0
0
0
0
0
0
0
0
0
0
0
0
0
0
0
0
0
0
0
0
0
0
0
0
0
0
0
0
0
0
0
0
0
0
0
0
0
0
0
0
0
0
0
0
0
0
0
0
0
0
0
0
0
0
0
0
0
0
0
0
0
0
0
0
0
0
0
0
0
0
0
0
0
0
0
0
0
0
0
0
0
0
0
0
0
0
0
0
0
0
0
0
0
0
0
0
0
0
0
0
0
0
0
0
0
0
0
0
0
0
0
0
0
0
0
0
0
0
0
0
0
0
0
0
0
0
0
0
0
0
0
0
0
0
0
0
0
0
0
0
0
0
0
0
0
0
0
0
0
0
0
0
0
0
0
0
0
0
0
0
0
0
0
0
0
0
0
0
0
0
0
0
0
0
0
0
0
0
0
0
0
0
0
0
0
0
0
0
0
0
0
0
0
0
0
0
0
0
0
0
0
0
0
0
0
0
0
0
0
0
0
0
0
0
0
0
0
0
0
0
0
0
0
0
0
0
0
0
0
0
0
0
0
0
0
0
0
0
0
0
0
0
0
0
0
0
0
0
0
0
0
0
0
0
0
0
0
0
0
0
0
0
0
0
0
0
0
0
0
0
0
0
0
0
0
0
0
0
0
0
0
0
0
0
0
0
0
0
0
0
0
0
0
0
0
0
0
0
0
0
0
0
0
0
0
0
0
0
0
0
0
0
0
0
0
0
0
0
0
0
0
0
0
0
0
0
0
0
0
0
0
0
0
0
0
0
0
0
0
0
0
0
0
0
0
0
0
0
0
0
0
0
0
0
0
0
0
0
0
0
0
0
0
0
0
0
0
0
0
0
0
0
0
0
0
0
0
0
0
0
0
0
0
0
0
0
0
0
0
0
0
0
0
0
0
0
0
0
0
0
0
0
0
0
0
0
0
0
0
0
0
0
0
0
0
0
0
0
0
0
0
0
0
0
0
0
0
0
0
0
0
0
0
0
0
0
0
0
0
0
0
0
0
0
0
0
0
0
0
0
0
0
0
0
0
0
0
0
0
0
0
0
0
0
0
0
0
0
0
0
0
0
0
0
0
0
0
0
0
0
0
0
0
0
0
0
0
0
0
0
0
0
0
0
0
0
0
0
0
0
0
0
0
0
0
0
0
0
0
0
0
0
0
0
0
0
0
0
0
0
0
0
0
0
0
0
0
0
0
0
0
0
0
0
0
0
0
0
0
0
0
0
0
0
0
0
0
0
0
0
0
0
0
0
0
0
0
0
0
0
0
0
0
0
0
0
0
0
0
0
0
0
0
0
0
0
0
0
0
0
0
0
0
0
0
0
0
0
0
0
0
0
0
0
0
0
0
0
0
0
0
0
0
0
0
0
0
0
0
0
0
0
0
0
0
0
0
0
0
0
0
0
0
0
0
0
0
0
0
0
0
0
0
0
0
0
0
0
0
0
0
0
0
0
0
0
0
0
0
0
0
0
0
0
0
0
0
0
0
0
0
0
0
0
0
0
0
0
0
0
0
0
0
0
0
0
0
0
0
0
0
0
0
0
0
0
0
0
0
0
0
0
0
0
0
0
0
0
0
0
0
0
0
0
0
0
0
0
0
0
0
0
0
0
0
0
0
0
0
0
0
0
0
0
0
0
0
0
0
0
0
0
0
0
0
0
0
0
0
0
0
0
0
0
0
0
0
0
0
0
0
0
0
0
0
0
0
0
0
0
0
0
0
0
0
0
0
0
0
0
0
0
0
0
0
0
0
0
0
0
0
0
0
0
0
0
0
0
0
0
0
0
0
0
0
0
0
0
0
0
0
0
0
0
0
0
0
0
0
0
0
0
0
0
0
0
0
0
0
0
0
0
0
0
0
0
0
0
0
0
0
0
0
0
0
0
0
0
0
0
0
0
0
0
0
0
0
0
0
0
0
0
0
0
0
0
0
0
0
0
0
0
0
0
0
0
0
0
0
0
0
0
0
0
0
0
0
0
0
0
0
0
0
0
0
0
0
0
0
0
0
0
0
0
0
0
0
0
0
0
0
0
0
0
0
0
0
0
0
0
0
0
0
0
0
0
0
0
0
0
0
0
0
0
0
0
0
0
0
0
0
0
0
0
0
0
0
0
0
0
0
0
0
0
0
0
0
0
0
0
0
0
0
0
0
0
0
0
0
0
0
0
0
0
0
0
0
0
0
0
0
0
0
0
0
0
0
0
0
0
0
0
0
0
0
0
0
0
0
0
0
0
0
0
0
0
0
0
0
0
0
0
0
0
0
0
0
0
0
0
0
0
0
0
0
0
0
0
0
0
0
0
0
0
0
0
0
0
0
0
0
0
0
0
0
0
0
0
0
0
0
0
0
0
0
0
0
0
0
0
0
0
0
0
0
0
0
0
0
0
0
0
0
0
0
0
0
0
0
0
0
0
0
0
0
0
0
0
0
0
0
0
0
0
0
0
0
0
0
0
0
0
0
0
0
0
0
0
0
0
0
0
0
0
0
0
0
0
0
0
0
0
0
0
0
0
0
0
0
0
0
0
0
0
0
0
0
0
0
0
0
0
0
0
0
0
0
0
0
0
0
0
0
0
0
0
0
0
0
0
0
0
0
0
0
0
0
0
0
0
0
0
0
0
0
0
0
0
0
0
0
0
0
0
0
0
0
0
0
0
0
0
0
0
0
0
0
0
0
0
0
0
0
0
0
0
0
0
0
0
0
0
0
0
0
0
0
0
0
0
0
0
0
0
0
0
0
0
0
0
0
0
0
0
0
0
0
0
0
0
0
0
0
0
0
0
0
0
0
0
0
0
0
0
0
0
0
0
0
0
0
0
0
0
0
0
0
0
0
0
0
0
0
0
0
0
0
0
0
0
0
0
0
0
0
0
0
0
0
0
0
0
0
0
0
0
0
0
0
0
0
0
0
0
0
0
0
0
0
0
0
0
0
0
0
0
0
0
0
0
0
0
0
0
0
0
0
0
0
0
0
0
0
0
0
0
0
0
0
0
0
0
0
0
0
0
0
0
0
0
0
0
0
0
0
0
0
0
0
0
0
0
0
0
0
0
0
0
0
0
0
0
0
0
0
0
0
0
0
0
0
0
0
0
0
0
0
0
0
0
0
0
0
0
0
0
0
0
0
0
0
0
0
0
0
0
0
0
0
0
0
0
0
0
0
0
0
0
0
0
0
0
0
0
0
0
0
0
0
0
0
0
0
0
0
0
0
0
0
0
0
0
0
0
0
0
0
0
0
0
0
0
0
0
0
0
0
0
0
0
0
0
0
0
0
0
0
0
0
0
0
0
0
0
0
0
0
0
0
0
0
0
0
0
0
0
0
0
0
0
0
0
0
0
0
0
0
0
0
0
0
0
0
0
0
0
0
0
0
0
0
0
0
0
0
0
0
0
0
0
0
0
0
0
0
0
0
0
0
0
0
0
0
0
0
0
0
0
0
0
0
0
0
0
0
0
0
0
0
0
0
0
0
0
0
0
0
0
0
0
0
0
0
0
0
0
0
0
0
0
0
0
0
0
0
0
0
0
0
0
0
0
0
0
0
0
0
0
0
0
0
0
0
0
0
0
0
0
0
0
0
0
0
0
0
0
0
0
0
0
0
0
0
0
0
0
0
0
0
0
0
0
0
0
0
0
0
0
0
0
0
0
0
0
0
0
0
0
0
0
0
0
0
0
0
0
0
0
0
0
0
0
0
0
0
0
0
0
0
0
0
0
0
0
0
0
0
0
0
0
0
0
0
0
0
0
0
0
0
0
0
0
0
0
0
0
0
0
0
0
0
0
0
0
0
0
0
0
0
0
0
0
0
0
0
0
0
0
0
0
0
0
0
0
0
0
0
0
0
0
0
0
0
0
0
0
0
0
0
0
0
0
0
0
0
0
0
0
0
0
0
0
0
0
0
0
0
0
0
0
0
0
0
0
0
0
0
0
0
0
0
0
0
0
0
0
0
0
0
0
0
0
0
0
0
0
0
0
0
0
0
0
0
0
0
0
0
0
0
0
0
0
0
0
0
0
0
0
0
0
0
0
0
0
0
0
0
0
0
0
0
0
0
0
0
0
0
0
0
0
0
0
0
0
0
0
0
0
0
0
0
0
0
0
0
0
0
0
0
0
0
0
0
0
0
0
0
0
0
0
0
0
0
0
0
0
0
0
0
0
0
0
0
0
0
0
0
0
0
0
0
0
0
0
0
0
0
0
0
0
0
0
0
0
0
0
0
0
0
0
0
0
0
0
0
0
0
0
0
0
0
0
0
0
0
0
0
0
0
0
0
0
0
0
0
0
0
0
0
0
0
0
0
0
0
0
0
0
0
0
0
0
0
0
0
0
0
0
0
0
0
0
0
0
0
0
0
0
0
0
0
0
0
0
0
0
0
0
0
0
0
0
0
0
0
0
0
0
0
0
0
0
0
0
0
0
0
0
0
0
0
0
0
0
0
0
0
0
0
0
0
0
0
0
0
0
0
0
0
0
0
0
0
0
0
0
0
0
0
0
0
0
0
0
0
0
0
0
0
0
0
0
0
0
0
0
0
0
0
0
0
0
0
0
0
0
0
0
0
0
0
0
0
0
0
0
0
0
0
0
0
0
0
0
0
0
0
0
0
0
0
0
0
0
0
0
0
0
0
0
0
0
0
0
0
0
0
0
0
0
0
0
0
0
0
0
0
0
0
0
0
0
0
0
0
0
0
0
0
0
0
0
0
0
0
0
0
0
0
0
0
0
0
0
0
0
0
0
0
0
0
0
0
0
0
0
0
0
0
0
0
0
0
0
0
0
0
0
0
0
0
0
0
0
0
0
0
0
0
0
0
0
0
0
0
0
0
0
0
0
0
0
0
0
0
0
0
0
0
0
0
0
0
0
0
0
0
0
0
0
0
0
0
0
0
0
0
0
0
0
0
0
0
0
0
0
0
0
0
0
0
0
0
0
0
0
0
0
0
0
0
0
0
0
0
0
0
0
0
0
0
0
0
0
0
0
0
0
0
0
0
0
0
0
0
0
0
0
0
0
0
0
0
0
0
0
0
0
0
0
0
0
0
0
0
0
0
0
0
0
0
0
0
0
0
0
0
0
0
0
0
0
0
0
0
0
0
0
0
0
0
0
0
0
0
0
0
0
0
0
0
0
0
0
0
0
0
0
0
0
0
0
0
0
0
0
0
0
0
0
0
0
0
0
0
0
0
0
0
0
0
0
0
0
0
0
0
0
0
0
0
0
0
0
0
0
0
0
0
0
0
0
0
0
0
0
0
0
0
0
0
0
0
0
0
0
0
0
0
0
0
0
0
0
0
0
0
0
0
0
0
0
0
0
0
0
0
0
0
0
0
0
0
0
0
0
0
0
0
0
0
0
0
0
0
0
0
0
0
0
0
0
0
0
0
0
0
0
0
0
0
0
0
0
0
0
0
0
0
0
0
0
0
0
0
0
0
0
0
0
0
0
0
0
0
0
0
0
0
0
0
0
0
0
0
0
0
0
0
0
0
0
0
0
0
0
0
0
0
0
0
0
0
0
0
0
0
0
0
0
0
0
0
0
0
0
0
0
0
0
0
0
0
0
0
0
0
0
0
0
0
0
0
0
0
0
0
0
0
0
0
0
0
0
0
0
0
0
0
0
0
0
0
0
0
0
0
0
0
0
0
0
0
0
0
0
0
0
0
0
0
0
0
0
0
0
0
0
0
0
0
0
0
0
0
0
0
0
0
0
0
0
0
0
0
0
0
0
0
0
0
0
0
0
0
0
0
0
0
0
0
0
0
0
0
0
0
0
0
0
0
0
0
0
0
0
0
0
0
0
0
0
0
0
0
0
0
0
0
0
0
0
0
0
0
0
0
0
0
0
0
0
0
0
0
0
0
0
0
0
0
0
0
0
0
0
0
0
0
0
0
0
0
0
0
