1.69421
1.70911
1.72481
1.7473
1.79086
1.91186
2.17267
2.51074
2.80446
2.9395
2.8688
2.63081
2.32107
2.04076
1.8539
1.74095
1.65995
1.59508
1.54111
1.49515
1.45448
1.41592
1.3754
1.32751
1.2658
1.18322
1.0636
0.871219
0.607319
0.287284
-0.0615699
0
0.965899
2.86091
5.36761
7.86985
9.67084
10.2688
9.56338
7.88625
5.83942
4.02097
2.78242
2.14539
1.90431
1.91404
1.95433
2.00087
2.05194
2.10617
2.16213
2.21881
2.27576
2.33296
2.39045
2.4475
2.50158
2.54828
2.58219
2.59866
2.59579
2.57609
2.5472
2.5214
2.51392
2.53868
2.60443
2.71539
2.90768
3.19456
3.51565
3.79836
3.98455
4.05026
4.0119
3.91847
3.83429
3.81799
3.89121
4.0227
4.18608
4.37073
4.55848
4.73107
4.87327
4.97498
5.03172
5.04356
5.01319
4.94394
4.84026
4.70929
4.55469
4.37914
4.18626
3.98054
3.76692
3.55028
3.33451
3.12246
2.91604
2.71648
2.52486
2.34248
2.17113
2.013
1.8704
1.74539
1.63919
1.55177
1.48202
1.42803
1.38732
1.3572
1.3348
1.31706
1.30066
1.28182
1.25673
1.22228
1.17685
1.12108
1.05816
0.993478
0.933972
0.886241
0.855622
0.846338
0.854329
0.871724
0.889736
0.901743
0.9054
0.903106
0.900897
0.906377
0.92565
0.960351
1.01133
1.08056
1.16825
1.26708
1.36166
1.43544
1.4749
1.47352
1.43419
1.3689
1.2955
1.23236
1.19239
1.17525
1.17547
1.18858
1.20882
1.23113
1.25259
1.27313
1.29493
1.32106
1.35442
1.39517
1.43557
1.46322
1.46542
1.43423
1.37003
1.28222
1.18651
1.1001
1.03653
0.996838
0.975947
0.971549
0.97984
0.99659
1.0178
1.04077
1.06384
1.08633
1.10821
1.1296
1.15027
1.16886
1.18221
1.18599
1.17562
1.14803
1.10334
1.04587
0.983744
0.92722
0.886135
0.867191
0.877192
0.912834
0.959485
0.998953
1.01488
0.99742
0.946022
0.869778
0.785165
0.711669
0.665773
0.652375
0.666255
0.703279
0.754653
0.810159
0.860909
0.90147
0.9307
0.951162
0.967521
0.984664
1.00611
1.03349
1.06787
1.10999
1.16065
1.22075
1.29087
1.37075
1.45879
1.55169
1.64551
1.7361
1.81926
1.89051
1.94493
1.97939
1.99168
1.98093
1.94805
1.89614
1.83059
1.75861
1.68837
1.62772
1.58168
1.5533
1.545
1.55763
1.58899
1.63127
1.67261
1.70024
1.70204
1.64036
1.30822
0.700551
0
-0.58687
-0.989291
-0.190018
1.61228
4.13627
6.82139
9.01013
10.173
10.0875
8.90417
7.07998
5.19874
3.74779
2.94489
2.69719
2.67329
2.58918
2.51106
2.44288
2.38973
2.35505
2.34023
2.34456
2.36546
2.39912
2.44109
2.48689
2.5331
2.57739
2.61912
2.65967
2.70242
2.75241
2.8155
2.89703
3.00029
3.1315
3.28965
3.45658
3.61068
3.73488
3.82321
3.88268
3.92978
3.98321
4.05656
4.15113
4.25908
4.37494
4.49412
4.61268
4.72795
4.83845
4.94352
5.04282
5.13595
5.22213
5.30008
5.36765
5.41899
5.4467
5.44319
5.40035
5.31159
5.17398
4.98948
4.76485
4.51021
4.23696
3.95725
3.67894
3.40778
3.14863
2.9054
2.68089
2.47657
2.29236
2.12667
1.97658
1.83816
1.7075
1.58171
1.4597
1.3427
1.23665
1.17328
1.30383
1.70869
2.23033
2.63547
2.73564
2.48068
1.97951
1.44287
1.08433
1.02335
1.08091
1.16533
1.25789
1.35235
1.44385
1.52768
1.59902
1.65506
1.69403
1.71583
1.72268
1.71947
1.71324
1.71174
1.72158
1.74635
1.78419
1.83193
1.88605
1.94257
1.99787
2.04926
2.09513
2.13501
2.16923
2.19847
2.22338
2.24423
2.26041
2.27108
2.27534
2.27272
2.26382
2.25051
2.2358
2.22305
2.21498
2.21314
2.21674
2.22254
2.22633
2.22456
2.2156
2.20033
2.18152
2.16268
2.14655
2.13403
2.12426
2.11579
2.10737
2.09895
2.09233
2.09109
2.09983
2.12304
2.16275
2.22253
2.30315
2.39547
2.48294
2.54876
2.58093
2.57576
2.53876
2.48236
2.42155
2.36914
2.33116
2.30604
2.29109
2.28453
2.28403
2.28699
2.29064
2.29184
2.28769
2.27631
2.25761
2.23392
2.21
2.19234
2.18773
2.2014
2.24236
2.3159
2.40594
2.48811
2.53911
2.54535
2.50821
2.44359
2.37592
2.32932
2.31981
2.34073
2.38153
2.43634
2.50109
2.5721
2.64641
2.72215
2.79855
2.87568
2.95402
3.03402
3.11521
3.19494
3.26775
3.3263
3.36267
3.37018
3.34514
3.28804
3.20381
3.1012
2.99106
2.88411
2.78791
2.70528
2.63533
2.57634
2.52478
2.476
2.42488
2.365
2.2719
2.01528
1.52602
0.870294
0.19124
0
0.952805
3.13053
6.14323
9.19217
11.4103
12.2332
11.601
9.91012
7.78183
5.79385
4.30187
3.40073
2.99339
2.94029
3.00893
3.08751
3.17236
3.2642
3.36295
3.46483
3.55816
3.62663
3.65425
3.63156
3.5614
3.46131
3.36094
3.29464
3.29169
3.35319
3.51371
3.76526
4.03896
4.26103
4.37936
4.38005
4.2896
4.16314
4.06405
4.04339
4.10353
4.21434
4.35779
4.52556
4.71065
4.90527
5.10112
5.28939
5.46197
5.61205
5.73437
5.82543
5.88309
5.90701
5.89822
5.85904
5.79308
5.70511
5.60073
5.48575
5.36513
5.24197
5.11641
4.98509
4.84177
4.67908
4.49111
4.27584
4.03678
3.78301
3.52775
3.2857
3.0672
2.88008
2.73113
2.61931
2.53929
2.48309
2.44192
2.40778
2.37429
2.33714
2.29405
2.24461
2.19051
2.13436
2.07978
2.03108
1.99248
1.96725
1.95698
1.96156
1.97887
2.00384
2.03059
2.05384
2.07
2.07774
2.0779
2.07287
2.06558
2.05846
2.0527
2.04833
2.04437
2.03918
2.03139
2.02058
2.00774
1.99514
1.98594
1.98331
1.98976
2.00611
2.03223
2.06676
2.10731
2.15099
2.19377
2.23124
2.25957
2.27631
2.28106
2.2756
2.26357
2.24951
2.23766
2.23072
2.22909
2.23218
2.23895
2.24771
2.25677
2.26528
2.27361
2.28343
2.29726
2.31769
2.34631
2.38397
2.4278
2.47152
2.50775
2.53012
2.53518
2.5232
2.49771
2.46411
2.4277
2.39209
2.3583
2.32582
2.29337
2.25941
2.22286
2.18361
2.14301
2.10483
2.07467
2.05861
2.06192
2.08783
2.13693
2.20717
2.29431
2.39255
2.49558
2.5935
2.67415
2.7257
2.73928
2.71213
2.64982
2.56596
2.47877
2.40562
2.35675
2.32877
2.31878
2.31631
2.30988
2.29158
2.26042
2.22314
2.19193
2.17991
2.19606
2.23854
2.30115
2.37457
2.44845
2.5149
2.57072
2.61803
2.66286
2.71246
2.77238
2.84297
2.92146
3.00247
3.07793
3.1393
3.1793
3.19291
3.1776
3.13288
3.05958
2.95922
2.83471
2.69124
2.53431
2.36981
2.20523
2.05023
1.92562
1.89905
2.1033
2.47422
2.85689
3.08936
3.04005
2.64219
1.92188
0.993285
0
-0.389046
0.516164
2.76673
5.91502
9.07271
11.2833
11.9503
11.0719
9.16406
6.95388
5.04653
3.74596
3.06907
2.87357
3.02248
3.14591
3.25207
3.32912
3.36987
3.37391
3.34821
3.30564
3.26179
3.23097
3.22128
3.23201
3.26091
3.30511
3.36153
3.42826
3.50501
3.59251
3.69116
3.8026
3.91925
4.02951
4.12194
4.19019
4.2364
4.27118
4.31018
4.36889
4.45776
4.57228
4.70601
4.8544
5.01294
5.17711
5.34281
5.50658
5.66488
5.81404
5.9504
6.06973
6.16621
6.23234
6.2628
6.25344
6.20205
6.10909
5.97791
5.81425
5.6252
5.41775
5.19785
4.97127
4.74194
4.51269
4.28656
4.06675
3.85674
3.6598
3.47749
3.31012
3.15727
3.01833
2.89306
2.78168
2.68458
2.60265
2.53463
2.47799
2.42931
2.38525
2.34343
2.30313
2.26536
2.23244
2.20695
2.19034
2.18341
2.18647
2.19729
2.21106
2.22202
2.22467
2.21507
2.19192
2.15706
2.11549
2.07472
2.04334
2.02929
2.0527
2.14235
2.27747
2.41111
2.4908
2.48272
2.38992
2.25389
2.13645
2.08973
2.12995
2.20651
2.29289
2.3619
2.39471
2.38629
2.3454
2.28994
2.23981
2.21004
2.20068
2.20727
2.22636
2.25466
2.28803
2.32258
2.35531
2.38442
2.4092
2.42967
2.44603
2.45803
2.46508
2.46608
2.45979
2.44534
2.42265
2.39255
2.35665
2.31688
2.27512
2.233
2.19177
2.15263
2.11711
2.08716
2.06493
2.05262
2.05201
2.06407
2.0887
2.12464
2.16963
2.2206
2.27385
2.32525
2.36956
2.40138
2.41598
2.40997
2.38226
2.33472
2.27218
2.2018
2.13174
2.06973
2.0205
1.986
1.96781
1.96597
1.97947
2.00738
2.0463
2.08952
2.12977
2.16029
2.1759
2.17387
2.15431
2.12027
2.07744
2.03374
1.99714
1.97564
1.97612
2.00313
2.05783
2.13761
2.23648
2.34624
2.45804
2.56406
2.65892
2.73813
2.79735
2.83329
2.84357
2.82604
2.77917
2.70291
2.59949
2.474
2.33437
2.19069
2.05363
1.93188
1.83511
1.77501
1.75488
1.75358
1.73973
1.67989
1.54704
1.3274
1.01838
0.641096
0.230107
0
0.680128
2.37976
4.89778
7.66095
9.91743
11.0384
10.7672
9.29319
7.13578
4.91821
3.14794
2.08459
1.72232
1.88707
2.08762
2.27155
2.43563
2.57354
2.68255
2.76363
2.82095
2.86074
2.89
2.91525
2.94162
2.9724
3.00952
3.0544
3.10828
3.17247
3.2508
3.35095
3.47261
3.5964
3.69454
3.74181
3.72793
3.66465
3.58359
3.52564
3.52668
3.59452
3.7078
3.85061
4.01416
4.19126
4.37475
4.55807
4.73544
4.90118
5.05055
5.18018
5.28732
5.36974
5.42553
5.45256
5.44873
5.41267
5.34345
5.24094
5.10617
4.94144
4.75024
4.53693
4.30637
4.06497
3.8183
3.57157
3.33047
3.10093
2.88866
2.69847
2.53436
2.39935
2.29246
2.20757
2.13705
2.07373
2.01253
1.95131
1.89064
1.8328
1.78042
1.73493
1.69652
1.66465
1.63813
1.61564
1.59602
1.57843
1.56232
1.54739
1.5336
1.52139
1.51169
1.5059
1.50566
1.51242
1.52736
1.55162
1.58259
1.61469
1.64181
1.65932
1.66545
1.66135
1.65002
1.63457
1.61718
1.59922
1.58204
1.56836
1.5628
1.57145
1.60716
1.69161
1.82247
1.96258
2.06353
2.08666
2.02109
1.89073
1.74652
1.64571
1.62656
1.67183
1.75011
1.8376
1.90995
1.94937
1.94913
1.9143
1.85867
1.79932
1.75064
1.71746
1.6972
1.68579
1.67915
1.67323
1.66523
1.65423
1.64119
1.62832
1.61813
1.61229
1.6115
1.61542
1.6227
1.63172
1.64133
1.65122
1.66191
1.67443
1.68976
1.70835
1.72996
1.75408
1.78024
1.80828
1.83845
1.87113
1.90628
1.94316
1.97971
2.01307
2.0403
2.05923
2.06896
2.06991
2.06326
2.05029
2.03175
2.00814
1.9796
1.94694
1.91219
1.8788
1.85115
1.83358
1.8292
1.8389
1.86107
1.89194
1.9266
1.96018
1.9893
2.01227
2.02904
2.04111
2.05126
2.06308
2.08053
2.10775
2.14964
2.21714
2.33465
2.51024
2.70315
2.85275
2.90292
2.82887
2.65021
2.42179
2.20754
2.05295
1.95268
1.87897
1.81959
1.76978
1.72565
1.68408
1.64271
1.59963
1.55295
1.50032
1.43847
1.36083
1.24031
1.03159
0.736055
0.384527
0
0.668944
2.63031
5.54776
8.53451
10.5798
11.0593
10.0197
8.08296
6.06785
4.5727
3.75802
3.40918
3.17958
3.00862
2.86689
2.74547
2.6479
2.5754
2.52393
2.48681
2.45651
2.42649
2.39254
2.35343
2.31092
2.2692
2.23371
2.20992
2.20315
2.21742
2.25468
2.31438
2.39347
2.48707
2.58949
2.69543
2.80104
2.90445
3.00532
3.10426
3.20215
3.29938
3.39537
3.48842
3.57581
3.65456
3.72236
3.77829
3.82345
3.86111
3.89646
3.93587
3.98572
4.05538
4.15793
4.29158
4.43217
4.5483
4.61193
4.6066
4.52989
4.38983
4.19841
3.96625
3.70523
3.42766
3.14187
2.85415
2.57052
2.29711
2.04009
1.80512
1.59678
1.41898
1.27314
1.15683
1.06567
0.994158
0.936638
0.888033
0.844315
0.802655
0.761364
0.719783
0.678134
0.637334
0.598931
0.564932
0.53752
0.518638
0.509454
0.510397
0.520752
0.537799
0.55638
0.570521
0.575336
0.568686
0.552334
0.532163
0.517219
0.517666
0.551574
0.643867
0.77402
0.901269
0.982199
0.990671
0.929643
0.828943
0.730833
0.67159
0.664649
0.688369
0.728201
0.776929
0.828772
0.878601
0.922323
0.957088
0.981536
0.995519
0.99986
0.996081
0.986105
0.971937
0.95538
0.937816
0.920115
0.902699
0.885745
0.86946
0.854363
0.841502
0.832549
0.829728
0.835386
0.851798
0.881252
0.927868
0.99242
1.06458
1.1301
1.17473
1.18848
1.16833
1.1184
1.04816
0.969847
0.896133
0.834762
0.789826
0.765706
0.767723
0.801225
0.85587
0.916479
0.967752
0.999354
1.0092
1.00342
0.993122
0.989259
0.998062
1.01672
1.04079
1.06393
1.08047
1.08749
1.08572
1.07905
1.07294
1.07253
1.0806
1.09672
1.11936
1.14665
1.1761
1.20471
1.22917
1.24657
1.25482
1.25296
1.24157
1.22275
1.19998
1.1776
1.16023
1.15173
1.15468
1.17109
1.20223
1.24826
1.30823
1.38016
1.46118
1.54786
1.63656
1.7239
1.80704
1.8839
1.95307
2.01365
2.06515
2.10695
2.13805
2.15676
2.16027
2.1456
2.1104
2.05337
1.97513
1.87873
1.76973
1.65553
1.54409
1.44223
1.35675
1.28895
1.22874
1.15964
1.06297
0.922777
0.695058
0.38194
0.0150089
-0.364694
-0.6376
0
1.46894
3.68909
6.29943
8.71378
10.302
10.6295
9.64094
7.68955
5.39215
3.37451
2.03337
1.43044
1.3528
1.37839
1.37419
1.36435
1.35017
1.33265
1.31293
1.2923
1.27225
1.25479
1.24281
1.24078
1.25421
1.2892
1.35149
1.44938
1.60861
1.82902
2.06509
2.26205
2.37745
2.39801
2.3434
2.25561
2.18
2.14814
2.15787
2.19246
2.24419
2.31058
2.39026
2.48296
2.58943
2.71114
2.84972
3.00842
3.1991
3.4523
3.80053
4.20558
4.58341
4.85428
4.97292
4.93658
4.76737
4.48814
4.11875
3.70226
3.32576
3.04065
2.84134
2.70482
2.6206
2.56387
2.50501
2.4189
2.29232
2.1266
1.93464
1.73426
1.54125
1.36066
1.19176
1.03492
0.890382
0.758185
0.638411
0.531503
0.437651
0.356146
0.285884
0.225712
0.174976
0.134039
0.104576
0.0894949
0.093271
0.129749
0.237102
0.463336
0.754259
1.02132
1.16899
1.13306
0.913218
0.580825
0.255552
0.0599731
0.0614526
0.157918
0.311716
0.486204
0.641615
0.745454
0.781106
0.751722
0.678124
0.591439
0.523065
0.49475
0.504342
0.541897
0.600764
0.677841
0.771978
0.887309
1.04038
1.24397
1.46165
1.62743
1.67134
1.5584
1.31488
1.02223
0.779375
0.655562
0.627985
0.638279
0.672342
0.720764
0.775216
0.828955
0.876111
0.912482
0.935436
0.944293
0.940839
0.929427
0.916325
0.908349
0.911234
0.927103
0.954615
0.992081
1.03728
1.08735
1.13906
1.18907
1.23389
1.26966
1.29215
1.29838
1.2867
1.25762
1.21448
1.16349
1.1131
1.07262
1.05042
1.05198
1.08032
1.1337
1.20795
1.2974
1.39127
1.47236
1.52477
1.53692
1.50536
1.43798
1.3535
1.27554
1.22337
1.20429
1.20492
1.21364
1.22184
1.22275
1.21323
1.19439
1.17152
1.15341
1.14887
1.16679
1.21583
1.30797
1.48143
1.74414
2.03862
2.29413
2.45368
2.49347
2.42661
2.29228
2.13753
2.00032
1.89275
1.80481
1.72768
1.65567
1.58417
1.50911
1.4271
1.33526
1.23264
1.12036
1.00004
0.871852
0.729874
0.54828
0.306299
0
-0.347206
-0.248965
0.868894
3.08153
5.9076
8.47517
9.93651
9.87936
8.49076
6.40089
4.33841
2.81725
2.00409
1.77663
1.86593
1.89715
1.92404
1.94846
1.97116
1.99332
2.01625
2.04122
2.06927
2.10124
2.13801
2.18052
2.22967
2.28596
2.34899
2.41795
2.4893
2.55867
2.62226
2.67839
2.72843
2.77689
2.83051
2.89677
2.9823
3.0886
3.21519
3.36524
3.54573
3.74542
3.93467
4.0827
4.16982
4.19751
4.1899
4.18413
4.21397
4.29546
4.41007
4.53665
4.66415
4.7824
4.88134
4.95384
4.99597
5.00621
4.98464
4.93225
4.85023
4.73949
4.60051
4.43358
4.2416
4.02845
3.79766
3.55385
3.30324
3.05322
2.81166
2.58601
2.38248
2.20539
2.05681
1.93707
1.84559
1.77933
1.73236
1.69898
1.67497
1.65831
1.64926
1.64962
1.66139
1.68717
1.72624
1.77178
1.81425
1.84429
1.85577
1.84775
1.82461
1.79435
1.76577
1.74529
1.73429
1.732
1.73508
1.73943
1.74189
1.7414
1.7391
1.73749
1.73916
1.74573
1.75688
1.77192
1.79016
1.8112
1.83511
1.86213
1.89218
1.92446
1.95712
1.98769
2.01376
2.03374
2.0472
2.05479
2.05778
2.05746
2.05482
2.05029
2.04402
2.03617
2.02707
2.01724
2.00729
1.99776
1.98904
1.98146
1.97531
1.97088
1.96847
1.96824
1.97022
1.97432
1.98034
1.98794
1.99649
2.00493
2.01154
2.01448
2.01261
2.00634
1.99813
1.99218
1.99332
2.00536
2.0313
2.06893
2.11005
2.14426
2.16259
2.16065
2.14014
2.10824
2.07505
2.05016
2.03876
2.03986
2.04974
2.06485
2.08126
2.09582
2.10686
2.11443
2.12002
2.12593
2.13453
2.14743
2.16548
2.18879
2.21682
2.24803
2.2804
2.31186
2.34062
2.3653
2.38489
2.39822
2.40455
2.40379
2.39683
2.38617
2.37627
2.37331
2.38426
2.41658
2.4809
2.5844
2.72659
2.89474
3.05928
3.18693
3.24726
3.21398
3.07273
2.83379
2.54027
2.26144
2.0682
1.98658
1.97004
1.99446
2.03859
2.08098
2.1048
2.10013
2.06287
1.99152
1.88379
1.73755
1.51175
1.1752
0.747892
0.279268
0
0.850646
2.84635
5.62178
8.43721
10.4832
11.2143
10.5478
8.85007
6.74764
4.86529
3.60569
3.05351
3.02426
3.08905
3.11955
3.14142
3.15565
3.16313
3.16552
3.165
3.16397
3.1647
3.16915
3.17892
3.19526
3.21903
3.25076
3.29073
3.33897
3.39525
3.45905
3.52948
3.60531
3.68522
3.76742
3.8504
3.93333
4.01641
4.101
4.18945
4.28465
4.38943
4.50589
4.63426
4.77363
4.92167
5.07507
5.22777
5.37196
5.50056
5.60891
5.69605
5.76483
5.82075
5.86978
5.91495
5.95383
5.97537
5.96256
5.89829
5.77152
5.58162
5.33938
5.0646
4.78114
4.5093
4.25726
4.02794
3.82403
3.64533
3.48935
3.35214
3.2293
3.11676
3.0114
2.91113
2.81469
2.72122
2.62971
2.53833
2.44448
2.34566
2.24044
2.12952
2.01612
1.90706
1.81103
1.73687
1.69201
1.68134
1.70693
1.76819
1.86228
1.9926
2.16159
2.35199
2.53329
2.6739
2.74954
2.75021
2.68281
2.56897
2.43907
2.32407
2.24247
2.19329
2.16833
2.16034
2.1643
2.17537
2.19003
2.20655
2.22471
2.24479
2.26649
2.28782
2.30473
2.3124
2.30721
2.28862
2.26038
2.23011
2.20758
2.20196
2.21896
2.26259
2.32731
2.4
2.46553
2.51127
2.53065
2.5249
2.50249
2.47652
2.46086
2.46527
2.4917
2.53862
2.59627
2.65158
2.69225
2.7103
2.70402
2.67789
2.641
2.60442
2.57717
2.56336
2.56871
2.59486
2.63106
2.66187
2.67207
2.65199
2.60121
2.52915
2.45249
2.39029
2.35735
2.3546
2.38206
2.44007
2.52365
2.62215
2.71751
2.7901
2.82437
2.81224
2.7562
2.67086
2.5811
2.51603
2.50032
2.57351
2.72168
2.89207
3.02341
3.0713
3.02317
2.89895
2.74117
2.60052
2.52081
2.50346
2.52886
2.58152
2.65212
2.73329
2.81847
2.90338
2.98705
3.0719
3.16471
3.28655
3.48372
3.76512
4.06192
4.28527
4.36256
4.25983
3.98985
3.61023
3.2139
2.90697
2.73307
2.64336
2.59664
2.58144
2.59007
2.61455
2.64376
2.66388
2.66139
2.62362
2.52949
2.22116
1.6825
1.05033
0.474601
0
0.882399
2.8668
5.61193
8.41744
10.5044
11.3677
10.9811
9.73304
8.16665
6.71197
5.5623
4.71571
4.09311
3.73003
3.67966
3.66277
3.65919
3.65846
3.64773
3.61615
3.55941
3.48262
3.3999
3.33076
3.29427
3.29997
3.3406
3.41309
3.5097
3.61976
3.73191
3.83694
3.92872
4.0041
4.0632
4.10892
4.14611
4.18045
4.21736
4.26092
4.31359
4.37663
4.4494
4.53026
4.61801
4.71272
4.81604
4.93067
5.05919
5.2035
5.36572
5.53672
5.69771
5.82807
5.91159
5.94111
5.91977
5.85862
5.7717
5.67044
5.56029
5.44065
5.30803
5.15772
4.98444
4.78458
4.55727
4.30492
4.03285
3.74842
3.45968
3.17389
2.89651
2.63082
2.37804
2.1379
1.9096
1.69266
1.4877
1.29661
1.12269
0.970504
0.844634
0.748324
0.683739
0.651674
0.651421
0.680743
0.735933
0.811945
0.902611
1.00084
1.09948
1.19163
1.2715
1.33528
1.38177
1.4127
1.43244
1.44714
1.46333
1.4866
1.52245
1.57029
1.6199
1.6571
1.66898
1.64897
1.60009
1.53514
1.47395
1.43858
1.44538
1.49528
1.59178
1.75316
1.97461
2.21265
2.4181
2.55141
2.59174
2.54042
2.41921
2.26425
2.11676
2.01164
1.95564
1.93551
1.9376
1.95298
1.97573
2.00102
2.02524
2.04631
2.06365
2.07779
2.08986
2.10109
2.11236
2.12399
2.13567
2.1466
2.15558
2.16125
2.16224
2.15741
2.14593
2.12745
2.10225
2.07134
2.03651
2.00031
1.96584
1.93647
1.91542
1.90537
1.90792
1.92349
1.95145
1.98924
2.02956
2.06179
2.07577
2.06433
2.02531
1.96235
1.88394
1.80116
1.72495
1.66268
1.61541
1.58318
1.5662
1.56349
1.57308
1.59235
1.61815
1.6471
1.67585
1.70127
1.72055
1.73091
1.73071
1.71951
1.69844
1.67054
1.6409
1.61629
1.60439
1.61262
1.64682
1.71708
1.83718
2.01325
2.22005
2.41166
2.54496
2.58916
2.53342
2.39085
2.19611
1.99478
1.82698
1.70561
1.61384
1.53624
1.46516
1.39547
1.32298
1.24448
1.15722
1.05835
0.942035
0.78558
0.571207
0.302277
0
-0.14935
0.659159
2.57893
5.22845
7.81508
9.51201
9.85377
8.91156
7.17104
5.23766
3.57539
2.41036
1.77733
1.60958
1.80712
1.99926
2.18573
2.36168
2.5194
2.65005
2.74766
2.80802
2.82983
2.81568
2.77227
2.70963
2.63939
2.57289
2.51913
2.48193
2.46303
2.46611
2.49566
2.57593
2.76955
3.06473
3.37839
3.60364
3.66244
3.55112
3.34663
3.16547
3.1004
3.17909
3.31738
3.47589
3.64398
3.81579
3.98684
4.15373
4.31325
4.4626
4.59958
4.72265
4.83127
4.92585
5.00722
5.0736
5.11809
5.13256
5.10449
5.02091
4.87381
4.66471
4.4062
4.11945
3.82864
3.55427
3.30119
3.07084
2.8645
2.68135
2.51961
2.37729
2.25264
2.14419
2.05029
1.96932
1.89932
1.83805
1.78326
1.73305
1.68634
1.64317
1.60474
1.57325
1.55141
1.54309
1.55402
1.58364
1.61872
1.64112
1.63417
1.58945
1.51102
1.41504
1.32508
1.26512
1.24698
1.28167
1.40109
1.60849
1.84562
2.04741
2.15896
2.14999
2.02407
1.81865
1.59414
1.41432
1.32083
1.29204
1.2981
1.3236
1.36096
1.40401
1.44696
1.4845
1.51267
1.52896
1.53248
1.52385
1.50497
1.4786
1.4478
1.41544
1.38376
1.35425
1.32799
1.30603
1.28969
1.28074
1.28125
1.29313
1.3176
1.35456
1.40244
1.4584
1.51797
1.57515
1.62371
1.65842
1.67587
1.67502
1.65737
1.62666
1.58818
1.54778
1.51083
1.48086
1.45943
1.44675
1.44207
1.44367
1.44919
1.45596
1.4616
1.46446
1.46407
1.46126
1.45798
1.45683
1.46038
1.47084
1.48954
1.51423
1.54045
1.56342
1.57982
1.58916
1.594
1.59898
1.60916
1.62827
1.65627
1.6913
1.73158
1.77443
1.8171
1.85803
1.89758
1.93815
1.98376
2.03897
2.10812
2.19852
2.30764
2.41879
2.51065
2.56525
2.57475
2.54383
2.48648
2.41906
2.35353
2.29333
2.2364
2.18113
2.12663
2.07294
2.02059
1.96951
1.91749
1.85869
1.78373
1.68089
1.51411
1.15394
0.627668
0
-0.665386
-0.544775
0.61173
2.78976
5.51532
7.97905
9.37789
9.29466
7.88695
5.77259
3.69792
2.19758
1.43669
1.27527
1.4162
1.46182
1.5015
1.53965
1.5815
1.63391
1.70391
1.79666
1.91364
2.04978
2.19845
2.35085
2.4976
2.63066
2.7448
2.83835
2.91318
2.97381
3.02625
3.07664
3.13005
3.18981
3.25772
3.33446
3.42
3.51425
3.61771
3.7317
3.8583
3.99982
4.15805
4.33471
4.53394
4.7518
4.96484
5.14556
5.27146
5.33302
5.33723
5.30494
5.26313
5.23553
5.23495
5.25366
5.28276
5.31592
5.34563
5.36274
5.35795
5.32242
5.24854
5.13096
4.96751
4.76002
4.51456
4.24117
3.95285
3.66342
3.38443
3.12544
2.89378
2.69369
2.52521
2.38612
2.27314
2.18309
2.11349
2.06253
2.02978
2.0156
2.01519
2.02223
2.03015
2.03386
2.03112
2.0228
2.01207
2.00284
1.99804
1.99801
2.00198
2.00861
2.01595
2.02191
2.02484
2.02402
2.01982
2.01373
2.00807
2.0055
2.00847
2.01876
2.03744
2.06458
2.09972
2.1423
2.19194
2.24828
2.31156
2.38079
2.45072
2.51152
2.55103
2.55769
2.52416
2.45016
2.34368
2.21994
2.09831
1.99744
1.92725
1.88793
1.87981
1.89938
1.94002
1.99344
2.05099
2.10456
2.14619
2.17077
2.17603
2.16317
2.1371
2.10608
2.08037
2.0698
2.08147
2.12331
2.18675
2.25548
2.31142
2.34124
2.34087
2.31619
2.27999
2.24652
2.22577
2.21718
2.21741
2.21803
2.21037
2.18971
2.15828
2.12524
2.10391
2.10681
2.14155
2.21076
2.29944
2.38554
2.44779
2.47274
2.45841
2.4139
2.35569
2.30236
2.26828
2.25794
2.27021
2.30243
2.35187
2.41558
2.48959
2.56827
2.64372
2.70792
2.75468
2.78112
2.7888
2.78385
2.77582
2.77521
2.7904
2.82754
2.88442
2.95
3.00942
3.04861
3.05829
3.03611
2.98671
2.92009
2.84906
2.78563
2.73721
2.70673
2.69343
2.69493
2.70751
2.72561
2.7422
2.75009
2.74291
2.71561
2.6412
2.37427
1.76585
1.00788
0.307741
-0.121559
0
1.18732
3.34587
6.13267
8.89071
10.8877
11.6254
11.0406
9.49113
7.5563
5.77803
4.47623
3.70036
3.30576
3.12842
3.07691
3.05085
3.04401
3.06165
3.10924
3.18151
3.26087
3.32747
3.36519
3.36658
3.33511
3.28421
3.23372
3.20764
3.29701
3.63232
4.0976
4.52338
4.74318
4.66013
4.30288
3.82901
3.46029
3.37524
3.54109
3.76808
4.00501
4.23818
4.45779
4.65517
4.82391
4.96191
5.07018
5.15263
5.21569
5.26781
5.31869
5.37873
5.46869
5.6288
5.85668
6.09361
6.26421
6.30986
6.2155
6.01533
5.77337
5.54878
5.36634
5.2018
5.03719
4.86638
4.68567
4.49336
4.29029
4.0794
3.86512
3.65253
3.44674
3.25254
3.0741
2.91473
2.77688
2.66365
2.57813
2.51644
2.46933
2.42668
2.38045
2.3271
2.26851
2.21088
2.16202
2.12828
2.10992
2.1036
2.10651
2.11475
2.12434
2.13208
2.13611
2.13606
2.13302
2.12914
2.12702
2.12914
2.13754
2.15371
2.17638
2.20082
2.22161
2.23486
2.23996
2.24008
2.24082
2.24768
2.26518
2.28981
2.31258
2.32353
2.31723
2.2964
2.27135
2.25544
2.26001
2.28764
2.32649
2.35802
2.36676
2.3482
2.31055
2.26974
2.24096
2.23158
2.23428
2.24211
2.25014
2.25427
2.25204
2.24291
2.22788
2.20904
2.18918
2.17132
2.15891
2.15588
2.16637
2.19412
2.24972
2.34427
2.46129
2.57321
2.6509
2.67482
2.64234
2.56772
2.47496
2.38799
2.32308
2.27787
2.24719
2.22945
2.22366
2.22882
2.24391
2.26779
2.29899
2.33574
2.37645
2.41978
2.46492
2.51157
2.5598
2.60964
2.66053
2.71002
2.75248
2.78016
2.78482
2.76016
2.70403
2.61977
2.51617
2.40608
2.30433
2.22324
2.17277
2.1608
2.19177
2.26659
2.39508
2.61033
2.95063
3.38275
3.80717
4.14238
4.31636
4.27449
4.00409
3.55936
3.06371
2.67429
2.49986
2.42457
2.37067
2.31984
2.26595
2.20746
2.14709
2.0898
2.04156
2.00293
1.95973
1.88703
1.75661
1.5256
1.17292
0.726673
0.239999
0
0.849526
2.76522
5.4742
8.32809
10.5146
11.3978
10.8086
9.10435
6.96317
5.04508
3.72589
3.03782
2.79745
2.8094
2.8421
2.87996
2.92299
2.97249
3.02978
3.09621
3.17116
3.24712
3.31143
3.35076
3.35567
3.32459
3.26522
3.19282
3.12604
3.082
3.06746
3.07934
3.11456
3.17158
3.24801
3.34043
3.44499
3.55774
3.67499
3.79364
3.91142
4.02691
4.13948
4.24902
4.35566
4.45948
4.56029
4.65761
4.75067
4.8386
4.92082
4.99716
5.06792
5.13372
5.19507
5.25148
5.30065
5.33764
5.35549
5.34582
5.30076
5.2151
5.08783
4.92272
4.72757
4.51237
4.28736
4.06064
3.83647
3.61702
3.40341
3.19625
2.9964
2.80539
2.62565
2.46025
2.31243
2.18469
2.07828
1.99266
1.92545
1.87347
1.83216
1.79543
1.75818
1.71734
1.6726
1.62644
1.58356
1.54962
1.52967
1.52698
1.54229
1.57369
1.61705
1.66668
1.71541
1.7544
1.77564
1.77348
1.74607
1.69623
1.63126
1.56148
1.49787
1.44955
1.4183
1.40292
1.40318
1.41742
1.44084
1.46736
1.49194
1.51167
1.52631
1.53788
1.54968
1.56488
1.58529
1.61035
1.63807
1.66623
1.69247
1.71486
1.73223
1.7443
1.75157
1.75504
1.7559
1.75532
1.75446
1.75448
1.75658
1.762
1.77176
1.7862
1.80499
1.82376
1.83293
1.82141
1.78115
1.7117
1.62266
1.53204
1.46082
1.42557
1.42945
1.46716
1.52461
1.58402
1.62998
1.65413
1.65679
1.64553
1.63137
1.62436
1.62771
1.64335
1.6648
1.67953
1.67468
1.64228
1.58294
1.50669
1.43036
1.37266
1.34875
1.36854
1.44414
1.56996
1.7094
1.81991
1.8662
1.8288
1.7118
1.54605
1.38305
1.27894
1.27542
1.4393
1.84413
2.35059
2.79428
3.07616
3.1574
3.03938
2.75232
2.35915
1.96266
1.69381
1.59517
1.5872
1.6115
1.64676
1.68171
1.70609
1.71146
1.6916
1.64227
1.56092
1.39171
0.974488
0.387772
-0.223017
-0.705469
-0.920331
0
1.81643
4.27582
6.89255
9.07494
10.3074
10.3285
9.22745
7.40267
5.39655
3.68446
2.52807
1.95441
1.83992
1.95033
2.03687
2.11379
2.17988
2.23419
2.27683
2.30861
2.33069
2.3453
2.35538
2.36467
2.3779
2.40037
2.43726
2.49246
2.56756
2.66012
2.76581
2.87924
2.99446
3.10627
3.21137
3.30881
3.39998
3.48786
3.57598
3.66723
3.76293
3.86243
3.96332
4.06122
4.15123
4.22968
4.29557
4.35137
4.40312
4.45959
4.53841
4.68982
4.96626
5.30309
5.59715
5.75263
5.7192
5.51194
5.20671
4.90931
4.70469
4.59226
4.49561
4.38503
4.24484
4.06252
3.83335
3.56193
3.26183
2.95336
2.6595
2.40124
2.22598
2.15815
2.17087
2.21888
2.25798
2.26034
2.21922
2.14346
2.04773
1.94535
1.84568
1.75266
1.66957
1.6001
1.54705
1.51184
1.49367
1.49046
1.49887
1.51502
1.53519
1.55657
1.57764
1.59792
1.61777
1.63798
1.65933
1.68212
1.70584
1.72877
1.74782
1.75939
1.76038
1.74929
1.727
1.69704
1.66494
1.63714
1.6196
1.61582
1.62716
1.65394
1.6953
1.7499
1.81612
1.89246
1.97865
2.07528
2.17958
2.2789
2.3559
2.39404
2.38428
2.33
2.24726
2.15973
2.09063
2.05518
2.04681
2.05594
2.07833
2.10931
2.14437
2.17995
2.21346
2.24313
2.26763
2.28578
2.29622
2.29718
2.28698
2.26431
2.22877
2.18084
2.12192
2.05867
2.00161
1.96166
1.94733
1.96247
2.00538
2.06946
2.14524
2.22278
2.29437
2.35672
2.40751
2.44623
2.4741
2.4938
2.50909
2.52418
2.54301
2.56836
2.60121
2.64077
2.68386
2.72619
2.76356
2.79305
2.81371
2.82673
2.83491
2.84182
2.85092
2.86453
2.88387
2.90945
2.94112
2.97808
3.01896
3.06172
3.10357
3.14047
3.16746
3.17996
3.17449
3.14982
3.10771
3.05302
2.99309
2.93638
2.89076
2.86096
2.84807
2.85276
2.87384
2.90764
2.94719
2.98471
3.01234
2.9949
2.62637
1.89193
0.960696
0.0575735
0
1.2062
3.64342
6.73778
9.58446
11.3489
11.6217
10.538
8.63202
6.55098
4.80182
3.63265
3.05076
2.91702
2.95162
2.96213
2.9651
2.96144
2.95279
2.94197
2.93244
2.92762
2.93018
2.94172
2.96295
2.99381
3.03378
3.08205
3.13789
3.20083
3.27034
3.34562
3.42535
3.50771
3.5895
3.66651
3.735
3.7928
3.84032
3.88101
3.92087
3.96751
4.02874
4.11083
4.21509
4.34181
4.49081
4.65995
4.84606
5.04465
5.2427
5.42287
5.56904
5.66981
5.72079
5.72449
5.68804
5.61981
5.52659
5.41487
5.2896
5.15204
5.00276
4.84274
4.67358
4.49741
4.31703
4.13514
3.95437
3.777
3.60458
3.43782
3.27558
3.11531
2.95407
2.78978
2.62249
2.45511
2.29409
2.14793
2.02503
1.93159
1.87001
1.83851
1.83179
1.84246
1.86264
1.88518
1.90526
1.91989
1.92725
1.92682
1.9193
1.90641
1.89084
1.87583
1.86471
1.86037
1.86535
1.88011
1.90045
1.91931
1.92955
1.92642
1.90928
1.88167
1.84995
1.8211
1.80058
1.78994
1.78824
1.79473
1.80797
1.82616
1.84758
1.86996
1.89122
1.91012
1.92697
1.94401
1.96513
1.99477
2.03857
2.10111
2.17541
2.24355
2.285
2.28481
2.24023
2.16292
2.07544
2.00329
1.96532
1.96143
1.97818
2.00628
2.03711
2.06302
2.07872
2.08188
2.07282
2.05365
2.02747
1.9981
1.96898
1.94352
1.92509
1.91661
1.91989
1.93633
1.96448
1.99855
2.03086
2.05376
2.06158
2.05194
2.02623
1.98906
1.94705
1.90744
1.87622
1.85717
1.8526
1.86404
1.89293
1.94095
2.00871
2.08993
2.16817
2.22403
2.24034
2.20741
2.12699
2.01295
1.88837
1.77953
1.70899
1.68074
1.71877
1.81857
1.93821
2.02999
2.05822
2.01362
1.91935
1.82488
1.7883
1.85291
2.0089
2.23429
2.49059
2.72754
2.90134
2.98689
2.98299
2.90934
2.79714
2.67686
2.56784
2.471
2.38029
2.29155
2.20247
2.11252
2.02274
1.93477
1.84964
1.76548
1.67737
1.57831
1.4611
1.32018
1.15058
0.935186
0.665724
0.363647
0.0510208
-0.253004
0
1.27695
3.52653
6.33095
8.957
10.6663
11.0377
10.1231
8.37508
6.41624
4.78266
3.75592
3.32326
3.25069
3.11983
2.99982
2.88899
2.79122
2.71
2.64742
2.60431
2.5795
2.57062
2.57523
2.59162
2.61934
2.65915
2.71241
2.78025
2.86259
2.95754
3.06175
3.17084
3.28031
3.38645
3.48698
3.5812
3.66965
3.75356
3.83425
3.9129
3.99031
4.06737
4.14569
4.22795
4.3181
4.42101
4.54161
4.68358
4.8527
5.05489
5.27249
5.48011
5.65187
5.76865
5.82216
5.81471
5.75553
5.65593
5.52559
5.37573
5.21177
5.03559
4.84786
4.64944
4.44196
4.22742
4.00845
3.78839
3.571
3.35996
3.1584
2.96857
2.79176
2.62845
2.47883
2.34337
2.22322
2.12037
2.03767
1.98071
1.95747
1.97186
2.01405
2.06233
2.09232
2.08391
2.02729
1.92634
1.79825
1.66949
1.56864
1.51498
1.50696
1.5327
1.58608
1.65753
1.73575
1.80987
1.87159
1.91547
1.93936
1.94385
1.93147
1.90583
1.87125
1.83178
1.79097
1.75238
1.71956
1.69597
1.68444
1.68679
1.70341
1.73301
1.77312
1.81949
1.86695
1.91087
1.94823
1.97818
2.00203
2.02258
2.04292
2.06525
2.09011
2.11568
2.13807
2.15266
2.15559
2.14504
2.12198
2.09007
2.0549
2.02269
1.99883
1.9863
1.9856
1.99577
2.0151
2.04122
2.07125
2.10196
2.12986
2.15139
2.16328
2.16288
2.14861
2.12054
2.08081
2.0333
1.98516
1.94672
1.92832
1.93779
1.97823
2.0469
2.13682
2.23552
2.33008
2.41033
2.47087
2.51098
2.53302
2.54006
2.53413
2.5162
2.48641
2.44588
2.39796
2.3484
2.30447
2.27342
2.2591
2.26126
2.27984
2.31335
2.35941
2.41356
2.47061
2.52553
2.57405
2.61316
2.64087
2.65764
2.66598
2.67039
2.67692
2.69246
2.72356
2.77503
2.84867
2.94526
3.05818
3.17573
3.28422
3.36991
3.42181
3.4328
3.40023
3.326
3.21644
3.08188
2.93567
2.79263
2.66661
2.56536
2.49537
2.46799
2.47597
2.49557
2.49864
2.46032
2.36514
2.20949
1.99996
1.74909
1.45567
1.13721
0.807023
0.477108
0.554014
1.59786
3.68407
40
263
489
715
935
1158
1387
1602
1822
2042
2260
2470
2684
2898
3105
3314
3532
3685
0
0
0
0
0
0
0
0
0
0
0
0
0
0
0
0
0
0
0
0
0
0
0
0
0
0
0
0
0
0
0
0
0
0
0
0
0
0
0
0
0
0
0
0
0
0
0
0
0
0
0
0
0
0
0
0
0
0
0
0
0
0
0
0
0
0
0
0
0
0
0
0
0
0
0
0
0
0
0
0
0
0
0
0
0
0
0
0
0
0
0
0
0
0
0
0
0
0
0
0
0
0
0
0
0
0
0
0
0
0
0
0
0
0
0
0
0
0
0
0
0
0
0
0
0
0
0
0
0
0
0
0
0
0
0
0
0
0
0
0
0
0
0
0
0
0
0
0
0
0
0
0
0
0
0
0
0
0
0
0
0
0
0
0
0
0
0
0
0
0
0
0
0
0
0
0
0
0
0
0
0
0
0
0
0
0
0
0
0
0
0
0
0
0
0
0
0
0
0
0
0
0
0
0
0
0
0
0
0
0
0
0
0
0
0
0
0
0
0
0
0
0
0
0
0
0
0
0
0
0
0
0
0
0
0
0
0
0
0
0
0
0
0
0
0
0
0
0
0
0
0
0
0
0
0
0
0
0
0
0
0
0
0
0
0
0
0
0
0
0
0
0
0
0
0
0
0
0
0
0
0
0
0
0
0
0
0
0
0
0
0
0
0
0
0
0
0
0
0
0
0
0
0
0
0
0
0
0
0
0
0
0
0
0
0
0
0
0
0
0
0
0
0
0
0
0
0
0
0
0
0
0
0
0
0
0
0
0
0
0
0
0
0
0
0
0
0
0
0
0
0
0
0
0
0
0
0
0
0
0
0
0
0
0
0
0
0
0
0
0
0
0
0
0
0
0
0
0
0
0
0
0
0
0
0
0
0
0
0
0
0
0
0
0
0
0
0
0
0
0
0
0
0
0
0
0
0
0
0
0
0
0
0
0
0
0
0
0
0
0
0
0
0
0
0
0
0
0
0
0
0
0
0
0
0
0
0
0
0
0
0
0
0
0
0
0
0
0
0
0
0
0
0
0
0
0
0
0
0
0
0
0
0
0
0
0
0
0
0
0
0
0
0
0
0
0
0
0
0
0
0
0
0
0
0
0
0
0
0
0
0
0
0
0
0
0
0
0
0
0
0
0
0
0
0
0
0
0
0
0
0
0
0
0
0
0
0
0
0
0
0
0
0
0
0
0
0
0
0
0
0
0
0
0
0
0
0
0
0
0
0
0
0
0
0
0
0
0
0
0
0
0
0
0
0
0
0
0
0
0
0
0
0
0
0
0
0
0
0
0
0
0
0
0
0
0
0
0
0
0
0
0
0
0
0
0
0
0
0
0
0
0
0
0
0
0
0
0
0
0
0
0
0
0
0
0
0
0
0
0
0
0
0
0
0
0
0
0
0
0
0
0
0
0
0
0
0
0
0
0
0
0
0
0
0
0
0
0
0
0
0
0
0
0
0
0
0
0
0
0
0
0
0
0
0
0
0
0
0
0
0
0
0
0
0
0
0
0
0
0
0
0
0
0
0
0
0
0
0
0
0
0
0
0
0
0
0
0
0
0
0
0
0
0
0
0
0
0
0
0
0
0
0
0
0
0
0
0
0
0
0
0
0
0
0
0
0
0
0
0
0
0
0
0
0
0
0
0
0
0
0
0
0
0
0
0
0
0
0
0
0
0
0
0
0
0
0
0
0
0
0
0
0
0
0
0
0
0
0
0
0
0
0
0
0
0
0
0
0
0
0
0
0
0
0
0
0
0
0
0
0
0
0
0
0
0
0
0
0
0
0
0
0
0
0
0
0
0
0
0
0
0
0
0
0
0
0
0
0
0
0
0
0
0
0
0
0
0
0
0
0
0
0
0
0
0
0
0
0
0
0
0
0
0
0
0
0
0
0
0
0
0
0
0
0
0
0
0
0
0
0
0
0
0
0
0
0
0
0
0
0
0
0
0
0
0
0
0
0
0
0
0
0
0
0
0
0
0
0
0
0
0
0
0
0
0
0
0
0
0
0
0
0
0
0
0
0
0
0
0
0
0
0
0
0
0
0
0
0
0
0
0
0
0
0
0
0
0
0
0
0
0
0
0
0
0
0
0
0
0
0
0
0
0
0
0
0
0
0
0
0
0
0
0
0
0
0
0
0
0
0
0
0
0
0
0
0
0
0
0
0
0
0
0
0
0
0
0
0
0
0
0
0
0
0
0
0
0
0
0
0
0
0
0
0
0
0
0
0
0
0
0
0
0
0
0
0
0
0
0
0
0
0
0
0
0
0
0
0
0
0
0
0
0
0
0
0
0
0
0
0
0
0
0
0
0
0
0
0
0
0
0
0
0
0
0
0
0
0
0
0
0
0
0
0
0
0
0
0
0
0
0
0
0
0
0
0
0
0
0
0
0
0
0
0
0
0
0
0
0
0
0
0
0
0
0
0
0
0
0
0
0
0
0
0
0
0
0
0
0
0
0
0
0
0
0
0
0
0
0
0
0
0
0
0
0
0
0
0
0
0
0
0
0
0
0
0
0
0
0
0
0
0
0
0
0
0
0
0
0
0
0
0
0
0
0
0
0
0
0
0
0
0
0
0
0
0
0
0
0
0
0
0
0
0
0
0
0
0
0
0
0
0
0
0
0
0
0
0
0
0
0
0
0
0
0
0
0
0
0
0
0
0
0
0
0
0
0
0
0
0
0
0
0
0
0
0
0
0
0
0
0
0
0
0
0
0
0
0
0
0
0
0
0
0
0
0
0
0
0
0
0
0
0
0
0
0
0
0
0
0
0
0
0
0
0
0
0
0
0
0
0
0
0
0
0
0
0
0
0
0
0
0
0
0
0
0
0
0
0
0
0
0
0
0
0
0
0
0
0
0
0
0
0
0
0
0
0
0
0
0
0
0
0
0
0
0
0
0
0
0
0
0
0
0
0
0
0
0
0
0
0
0
0
0
0
0
0
0
0
0
0
0
0
0
0
0
0
0
0
0
0
0
0
0
0
0
0
0
0
0
0
0
0
0
0
0
0
0
0
0
0
0
0
0
0
0
0
0
0
0
0
0
0
0
0
0
0
0
0
0
0
0
0
0
0
0
0
0
0
0
0
0
0
0
0
0
0
0
0
0
0
0
0
0
0
0
0
0
0
0
0
0
0
0
0
0
0
0
0
0
0
0
0
0
0
0
0
0
0
0
0
0
0
0
0
0
0
0
0
0
0
0
0
0
0
0
0
0
0
0
0
0
0
0
0
0
0
0
0
0
0
0
0
0
0
0
0
0
0
0
0
0
0
0
0
0
0
0
0
0
0
0
0
0
0
0
0
0
0
0
0
0
0
0
0
0
0
0
0
0
0
0
0
0
0
0
0
0
0
0
0
0
0
0
0
0
0
0
0
0
0
0
0
0
0
0
0
0
0
0
0
0
0
0
0
0
0
0
0
0
0
0
0
0
0
0
0
0
0
0
0
0
0
0
0
0
0
0
0
0
0
0
0
0
0
0
0
0
0
0
0
0
0
0
0
0
0
0
0
0
0
0
0
0
0
0
0
0
0
0
0
0
0
0
0
0
0
0
0
0
0
0
0
0
0
0
0
0
0
0
0
0
0
0
0
0
0
0
0
0
0
0
0
0
0
0
0
0
0
0
0
0
0
0
0
0
0
0
0
0
0
0
0
0
0
0
0
0
0
0
0
0
0
0
0
0
0
0
0
0
0
0
0
0
0
0
0
0
0
0
0
0
0
0
0
0
0
0
0
0
0
0
0
0
0
0
0
0
0
0
0
0
0
0
0
0
0
0
0
0
0
0
0
0
0
0
0
0
0
0
0
0
0
0
0
0
0
0
0
0
0
0
0
0
0
0
0
0
0
0
0
0
0
0
0
0
0
0
0
0
0
0
0
0
0
0
0
0
0
0
0
0
0
0
0
0
0
0
0
0
0
0
0
0
0
0
0
0
0
0
0
0
0
0
0
0
0
0
0
0
0
0
0
0
0
0
0
0
0
0
0
0
0
0
0
0
0
0
0
0
0
0
0
0
0
0
0
0
0
0
0
0
0
0
0
0
0
0
0
0
0
0
0
0
0
0
0
0
0
0
0
0
0
0
0
0
0
0
0
0
0
0
0
0
0
0
0
0
0
0
0
0
0
0
0
0
0
0
0
0
0
0
0
0
0
0
0
0
0
0
0
0
0
0
0
0
0
0
0
0
0
0
0
0
0
0
0
0
0
0
0
0
0
0
0
0
0
0
0
0
0
0
0
0
0
0
0
0
0
0
0
0
0
0
0
0
0
0
0
0
0
0
0
0
0
0
0
0
0
0
0
0
0
0
0
0
0
0
0
0
0
0
0
0
0
0
0
0
0
0
0
0
0
0
0
0
0
0
0
0
0
0
0
0
0
0
0
0
0
0
0
0
0
0
0
0
0
0
0
0
0
0
0
0
0
0
0
0
0
0
0
0
0
0
0
0
0
0
0
0
0
0
0
0
0
0
0
0
0
0
0
0
0
0
0
0
0
0
0
0
0
0
0
0
0
0
0
0
0
0
0
0
0
0
0
0
0
0
0
0
0
0
0
0
0
0
0
0
0
0
0
0
0
0
0
0
0
0
0
0
0
0
0
0
0
0
0
0
0
0
0
0
0
0
0
0
0
0
0
0
0
0
0
0
0
0
0
0
0
0
0
0
0
0
0
0
0
0
0
0
0
0
0
0
0
0
0
0
0
0
0
0
0
0
0
0
0
0
0
0
0
0
0
0
0
0
0
0
0
0
0
0
0
0
0
0
0
0
0
0
0
0
0
0
0
0
0
0
0
0
0
0
0
0
0
0
0
0
0
0
0
0
0
0
0
0
0
0
0
0
0
0
0
0
0
0
0
0
0
0
0
0
0
0
0
0
0
0
0
0
0
0
0
0
0
0
0
0
0
0
0
0
0
0
0
0
0
0
0
0
0
0
0
0
0
0
0
0
0
0
0
0
0
0
0
0
0
0
0
0
0
0
0
0
0
0
0
0
0
0
0
0
0
0
0
0
0
0
0
0
0
0
0
0
0
0
0
0
0
0
0
0
0
0
0
0
0
0
0
0
0
0
0
0
0
0
0
0
0
0
0
0
0
0
0
0
0
0
0
0
0
0
0
0
0
0
0
0
0
0
0
0
0
0
0
0
0
0
0
0
0
0
0
0
0
0
0
0
0
0
0
0
0
0
0
0
0
0
0
0
0
0
0
0
0
0
0
0
0
0
0
0
0
0
0
0
0
0
0
0
0
0
0
0
0
0
0
0
0
0
0
0
0
0
0
0
0
0
0
0
0
0
0
0
0
0
0
0
0
0
0
0
0
0
0
0
0
0
0
0
0
0
0
0
0
0
0
0
0
0
0
0
0
0
0
0
0
0
0
0
0
0
0
0
0
0
0
0
0
0
0
0
0
0
0
0
0
0
0
0
0
0
0
0
0
0
0
0
0
0
0
0
0
0
0
0
0
0
0
0
0
0
0
0
0
0
0
0
0
0
0
0
0
0
0
0
0
0
0
0
0
0
0
0
0
0
0
0
0
0
0
0
0
0
0
0
0
0
0
0
0
0
0
0
0
0
0
0
0
0
0
0
0
0
0
0
0
0
0
0
0
0
0
0
0
0
0
0
0
0
0
0
0
0
0
0
0
0
0
0
0
0
0
0
0
0
0
0
0
0
0
0
0
0
0
0
0
0
0
0
0
0
0
0
0
0
0
0
0
0
0
0
0
0
0
0
0
0
0
0
0
0
0
0
0
0
0
0
0
0
0
0
0
0
0
0
0
0
0
0
0
0
0
0
0
0
0
0
0
0
0
0
0
0
0
0
0
0
0
0
0
0
0
0
0
0
0
0
0
0
0
0
0
0
0
0
0
0
0
0
0
0
0
0
0
0
0
0
0
0
0
0
0
0
0
0
0
0
0
0
0
0
0
0
0
0
0
0
0
0
0
0
0
0
0
0
0
0
0
0
0
0
0
0
0
0
0
0
0
0
0
0
0
0
0
0
0
0
0
0
0
0
0
0
0
0
0
0
0
0
0
0
0
0
0
0
0
0
0
0
0
0
0
0
0
0
0
0
0
0
0
0
0
0
0
0
0
0
0
0
0
0
0
0
0
0
0
0
0
0
0
0
0
0
0
0
0
0
0
0
0
0
0
0
0
0
0
0
0
0
0
0
0
0
0
0
0
0
0
0
0
0
0
0
0
0
0
0
0
0
0
0
0
0
0
0
0
0
0
0
0
0
0
0
0
0
0
0
0
0
0
0
0
0
0
0
0
0
0
0
0
0
0
0
0
0
0
0
0
0
0
0
0
0
0
0
0
0
0
0
0
0
0
0
0
0
0
0
0
0
0
0
0
0
0
0
0
0
0
0
0
0
0
0
0
0
0
0
0
0
0
0
0
0
0
0
0
0
0
0
0
0
0
0
0
0
0
0
0
0
0
0
0
0
0
0
0
0
0
0
0
0
0
0
0
0
0
0
0
0
0
0
0
0
0
0
0
0
0
0
0
0
0
0
0
0
0
0
0
0
0
0
0
0
0
0
0
0
0
0
0
0
0
0
0
0
0
0
0
0
0
0
0
0
0
0
0
0
0
0
0
0
0
0
0
0
0
0
0
0
0
0
0
0
0
0
0
0
0
0
0
0
0
0
0
0
0
0
0
0
0
0
0
0
0
0
0
0
0
0
0
0
0
0
0
0
0
0
0
0
0
0
0
0
0
0
0
0
0
0
0
0
0
0
0
0
0
0
0
0
0
0
0
0
0
0
0
0
0
0
0
0
0
0
0
0
0
0
0
0
0
0
0
0
0
0
0
0
0
0
0
0
0
0
0
0
0
0
0
0
0
0
0
0
0
0
0
0
0
0
0
0
0
0
0
0
0
0
0
0
0
0
0
0
0
0
0
0
0
0
0
0
0
0
0
0
0
0
0
0
0
0
0
0
0
0
0
0
0
0
0
0
0
0
0
0
0
0
0
0
0
0
0
0
0
0
0
0
0
0
0
0
0
0
0
0
0
0
0
0
0
0
0
0
0
0
0
0
0
0
0
0
0
0
0
0
0
0
0
0
0
0
0
0
0
0
0
0
0
0
0
0
0
0
0
0
0
0
0
0
0
0
0
0
0
0
0
0
0
0
0
0
0
0
0
0
0
0
0
0
0
0
0
0
0
0
0
0
0
0
0
0
0
0
0
0
0
0
0
0
0
0
0
0
0
0
0
0
0
0
0
0
0
0
0
0
0
0
0
0
0
0
0
0
0
0
0
0
0
0
0
0
0
0
0
0
0
0
0
0
0
0
0
0
0
0
0
0
0
0
0
0
0
0
0
0
0
0
0
0
0
0
0
0
0
0
0
0
0
0
0
0
0
0
0
0
0
0
0
0
0
0
0
0
0
0
0
0
0
0
0
0
0
0
0
0
0
0
0
0
0
0
0
0
0
0
0
0
0
0
0
0
0
0
0
0
0
0
0
0
0
0
0
0
0
0
0
0
0
0
0
0
0
0
0
0
0
0
0
0
0
0
0
0
0
0
0
0
0
0
0
0
0
0
0
0
0
0
0
0
0
0
0
0
0
0
0
0
0
0
0
0
0
0
0
0
0
0
0
0
0
0
0
0
0
0
0
0
0
0
0
0
0
0
0
0
0
0
0
0
0
0
0
0
0
0
0
0
0
0
0
0
0
0
0
0
0
0
0
0
0
0
0
0
0
0
0
0
0
0
0
0
0
0
0
0
0
0
0
0
0
0
0
0
0
0
0
0
0
0
0
0
0
0
0
0
0
0
0
0
0
0
0
0
0
0
0
0
0
0
0
0
0
0
0
0
0
0
0
0
0
0
0
0
0
0
0
0
0
0
0
0
0
0
0
0
0
0
0
0
0
0
0
0
0
0
0
0
0
0
0
0
0
0
0
0
0
0
0
0
0
0
0
0
0
0
0
0
0
0
0
0
0
0
0
0
0
0
0
0
0
0
0
0
0
0
0
0
0
0
0
0
0
0
0
0
0
0
0
0
0
0
0
0
0
0
0
0
0
0
0
0
0
0
0
0
0
0
0
0
0
0
0
0
0
0
0
0
0
0
0
0
0
0
0
0
0
0
0
0
0
0
0
0
0
0
0
0
0
0
0
0
0
0
0
0
0
0
0
0
0
0
0
0
0
0
0
0
0
0
0
0
0
0
0
0
0
0
0
0
0
0
0
0
0
0
0
0
0
0
0
0
0
0
0
0
0
0
0
0
0
0
0
0
0
0
0
0
0
0
0
0
0
0
0
0
0
0
0
0
0
0
0
0
0
0
0
0
0
0
0
0
0
0
0
0
0
0
0
0
0
0
0
0
0
0
0
0
0
0
0
0
0
0
0
0
0
0
0
0
0
0
0
0
0
0
0
0
0
0
0
0
0
0
