0.537896
0.561446
0.598687
0.641462
0.676043
0.689394
0.671506
0.618352
0.534293
0.432312
0.331184
0.250146
0.203042
0.187074
0.199411
0.232464
0.276918
0.325014
0.372938
0.421057
0.471738
0.529043
0.601317
0.699865
0.817463
0.929086
1.00457
1.02052
0.970034
0.865712
0.734678
0.607756
0.507898
0.434721
0.378696
0.334346
0.301254
0.279239
0.26869
0.270026
0.282943
0.306035
0.336594
0.370095
0.402071
0.429495
0.45186
0.471539
0.493321
0.523244
0.567058
0.627982
0.705635
0.803581
0.918779
1.03706
1.14156
1.21721
1.2543
1.25032
1.20975
1.14196
1.05826
0.969124
0.881987
0.799793
0.723028
0.651334
0.583997
0.519439
0.455519
0.389838
0.320068
0.243861
0.158417
0.0611221
-0.0454435
-0.153685
-0.256652
-0.351279
-0.439765
0
1.02394
2.95304
5.89882
9.50505
12.9678
15.3605
16.0371
14.8715
12.2614
8.96181
5.81985
3.47209
2.12301
1.54572
1.32081
1.20992
1.10493
1.00752
0.920019
0.842698
0.772566
0.705588
0.638383
0.56961
0.502924
0.447617
0.416001
0.419601
0.465462
0.553909
0.678508
0.828109
0.990151
1.15376
1.31372
1.46823
1.6169
1.76067
1.90122
2.04044
2.18006
2.32146
2.46571
2.61376
2.76652
2.92501
3.09038
3.26381
3.44639
3.63886
3.84328
4.0636
4.29914
4.53853
4.75897
4.9364
5.05323
5.09869
5.06702
4.95644
4.76933
4.51217
4.19412
3.82617
3.43004
3.02579
2.62497
2.23503
1.86389
1.51922
1.20759
0.933536
0.699029
0.503462
0.34393
0.21586
0.113825
0.0323454
-0.0334623
-0.0874779
-0.132459
-0.169983
-0.200621
-0.224268
-0.240445
-0.248523
-0.248015
-0.238839
-0.221536
-0.197011
-0.167164
-0.135192
-0.104789
-0.0797185
-0.0633782
-0.0584148
-0.0664255
-0.087745
-0.121312
-0.164449
-0.213416
-0.263629
-0.309414
-0.345426
-0.367721
-0.374563
-0.366742
-0.347255
-0.32043
-0.290754
-0.261797
-0.235274
-0.211458
-0.189998
-0.170145
-0.151192
-0.132869
-0.115508
-0.100154
-0.0885524
-0.0826313
-0.0842341
-0.0947384
-0.114761
-0.144009
-0.181295
-0.224702
-0.271811
-0.319927
-0.366435
-0.408764
-0.444163
-0.470126
-0.484434
-0.485326
-0.471775
-0.443788
-0.402664
-0.351065
-0.291529
-0.230478
-0.175401
-0.13273
-0.10637
-0.0968715
-0.101573
-0.115699
-0.133916
-0.151683
-0.166367
-0.176474
-0.180195
-0.175192
-0.158308
-0.125725
-0.0735339
0.00139828
0.109632
0.269518
0.479712
0.698925
0.883509
1.00074
1.03632
0.995218
0.896833
0.767771
0.635256
0.521064
0.429251
0.355297
0.294053
0.240875
0.191921
0.143906
0.0935831
0.038033
-0.0260275
-0.102716
-0.194882
-0.298475
-0.407597
-0.516699
-0.618612
0
1.53841
4.19365
7.79906
11.7813
15.2733
17.353
17.376
15.3021
11.8057
8.00555
4.91348
2.97227
2.00511
1.55151
1.2688
1.0849
0.907671
0.741761
0.592668
0.46738
0.372527
0.311843
0.288174
0.302532
0.353032
0.434392
0.53852
0.656117
0.778738
0.900613
1.02005
1.13727
1.25301
1.3686
1.4857
1.60604
1.73114
1.8621
1.99949
2.14327
2.29284
2.44714
2.60474
2.76406
2.9235
3.08167
3.23754
3.39058
3.54086
3.68906
3.83627
3.98393
4.134
4.28892
4.44757
4.5996
4.72814
4.8143
4.84146
4.79798
4.67791
4.48124
4.21473
3.89275
3.54027
3.1822
2.83541
2.50621
2.19855
1.91746
1.6658
1.44411
1.25072
1.0822
0.934072
0.801585
0.6805
0.567669
0.461355
0.36132
0.268743
0.185844
0.115044
0.0585157
0.0178454
-0.00624056
-0.0139778
-0.00651407
0.0142505
0.0458661
0.085516
0.130059
0.176385
0.220403
0.257491
0.283298
0.294434
0.289203
0.26802
0.23328
0.188653
0.138118
0.0851641
0.0322384
-0.0193741
-0.0687101
-0.114883
-0.156987
-0.194104
-0.22543
-0.250485
-0.269317
-0.282553
-0.291536
-0.298439
-0.305756
-0.315733
-0.329788
-0.347992
-0.368785
-0.388983
-0.403908
-0.408523
-0.398623
-0.371017
-0.323072
-0.258052
-0.186677
-0.122781
-0.0786329
-0.061822
-0.0736334
-0.109208
-0.159258
-0.212734
-0.259639
-0.294616
-0.318068
-0.331865
-0.337699
-0.338126
-0.33596
-0.333689
-0.333024
-0.334631
-0.338071
-0.341918
-0.344039
-0.34196
-0.333018
-0.314576
-0.284184
-0.240057
-0.180596
-0.104398
-0.0107804
0.0999253
0.229767
0.379134
0.537289
0.688465
0.816679
0.909167
0.958696
0.964145
0.929573
0.862488
0.772063
0.668889
0.561209
0.455037
0.353973
0.259244
0.17095
0.088443
0.0100169
-0.0670239
-0.146061
-0.231694
-0.333171
-0.460195
-0.60532
-0.752668
-0.883692
-0.888488
0
1.74914
4.46313
7.99343
11.7766
14.8999
16.4691
16.0552
13.894
10.7242
7.42589
4.69963
2.89878
1.99894
1.68979
1.56475
1.43668
1.31151
1.19227
1.0822
0.984639
0.902465
0.838064
0.793706
0.77097
0.770914
0.793933
0.839705
0.907263
0.995193
1.10184
1.22543
1.36365
1.51292
1.66967
1.83036
1.99035
2.1439
2.28625
2.41499
2.53107
2.63905
2.74632
2.86153
2.99255
3.14476
3.31776
3.50853
3.71401
3.93057
4.1551
4.38688
4.62948
4.89796
5.18433
5.44253
5.61349
5.66091
5.58446
5.40778
5.16095
4.87041
4.55468
4.22962
3.90498
3.58548
3.27309
2.96965
2.67725
2.39709
2.12954
1.87435
1.6312
1.40024
1.18251
0.980083
0.795727
0.632555
0.493355
0.37992
0.292851
0.230497
0.188909
0.163653
0.150604
0.146377
0.14825
0.153932
0.160264
0.162043
0.153065
0.127599
0.0824476
0.018777
-0.058278
-0.136961
-0.203473
-0.245822
-0.25724
-0.237986
-0.194987
-0.139591
-0.084295
-0.0387142
-0.00656195
0.00987396
0.0110921
-0.000174618
-0.0196679
-0.0422746
-0.0627714
-0.0768085
-0.0804634
-0.0708221
-0.0464358
-0.00768204
0.0436951
0.104241
0.167476
0.22654
0.275533
0.31058
0.330347
0.335884
0.329931
0.315975
0.297507
0.277248
0.256741
0.23673
0.217377
0.198425
0.179276
0.159215
0.137603
0.114091
0.0888101
0.0625237
0.0367199
0.0136372
-0.0037838
-0.0114957
-0.0047472
0.0204754
0.0672169
0.136763
0.228042
0.339204
0.463701
0.593403
0.719822
0.833186
0.920452
0.972157
0.980728
0.939823
0.846843
0.706524
0.533219
0.34976
0.182386
0.0534642
-0.0366795
-0.0917295
-0.11331
-0.106687
-0.0855816
-0.0668291
-0.0639751
-0.0852989
-0.133266
-0.205326
-0.295749
-0.397798
-0.505241
0
1.28396
3.5678
6.72651
10.2146
13.2502
15.1142
15.3837
14.044
11.5002
8.46785
5.71247
3.72543
2.55256
1.91083
1.50354
1.34349
1.19347
1.05963
0.946406
0.856209
0.789348
0.744501
0.719338
0.711144
0.717283
0.735447
0.763722
0.800587
0.844927
0.896177
0.954445
1.0206
1.09624
1.18336
1.28401
1.39981
1.53155
1.67895
1.84108
2.01667
2.20428
2.4025
2.60997
2.82511
3.04585
3.26963
3.49061
3.69789
3.87923
4.0237
4.12472
4.1822
4.2026
4.19694
4.17718
4.15233
4.12563
4.0948
4.0548
3.9984
3.91793
3.80655
3.65921
3.47324
3.2486
2.98782
2.69623
2.38317
2.05779
1.72903
1.40654
1.09995
0.818224
0.568309
0.356683
0.189775
0.0649937
-0.0240858
-0.085636
-0.12781
-0.157328
-0.178753
-0.194542
-0.205638
-0.212243
-0.214835
-0.213683
-0.208993
-0.200886
-0.189302
-0.174053
-0.155048
-0.132648
-0.108065
-0.0834723
-0.0630788
-0.0523533
-0.0567957
-0.0804192
-0.124151
-0.184735
-0.25596
-0.325239
-0.379205
-0.407583
-0.406324
-0.378779
-0.334471
-0.285971
-0.245094
-0.217657
-0.206549
-0.21071
-0.226039
-0.246698
-0.266417
-0.280105
-0.284365
-0.276658
-0.255207
-0.219406
-0.169259
-0.105924
-0.0320898
0.0461119
0.118614
0.174845
0.20593
0.206595
0.176608
0.121243
0.0503094
-0.024173
-0.0909794
-0.143523
-0.181375
-0.205924
-0.217356
-0.216134
-0.202634
-0.177197
-0.138389
-0.0848749
-0.0223684
0.0349072
0.0708433
0.0732014
0.0391306
-0.0220131
-0.0900824
-0.139697
-0.148227
-0.111401
-0.0435774
0.0459867
0.150919
0.261646
0.368337
0.46234
0.537138
0.588648
0.614927
0.615541
0.590918
0.542926
0.473886
0.385647
0.281014
0.163988
0.0388685
-0.0874411
-0.204527
-0.302857
-0.375825
-0.421158
-0.441216
-0.441965
-0.430947
-0.414949
-0.398301
-0.382542
0
1.15015
3.40246
6.80901
10.8917
14.6685
17.0388
17.3006
15.4569
12.1536
8.35933
4.99467
2.64382
1.41511
0.998687
0.914827
0.835878
0.762016
0.697768
0.6466
0.61064
0.590649
0.586226
0.596168
0.61886
0.652571
0.695465
0.745848
0.801937
0.861827
0.92358
0.985473
1.04632
1.10572
1.16418
1.22304
1.28419
1.34981
1.42211
1.50324
1.59534
1.70078
1.82211
1.96184
2.12209
2.30409
2.50773
2.7312
2.97119
3.22354
3.48345
3.74489
3.99884
4.23289
4.43418
4.5934
4.69906
4.73711
4.696
4.57304
4.37848
4.13353
3.86191
3.57972
3.29273
3.0025
2.7101
2.41652
2.12376
1.83497
1.55415
1.28567
1.03375
0.802067
0.593502
0.410094
0.253292
0.12336
0.0195469
-0.0582911
-0.109998
-0.139994
-0.155792
-0.164939
-0.173621
-0.185613
-0.20195
-0.221384
-0.241385
-0.259264
-0.273515
-0.283854
-0.290281
-0.293224
-0.293479
-0.292056
-0.290063
-0.288619
-0.288779
-0.291462
-0.297353
-0.306812
-0.319797
-0.335844
-0.35412
-0.373546
-0.392961
-0.411272
-0.42757
-0.441137
-0.451353
-0.457563
-0.458978
-0.454685
-0.443827
-0.425916
-0.400446
-0.367648
-0.331298
-0.29665
-0.268955
-0.251984
-0.247033
-0.252862
-0.266628
-0.285392
-0.307528
-0.332891
-0.362739
-0.398887
-0.442576
-0.493629
-0.550585
-0.609048
-0.6617
-0.701001
-0.721077
-0.719014
-0.695122
-0.652147
-0.593887
-0.523923
-0.445842
-0.36151
-0.273067
-0.189437
-0.124747
-0.0937115
-0.104804
-0.15428
-0.224692
-0.289422
-0.32165
-0.303836
-0.248339
-0.172246
-0.0818148
0.0144543
0.107121
0.187783
0.250024
0.289882
0.305838
0.298477
0.269991
0.223706
0.164169
0.0961592
0.0242428
-0.0473433
-0.115069
-0.175941
-0.227807
-0.27049
-0.30573
-0.336231
-0.364756
-0.393286
-0.422564
-0.452163
-0.481032
-0.508243
-0.533623
-0.557897
0
1.16998
3.28465
6.41169
10.1217
13.5601
15.8027
16.2501
14.8418
12.039
8.64044
5.49472
3.1839
1.82668
1.14044
0.74026
0.608485
0.484486
0.373859
0.281299
0.210198
0.159634
0.125985
0.105089
0.0936566
0.0901336
0.0948271
0.109361
0.135788
0.175761
0.22859
0.293178
0.36928
0.456754
0.555799
0.666998
0.791175
0.929078
1.08099
1.24637
1.42366
1.61031
1.80307
1.9984
2.19302
2.38432
2.57066
2.75127
2.92602
3.09492
3.25765
3.41288
3.55844
3.69146
3.80842
3.90442
3.97438
4.01473
4.02217
3.99364
3.92628
3.81763
3.66611
3.4717
3.23655
2.96679
2.67154
2.35956
2.03943
1.71923
1.40595
1.10486
0.819311
0.551039
0.300794
0.0702243
-0.134098
-0.306157
-0.440605
-0.532508
-0.579844
-0.575779
-0.531254
-0.465417
-0.39931
-0.35065
-0.330216
-0.340821
-0.378592
-0.435495
-0.502007
-0.569117
-0.631367
-0.685364
-0.729526
-0.763819
-0.788646
-0.804541
-0.812444
-0.813499
-0.808867
-0.79959
-0.786519
-0.770354
-0.751619
-0.7308
-0.708565
-0.685732
-0.663254
-0.642171
-0.623696
-0.608551
-0.596676
-0.587002
-0.577338
-0.564564
-0.5452
-0.516015
-0.472247
-0.412519
-0.346347
-0.289637
-0.257908
-0.260201
-0.294937
-0.349385
-0.403105
-0.434377
-0.427453
-0.386765
-0.323229
-0.243619
-0.160557
-0.0865407
-0.0306125
0.00403557
0.0208739
0.0290857
0.0411772
0.0697784
0.121021
0.194726
0.290142
0.408644
0.54039
0.66755
0.772817
0.843826
0.875673
0.870789
0.836563
0.78199
0.714839
0.641237
0.564588
0.486155
0.406492
0.325985
0.245006
0.16403
0.0837173
0.00523317
-0.0692952
-0.137493
-0.196807
-0.24508
-0.281148
-0.305226
-0.318959
-0.325157
-0.327397
0
1.14464
3.33066
6.40782
9.87167
12.9739
14.9187
15.1479
13.6092
10.8149
7.6038
4.7558
2.72257
1.59318
1.20481
1.23572
1.11274
0.988661
0.866094
0.749587
0.644968
0.558294
0.494335
0.455285
0.440201
0.445404
0.465685
0.495907
0.532252
0.573024
0.618544
0.670643
0.731617
0.803489
0.887296
0.983058
1.08996
1.20676
1.33231
1.46587
1.6072
1.75638
1.91345
2.07798
2.24877
2.42383
2.60061
2.77653
2.94952
3.11853
3.28374
3.44632
3.60831
3.77392
3.94739
4.12282
4.28396
4.41019
4.48433
4.49353
4.42718
4.27662
4.03994
3.72901
3.37241
3.00918
2.67326
2.36904
2.08638
1.82268
1.57825
1.35295
1.1464
0.958342
0.788965
0.63686
0.499605
0.374446
0.258934
0.15163
0.0525662
-0.036796
-0.114152
-0.177325
-0.225114
-0.257685
-0.278212
-0.291606
-0.303503
-0.319139
-0.342449
-0.375589
-0.418892
-0.471099
-0.529543
-0.590839
-0.651498
-0.707995
-0.757138
-0.7965
-0.824804
-0.841859
-0.848942
-0.848532
-0.843619
-0.837204
-0.831968
-0.830197
-0.83459
-0.846776
-0.867566
-0.896386
-0.93065
-0.965521
-0.994369
-1.00999
-1.00627
-0.981167
-0.935088
-0.871534
-0.796694
-0.718223
-0.645351
-0.585828
-0.544157
-0.520732
-0.511769
-0.510078
-0.506583
-0.492338
-0.460595
-0.409588
-0.343172
-0.264511
-0.179605
-0.0954184
-0.0186685
0.0451639
0.0921115
0.120669
0.131531
0.12748
0.113251
0.0953002
0.0813477
0.0795735
0.0974647
0.140294
0.208287
0.299877
0.411502
0.53772
0.669883
0.798755
0.915983
1.01324
1.08037
1.11268
1.10833
1.06762
0.993487
0.891942
0.771787
0.64327
0.516166
0.398141
0.290794
0.195978
0.117122
0.0567197
0.0170028
0
0.00782909
0.0391356
0.0916608
0.161397
0.243083
0.338863
0.800216
2.08557
4.4515
7.76592
11.4724
14.7061
16.5558
16.4348
14.4003
11.1787
7.80681
5.10733
3.37236
2.43557
1.97192
1.71868
1.45102
1.18623
0.933647
0.707719
0.525874
0.404037
0.351166
0.366054
0.437898
0.550262
0.686393
0.833074
0.9809
1.12497
1.26256
1.39001
1.50402
1.60238
1.68479
1.75343
1.81307
1.87056
1.93393
2.01087
2.10654
2.22467
2.3674
2.5348
2.72475
2.93326
3.15479
3.38267
3.6095
3.82562
4.02224
4.19203
4.32981
4.43291
4.50101
4.5357
4.53969
4.51597
4.46725
4.39784
4.30951
4.20245
4.07615
3.92971
3.76254
3.57428
3.36491
3.13543
2.8886
2.62909
2.36332
2.09881
1.84335
1.60395
1.38601
1.19273
1.02495
0.881388
0.759104
0.654221
0.562629
0.48064
0.405497
0.335686
0.271037
0.212956
0.164081
0.126866
0.103202
0.093642
0.0970464
0.110314
0.129026
0.14831
0.163787
0.172305
0.172268
0.163556
0.147133
0.124599
0.0980233
0.0692494
0.0398191
0.0110987
-0.0157783
-0.0400079
-0.0611889
-0.0793042
-0.0946454
-0.107589
-0.118355
-0.126818
-0.132435
-0.134323
-0.131445
-0.122853
-0.107906
-0.0864412
-0.0587774
-0.0257587
0.0112168
0.0503368
0.0889483
0.123154
0.148528
0.160517
0.15509
0.129452
0.0826974
0.0162502
-0.0659957
-0.157906
-0.251896
-0.3388
-0.41015
-0.459594
-0.4839
-0.483239
-0.460686
-0.421188
-0.37042
-0.314367
-0.257767
-0.204832
-0.15934
-0.124416
-0.102106
-0.0927953
-0.094686
-0.103595
-0.113231
-0.115983
-0.104521
-0.074532
-0.0229968
0.0517719
0.151771
0.278359
0.428503
0.593269
0.759139
0.908099
1.02374
1.09134
1.09444
1.0187
0.861451
0.640741
0.396134
0.178153
0.0305625
-0.0546166
-0.105746
-0.128767
-0.129117
-0.113592
-0.0892745
-0.0625785
-0.0382953
-0.0191151
-0.00638342
0
0.0063159
0.00938444
0.41485
1.61572
3.78785
6.86122
10.4618
13.8857
16.2368
16.7828
15.3486
12.4386
8.96861
5.80775
3.45506
1.99954
1.26443
0.978467
0.904947
0.831686
0.758354
0.685074
0.612773
0.544255
0.484367
0.438993
0.413814
0.412522
0.43546
0.479364
0.538424
0.606318
0.678397
0.752736
0.82993
0.912216
1.00243
1.10323
1.21647
1.34243
1.48045
1.62928
1.78718
1.95233
2.12319
2.29872
2.47851
2.66277
2.8521
3.04728
3.24881
3.45663
3.67015
3.88764
4.10451
4.31098
4.49402
4.6416
4.74366
4.79292
4.7851
4.71864
4.59445
4.41573
4.18788
3.92127
3.62756
3.31634
2.99519
2.66933
2.34247
2.01847
1.70151
1.3963
1.10801
0.841951
0.603414
0.396368
0.223404
0.0888814
-0.00736924
-0.071467
-0.111169
-0.134331
-0.147588
-0.155637
-0.161264
-0.165943
-0.170638
-0.176307
-0.18396
-0.19457
-0.208599
-0.22561
-0.24412
-0.261811
-0.276103
-0.284803
-0.285757
-0.279385
-0.270451
-0.265058
-0.268217
-0.281749
-0.303474
-0.328081
-0.349309
-0.362478
-0.367239
-0.365648
-0.361335
-0.358404
-0.359857
-0.366435
-0.376242
-0.385282
-0.388738
-0.382591
-0.364001
-0.332013
-0.294831
-0.263916
-0.249937
-0.258855
-0.289713
-0.335061
-0.383755
-0.424843
-0.451318
-0.464459
-0.465573
-0.454302
-0.4299
-0.39088
-0.335242
-0.261221
-0.1683
-0.0580745
0.0647845
0.19477
0.324522
0.446667
0.554971
0.645106
0.714775
0.762907
0.790816
0.800873
0.796114
0.779977
0.756079
0.727942
0.698643
0.670433
0.644237
0.619938
0.596607
0.572531
0.545386
0.512625
0.471878
0.42058
0.354595
0.273457
0.182139
0.0874033
-0.004143
-0.0870741
-0.157403
-0.216622
-0.268107
-0.315256
-0.36062
0
1.08979
3.22836
6.38749
10.0508
13.3698
15.5111
15.966
14.6939
12.1092
8.9471
6.01074
3.85754
2.59822
1.96594
1.60385
1.49137
1.38293
1.27917
1.18116
1.08915
1.00341
0.925757
0.860721
0.813845
0.792972
0.805459
0.854843
0.938496
1.04744
1.16846
1.28782
1.39587
1.49237
1.57839
1.65598
1.72914
1.80322
1.88426
1.97828
2.09065
2.22556
2.38595
2.57315
2.78667
3.02411
3.2811
3.55136
3.82718
4.09811
4.34943
4.56819
4.74462
4.87365
4.9552
4.99311
4.99305
4.96004
4.89658
4.80516
4.68835
4.54442
4.37128
4.1681
3.93582
3.67728
3.39736
3.10217
2.79814
2.49199
2.19043
1.89964
1.62494
1.37043
1.13873
0.93101
0.747149
0.586114
0.446379
0.326292
0.224445
0.140059
0.0722479
0.0194725
-0.0198225
-0.047076
-0.0634389
-0.0697014
-0.0664336
-0.0533109
-0.029222
0.0018333
0.0325748
0.0546459
0.0609416
0.0477244
0.0156036
-0.0308825
-0.0846688
-0.137875
-0.18485
-0.223087
-0.251004
-0.267871
-0.272982
-0.267829
-0.255878
-0.24079
-0.22549
-0.211609
-0.199523
-0.188966
-0.179942
-0.173665
-0.172743
-0.180575
-0.200029
-0.231916
-0.273951
-0.320706
-0.364678
-0.398166
-0.415323
-0.415854
-0.401002
-0.374392
-0.341414
-0.308025
-0.279251
-0.258889
-0.249175
-0.250764
-0.262921
-0.283777
-0.310453
-0.339354
-0.366374
-0.385805
-0.391954
-0.379675
-0.345346
-0.287766
-0.208654
-0.11254
-0.00577731
0.103831
0.206395
0.289756
0.343158
0.358561
0.330521
0.258303
0.148377
0.0154616
-0.119527
-0.234772
-0.311754
-0.338234
-0.329614
-0.31396
-0.318662
-0.357985
-0.427045
-0.504371
-0.561569
-0.575919
-0.54962
-0.500972
-0.442778
0
0.972763
2.86364
5.75116
9.23207
12.5227
14.744
15.2432
13.8528
11.0032
7.58942
4.58149
2.57669
1.59641
1.2595
1.13528
0.963506
0.794514
0.633306
0.486005
0.358269
0.255266
0.180807
0.136611
0.121992
0.134047
0.16827
0.219374
0.281798
0.350735
0.422985
0.496985
0.572612
0.651115
0.734804
0.826421
0.928261
1.04128
1.16458
1.29632
1.43129
1.56437
1.6926
1.81649
1.94008
2.06958
2.21111
2.36833
2.53989
2.72023
2.90363
3.08369
3.2537
3.40735
3.53889
3.64406
3.72007
3.76481
3.77634
3.7526
3.69144
3.59103
3.4505
3.27072
3.05593
2.81203
2.54657
2.26845
1.98695
1.7103
1.44513
1.19606
0.965652
0.754694
0.562713
0.388587
0.231069
0.0891584
-0.0377429
-0.149837
-0.247072
-0.329405
-0.39702
-0.450538
-0.4911
-0.520089
-0.539575
-0.552575
-0.56224
-0.571242
-0.581323
-0.593066
-0.606006
-0.619089
-0.631283
-0.642062
-0.652835
-0.665952
-0.682941
-0.702652
-0.720425
-0.728966
-0.720767
-0.691044
-0.6419
-0.578871
-0.50863
-0.438997
-0.377025
-0.327165
-0.292767
-0.2754
-0.275013
-0.289974
-0.317381
-0.353296
-0.392877
-0.430467
-0.460423
-0.478307
-0.481505
-0.468692
-0.443633
-0.412274
-0.380962
-0.354627
-0.335515
-0.322863
-0.313506
-0.30308
-0.287459
-0.26411
-0.231924
-0.190623
-0.140096
-0.0801317
-0.0102054
0.0709648
0.166067
0.278053
0.403086
0.524917
0.621157
0.668521
0.648722
0.554525
0.394761
0.196314
0.000184917
-0.149895
-0.235802
-0.265935
-0.239399
-0.177946
-0.109766
-0.060953
-0.0490485
-0.0802584
-0.150238
-0.247408
-0.357542
-0.468299
-0.562797
0
1.40427
3.8837
7.28366
10.969
14.0375
15.7005
15.5797
13.7936
10.8724
7.57716
4.65814
2.59805
1.46787
1.00441
0.863278
0.751029
0.638304
0.524683
0.410705
0.298864
0.195033
0.108514
0.0485206
0.0224619
0.0334932
0.0791175
0.15163
0.24056
0.336315
0.433487
0.532057
0.634208
0.743122
0.86155
0.990845
1.12989
1.27696
1.42973
1.58572
1.7428
1.89941
2.05463
2.20798
2.35922
2.50819
2.65486
2.79938
2.94225
3.08426
3.22637
3.36952
3.51381
3.6567
3.7915
3.90729
3.99279
4.0379
4.03515
3.98029
3.87234
3.71336
3.50824
3.26449
2.99358
2.70964
2.42249
2.13828
1.86166
1.59678
1.347
1.11497
0.902789
0.712057
0.543972
0.399277
0.27813
0.179632
0.10194
0.042706
-0.00138302
-0.0353563
-0.0637534
-0.0898171
-0.115004
-0.138996
-0.160229
-0.176781
-0.187322
-0.191763
-0.191495
-0.189039
-0.187269
-0.188581
-0.194258
-0.204262
-0.217453
-0.232122
-0.246644
-0.260131
-0.272619
-0.284915
-0.298581
-0.315668
-0.338222
-0.367746
-0.405156
-0.451251
-0.501495
-0.546937
-0.577749
-0.586215
-0.569181
-0.528968
-0.472423
-0.408559
-0.34576
-0.288244
-0.23633
-0.189764
-0.147063
-0.106008
-0.0643173
-0.0202888
0.0271977
0.0776084
0.128617
0.177411
0.221782
0.260819
0.294897
0.324917
0.350949
0.371917
0.385052
0.38682
0.374404
0.347034
0.306573
0.257144
0.203991
0.151968
0.103727
0.0594259
0.0176098
-0.0243798
-0.0704808
-0.129073
-0.229549
-0.41565
-0.67565
-0.976896
-1.28975
-1.02288
0
2.00834
5.03997
8.73912
12.3548
14.9912
15.9616
15.0484
12.573
9.28588
6.10154
3.74042
2.43647
1.91253
1.66522
1.44058
1.26541
1.10327
0.95688
0.826714
0.711604
0.609461
0.519391
0.442357
0.379383
0.333775
0.309914
0.311635
0.340902
0.397255
0.478115
0.579666
0.697347
0.825711
0.961744
1.10404
1.25193
1.40512
1.5635
1.7269
1.8948
2.06623
2.23978
2.41383
2.58703
2.75873
2.92951
3.10131
3.27729
3.46131
3.66168
3.89976
4.17693
4.45412
4.68137
4.81998
4.85706
4.80533
4.69052
4.53476
4.34491
4.12009
3.8647
3.58462
3.28515
2.97139
2.64934
2.32622
2.00974
1.70746
1.42597
1.17018
0.942796
0.744277
0.574095
0.429655
0.304827
0.19318
0.0892936
-0.0101733
-0.105939
-0.19625
-0.277686
-0.346374
-0.399294
-0.435002
-0.453985
-0.458346
-0.45109
-0.435301
-0.413671
-0.388223
-0.360128
-0.330362
-0.300188
-0.271841
-0.248225
-0.232294
-0.226218
-0.230685
-0.244638
-0.265571
-0.290287
-0.315818
-0.340264
-0.363208
-0.385074
-0.40678
-0.429478
-0.454175
-0.481251
-0.510087
-0.538789
-0.56363
-0.579454
-0.580367
-0.558141
-0.49026
-0.34921
-0.154948
0.0359815
0.167589
0.203568
0.138185
-0.00261497
-0.171225
-0.316761
-0.402951
-0.436824
-0.440858
-0.424885
-0.390732
-0.338325
-0.26765
-0.179166
-0.0725407
0.052235
0.189266
0.328008
0.455334
0.559132
0.630521
0.664996
0.662573
0.627263
0.566213
0.488631
0.404527
0.323274
0.251116
0.190134
0.140107
0.0997766
0.0674521
0.0408176
0.0170215
-0.00705705
-0.034433
-0.0677009
-0.108782
-0.15959
-0.220563
-0.290317
-0.366478
-0.456754
0
1.38939
3.88979
7.32475
11.1613
14.5895
16.706
16.8376
14.8974
11.5135
7.76054
4.63184
2.62163
1.66864
1.39463
1.35313
1.18724
1.0268
0.879943
0.753762
0.653501
0.581949
0.539191
0.522896
0.529055
0.552965
0.589336
0.633907
0.68459
0.740602
0.802001
0.869149
0.942573
1.02276
1.10976
1.20312
1.30194
1.40526
1.51236
1.62316
1.73832
1.85921
1.98761
2.12533
2.27393
2.43447
2.60753
2.79333
2.99193
3.20328
3.42938
3.678
3.96424
4.28835
4.60059
4.84578
4.97496
4.96
4.81101
4.57888
4.3308
4.11047
3.91184
3.70361
3.48195
3.24683
2.99777
2.73591
2.46457
2.18887
1.91495
1.64912
1.39706
1.16325
0.950665
0.760742
0.593638
0.448873
0.325812
0.224128
0.143659
0.0833782
0.0424401
0.0198611
0.0141763
0.0232088
0.0440484
0.0732598
0.107275
0.142856
0.177641
0.2103
0.240504
0.26875
0.295988
0.323129
0.35055
0.377767
0.403155
0.424269
0.438482
0.443753
0.439278
0.425814
0.405578
0.38178
0.357927
0.336987
0.320477
0.309035
0.302445
0.299305
0.297446
0.294518
0.288489
0.27806
0.26288
0.243561
0.221523
0.19872
0.177326
0.159348
0.146593
0.140457
0.141812
0.15097
0.167718
0.191436
0.221272
0.256323
0.29563
0.338544
0.38468
0.433832
0.485939
0.541034
0.599208
0.660556
0.725108
0.792713
0.862894
0.934735
1.00656
1.07518
1.13642
1.18576
1.21898
1.23291
1.22577
1.19729
1.14854
1.08165
1.00038
0.909835
0.81449
0.718865
0.627919
0.546455
0.478815
0.430366
0.409252
0.424057
0.466323
0.512725
0.537383
0.519664
0.449903
0.330851
0.174969
0
0.419407
1.51987
3.45381
6.27842
9.74839
13.1896
15.6748
16.4535
15.3326
12.7435
9.49649
6.43379
4.16207
2.9108
2.51702
2.55426
2.38272
2.21412
2.04987
1.89311
1.74758
1.61696
1.50434
1.41181
1.34044
1.28989
1.25895
1.24618
1.25035
1.27078
1.30728
1.35992
1.42857
1.51255
1.6104
1.72058
1.84159
1.97227
2.11206
2.26104
2.41964
2.58821
2.76658
2.95385
3.14834
3.34774
3.54932
3.75012
3.94712
4.13729
4.31761
4.48447
4.63425
4.76451
4.87352
4.96027
5.02412
5.06428
5.07593
5.05632
5.00174
4.90852
4.77449
4.60051
4.39128
4.15501
3.90209
3.64318
3.38628
3.13595
2.89453
2.66251
2.43926
2.22397
2.01637
1.81709
1.62752
1.44942
1.2843
1.13296
0.995463
0.871276
0.759751
0.660915
0.576192
0.507313
0.456233
0.424687
0.413341
0.421103
0.445392
0.482918
0.526089
0.566812
0.59876
0.618701
0.626888
0.626361
0.621426
0.615882
0.611676
0.608308
0.604221
0.597427
0.586264
0.569999
0.549045
0.524793
0.499143
0.473939
0.450386
0.428857
0.409189
0.390763
0.372835
0.354907
0.337032
0.31994
0.304929
0.293517
0.287091
0.287133
0.292921
0.300169
0.303117
0.296372
0.276805
0.244768
0.204199
0.161677
0.124907
0.100127
0.089943
0.096382
0.121814
0.167514
0.233473
0.320423
0.42846
0.551086
0.677273
0.793515
0.886847
0.947128
0.968176
0.948228
0.890002
0.800558
0.690808
0.574351
0.465413
0.374207
0.304145
0.254368
0.224404
0.211486
0.211188
0.21822
0.227166
0.232866
0.230926
0.218392
0.193993
0.158332
0.113863
0.0645685
0
0.62869
2.33526
5.14111
8.63533
12.0992
14.7139
15.7876
14.9998
12.5874
9.30876
6.11275
3.69171
2.23521
1.53041
1.24641
1.12408
1.01101
0.904816
0.810472
0.732594
0.674843
0.639414
0.62677
0.63566
0.66336
0.706062
0.758889
0.816942
0.876658
0.9355
0.992406
1.04817
1.10551
1.16867
1.24259
1.33177
1.43912
1.56484
1.70572
1.85867
2.01839
2.17967
2.33843
2.49238
2.64099
2.78495
2.92541
3.0633
3.19913
3.33316
3.46564
3.59735
3.73078
3.88222
4.1193
4.43558
4.74433
4.92929
4.9228
4.74482
4.47288
4.17697
3.88002
3.57312
3.26246
2.9537
2.65033
2.35582
2.07434
1.81029
1.56765
1.34961
1.15826
0.994602
0.859068
0.750019
0.6636
0.595106
0.539665
0.492913
0.451504
0.413302
0.377238
0.34291
0.310101
0.278427
0.24722
0.215799
0.183947
0.152373
0.122966
0.0986412
0.0827941
0.0784965
0.0876717
0.110481
0.145078
0.1884
0.235437
0.279016
0.312459
0.330904
0.332258
0.317614
0.290997
0.258418
0.226429
0.200521
0.182609
0.173601
0.171614
0.173146
0.174195
0.171364
0.162609
0.147419
0.126505
0.101237
0.0733088
0.0443766
0.0159988
-0.00963449
-0.0294613
-0.0400618
-0.0381011
-0.021139
0.0117202
0.0596862
0.120775
0.192764
0.274187
0.363956
0.462917
0.57243
0.693547
0.827451
0.973556
1.12931
1.28897
1.44066
1.56841
1.6568
1.68877
1.64839
1.52823
1.3375
1.10572
0.877214
0.69676
0.57979
0.504388
0.462815
0.447836
0.444092
0.435971
0.410705
0.360442
0.282954
0.181018
0.0608681
-0.0696186
-0.202272
0
0.808765
2.52108
5.25518
8.72786
12.2797
15.0788
16.3927
15.8496
13.6205
10.4076
7.1629
4.64734
3.11942
2.36978
2.02639
1.85769
1.71294
1.57427
1.44646
1.3345
1.2424
1.17322
1.12834
1.1071
1.10671
1.12274
1.15013
1.18429
1.2221
1.26255
1.3067
1.35714
1.41719
1.49007
1.57728
1.67948
1.79697
1.92935
2.07565
2.23462
2.40481
2.58475
2.77286
2.96741
3.16641
3.3675
3.56782
3.76401
3.95187
4.1261
4.28248
4.41762
4.52944
4.61722
4.68128
4.72226
4.74029
4.73431
4.7022
4.64073
4.54663
4.4177
4.2537
4.05672
3.83107
3.58258
3.31777
3.04375
2.76631
2.49034
2.22049
1.96132
1.71729
1.49246
1.2903
1.1136
0.963001
0.836951
0.732608
0.64663
0.575954
0.518287
0.472141
0.437416
0.41549
0.402742
0.391285
0.371671
0.335901
0.280583
0.208717
0.1292
0.0541325
-0.00506125
-0.0453486
-0.0689694
-0.0774363
-0.0745543
-0.065422
-0.0552687
-0.0483958
-0.0475089
-0.0534551
-0.0653497
-0.0809789
-0.0973307
-0.111122
-0.119406
-0.120083
-0.111573
-0.0930128
-0.0644794
-0.0270285
0.017479
0.0665266
0.116464
0.163335
0.203368
0.233349
0.250887
0.254565
0.244012
0.219931
0.184094
0.139628
0.0900829
0.0396002
-0.00749226
-0.0472356
-0.076996
-0.0953524
-0.101747
-0.0963243
-0.0814594
-0.061849
-0.0419431
-0.024705
-0.0108028
0.00150909
0.0157949
0.0363546
0.0670354
0.109523
0.162824
0.22583
0.297154
0.374793
0.456277
0.538248
0.615477
0.681593
0.730283
0.756003
0.755072
0.726553
0.672504
0.5974
0.506868
0.406248
0.300036
0.191106
0.0808743
-0.0285085
-0.13311
-0.227342
-0.304926
-0.360639
-0.391996
-0.400237
-0.390355
-0.370289
0
0.822753
2.4211
5.0397
8.54046
12.2605
15.2116
16.5186
15.8087
13.3421
9.87836
6.38163
3.66749
2.10496
1.52545
1.42675
1.22617
1.01366
0.800534
0.591527
0.398414
0.235058
0.115842
0.05155
0.0453393
0.0904979
0.171378
0.267652
0.36047
0.43891
0.505508
0.564933
0.620254
0.674854
0.731537
0.79192
0.856707
0.925352
0.997137
1.07232
1.15285
1.2424
1.34564
1.46686
1.6085
1.76991
1.94533
2.12818
2.31157
2.48842
2.6526
2.79966
2.92725
3.03484
3.12308
3.19167
3.23817
3.2602
3.25429
3.21546
3.13852
3.01979
2.85839
2.65687
2.4211
2.15944
1.88359
1.6027
1.32348
1.05171
0.792113
0.548478
0.323717
0.119976
-0.0613961
-0.219766
-0.354231
-0.465582
-0.558068
-0.63716
-0.708706
-0.777909
-0.848419
-0.921782
-0.997396
-1.07296
-1.14538
-1.21197
-1.27019
-1.31837
-1.35564
-1.38182
-1.39718
-1.40231
-1.39811
-1.38507
-1.36398
-1.3385
-1.31266
-1.28978
-1.27141
-1.2568
-1.24339
-1.22805
-1.20866
-1.18503
-1.16123
-1.14349
-1.13754
-1.14587
-1.16633
-1.1926
-1.21647
-1.23092
-1.23275
-1.22541
-1.21269
-1.199
-1.18822
-1.18261
-1.18242
-1.18635
-1.19236
-1.19857
-1.20407
-1.20892
-1.21377
-1.21972
-1.22806
-1.23999
-1.25633
-1.27707
-1.30132
-1.32709
-1.35063
-1.36688
-1.37035
-1.35596
-1.32001
-1.26083
-1.17903
-1.07735
-0.960063
-0.832622
-0.70015
-0.566368
-0.434207
-0.305826
-0.183093
-0.069364
0.0272672
0.095868
0.118693
0.0764288
-0.0421834
-0.230687
-0.461127
-0.68996
-0.872269
-0.980125
-1.03797
-1.05065
-1.02897
-0.985919
-0.932933
-0.877792
-0.823459
-0.770693
-0.719288
-0.668719
-0.618552
-0.568642
-0.5237
0
1.37636
3.80277
7.13331
10.7797
13.8213
15.3703
15.0016
12.9457
9.91457
6.72729
4.01204
2.10601
1.07338
0.745552
0.772904
0.713621
0.653316
0.593494
0.535877
0.482317
0.434626
0.394401
0.362905
0.34105
0.329768
0.329543
0.340767
0.363731
0.398567
0.445199
0.503355
0.572697
0.653015
0.744238
0.846453
0.96031
1.08638
1.22475
1.37468
1.53442
1.70128
1.87206
2.04356
2.2132
2.37948
2.54205
2.7015
2.85882
3.01485
3.16977
3.32288
3.47265
3.61692
3.75334
3.87925
3.9908
4.08155
4.14424
4.17233
4.15795
4.09318
3.97194
3.79205
3.55665
3.27453
2.95919
2.62853
2.2976
1.9761
1.67186
1.39035
1.13432
0.903926
0.697057
0.510042
0.338499
0.178259
0.0265517
-0.116227
-0.246187
-0.357343
-0.441903
-0.493416
-0.509604
-0.493819
-0.454597
-0.403486
-0.351998
-0.308252
-0.273959
-0.249357
-0.233509
-0.224364
-0.219398
-0.216048
-0.212039
-0.205329
-0.193937
-0.175942
-0.149543
-0.110957
-0.0549947
0.0140691
0.082188
0.131879
0.148436
0.125902
0.0699505
-0.00365682
-0.0742779
-0.122993
-0.144552
-0.143728
-0.125048
-0.0908846
-0.0436092
0.0141812
0.0798705
0.151376
0.22674
0.303158
0.375243
0.436021
0.478238
0.496404
0.489071
0.460385
0.420154
0.382149
0.36102
0.367301
0.400881
0.457498
0.536143
0.635157
0.745466
0.849573
0.930942
0.977349
0.983206
0.950297
0.886682
0.804151
0.715228
0.630804
0.556079
0.492639
0.442156
0.406577
0.388129
0.391818
0.425566
0.491218
0.576669
0.660087
0.71725
0.726648
0.673657
0.5529
0.368513
0.132343
-0.139252
-0.428303
0
1.35684
3.78806
7.11625
10.7435
13.7812
15.4162
15.2869
13.6052
10.975
8.09393
5.53519
3.64985
2.52594
1.99925
1.78803
1.68707
1.59599
1.52012
1.46323
1.42711
1.41147
1.4143
1.43244
1.46239
1.50081
1.54535
1.5949
1.64946
1.71002
1.77827
1.85613
1.94523
2.04658
2.16021
2.28509
2.41945
2.56101
2.70723
2.85614
3.00659
3.15825
3.31121
3.46548
3.62049
3.77499
3.92729
4.07575
4.21938
4.35824
4.49359
4.62746
4.76309
4.90466
5.05124
5.19216
5.31018
5.38715
5.40836
5.36458
5.25237
5.07368
4.83529
4.54835
4.22847
3.89619
3.56648
3.24692
2.94321
2.66103
2.4045
2.17601
1.97685
1.80553
1.65824
1.53018
1.41641
1.3126
1.21544
1.12282
1.03356
0.947066
0.863061
0.781548
0.702958
0.628424
0.560005
0.500681
0.454021
0.423568
0.415502
0.442496
0.510857
0.602658
0.69347
0.759479
0.783703
0.759041
0.687989
0.580904
0.454733
0.331909
0.230399
0.161038
0.133683
0.151116
0.214106
0.306649
0.408115
0.499991
0.571477
0.621506
0.656403
0.684612
0.711207
0.734842
0.748378
0.742476
0.710363
0.651642
0.573618
0.489669
0.415345
0.36364
0.336342
0.327416
0.335325
0.354509
0.378437
0.401155
0.418554
0.429098
0.433891
0.436129
0.440114
0.450102
0.468575
0.496345
0.533025
0.577155
0.626684
0.679244
0.732611
0.785069
0.835475
0.883043
0.926484
0.96371
0.992229
1.00886
1.01061
0.995926
0.96557
0.922887
0.873046
0.821501
0.772115
0.725562
0.679703
0.629761
0.569409
0.492255
0.391013
0.256328
0.0907413
-0.0982047
-0.299489
0
1.04557
2.9729
5.75068
9.11639
12.5129
15.1497
16.2809
15.5734
13.2935
10.1628
7.00561
4.44103
2.758
1.92898
1.68732
1.59151
1.47774
1.36294
1.24852
1.13608
1.02784
0.927564
0.840836
0.773192
0.730909
0.719495
0.741824
0.796804
0.879396
0.982109
1.09729
1.21906
1.34333
1.46795
1.58914
1.70007
1.79184
1.85745
1.89687
1.92019
1.94676
1.99981
2.09869
2.24768
2.43148
2.6354
2.84915
3.06422
3.27339
3.47168
3.6569
3.82948
3.99134
4.14581
4.29985
4.46653
4.65338
4.83693
4.97945
5.04094
4.991
4.81949
4.54044
4.1862
3.79726
3.41496
3.05826
2.72333
2.40784
2.11414
1.84396
1.5979
1.37579
1.17707
1.00112
0.847492
0.716079
0.606696
0.518851
0.451447
0.40353
0.373815
0.358182
0.352284
0.352264
0.355324
0.359951
0.365716
0.372753
0.381137
0.390378
0.399221
0.405792
0.407819
0.40299
0.389327
0.365499
0.331061
0.286559
0.233497
0.17418
0.111455
0.04845
-0.0117364
-0.0654292
-0.108963
-0.139253
-0.153734
-0.150703
-0.129694
-0.091746
-0.0395022
0.0228853
0.0904377
0.156035
0.211438
0.249093
0.263479
0.252393
0.217709
0.165284
0.103914
0.0436652
-0.00592108
-0.0396209
-0.056484
-0.0557347
-0.0356996
0.00659037
0.0739384
0.162272
0.253889
0.328636
0.369773
0.369564
0.332551
0.274813
0.21913
0.187822
0.195987
0.235366
0.294177
0.366155
0.446378
0.529311
0.6096
0.682518
0.744135
0.79088
0.819824
0.829161
0.818106
0.787012
0.737709
0.673729
0.600179
0.523159
0.448746
0.381785
0.325717
0.281198
0.242929
0.202385
0.150268
0.0789757
-0.0154928
-0.13265
-0.267694
-0.412537
0
1.16151
3.29059
6.4156
10.1749
13.7983
16.3715
17.2382
16.264
13.8291
10.6264
7.41163
4.78321
3.02415
2.06548
1.62392
1.53443
1.47335
1.41341
1.35264
1.28974
1.22679
1.17098
1.1327
1.12245
1.14752
1.20936
1.30292
1.41815
1.54324
1.66853
1.79011
1.90882
2.02707
2.14831
2.27569
2.41087
2.55302
2.70018
2.84969
2.99908
3.14703
3.29382
3.44131
3.59227
3.74948
3.91469
4.08769
4.26647
4.44742
4.62539
4.79295
4.94152
5.06476
91
276
461
637
819
1003
1174
1351
1536
1707
1876
2038
2192
2358
2528
2694
2857
3029
3201
3365
3533
3703
3077
3235
3394
3716
0
0
0
0
0
0
0
0
0
0
0
0
0
0
0
0
0
0
0
0
0
0
0
0
0
0
0
0
0
0
0
0
0
0
0
0
0
0
0
0
0
0
0
0
0
0
0
0
0
0
0
0
0
0
0
0
0
0
0
0
0
0
0
0
0
0
0
0
0
0
0
0
0
0
0
0
0
0
0
0
0
0
0
0
0
0
0
0
0
0
0
0
0
0
0
0
0
0
0
0
0
0
0
0
0
0
0
0
0
0
0
0
0
0
0
0
0
0
0
0
0
0
0
0
0
0
0
0
0
0
0
0
0
0
0
0
0
0
0
0
0
0
0
0
0
0
0
0
0
0
0
0
0
0
0
0
0
0
0
0
0
0
0
0
0
0
0
0
0
0
0
0
0
0
0
0
0
0
0
0
0
0
0
0
0
0
0
0
0
0
0
0
0
0
0
0
0
0
0
0
0
0
0
0
0
0
0
0
0
0
0
0
0
0
0
0
0
0
0
0
0
0
0
0
0
0
0
0
0
0
0
0
0
0
0
0
0
0
0
0
0
0
0
0
0
0
0
0
0
0
0
0
0
0
0
0
0
0
0
0
0
0
0
0
0
0
0
0
0
0
0
0
0
0
0
0
0
0
0
0
0
0
0
0
0
0
0
0
0
0
0
0
0
0
0
0
0
0
0
0
0
0
0
0
0
0
0
0
0
0
0
0
0
0
0
0
0
0
0
0
0
0
0
0
0
0
0
0
0
0
0
0
0
0
0
0
0
0
0
0
0
0
0
0
0
0
0
0
0
0
0
0
0
0
0
0
0
0
0
0
0
0
0
0
0
0
0
0
0
0
0
0
0
0
0
0
0
0
0
0
0
0
0
0
0
0
0
0
0
0
0
0
0
0
0
0
0
0
0
0
0
0
0
0
0
0
0
0
0
0
0
0
0
0
0
0
0
0
0
0
0
0
0
0
0
0
0
0
0
0
0
0
0
0
0
0
0
0
0
0
0
0
0
0
0
0
0
0
0
0
0
0
0
0
0
0
0
0
0
0
0
0
0
0
0
0
0
0
0
0
0
0
0
0
0
0
0
0
0
0
0
0
0
0
0
0
0
0
0
0
0
0
0
0
0
0
0
0
0
0
0
0
0
0
0
0
0
0
0
0
0
0
0
0
0
0
0
0
0
0
0
0
0
0
0
0
0
0
0
0
0
0
0
0
0
0
0
0
0
0
0
0
0
0
0
0
0
0
0
0
0
0
0
0
0
0
0
0
0
0
0
0
0
0
0
0
0
0
0
0
0
0
0
0
0
0
0
0
0
0
0
0
0
0
0
0
0
0
0
0
0
0
0
0
0
0
0
0
0
0
0
0
0
0
0
0
0
0
0
0
0
0
0
0
0
0
0
0
0
0
0
0
0
0
0
0
0
0
0
0
0
0
0
0
0
0
0
0
0
0
0
0
0
0
0
0
0
0
0
0
0
0
0
0
0
0
0
0
0
0
0
0
0
0
0
0
0
0
0
0
0
0
0
0
0
0
0
0
0
0
0
0
0
0
0
0
0
0
0
0
0
0
0
0
0
0
0
0
0
0
0
0
0
0
0
0
0
0
0
0
0
0
0
0
0
0
0
0
0
0
0
0
0
0
0
0
0
0
0
0
0
0
0
0
0
0
0
0
0
0
0
0
0
0
0
0
0
0
0
0
0
0
0
0
0
0
0
0
0
0
0
0
0
0
0
0
0
0
0
0
0
0
0
0
0
0
0
0
0
0
0
0
0
0
0
0
0
0
0
0
0
0
0
0
0
0
0
0
0
0
0
0
0
0
0
0
0
0
0
0
0
0
0
0
0
0
0
0
0
0
0
0
0
0
0
0
0
0
0
0
0
0
0
0
0
0
0
0
0
0
0
0
0
0
0
0
0
0
0
0
0
0
0
0
0
0
0
0
0
0
0
0
0
0
0
0
0
0
0
0
0
0
0
0
0
0
0
0
0
0
0
0
0
0
0
0
0
0
0
0
0
0
0
0
0
0
0
0
0
0
0
0
0
0
0
0
0
0
0
0
0
0
0
0
0
0
0
0
0
0
0
0
0
0
0
0
0
0
0
0
0
0
0
0
0
0
0
0
0
0
0
0
0
0
0
0
0
0
0
0
0
0
0
0
0
0
0
0
0
0
0
0
0
0
0
0
0
0
0
0
0
0
0
0
0
0
0
0
0
0
0
0
0
0
0
0
0
0
0
0
0
0
0
0
0
0
0
0
0
0
0
0
0
0
0
0
0
0
0
0
0
0
0
0
0
0
0
0
0
0
0
0
0
0
0
0
0
0
0
0
0
0
0
0
0
0
0
0
0
0
0
0
0
0
0
0
0
0
0
0
0
0
0
0
0
0
0
0
0
0
0
0
0
0
0
0
0
0
0
0
0
0
0
0
0
0
0
0
0
0
0
0
0
0
0
0
0
0
0
0
0
0
0
0
0
0
0
0
0
0
0
0
0
0
0
0
0
0
0
0
0
0
0
0
0
0
0
0
0
0
0
0
0
0
0
0
0
0
0
0
0
0
0
0
0
0
0
0
0
0
0
0
0
0
0
0
0
0
0
0
0
0
0
0
0
0
0
0
0
0
0
0
0
0
0
0
0
0
0
0
0
0
0
0
0
0
0
0
0
0
0
0
0
0
0
0
0
0
0
0
0
0
0
0
0
0
0
0
0
0
0
0
0
0
0
0
0
0
0
0
0
0
0
0
0
0
0
0
0
0
0
0
0
0
0
0
0
0
0
0
0
0
0
0
0
0
0
0
0
0
0
0
0
0
0
0
0
0
0
0
0
0
0
0
0
0
0
0
0
0
0
0
0
0
0
0
0
0
0
0
0
0
0
0
0
0
0
0
0
0
0
0
0
0
0
0
0
0
0
0
0
0
0
0
0
0
0
0
0
0
0
0
0
0
0
0
0
0
0
0
0
0
0
0
0
0
0
0
0
0
0
0
0
0
0
0
0
0
0
0
0
0
0
0
0
0
0
0
0
0
0
0
0
0
0
0
0
0
0
0
0
0
0
0
0
0
0
0
0
0
0
0
0
0
0
0
0
0
0
0
0
0
0
0
0
0
0
0
0
0
0
0
0
0
0
0
0
0
0
0
0
0
0
0
0
0
0
0
0
0
0
0
0
0
0
0
0
0
0
0
0
0
0
0
0
0
0
0
0
0
0
0
0
0
0
0
0
0
0
0
0
0
0
0
0
0
0
0
0
0
0
0
0
0
0
0
0
0
0
0
0
0
0
0
0
0
0
0
0
0
0
0
0
0
0
0
0
0
0
0
0
0
0
0
0
0
0
0
0
0
0
0
0
0
0
0
0
0
0
0
0
0
0
0
0
0
0
0
0
0
0
0
0
0
0
0
0
0
0
0
0
0
0
0
0
0
0
0
0
0
0
0
0
0
0
0
0
0
0
0
0
0
0
0
0
0
0
0
0
0
0
0
0
0
0
0
0
0
0
0
0
0
0
0
0
0
0
0
0
0
0
0
0
0
0
0
0
0
0
0
0
0
0
0
0
0
0
0
0
0
0
0
0
0
0
0
0
0
0
0
0
0
0
0
0
0
0
0
0
0
0
0
0
0
0
0
0
0
0
0
0
0
0
0
0
0
0
0
0
0
0
0
0
0
0
0
0
0
0
0
0
0
0
0
0
0
0
0
0
0
0
0
0
0
0
0
0
0
0
0
0
0
0
0
0
0
0
0
0
0
0
0
0
0
0
0
0
0
0
0
0
0
0
0
0
0
0
0
0
0
0
0
0
0
0
0
0
0
0
0
0
0
0
0
0
0
0
0
0
0
0
0
0
0
0
0
0
0
0
0
0
0
0
0
0
0
0
0
0
0
0
0
0
0
0
0
0
0
0
0
0
0
0
0
0
0
0
0
0
0
0
0
0
0
0
0
0
0
0
0
0
0
0
0
0
0
0
0
0
0
0
0
0
0
0
0
0
0
0
0
0
0
0
0
0
0
0
0
0
0
0
0
0
0
0
0
0
0
0
0
0
0
0
0
0
0
0
0
0
0
0
0
0
0
0
0
0
0
0
0
0
0
0
0
0
0
0
0
0
0
0
0
0
0
0
0
0
0
0
0
0
0
0
0
0
0
0
0
0
0
0
0
0
0
0
0
0
0
0
0
0
0
0
0
0
0
0
0
0
0
0
0
0
0
0
0
0
0
0
0
0
0
0
0
0
0
0
0
0
0
0
0
0
0
0
0
0
0
0
0
0
0
0
0
0
0
0
0
0
0
0
0
0
0
0
0
0
0
0
0
0
0
0
0
0
0
0
0
0
0
0
0
0
0
0
0
0
0
0
0
0
0
0
0
0
0
0
0
0
0
0
0
0
0
0
0
0
0
0
0
0
0
0
0
0
0
0
0
0
0
0
0
0
0
0
0
0
0
0
0
0
0
0
0
0
0
0
0
0
0
0
0
0
0
0
0
0
0
0
0
0
0
0
0
0
0
0
0
0
0
0
0
0
0
0
0
0
0
0
0
0
0
0
0
0
0
0
0
0
0
0
0
0
0
0
0
0
0
0
0
0
0
0
0
0
0
0
0
0
0
0
0
0
0
0
0
0
0
0
0
0
0
0
0
0
0
0
0
0
0
0
0
0
0
0
0
0
0
0
0
0
0
0
0
0
0
0
0
0
0
0
0
0
0
0
0
0
0
0
0
0
0
0
0
0
0
0
0
0
0
0
0
0
0
0
0
0
0
0
0
0
0
0
0
0
0
0
0
0
0
0
0
0
0
0
0
0
0
0
0
0
0
0
0
0
0
0
0
0
0
0
0
0
0
0
0
0
0
0
0
0
0
0
0
0
0
0
0
0
0
0
0
0
0
0
0
0
0
0
0
0
0
0
0
0
0
0
0
0
0
0
0
0
0
0
0
0
0
0
0
0
0
0
0
0
0
0
0
0
0
0
0
0
0
0
0
0
0
0
0
0
0
0
0
0
0
0
0
0
0
0
0
0
0
0
0
0
0
0
0
0
0
0
0
0
0
0
0
0
0
0
0
0
0
0
0
0
0
0
0
0
0
0
0
0
0
0
0
0
0
0
0
0
0
0
0
0
0
0
0
0
0
0
0
0
0
0
0
0
0
0
0
0
0
0
0
0
0
0
0
0
0
0
0
0
0
0
0
0
0
0
0
0
0
0
0
0
0
0
0
0
0
0
0
0
0
0
0
0
0
0
0
0
0
0
0
0
0
0
0
0
0
0
0
0
0
0
0
0
0
0
0
0
0
0
0
0
0
0
0
0
0
0
0
0
0
0
0
0
0
0
0
0
0
0
0
0
0
0
0
0
0
0
0
0
0
0
0
0
0
0
0
0
0
0
0
0
0
0
0
0
0
0
0
0
0
0
0
0
0
0
0
0
0
0
0
0
0
0
0
0
0
0
0
0
0
0
0
0
0
0
0
0
0
0
0
0
0
0
0
0
0
0
0
0
0
0
0
0
0
0
0
0
0
0
0
0
0
0
0
0
0
0
0
0
0
0
0
0
0
0
0
0
0
0
0
0
0
0
0
0
0
0
0
0
0
0
0
0
0
0
0
0
0
0
0
0
0
0
0
0
0
0
0
0
0
0
0
0
0
0
0
0
0
0
0
0
0
0
0
0
0
0
0
0
0
0
0
0
0
0
0
0
0
0
0
0
0
0
0
0
0
0
0
0
0
0
0
0
0
0
0
0
0
0
0
0
0
0
0
0
0
0
0
0
0
0
0
0
0
0
0
0
0
0
0
0
0
0
0
0
0
0
0
0
0
0
0
0
0
0
0
0
0
0
0
0
0
0
0
0
0
0
0
0
0
0
0
0
0
0
0
0
0
0
0
0
0
0
0
0
0
0
0
0
0
0
0
0
0
0
0
0
0
0
0
0
0
0
0
0
0
0
0
0
0
0
0
0
0
0
0
0
0
0
0
0
0
0
0
0
0
0
0
0
0
0
0
0
0
0
0
0
0
0
0
0
0
0
0
0
0
0
0
0
0
0
0
0
0
0
0
0
0
0
0
0
0
0
0
0
0
0
0
0
0
0
0
0
0
0
0
0
0
0
0
0
0
0
0
0
0
0
0
0
0
0
0
0
0
0
0
0
0
0
0
0
0
0
0
0
0
0
0
0
0
0
0
0
0
0
0
0
0
0
0
0
0
0
0
0
0
0
0
0
0
0
0
0
0
0
0
0
0
0
0
0
0
0
0
0
0
0
0
0
0
0
0
0
0
0
0
0
0
0
0
0
0
0
0
0
0
0
0
0
0
0
0
0
0
0
0
0
0
0
0
0
0
0
0
0
0
0
0
0
0
0
0
0
0
0
0
0
0
0
0
0
0
0
0
0
0
0
0
0
0
0
0
0
0
0
0
0
0
0
0
0
0
0
0
0
0
0
0
0
0
0
0
0
0
0
0
0
0
0
0
0
0
0
0
0
0
0
0
0
0
0
0
0
0
0
0
0
0
0
0
0
0
0
0
0
0
0
0
0
0
0
0
0
0
0
0
0
0
0
0
0
0
0
0
0
0
0
0
0
0
0
0
0
0
0
0
0
0
0
0
0
0
0
0
0
0
0
0
0
0
0
0
0
0
0
0
0
0
0
0
0
0
0
0
0
0
0
0
0
0
0
0
0
0
0
0
0
0
0
0
0
0
0
0
0
0
0
0
0
0
0
0
0
0
0
0
0
0
0
0
0
0
0
0
0
0
0
0
0
0
0
0
0
0
0
0
0
0
0
0
0
0
0
0
0
0
0
0
0
0
0
0
0
0
0
0
0
0
0
0
0
0
0
0
0
0
0
0
0
0
0
0
0
0
0
0
0
0
0
0
0
0
0
0
0
0
0
0
0
0
0
0
0
0
0
0
0
0
0
0
0
0
0
0
0
0
0
0
0
0
0
0
0
0
0
0
0
0
0
0
0
0
0
0
0
0
0
0
0
0
0
0
0
0
0
0
0
0
0
0
0
0
0
0
0
0
0
0
0
0
0
0
0
0
0
0
0
0
0
0
0
0
0
0
0
0
0
0
0
0
0
0
0
0
0
0
0
0
0
0
0
0
0
0
0
0
0
0
0
0
0
0
0
0
0
0
0
0
0
0
0
0
0
0
0
0
0
0
0
0
0
0
0
0
0
0
0
0
0
0
0
0
0
0
0
0
0
0
0
0
0
0
0
0
0
0
0
0
0
0
0
0
0
0
0
0
0
0
0
0
0
0
0
0
0
0
0
0
0
0
0
0
0
0
0
0
0
0
0
0
0
0
0
0
0
0
0
0
0
0
0
0
0
0
0
0
0
0
0
0
0
0
0
0
0
0
0
0
0
0
0
0
0
0
0
0
0
0
0
0
0
0
0
0
0
0
0
0
0
0
0
0
0
0
0
0
0
0
0
0
0
0
0
0
0
0
0
0
0
0
0
0
0
0
0
0
0
0
0
0
0
0
0
0
0
0
0
0
0
0
0
0
0
0
0
0
0
0
0
0
0
0
0
0
0
0
0
0
0
0
0
0
0
0
0
0
0
0
0
0
0
0
0
0
0
0
0
0
0
0
0
0
0
0
0
0
0
0
0
0
0
0
0
0
0
0
0
0
0
0
0
0
0
0
0
0
0
0
0
0
0
0
0
0
0
0
0
0
0
0
0
0
0
0
0
0
0
0
0
0
0
0
0
0
0
0
0
0
0
0
0
0
0
0
0
0
0
0
0
0
0
0
0
0
0
0
0
0
0
0
0
0
0
0
0
0
0
0
0
0
0
0
0
0
0
0
0
0
0
0
0
0
0
0
0
0
0
0
0
0
0
0
0
0
0
0
0
0
0
0
0
0
0
0
0
0
0
0
0
0
0
0
0
0
0
0
0
0
0
0
0
0
0
0
0
0
0
0
0
0
0
0
0
0
0
0
0
0
0
0
0
0
0
0
0
0
0
0
0
0
0
0
0
0
0
0
0
0
0
0
0
0
0
0
0
0
0
0
0
0
0
0
0
0
0
0
0
0
0
0
0
0
0
0
0
0
0
0
0
0
0
0
0
0
0
0
0
0
0
0
0
0
0
0
0
0
0
0
0
0
0
0
0
0
0
0
0
0
0
0
0
0
0
0
0
0
0
0
0
0
0
0
0
0
0
0
0
0
0
0
0
0
0
0
0
0
0
0
0
0
0
0
0
0
0
0
0
0
0
0
0
0
0
0
0
0
0
0
0
0
0
0
0
0
0
0
0
0
0
0
0
0
0
0
0
0
0
0
0
0
0
0
0
0
0
0
0
0
0
0
0
0
0
0
0
0
0
0
0
0
0
0
0
0
0
0
0
0
0
0
0
0
0
0
0
0
0
0
0
0
0
0
0
0
0
0
0
0
0
0
0
