1.20665
1.21958
1.22689
1.22865
1.22334
1.20867
1.1827
1.14486
1.09655
1.041
0.982693
0.926431
0.875817
0.83308
0.799524
0.775574
0.760482
0.752094
0.747436
0.74343
0.737464
0.72781
0.713794
0.695701
0.674469
0.651306
0.62737
0.603514
0.580288
0.558061
0.537157
0.518007
0.501296
0.488071
0.479853
0.478703
0.487246
0.508674
0.546481
0.603895
0.683352
0.785773
0.909904
1.05347
1.21159
1.3724
1.5215
1.64557
1.73491
1.78495
1.79635
1.77378
1.72399
1.65384
1.57009
1.4777
1.37963
1.27798
1.17463
1.0715
0.970414
0.872657
0.778446
0.686507
0.593204
0.492872
0.3794
0.248148
0.0978226
-0.0711609
-0.249219
-0.421478
-0.572788
-0.692046
-0.775156
-0.825706
-0.784286
-0.567265
0
1.28669
3.48041
6.34593
9.19008
11.0721
11.2055
9.34993
5.96062
1.98866
-1.55143
-3.99388
-5.19108
-5.39745
-5.01802
-4.38151
-3.67229
-2.96994
-2.32045
-1.78708
-1.49873
-1.37056
-1.27157
-1.17592
-1.07629
-0.967843
-0.847915
-0.716824
-0.577425
-0.436346
-0.302536
-0.184645
-0.0889744
-0.0180557
0.0298225
0.0600948
0.0806316
0.100119
0.126325
0.164351
0.216897
0.285068
0.368588
0.465873
0.574346
0.69091
0.812537
0.936573
1.06139
1.18672
1.31365
1.44424
1.58085
1.72528
1.87797
2.03761
2.20107
2.36415
2.52228
2.6714
2.80871
2.93319
3.04578
3.14927
3.24796
3.34721
3.45428
3.58614
3.78206
4.04676
4.31692
4.49682
4.49694
4.2742
3.85337
3.32023
2.79094
2.37088
2.0528
1.78591
1.55475
1.35766
1.19148
1.05202
0.934435
0.833672
0.744707
0.662822
0.583836
0.504352
0.422015
0.335778
0.246108
0.155069
0.0662048
-0.0157181
-0.0855537
-0.138651
-0.171608
-0.180854
-0.165132
-0.129875
-0.0865059
-0.0467781
-0.019445
-0.00778656
-0.00883713
-0.0146053
-0.0148849
-0.000738144
0.0316647
0.0790169
0.136711
0.198397
0.25682
0.305804
0.341696
0.364124
0.37591
0.382178
0.388899
0.401213
0.421926
0.451942
0.486805
0.517369
0.533498
0.527398
0.496363
0.443982
0.379266
0.31395
0.258843
0.219707
0.196493
0.185896
0.18212
0.179366
0.174086
0.166203
0.158885
0.157058
0.165258
0.184868
0.21551
0.252857
0.289268
0.316773
0.329621
0.326269
0.310215
0.289409
0.274371
0.275538
0.29952
0.346216
0.414016
0.499625
0.594233
0.6854
0.761429
0.814163
0.840797
0.844412
0.832973
0.816903
0.80574
0.80477
0.813433
0.822123
0.815379
0.776638
0.693799
0.563778
0.39451
0.203666
0.0144638
-0.150133
-0.281282
-0.373332
-0.417099
-0.416398
-0.390434
-0.361522
-0.34913
-0.365255
-0.412276
-0.483717
-0.567503
-0.650486
-0.723129
-0.783558
-0.82906
-0.578047
0
1.06097
2.79426
5.22755
8.04188
10.5477
11.8926
11.4313
9.0609
5.31423
1.14434
-2.47511
-4.90614
-5.98695
-5.94032
-5.16772
-4.0673
-2.94656
-2.00955
-1.3657
-1.05682
-0.945399
-0.838203
-0.732737
-0.630031
-0.53242
-0.442665
-0.363433
-0.29662
-0.242733
-0.200481
-0.166727
-0.136779
-0.105048
-0.0661369
-0.0158638
0.0483376
0.127082
0.21889
0.3206
0.428179
0.537133
0.643082
0.742214
0.83138
0.908297
0.971656
1.02084
1.05581
1.07698
1.08514
1.08132
1.06658
1.04181
1.00766
0.964484
0.912292
0.850982
0.78072
0.702221
0.616926
0.526978
0.435004
0.3437
0.255324
0.171195
0.091362
0.0143745
-0.0625237
-0.142896
-0.230489
-0.328616
-0.439713
-0.565148
-0.705284
-0.859675
-1.02704
-1.20579
-1.39375
-1.58805
-1.785
-1.98017
-2.16877
-2.34611
-2.50814
-2.65209
-2.77658
-2.88159
-2.96807
-3.03753
-3.09169
-3.13219
-3.16036
-3.17762
-3.18529
-3.18451
-3.1761
-3.16048
-3.13772
-3.10767
-3.07029
-3.02596
-2.9758
-2.92165
-2.86603
-2.81186
-2.76204
-2.71917
-2.68512
-2.66083
-2.6461
-2.63953
-2.6386
-2.63984
-2.63925
-2.63282
-2.6171
-2.58975
-2.54989
-2.49825
-2.43705
-2.36951
-2.29983
-2.23239
-2.17098
-2.11814
-2.0749
-2.04056
-2.01294
-1.98881
-1.96443
-1.93625
-1.90166
-1.85936
-1.80936
-1.7526
-1.69092
-1.62702
-1.5641
-1.50504
-1.4519
-1.40552
-1.36549
-1.33033
-1.29799
-1.26642
-1.23405
-1.20016
-1.16483
-1.12858
-1.09224
-1.05658
-1.02218
-0.989183
-0.957204
-0.925282
-0.89192
-0.855244
-0.813357
-0.764658
-0.707603
-0.642424
-0.573483
-0.507962
-0.453806
-0.417525
-0.402225
-0.406419
-0.423945
-0.444872
-0.457108
-0.449971
-0.416933
-0.35446
-0.257954
-0.111871
0.0961594
0.341498
0.577467
0.758727
0.854825
0.858865
0.788581
0.679781
0.5743
0.505871
0.478637
0.475603
0.484421
0.490117
0.477366
0.434625
0.357567
0.250809
0.127286
0.00535889
-0.0956085
-0.164146
-0.196655
-0.191965
-0.154942
-0.0934296
-0.0211975
0.0461594
0.0954086
0.118126
0.11207
0.0811951
0.0327362
-0.17105
0
0.905404
2.81013
5.64351
8.91107
11.767
13.288
12.8462
10.4038
6.56399
2.3338
-1.27785
-3.61732
-4.53452
-4.29722
-3.39194
-2.30028
-1.38197
-0.820136
-0.637733
-0.523335
-0.377034
-0.21725
-0.0470886
0.131276
0.313744
0.494715
0.667895
0.827335
0.968777
1.09025
1.19228
1.27753
1.34999
1.41388
1.47186
1.52505
1.57233
1.61069
1.63764
1.65378
1.66444
1.6794
1.71079
1.76969
1.86259
1.98437
2.12622
2.28047
2.43814
2.59078
2.73234
2.86035
2.97613
3.08423
3.19105
3.30318
3.42584
3.56121
3.70873
3.86563
4.02716
4.18745
4.34033
4.48021
4.60255
4.70414
4.78284
4.83684
4.86406
4.86226
4.82948
4.76352
4.66257
4.52626
4.35658
4.15859
3.9405
3.71298
3.48782
3.27589
3.08593
2.92353
2.79188
2.68825
2.60695
2.54107
2.48422
2.43173
2.38116
2.33211
2.28547
2.24248
2.2039
2.16997
2.1406
2.11541
2.09404
2.07641
2.06292
2.05441
2.05196
2.05658
2.06878
2.08826
2.11384
2.14349
2.17392
2.2015
2.22345
2.23874
2.24841
2.25527
2.26296
2.27463
2.29202
2.31406
2.33616
2.35186
2.35475
2.3405
2.30819
2.26084
2.20478
2.14827
2.09945
2.06414
2.04506
2.04187
2.05198
2.0719
2.09796
2.12641
2.15374
2.17667
2.19257
2.1999
2.19819
2.18812
2.17149
2.15096
2.12956
2.10998
2.09397
2.08176
2.07237
2.06418
2.05529
2.04422
2.03053
2.01502
1.99965
1.98697
1.97943
1.97866
1.98494
1.99705
2.01269
2.02931
2.04448
2.05645
2.06432
2.06801
2.06804
2.06519
2.06034
2.05425
2.04761
2.0412
2.03606
2.03358
2.03554
2.04404
2.06121
2.08893
2.12844
2.18026
2.24401
2.31773
2.39639
2.47011
2.52697
2.55596
2.54951
2.50544
2.42771
2.32534
2.20971
2.09102
1.97521
1.86241
1.75006
1.6355
1.5165
1.39225
1.26366
1.13313
1.00387
0.879011
0.760674
0.650494
0.549524
0.458857
0.379833
0.313574
0.261164
0.223153
0.199014
0.186752
0.182849
0.182538
0.180014
0.0355328
0
0.640664
2.34374
5.10752
8.41019
11.3106
12.7877
12.1786
9.49199
5.42164
1.04597
-2.62028
-4.98288
-5.97628
-5.9264
-5.30505
-4.51424
-3.7885
-3.202
-2.74032
-2.40061
-2.18839
-2.00971
-1.84537
-1.69154
-1.55077
-1.42887
-1.33085
-1.26094
-1.22082
-1.20821
-1.21651
-1.23582
-1.25485
-1.2634
-1.25555
-1.23093
-1.1911
-1.13814
-1.07479
-1.00418
-0.929325
-0.852758
-0.776353
-0.701254
-0.627902
-0.556105
-0.485123
-0.41377
-0.340543
-0.263783
-0.181885
-0.0935287
0.00210533
0.105207
0.215344
0.331639
0.45303
0.578612
0.707864
0.840688
0.977224
1.11752
1.26121
1.40684
1.55121
1.68844
1.80892
1.90151
1.95637
1.96552
1.92433
1.83262
1.69473
1.5184
1.31259
1.08539
0.844498
0.596271
0.34509
0.0946411
-0.150766
-0.386139
-0.606262
-0.80625
-0.98228
-1.13241
-1.25656
-1.35624
-1.43418
-1.49376
-1.53864
-1.57243
-1.59859
-1.62066
-1.64211
-1.66611
-1.69521
-1.73098
-1.77373
-1.8224
-1.8746
-1.92699
-1.97584
-2.01777
-2.05038
-2.07218
-2.08237
-2.0818
-2.07238
-2.0557
-2.03224
-2.00097
-1.95966
-1.90577
-1.83763
-1.75551
-1.66274
-1.56446
-1.46625
-1.3738
-1.29181
-1.22324
-1.16895
-1.12792
-1.09773
-1.07536
-1.05782
-1.04255
-1.02757
-1.01134
-0.992551
-0.969964
-0.94239
-0.908898
-0.869126
-0.823576
-0.773841
-0.722326
-0.672064
-0.626522
-0.589488
-0.564914
-0.556246
-0.565924
-0.595223
-0.643786
-0.709206
-0.787405
-0.87154
-0.951554
-1.01644
-1.05611
-1.06314
-1.03399
-0.969641
-0.875233
-0.758976
-0.630495
-0.499163
-0.371902
-0.252534
-0.143337
-0.0458451
0.0392019
0.111298
0.169348
0.211017
0.232911
0.232417
0.207736
0.159048
0.0894482
0.00531483
-0.0841999
-0.168597
-0.237779
-0.275766
-0.276416
-0.255132
-0.236222
-0.242738
-0.28686
-0.365034
-0.459605
-0.545735
-0.600409
-0.616798
-0.604234
-0.571081
-0.521904
-0.463453
-0.402736
-0.345846
-0.297139
-0.301038
-0.433333
0
1.37504
3.79759
6.90149
9.88716
11.7687
11.7733
9.70709
6.08348
1.91661
-1.72215
-4.13545
-5.18757
-5.18511
-4.59832
-3.80723
-3.02854
-2.36204
-1.86623
-1.59062
-1.39539
-1.19774
-0.999052
-0.802115
-0.61062
-0.430138
-0.266124
-0.123075
-0.00344982
0.092934
0.16879
0.22859
0.277401
0.319745
0.358959
0.396914
0.434419
0.471947
0.510194
0.550423
0.594516
0.644724
0.70322
0.771588
0.850464
0.939508
1.03769
1.14331
1.25495
1.37208
1.49526
1.62592
1.76579
1.91602
2.07645
2.24506
2.41823
2.59137
2.75941
2.91757
3.06186
3.18934
3.29806
3.38678
3.4546
3.50045
3.52286
3.52012
3.48981
3.42906
3.33497
3.20504
3.03769
2.83265
2.59151
2.31817
2.01987
1.70577
1.38563
1.06991
0.769071
0.49242
0.247877
0.0418159
-0.123769
-0.254392
-0.359932
-0.451324
-0.53785
-0.624875
-0.712552
-0.795784
-0.865405
-0.910311
-0.920252
-0.887886
-0.808907
-0.666574
-0.463395
-0.237626
-0.0365314
0.101133
0.153879
0.120871
0.0207115
-0.113366
-0.241458
-0.327478
-0.358227
-0.344635
-0.302872
-0.244791
-0.178293
-0.109833
-0.0444349
0.0147505
0.0663591
0.110315
0.147109
0.177011
0.200056
0.215759
0.223369
0.222264
0.212322
0.19412
0.168903
0.138358
0.10429
0.0683678
0.0318445
-0.00439415
-0.0396341
-0.0730892
-0.103663
-0.129659
-0.149203
-0.160484
-0.162248
-0.153136
-0.133653
-0.105641
-0.0707876
-0.029525
0.0196039
0.0797388
0.154653
0.24725
0.358218
0.483841
0.61913
0.759275
0.899481
1.03561
1.16473
1.28527
1.39688
1.5001
1.59587
1.68531
1.76953
1.84964
1.92689
2.00276
2.07906
2.15781
2.24108
2.33074
2.42842
2.53577
2.65281
2.77243
2.87928
2.95432
2.97885
2.93888
2.82856
2.65171
2.4211
2.15578
1.87705
1.60285
1.34173
1.09678
0.869897
0.663583
0.479927
0.320856
0.188109
0.0857365
0.0219421
0
-0.00202255
-0.0065094
-0.0410877
-0.126859
-0.271964
-0.468866
-0.699886
-0.983048
-0.685382
0.542319
2.87314
6.09821
9.53544
12.1716
13.0454
11.6963
8.41799
4.15023
0.0558167
-2.96802
-4.57651
-4.95204
-4.55584
-3.85435
-3.14533
-2.53815
-2.01508
-1.51952
-1.10888
-0.83884
-0.638388
-0.475291
-0.335022
-0.211219
-0.0985199
0.00866165
0.114908
0.222865
0.332552
0.439265
0.535042
0.611703
0.663875
0.691092
0.698265
0.694481
0.690698
0.697214
0.719864
0.759756
0.817051
0.891574
0.982232
1.08717
1.20406
1.33032
1.4634
1.60105
1.74157
1.88409
2.02856
2.17566
2.32645
2.48181
2.64191
2.80571
2.9708
3.13344
3.2888
3.43168
3.55738
3.66229
3.74417
3.80216
3.83635
3.8472
3.83487
3.79879
3.73787
3.65038
3.53457
3.38963
3.21637
3.01764
2.79831
2.56469
2.32367
2.08141
1.84266
1.6103
1.38542
1.16796
0.95773
0.755304
0.562703
0.383469
0.222021
0.082695
-0.0289299
-0.107402
-0.1547
-0.180239
-0.19545
-0.210571
-0.23203
-0.261356
-0.295842
-0.330481
-0.360265
-0.382619
-0.397694
-0.406192
-0.408551
-0.404987
-0.395081
-0.377654
-0.350981
-0.31308
-0.260934
-0.19098
-0.104941
-0.0158726
0.058596
0.101085
0.0994679
0.0504646
-0.0393173
-0.154953
-0.276511
-0.382959
-0.461649
-0.505125
-0.47228
-0.320948
-0.105917
0.0858841
0.163898
0.0686432
-0.201738
-0.586172
-0.980985
-1.27969
-1.43378
-1.51237
-1.54762
-1.54929
-1.52799
-1.49306
-1.45146
-1.40705
-1.36108
-1.31364
-1.2645
-1.21372
-1.16205
-1.11126
-1.06421
-1.02406
-0.993436
-0.973485
-0.963192
-0.959081
-0.955529
-0.945734
-0.923169
-0.882623
-0.816343
-0.726206
-0.628925
-0.545696
-0.495182
-0.487231
-0.519537
-0.578279
-0.642355
-0.689692
-0.705233
-0.689357
-0.648473
-0.588409
-0.513539
-0.427813
-0.334494
-0.235698
-0.132417
-0.0250111
0.0860432
0.199448
0.312443
0.420352
0.517394
0.597661
0.656146
0.689509
0.696382
0.677247
0.634077
0.569994
0.48954
0.398145
0.301529
0.205865
0.118147
0.0448441
-0.00918388
-0.0416904
-0.0536098
-0.0487419
-0.0335457
-0.0156246
-0.0023922
0
-0.0149403
-0.0474239
-0.0982197
-0.166869
-0.251494
-0.349348
-0.458217
-0.598785
-0.712111
-0.283266
1.02548
3.31525
6.28872
9.23761
11.2401
11.516
9.78399
6.42077
2.31917
-1.49418
-4.27034
-5.76137
-6.16943
-5.91048
-5.36377
-4.74628
-4.12281
-3.48546
-2.82779
-2.17271
-1.60403
-1.22387
-0.957708
-0.744473
-0.563534
-0.412318
-0.290861
-0.197433
-0.12886
-0.081039
-0.0495728
-0.0303879
-0.020422
-0.0174122
-0.0196823
-0.0258408
-0.0341446
-0.0419987
-0.0458279
-0.041404
-0.0245571
0.00796051
0.0572247
0.122311
0.201305
0.291194
0.388601
0.490441
0.59474
0.700768
0.80897
0.920638
1.03738
1.16054
1.29075
1.42765
1.56989
1.7153
1.86122
2.00482
2.14326
2.27363
2.39241
2.49559
2.58006
2.64306
2.68249
2.69727
2.68742
2.65396
2.59828
2.52161
2.42433
2.30715
2.17004
2.01197
1.8319
1.62982
1.40757
1.16925
0.921364
0.672347
0.432363
0.211491
0.0181347
-0.14227
-0.266835
-0.357575
-0.419463
-0.459032
-0.482885
-0.496547
-0.503906
-0.507259
-0.50779
-0.506199
-0.503234
-0.499657
-0.496293
-0.493689
-0.491725
-0.489323
-0.484441
-0.474361
-0.45628
-0.428043
-0.388824
-0.339523
-0.283045
-0.223119
-0.163794
-0.108879
-0.0613365
-0.0229195
0.00591736
0.0258621
0.0384277
0.0456093
0.0495277
0.052169
0.0552101
0.0599045
0.067012
0.0767761
0.0889397
0.102798
0.117323
0.131311
0.143657
0.153701
0.161506
0.168018
0.175023
0.18483
0.199734
0.221564
0.251426
0.287762
0.325386
0.357008
0.375041
0.373518
0.349718
0.305076
0.245158
0.1787
0.115912
0.0657143
0.0332939
0.0201126
0.0257927
0.0478111
0.0818329
0.122751
0.165725
0.207015
0.244251
0.27628
0.302711
0.323573
0.339016
0.349184
0.354433
0.355753
0.355225
0.356341
0.364056
0.384474
0.423765
0.48717
0.578358
0.698516
0.851215
1.03616
1.23525
1.4233
1.57638
1.6774
1.71926
1.70467
1.6432
1.54717
1.42814
1.29714
1.16157
1.02631
0.895609
0.773818
0.665369
0.575259
0.509754
0.472108
0.456001
0.450816
0.444593
0.427299
0.393445
0.343159
0.281511
0.216483
0.156406
0.106313
0.067498
0.0393501
0.0201866
0.00754089
0
-0.0376755
0.216637
1.16767
3.08695
5.88118
8.98673
11.495
12.4953
11.4804
8.60417
4.64021
0.654277
-2.44083
-4.21316
-4.77039
-4.55109
-4.08582
-3.6418
-3.29087
-2.95724
-2.53433
-2.05302
-1.60676
-1.2311
-0.925827
-0.674089
-0.461048
-0.281227
-0.132777
-0.0122414
0.0848183
0.163177
0.227304
0.281276
0.328617
0.372388
0.415357
0.460132
0.509094
0.564168
0.626453
0.696017
0.771883
0.851162
0.929532
1.0029
1.06882
1.12763
1.18297
1.24135
1.31084
1.39909
1.51125
1.647
1.80187
1.97091
2.14562
2.31767
2.481
2.63337
2.77677
2.91664
3.06027
3.21467
3.38707
3.58722
3.80946
4.02317
4.19236
4.28807
4.29785
4.22855
4.10098
3.93856
3.75585
3.55535
3.33773
3.10431
2.85528
2.59149
2.31653
2.03642
1.75868
1.49104
1.24028
1.01133
0.806779
0.626742
0.469242
0.331047
0.20854
0.0984993
-0.00139046
-0.0923679
-0.174717
-0.248022
-0.311531
-0.36432
-0.405287
-0.432808
-0.445449
-0.442175
-0.42258
-0.387419
-0.338499
-0.27916
-0.215439
-0.153815
-0.0998436
-0.0569889
-0.026054
-0.00538559
0.00824509
0.0184532
0.0281899
0.0390636
0.0516544
0.0660469
0.0823822
0.101313
0.124126
0.152455
0.18765
0.231008
0.28177
0.334808
0.382536
0.416888
0.431485
0.423354
0.393669
0.347403
0.29212
0.236383
0.187349
0.149037
0.123477
0.111683
0.113957
0.127948
0.149028
0.172138
0.192891
0.208374
0.217409
0.22023
0.217773
0.210944
0.200393
0.186541
0.169817
0.151443
0.133825
0.120599
0.116065
0.124294
0.14811
0.188319
0.243438
0.310049
0.383693
0.460056
0.536111
0.610861
0.685273
0.761944
0.844513
0.938163
1.04975
1.18115
1.31655
1.42991
1.49352
1.4868
1.40286
1.25092
1.05405
0.843282
0.65025
0.490516
0.362393
0.261834
0.190929
0.147979
0.125015
0.112031
0.0999191
0.0826664
0.0586739
0.0307873
0.00499992
-0.0117237
-0.0137474
0
0.035363
0.0822216
0.136816
0.194965
0.252566
0.247937
0.537409
1.39167
2.96386
5.20732
7.76728
9.98552
11.0929
10.5484
8.33575
5.0182
1.48784
-1.4426
-3.35113
-4.25313
-4.41601
-4.11775
-3.52397
-2.72295
-1.81548
-0.955042
-0.313715
-0.0583527
0.0180012
0.0810635
0.146348
0.219031
0.302607
0.397885
0.502808
0.613122
0.722534
0.82468
0.914574
0.989621
1.04991
1.09782
1.13704
1.17158
1.2049
1.23943
1.27687
1.3187
1.36664
1.42294
1.4903
1.57136
1.66803
1.78066
1.90746
2.04457
2.18714
2.32955
2.46694
2.59646
2.71794
2.83394
2.94901
3.06844
3.19662
3.33608
3.48823
3.64642
3.79816
3.93036
4.03356
4.10478
4.14788
4.17129
4.18393
4.19106
4.19207
4.18027
4.14503
4.07477
3.96038
3.79794
3.59
3.34525
3.07669
2.79953
2.52595
2.26355
2.01809
1.79308
1.59009
1.40948
1.25116
1.11522
1.00223
0.913354
0.85238
0.826007
0.834436
0.86329
0.893451
0.90605
0.888124
0.836732
0.759965
0.67447
0.60031
0.553598
0.53638
0.544443
0.576998
0.626137
0.682105
0.735943
0.781727
0.817788
0.846582
0.873331
0.903938
0.942696
0.991365
1.04863
1.10811
1.16115
1.19977
1.21911
1.21907
1.20446
1.18364
1.1661
1.15957
1.16648
1.18626
1.21385
1.2417
1.26222
1.26993
1.26286
1.24261
1.21328
1.17987
1.14683
1.11704
1.09192
1.07294
1.0617
1.05983
1.06887
1.09079
1.12577
1.16908
1.21137
1.24188
1.2514
1.2354
1.19597
1.14209
1.08783
1.04881
1.03722
1.0556
1.10264
1.1741
1.25711
1.33692
1.40084
1.44119
1.45642
1.45044
1.43035
1.40393
1.37753
1.35446
1.33626
1.32397
1.31854
1.32119
1.33371
1.35824
1.39685
1.45103
1.521
1.60529
1.70166
1.80455
1.90605
1.99849
2.07608
2.13606
2.1789
2.20748
2.22555
2.23605
2.23988
2.23547
2.21947
2.18815
2.13902
2.07212
1.9906
1.90021
1.80816
1.72134
1.64371
1.57649
1.51942
1.46942
1.42031
1.36425
1.2931
1.19033
1.02507
0.780259
0.497648
0.240828
0.0646422
0
0.0495615
0.199082
0.421977
0.6891
1.01078
1.48959
2.31692
3.7472
5.88031
8.46394
10.8443
12.1579
11.7159
9.37321
5.65669
1.55232
-1.92763
-4.14608
-5.0009
-4.80946
-4.04618
-3.11822
-2.26623
-1.58081
-1.06869
-0.752603
-0.620753
-0.524287
-0.436805
-0.351199
-0.263797
-0.172054
-0.0749512
0.0268294
0.129804
0.228052
0.315018
0.385223
0.435682
0.466641
0.481417
0.485394
0.484486
0.483554
0.485194
0.489786
0.495788
0.501181
0.505112
0.509218
0.518122
0.538839
0.579176
0.645606
0.739923
0.858899
0.998567
1.15268
1.31342
1.47423
1.6314
1.78459
1.93617
2.0896
2.24747
2.40985
2.5736
2.733
2.88098
3.01075
3.1171
3.19705
3.24953
3.2746
3.27155
3.24036
3.18105
3.09459
2.98423
2.85623
2.71984
2.586
2.46566
2.374
2.3168
2.28038
2.2414
2.1756
2.06684
1.91297
1.72643
1.5298
1.348
1.19545
1.07022
0.97558
0.90637
0.853541
0.807276
0.759906
0.707869
0.652173
0.597337
0.549325
0.513285
0.490026
0.478038
0.475755
0.480614
0.489772
0.500717
0.511831
0.522491
0.533041
0.54463
0.558933
0.577801
0.602865
0.635145
0.674756
0.720829
0.771101
0.821855
0.868592
0.907147
0.934622
0.950054
0.954627
0.951351
0.944274
0.937466
0.934066
0.935485
0.941431
0.950724
0.961938
0.973768
0.985512
0.997351
1.01039
1.02647
1.04774
1.07616
1.11306
1.15916
1.21396
1.27414
1.33293
1.38249
1.41598
1.42952
1.42341
1.40228
1.37404
1.34787
1.33198
1.33049
1.34307
1.36742
1.40056
1.43896
1.4787
1.51582
1.54682
1.56918
1.58153
1.58376
1.57701
1.56357
1.54653
1.5294
1.51547
1.50731
1.50621
1.51226
1.52483
1.5426
1.56411
1.58838
1.61537
1.64624
1.68312
1.72864
1.78554
1.85797
1.94832
2.04919
2.14459
2.21619
2.24846
2.23282
2.16936
2.06583
1.93478
1.79004
1.6438
1.50255
1.36847
1.24192
1.12228
1.00827
0.898312
0.791003
0.685606
0.582385
0.482634
0.388381
0.301818
0.224635
0.157523
0.0997482
0.0486757
0
-0.0474787
-0.101066
-0.162856
-0.232688
-0.311152
-0.546937
-0.364804
0.623441
2.67053
5.70788
9.21392
12.2691
13.8486
13.2645
10.5237
6.36909
1.9522
-1.67423
-3.94442
-4.85733
-4.77895
-4.1626
-3.3565
-2.56421
-1.88335
-1.35503
-0.991139
-0.727837
-0.498706
-0.289059
-0.0955077
0.0817099
0.241208
0.382008
0.504265
0.609147
0.698529
0.774505
0.838786
0.89209
0.933873
0.963078
0.978989
0.981842
0.973922
0.960138
0.947735
0.945053
0.95963
0.996252
1.05513
1.13299
1.22358
1.31963
1.41485
1.50586
1.59207
1.67545
1.75946
1.8478
1.94298
2.04587
2.15616
2.27253
2.39298
2.51517
2.63674
2.75535
2.86867
2.97431
3.06981
3.15245
3.21915
3.26662
3.29195
3.29244
3.26583
3.21055
3.12594
3.01243
2.87153
2.70575
2.51843
2.31394
2.09681
1.87113
1.64093
1.41047
1.18424
0.966826
0.762615
0.575394
0.407914
0.261551
0.135982
0.029348
-0.061419
-0.140093
-0.210586
-0.276403
-0.340186
-0.403363
-0.465916
-0.52607
-0.57976
-0.621388
-0.644973
-0.645446
-0.620097
-0.569651
-0.498593
-0.414618
-0.327335
-0.246583
-0.180002
-0.133208
-0.108837
-0.106446
-0.122848
-0.15279
-0.189731
-0.227267
-0.260041
-0.284364
-0.298847
-0.303902
-0.300818
-0.291429
-0.277383
-0.259585
-0.23795
-0.211557
-0.179105
-0.139563
-0.0925968
-0.0392594
0.0173614
0.0718263
0.116461
0.143239
0.145154
0.117847
0.0610515
-0.0205068
-0.117154
-0.215465
-0.300532
-0.358917
-0.383776
-0.359602
-0.283595
-0.176841
-0.0676593
0.0174699
0.060915
0.0576744
0.0155705
-0.047495
-0.108241
-0.143718
-0.142568
-0.106033
-0.0301545
0.0801325
0.20199
0.30932
0.380591
0.405261
0.386619
0.340171
0.288214
0.252446
0.244799
0.261501
0.29869
0.347914
0.399179
0.444518
0.480973
0.511995
0.546787
0.597822
0.677443
0.798196
0.995528
1.29932
1.6647
2.00558
2.25019
2.34892
2.28125
2.06304
1.74649
1.40879
1.13292
0.961884
0.863992
0.805207
0.770423
0.754643
0.749691
0.747386
0.741006
0.726394
0.702367
0.670242
0.63265
0.592055
0.549567
0.504625
0.455256
0.399031
0.334027
0.259555
0.175249
0
0.142219
0.919486
2.5711
5.1456
8.3467
11.4841
13.6269
13.9594
12.1751
8.6766
4.433
0.557622
-2.15339
-3.46765
-3.6487
-3.18345
-2.48915
-1.78481
-1.12318
-0.504635
0.0287479
0.369736
0.606329
0.825784
1.04219
1.25741
1.47034
1.67702
1.87117
2.04612
2.1965
2.32011
2.41882
2.49823
2.56615
2.63048
2.69736
2.76971
2.84774
2.93121
3.0196
3.11262
3.21029
3.31286
3.42036
3.53239
3.64787
3.7656
3.88463
4.00462
4.12608
4.2504
4.37961
4.5158
4.66054
4.81432
4.97621
5.14388
5.31391
5.48239
5.6456
5.80062
5.94569
6.0801
6.20356
6.31552
6.41486
6.50025
6.56965
6.6205
6.65043
6.65764
6.64086
6.59885
6.52974
6.43067
6.30039
6.13934
5.94846
5.72979
5.48864
5.23375
4.97652
4.72948
4.50487
4.31595
4.17701
4.09124
4.04367
4.01326
3.97918
3.92653
3.84961
3.75212
3.6446
3.54027
3.44985
3.3764
3.31996
3.2808
3.25767
3.24803
3.24854
3.25526
3.26391
3.27061
3.27237
3.26745
3.25563
3.23818
3.21749
3.19652
3.17809
3.1641
3.15529
3.1512
3.15025
3.15021
3.14883
3.14449
3.13671
3.12649
3.11623
3.10936
3.10959
3.12072
3.14697
3.1892
3.23718
3.27405
3.2821
3.24891
3.17225
3.06183
2.9369
2.82022
2.73078
2.67074
2.64197
2.63634
2.64109
2.64327
2.63335
2.60725
2.56613
2.51466
2.45879
2.40381
2.35272
2.30727
2.26886
2.23861
2.21718
2.20466
2.20044
2.20311
2.2105
2.21992
2.22887
2.23551
2.23916
2.24039
2.24084
2.2427
2.24789
2.25736
2.2706
2.28507
2.29611
2.29786
2.28448
2.25142
2.19645
2.12015
2.02575
1.9184
1.80397
1.68787
1.57376
1.46334
1.35704
1.25419
1.15361
1.05411
0.955018
0.856387
0.75896
0.663893
0.572295
0.484765
0.401038
0.319753
0.238704
0.155342
0.0674385
-0.0262966
-0.125901
-0.235601
-0.344321
0
1.07284
3.04359
5.77626
8.73526
11.061
11.8725
10.6792
7.66805
3.6611
-0.255338
-3.2123
-4.86623
-5.38459
-5.20379
-4.7225
-4.16172
-3.58199
-2.9861
-2.41018
-1.97815
-1.76547
-1.64699
-1.56168
-1.4918
-1.4321
-1.38101
-1.3376
-1.30116
-1.27108
-1.24646
-1.22602
-1.20797
-1.19017
-1.17049
-1.14725
-1.11913
-1.0867
-1.05396
-1.02619
-1.0078
-1.00028
-1.00107
-1.00399
-1.00116
-0.985568
-0.953399
-0.907465
-0.852124
-0.790826
-0.726548
-0.661373
-0.596037
-0.529907
-0.461329
-0.388221
-0.308764
-0.221904
-0.127623
-0.0269669
0.0782833
0.185769
0.293367
0.399696
0.504327
0.607524
0.709671
0.809997
0.903442
0.97957
1.02427
1.02357
0.967843
0.854989
0.691618
0.492091
0.275421
0.0603241
-0.142743
-0.33154
-0.506032
-0.671412
-0.835114
-1.00368
-1.17987
-1.36101
-1.53927
-1.70383
-1.84404
-1.95658
-2.03905
-2.09169
-2.11911
-2.13029
-2.13559
-2.14319
-2.15729
-2.17764
-2.20026
-2.21926
-2.22916
-2.22693
-2.21245
-2.18962
-2.16367
-2.13825
-2.11279
-2.08139
-2.03372
-1.9577
-1.84333
-1.68858
-1.50125
-1.29099
-1.0674
-0.841691
-0.62612
-0.432541
-0.270787
-0.146805
-0.062764
-0.0177967
-0.0087265
-0.0308842
-0.0789433
-0.147749
-0.233085
-0.33228
-0.444164
-0.568808
-0.706965
-0.859617
-1.02715
-1.20836
-1.40007
-1.59721
-1.79339
-1.98171
-2.15555
-2.30966
-2.44064
-2.54707
-2.6291
-2.68829
-2.72675
-2.74662
-2.74973
-2.73767
-2.71204
-2.6748
-2.62842
-2.57592
-2.52043
-2.46469
-2.41059
-2.35891
-2.30942
-2.26122
-2.21319
-2.1643
-2.11372
-2.06065
-2.00401
-1.94213
-1.87279
-1.79341
-1.70167
-1.59595
-1.47583
-1.34251
-1.19801
-1.04483
-0.885904
-0.724482
-0.564026
-0.40829
-0.261171
-0.125987
-0.00509872
0.100499
0.191282
0.268847
0.33402
0.386208
0.423025
0.440006
0.430405
0.387988
0.310282
0.201007
0.0706903
-0.0648886
-0.188043
-0.284296
-0.348018
-0.37678
-0.374351
-0.34948
-0.313635
-0.27835
-0.251989
-0.238163
-0.238702
-0.252829
-0.277766
-0.309575
-0.344013
-0.371726
0
0.915146
2.65414
5.27661
8.44607
11.4027
13.2029
13.1395
11.1057
7.66255
3.76512
0.325344
-2.11546
-3.45123
-3.85931
-3.61521
-2.97275
-2.15736
-1.36542
-0.734194
-0.309106
-0.00867968
0.256094
0.499195
0.724993
0.932352
1.1187
1.28305
1.42645
1.55181
1.6634
1.76615
1.86477
1.96304
2.06328
2.16616
2.2709
2.37569
2.47843
2.57729
2.67124
2.76033
2.84569
2.92922
3.01336
3.10065
3.19358
3.29446
3.40541
3.52832
3.66478
3.81584
3.98172
4.1615
4.35294
4.55244
4.75528
4.95603
5.14916
5.32942
5.4931
5.63843
5.76577
5.87743
5.97706
6.06849
6.15431
6.23563
6.30975
6.36977
6.40595
6.40808
6.3675
6.27836
6.13817
5.94788
5.71194
5.43959
5.14343
4.83677
4.53188
4.23847
3.96343
3.71243
3.48901
3.29441
3.1278
2.98685
2.86833
2.7686
2.68422
2.61193
2.54893
2.49307
2.44294
2.39786
2.35786
2.32352
2.29569
2.2752
2.26251
2.25761
2.26006
2.26903
2.28348
2.30253
2.32559
2.35266
2.38427
2.42144
2.46539
2.5172
2.57738
2.6459
2.72173
2.80148
2.87949
2.94911
3.0036
3.03645
3.04369
3.02435
2.98074
2.9186
2.84671
2.77584
2.7169
2.67874
2.66609
2.67613
2.70189
2.73668
2.77282
2.80316
2.82237
2.82761
2.81863
2.79728
2.7668
2.7311
2.69386
2.65806
2.62595
2.59896
2.57768
2.56198
2.55099
2.54324
2.53695
2.53026
2.52158
2.50975
2.49443
2.4762
2.45667
2.43833
2.42432
2.41796
2.42223
2.4391
2.46906
2.51092
2.56196
2.61751
2.67085
2.71403
2.7398
2.74261
2.71941
2.67016
2.59769
2.50699
2.40406
2.29457
2.18276
2.07091
1.95963
1.8489
1.73861
1.62896
1.52065
1.41467
1.31189
1.21274
1.11673
1.02259
0.9286
0.833194
0.735548
0.635915
0.535598
0.43655
0.340743
0.24943
0.162861
0.0801769
0
-0.0715008
0.0119431
0.677411
2.26395
4.80644
7.8641
10.5669
11.9234
11.2661
8.59716
4.6209
0.429505
-2.97809
-5.06639
-5.84243
-5.67
-4.99376
-4.15409
-3.346
-2.65921
-2.11606
-1.6844
-1.28831
-0.93828
-0.630983
-0.392698
-0.243231
-0.188486
-0.215654
-0.294052
-0.382503
-0.441187
-0.444891
-0.405389
-0.341422
-0.262355
-0.179575
-0.10421
-0.0450714
-0.00738487
0.00744133
0.000984955
-0.0237015
-0.0637413
-0.117072
-0.182409
-0.259702
-0.350248
-0.457229
-0.584881
-0.731762
-0.880109
-1.0036
-1.0763
-1.07981
-1.00805
-0.867915
-0.675963
-0.453104
-0.21983
0.00758781
0.22184
0.419851
0.597565
0.75051
0.875706
0.971498
1.03759
1.07486
1.08489
1.06941
1.02971
0.966345
0.88006
0.771881
0.642329
0.4917
0.321069
0.132576
-0.0705055
-0.283784
-0.501923
-0.718802
-0.927835
-1.12244
-1.29666
-1.44577
-1.56653
-1.6578
-1.7213
-1.76164
-1.78482
-1.79713
-1.80413
-1.80986
-1.81654
-1.82479
-1.83405
-1.84337
-1.85201
-1.85988
-1.86763
-1.87656
-1.88838
-1.90483
-1.9273
-1.95648
-1.99207
-2.03276
-2.07645
-2.12057
-2.16263
-2.20063
-2.2337
-2.26231
-2.28774
-2.31125
-2.33316
-2.35219
-2.36503
-2.36709
-2.35348
-2.32039
-2.26629
-2.19259
-2.1036
-2.00569
-1.90608
-1.81148
-1.72635
-1.65307
-1.59257
-1.54422
-1.50624
-1.47604
-1.45059
-1.42689
-1.40193
-1.37281
-1.33705
-1.29276
-1.23885
-1.1751
-1.10203
-1.02064
-0.931985
-0.836773
-0.735198
-0.626848
-0.510869
-0.386153
-0.251548
-0.106815
0.0442733
0.190812
0.318323
0.413192
0.466846
0.478786
0.457177
0.416527
0.373059
0.339449
0.319334
0.308371
0.301455
0.294169
0.282732
0.265142
0.241747
0.215117
0.189273
0.168528
0.155889
0.152935
0.159387
0.172317
0.187203
0.198894
0.202643
0.194942
0.174036
0.140057
0.0948435
0.0415987
-0.017823
0
0.4188
1.51457
3.45457
6.10433
8.94165
11.1575
11.9538
10.9092
8.2099
4.5923
1.01475
-1.75172
-3.37817
-3.96324
-3.83115
-3.31455
-2.63134
-1.92908
-1.32
-0.875101
-0.522457
-0.163665
0.17117
0.47988
0.760306
1.00479
1.20908
1.37315
1.501
1.59971
1.67779
1.74351
1.8038
1.86307
1.92345
1.9856
2.0492
2.11329
2.17661
2.2377
2.29503
2.34738
2.39398
2.43487
2.4711
2.50492
2.53963
2.57933
2.62845
2.69127
2.77099
2.8697
2.98868
3.12816
3.28709
3.46308
3.65246
3.85041
4.05122
4.2486
4.43593
4.60706
4.75695
4.88198
4.98006
5.05036
5.09295
5.10814
5.09608
5.05644
4.98904
4.89323
4.76891
4.61698
4.43961
4.24019
4.02314
3.79364
3.55695
3.31802
3.08143
2.85116
2.63042
2.42153
2.22586
2.04396
1.87586
1.72141
1.58072
1.45428
1.34292
1.2476
1.16924
1.108
1.06195
1.02708
0.998632
0.972082
0.94403
0.912653
0.877602
0.839423
0.798786
0.755943
0.710612
0.662218
0.610597
0.556667
0.502834
0.452968
0.411878
0.384439
0.374316
0.383647
0.412297
0.458484
0.518809
0.586206
0.650346
0.700996
0.730072
0.73322
0.710814
0.668092
0.614266
0.560715
0.518601
0.494796
0.491639
0.513734
0.556899
0.60638
0.645356
0.660178
0.644795
0.602826
0.546441
0.492289
0.45583
0.444622
0.457879
0.488741
0.523835
0.549291
0.555892
0.542769
0.518451
0.498934
0.503381
0.548745
0.638729
0.765844
0.930262
1.12747
1.33656
1.529
1.67961
1.7715
1.79872
1.76638
1.68858
1.58459
1.47406
1.37194
1.28327
1.20561
1.13434
1.06501
0.993549
0.916395
0.831246
0.737491
0.636353
0.530722
0.424708
0.322792
0.229212
0.147436
0.0798325
0.0267012
-0.0147152
-0.0492615
-0.082813
-0.121189
-0.169142
-0.229638
-0.303518
-0.389561
-0.484835
-0.591709
-0.549383
0
1.35277
3.61473
6.5424
9.51582
11.6959
12.3262
11.0545
8.1095
4.22931
0.368425
-2.66601
-4.46703
-5.06736
-4.79968
-4.08041
-3.24757
-2.49933
-1.91171
-1.49995
-1.25872
-1.07131
-0.898289
-0.732774
-0.573239
-0.419541
-0.272012
-0.131133
0.00252047
0.128172
0.24445
0.349367
0.440989
0.517961
0.57972
0.627058
0.662468
0.690085
0.715155
0.743127
0.778616
0.82431
0.880541
0.946244
1.01964
1.09867
1.18168
1.26786
1.35733
1.45089
1.54958
1.65427
1.76529
1.88245
2.00527
2.13307
2.26509
2.40039
2.53785
2.67591
2.81251
2.94506
3.07062
3.18627
3.28934
3.37766
3.44954
3.503
3.53599
3.54709
3.5347
3.49716
3.43302
3.34142
3.22239
3.07702
2.90755
2.71768
2.51262
2.29762
2.07819
1.86026
1.64982
1.45245
1.27285
1.11445
0.97928
0.867859
0.779585
0.71321
0.66743
0.640881
0.6323
0.640404
0.663496
0.699933
0.746986
0.798835
0.847805
0.886665
0.91029
0.916933
0.908668
0.89087
0.870936
0.856684
0.854199
0.866135
0.893534
0.936771
0.995084
1.06636
1.14748
1.23432
1.32145
1.40291
1.4735
1.52967
1.57024
1.59672
1.61311
1.62515
1.63919
1.66077
1.69355
1.74122
1.80019
1.85316
1.87819
1.85611
1.7782
1.65132
1.49788
1.34998
1.23943
1.18521
1.17369
1.20334
1.26133
1.33029
1.39258
1.43361
1.44402
1.42043
1.36512
1.28508
1.1905
1.09315
1.00347
0.92893
0.872927
0.835692
0.816427
0.81241
0.819732
0.834113
0.851564
0.869149
0.885138
0.899031
0.911516
0.924275
0.939634
0.960065
0.987597
1.02323
1.06676
1.11638
1.16806
1.21683
1.25781
1.28721
1.30309
1.30541
1.29577
1.27652
1.24988
1.21739
1.17922
1.13435
1.08089
1.01696
0.941481
0.854814
0.75914
0.658314
0.557241
0.461012
0.374564
0.30085
0.239023
0.185623
0.135837
0.0850594
0.0301759
-0.029803
-0.0938708
-0.159739
-0.224815
-0.287286
-0.34613
-0.401172
-0.453024
-0.500936
-0.448514
0
1.19287
3.35213
6.34279
9.56766
12.0932
13.0015
11.8027
8.68408
4.44582
0.157177
-3.27038
-5.36709
-6.1396
-5.91357
-5.11994
-4.14451
-3.25799
-2.59899
-2.18355
-1.94866
-1.79157
-1.66837
-1.56685
-1.48647
-1.42788
-1.38886
-1.36467
-1.34907
-1.3357
-1.3195
-1.29798
-1.27135
-1.2413
-1.21036
-1.18137
-1.15672
-1.13781
-1.12474
-1.11634
-1.11035
-1.10376
-1.09328
-1.0758
-1.04877
-1.01053
-0.960671
-0.899634
-0.829313
-0.752848
-0.673553
-0.594249
-0.516812
-0.442095
-0.370177
-0.300781
-0.23363
-0.168471
-0.105073
-0.0430026
0.0186576
0.0813375
0.146761
0.216626
0.29227
0.373711
0.456365
0.529106
0.577667
0.588334
0.551921
0.46662
0.338486
0.179164
0.00151815
-0.185175
-0.377305
-0.575747
-0.783117
-1.00283
-1.23696
-1.48508
-1.74366
-2.00627
-2.26446
-2.50917
-2.73217
-2.92698
-3.09008
-3.22196
-3.32601
-3.40759
-3.47285
-3.52787
-3.57804
-3.62772
-3.68024
-3.73773
-3.80095
-3.86924
-3.9402
-4.00958
-4.07156
-4.11943
-4.14454
-4.12912
-4.05029
-3.91866
-3.77493
-3.66546
-3.62491
-3.66376
-3.76554
-3.8944
-4.00921
-4.07811
-4.10081
-4.0939
-4.06857
-4.03103
-3.98667
-3.9418
-3.90287
-3.87504
-3.86157
-3.86344
-3.87926
-3.90561
-3.93774
-3.97055
-3.99953
-4.022
-4.03702
-4.04428
-4.04409
-4.03732
-4.02519
-4.00909
-3.99052
-3.9711
-3.95265
-3.93738
-3.9278
-3.92628
-3.93469
-3.95372
-3.98233
-4.01737
-4.05361
-4.08427
-4.10197
-4.10036
-4.07208
-4.0044
-3.89016
-3.74847
-3.6127
-3.51548
-3.47815
-3.50369
-3.57506
-3.65973
-3.71878
-3.71827
-3.65292
-3.53971
-3.39433
-3.2275
-3.04876
-2.86805
-2.69524
-2.53868
-2.40449
-2.29617
-2.21482
-2.1596
-2.1285
-2.11915
-2.12939
-2.15758
-2.20239
-2.26297
-2.33815
-2.42599
-2.52346
-2.62644
-2.73005
-2.82902
-2.9185
-2.99469
-3.05517
-3.09904
-3.12672
-3.13959
-3.13957
-3.12878
-3.1095
-3.08371
-3.05319
-3.01956
-2.98422
-2.94829
-2.9128
-2.94997
-2.62411
-1.59125
0.367154
87
281
491
704
901
1101
1314
1523
1722
1938
2152
2363
2561
2769
2967
3153
3344
3549
0
0
0
0
0
0
0
0
0
0
0
0
0
0
0
0
0
0
0
0
0
0
0
0
0
0
0
0
0
0
0
0
0
0
0
0
0
0
0
0
0
0
0
0
0
0
0
0
0
0
0
0
0
0
0
0
0
0
0
0
0
0
0
0
0
0
0
0
0
0
0
0
0
0
0
0
0
0
0
0
0
0
0
0
0
0
0
0
0
0
0
0
0
0
0
0
0
0
0
0
0
0
0
0
0
0
0
0
0
0
0
0
0
0
0
0
0
0
0
0
0
0
0
0
0
0
0
0
0
0
0
0
0
0
0
0
0
0
0
0
0
0
0
0
0
0
0
0
0
0
0
0
0
0
0
0
0
0
0
0
0
0
0
0
0
0
0
0
0
0
0
0
0
0
0
0
0
0
0
0
0
0
0
0
0
0
0
0
0
0
0
0
0
0
0
0
0
0
0
0
0
0
0
0
0
0
0
0
0
0
0
0
0
0
0
0
0
0
0
0
0
0
0
0
0
0
0
0
0
0
0
0
0
0
0
0
0
0
0
0
0
0
0
0
0
0
0
0
0
0
0
0
0
0
0
0
0
0
0
0
0
0
0
0
0
0
0
0
0
0
0
0
0
0
0
0
0
0
0
0
0
0
0
0
0
0
0
0
0
0
0
0
0
0
0
0
0
0
0
0
0
0
0
0
0
0
0
0
0
0
0
0
0
0
0
0
0
0
0
0
0
0
0
0
0
0
0
0
0
0
0
0
0
0
0
0
0
0
0
0
0
0
0
0
0
0
0
0
0
0
0
0
0
0
0
0
0
0
0
0
0
0
0
0
0
0
0
0
0
0
0
0
0
0
0
0
0
0
0
0
0
0
0
0
0
0
0
0
0
0
0
0
0
0
0
0
0
0
0
0
0
0
0
0
0
0
0
0
0
0
0
0
0
0
0
0
0
0
0
0
0
0
0
0
0
0
0
0
0
0
0
0
0
0
0
0
0
0
0
0
0
0
0
0
0
0
0
0
0
0
0
0
0
0
0
0
0
0
0
0
0
0
0
0
0
0
0
0
0
0
0
0
0
0
0
0
0
0
0
0
0
0
0
0
0
0
0
0
0
0
0
0
0
0
0
0
0
0
0
0
0
0
0
0
0
0
0
0
0
0
0
0
0
0
0
0
0
0
0
0
0
0
0
0
0
0
0
0
0
0
0
0
0
0
0
0
0
0
0
0
0
0
0
0
0
0
0
0
0
0
0
0
0
0
0
0
0
0
0
0
0
0
0
0
0
0
0
0
0
0
0
0
0
0
0
0
0
0
0
0
0
0
0
0
0
0
0
0
0
0
0
0
0
0
0
0
0
0
0
0
0
0
0
0
0
0
0
0
0
0
0
0
0
0
0
0
0
0
0
0
0
0
0
0
0
0
0
0
0
0
0
0
0
0
0
0
0
0
0
0
0
0
0
0
0
0
0
0
0
0
0
0
0
0
0
0
0
0
0
0
0
0
0
0
0
0
0
0
0
0
0
0
0
0
0
0
0
0
0
0
0
0
0
0
0
0
0
0
0
0
0
0
0
0
0
0
0
0
0
0
0
0
0
0
0
0
0
0
0
0
0
0
0
0
0
0
0
0
0
0
0
0
0
0
0
0
0
0
0
0
0
0
0
0
0
0
0
0
0
0
0
0
0
0
0
0
0
0
0
0
0
0
0
0
0
0
0
0
0
0
0
0
0
0
0
0
0
0
0
0
0
0
0
0
0
0
0
0
0
0
0
0
0
0
0
0
0
0
0
0
0
0
0
0
0
0
0
0
0
0
0
0
0
0
0
0
0
0
0
0
0
0
0
0
0
0
0
0
0
0
0
0
0
0
0
0
0
0
0
0
0
0
0
0
0
0
0
0
0
0
0
0
0
0
0
0
0
0
0
0
0
0
0
0
0
0
0
0
0
0
0
0
0
0
0
0
0
0
0
0
0
0
0
0
0
0
0
0
0
0
0
0
0
0
0
0
0
0
0
0
0
0
0
0
0
0
0
0
0
0
0
0
0
0
0
0
0
0
0
0
0
0
0
0
0
0
0
0
0
0
0
0
0
0
0
0
0
0
0
0
0
0
0
0
0
0
0
0
0
0
0
0
0
0
0
0
0
0
0
0
0
0
0
0
0
0
0
0
0
0
0
0
0
0
0
0
0
0
0
0
0
0
0
0
0
0
0
0
0
0
0
0
0
0
0
0
0
0
0
0
0
0
0
0
0
0
0
0
0
0
0
0
0
0
0
0
0
0
0
0
0
0
0
0
0
0
0
0
0
0
0
0
0
0
0
0
0
0
0
0
0
0
0
0
0
0
0
0
0
0
0
0
0
0
0
0
0
0
0
0
0
0
0
0
0
0
0
0
0
0
0
0
0
0
0
0
0
0
0
0
0
0
0
0
0
0
0
0
0
0
0
0
0
0
0
0
0
0
0
0
0
0
0
0
0
0
0
0
0
0
0
0
0
0
0
0
0
0
0
0
0
0
0
0
0
0
0
0
0
0
0
0
0
0
0
0
0
0
0
0
0
0
0
0
0
0
0
0
0
0
0
0
0
0
0
0
0
0
0
0
0
0
0
0
0
0
0
0
0
0
0
0
0
0
0
0
0
0
0
0
0
0
0
0
0
0
0
0
0
0
0
0
0
0
0
0
0
0
0
0
0
0
0
0
0
0
0
0
0
0
0
0
0
0
0
0
0
0
0
0
0
0
0
0
0
0
0
0
0
0
0
0
0
0
0
0
0
0
0
0
0
0
0
0
0
0
0
0
0
0
0
0
0
0
0
0
0
0
0
0
0
0
0
0
0
0
0
0
0
0
0
0
0
0
0
0
0
0
0
0
0
0
0
0
0
0
0
0
0
0
0
0
0
0
0
0
0
0
0
0
0
0
0
0
0
0
0
0
0
0
0
0
0
0
0
0
0
0
0
0
0
0
0
0
0
0
0
0
0
0
0
0
0
0
0
0
0
0
0
0
0
0
0
0
0
0
0
0
0
0
0
0
0
0
0
0
0
0
0
0
0
0
0
0
0
0
0
0
0
0
0
0
0
0
0
0
0
0
0
0
0
0
0
0
0
0
0
0
0
0
0
0
0
0
0
0
0
0
0
0
0
0
0
0
0
0
0
0
0
0
0
0
0
0
0
0
0
0
0
0
0
0
0
0
0
0
0
0
0
0
0
0
0
0
0
0
0
0
0
0
0
0
0
0
0
0
0
0
0
0
0
0
0
0
0
0
0
0
0
0
0
0
0
0
0
0
0
0
0
0
0
0
0
0
0
0
0
0
0
0
0
0
0
0
0
0
0
0
0
0
0
0
0
0
0
0
0
0
0
0
0
0
0
0
0
0
0
0
0
0
0
0
0
0
0
0
0
0
0
0
0
0
0
0
0
0
0
0
0
0
0
0
0
0
0
0
0
0
0
0
0
0
0
0
0
0
0
0
0
0
0
0
0
0
0
0
0
0
0
0
0
0
0
0
0
0
0
0
0
0
0
0
0
0
0
0
0
0
0
0
0
0
0
0
0
0
0
0
0
0
0
0
0
0
0
0
0
0
0
0
0
0
0
0
0
0
0
0
0
0
0
0
0
0
0
0
0
0
0
0
0
0
0
0
0
0
0
0
0
0
0
0
0
0
0
0
0
0
0
0
0
0
0
0
0
0
0
0
0
0
0
0
0
0
0
0
0
0
0
0
0
0
0
0
0
0
0
0
0
0
0
0
0
0
0
0
0
0
0
0
0
0
0
0
0
0
0
0
0
0
0
0
0
0
0
0
0
0
0
0
0
0
0
0
0
0
0
0
0
0
0
0
0
0
0
0
0
0
0
0
0
0
0
0
0
0
0
0
0
0
0
0
0
0
0
0
0
0
0
0
0
0
0
0
0
0
0
0
0
0
0
0
0
0
0
0
0
0
0
0
0
0
0
0
0
0
0
0
0
0
0
0
0
0
0
0
0
0
0
0
0
0
0
0
0
0
0
0
0
0
0
0
0
0
0
0
0
0
0
0
0
0
0
0
0
0
0
0
0
0
0
0
0
0
0
0
0
0
0
0
0
0
0
0
0
0
0
0
0
0
0
0
0
0
0
0
0
0
0
0
0
0
0
0
0
0
0
0
0
0
0
0
0
0
0
0
0
0
0
0
0
0
0
0
0
0
0
0
0
0
0
0
0
0
0
0
0
0
0
0
0
0
0
0
0
0
0
0
0
0
0
0
0
0
0
0
0
0
0
0
0
0
0
0
0
0
0
0
0
0
0
0
0
0
0
0
0
0
0
0
0
0
0
0
0
0
0
0
0
0
0
0
0
0
0
0
0
0
0
0
0
0
0
0
0
0
0
0
0
0
0
0
0
0
0
0
0
0
0
0
0
0
0
0
0
0
0
0
0
0
0
0
0
0
0
0
0
0
0
0
0
0
0
0
0
0
0
0
0
0
0
0
0
0
0
0
0
0
0
0
0
0
0
0
0
0
0
0
0
0
0
0
0
0
0
0
0
0
0
0
0
0
0
0
0
0
0
0
0
0
0
0
0
0
0
0
0
0
0
0
0
0
0
0
0
0
0
0
0
0
0
0
0
0
0
0
0
0
0
0
0
0
0
0
0
0
0
0
0
0
0
0
0
0
0
0
0
0
0
0
0
0
0
0
0
0
0
0
0
0
0
0
0
0
0
0
0
0
0
0
0
0
0
0
0
0
0
0
0
0
0
0
0
0
0
0
0
0
0
0
0
0
0
0
0
0
0
0
0
0
0
0
0
0
0
0
0
0
0
0
0
0
0
0
0
0
0
0
0
0
0
0
0
0
0
0
0
0
0
0
0
0
0
0
0
0
0
0
0
0
0
0
0
0
0
0
0
0
0
0
0
0
0
0
0
0
0
0
0
0
0
0
0
0
0
0
0
0
0
0
0
0
0
0
0
0
0
0
0
0
0
0
0
0
0
0
0
0
0
0
0
0
0
0
0
0
0
0
0
0
0
0
0
0
0
0
0
0
0
0
0
0
0
0
0
0
0
0
0
0
0
0
0
0
0
0
0
0
0
0
0
0
0
0
0
0
0
0
0
0
0
0
0
0
0
0
0
0
0
0
0
0
0
0
0
0
0
0
0
0
0
0
0
0
0
0
0
0
0
0
0
0
0
0
0
0
0
0
0
0
0
0
0
0
0
0
0
0
0
0
0
0
0
0
0
0
0
0
0
0
0
0
0
0
0
0
0
0
0
0
0
0
0
0
0
0
0
0
0
0
0
0
0
0
0
0
0
0
0
0
0
0
0
0
0
0
0
0
0
0
0
0
0
0
0
0
0
0
0
0
0
0
0
0
0
0
0
0
0
0
0
0
0
0
0
0
0
0
0
0
0
0
0
0
0
0
0
0
0
0
0
0
0
0
0
0
0
0
0
0
0
0
0
0
0
0
0
0
0
0
0
0
0
0
0
0
0
0
0
0
0
0
0
0
0
0
0
0
0
0
0
0
0
0
0
0
0
0
0
0
0
0
0
0
0
0
0
0
0
0
0
0
0
0
0
0
0
0
0
0
0
0
0
0
0
0
0
0
0
0
0
0
0
0
0
0
0
0
0
0
0
0
0
0
0
0
0
0
0
0
0
0
0
0
0
0
0
0
0
0
0
0
0
0
0
0
0
0
0
0
0
0
0
0
0
0
0
0
0
0
0
0
0
0
0
0
0
0
0
0
0
0
0
0
0
0
0
0
0
0
0
0
0
0
0
0
0
0
0
0
0
0
0
0
0
0
0
0
0
0
0
0
0
0
0
0
0
0
0
0
0
0
0
0
0
0
0
0
0
0
0
0
0
0
0
0
0
0
0
0
0
0
0
0
0
0
0
0
0
0
0
0
0
0
0
0
0
0
0
0
0
0
0
0
0
0
0
0
0
0
0
0
0
0
0
0
0
0
0
0
0
0
0
0
0
0
0
0
0
0
0
0
0
0
0
0
0
0
0
0
0
0
0
0
0
0
0
0
0
0
0
0
0
0
0
0
0
0
0
0
0
0
0
0
0
0
0
0
0
0
0
0
0
0
0
0
0
0
0
0
0
0
0
0
0
0
0
0
0
0
0
0
0
0
0
0
0
0
0
0
0
0
0
0
0
0
0
0
0
0
0
0
0
0
0
0
0
0
0
0
0
0
0
0
0
0
0
0
0
0
0
0
0
0
0
0
0
0
0
0
0
0
0
0
0
0
0
0
0
0
0
0
0
0
0
0
0
0
0
0
0
0
0
0
0
0
0
0
0
0
0
0
0
0
0
0
0
0
0
0
0
0
0
0
0
0
0
0
0
0
0
0
0
0
0
0
0
0
0
0
0
0
0
0
0
0
0
0
0
0
0
0
0
0
0
0
0
0
0
0
0
0
0
0
0
0
0
0
0
0
0
0
0
0
0
0
0
0
0
0
0
0
0
0
0
0
0
0
0
0
0
0
0
0
0
0
0
0
0
0
0
0
0
0
0
0
0
0
0
0
0
0
0
0
0
0
0
0
0
0
0
0
0
0
0
0
0
0
0
0
0
0
0
0
0
0
0
0
0
0
0
0
0
0
0
0
0
0
0
0
0
0
0
0
0
0
0
0
0
0
0
0
0
0
0
0
0
0
0
0
0
0
0
0
0
0
0
0
0
0
0
0
0
0
0
0
0
0
0
0
0
0
0
0
0
0
0
0
0
0
0
0
0
0
0
0
0
0
0
0
0
0
0
0
0
0
0
0
0
0
0
0
0
0
0
0
0
0
0
0
0
0
0
0
0
0
0
0
0
0
0
0
0
0
0
0
0
0
0
0
0
0
0
0
0
0
0
0
0
0
0
0
0
0
0
0
0
0
0
0
0
0
0
0
0
0
0
0
0
0
0
0
0
0
0
0
0
0
0
0
0
0
0
0
0
0
0
0
0
0
0
0
0
0
0
0
0
0
0
0
0
0
0
0
0
0
0
0
0
0
0
0
0
0
0
0
0
0
0
0
0
0
0
0
0
0
0
0
0
0
0
0
0
0
0
0
0
0
0
0
0
0
0
0
0
0
0
0
0
0
0
0
0
0
0
0
0
0
0
0
0
0
0
0
0
0
0
0
0
0
0
0
0
0
0
0
0
0
0
0
0
0
0
0
0
0
0
0
0
0
0
0
0
0
0
0
0
0
0
0
0
0
0
0
0
0
0
0
0
0
0
0
0
0
0
0
0
0
0
0
0
0
0
0
0
0
0
0
0
0
0
0
0
0
0
0
0
0
0
0
0
0
0
0
0
0
0
0
0
0
0
0
0
0
0
0
0
0
0
0
0
0
0
0
0
0
0
0
0
0
0
0
0
0
0
0
0
0
0
0
0
0
0
0
0
0
0
0
0
0
0
0
0
0
0
0
0
0
0
0
0
0
0
0
0
0
0
0
0
0
0
0
0
0
0
0
0
0
0
0
0
0
0
0
0
0
0
0
0
0
0
0
0
0
0
0
0
0
0
0
0
0
0
0
0
0
0
0
0
0
0
0
0
0
0
0
0
0
0
0
0
0
0
0
0
0
0
0
0
0
0
0
0
0
0
0
0
0
0
0
0
0
0
0
0
0
0
0
0
0
0
0
0
0
0
0
0
0
0
0
0
0
0
0
0
0
0
0
0
0
0
0
0
0
0
0
0
0
0
0
0
0
0
0
0
0
0
0
0
0
0
0
0
0
0
0
0
0
0
0
0
0
0
0
0
0
0
0
0
0
0
0
0
0
0
0
0
0
0
0
0
0
0
0
0
0
0
0
0
0
0
0
0
0
0
0
0
0
0
0
0
0
0
0
0
0
0
0
0
0
0
0
0
0
0
0
0
0
0
0
0
0
0
0
0
0
0
0
0
0
0
0
0
0
0
0
0
0
0
0
0
0
0
0
0
0
0
0
0
0
0
0
0
0
0
0
0
0
0
0
0
0
0
0
0
0
0
0
0
0
0
0
0
0
0
0
0
0
0
0
0
0
0
0
0
0
0
0
0
0
0
0
0
0
0
0
0
0
0
0
0
0
0
0
0
0
0
0
0
0
0
0
0
0
0
0
0
0
0
0
0
0
0
0
0
0
0
0
0
0
0
0
0
0
0
0
0
0
0
0
0
0
0
0
0
0
0
0
0
0
0
0
0
0
0
0
0
0
0
0
0
0
0
0
0
0
0
0
0
0
0
0
0
0
0
0
0
0
0
0
0
0
0
0
0
0
0
0
0
0
0
0
0
0
0
0
0
0
0
0
0
0
0
0
0
0
0
0
0
0
0
0
0
0
0
0
0
0
0
0
0
0
0
0
0
0
0
0
0
0
0
0
0
0
0
0
0
0
0
0
0
0
0
0
0
0
0
0
0
0
0
0
0
0
0
0
0
0
0
0
0
0
0
0
0
