3.31606
3.32972
3.34772
3.37057
3.39782
3.42816
3.45948
3.48947
3.51601
3.53768
3.55401
3.56555
3.57377
3.58089
3.58955
3.60255
3.62269
3.65258
3.69441
3.74975
3.81939
3.90318
4.00026
4.10914
4.22797
4.35491
4.48833
4.62698
4.76993
4.91648
5.06568
5.21467
5.35653
5.48107
5.5763
5.63078
5.63613
5.58883
5.49103
5.35032
5.17871
4.99099
4.80226
4.62237
4.45573
4.30308
4.16415
4.03374
3.90413
3.76717
3.61662
3.44996
3.26928
3.0809
2.89397
2.71836
2.56044
2.42427
2.31219
2.224
2.15745
2.10885
2.07412
2.0495
2.03198
2.01932
2.00986
2.00222
1.99483
1.98568
1.97301
1.95601
1.93551
1.91429
1.89656
1.88682
1.88833
1.90295
1.92852
1.96058
1.99404
2.02506
2.05216
2.07617
2.09919
2.12294
2.14733
2.17002
2.1863
2.19063
2.17851
2.14841
2.10285
2.04846
1.99462
1.95114
1.92772
1.93408
1.95967
1.98112
1.97084
1.90682
1.78049
1.5999
1.38747
1.17361
0.989261
0.917861
1.14819
1.59272
2.06406
2.3801
2.4225
2.17851
1.74138
1.27138
0.943974
0.898598
0.995496
1.12607
1.26238
1.38242
1.47118
1.5255
1.55562
1.5822
1.62939
1.71606
1.84561
2.0035
2.17638
2.34395
2.48625
2.58838
2.64324
2.65141
2.61888
2.5536
2.46263
2.35389
2.23268
2.10194
1.96433
1.82349
1.68414
1.55169
1.43137
1.32774
1.24459
1.18341
1.14003
1.1053
1.06802
1.01723
0.944227
0.843941
0.715411
0.560862
0.38588
0.197634
0
0.134205
0.76633
2.04353
4.01669
6.52876
9.15524
11.2407
12.0809
11.212
8.66774
5.04201
1.28458
-1.68338
-3.32926
-3.65735
-3.09158
-2.21088
-1.42928
-0.917282
-0.638007
-0.417265
-0.175617
0.0690636
0.311044
0.545467
0.765481
0.963666
1.13379
1.27181
1.3769
1.45195
1.50327
1.53955
1.57026
1.60389
1.64606
1.6988
1.76179
1.83354
1.91156
1.99342
2.07755
2.16361
2.25244
2.34552
2.4441
2.54868
2.65861
2.77066
2.87938
2.97998
3.07074
3.15463
3.2395
3.33626
3.45563
3.6044
3.78259
3.98137
4.18883
4.39134
4.57717
4.73936
4.87666
4.99248
5.09107
5.17564
5.24708
5.30078
5.32824
5.32005
5.26893
5.172
5.03192
4.85687
4.65992
4.45624
4.25777
4.07209
3.9021
3.74844
3.60848
3.47702
3.3477
3.21454
3.07342
2.923
2.76499
2.60366
2.4448
2.29417
2.15644
2.03484
1.93071
1.8435
1.77108
1.7106
1.65926
1.61487
1.57617
1.54279
1.51496
1.49313
1.47752
1.46789
1.46334
1.46239
1.4631
1.46311
1.4599
1.45096
1.43401
1.40716
1.36906
1.31907
1.25743
1.18554
1.10637
1.02456
0.946211
0.878818
0.833314
0.841429
0.949636
1.12777
1.31226
1.4332
1.44692
1.35522
1.2014
1.04714
0.94333
0.903985
0.895483
0.899283
0.906182
0.908761
0.903069
0.889318
0.871442
0.855666
0.848502
0.854388
0.873954
0.906057
0.947595
0.994575
1.04351
1.09257
1.14203
1.19396
1.25113
1.31557
1.3882
1.46643
1.54264
1.60722
1.65129
1.66922
1.65999
1.62714
1.5772
1.51754
1.45427
1.3908
1.32768
1.26393
1.19773
1.12674
1.04868
0.961716
0.864877
0.758389
0.643906
0.524622
0.405151
0.291194
0.188844
0.103494
0.0400299
0.00523148
0
0.00983124
0.0199341
0.0146584
-0.0157043
-0.0718948
-0.152325
-0.393021
-0.158263
0.866318
2.8365
5.57371
8.48193
10.6721
11.3038
9.98093
6.97087
3.10109
-0.613155
-3.38576
-4.89433
-5.25002
-4.80082
-3.9278
-2.94477
-2.07963
-1.47222
-1.16769
-1.03457
-0.902132
-0.77074
-0.641771
-0.517709
-0.402613
-0.301437
-0.217992
-0.154482
-0.110464
-0.0823158
-0.0634628
-0.045488
-0.0199394
0.0196114
0.0754837
0.148206
0.230936
0.310613
0.373568
0.409589
0.414908
0.393237
0.354621
0.312616
0.280781
0.268578
0.277886
0.306903
0.353682
0.416525
0.493431
0.582102
0.680104
0.784937
0.894097
1.00524
1.11643
1.22647
1.33514
1.44339
1.55321
1.66748
1.79058
1.9297
2.09165
2.26704
2.42806
2.54082
2.57635
2.51997
2.3753
2.16196
1.90842
1.64311
1.3857
1.14059
0.906039
0.680369
0.462952
0.253743
0.0529831
-0.138768
-0.320857
-0.492883
-0.654996
-0.808143
-0.953944
-1.09413
-1.22981
-1.36082
-1.48525
-1.5996
-1.69947
-1.77931
-1.82961
-1.84472
-1.8349
-1.81591
-1.80347
-1.80749
-1.82887
-1.8601
-1.88929
-1.90588
-1.90629
-1.89445
-1.87743
-1.86422
-1.8624
-1.87519
-1.89995
-1.92845
-1.94898
-1.94942
-1.92153
-1.85312
-1.7383
-1.59703
-1.46272
-1.36782
-1.33435
-1.36799
-1.45685
-1.57476
-1.68879
-1.76928
-1.80624
-1.81007
-1.79338
-1.76522
-1.73501
-1.70985
-1.69272
-1.68208
-1.67304
-1.65967
-1.63752
-1.60413
-1.56251
-1.51812
-1.47548
-1.43514
-1.39229
-1.33811
-1.26303
-1.16062
-1.0311
-0.883775
-0.726874
-0.56668
-0.408924
-0.258152
-0.117516
0.010778
0.125405
0.225468
0.310168
0.37879
0.43085
0.466314
0.485768
0.49049
0.48239
0.463862
0.437454
0.405576
0.370175
0.3325
0.293024
0.251559
0.207494
0.160091
0.109084
0.0551689
0
-0.0395699
0.0587143
0.5608
1.57035
3.18075
5.29962
7.55373
9.32752
9.97793
9.13254
6.89651
3.8295
0.698775
-1.84107
-3.45926
-4.12451
-4.10094
-3.78241
-3.30794
-2.82626
-2.41106
-2.05561
-1.70718
-1.37911
-1.07665
-0.801054
-0.553347
-0.334105
-0.145599
0.0112968
0.136375
0.230556
0.296838
0.338753
0.360191
0.365343
0.358672
0.344797
0.328287
0.313384
0.303689
0.301884
0.310599
0.331309
0.364633
0.410262
0.466956
0.532733
0.605263
0.682431
0.762839
0.845992
0.932262
1.02248
1.11737
1.21705
1.32081
1.42753
1.536
1.64546
1.75593
1.86835
1.98425
2.10532
2.2332
2.36778
2.50488
2.63616
2.75098
2.83854
2.88994
2.89958
2.86588
2.79096
2.67964
2.53788
2.3713
2.18507
1.98404
1.77235
1.55304
1.32892
1.10364
0.881555
0.667323
0.465258
0.278819
0.110287
-0.0392616
-0.169682
-0.281267
-0.373955
-0.44701
-0.499605
-0.531374
-0.542243
-0.532924
-0.505248
-0.46217
-0.407418
-0.344895
-0.278041
-0.209435
-0.14063
-0.0724796
-0.00573769
0.0583858
0.117878
0.170101
0.212183
0.241827
0.258114
0.262087
0.256865
0.24728
0.239095
0.23782
0.247152
0.268742
0.303653
0.351279
0.406797
0.462602
0.510765
0.54476
0.560743
0.558086
0.539099
0.50821
0.470988
0.433332
0.399811
0.373862
0.358363
0.356088
0.369414
0.396333
0.429137
0.458438
0.476046
0.477808
0.465297
0.445655
0.429621
0.428464
0.449275
0.491565
0.552657
0.630111
0.719746
0.816359
0.914324
1.00843
1.09442
1.16929
1.23122
1.27977
1.31554
1.3399
1.35468
1.36191
1.3634
1.36056
1.3541
1.34403
1.32972
1.31005
1.28376
1.24971
1.20715
1.15587
1.0963
1.02956
0.957404
0.881997
0.805741
0.730983
0.659634
0.59283
0.530637
0.472053
0.415245
0.357996
0.298213
0.234386
0.165861
0.0922058
0
0.0997175
0.678713
2.00965
4.19075
6.98054
9.76307
11.7153
12.1216
10.6889
7.69797
3.90666
0.253715
-2.49104
-3.96784
-4.26291
-3.7626
-2.9168
-2.05839
-1.33764
-0.765044
-0.300675
0.0832594
0.406793
0.689897
0.917889
1.07383
1.14978
1.15189
1.10242
1.03591
0.989623
0.991473
1.0429
1.12414
1.21987
1.32101
1.42039
1.51248
1.594
1.66395
1.72327
1.77415
1.81937
1.86165
1.9036
1.94756
1.99568
2.05006
2.1127
2.18519
2.2684
2.36212
2.46486
2.57399
2.68648
2.79962
2.91145
3.02111
3.12884
3.23562
3.34249
3.44997
3.55742
3.66235
3.7605
3.8466
3.91535
3.96224
3.98415
3.97956
3.9483
3.89124
3.80981
3.70675
3.58485
3.44625
3.29273
3.1261
2.9485
2.76239
2.57059
2.37653
2.18406
1.99728
1.8201
1.6559
1.50716
1.37532
1.2608
1.1632
1.08166
1.0152
0.963124
0.925599
0.903503
0.897709
0.909014
0.937474
0.982985
1.04396
1.1143
1.18475
1.24575
1.28952
1.31178
1.31256
1.29588
1.26851
1.23818
1.21164
1.19273
1.18254
1.1805
1.18521
1.19469
1.20665
1.21892
1.22988
1.23864
1.24521
1.25043
1.25577
1.26304
1.27397
1.28979
1.31099
1.33687
1.36532
1.39298
1.41576
1.42954
1.43089
1.41774
1.38984
1.34902
1.29908
1.24535
1.19407
1.15133
1.12197
1.10904
1.11385
1.13548
1.17152
1.21769
1.2678
1.31544
1.35544
1.38488
1.40356
1.41398
1.42079
1.42982
1.44709
1.47744
1.52354
1.58658
1.66914
1.7766
1.91458
2.06939
2.20844
2.29377
2.29468
2.20124
2.03164
1.82838
1.64387
1.52081
1.45723
1.4377
1.44754
1.46415
1.46527
1.4356
1.3712
1.27994
1.17808
1.08405
1.01176
0.960817
0.924887
0.897538
0.869952
0.832801
0.778016
0.700135
0.597034
0.470054
0.323609
0.164651
0
-0.0890064
0.248847
1.14578
2.75133
5.04217
7.68871
10.0402
11.3101
10.9184
8.80439
5.50415
1.92261
-1.06828
-2.96445
-3.72401
-3.61633
-3.0523
-2.31968
-1.61528
-1.04633
-0.676878
-0.457581
-0.270174
-0.0973921
0.0639923
0.213459
0.349008
0.469838
0.576751
0.67222
0.759964
0.844094
0.928044
1.01386
1.10078
1.18437
1.25879
1.31961
1.3662
1.40254
1.43609
1.47512
1.52548
1.58772
1.65773
1.72977
1.79752
1.85642
1.90539
1.94746
1.98906
2.0383
2.10269
2.18588
2.28703
2.40281
2.52861
2.65851
2.78631
2.90709
3.01833
3.12047
3.21684
3.31306
3.41819
3.55322
3.75233
4.00477
4.25317
4.42846
4.4786
4.38954
4.19031
3.94069
3.70657
3.53116
3.39682
3.27275
3.14443
3.00358
2.84348
2.66078
2.45617
2.23427
2.00294
1.77201
1.55113
1.34918
1.17303
1.02694
0.912225
0.827556
0.769295
0.732275
0.7106
0.698386
0.690263
0.681852
0.670133
0.653585
0.632161
0.607114
0.580652
0.555532
0.534548
0.520106
0.51396
0.517134
0.530015
0.552507
0.584149
0.623971
0.67067
0.722636
0.777452
0.831866
0.882436
0.926278
0.961672
0.988376
1.00748
1.0208
1.03012
1.03606
1.03834
1.03571
1.02691
1.01184
0.992226
0.971549
0.954181
0.94409
0.943451
0.951236
0.965887
0.985354
1.00732
1.02968
1.05103
1.0709
1.08961
1.10797
1.12678
1.14642
1.16635
1.18488
1.19987
1.20994
1.21565
1.22037
1.23018
1.25295
1.30732
1.42491
1.6079
1.81083
1.97476
2.05081
2.01609
1.87671
1.66032
1.40543
1.15348
0.93692
0.7616
0.621589
0.510974
0.432516
0.379895
0.342365
0.308525
0.269372
0.22067
0.163835
0.105101
0.0533099
0.0171327
0
-0.00608004
0.00532827
0.0320161
0.0704911
0.116739
0.170502
0.196585
0.520357
1.43683
3.1077
5.39332
7.78798
9.54856
9.98986
8.81035
6.26023
3.04285
-0.000344467
-2.24054
-3.45677
-3.74576
-3.575
-3.17647
-2.72712
-2.30866
-1.94474
-1.60592
-1.23399
-0.845334
-0.461425
-0.0942527
0.248449
0.560713
0.836332
1.07059
1.26207
1.41268
1.52717
1.61218
1.67514
1.72315
1.76227
1.79685
1.82958
1.86179
1.89391
1.92594
1.95796
1.99043
2.02432
2.0611
2.10256
2.15052
2.20654
2.27162
2.34602
2.4292
2.51992
2.61651
2.71717
2.82033
2.92491
3.03048
3.13726
3.24597
3.35755
3.47281
3.59199
3.71451
3.83865
3.96061
4.07377
4.17033
4.24269
4.28481
4.29341
4.26831
4.21184
4.12741
4.01774
3.88363
3.72584
3.54527
3.34288
3.12032
2.88111
2.63169
2.3809
2.13872
1.91574
1.72395
1.57113
1.45334
1.36102
1.28253
1.20805
1.13229
1.05537
0.981615
0.917107
0.866446
0.829337
0.804385
0.788917
0.778111
0.766835
0.751188
0.72955
0.703002
0.675009
0.650476
0.634454
0.630865
0.64072
0.662511
0.693871
0.731887
0.77318
0.814325
0.852409
0.88542
0.91239
0.933321
0.94893
0.960288
0.968375
0.973855
0.977142
0.978419
0.977962
0.976445
0.975056
0.975308
0.978603
0.985671
0.9961
1.0083
1.01954
1.02662
1.02667
1.01785
0.999874
0.973986
0.94274
0.909439
0.877562
0.850159
0.829484
0.817209
0.814689
0.823006
0.84293
0.874866
0.918708
0.973654
1.03804
1.10931
1.18412
1.25817
1.32667
1.38533
1.43101
1.46208
1.47848
1.48127
1.47191
1.45148
1.4201
1.37688
1.32033
1.24921
1.16352
1.06509
0.957636
0.846191
0.736001
0.631214
0.533828
0.444287
0.361548
0.283896
0.210006
0.140203
0.0776527
0.0283401
0
-0.0017704
0.0308186
0.0996138
0.202017
0.33145
0.47872
0.653199
0.754376
1.243
2.46904
4.49929
6.95876
9.10239
10.117
9.50743
7.34474
4.23261
1.01153
-1.61255
-3.30614
-4.11398
-4.28959
-4.09025
-3.66635
-3.06491
-2.30569
-1.45362
-0.634901
-0.0144579
0.218696
0.247352
0.244633
0.234908
0.224518
0.218927
0.222527
0.237647
0.264579
0.302507
0.349992
0.405116
0.465909
0.530605
0.597681
0.665724
0.73324
0.798483
0.859743
0.915751
0.966196
1.01215
1.05613
1.10179
1.1531
1.21355
1.28503
1.36745
1.45943
1.55869
1.66253
1.76859
1.87537
1.98253
2.09087
2.20195
2.31752
2.43891
2.56652
2.69951
2.83572
2.97095
3.09812
3.20886
3.29517
3.35061
3.37122
3.35614
3.30727
3.22852
3.12462
3.00021
2.86072
2.71066
2.55327
2.3912
2.22718
2.06416
1.90521
1.75316
1.61034
1.47823
1.35737
1.2474
1.14733
1.05597
0.97237
0.896262
0.828209
0.769557
0.722289
0.688667
0.670815
0.670309
0.687795
0.722797
0.775073
0.842934
0.919583
0.993533
1.05261
1.08629
1.0879
1.05614
0.995431
0.915171
0.828197
0.748644
0.68738
0.650759
0.652518
0.725922
0.906308
1.16305
1.42153
1.60815
1.67254
1.60034
1.41472
1.1679
0.925811
0.748585
0.649034
0.599925
0.579449
0.576881
0.586781
0.605231
0.628954
0.655439
0.682791
0.709333
0.733022
0.751068
0.760217
0.757084
0.738979
0.704847
0.656003
0.596418
0.532377
0.471586
0.421753
0.388335
0.374057
0.381917
0.412973
0.462083
0.517212
0.565627
0.59714
0.606786
0.596238
0.573619
0.551798
0.545657
0.568496
0.624884
0.713799
0.843966
1.02659
1.25134
1.48105
1.67646
1.80612
1.85305
1.81686
1.71136
1.55929
1.38588
1.21297
1.05238
0.905703
0.770988
0.646343
0.530734
0.423853
0.325964
0.237936
0.161195
0.0974205
0.0481987
0.0150707
-0.00129929
-0.00366249
0
-0.00248413
-0.022723
-0.0712353
-0.1544
-0.272922
-0.42157
-0.590299
-0.919181
-0.875568
-0.0664425
1.70555
4.28234
7.09235
9.30404
10.1467
9.24832
6.8053
3.4888
0.14348
-2.54626
-4.25407
-5.009
-5.05458
-4.69182
-4.15408
-3.58055
-3.01805
-2.45498
-1.87818
-1.41148
-1.16632
-1.03591
-0.956957
-0.905678
-0.874858
-0.855827
-0.840236
-0.821754
-0.797759
-0.767709
-0.734649
-0.704415
-0.682699
-0.672669
-0.673265
-0.678761
-0.679865
-0.66615
-0.629152
-0.565666
-0.472493
-0.360425
-0.249538
-0.160669
-0.109202
-0.100762
-0.12992
-0.181901
-0.236477
-0.272882
-0.277722
-0.24916
-0.190924
-0.107744
-0.00457153
0.112951
0.23857
0.366145
0.49036
0.607221
0.714284
0.81059
0.896357
0.972453
1.03967
1.09811
1.1468
1.18362
1.20536
1.20796
1.18722
1.13948
1.06227
0.954673
0.817563
0.653657
0.468028
0.267693
0.0603844
-0.146022
-0.343032
-0.522558
-0.67776
-0.803871
-0.898756
-0.963097
-1.00014
-1.01508
-1.01431
-1.00435
-0.991469
-0.98098
-0.976558
-0.979988
-0.991146
-1.00825
-1.02834
-1.04796
-1.06382
-1.07346
-1.07565
-1.06984
-1.05604
-1.03472
-1.00659
-0.972672
-0.934305
-0.893183
-0.851781
-0.812947
-0.779311
-0.752643
-0.733354
-0.720308
-0.711092
-0.70268
-0.692294
-0.678345
-0.660535
-0.640371
-0.621028
-0.606348
-0.599832
-0.603742
-0.618551
-0.642851
-0.673695
-0.707214
-0.739302
-0.766421
-0.785999
-0.796219
-0.795792
-0.78398
-0.760607
-0.726004
-0.681608
-0.631641
-0.583459
-0.545108
-0.523439
-0.522343
-0.541667
-0.57721
-0.621841
-0.667337
-0.706305
-0.734809
-0.752173
-0.758729
-0.75506
-0.742136
-0.721262
-0.693928
-0.661735
-0.626481
-0.590291
-0.555266
-0.522833
-0.49316
-0.4647
-0.43407
-0.396403
-0.346128
-0.278028
-0.188301
-0.07659
0.0550774
0.203415
0.363773
0.530488
0.695926
0.849882
0.982811
1.08684
1.15681
1.19101
1.19125
1.16233
1.11094
1.04433
0.969418
0.891723
0.814369
0.73886
0.66559
0.594012
0.522871
0.450735
0.376621
0.300613
0.224298
0.151305
0.0870716
0.0374886
0.00754318
0
0.026376
0.0717148
0.130588
0.196527
0.263161
0.323785
0.168646
0.259661
1.06454
2.77551
5.23213
7.88346
9.92882
10.61
9.54448
6.92772
3.47538
0.117319
-2.39488
-3.7501
-4.04186
-3.77264
-3.25975
-2.72596
-2.25449
-1.8529
-1.50879
-1.19518
-0.905939
-0.64052
-0.399155
-0.182739
0.00531349
0.162317
0.288122
0.385244
0.458505
0.514235
0.559216
0.599615
0.640148
0.683469
0.730813
0.782113
0.836389
0.892548
0.949927
1.00851
1.06878
1.13133
1.1963
1.26308
1.33032
1.39634
1.45984
1.52068
1.58039
1.6423
1.71116
1.79232
1.89044
2.00815
2.14614
2.30317
2.47675
2.66141
2.84709
3.02075
3.17029
3.28669
3.36552
3.40751
3.41809
3.40595
3.38091
3.35149
3.32274
3.29506
3.26561
3.22966
3.18115
3.11389
3.02278
2.90488
2.76005
2.59112
2.40352
2.20445
2.00195
1.80348
1.61551
1.4431
1.28978
1.15755
1.04705
0.95795
0.888999
0.838129
0.803003
0.781338
0.771158
0.770866
0.779104
0.794477
0.815501
0.83958
0.862542
0.879893
0.888054
0.88557
0.873831
0.856939
0.840694
0.831065
0.832699
0.846583
0.872972
0.910589
0.95722
1.0101
1.06639
1.12351
1.17859
1.22882
1.27181
1.30588
1.33034
1.3455
1.35236
1.35216
1.34598
1.3349
1.31972
1.30118
1.28058
1.26002
1.24241
1.23119
1.2297
1.24055
1.26611
1.30795
1.36277
1.4192
1.46391
1.48554
1.47856
1.44566
1.39782
1.35167
1.32516
1.33287
1.37463
1.44644
1.54754
1.67704
1.82919
1.98556
2.12131
2.21386
2.24804
2.22121
2.14594
2.04743
1.95556
1.89397
1.86652
1.85793
1.85731
1.8516
1.82826
1.77841
1.69905
1.59383
1.47234
1.34804
1.23519
1.14351
1.07667
1.04037
1.0394
1.07105
1.11864
1.15886
1.1684
1.1284
1.02791
0.865502
0.648838
0.39255
0.0745202
0
0.508778
1.83201
4.00171
6.72339
9.37167
11.1543
11.4095
9.90411
6.97097
3.39294
0.0786259
-2.29747
-3.49956
-3.68533
-3.26936
-2.5983
-1.92124
-1.36208
-0.965012
-0.673953
-0.358094
-0.0350694
0.282524
0.586356
0.862239
1.09724
1.28083
1.40738
1.47779
1.4997
1.48615
1.45327
1.41745
1.39227
1.38469
1.3966
1.42797
1.47781
1.54401
1.62334
1.71181
1.80517
1.89943
1.99126
2.07839
2.15975
2.23554
2.30713
2.37672
2.44703
2.5208
2.60031
2.68697
2.78092
2.88102
2.98496
3.08908
3.18949
3.28354
3.37094
3.45443
3.5397
3.63454
3.75038
3.91966
4.17808
4.48557
4.77341
4.97596
5.05541
5.00927
4.86055
4.64019
4.37409
4.08096
3.78121
3.48753
3.20732
2.94533
2.70431
2.48647
2.29429
2.12814
1.98305
1.852
1.72752
1.60347
1.47646
1.34647
1.21669
1.0925
0.979846
0.882449
0.803141
0.743539
0.703363
0.680465
0.671266
0.671353
0.67603
0.681076
0.683553
0.682227
0.677688
0.672124
0.668746
0.670939
0.681316
0.700999
0.729879
0.764852
0.800587
0.831685
0.854375
0.867727
0.873923
0.877452
0.883488
0.896031
0.916256
0.942564
0.971239
0.997748
1.01837
1.03145
1.03776
1.04002
1.04159
1.04517
1.05144
1.05933
1.06655
1.07009
1.06699
1.05503
1.0332
1.00196
0.963088
0.91953
0.875001
0.833419
0.798655
0.774229
0.763065
0.76734
0.788434
0.826962
0.882827
0.95525
1.04252
1.14266
1.25366
1.37145
1.48755
1.59055
1.66889
1.71307
1.71778
1.68321
1.61505
1.52294
1.41795
1.30957
1.20318
1.09959
0.997506
0.895257
0.791519
0.686089
0.580303
0.476893
0.379321
0.291484
0.216872
0.155608
0.105858
0.0650334
0.031321
0.00487381
-0.0118715
-0.0148903
0
0.0307547
0.0799753
0.143921
0.218566
0.30168
0.345836
0.572769
1.33845
2.8666
5.08976
7.55782
9.52638
10.231
9.23149
6.64745
3.13816
-0.37374
-3.08556
-4.59728
-4.96263
-4.5538
-3.8058
-3.05918
-2.48464
-2.10028
-1.81169
-1.49363
-1.19056
-0.912002
-0.661392
-0.441417
-0.25355
-0.100882
0.016383
0.1009
0.157716
0.193431
0.215182
0.229624
0.242128
0.256229
0.273514
0.294081
0.317036
0.340873
0.364
0.38546
0.405456
0.425635
0.44907
0.47987
0.522485
0.580823
0.657412
0.752536
0.864126
0.98903
1.12368
1.26442
1.40805
1.5521
1.69491
1.83541
1.97285
2.10657
2.23589
2.36017
2.47894
2.592
2.69941
2.8013
2.89751
2.98679
3.06653
3.13364
3.18441
3.21526
3.22348
3.2077
3.1678
3.10451
3.01879
2.91156
2.78549
2.64339
2.48786
2.32234
2.15161
1.98157
1.81851
1.66832
1.53567
1.42349
1.33314
1.26441
1.214
1.1771
1.14903
1.12632
1.10712
1.09115
1.07904
1.07151
1.06851
1.0683
1.06799
1.06456
1.05609
1.04283
1.02772
1.01596
1.01389
1.0271
1.05824
1.11013
1.18086
1.25847
1.32839
1.37787
1.40003
1.39586
1.3736
1.34563
1.32409
1.31659
1.32213
1.3366
1.35548
1.37374
1.38732
1.39419
1.39457
1.3905
1.38489
1.38046
1.37871
1.37972
1.38262
1.38573
1.3871
1.3849
1.37775
1.36506
1.34697
1.32426
1.29808
1.26962
1.23972
1.20869
1.17631
1.14216
1.10618
1.06929
1.03397
1.00435
0.985912
0.984737
1.0062
1.05426
1.1304
1.23382
1.36348
1.51296
1.66819
1.81023
1.92177
1.99038
2.01062
1.98512
1.92431
1.8448
1.76624
1.70708
1.67745
1.68617
1.73269
1.79113
1.82758
1.81203
1.72929
1.58449
1.40086
1.21064
1.04325
0.909309
0.799805
0.707693
0.629526
0.561178
0.498713
0.438964
0.379741
0.319771
0.258472
0.195736
0.131638
0.0664215
0
-0.0833271
0.178191
1.09348
2.86038
5.40186
8.26545
10.6802
11.8054
11.0961
8.59638
4.97137
1.22381
-1.75344
-3.52584
-4.17685
-4.0954
-3.68213
-3.16404
-2.602
-1.99252
-1.35219
-0.728534
-0.206788
0.11426
0.312684
0.4564
0.568442
0.651338
0.70992
0.750056
0.777217
0.795177
0.806018
0.810365
0.808586
0.80216
0.794635
0.791731
0.800477
0.827606
0.877217
0.948511
1.03773
1.13996
1.24884
1.35732
1.45906
1.54952
1.62668
1.69119
1.74603
1.79595
1.84651
1.90329
1.97099
2.05308
2.15145
2.26619
2.39566
2.53664
2.68469
2.8347
2.98117
3.11879
3.24286
3.34953
3.43557
3.49779
3.5327
3.53772
3.51172
3.45479
3.36885
3.25796
3.12811
2.98626
2.839
2.69109
2.54449
2.39827
2.24947
2.09457
1.93114
1.75902
1.58077
1.40142
1.22741
1.06432
0.917287
0.790483
0.686489
0.606373
0.549628
0.513653
0.49371
0.483941
0.478819
0.474183
0.468071
0.461107
0.456332
0.458433
0.472496
0.50249
0.550163
0.617579
0.699439
0.783536
0.856326
0.906656
0.928742
0.923402
0.897266
0.860369
0.82309
0.792994
0.772557
0.761496
0.758851
0.763198
0.772778
0.785865
0.800921
0.816574
0.831436
0.844066
0.853191
0.857993
0.858437
0.855452
0.850796
0.846605
0.844765
0.846308
0.850884
0.857275
0.863502
0.867253
0.866361
0.859207
0.844992
0.823844
0.796808
0.765632
0.732567
0.700128
0.670874
0.647155
0.631063
0.624694
0.629892
0.648182
0.680595
0.727445
0.78813
0.861031
0.943569
1.03242
1.12381
1.21385
1.29875
1.37469
1.43731
1.48167
1.50398
1.50119
1.47156
1.41541
1.33556
1.23716
1.12694
1.01194
0.898133
0.789043
0.686193
0.589817
0.499384
0.414378
0.334884
0.261793
0.196606
0.140937
0.0957972
0.0614294
0.0369278
0.0203489
0.00902443
0
-0.00527353
-0.0132875
-0.0254734
-0.0423068
-0.0633944
-0.0919664
-0.180932
0.132567
1.2287
3.27495
6.00594
8.70023
10.4294
10.4753
8.68538
5.55535
1.98949
-1.11418
-3.21555
-4.24543
-4.45297
-4.23824
-3.82389
-3.32261
-2.77377
-2.22556
-1.76631
-1.43769
-1.1869
-0.978724
-0.797005
-0.63603
-0.494519
-0.372805
-0.270359
-0.185592
-0.116312
-0.0596251
-0.0125271
0.0277939
0.0637345
0.0971571
0.12936
0.161162
0.193055
0.225421
0.25876
0.293872
0.331939
0.374492
0.423275
0.480033
0.546017
0.622027
0.708262
0.803976
0.907408
1.01609
1.12677
1.23616
1.34191
1.44337
1.54194
1.64086
1.74447
1.85693
1.98093
2.11652
2.26226
2.41088
2.55123
2.67199
2.76446
2.8243
2.85174
2.85029
2.82437
2.777
2.70961
2.62266
2.51457
2.38255
2.22514
2.0432
1.84023
1.62224
1.39706
1.17307
0.958005
0.758406
0.578959
0.422214
0.288627
0.176886
0.0844312
0.00809641
-0.0552012
-0.10787
-0.151247
-0.185497
-0.209839
-0.223035
-0.22342
-0.208936
-0.180453
-0.146672
-0.119202
-0.108789
-0.121417
-0.155649
-0.202392
-0.247287
-0.27485
-0.272854
-0.2423
-0.181612
-0.0890263
0.0276392
0.144773
0.236288
0.280592
0.266387
0.196975
0.0907144
-0.023764
-0.116399
-0.16523
-0.175033
-0.16054
-0.128435
-0.0862107
-0.0445695
-0.0139263
-0.00159466
-0.00988493
-0.035018
-0.0673778
-0.0934085
-0.0989692
-0.0733373
-0.0150648
0.0758058
0.186718
0.300158
0.398564
0.468925
0.505581
0.510578
0.491981
0.461133
0.429943
0.406921
0.396677
0.402379
0.425874
0.467018
0.524394
0.594216
0.670771
0.747022
0.81484
0.865783
0.892985
0.891565
0.859324
0.797298
0.709986
0.605052
0.492392
0.382609
0.284865
0.203904
0.141903
0.100228
0.0765162
0.0654863
0.0613458
0.0592692
0.0563795
0.0519772
0.0470227
0.0431207
0.0414155
0.0417101
0.0424725
0.041484
0.0355739
-0.0234908
0
0.616304
2.07606
4.30876
6.84989
8.95773
9.89608
9.2562
7.1524
4.17402
1.11718
-1.35535
-2.93897
-3.69266
-3.85164
-3.72718
-3.42035
-2.97873
-2.42873
-1.82881
-1.28894
-0.904613
-0.643935
-0.441294
-0.267376
-0.112375
0.0257785
0.149797
0.26364
0.371882
0.47876
0.587253
0.698377
0.807714
0.906365
0.984129
1.0332
1.05119
1.04236
1.01692
0.988763
0.972699
0.97802
1.00793
1.06406
1.14705
1.25472
1.38264
1.52452
1.67254
1.81934
1.95929
2.0892
2.20851
2.31881
2.42293
2.52405
2.62481
2.72688
2.83099
2.93714
3.04488
3.15351
3.26213
3.36956
3.47377
3.57088
3.65562
3.72185
3.76308
3.77346
3.74833
3.68442
3.5794
3.43171
3.24087
3.01358
2.75829
2.48218
2.19402
1.90477
1.62642
1.37016
1.14543
0.959007
0.814884
0.713363
0.649294
0.612065
0.589045
0.568301
0.540392
0.49958
0.444363
0.377271
0.303984
0.231899
0.168177
0.117674
0.083916
0.0683872
0.0673119
0.0738751
0.0812704
0.0851839
0.0855417
0.0869187
0.0974134
0.126272
0.180942
0.263612
0.380609
0.519864
0.656963
0.766463
0.829698
0.840016
0.803847
0.73778
0.66311
0.599851
0.55805
0.53684
0.533082
0.545245
0.567159
0.589829
0.604421
0.604277
0.58647
0.552453
0.50758
0.459611
0.416635
0.3846
0.365446
0.358652
0.363233
0.377259
0.398586
0.425414
0.456558
0.491458
0.530046
0.572624
0.619726
0.672346
0.731829
0.799694
0.877243
0.965027
1.06231
1.16666
1.27425
1.37976
1.47708
1.56035
1.62478
1.66718
1.68603
1.68132
1.6541
1.60607
1.53926
1.45599
1.35936
1.25333
1.14246
1.03188
0.927195
0.833805
0.756238
0.697744
0.658433
0.635293
0.622899
0.614241
0.6013
0.576446
0.533478
0.468348
0.379599
0.268507
0.138898
-0.00336968
-0.152363
-0.278822
0
0.799751
2.27297
4.42764
7.01406
9.49461
11.1541
11.3521
9.81698
6.82094
3.11248
-0.383988
-2.94242
-4.27505
-4.52922
-4.09778
-3.3784
-2.63898
-1.9958
-1.46285
-1.00737
-0.623727
-0.338009
-0.109057
0.0835722
0.248387
0.388649
0.504172
0.594995
0.662461
0.708846
0.736866
0.749761
0.751409
0.746325
0.739463
0.735783
0.739696
0.754224
0.780705
0.819492
0.869685
0.929444
0.996388
1.06805
1.1423
1.21747
1.29251
1.36697
1.44093
1.51498
1.59014
1.66778
1.74957
1.83725
1.93241
2.03617
2.14895
2.27018
2.39824
2.53047
2.66337
2.79226
2.91143
3.01544
3.0994
3.15932
3.19235
3.1967
3.17149
3.11648
3.03191
2.91923
2.78168
2.62268
2.44557
2.25452
2.05436
1.85027
1.64702
1.44873
1.25868
1.07923
0.911895
0.757461
0.616316
0.488688
0.374874
0.275328
0.1906
0.121117
0.0669524
0.0278112
0.00275967
-0.0106493
-0.0162823
-0.0178369
-0.0178899
-0.0171931
-0.0145167
-0.00717965
0.00783521
0.0338611
0.0723822
0.117679
0.15882
0.183685
0.183185
0.154745
0.103763
0.0425412
-0.0129845
-0.0476812
-0.0550963
-0.03798
0.00261542
0.0614203
0.126434
0.185065
0.227439
0.24889
0.250909
0.24032
0.226987
0.220838
0.228471
0.250243
0.28426
0.327494
0.373833
0.414995
0.442743
0.450458
0.434379
0.394395
0.334263
0.261148
0.184544
0.114706
0.0599906
0.0245252
0.0107776
0.0185274
0.045275
0.0861233
0.1343
0.183639
0.230075
0.272553
0.313071
0.355847
0.405858
0.467186
0.541064
0.625758
0.718258
0.814002
0.907562
0.993562
1.06732
1.12493
1.16379
1.18324
1.18397
1.16788
1.1378
1.09708
1.04903
0.99623
0.940024
0.880282
0.815604
0.743999
0.663879
0.57503
0.4793
0.380736
0.285101
0.198853
0.127643
0.0754263
0.0434757
0.0314085
0.0345526
0.04628
0.0596363
0.0688024
0.070117
0.0624394
0.0468659
0.0260092
0
0.182044
0.64601
1.64779
3.41796
5.91163
8.6524
10.8078
11.5178
10.3153
7.39297
3.54616
-0.180748
-2.94143
-4.3792
-4.63772
-4.14636
-3.34739
-2.52576
-1.78858
-1.14085
-0.574156
-0.17838
0.000542355
0.105253
0.179756
0.238248
0.285927
0.329103
0.37415
0.42644
0.489119
0.562813
0.646446
0.737707
0.833378
0.929903
1.02396
1.11292
1.19508
1.26964
1.33646
1.3955
1.44696
1.49151
1.53011
1.56433
1.59667
1.63067
1.67073
1.72161
1.78773
1.87229
1.97611
2.09862
2.23819
2.39203
2.55631
2.72653
2.89789
3.06565
3.22536
3.373
3.50483
3.61808
3.71104
3.78272
3.83275
3.86113
3.86811
3.85396
3.819
3.76356
3.68853
3.59514
3.48467
3.35882
3.21959
3.06912
2.9097
2.74349
2.57264
2.39952
2.22681
2.05754
1.89484
1.74163
1.60023
1.47209
1.35758
1.25624
1.1672
1.09012
1.02514
0.972519
0.933035
0.907485
0.896126
0.898225
0.911887
0.934218
0.961715
0.990769
1.01821
1.04165
1.05944
1.07075
1.07564
1.07498
1.07038
1.06409
1.05868
1.0567
1.06032
1.07084
1.08856
1.1129
1.14204
1.17281
1.20172
1.22568
1.24269
1.25201
1.25407
1.24998
1.24093
1.22772
1.21086
1.19043
1.16667
1.14042
1.11331
1.08764
1.06607
1.05097
1.04362
1.0442
1.05198
1.06518
1.08111
1.09674
1.10918
1.11616
1.11635
1.10955
1.09672
1.07983
1.0616
1.04523
1.03391
1.03054
1.03758
1.05678
1.08907
1.13448
1.19212
1.26015
1.33575
1.41545
1.49511
1.57019
1.63631
1.68973
1.72761
1.74807
1.75005
1.73289
1.69608
1.63904
1.56181
1.46489
1.34953
1.21857
1.07684
0.931039
0.789182
0.659506
0.549869
0.469253
0.423556
0.408172
0.412458
0.423261
0.427955
0.416831
0.384301
0.328915
0.252559
0.159356
0.0555948
-0.0870045
0
0.661624
2.11933
4.34735
6.98469
9.3727
10.7438
10.5195
8.59309
5.43268
1.91007
-1.07444
-2.96814
-3.73161
-3.71679
-3.38676
-3.02339
-2.66252
-2.19032
-1.52202
-0.738814
-0.0871681
0.232583
0.376932
0.483254
0.579377
0.669275
0.75342
0.829301
0.891646
0.93474
0.955156
0.953788
0.936417
0.912628
0.893531
0.889095
0.903651
0.936721
0.98621
1.04955
1.12356
1.20456
1.28876
1.37259
1.45288
1.52721
1.59446
1.65497
1.71075
1.76544
1.82391
1.8915
1.97298
2.07142
2.18731
2.3179
2.45821
2.60195
2.74249
2.87404
2.9925
3.09585
3.18397
3.25808
3.3199
3.37108
3.41243
3.44345
3.46231
3.46599
3.45082
3.41273
3.34785
3.2531
3.12679
2.96898
2.78179
2.56928
2.33724
2.09301
1.84431
1.59872
1.36353
1.14528
0.949353
0.779692
0.638579
0.526505
0.442335
0.383765
0.347217
0.327352
0.317618
0.311918
0.305506
0.295692
0.282202
0.267034
0.2538
0.246671
0.249183
0.262866
0.286992
0.319513
0.356793
0.394574
0.428877
0.456714
0.476451
0.487799
0.491537
0.489123
0.482463
0.473516
0.464235
0.456625
0.452678
0.454205
0.462577
0.47841
0.501505
0.530612
0.563207
0.595544
0.623689
0.644618
0.657071
0.662044
0.662707
0.663663
0.669683
0.684197
0.710428
0.745197
0.776857
0.791267
0.777471
0.73295
0.666269
0.595879
0.545371
0.536882
0.579047
0.694778
0.90891
1.1812
1.43855
1.61582
1.6731
1.60543
1.44451
1.25033
1.09281
1.02739
1.04724
1.13566
1.26195
1.38385
1.4609
1.46584
1.3909
1.24775
1.06239
0.867209
0.692105
0.547717
0.429439
0.330752
0.247601
0.177082
0.116679
0.0652898
0.0243549
-0.00310613
-0.0127023
0
0.0382436
0.102318
0.189744
0.298562
0.50315
0.914272
1.6882
3.04042
4.99436
7.24623
9.19013
10.1333
9.61087
7.62142
4.64324
1.41772
-1.3654
-3.3007
-4.31261
-4.54816
-4.2277
-3.56285
-2.73934
-1.91701
-1.20836
-0.65341
-0.272467
-0.0719997
0.0703337
0.187362
0.287573
0.373771
0.448245
0.513852
0.573578
0.630136
0.685662
0.741552
0.798497
0.8566
0.915576
0.975016
1.03456
1.09394
1.15291
1.21116
1.26814
1.32331
1.37637
1.42767
1.4785
1.53119
1.58876
1.65437
1.73054
1.8183
1.9169
2.02464
2.13906
2.25732
2.3768
2.49555
2.61254
2.72764
2.84132
2.95412
3.06617
3.1766
3.28293
3.38105
3.46615
3.53343
3.57903
3.6005
3.59679
3.56766
3.51298
3.43213
3.3254
3.19421
3.0388
2.86043
2.6622
2.44909
2.22756
2.00478
1.78749
1.58148
1.39103
1.21881
1.06601
0.932752
0.818598
0.723037
0.645256
0.584309
0.538915
0.507622
0.487976
0.476881
0.471034
0.46736
0.463417
0.45766
0.449531
0.439374
0.428271
0.417802
0.409773
0.406027
0.40819
0.417397
0.434126
0.457909
0.487274
0.519895
0.552714
0.582199
0.605301
0.620145
0.626571
0.626375
0.623103
0.621383
0.625876
0.640104
0.665416
0.700025
0.740943
0.783547
0.822701
0.853789
0.873517
0.88035
0.874509
0.857598
0.83202
0.800364
0.764963
0.727574
0.689354
0.651069
0.613394
0.577198
0.543745
0.51479
0.492542
0.479498
0.478018
0.489896
0.516668
0.559343
0.616413
0.681667
0.745496
0.798248
0.832705
0.846186
0.841624
0.827201
0.814528
0.815758
0.839968
0.888744
0.95799
1.0439
1.13676
1.22496
1.29768
1.34687
1.36841
1.36209
1.33063
1.27812
1.20841
1.12477
1.02911
0.922422
0.805764
0.681064
0.551587
0.423173
0.304872
0.206666
0.137376
0.102452
0.102339
0.136984
0.195663
0.259344
0.308552
0.327882
0.309291
0.253453
0.169042
0.0703408
0
0.36536
1.25527
2.79135
4.94786
7.41523
9.57355
10.6617
10.1049
7.82945
4.36209
0.633316
-2.41745
-4.21622
-4.71129
-4.28132
-3.44957
-2.6368
-2.03647
-1.64207
-1.35865
-1.10956
-0.876791
-0.6562
-0.448
-0.253666
-0.0750014
0.0853179
0.225378
0.344492
0.443458
0.524604
0.591537
0.648639
0.700364
0.750492
0.801535
0.854441
0.907776
0.957652
0.999678
1.03107
1.05249
1.06888
1.08886
1.12267
1.17921
1.26311
1.37
1.49285
1.62343
1.75215
1.87081
1.97467
2.06359
2.14189
2.21723
2.2985
2.39348
2.50612
2.63573
2.77989
2.93185
3.08077
3.21513
3.32517
3.40452
3.45099
3.46623
3.45462
3.42168
3.37236
3.31007
3.23594
3.14905
3.04732
2.92823
2.78969
2.63123
2.45459
2.26385
2.0651
1.86574
1.67338
1.49506
1.3364
1.20113
1.0909
1.00535
0.942431
0.898942
0.870968
0.853924
0.842825
0.833059
0.820805
0.803392
0.779568
0.749578
0.715042
0.678626
0.64356
0.613057
0.589941
0.57633
0.573524
0.582079
0.601981
0.632836
0.673977
0.724295
0.782387
0.846537
0.914131
0.980984
1.04155
1.09038
1.1232
1.13784
1.13461
1.11604
1.08592
1.04831
1.00684
0.96474
0.924829
0.890446
0.86571
0.855192
0.863087
0.899025
0.968592
1.05906
1.14959
1.21832
1.2498
1.24001
1.19741
1.13966
1.08752
1.05813
1.05426
1.0699
1.10119
1.13937
1.17473
1.19935
1.209
1.20394
1.18826
1.16811
1.14949
1.13629
1.12957
1.12925
1.13494
1.14722
1.16851
1.2029
1.25495
1.32782
1.42142
1.53309
1.65325
1.7682
1.86438
1.9317
1.9656
1.96716
1.94137
1.8944
1.83115
1.75551
1.66918
1.57221
1.46435
1.3468
1.22277
1.09776
0.979114
0.87498
0.795659
0.760363
0.784297
0.848893
171
359
537
724
916
1100
1286
1482
1688
1873
2061
2254
2448
2629
2817
3009
3198
3380
3572
3697
0
0
0
0
0
0
0
0
0
0
0
0
0
0
0
0
0
0
0
0
0
0
0
0
0
0
0
0
0
0
0
0
0
0
0
0
0
0
0
0
0
0
0
0
0
0
0
0
0
0
0
0
0
0
0
0
0
0
0
0
0
0
0
0
0
0
0
0
0
0
0
0
0
0
0
0
0
0
0
0
0
0
0
0
0
0
0
0
0
0
0
0
0
0
0
0
0
0
0
0
0
0
0
0
0
0
0
0
0
0
0
0
0
0
0
0
0
0
0
0
0
0
0
0
0
0
0
0
0
0
0
0
0
0
0
0
0
0
0
0
0
0
0
0
0
0
0
0
0
0
0
0
0
0
0
0
0
0
0
0
0
0
0
0
0
0
0
0
0
0
0
0
0
0
0
0
0
0
0
0
0
0
0
0
0
0
0
0
0
0
0
0
0
0
0
0
0
0
0
0
0
0
0
0
0
0
0
0
0
0
0
0
0
0
0
0
0
0
0
0
0
0
0
0
0
0
0
0
0
0
0
0
0
0
0
0
0
0
0
0
0
0
0
0
0
0
0
0
0
0
0
0
0
0
0
0
0
0
0
0
0
0
0
0
0
0
0
0
0
0
0
0
0
0
0
0
0
0
0
0
0
0
0
0
0
0
0
0
0
0
0
0
0
0
0
0
0
0
0
0
0
0
0
0
0
0
0
0
0
0
0
0
0
0
0
0
0
0
0
0
0
0
0
0
0
0
0
0
0
0
0
0
0
0
0
0
0
0
0
0
0
0
0
0
0
0
0
0
0
0
0
0
0
0
0
0
0
0
0
0
0
0
0
0
0
0
0
0
0
0
0
0
0
0
0
0
0
0
0
0
0
0
0
0
0
0
0
0
0
0
0
0
0
0
0
0
0
0
0
0
0
0
0
0
0
0
0
0
0
0
0
0
0
0
0
0
0
0
0
0
0
0
0
0
0
0
0
0
0
0
0
0
0
0
0
0
0
0
0
0
0
0
0
0
0
0
0
0
0
0
0
0
0
0
0
0
0
0
0
0
0
0
0
0
0
0
0
0
0
0
0
0
0
0
0
0
0
0
0
0
0
0
0
0
0
0
0
0
0
0
0
0
0
0
0
0
0
0
0
0
0
0
0
0
0
0
0
0
0
0
0
0
0
0
0
0
0
0
0
0
0
0
0
0
0
0
0
0
0
0
0
0
0
0
0
0
0
0
0
0
0
0
0
0
0
0
0
0
0
0
0
0
0
0
0
0
0
0
0
0
0
0
0
0
0
0
0
0
0
0
0
0
0
0
0
0
0
0
0
0
0
0
0
0
0
0
0
0
0
0
0
0
0
0
0
0
0
0
0
0
0
0
0
0
0
0
0
0
0
0
0
0
0
0
0
0
0
0
0
0
0
0
0
0
0
0
0
0
0
0
0
0
0
0
0
0
0
0
0
0
0
0
0
0
0
0
0
0
0
0
0
0
0
0
0
0
0
0
0
0
0
0
0
0
0
0
0
0
0
0
0
0
0
0
0
0
0
0
0
0
0
0
0
0
0
0
0
0
0
0
0
0
0
0
0
0
0
0
0
0
0
0
0
0
0
0
0
0
0
0
0
0
0
0
0
0
0
0
0
0
0
0
0
0
0
0
0
0
0
0
0
0
0
0
0
0
0
0
0
0
0
0
0
0
0
0
0
0
0
0
0
0
0
0
0
0
0
0
0
0
0
0
0
0
0
0
0
0
0
0
0
0
0
0
0
0
0
0
0
0
0
0
0
0
0
0
0
0
0
0
0
0
0
0
0
0
0
0
0
0
0
0
0
0
0
0
0
0
0
0
0
0
0
0
0
0
0
0
0
0
0
0
0
0
0
0
0
0
0
0
0
0
0
0
0
0
0
0
0
0
0
0
0
0
0
0
0
0
0
0
0
0
0
0
0
0
0
0
0
0
0
0
0
0
0
0
0
0
0
0
0
0
0
0
0
0
0
0
0
0
0
0
0
0
0
0
0
0
0
0
0
0
0
0
0
0
0
0
0
0
0
0
0
0
0
0
0
0
0
0
0
0
0
0
0
0
0
0
0
0
0
0
0
0
0
0
0
0
0
0
0
0
0
0
0
0
0
0
0
0
0
0
0
0
0
0
0
0
0
0
0
0
0
0
0
0
0
0
0
0
0
0
0
0
0
0
0
0
0
0
0
0
0
0
0
0
0
0
0
0
0
0
0
0
0
0
0
0
0
0
0
0
0
0
0
0
0
0
0
0
0
0
0
0
0
0
0
0
0
0
0
0
0
0
0
0
0
0
0
0
0
0
0
0
0
0
0
0
0
0
0
0
0
0
0
0
0
0
0
0
0
0
0
0
0
0
0
0
0
0
0
0
0
0
0
0
0
0
0
0
0
0
0
0
0
0
0
0
0
0
0
0
0
0
0
0
0
0
0
0
0
0
0
0
0
0
0
0
0
0
0
0
0
0
0
0
0
0
0
0
0
0
0
0
0
0
0
0
0
0
0
0
0
0
0
0
0
0
0
0
0
0
0
0
0
0
0
0
0
0
0
0
0
0
0
0
0
0
0
0
0
0
0
0
0
0
0
0
0
0
0
0
0
0
0
0
0
0
0
0
0
0
0
0
0
0
0
0
0
0
0
0
0
0
0
0
0
0
0
0
0
0
0
0
0
0
0
0
0
0
0
0
0
0
0
0
0
0
0
0
0
0
0
0
0
0
0
0
0
0
0
0
0
0
0
0
0
0
0
0
0
0
0
0
0
0
0
0
0
0
0
0
0
0
0
0
0
0
0
0
0
0
0
0
0
0
0
0
0
0
0
0
0
0
0
0
0
0
0
0
0
0
0
0
0
0
0
0
0
0
0
0
0
0
0
0
0
0
0
0
0
0
0
0
0
0
0
0
0
0
0
0
0
0
0
0
0
0
0
0
0
0
0
0
0
0
0
0
0
0
0
0
0
0
0
0
0
0
0
0
0
0
0
0
0
0
0
0
0
0
0
0
0
0
0
0
0
0
0
0
0
0
0
0
0
0
0
0
0
0
0
0
0
0
0
0
0
0
0
0
0
0
0
0
0
0
0
0
0
0
0
0
0
0
0
0
0
0
0
0
0
0
0
0
0
0
0
0
0
0
0
0
0
0
0
0
0
0
0
0
0
0
0
0
0
0
0
0
0
0
0
0
0
0
0
0
0
0
0
0
0
0
0
0
0
0
0
0
0
0
0
0
0
0
0
0
0
0
0
0
0
0
0
0
0
0
0
0
0
0
0
0
0
0
0
0
0
0
0
0
0
0
0
0
0
0
0
0
0
0
0
0
0
0
0
0
0
0
0
0
0
0
0
0
0
0
0
0
0
0
0
0
0
0
0
0
0
0
0
0
0
0
0
0
0
0
0
0
0
0
0
0
0
0
0
0
0
0
0
0
0
0
0
0
0
0
0
0
0
0
0
0
0
0
0
0
0
0
0
0
0
0
0
0
0
0
0
0
0
0
0
0
0
0
0
0
0
0
0
0
0
0
0
0
0
0
0
0
0
0
0
0
0
0
0
0
0
0
0
0
0
0
0
0
0
0
0
0
0
0
0
0
0
0
0
0
0
0
0
0
0
0
0
0
0
0
0
0
0
0
0
0
0
0
0
0
0
0
0
0
0
0
0
0
0
0
0
0
0
0
0
0
0
0
0
0
0
0
0
0
0
0
0
0
0
0
0
0
0
0
0
0
0
0
0
0
0
0
0
0
0
0
0
0
0
0
0
0
0
0
0
0
0
0
0
0
0
0
0
0
0
0
0
0
0
0
0
0
0
0
0
0
0
0
0
0
0
0
0
0
0
0
0
0
0
0
0
0
0
0
0
0
0
0
0
0
0
0
0
0
0
0
0
0
0
0
0
0
0
0
0
0
0
0
0
0
0
0
0
0
0
0
0
0
0
0
0
0
0
0
0
0
0
0
0
0
0
0
0
0
0
0
0
0
0
0
0
0
0
0
0
0
0
0
0
0
0
0
0
0
0
0
0
0
0
0
0
0
0
0
0
0
0
0
0
0
0
0
0
0
0
0
0
0
0
0
0
0
0
0
0
0
0
0
0
0
0
0
0
0
0
0
0
0
0
0
0
0
0
0
0
0
0
0
0
0
0
0
0
0
0
0
0
0
0
0
0
0
0
0
0
0
0
0
0
0
0
0
0
0
0
0
0
0
0
0
0
0
0
0
0
0
0
0
0
0
0
0
0
0
0
0
0
0
0
0
0
0
0
0
0
0
0
0
0
0
0
0
0
0
0
0
0
0
0
0
0
0
0
0
0
0
0
0
0
0
0
0
0
0
0
0
0
0
0
0
0
0
0
0
0
0
0
0
0
0
0
0
0
0
0
0
0
0
0
0
0
0
0
0
0
0
0
0
0
0
0
0
0
0
0
0
0
0
0
0
0
0
0
0
0
0
0
0
0
0
0
0
0
0
0
0
0
0
0
0
0
0
0
0
0
0
0
0
0
0
0
0
0
0
0
0
0
0
0
0
0
0
0
0
0
0
0
0
0
0
0
0
0
0
0
0
0
0
0
0
0
0
0
0
0
0
0
0
0
0
0
0
0
0
0
0
0
0
0
0
0
0
0
0
0
0
0
0
0
0
0
0
0
0
0
0
0
0
0
0
0
0
0
0
0
0
0
0
0
0
0
0
0
0
0
0
0
0
0
0
0
0
0
0
0
0
0
0
0
0
0
0
0
0
0
0
0
0
0
0
0
0
0
0
0
0
0
0
0
0
0
0
0
0
0
0
0
0
0
0
0
0
0
0
0
0
0
0
0
0
0
0
0
0
0
0
0
0
0
0
0
0
0
0
0
0
0
0
0
0
0
0
0
0
0
0
0
0
0
0
0
0
0
0
0
0
0
0
0
0
0
0
0
0
0
0
0
0
0
0
0
0
0
0
0
0
0
0
0
0
0
0
0
0
0
0
0
0
0
0
0
0
0
0
0
0
0
0
0
0
0
0
0
0
0
0
0
0
0
0
0
0
0
0
0
0
0
0
0
0
0
0
0
0
0
0
0
0
0
0
0
0
0
0
0
0
0
0
0
0
0
0
0
0
0
0
0
0
0
0
0
0
0
0
0
0
0
0
0
0
0
0
0
0
0
0
0
0
0
0
0
0
0
0
0
0
0
0
0
0
0
0
0
0
0
0
0
0
0
0
0
0
0
0
0
0
0
0
0
0
0
0
0
0
0
0
0
0
0
0
0
0
0
0
0
0
0
0
0
0
0
0
0
0
0
0
0
0
0
0
0
0
0
0
0
0
0
0
0
0
0
0
0
0
0
0
0
0
0
0
0
0
0
0
0
0
0
0
0
0
0
0
0
0
0
0
0
0
0
0
0
0
0
0
0
0
0
0
0
0
0
0
0
0
0
0
0
0
0
0
0
0
0
0
0
0
0
0
0
0
0
0
0
0
0
0
0
0
0
0
0
0
0
0
0
0
0
0
0
0
0
0
0
0
0
0
0
0
0
0
0
0
0
0
0
0
0
0
0
0
0
0
0
0
0
0
0
0
0
0
0
0
0
0
0
0
0
0
0
0
0
0
0
0
0
0
0
0
0
0
0
0
0
0
0
0
0
0
0
0
0
0
0
0
0
0
0
0
0
0
0
0
0
0
0
0
0
0
0
0
0
0
0
0
0
0
0
0
0
0
0
0
0
0
0
0
0
0
0
0
0
0
0
0
0
0
0
0
0
0
0
0
0
0
0
0
0
0
0
0
0
0
0
0
0
0
0
0
0
0
0
0
0
0
0
0
0
0
0
0
0
0
0
0
0
0
0
0
0
0
0
0
0
0
0
0
0
0
0
0
0
0
0
0
0
0
0
0
0
0
0
0
0
0
0
0
0
0
0
0
0
0
0
0
0
0
0
0
0
0
0
0
0
0
0
0
0
0
0
0
0
0
0
0
0
0
0
0
0
0
0
0
0
0
0
0
0
0
0
0
0
0
0
0
0
0
0
0
0
0
0
0
0
0
0
0
0
0
0
0
0
0
0
0
0
0
0
0
0
0
0
0
0
0
0
0
0
0
0
0
0
0
0
0
0
0
0
0
0
0
0
0
0
0
0
0
0
0
0
0
0
0
0
0
0
0
0
0
0
0
0
0
0
0
0
0
0
0
0
0
0
0
0
0
0
0
0
0
0
0
0
0
0
0
0
0
0
0
0
0
0
0
0
0
0
0
0
0
0
0
0
0
0
0
0
0
0
0
0
0
0
0
0
0
0
0
0
0
0
0
0
0
0
0
0
0
0
0
0
0
0
0
0
0
0
0
0
0
0
0
0
0
0
0
0
0
0
0
0
0
0
0
0
0
0
0
0
0
0
0
0
0
0
0
0
0
0
0
0
0
0
0
0
0
0
0
0
0
0
0
0
0
0
0
0
0
0
0
0
0
0
0
0
0
0
0
0
0
0
0
0
0
0
0
0
0
0
0
0
0
0
0
0
0
0
0
0
0
0
0
0
0
0
0
0
0
0
0
0
0
0
0
0
0
0
0
0
0
0
0
0
0
0
0
0
0
0
0
0
0
0
0
0
0
0
0
0
0
0
0
0
0
0
0
0
0
0
0
0
0
0
0
0
0
0
0
0
0
0
0
0
0
0
0
0
0
0
0
0
0
0
0
0
0
0
0
0
0
0
0
0
0
0
0
0
0
0
0
0
0
0
0
0
0
0
0
0
0
0
0
0
0
0
0
0
0
0
0
0
0
0
0
0
0
0
0
0
0
0
0
0
0
0
0
0
0
0
0
0
0
0
0
0
0
0
0
0
0
0
0
0
0
0
0
0
0
0
0
0
0
0
0
0
0
0
0
0
0
0
0
0
0
0
0
0
0
0
0
0
0
0
0
0
0
0
0
0
0
0
0
0
0
0
0
0
0
0
0
0
0
0
0
0
0
0
0
0
0
0
0
0
0
0
0
0
0
0
0
0
0
0
0
0
0
0
0
0
0
0
0
0
0
0
0
0
0
0
0
0
0
0
0
0
0
0
0
0
0
0
0
0
0
0
0
0
0
0
0
0
0
0
0
0
0
0
0
0
0
0
0
0
0
0
0
0
0
0
0
0
0
0
0
0
0
0
0
0
0
0
0
0
0
0
0
0
0
0
0
0
0
0
0
0
0
0
0
0
0
0
0
0
0
0
0
0
0
0
0
0
0
0
0
0
0
0
0
0
0
0
0
0
0
0
0
0
0
0
0
0
0
0
0
0
0
0
0
0
0
0
0
0
0
0
0
0
0
0
0
0
0
0
0
0
0
0
0
0
0
0
0
0
0
0
0
0
0
0
0
0
0
0
0
0
0
0
0
0
0
0
0
0
0
0
0
0
0
0
0
0
0
0
0
0
0
0
0
0
0
0
0
0
0
0
0
0
0
0
0
0
0
0
0
0
0
0
0
0
0
0
0
0
0
0
0
0
0
0
0
0
0
0
0
0
0
0
0
0
0
0
0
0
0
0
0
0
0
0
0
0
0
0
0
0
0
0
0
0
0
0
0
0
0
0
0
0
0
0
0
0
0
0
0
0
0
0
0
0
0
0
0
0
0
0
0
0
0
0
0
0
0
0
0
0
0
0
0
0
0
0
0
0
0
0
0
0
0
0
0
0
0
0
0
0
0
0
0
0
0
0
0
0
0
0
0
0
0
0
0
0
0
0
0
0
0
0
0
0
0
0
0
0
0
0
0
0
0
0
0
0
0
0
0
0
0
0
0
0
0
0
0
0
0
0
0
0
0
0
0
0
0
0
0
0
0
0
0
0
0
0
0
0
0
0
0
0
0
0
0
0
0
0
0
0
0
0
0
0
0
0
0
0
0
0
0
0
0
0
0
0
0
0
0
0
0
0
0
0
0
0
0
0
0
0
0
0
0
0
0
0
0
0
0
0
0
0
0
0
0
0
0
0
0
0
0
0
0
0
0
0
0
0
0
0
0
0
0
0
0
0
0
0
0
0
0
0
0
0
0
0
0
0
0
0
0
0
0
0
0
0
0
0
0
0
0
0
0
0
0
0
0
0
0
0
0
0
0
0
0
0
0
0
0
0
0
0
0
0
0
0
0
0
0
0
0
0
0
0
0
0
0
0
0
0
0
0
0
0
0
0
0
0
0
0
0
0
0
0
0
0
0
0
0
0
0
0
0
0
0
0
0
0
0
0
0
0
0
0
0
0
0
0
0
0
0
0
0
0
0
0
0
0
0
0
0
0
0
0
0
0
0
0
0
0
0
0
0
0
0
0
0
0
0
0
0
0
0
0
0
0
0
0
0
0
0
0
0
0
0
0
0
0
0
0
0
0
0
0
0
0
0
0
0
0
0
0
0
0
0
0
0
0
0
0
0
0
0
0
0
0
0
0
0
0
0
0
0
0
