4.19177
4.26761
4.34015
4.40795
4.4685
4.51837
4.55494
4.57695
4.58546
4.58463
4.58188
4.58687
4.60967
4.65821
4.73604
4.83804
4.96031
5.0937
5.22917
5.36071
5.48735
5.61335
5.74665
5.89631
6.06975
6.26874
6.48993
6.73032
6.98679
7.25559
7.53262
7.81347
8.09315
8.3636
8.6146
8.8359
9.01817
9.1544
9.2405
9.27484
9.25675
9.18496
9.05652
8.87308
8.63604
8.3419
7.98905
7.579
7.11827
6.61977
6.09699
5.56351
5.03415
4.52341
4.04382
3.60493
3.21551
2.87925
2.58745
2.32729
2.08554
1.85222
1.62311
1.40039
1.19142
1.00606
0.851847
0.734715
0.656551
0.6151
0.604798
0.618019
0.645728
0.680796
0.715286
0.742819
0.759223
0.762898
0.754869
0.738403
0.718169
0.699123
0.68544
0.678872
0.679312
0.686129
0.697893
0.71215
0.725137
0.732955
0.732548
0.722533
0.703702
0.678926
0.652362
0.628126
0.608843
0.594851
0.58317
0.567849
0.542352
0.502047
0.446223
0.37887
0.307845
0.242655
0.191532
0.161795
0.152894
0.154322
0.151196
0.129392
0.0802515
0.00331249
-0.0935633
-0.196367
-0.288502
-0.357425
-0.399534
-0.415309
-0.40278
-0.356367
-0.276146
-0.180372
-0.0919237
-0.0307169
-0.00811901
-0.0238975
-0.0670712
-0.12047
-0.167091
-0.195482
-0.206996
-0.20688
-0.198202
-0.182796
-0.161933
-0.135934
-0.104082
-0.0648011
-0.0161024
0.0439044
0.117398
0.209616
0.327267
0.460438
0.584917
0.673318
0.704976
0.674103
0.591712
0.480248
0.364094
0.261092
0.173359
0.0959366
0.0257224
-0.0393673
-0.101405
-0.162336
-0.223598
-0.285873
-0.348719
-0.40958
-0.464002
-0.5067
-0.532942
-0.53989
-0.527423
-0.498233
-0.457223
-0.410528
-0.369022
0
1.06199
2.96158
5.50174
8.13904
10.1618
10.9724
10.3386
8.4888
6.01046
3.6059
1.8264
0.902173
0.726804
0.956324
0.958551
0.953168
0.939329
0.918875
0.896437
0.877905
0.868365
0.869231
0.879308
0.896705
0.918632
0.942593
0.967417
0.993854
1.0246
1.06377
1.116
1.18547
1.27423
1.38234
1.50882
1.65183
1.80877
1.97674
2.15306
2.33579
2.524
2.71793
2.91881
3.12848
3.34896
3.58181
3.82773
4.08626
4.35567
4.63313
4.91502
5.19731
5.47602
5.74742
6.008
6.25392
6.47979
6.67793
6.83955
6.95739
7.02081
7.01655
6.93077
6.75144
6.47087
6.0879
5.6098
5.05446
4.45584
3.84379
3.238
2.65461
2.1084
1.61156
1.17302
0.797965
0.487741
0.24027
0.0526369
-0.0759686
-0.148626
-0.184894
-0.212347
-0.256125
-0.334103
-0.452859
-0.620394
-0.80374
-0.958575
-1.04638
-1.04918
-0.975683
-0.856465
-0.731165
-0.633733
-0.573326
-0.537188
-0.522148
-0.523395
-0.535195
-0.551983
-0.569361
-0.584534
-0.595833
-0.602381
-0.603968
-0.6009
-0.593791
-0.583912
-0.573117
-0.563127
-0.555091
-0.549298
-0.545241
-0.542067
-0.53929
-0.53754
-0.539009
-0.547059
-0.565098
-0.59513
-0.636532
-0.685522
-0.735528
-0.778371
-0.806341
-0.815479
-0.803286
-0.769539
-0.716611
-0.64817
-0.572537
-0.499373
-0.437573
-0.393869
-0.371973
-0.372356
-0.39255
-0.427783
-0.471722
-0.517131
-0.557762
-0.588315
-0.604429
-0.603333
-0.584248
-0.548548
-0.499272
-0.440374
-0.378545
-0.320775
-0.272176
-0.234826
-0.207364
-0.185506
-0.163365
-0.13512
-0.0964483
-0.0462296
0.0143258
0.0842567
0.163155
0.251076
0.350266
0.467466
0.607094
0.747588
0.851801
0.878836
0.802208
0.624518
0.380172
0.124029
-0.0886621
-0.228149
-0.32161
-0.386662
-0.427218
-0.448697
-0.457119
-0.458356
-0.45751
-0.458565
-0.46439
-0.476756
-0.496382
-0.522983
-0.555453
-0.591648
-0.628757
-0.663642
-0.628802
0
1.28259
3.2247
5.58537
7.88851
9.55906
10.1435
9.50011
7.85354
5.69175
3.56836
1.91511
0.93562
0.596377
0.687711
0.673623
0.649845
0.614105
0.566172
0.51282
0.466531
0.441331
0.448814
0.49494
0.578511
0.691572
0.821345
0.953257
1.07081
1.16208
1.22235
1.25541
1.27306
1.29243
1.33148
1.40396
1.51595
1.65831
1.82007
1.99591
2.18257
2.37823
2.58248
2.79578
3.01864
3.25086
3.49093
3.7365
3.9847
4.23281
4.47881
4.72185
4.96236
5.20186
5.44268
5.68897
5.95043
6.24664
6.59078
6.94921
7.26399
7.48592
7.57756
7.50814
7.25105
6.79259
6.15009
5.39094
4.64535
3.99222
3.39795
2.83514
2.30102
1.79593
1.31965
0.872328
0.455328
0.0721257
-0.272907
-0.569206
-0.780618
-0.862801
-0.843352
-0.772428
-0.704283
-0.679104
-0.712755
-0.797487
-0.910392
-1.02392
-1.11453
-1.17838
-1.22075
-1.24665
-1.25814
-1.25931
-1.25403
-1.24462
-1.23114
-1.21143
-1.18216
-1.14028
-1.08456
-1.01728
-0.943033
-0.866251
-0.791603
-0.723535
-0.666069
-0.622037
-0.592605
-0.577637
-0.575905
-0.585375
-0.603579
-0.628074
-0.656916
-0.689036
-0.724285
-0.763322
-0.80704
-0.855862
-0.909516
-0.965813
-1.01987
-1.0658
-1.09827
-1.114
-1.11254
-1.09627
-1.0695
-1.03717
-1.00369
-0.971851
-0.943037
-0.918145
-0.897793
-0.882602
-0.873354
-0.870857
-0.87568
-0.88792
-0.906928
-0.93121
-0.958558
-0.986385
-1.01216
-1.03376
-1.04974
-1.0591
-1.06108
-1.05488
-1.03957
-1.01414
-0.977891
-0.930735
-0.873641
-0.8085
-0.73758
-0.66311
-0.58664
-0.508545
-0.427868
-0.342564
-0.249753
-0.144606
-0.0218787
0.116521
0.25674
0.378889
0.462997
0.493664
0.462988
0.371816
0.229845
0.0545184
-0.131849
-0.307599
-0.46003
-0.587517
-0.694194
-0.782548
-0.852699
-0.904107
-0.937556
-0.953744
-0.953944
-0.940776
-0.917925
-0.891893
-0.869707
-0.857099
-0.856785
-0.867543
-0.884493
-0.776673
0
1.59336
3.88771
6.46707
8.71344
10.0187
10.0258
8.77845
6.6982
4.40002
2.44326
1.1445
0.528291
0.408556
0.456936
0.491147
0.517504
0.533683
0.538511
0.532172
0.516336
0.494221
0.470478
0.451387
0.444093
0.455355
0.490282
0.551173
0.636826
0.742613
0.861401
0.985119
1.10659
1.22186
1.32983
1.4317
1.53089
1.63228
1.74124
1.86282
2.00106
2.15885
2.33797
2.5393
2.76315
3.00945
3.27773
3.56703
3.8756
4.2007
4.53858
4.88471
5.23429
5.58289
5.92654
6.26103
6.58064
6.88406
7.18408
7.46791
7.68827
7.78692
7.72098
7.47726
7.06974
6.52679
5.88278
5.19366
4.51734
3.86827
3.25006
2.6729
2.14577
1.67478
1.26272
0.908888
0.609132
0.357654
0.147094
-0.0365681
-0.211283
-0.394923
-0.603009
-0.84657
-1.13062
-1.45506
-1.83028
-2.24616
-2.65383
-3.00008
-3.24987
-3.38738
-3.41183
-3.33299
-3.16855
-2.94317
-2.68823
-2.43957
-2.22303
-2.0425
-1.89149
-1.76374
-1.6573
-1.57
-1.50072
-1.44956
-1.4157
-1.39936
-1.40078
-1.41877
-1.44946
-1.48598
-1.51926
-1.53987
-1.54025
-1.51863
-1.47571
-1.41576
-1.34648
-1.27688
-1.21515
-1.16694
-1.13453
-1.11676
-1.10983
-1.10862
-1.10807
-1.10441
-1.09581
-1.08224
-1.06455
-1.04398
-1.02198
-0.999945
-0.979184
-0.960863
-0.946023
-0.935553
-0.930087
-0.929861
-0.934581
-0.943356
-0.954716
-0.966694
-0.977093
-0.983621
-0.984006
-0.976171
-0.958495
-0.929931
-0.889995
-0.838882
-0.777367
-0.707286
-0.632498
-0.559435
-0.495551
-0.447621
-0.42027
-0.414726
-0.428105
-0.453467
-0.480662
-0.497851
-0.493761
-0.461802
-0.39863
-0.278841
-0.058274
0.274818
0.644065
0.962108
1.16979
1.23699
1.15725
0.944755
0.636387
0.295664
0.0099535
-0.160931
-0.241333
-0.27246
-0.275987
-0.257311
-0.223155
-0.180776
-0.137254
-0.098522
-0.0696478
-0.054485
-0.0556015
-0.0741739
-0.10995
-0.161618
-0.227709
-0.30447
-0.388028
-0.474937
-0.562525
0
1.15264
2.90136
5.09365
7.38643
9.29266
10.3207
10.1748
8.91329
6.951
4.87609
3.18141
2.07478
1.47849
1.19416
1.16646
1.14488
1.12657
1.11155
1.09949
1.09006
1.08339
1.08043
1.08312
1.09429
1.11719
1.15463
1.20836
1.27875
1.36593
1.46773
1.57965
1.69737
1.81796
1.94063
2.06669
2.19878
2.33987
2.49231
2.6563
2.8313
3.01701
3.21302
3.41887
3.63395
3.85741
4.08796
4.32391
4.56345
4.80508
5.0481
5.29298
5.54149
5.7964
6.06362
6.36198
6.73606
7.20542
7.67999
8.06887
8.32118
8.41422
8.34219
8.11341
7.75613
7.32069
6.85913
6.3751
5.84095
5.27241
4.68744
4.09547
3.50401
2.92255
2.36214
1.83438
1.35008
0.918265
0.550129
0.269379
0.105073
0.0460139
0.0482635
0.0657128
0.06222
0.0200499
-0.058104
-0.153979
-0.243522
-0.307806
-0.346102
-0.369451
-0.38481
-0.399625
-0.419586
-0.446656
-0.478369
-0.508632
-0.529757
-0.535004
-0.522149
-0.4939
-0.453698
-0.405275
-0.352797
-0.299983
-0.249482
-0.202791
-0.160542
-0.12337
-0.0926562
-0.0708344
-0.061017
-0.066686
-0.0903997
-0.13251
-0.190407
-0.258618
-0.329765
-0.396098
-0.451677
-0.494429
-0.524045
-0.541006
-0.547128
-0.545577
-0.539739
-0.532509
-0.525859
-0.520724
-0.517191
-0.51489
-0.513412
-0.512622
-0.512734
-0.51417
-0.517253
-0.521869
-0.527222
-0.531779
-0.533423
-0.529808
-0.518984
-0.499685
-0.471405
-0.434516
-0.391142
-0.345232
-0.301737
-0.2657
-0.241398
-0.231543
-0.236652
-0.254695
-0.281094
-0.309166
-0.331042
-0.338999
-0.326798
-0.29119
-0.232466
-0.153113
-0.0578955
0.0471421
0.155675
0.261856
0.359263
0.441433
0.50379
0.542639
0.555517
0.541749
0.502801
0.442154
0.364695
0.275954
0.181907
0.0876519
-0.00262809
-0.0846713
-0.154771
-0.210028
-0.248783
-0.270911
-0.277811
-0.272063
-0.256852
-0.235335
-0.210364
-0.183809
-0.156635
-0.129211
-0.101455
-0.0729973
0
0.650319
2.15819
4.47467
7.10969
9.29616
10.3428
9.97373
8.45185
6.41431
4.5286
3.18503
2.39924
1.94594
1.62045
1.4825
1.36389
1.25917
1.17087
1.10062
1.04924
1.01707
1.00448
1.01201
1.04029
1.08966
1.15957
1.24815
1.3522
1.46772
1.58881
1.70999
1.82741
1.93983
2.04887
2.15858
2.27451
2.40235
2.54673
2.70926
2.8898
3.08705
3.29851
3.52104
3.75149
3.98731
4.22694
4.46997
4.71709
4.96972
5.22959
5.49817
5.77621
6.06428
6.36303
6.67204
6.986
7.28923
7.55904
7.77327
7.90809
7.94056
7.85269
7.63431
7.28412
6.81036
6.23432
5.60544
4.97546
4.36586
3.78234
3.23253
2.72291
2.25655
1.83314
1.44955
1.10066
0.780524
0.483447
0.204891
-0.0578698
-0.305441
-0.536371
-0.74709
-0.932672
-1.08887
-1.2126
-1.30232
-1.35392
-1.36971
-1.3601
-1.33627
-1.30719
-1.27735
-1.24616
-1.20914
-1.1605
-1.09611
-1.0114
-0.913648
-0.818926
-0.744434
-0.701774
-0.692234
-0.705949
-0.725335
-0.731582
-0.711803
-0.667755
-0.607395
-0.541857
-0.483113
-0.439629
-0.413318
-0.398815
-0.38517
-0.359147
-0.303974
-0.185668
0.0164898
0.256988
0.471
0.601267
0.611194
0.494063
0.277586
0.0194249
-0.209452
-0.350899
-0.41628
-0.441435
-0.444502
-0.430792
-0.401695
-0.357796
-0.299151
-0.22549
-0.134598
-0.0270765
0.0881329
0.196127
0.281688
0.33376
0.348874
0.332215
0.29596
0.255486
0.224896
0.212253
0.217241
0.236603
0.268205
0.311499
0.366603
0.434545
0.517127
0.616468
0.734352
0.876505
1.05507
1.27494
1.50941
1.71957
1.86912
1.93517
1.91412
1.82065
1.68174
1.52929
1.39386
1.29041
1.21698
1.16723
1.13676
1.1226
1.11401
1.09919
1.06862
1.01808
0.949953
0.871978
0.793759
0.72215
0.657478
0.592668
0.515296
0.401111
0.238981
0.0324355
-0.199999
0
1.06895
3.00273
5.53713
8.18106
10.3304
11.4468
11.2577
9.87771
7.77162
5.55795
3.75357
2.59896
2.04265
1.85796
1.71655
1.58464
1.4612
1.35108
1.25841
1.18604
1.13504
1.10598
1.0955
1.0989
1.1113
1.12877
1.14903
1.17153
1.19696
1.22648
1.261
1.30049
1.34473
1.39357
1.44726
1.50675
1.5737
1.6502
1.73833
1.83967
1.9549
2.08397
2.22685
2.3838
2.55555
2.74347
2.9493
3.17469
3.4206
3.68677
3.97149
4.27167
4.58328
4.90234
5.22514
5.54708
5.86144
6.16097
6.43112
6.64088
6.75276
6.73762
6.58412
6.29875
5.89874
5.40358
4.83147
4.22164
3.60223
2.986
2.38071
1.79497
1.23722
0.715065
0.234702
-0.199639
-0.585957
-0.92446
-1.2172
-1.46746
-1.67902
-1.85554
-1.99975
-2.11435
-2.20129
-2.25929
-2.2889
-2.29819
-2.29661
-2.29318
-2.29427
-2.30217
-2.31481
-2.32689
-2.33193
-2.32455
-2.30416
-2.27264
-2.23188
-2.18461
-2.13489
-2.08741
-2.04561
-2.01077
-1.98169
-1.95496
-1.92608
-1.89098
-1.8475
-1.79578
-1.73955
-1.68419
-1.63468
-1.59378
-1.56129
-1.53462
-1.51034
-1.48601
-1.46139
-1.4382
-1.41939
-1.40829
-1.40752
-1.41827
-1.43985
-1.46964
-1.50311
-1.5346
-1.55816
-1.56758
-1.55716
-1.52307
-1.4639
-1.37984
-1.26836
-1.13097
-0.982831
-0.844373
-0.733675
-0.661477
-0.628123
-0.623603
-0.630833
-0.631177
-0.610418
-0.566667
-0.506823
-0.436542
-0.36352
-0.294922
-0.235261
-0.185114
-0.141052
-0.096769
-0.0450608
0.0199464
0.100047
0.194062
0.298403
0.404763
0.502384
0.581136
0.633566
0.65618
0.649812
0.619124
0.571444
0.515244
0.458615
0.407765
0.365807
0.333457
0.310408
0.295882
0.288257
0.285173
0.283051
0.27721
0.262722
0.235155
0.191361
0.130095
0.0510086
-0.0445065
-0.151489
-0.26486
-0.380586
-0.49611
0
1.12426
2.98256
5.45109
8.09885
10.2766
11.3632
11.0505
9.49979
7.26802
5.04568
3.35887
2.39673
2.0284
1.95677
1.81571
1.67902
1.55438
1.45189
1.38279
1.35658
1.3778
1.44386
1.54491
1.66601
1.79093
1.90707
2.01073
2.10412
2.19069
2.27419
2.35911
2.44971
2.54934
2.6599
2.78188
2.91494
3.05825
3.21099
3.37255
3.54268
3.72135
3.90864
4.10458
4.30911
4.52223
4.74397
4.97433
5.21321
5.46023
5.71469
5.97556
6.24151
6.51105
6.78268
7.05496
7.32636
7.5949
7.85797
8.11148
8.34922
8.56666
8.75681
8.88402
8.88051
8.66617
8.18744
7.458
6.57881
5.71751
5.01497
4.40934
3.85084
3.3405
2.87947
2.46783
2.1052
1.79096
1.5242
1.30391
1.12846
0.994383
0.89575
0.824632
0.772645
0.731921
0.696018
0.660562
0.623533
0.585157
0.547452
0.51353
0.486689
0.469572
0.463727
0.469599
0.486337
0.51207
0.544369
0.580784
0.619272
0.658565
0.698182
0.738245
0.779181
0.821354
0.864737
0.90873
0.952029
0.99281
1.02907
1.05898
1.0811
1.09452
1.09867
1.0932
1.07781
1.05226
1.01639
0.970417
0.91518
0.852253
0.783937
0.713089
0.642879
0.576495
0.517277
0.468719
0.433802
0.414495
0.411763
0.42528
0.453283
0.492676
0.539411
0.589055
0.637363
0.680941
0.717178
0.743502
0.758309
0.760539
0.749734
0.726138
0.690763
0.645359
0.592306
0.534506
0.475441
0.419051
0.371143
0.339556
0.332469
0.358051
0.422869
0.530173
0.695995
0.929012
1.20088
1.46349
1.6761
1.81448
1.86991
1.84344
1.7416
1.57668
1.37021
1.15406
0.96331
0.819035
0.717752
0.644252
0.589343
0.548232
0.516655
0.491948
0.473492
0.462378
0.460404
0.468733
0.488837
0.517003
0.541129
0.545852
0.516803
0.444908
0.329293
0.177942
0
0.40505
1.78507
4.12899
6.99156
9.62055
11.2612
11.4809
10.3432
8.35095
6.2024
4.4868
3.46334
3.01998
2.81577
2.49736
2.22992
1.99714
1.81265
1.68446
1.61383
1.59589
1.62188
1.68209
1.76803
1.86989
1.98655
2.11448
2.24261
2.3542
2.43161
2.46202
2.44295
2.38541
2.31345
2.25961
2.25688
2.32228
2.44733
2.61555
2.81462
3.0371
3.27661
3.5275
3.78586
4.04938
4.31703
4.58832
4.86257
5.13842
5.41357
5.685
5.94938
6.20368
6.44573
6.67466
6.89105
7.09655
7.29292
7.48194
7.66573
7.83873
7.97804
8.0467
8.00486
7.82288
7.49118
7.02392
6.45571
5.83297
5.20444
4.59147
3.99986
3.43813
2.91277
2.42792
1.98543
1.58511
1.22521
0.903004
0.615588
0.363437
0.148848
-0.0288896
-0.169846
-0.274389
-0.344025
-0.381767
-0.391882
-0.379204
-0.348364
-0.303919
-0.250232
-0.190162
-0.126236
-0.0616695
3.85463e-005
0.0555797
0.10237
0.138995
0.165393
0.182729
0.19301
0.198573
0.201677
0.20378
0.205391
0.205856
0.202962
0.193156
0.172532
0.138006
0.0887856
0.0275575
-0.0399499
-0.101615
-0.143272
-0.152033
-0.119493
-0.0411153
0.0916624
0.265405
0.446596
0.601673
0.705189
0.743238
0.713758
0.62537
0.495882
0.35034
0.217597
0.120162
0.0652773
0.0486905
0.063346
0.106165
0.171506
0.252114
0.340169
0.428288
0.510129
0.581297
0.639656
0.685281
0.720034
0.7468
0.768575
0.787467
0.80474
0.820717
0.835663
0.850848
0.869249
0.895508
0.935034
0.998244
1.09848
1.23628
1.38511
1.5093
1.57648
1.56664
1.47742
1.32479
1.13861
0.953725
0.799504
0.681722
0.5904
0.51744
0.459373
0.41421
0.379552
0.352605
0.330259
0.309204
0.286134
0.258153
0.223198
0.180201
0.129822
0.0742145
0.0166602
0
0.600464
2.00379
4.17846
6.75922
9.12601
10.6169
10.7919
9.63116
7.56198
5.28159
3.45147
2.4153
2.09465
2.1158
1.98198
1.86979
1.76921
1.68812
1.63329
1.59897
1.57422
1.54722
1.51032
1.46342
1.41406
1.3745
1.35702
1.36764
1.40097
1.45425
1.52548
1.61204
1.71085
1.81971
1.93732
2.06289
2.19596
2.33623
2.4835
2.63761
2.79857
2.96667
3.14264
3.32763
3.52322
3.73119
3.9532
4.19045
4.44335
4.71129
4.99266
5.285
5.58542
5.89124
6.19995
6.50876
6.81461
7.11734
7.39917
7.61291
7.70102
7.62984
7.41137
7.09245
6.71545
6.28218
5.7826
5.25094
4.71012
4.17188
3.64647
3.14414
2.67355
2.24043
1.84696
1.49188
1.17133
0.88032
0.614124
0.369557
0.146102
-0.0547904
-0.230445
-0.377681
-0.493837
-0.577503
-0.628817
-0.649376
-0.641934
-0.609397
-0.552232
-0.470683
-0.371379
-0.271809
-0.191373
-0.146352
-0.144296
-0.180217
-0.236876
-0.289827
-0.315651
-0.300138
-0.252913
-0.187006
-0.111644
-0.0382437
0.0220496
0.0603456
0.0711898
0.0531469
0.00886378
-0.0553396
-0.130367
-0.205748
-0.271446
-0.320746
-0.352131
-0.36432
-0.359947
-0.346014
-0.330604
-0.320734
-0.320663
-0.331138
-0.349729
-0.372011
-0.393156
-0.409822
-0.420971
-0.426255
-0.426546
-0.423682
-0.419452
-0.414934
-0.410189
-0.404405
-0.396449
-0.385381
-0.371179
-0.355204
-0.339403
-0.325301
-0.313103
-0.301326
-0.287118
-0.267051
-0.237953
-0.198459
-0.148468
-0.0872872
-0.0144108
0.0704575
0.169313
0.282785
0.403419
0.516186
0.604111
0.65308
0.656068
0.614969
0.539363
0.442963
0.339409
0.238913
0.145727
0.0607421
-0.0155893
-0.082424
-0.13875
-0.18372
-0.216967
-0.238918
-0.250961
-0.25562
-0.257105
-0.261354
-0.274404
-0.30109
-0.34392
-0.402399
-0.473029
-0.550082
-0.625081
0
1.47497
3.75203
6.41935
8.80161
10.2296
10.3417
9.23667
7.3894
5.39629
3.71549
2.53952
1.82643
1.41963
1.22454
1.10408
0.997861
0.904362
0.825296
0.761332
0.712211
0.676939
0.654181
0.643193
0.644352
0.659349
0.690955
0.742365
0.816298
0.914103
1.03492
1.17591
1.33234
1.49816
1.66667
1.83054
1.98006
2.10793
2.21019
2.28687
2.34304
2.3892
2.44029
2.51325
2.62345
2.78139
2.98207
3.21655
3.47878
3.76335
4.06464
4.37771
4.69886
5.02657
5.36252
5.71308
6.0842
6.45289
6.77242
7.00191
7.11891
7.11724
6.99624
6.75193
6.37775
5.87542
5.27196
4.63569
4.02134
3.44401
2.90066
2.39433
1.93046
1.51138
1.13629
0.801791
0.503052
0.23502
-0.00639296
-0.22309
-0.415113
-0.581572
-0.721193
-0.831879
-0.913574
-0.970119
-1.00728
-1.03159
-1.04907
-1.06407
-1.07884
-1.09357
-1.1071
-1.11772
-1.12408
-1.12542
-1.12142
-1.11211
-1.09766
-1.07811
-1.05322
-1.02263
-0.986088
-0.943786
-0.896646
-0.846415
-0.795303
-0.746006
-0.70109
-0.662428
-0.630844
-0.606031
-0.586773
-0.571445
-0.558651
-0.547913
-0.539788
-0.535897
-0.53828
-0.548482
-0.566771
-0.591764
-0.620612
-0.649643
-0.675186
-0.6947
-0.706912
-0.710938
-0.706131
-0.691955
-0.667834
-0.633203
-0.58598
-0.523123
-0.447056
-0.37044
-0.30957
-0.279214
-0.287063
-0.330422
-0.39671
-0.467443
-0.523744
-0.552783
-0.555288
-0.535054
-0.493705
-0.431803
-0.350412
-0.250495
-0.133293
-0.000813198
0.145596
0.307703
0.495143
0.738104
1.03624
1.31855
1.45547
1.3375
0.957767
0.432348
-0.0592413
-0.367651
-0.487066
-0.543841
-0.576423
-0.587366
-0.579689
-0.556916
-0.523017
-0.482174
-0.438331
-0.394645
-0.353011
-0.313663
-0.275806
-0.237963
-0.198432
-0.155837
-0.10954
-0.0596303
0
0.473554
1.51267
3.25762
5.61141
8.16372
10.2593
11.2328
10.7229
8.89071
6.38698
4.05797
2.54325
2.00107
2.11859
2.21974
2.09279
1.95754
1.82052
1.68718
1.56253
1.45102
1.35836
1.28834
1.24332
1.22462
1.23241
1.26551
1.32154
1.39729
1.48947
1.5954
1.71255
1.83957
1.97655
2.12426
2.28349
2.45461
2.63737
2.8309
3.03374
3.24408
3.45988
3.67914
3.89998
4.12089
4.34095
4.56015
4.77963
5.00182
5.23026
5.46906
5.72205
5.99182
6.27891
6.58313
6.9011
7.22416
7.54054
7.83534
8.08952
8.28671
8.42349
8.48928
8.4634
8.32062
8.0418
7.62433
7.08802
6.47363
5.83487
5.21321
4.61774
4.0544
3.53106
3.05289
2.62264
2.24114
1.90791
1.62165
1.3806
1.18255
1.02487
0.904471
0.817747
0.760322
0.726287
0.707087
0.693659
0.678843
0.658662
0.632972
0.605188
0.58108
0.566951
0.567786
0.585555
0.619771
0.667748
0.725777
0.790362
0.858571
0.928938
1.00068
1.07263
1.1423
1.2056
1.25752
1.29336
1.31021
1.30817
1.29069
1.26415
1.23644
1.2152
1.20561
1.20892
1.22343
1.24646
1.27534
1.30706
1.33868
1.36762
1.39177
1.40972
1.42069
1.4246
1.42212
1.41465
1.40422
1.39321
1.38397
1.37837
1.37743
1.38153
1.39022
1.4023
1.41616
1.43018
1.44322
1.45487
1.46571
1.47726
1.49183
1.51223
1.54143
1.58208
1.637
1.71112
1.81612
1.97627
2.20797
2.46749
2.69197
2.81538
2.79201
2.61709
2.33401
2.02432
1.78364
1.68575
1.68158
1.74005
1.84324
1.96022
2.05995
2.1188
2.12397
2.07256
1.96781
1.81565
1.56936
1.07241
0.399537
-0.250231
-0.680569
-0.774307
-0.518789
0
1.03464
2.63374
4.87202
7.55082
10.1416
11.9577
12.475
11.5981
9.69854
7.4091
5.31952
3.76269
2.79202
2.29953
2.17917
2.24739
2.30888
2.36075
2.40085
2.43064
2.45499
2.48101
2.5161
2.56578
2.63133
2.70964
2.79597
2.88252
2.96154
3.02748
3.07857
3.11749
3.15089
3.18828
3.24032
3.3156
3.41876
3.55288
3.7196
3.91791
4.14422
4.39296
4.65745
4.93099
5.20793
5.48433
5.75825
6.02949
6.29895
6.5678
6.83675
7.10552
7.37275
7.63608
7.89208
8.13543
8.35738
8.54621
8.69349
8.79024
8.82693
8.795
8.68835
8.50373
8.2403
7.89965
7.48715
7.02524
6.53711
6.03891
5.54285
5.0599
4.59917
4.16686
3.76564
3.39484
3.05139
2.73112
2.43006
2.14544
1.87607
1.62213
1.38462
1.1647
0.96348
0.782858
0.627113
0.50261
0.413087
0.363765
0.360248
0.40567
0.497923
0.628225
0.781812
0.940586
1.08679
1.21132
1.30878
1.37542
1.41051
1.41556
1.39366
1.349
1.28721
1.21397
1.13549
1.05799
0.987072
0.927093
0.879446
0.845036
0.823459
0.813339
0.812651
0.818949
0.830084
0.844106
0.859223
0.873787
0.886259
0.895168
0.898945
0.895856
0.884395
0.863756
0.834122
0.797064
0.755609
0.714514
0.679476
0.656183
0.649274
0.661461
0.693009
0.742854
0.809573
0.885907
0.956469
1.00584
1.02257
1.00298
0.953655
0.8907
0.83553
0.808287
0.821695
0.867204
0.933533
1.01457
1.10528
1.20053
1.29543
1.38404
1.45815
1.50999
1.53133
1.51466
1.45511
1.3525
1.21235
1.04581
0.868037
0.695895
0.541762
0.411581
0.316643
0.280246
0.335587
0.480133
0.657724
0.807943
0.883178
0.860393
0.744343
0.561622
0.348556
0.137891
-0.0540429
-0.232688
-0.405525
0
1.12228
3.10739
5.78116
8.61385
10.8815
11.9554
11.5694
9.92303
7.57715
5.20496
3.33185
2.18159
1.68155
1.59273
1.58697
1.57515
1.56011
1.54212
1.52257
1.50369
1.48799
1.4777
1.4748
1.47975
1.49125
1.50766
1.52822
1.55407
1.58866
1.63732
1.70621
1.80104
1.92428
2.07474
2.25081
2.45042
2.67
2.90461
3.1486
3.39511
3.63322
3.85315
4.04908
4.22128
4.37678
4.52785
4.68883
4.87229
5.08592
5.32556
5.58499
5.85969
6.14443
6.43393
6.71982
6.98814
7.22492
7.41655
7.5515
7.62179
7.62305
7.55317
7.41047
7.19278
6.8999
6.54139
6.1271
5.66562
5.16644
4.64068
4.09845
3.54856
3.00053
2.46429
1.94966
1.46585
1.02084
0.62175
0.275817
-0.01193
-0.242352
-0.418429
-0.544465
-0.625263
-0.665439
-0.668983
-0.63913
-0.578542
-0.489754
-0.376723
-0.240988
-0.0842312
0.0894557
0.269762
0.436945
0.569753
0.649007
0.660832
0.600681
0.476207
0.306646
0.118237
-0.0621897
-0.215934
-0.341503
-0.43879
-0.504312
-0.536976
-0.538295
-0.5123
-0.464943
-0.403015
-0.3329
-0.259618
-0.186565
-0.115816
-0.0503517
0.0053288
0.0456499
0.0642234
0.0557756
0.0183755
-0.0449907
-0.126206
-0.213339
-0.293109
-0.355187
-0.396048
-0.412702
-0.405737
-0.378883
-0.337999
-0.289684
-0.239787
-0.191983
-0.147314
-0.104094
-0.0583073
-0.00450613
0.0629999
0.14884
0.254699
0.381899
0.533155
0.704443
0.877838
1.03011
1.14082
1.19752
1.19904
1.15569
1.086
1.01053
0.944881
0.892499
0.84687
0.800766
0.747158
0.679956
0.59561
0.49404
0.378724
0.256014
0.133945
0.0207922
-0.0761205
-0.151357
-0.201874
-0.227092
-0.228631
-0.209824
-0.175171
-0.129844
0
0.560179
1.80249
3.86457
6.54757
9.2784
11.2901
11.9538
11.0752
8.97936
6.34213
3.88287
2.09318
1.11975
0.808965
0.808785
0.736868
0.667834
0.607672
0.561869
0.53474
0.52898
0.546626
0.586484
0.644292
0.711921
0.77614
0.823154
0.842469
0.829148
0.785471
0.721391
0.653216
0.60047
0.581806
0.608372
0.676079
0.77836
0.913697
1.08113
1.27832
1.50219
1.7488
2.01313
2.28911
2.56986
2.84816
3.11703
3.37039
3.604
3.81624
4.00834
4.18439
4.35087
4.51586
4.6907
4.91112
5.2583
5.7203
6.169
6.49691
6.64571
6.60703
6.40871
6.09707
5.71832
5.29464
4.81293
4.28197
3.73166
3.17982
2.63605
2.10832
1.60453
1.13071
0.690168
0.283216
-0.0925755
-0.441479
-0.766103
-1.06568
-1.33627
-1.57158
-1.75948
-1.88431
-1.93546
-1.91413
-1.83523
-1.72328
-1.60455
-1.49954
-1.41434
-1.34534
-1.29294
-1.25817
-1.24114
-1.24075
-1.25414
-1.27631
-1.30056
-1.3198
-1.32816
-1.32265
-1.30332
-1.27403
-1.24035
-1.20745
-1.17849
-1.15395
-1.13233
-1.11153
-1.09041
-1.06969
-1.0516
-1.03926
-1.03573
-1.04293
-1.06095
-1.08775
-1.11953
-1.15152
-1.17927
-1.19962
-1.20928
-1.21024
-1.20695
-1.20341
-1.20032
-1.19375
-1.17603
-1.13882
-1.07711
-0.992214
-0.893274
-0.791883
-0.699922
-0.625663
-0.571058
-0.531086
-0.495248
-0.450592
-0.385291
-0.295913
-0.183745
-0.0462145
0.113768
0.277337
0.421538
0.526712
0.58158
0.585648
0.548241
0.484792
0.412039
0.344017
0.287341
0.242903
0.211014
0.192403
0.188112
0.200038
0.226065
0.25581
0.27655
0.276776
0.250221
0.198643
0.132051
0.0661568
0.0179811
0
0.00428257
0.0319325
0.0791334
0.141119
0.214589
0.633739
1.54265
3.16516
5.46418
8.01238
10.106
11.0826
10.6513
9.02807
6.80555
4.66212
3.08854
2.25895
2.06145
2.18731
2.09272
1.98563
1.86541
1.73418
1.60626
1.5007
1.43474
1.4176
1.44749
1.51276
1.59694
1.6853
1.77042
1.8537
1.93898
2.03121
2.13486
2.25258
2.38326
2.52449
2.67358
2.82771
2.9846
3.14309
3.30338
3.46688
3.63587
3.81298
4.00062
4.2005
4.41339
4.63891
4.87556
5.12079
5.37124
5.62298
5.87192
6.11428
6.34709
6.56864
6.77851
6.97724
7.16625
7.34913
7.53393
7.72482
7.9011
8.02326
8.04405
7.92158
7.63182
7.17749
6.59105
5.93006
5.264
4.63007
4.02623
3.45262
2.91522
2.41845
1.96542
1.55845
1.19871
0.88646
0.621051
0.401015
0.22549
0.0950932
0.00625267
-0.0451241
-0.0639236
-0.0506001
-0.00960464
0.0442345
0.0953724
0.131068
0.14469
0.137214
0.116085
0.0918911
0.0742504
0.0675983
0.0697224
0.0776138
0.087677
0.0955448
0.0971947
0.0898239
0.0723927
0.0458504
0.0130169
-0.021859
-0.0538242
-0.0780937
-0.0909699
-0.0911091
-0.0790779
-0.0563553
-0.0260448
0.00639
0.0329498
0.0456657
0.0382561
0.0074688
-0.0461399
-0.11835
-0.20242
-0.290908
-0.377484
-0.458566
-0.533351
-0.600953
-0.65976
-0.70665
-0.738266
-0.750736
-0.740826
-0.707236
-0.651537
-0.578365
-0.494772
-0.408924
-0.328463
-0.257936
-0.200138
-0.155647
-0.122734
-0.0977131
-0.0754749
-0.0501179
-0.0141003
0.048468
0.17353
0.386957
0.636375
0.844804
0.938171
0.875418
0.671006
0.397145
0.157833
0.0386818
0.0346973
0.0621784
0.0866272
0.0792496
0.0261784
-0.0660378
-0.173079
-0.262805
-0.308165
-0.306662
-0.252562
-0.166538
-0.0778839
-0.0152843
0
-0.0351688
-0.130105
-0.279025
-0.471754
-0.695594
-0.936423
-1.1838
-0.785431
0.388561
2.38961
5.00682
7.75996
10.0063
11.1524
10.8944
9.36171
7.07385
4.71947
2.87587
1.81485
1.47342
1.56703
1.46376
1.35184
1.23546
1.11637
0.998229
0.885938
0.784609
0.697841
0.628723
0.579289
0.550828
0.543769
0.558398
0.595059
0.654127
0.735765
0.839621
0.964562
1.10858
1.26867
1.4413
1.62301
1.81055
2.00101
2.19199
2.38162
2.56857
2.75209
2.93275
3.11252
3.29489
3.48458
3.68675
3.90576
4.14386
4.40008
4.66978
4.94509
5.21735
5.47767
5.71805
5.93246
6.11693
6.26917
6.38604
6.46063
6.48399
6.44918
6.34771
6.1718
5.91713
5.58523
5.18462
4.73041
4.24226
3.74298
3.24969
2.77569
2.33121
1.92276
1.55307
1.22127
0.923528
0.6539
0.405537
0.17201
-0.0514105
-0.265746
-0.4665
-0.644651
-0.78803
-0.884612
-0.926573
-0.913208
-0.851873
-0.752123
-0.634814
-0.521449
-0.42832
-0.363083
-0.324018
-0.302211
-0.285858
-0.265098
-0.235495
-0.200214
-0.16386
-0.131205
-0.106283
-0.0914274
-0.0870628
-0.0921064
-0.10463
-0.122002
-0.141867
-0.162282
-0.181227
-0.196509
-0.205854
-0.207119
-0.1987
-0.179894
-0.150791
-0.112346
-0.0677048
-0.021336
0.0224859
0.0606869
0.0920435
0.117246
0.138345
0.15778
0.177356
0.19749
0.217273
0.234898
0.248244
0.255599
0.256247
0.250783
0.241044
0.229724
0.219758
0.213682
0.21308
0.218388
0.229428
0.245703
0.266747
0.2925
0.323529
0.361041
0.406693
0.462296
0.529394
0.609028
0.70203
0.809368
0.933061
1.07545
1.23086
1.37856
1.49268
1.5489
1.53323
1.44875
1.31636
1.16829
1.03685
0.942589
0.876763
0.82654
0.785005
0.747199
0.708307
0.664548
0.613767
0.555389
0.490391
0.422255
0.355005
0.291994
0.23499
0.183853
0.1369
0.0917768
0.0464592
0
-0.0476548
0.331069
1.47767
3.47113
6.0789
8.76805
10.8702
11.8369
11.4615
9.95568
7.84058
5.71871
4.04356
2.99254
2.47986
2.27711
2.15927
2.05464
1.96026
1.8797
1.81583
1.769
1.7359
1.71203
1.69335
1.67771
1.6659
1.66179
1.67141
1.70142
1.75677
1.83755
1.94141
2.06542
2.20467
2.35312
2.50445
2.65315
2.79477
2.92596
3.04583
3.15598
3.2603
3.36479
3.47705
3.60538
3.75763
3.9399
4.15551
4.40271
4.67745
4.97484
5.2892
5.61488
5.94717
6.28317
6.622
6.96696
7.33065
7.70511
8.04179
8.28458
8.39459
8.36026
8.19093
7.9013
7.49998
6.99231
6.4107
5.81092
5.22387
4.65799
4.11501
3.60023
3.11855
2.67301
2.26497
1.89443
1.56057
1.26225
0.998471
0.768577
0.572178
0.408854
0.277722
0.177772
0.109013
0.0701426
0.0524383
0.0436994
0.0327931
0.0122819
-0.0196692
-0.0588028
-0.0959333
-0.119415
-0.1181
-0.0635236
0.0767228
0.285303
0.499809
0.658783
0.718034
0.659256
0.493567
0.260797
0.0234238
-0.147778
-0.216212
-0.210273
-0.16386
-0.0948271
-0.0116076
0.0781907
0.16734
0.249584
0.319415
0.372922
0.407683
0.42233
0.416303
0.389725
0.343393
0.278891
0.198778
0.106788
0.00734253
-0.092769
-0.184238
-0.257613
-0.304817
-0.320582
-0.303333
-0.255276
-0.181759
-0.0902373
0.0106651
0.112322
0.204147
0.276899
0.324147
0.344012
0.340472
0.323225
0.305523
0.300442
0.317039
0.355505
0.409388
0.473693
0.545764
0.624037
0.708642
0.80383
0.925878
1.11073
1.34603
1.57207
1.71016
1.69849
1.52114
1.21677
0.864354
0.553915
0.354564
0.232163
0.146823
0.0857908
0.0454197
0.0213259
0.00877962
0.00318794
0
0.00201254
-0.00098505
-0.0109048
-0.0283586
-0.0526596
-0.0816299
-0.112672
-0.14355
-0.17119
0.556034
1.80899
3.59004
5.76871
8.00982
9.80463
10.6486
10.2898
8.88174
6.91947
4.98846
3.49174
2.52602
1.95443
1.60968
1.5135
1.43177
1.36055
1.30149
1.25513
1.22107
1.19832
1.18571
1.18218
1.18702
1.20003
1.22154
1.25258
1.29479
1.35024
1.42107
1.50901
1.61477
1.73768
1.87527
2.02417
2.18037
2.33998
2.50005
2.65908
2.81717
2.9759
3.13777
3.30556
3.48168
3.66765
3.86383
4.06951
4.28309
4.5026
4.7261
4.95208
5.17968
5.40865
5.63925
5.87204
6.10655
6.33793
6.55499
6.74103
6.87919
6.95362
6.94998
6.85556
6.66054
6.36036
5.95808
5.46558
4.90359
4.30857
3.7105
3.12465
2.56461
2.04322
1.57136
1.15697
0.804341
0.514771
0.292394
0.142568
0.0507555
-0.00580052
-0.0488983
-0.0955025
-0.15531
-0.230431
-0.317085
-0.408412
-0.497147
-0.578908
-0.650641
-0.708346
-0.749179
-0.770858
-0.772122
-0.753319
-0.716797
-0.666807
-0.608861
-0.548721
-0.491293
-0.439528
-0.395231
-0.359293
-0.332103
-0.314302
-0.306112
-0.307585
-0.318109
-0.335878
-0.357609
-0.378765
-0.394276
-0.399627
-0.392397
-0.371637
-0.338324
-0.297211
-0.255025
-0.218274
-0.191685
-0.177309
-0.174475
-0.180522
-0.191941
-0.205437
-0.218556
-0.229862
-0.238151
-0.241939
-0.239283
-0.227844
-0.205289
-0.169934
-0.12148
-0.0597623
0.0124619
0.0879218
0.157762
0.214056
0.251743
0.26974
0.270937
0.261124
0.247338
0.236266
0.232459
0.238006
0.25453
0.283845
0.327471
0.386458
0.46245
0.560258
0.676789
0.796088
0.898561
0.966622
0.989835
0.967186
0.905759
0.817118
0.713669
0.607033
0.504282
0.409332
0.32555
0.255851
0.202045
0.164742
0.143067
0.134623
0.134915
0.136864
0.132654
0.115332
0.0799648
0.0244328
-0.0502776
-0.140296
-0.239481
-0.340232
0
0.954085
2.54491
4.68484
7.05503
9.14773
10.4294
10.553
9.50651
7.61907
5.43072
3.49399
2.18856
1.61367
1.59161
1.5554
1.50691
1.45427
1.39867
1.3422
1.28732
1.23633
1.19103
1.15268
1.12215
1.10022
1.08779
1.08599
1.0961
1.11925
1.15621
1.20767
1.27415
1.3559
1.45296
1.5651
1.69181
1.83222
1.98508
2.14888
2.32212
2.50359
2.69278
2.88994
3.09595
3.31197
3.53884
3.77663
4.02436
4.28006
4.54116
4.80498
5.06912
5.3316
5.59076
5.8442
6.08676
6.31013
6.5051
6.66096
6.76724
6.8148
6.79611
6.70482
6.5357
6.2856
5.95865
5.57052
5.13668
4.67119
4.18899
3.70475
3.22885
2.76972
2.33403
1.92707
1.55316
1.21598
0.918541
0.663019
0.451053
0.283646
0.159408
0.0713778
0.00834856
-0.0411077
-0.0866231
-0.134431
-0.186555
-0.240905
-0.292169
-0.333198
-0.357266
-0.355174
-0.297404
-0.137649
0.0949381
0.326407
0.475259
0.483465
0.343947
0.108168
-0.133969
-0.293403
-0.320962
-0.278014
-0.21146
-0.136174
-0.0617116
0.00452051
0.0584514
0.0997769
0.131514
0.158709
0.186668
0.220794
0.258207
0.286674
0.289853
0.254728
0.178062
0.0688596
-0.0541347
-0.168462
-0.254665
-0.31124
-0.343794
-0.352155
-0.338031
-0.304431
-0.255157
-0.194608
-0.12687
-0.0554796
0.0166083
0.0870476
0.154103
0.216609
0.273831
0.32514
0.369843
0.407392
0.437457
0.460073
0.475963
0.486776
0.49511
0.504251
0.517674
0.538423
0.568349
0.607792
0.655887
0.710831
0.769999
0.830045
0.887075
0.936881
0.975221
0.998253
1.00289
0.987002
0.949695
0.891641
0.815183
0.724237
0.623916
0.51992
0.417759
0.321681
0.234402
0.15764
0.091857
0.0365315
-0.0094238
-0.0470557
-0.0771742
-0.100036
-0.115304
-0.122308
0
0.71881
2.03824
4.00581
6.47695
9.03283
11.0259
11.8111
11.0719
9.03432
6.39755
3.99774
2.40921
1.73002
1.65816
1.68587
1.5962
1.5038
1.41322
1.32921
1.25662
1.19946
1.1607
1.14195
1.14332
1.16357
1.20039
1.25085
1.31187
1.38058
1.45446
1.53198
1.6127
1.69708
1.78621
1.88161
1.98477
2.09665
2.21731
2.34581
2.4804
2.61915
2.76084
2.9055
3.05478
3.21184
3.38078
3.56563
3.76937
3.99295
4.23488
4.49129
4.75655
5.02421
5.28816
5.54345
5.78622
6.01265
6.21879
6.40154
182
375
571
770
964
1154
1343
1532
1715
1898
2081
2259
2440
2615
2790
2969
3153
3334
3517
3697
3547
3718
0
0
0
0
0
0
0
0
0
0
0
0
0
0
0
0
0
0
0
0
0
0
0
0
0
0
0
0
0
0
0
0
0
0
0
0
0
0
0
0
0
0
0
0
0
0
0
0
0
0
0
0
0
0
0
0
0
0
0
0
0
0
0
0
0
0
0
0
0
0
0
0
0
0
0
0
0
0
0
0
0
0
0
0
0
0
0
0
0
0
0
0
0
0
0
0
0
0
0
0
0
0
0
0
0
0
0
0
0
0
0
0
0
0
0
0
0
0
0
0
0
0
0
0
0
0
0
0
0
0
0
0
0
0
0
0
0
0
0
0
0
0
0
0
0
0
0
0
0
0
0
0
0
0
0
0
0
0
0
0
0
0
0
0
0
0
0
0
0
0
0
0
0
0
0
0
0
0
0
0
0
0
0
0
0
0
0
0
0
0
0
0
0
0
0
0
0
0
0
0
0
0
0
0
0
0
0
0
0
0
0
0
0
0
0
0
0
0
0
0
0
0
0
0
0
0
0
0
0
0
0
0
0
0
0
0
0
0
0
0
0
0
0
0
0
0
0
0
0
0
0
0
0
0
0
0
0
0
0
0
0
0
0
0
0
0
0
0
0
0
0
0
0
0
0
0
0
0
0
0
0
0
0
0
0
0
0
0
0
0
0
0
0
0
0
0
0
0
0
0
0
0
0
0
0
0
0
0
0
0
0
0
0
0
0
0
0
0
0
0
0
0
0
0
0
0
0
0
0
0
0
0
0
0
0
0
0
0
0
0
0
0
0
0
0
0
0
0
0
0
0
0
0
0
0
0
0
0
0
0
0
0
0
0
0
0
0
0
0
0
0
0
0
0
0
0
0
0
0
0
0
0
0
0
0
0
0
0
0
0
0
0
0
0
0
0
0
0
0
0
0
0
0
0
0
0
0
0
0
0
0
0
0
0
0
0
0
0
0
0
0
0
0
0
0
0
0
0
0
0
0
0
0
0
0
0
0
0
0
0
0
0
0
0
0
0
0
0
0
0
0
0
0
0
0
0
0
0
0
0
0
0
0
0
0
0
0
0
0
0
0
0
0
0
0
0
0
0
0
0
0
0
0
0
0
0
0
0
0
0
0
0
0
0
0
0
0
0
0
0
0
0
0
0
0
0
0
0
0
0
0
0
0
0
0
0
0
0
0
0
0
0
0
0
0
0
0
0
0
0
0
0
0
0
0
0
0
0
0
0
0
0
0
0
0
0
0
0
0
0
0
0
0
0
0
0
0
0
0
0
0
0
0
0
0
0
0
0
0
0
0
0
0
0
0
0
0
0
0
0
0
0
0
0
0
0
0
0
0
0
0
0
0
0
0
0
0
0
0
0
0
0
0
0
0
0
0
0
0
0
0
0
0
0
0
0
0
0
0
0
0
0
0
0
0
0
0
0
0
0
0
0
0
0
0
0
0
0
0
0
0
0
0
0
0
0
0
0
0
0
0
0
0
0
0
0
0
0
0
0
0
0
0
0
0
0
0
0
0
0
0
0
0
0
0
0
0
0
0
0
0
0
0
0
0
0
0
0
0
0
0
0
0
0
0
0
0
0
0
0
0
0
0
0
0
0
0
0
0
0
0
0
0
0
0
0
0
0
0
0
0
0
0
0
0
0
0
0
0
0
0
0
0
0
0
0
0
0
0
0
0
0
0
0
0
0
0
0
0
0
0
0
0
0
0
0
0
0
0
0
0
0
0
0
0
0
0
0
0
0
0
0
0
0
0
0
0
0
0
0
0
0
0
0
0
0
0
0
0
0
0
0
0
0
0
0
0
0
0
0
0
0
0
0
0
0
0
0
0
0
0
0
0
0
0
0
0
0
0
0
0
0
0
0
0
0
0
0
0
0
0
0
0
0
0
0
0
0
0
0
0
0
0
0
0
0
0
0
0
0
0
0
0
0
0
0
0
0
0
0
0
0
0
0
0
0
0
0
0
0
0
0
0
0
0
0
0
0
0
0
0
0
0
0
0
0
0
0
0
0
0
0
0
0
0
0
0
0
0
0
0
0
0
0
0
0
0
0
0
0
0
0
0
0
0
0
0
0
0
0
0
0
0
0
0
0
0
0
0
0
0
0
0
0
0
0
0
0
0
0
0
0
0
0
0
0
0
0
0
0
0
0
0
0
0
0
0
0
0
0
0
0
0
0
0
0
0
0
0
0
0
0
0
0
0
0
0
0
0
0
0
0
0
0
0
0
0
0
0
0
0
0
0
0
0
0
0
0
0
0
0
0
0
0
0
0
0
0
0
0
0
0
0
0
0
0
0
0
0
0
0
0
0
0
0
0
0
0
0
0
0
0
0
0
0
0
0
0
0
0
0
0
0
0
0
0
0
0
0
0
0
0
0
0
0
0
0
0
0
0
0
0
0
0
0
0
0
0
0
0
0
0
0
0
0
0
0
0
0
0
0
0
0
0
0
0
0
0
0
0
0
0
0
0
0
0
0
0
0
0
0
0
0
0
0
0
0
0
0
0
0
0
0
0
0
0
0
0
0
0
0
0
0
0
0
0
0
0
0
0
0
0
0
0
0
0
0
0
0
0
0
0
0
0
0
0
0
0
0
0
0
0
0
0
0
0
0
0
0
0
0
0
0
0
0
0
0
0
0
0
0
0
0
0
0
0
0
0
0
0
0
0
0
0
0
0
0
0
0
0
0
0
0
0
0
0
0
0
0
0
0
0
0
0
0
0
0
0
0
0
0
0
0
0
0
0
0
0
0
0
0
0
0
0
0
0
0
0
0
0
0
0
0
0
0
0
0
0
0
0
0
0
0
0
0
0
0
0
0
0
0
0
0
0
0
0
0
0
0
0
0
0
0
0
0
0
0
0
0
0
0
0
0
0
0
0
0
0
0
0
0
0
0
0
0
0
0
0
0
0
0
0
0
0
0
0
0
0
0
0
0
0
0
0
0
0
0
0
0
0
0
0
0
0
0
0
0
0
0
0
0
0
0
0
0
0
0
0
0
0
0
0
0
0
0
0
0
0
0
0
0
0
0
0
0
0
0
0
0
0
0
0
0
0
0
0
0
0
0
0
0
0
0
0
0
0
0
0
0
0
0
0
0
0
0
0
0
0
0
0
0
0
0
0
0
0
0
0
0
0
0
0
0
0
0
0
0
0
0
0
0
0
0
0
0
0
0
0
0
0
0
0
0
0
0
0
0
0
0
0
0
0
0
0
0
0
0
0
0
0
0
0
0
0
0
0
0
0
0
0
0
0
0
0
0
0
0
0
0
0
0
0
0
0
0
0
0
0
0
0
0
0
0
0
0
0
0
0
0
0
0
0
0
0
0
0
0
0
0
0
0
0
0
0
0
0
0
0
0
0
0
0
0
0
0
0
0
0
0
0
0
0
0
0
0
0
0
0
0
0
0
0
0
0
0
0
0
0
0
0
0
0
0
0
0
0
0
0
0
0
0
0
0
0
0
0
0
0
0
0
0
0
0
0
0
0
0
0
0
0
0
0
0
0
0
0
0
0
0
0
0
0
0
0
0
0
0
0
0
0
0
0
0
0
0
0
0
0
0
0
0
0
0
0
0
0
0
0
0
0
0
0
0
0
0
0
0
0
0
0
0
0
0
0
0
0
0
0
0
0
0
0
0
0
0
0
0
0
0
0
0
0
0
0
0
0
0
0
0
0
0
0
0
0
0
0
0
0
0
0
0
0
0
0
0
0
0
0
0
0
0
0
0
0
0
0
0
0
0
0
0
0
0
0
0
0
0
0
0
0
0
0
0
0
0
0
0
0
0
0
0
0
0
0
0
0
0
0
0
0
0
0
0
0
0
0
0
0
0
0
0
0
0
0
0
0
0
0
0
0
0
0
0
0
0
0
0
0
0
0
0
0
0
0
0
0
0
0
0
0
0
0
0
0
0
0
0
0
0
0
0
0
0
0
0
0
0
0
0
0
0
0
0
0
0
0
0
0
0
0
0
0
0
0
0
0
0
0
0
0
0
0
0
0
0
0
0
0
0
0
0
0
0
0
0
0
0
0
0
0
0
0
0
0
0
0
0
0
0
0
0
0
0
0
0
0
0
0
0
0
0
0
0
0
0
0
0
0
0
0
0
0
0
0
0
0
0
0
0
0
0
0
0
0
0
0
0
0
0
0
0
0
0
0
0
0
0
0
0
0
0
0
0
0
0
0
0
0
0
0
0
0
0
0
0
0
0
0
0
0
0
0
0
0
0
0
0
0
0
0
0
0
0
0
0
0
0
0
0
0
0
0
0
0
0
0
0
0
0
0
0
0
0
0
0
0
0
0
0
0
0
0
0
0
0
0
0
0
0
0
0
0
0
0
0
0
0
0
0
0
0
0
0
0
0
0
0
0
0
0
0
0
0
0
0
0
0
0
0
0
0
0
0
0
0
0
0
0
0
0
0
0
0
0
0
0
0
0
0
0
0
0
0
0
0
0
0
0
0
0
0
0
0
0
0
0
0
0
0
0
0
0
0
0
0
0
0
0
0
0
0
0
0
0
0
0
0
0
0
0
0
0
0
0
0
0
0
0
0
0
0
0
0
0
0
0
0
0
0
0
0
0
0
0
0
0
0
0
0
0
0
0
0
0
0
0
0
0
0
0
0
0
0
0
0
0
0
0
0
0
0
0
0
0
0
0
0
0
0
0
0
0
0
0
0
0
0
0
0
0
0
0
0
0
0
0
0
0
0
0
0
0
0
0
0
0
0
0
0
0
0
0
0
0
0
0
0
0
0
0
0
0
0
0
0
0
0
0
0
0
0
0
0
0
0
0
0
0
0
0
0
0
0
0
0
0
0
0
0
0
0
0
0
0
0
0
0
0
0
0
0
0
0
0
0
0
0
0
0
0
0
0
0
0
0
0
0
0
0
0
0
0
0
0
0
0
0
0
0
0
0
0
0
0
0
0
0
0
0
0
0
0
0
0
0
0
0
0
0
0
0
0
0
0
0
0
0
0
0
0
0
0
0
0
0
0
0
0
0
0
0
0
0
0
0
0
0
0
0
0
0
0
0
0
0
0
0
0
0
0
0
0
0
0
0
0
0
0
0
0
0
0
0
0
0
0
0
0
0
0
0
0
0
0
0
0
0
0
0
0
0
0
0
0
0
0
0
0
0
0
0
0
0
0
0
0
0
0
0
0
0
0
0
0
0
0
0
0
0
0
0
0
0
0
0
0
0
0
0
0
0
0
0
0
0
0
0
0
0
0
0
0
0
0
0
0
0
0
0
0
0
0
0
0
0
0
0
0
0
0
0
0
0
0
0
0
0
0
0
0
0
0
0
0
0
0
0
0
0
0
0
0
0
0
0
0
0
0
0
0
0
0
0
0
0
0
0
0
0
0
0
0
0
0
0
0
0
0
0
0
0
0
0
0
0
0
0
0
0
0
0
0
0
0
0
0
0
0
0
0
0
0
0
0
0
0
0
0
0
0
0
0
0
0
0
0
0
0
0
0
0
0
0
0
0
0
0
0
0
0
0
0
0
0
0
0
0
0
0
0
0
0
0
0
0
0
0
0
0
0
0
0
0
0
0
0
0
0
0
0
0
0
0
0
0
0
0
0
0
0
0
0
0
0
0
0
0
0
0
0
0
0
0
0
0
0
0
0
0
0
0
0
0
0
0
0
0
0
0
0
0
0
0
0
0
0
0
0
0
0
0
0
0
0
0
0
0
0
0
0
0
0
0
0
0
0
0
0
0
0
0
0
0
0
0
0
0
0
0
0
0
0
0
0
0
0
0
0
0
0
0
0
0
0
0
0
0
0
0
0
0
0
0
0
0
0
0
0
0
0
0
0
0
0
0
0
0
0
0
0
0
0
0
0
0
0
0
0
0
0
0
0
0
0
0
0
0
0
0
0
0
0
0
0
0
0
0
0
0
0
0
0
0
0
0
0
0
0
0
0
0
0
0
0
0
0
0
0
0
0
0
0
0
0
0
0
0
0
0
0
0
0
0
0
0
0
0
0
0
0
0
0
0
0
0
0
0
0
0
0
0
0
0
0
0
0
0
0
0
0
0
0
0
0
0
0
0
0
0
0
0
0
0
0
0
0
0
0
0
0
0
0
0
0
0
0
0
0
0
0
0
0
0
0
0
0
0
0
0
0
0
0
0
0
0
0
0
0
0
0
0
0
0
0
0
0
0
0
0
0
0
0
0
0
0
0
0
0
0
0
0
0
0
0
0
0
0
0
0
0
0
0
0
0
0
0
0
0
0
0
0
0
0
0
0
0
0
0
0
0
0
0
0
0
0
0
0
0
0
0
0
0
0
0
0
0
0
0
0
0
0
0
0
0
0
0
0
0
0
0
0
0
0
0
0
0
0
0
0
0
0
0
0
0
0
0
0
0
0
0
0
0
0
0
0
0
0
0
0
0
0
0
0
0
0
0
0
0
0
0
0
0
0
0
0
0
0
0
0
0
0
0
0
0
0
0
0
0
0
0
0
0
0
0
0
0
0
0
0
0
0
0
0
0
0
0
0
0
0
0
0
0
0
0
0
0
0
0
0
0
0
0
0
0
0
0
0
0
0
0
0
0
0
0
0
0
0
0
0
0
0
0
0
0
0
0
0
0
0
0
0
0
0
0
0
0
0
0
0
0
0
0
0
0
0
0
0
0
0
0
0
0
0
0
0
0
0
0
0
0
0
0
0
0
0
0
0
0
0
0
0
0
0
0
0
0
0
0
0
0
0
0
0
0
0
0
0
0
0
0
0
0
0
0
0
0
0
0
0
0
0
0
0
0
0
0
0
0
0
0
0
0
0
0
0
0
0
0
0
0
0
0
0
0
0
0
0
0
0
0
0
0
0
0
0
0
0
0
0
0
0
0
0
0
0
0
0
0
0
0
0
0
0
0
0
0
0
0
0
0
0
0
0
0
0
0
0
0
0
0
0
0
0
0
0
0
0
0
0
0
0
0
0
0
0
0
0
0
0
0
0
0
0
0
0
0
0
0
0
0
0
0
0
0
0
0
0
0
0
0
0
0
0
0
0
0
0
0
0
0
0
0
0
0
0
0
0
0
0
0
0
0
0
0
0
0
0
0
0
0
0
0
0
0
0
0
0
0
0
0
0
0
0
0
0
0
0
0
0
0
0
0
0
0
0
0
0
0
0
0
0
0
0
0
0
0
0
0
0
0
0
0
0
0
0
0
0
0
0
0
0
0
0
0
0
0
0
0
0
0
0
0
0
0
0
0
0
0
0
0
0
0
0
0
0
0
0
0
0
0
0
0
0
0
0
0
0
0
0
0
0
0
0
0
0
0
0
0
0
0
0
0
0
0
0
0
0
0
0
0
0
0
0
0
0
0
0
0
0
0
0
0
0
0
0
0
0
0
0
0
0
0
0
0
0
0
0
0
0
0
0
0
0
0
0
0
0
0
0
0
0
0
0
0
0
0
0
0
0
0
0
0
0
0
0
0
0
0
0
0
0
0
0
0
0
0
0
0
0
0
0
0
0
0
0
0
0
0
0
0
0
0
0
0
0
0
0
0
0
0
0
0
0
0
0
0
0
0
0
0
0
0
0
0
0
0
0
0
0
0
0
0
0
0
0
0
0
0
0
0
0
0
0
0
0
0
0
0
0
0
0
0
0
0
0
0
0
0
0
0
0
0
0
0
0
0
0
0
0
0
0
0
0
0
0
0
0
0
0
0
0
0
0
0
0
0
0
0
0
0
0
0
0
0
0
0
0
0
0
0
0
0
0
0
0
0
0
0
0
0
0
0
0
0
0
0
0
0
0
0
0
0
0
0
0
0
0
0
0
0
0
0
0
0
0
0
0
0
0
0
0
0
0
0
0
0
0
0
0
0
0
0
0
0
0
0
0
0
0
0
0
0
0
0
0
0
0
0
0
0
0
0
0
0
0
0
0
0
0
0
0
0
0
0
0
0
0
0
0
0
0
0
0
0
0
0
0
0
0
0
0
0
0
0
0
0
0
0
0
0
0
0
0
0
0
0
0
0
0
0
0
0
0
0
0
0
0
0
0
0
0
0
0
0
0
0
0
0
0
0
0
0
0
0
0
0
0
0
0
0
0
0
0
0
0
0
0
0
0
0
0
0
0
0
0
0
0
0
0
0
0
0
0
0
0
0
0
0
0
0
0
0
0
0
0
0
0
0
0
0
0
0
0
0
0
0
0
0
0
0
0
0
0
0
0
0
0
0
0
0
0
0
0
0
0
0
0
0
0
0
0
0
0
0
0
0
0
0
0
0
0
0
0
0
0
0
0
0
0
0
0
0
0
0
0
0
0
0
0
0
0
0
0
0
0
0
0
0
0
0
0
0
0
0
0
0
0
0
0
0
0
0
0
0
0
0
0
0
0
0
0
0
0
0
0
0
0
0
0
0
0
0
0
0
0
0
0
0
0
0
0
