3.97955
3.972
3.97412
3.98095
3.9883
3.99384
3.99778
4.00292
4.01413
4.03765
4.07873
4.14225
4.23297
4.35422
4.5075
4.69218
4.90513
5.14147
5.39494
5.65832
5.92406
6.18491
6.43449
6.66777
6.88125
7.0731
7.24296
7.39136
7.51968
7.62974
7.72307
7.80041
7.86107
7.90074
7.91083
7.88325
7.80877
7.67911
7.48929
7.23944
6.93537
6.58787
6.21085
5.81948
5.4277
5.04537
4.68106
4.34212
4.03455
3.76288
3.52972
3.3353
3.17755
3.05279
2.95436
2.8704
2.78845
2.69776
2.5912
2.46644
2.32598
2.17615
2.02527
1.88164
1.75046
1.6349
1.53639
1.45444
1.38695
1.33093
1.28317
1.23892
1.19344
1.14342
1.08797
1.02908
0.971388
0.920779
0.882581
0.86152
0.855964
0.859612
0.863204
0.857089
0.833626
0.788705
0.722049
0.636475
0.536616
0.428224
0.316002
0.203418
0.0930016
-0.0133224
-0.113852
-0.206924
-0.290964
-0.364552
-0.426544
-0.476197
-0.513306
-0.538338
-0.552469
-0.557496
-0.556152
-0.552376
-0.550549
-0.554556
-0.566969
-0.588445
-0.617573
-0.6513
-0.685851
-0.717884
-0.745615
-0.768973
-0.790129
-0.812546
-0.839834
-0.874659
-0.918068
-0.969408
-1.02675
-1.08755
-1.14924
-1.20967
-1.26709
-1.3198
-1.3662
-1.40494
-1.43495
-1.45554
-1.46826
-1.47691
-1.48624
-1.50077
-1.52362
-1.55568
-1.59549
-1.63958
-1.68326
-1.72185
-1.75175
-1.76968
-1.77353
-1.76255
-1.73745
-1.70025
-1.65389
-1.60167
-1.54664
-1.49112
-1.43637
-1.38266
-1.32944
-1.27553
-1.21936
-1.15914
-1.09302
-1.0192
-0.936198
-0.842962
-0.7391
-0.62501
-0.502073
-0.372775
-0.24164
-0.117796
-0.0148575
0.0528114
0.0724541
0.0365685
-0.0540352
-0.189323
-0.352213
-0.523537
-0.688087
-0.841501
-0.988136
-1.13361
-1.28493
-1.45441
-1.66576
-1.9246
-2.21724
-2.52202
-2.80363
-2.03569
0
3.43473
8.03139
13.0349
17.348
19.8623
19.8696
17.3676
13.0892
8.21232
3.8885
0.828294
-0.85255
-1.49745
-1.60073
-1.65792
-1.71367
-1.7679
-1.82059
-1.87173
-1.92111
-1.96819
-2.01218
-2.05228
-2.08814
-2.12037
-2.1546
-2.20152
-2.27291
-2.37635
-2.50971
-2.66012
-2.79875
-2.89207
-2.91271
-2.84867
-2.70714
-2.51151
-2.29329
-2.08219
-1.89121
-1.72007
-1.56893
-1.43412
-1.30911
-1.18602
-1.05697
-0.91534
-0.756435
-0.577769
-0.37879
-0.159951
0.0778202
0.333513
0.606151
0.894616
1.1973
1.51175
1.83454
2.16138
2.48752
2.80822
3.11912
3.41667
3.6984
3.96176
4.20143
4.40707
4.56802
4.67001
4.69215
4.61523
4.4319
4.15301
3.80626
3.42813
3.05361
2.70117
2.37052
2.06108
1.77457
1.51123
1.27013
1.04965
0.847945
0.663433
0.495404
0.344032
0.210213
0.0953892
0.00143623
-0.0696991
-0.116349
-0.137452
-0.132834
-0.103486
-0.0518078
0.0182053
0.100959
0.19018
0.278189
0.357456
0.421643
0.466387
0.489652
0.491641
0.474365
0.441108
0.396058
0.344553
0.291987
0.245151
0.211506
0.198224
0.210982
0.252757
0.323099
0.418179
0.531619
0.655775
0.782983
0.90697
1.02216
1.12282
1.20525
1.26698
1.30709
1.32672
1.32935
1.32041
1.30625
1.29265
1.2834
1.27981
1.28013
1.2802
1.27641
1.26833
1.26043
1.26196
1.28492
1.3406
1.43601
1.57458
1.75675
1.96121
2.15169
2.29401
2.36437
2.35355
2.2672
2.12271
1.94419
1.75693
1.58245
1.43087
1.30351
1.20073
1.12545
1.07961
1.0643
1.07979
1.12535
1.19913
1.29786
1.41644
1.54841
1.68683
1.82066
1.93754
2.02674
2.08119
2.09878
2.08261
2.03977
1.97929
1.9098
1.83817
1.76889
1.70459
1.64843
1.60414
1.57579
1.56728
1.58143
1.61901
1.67813
1.75425
1.84063
1.92922
2.01132
2.07856
2.12428
2.1439
2.13524
2.0984
2.03549
1.95004
1.84626
1.72832
1.60008
1.46288
1.3125
1.1196
0.734641
0.147468
-0.551805
-1.2186
-1.20779
0
2.7396
6.9503
12.0623
17.0512
20.6964
21.9931
20.5693
16.8923
12.1167
7.60605
4.36827
2.70049
2.22023
2.21785
1.93215
1.67119
1.42685
1.20598
1.01368
0.852848
0.723998
0.625579
0.554528
0.50696
0.47859
0.465516
0.464193
0.471481
0.484618
0.501221
0.519314
0.537406
0.55455
0.570356
0.584983
0.599097
0.61383
0.630807
0.65217
0.68064
0.719529
0.772606
0.843749
0.936401
1.05292
1.19402
1.35853
1.54332
1.7443
1.95738
2.17914
2.40738
2.64112
2.88019
3.12447
3.37305
3.62382
3.87349
4.11818
4.35442
4.5802
4.7956
5.00269
5.20458
5.40645
5.61454
5.8227
6.00651
6.13314
6.17432
6.11638
5.96282
5.72958
5.43699
5.10443
4.75358
4.40041
4.05291
3.71598
3.39333
3.08757
2.79931
2.52786
2.27208
2.03141
1.80656
1.59985
1.41463
1.25446
1.12205
1.01842
0.942491
0.891244
0.860252
0.844417
0.838675
0.838757
0.841041
0.843124
0.843894
0.843437
0.842768
0.843384
0.846717
0.853653
0.864151
0.877248
0.891331
0.904584
0.915418
0.922751
0.926044
0.925152
0.920121
0.910935
0.897234
0.878449
0.853996
0.823598
0.787661
0.747543
0.705596
0.665214
0.630209
0.604157
0.589812
0.588754
0.601396
0.627287
0.665535
0.715016
0.774324
0.842667
0.918584
0.998133
1.07275
1.1308
1.16066
1.15431
1.11068
1.03736
0.949563
0.866362
0.8054
0.777064
0.777667
0.802408
0.845053
0.898378
0.956052
1.01367
1.06881
1.12
1.16578
1.20399
1.23137
1.24444
1.24016
1.21712
1.17651
1.12269
1.063
1.007
0.965166
0.953494
1.01537
1.23373
1.5967
1.98744
2.27238
2.33779
2.13463
1.70851
1.18887
0.736384
0.472401
0.340583
0.24984
0.170358
0.090283
-0.000747871
-0.110999
-0.251807
-0.424902
-0.623856
-0.836798
-0.91532
0
2.29389
5.95032
10.4139
14.6979
17.6896
18.5501
17.0487
13.672
9.4319
5.44124
2.46743
0.70038
-0.158372
-0.522376
-0.532544
-0.523536
-0.473733
-0.37937
-0.268869
-0.182321
-0.1536
-0.195136
-0.293397
-0.417334
-0.534554
-0.62546
-0.69434
-0.751161
-0.798428
-0.836244
-0.862301
-0.872666
-0.863525
-0.833115
-0.784189
-0.72055
-0.648972
-0.576557
-0.508841
-0.448525
-0.395199
-0.345988
-0.296674
-0.242703
-0.180124
-0.104708
-0.0117104
0.104384
0.249594
0.429508
0.647886
0.905232
1.19636
1.51223
1.84292
2.17738
2.50443
2.81413
3.09871
3.35306
3.57412
3.75894
3.90544
4.01538
4.09044
4.13178
4.13987
4.11456
4.05524
3.96113
3.83172
3.66761
3.47309
3.25232
3.0099
2.75168
2.48419
2.21386
1.94603
1.68464
1.43215
1.18976
0.95797
0.737235
0.529468
0.339082
0.171505
0.0320728
-0.074334
-0.144812
-0.179555
-0.182188
-0.159222
-0.118835
-0.0693991
-0.0182507
0.0300476
0.0730335
0.110337
0.143573
0.175944
0.21155
0.254568
0.310546
0.383128
0.465451
0.541815
0.593898
0.607186
0.576489
0.508402
0.419914
0.333752
0.271995
0.24475
0.248608
0.278415
0.330263
0.391713
0.449051
0.490756
0.510382
0.508028
0.489945
0.466493
0.449092
0.447011
0.46251
0.493771
0.537945
0.591272
0.648497
0.704286
0.75413
0.794965
0.825429
0.845765
0.857453
0.862717
0.864055
0.863827
0.863906
0.865628
0.869754
0.876526
0.885795
0.897195
0.910344
0.924986
0.941023
0.9584
0.97691
0.995976
1.01444
1.03059
1.04244
1.04799
1.04566
1.0345
1.0143
0.985452
0.948794
0.90537
0.85596
0.800651
0.738783
0.668902
0.588897
0.495792
0.384361
0.249473
0.0922113
-0.0831245
-0.283303
0
1.21809
3.58177
6.92606
10.6667
13.946
15.9223
16.0706
14.3669
11.2871
7.63108
4.24815
1.76511
0.418766
0.0521261
0.210032
0.268753
0.307607
0.320684
0.30596
0.265948
0.207238
0.139073
0.0713422
0.0119314
-0.034833
-0.0670829
-0.0845472
-0.0884877
-0.0808475
-0.0633986
-0.0373078
-0.00262308
0.0416361
0.0969993
0.164974
0.246507
0.341752
0.449739
0.568285
0.694126
0.823212
0.951133
1.07359
1.18676
1.288
1.37651
1.45358
1.52292
1.59072
1.66548
1.75747
1.87789
2.03761
2.2451
2.50536
2.81965
3.1846
3.59182
4.0327
4.49201
4.94051
5.34477
5.67797
5.92251
6.07036
6.12158
6.08211
5.96202
5.77453
5.53566
5.2651
4.98166
4.69967
4.42797
4.17024
3.92758
3.70011
3.48627
3.28337
3.08819
2.89729
2.70767
2.51722
2.32515
2.13211
1.94013
1.75213
1.57126
1.4001
1.24037
1.09265
0.956971
0.833618
0.724151
0.63226
0.563078
0.523306
0.534617
0.638034
0.860222
1.16122
1.46081
1.68935
1.80437
1.79084
1.65645
1.43087
1.16689
0.932499
0.783139
0.716993
0.69544
0.691062
0.690258
0.683683
0.66886
0.650232
0.636659
0.637413
0.658244
0.695294
0.743247
0.795931
0.846045
0.886712
0.912695
0.921091
0.911461
0.88552
0.846603
0.79911
0.748211
0.699091
0.657166
0.627591
0.614922
0.622769
0.653499
0.708039
0.785784
0.884539
1.00048
1.12757
1.25968
1.38848
1.50491
1.60055
1.66868
1.70499
1.70763
1.67684
1.61432
1.52287
1.40803
1.2765
1.13473
0.990199
0.851495
0.727464
0.627455
0.561796
0.538328
0.556901
0.604455
0.655207
0.682493
0.664999
0.591293
0.461677
0.28696
-0.0970071
0
1.34049
4.21868
8.31301
12.7263
16.3267
18.1961
17.9417
15.7542
12.2538
8.24748
4.51069
1.63484
-0.0676805
-0.607819
-0.317342
-0.186525
-0.0742601
0.0130916
0.0748773
0.115968
0.144426
0.168199
0.192371
0.217756
0.243185
0.266563
0.286134
0.301426
0.313621
0.325359
0.34014
0.36123
0.391045
0.431113
0.481791
0.542861
0.611228
0.680646
0.744958
0.800166
0.84612
0.887122
0.931206
0.988299
1.06798
1.17601
1.31157
1.47352
1.66129
1.87353
2.10829
2.3633
2.63614
2.9241
3.22399
3.5318
3.84247
4.14982
4.44679
4.72587
4.9799
5.20273
5.38969
5.53764
5.64468
5.70948
5.73019
5.70397
5.62816
5.50024
5.31904
5.08612
4.80701
4.49176
4.15455
3.81245
3.48328
3.18295
2.92453
2.71696
2.56626
2.48062
2.47362
2.54046
2.62892
2.68147
2.64776
2.49905
2.23993
1.9105
1.57505
1.30003
1.12397
1.02814
1.00413
1.03248
1.0903
1.15834
1.2255
1.28948
1.35077
1.41096
1.47203
1.53543
1.6015
1.66717
1.72455
1.7631
1.77241
1.74541
1.68071
1.58348
1.46458
1.33826
1.21936
1.11701
1.03548
0.978888
0.948505
0.943686
0.960298
0.992197
1.03227
1.07334
1.10892
1.133
1.14153
1.13215
1.10417
1.05845
0.997289
0.924091
0.843124
0.759248
0.67774
0.604886
0.548644
0.516263
0.513937
0.545182
0.609275
0.7005
0.808765
0.921624
1.02715
1.11772
1.1897
1.24372
1.2836
1.31444
1.3407
1.365
1.3878
1.40803
1.42391
1.43361
1.43567
1.42926
1.41417
1.39072
1.35963
1.32166
1.27739
1.22708
1.17051
1.10673
1.03359
0.944655
0.811996
0.532208
0.0994276
-0.430811
-0.966349
-1.09659
0
2.45512
6.17202
10.6583
15.0877
18.4936
20.0624
19.4317
16.8452
13.0646
9.06016
5.63517
3.18492
1.69323
0.915767
0.837711
0.866636
0.897946
0.918493
0.917032
0.886782
0.826831
0.741922
0.640752
0.533562
0.430069
0.33641
0.260251
0.207699
0.183633
0.191358
0.231414
0.300568
0.391727
0.495066
0.600066
0.697716
0.784349
0.858963
0.921293
0.972565
1.01505
1.05174
1.08614
1.12234
1.1651
1.21996
1.29322
1.39162
1.52182
1.68974
1.89959
2.15299
2.44842
2.78113
3.1436
3.52663
3.92065
4.31674
4.70556
5.07244
5.39758
5.66846
5.86669
5.97295
5.97782
5.89033
5.73746
5.55369
5.36683
5.18797
5.01165
4.8325
4.64687
4.45152
4.24439
4.02491
3.79399
3.55397
3.30824
3.06107
2.81734
2.582
2.35951
2.15327
1.96509
1.79505
1.64178
1.50304
1.37653
1.26071
1.15547
1.06267
0.98685
0.933829
0.909322
0.918083
0.965311
1.06402
1.21149
1.38061
1.53871
1.6565
1.71571
1.71298
1.6593
1.57583
1.48778
1.41721
1.37292
1.35275
1.35286
1.36519
1.37608
1.37201
1.34378
1.28983
1.21735
1.14064
1.07721
1.04278
1.04318
1.0761
1.13787
1.22077
1.31508
1.41096
1.50094
1.57981
1.6433
1.68814
1.71232
1.71485
1.69587
1.65689
1.60112
1.53351
1.46039
1.38955
1.32873
1.2846
1.26181
1.26247
1.28592
1.32905
1.38777
1.45689
1.52847
1.59588
1.65526
1.70624
1.75178
1.7969
1.84656
1.90361
1.96738
2.03329
2.09553
2.14727
2.18167
2.19265
2.17523
2.12622
2.04458
1.93221
1.7945
1.64054
1.48254
1.33438
1.2095
1.1218
1.09037
1.1307
1.23488
1.36283
1.46762
1.50726
1.45158
1.28613
1.01316
0.649416
0.221531
-0.239138
0
1.50135
4.59966
9.10069
14.178
18.5794
21.0859
21.0062
18.4578
14.2935
9.72134
5.81749
3.16865
1.78592
1.27968
1.09431
0.859176
0.627279
0.405637
0.20163
0.0223671
-0.126446
-0.241279
-0.317278
-0.350677
-0.348267
-0.325167
-0.296825
-0.275007
-0.265122
-0.265936
-0.27177
-0.276301
-0.276329
-0.273792
-0.275823
-0.29131
-0.326317
-0.380234
-0.444329
-0.503304
-0.539135
-0.535604
-0.490175
-0.40584
-0.281775
-0.119433
0.0783035
0.306193
0.559398
0.833865
1.12503
1.42765
1.73579
2.04306
2.34313
2.63034
2.90046
3.15116
3.38225
3.59541
3.79356
3.97915
4.15305
4.31474
4.46148
4.58709
4.68304
4.73971
4.7455
4.69166
4.57206
4.38509
4.13556
3.83581
3.5049
3.16565
2.84008
2.5424
2.27296
2.03461
1.82704
1.64782
1.49341
1.35992
1.24335
1.13984
1.04482
0.953456
0.861198
0.764596
0.661491
0.552519
0.443177
0.342419
0.260136
0.204731
0.181235
0.190408
0.228913
0.290346
0.366707
0.449633
0.532298
0.61006
0.679888
0.739754
0.787314
0.81991
0.835926
0.83453
0.81638
0.784348
0.743889
0.70277
0.670074
0.654605
0.662676
0.699043
0.769886
0.868574
0.973825
1.06269
1.11786
1.13306
1.11439
1.07711
1.03907
1.01345
1.00234
0.998923
0.994687
0.980192
0.948422
0.897395
0.831308
0.759986
0.696813
0.65519
0.64297
0.661966
0.713174
0.797991
0.906872
1.01982
1.1165
1.18121
1.20626
1.19287
1.14942
1.08796
1.02047
0.956059
0.898731
0.849532
0.809485
0.779092
0.758372
0.747025
0.744243
0.748888
0.75977
0.775936
0.796884
0.822579
0.853289
0.889286
0.930581
0.976572
1.02642
1.07905
1.13319
1.18737
1.2399
1.28879
1.33174
1.36604
1.38861
1.3967
1.38819
1.36202
1.31864
1.26026
1.19079
1.11551
1.04029
0.970562
0.909952
0.859491
0.818246
0.782152
0.743716
0.693456
0.621696
0.520396
0.378362
0.188929
-0.0383171
-0.286864
-0.555405
0
1.74686
4.88616
9.21083
14.0245
18.2605
20.8032
20.9035
18.5043
14.3005
9.47103
5.2028
2.24582
0.723942
0.265471
0.304302
0.257658
0.206322
0.149273
0.087101
0.0222828
-0.0410637
-0.0979031
-0.143452
-0.172927
-0.182178
-0.171893
-0.149487
-0.125005
-0.108409
-0.10695
-0.123411
-0.155626
-0.197201
-0.239005
-0.271236
-0.28671
-0.280716
-0.249688
-0.191129
-0.103897
0.0115372
0.15316
0.317762
0.50141
0.699933
0.909499
1.12688
1.3495
1.57526
1.80226
2.0285
2.2517
2.46937
2.6791
2.87915
3.06927
3.25114
3.42851
3.60691
3.79285
3.99274
4.21167
4.4539
4.72432
5.02321
5.33918
5.64426
5.90431
6.09047
6.18106
6.16255
6.03062
5.79061
5.45636
5.04742
4.58698
4.10685
3.6324
3.17769
2.75647
2.38316
2.06987
1.82977
1.70085
1.71165
1.82491
1.97701
2.10682
2.1714
2.1535
2.06005
1.91412
1.74439
1.57606
1.42252
1.28557
1.16418
1.05799
0.969225
0.900048
0.852293
0.827409
0.825913
0.846896
0.887736
0.944113
1.01034
1.07992
1.14625
1.20346
1.24659
1.27203
1.27787
1.26412
1.23277
1.18776
1.13454
1.07945
1.0288
0.987733
0.959828
0.947521
0.949381
0.962069
0.981705
1.00512
1.03056
1.05761
1.08644
1.11677
1.14651
1.1715
1.18651
1.18694
1.1706
1.13872
1.09584
1.04851
1.00329
0.964384
0.932497
0.90666
0.884121
0.861535
0.836369
0.808148
0.779188
0.754593
0.741526
0.74893
0.798076
0.928397
1.14488
1.38669
1.57506
1.64425
1.56934
1.37792
1.1383
0.928697
0.803874
0.75366
0.739804
0.744598
0.761219
0.785276
0.813366
0.84311
0.872926
0.901651
0.928151
0.950912
0.96809
0.978319
0.98124
0.978272
0.973067
0.971316
0.979815
1.0049
1.05564
1.13659
1.23861
1.34531
1.43765
1.49847
1.516
1.48539
1.40865
1.29364
1.15245
1.0004
0.850603
0.712855
0.591924
0.486988
0.394456
0.309272
0.22341
0.126719
0.000630188
-0.214898
-0.532587
-0.9403
-1.40084
-1.39165
0
3.04663
7.47609
12.5044
17.035
19.9601
20.5036
18.5169
14.5834
9.82587
5.45589
2.28846
0.497649
-0.266211
-0.490318
-0.552827
-0.612738
-0.670435
-0.726007
-0.779164
-0.829282
-0.875606
-0.917542
-0.954837
-0.988172
-1.01954
-1.05149
-1.08639
-1.1256
-1.16901
-1.21509
-1.26132
-1.30495
-1.34356
-1.37536
-1.3985
-1.41078
-1.40917
-1.38988
-1.34873
-1.28204
-1.18753
-1.06614
-0.919981
-0.753225
-0.571617
-0.381617
-0.189106
0.00117378
0.186293
0.365375
0.539415
0.710749
0.882335
1.05709
1.23749
1.42523
1.62181
1.82872
2.04762
2.28035
2.52864
2.79368
3.07764
3.38488
3.71524
4.05282
4.36696
4.62555
4.80183
4.87672
4.83814
4.68001
4.4038
4.02249
3.56389
3.06994
2.58612
2.13881
1.73138
1.36239
1.03665
0.757184
0.52535
0.340247
0.199184
0.0981587
0.0338833
0.000683975
-0.0106522
-0.00968475
-0.00499573
-0.00302734
-0.00727196
-0.0180347
-0.0328636
-0.0475575
-0.0575508
-0.0597626
-0.0534271
-0.0387653
-0.0207802
-0.010043
-0.0181812
-0.0541214
-0.120754
-0.213295
-0.320048
-0.425254
-0.51284
-0.571082
-0.594162
-0.577394
-0.518889
-0.419199
-0.271859
-0.0661247
0.170829
0.397489
0.571891
0.664841
0.667595
0.590493
0.455175
0.286576
0.10953
-0.0544491
-0.193622
-0.297124
-0.354296
-0.359057
-0.311707
-0.219576
-0.0961296
0.0413326
0.174751
0.289955
0.376135
0.427113
0.441407
0.421637
0.373559
0.304957
0.224582
0.141029
0.0617279
-0.00808411
-0.0655136
-0.1092
-0.138416
-0.153508
-0.155555
-0.146141
-0.127248
-0.100757
-0.0689472
-0.0353806
-0.0036335
0.02397
0.0473843
0.0693749
0.0951385
0.130912
0.181935
0.250441
0.334444
0.42809
0.520988
0.601308
0.658244
0.683981
0.674815
0.631358
0.558041
0.462199
0.353009
0.240601
0.13432
0.0416939
-0.0318249
-0.0822353
-0.104835
-0.0912552
-0.0265476
0.100826
0.264284
0.408744
0.472166
0.40182
0.16933
-0.221918
-0.740993
-1.34308
-1.98353
-1.61876
0
2.98499
7.0918
11.6797
15.8211
18.5352
19.1079
17.3827
13.862
9.5359
5.49505
2.52108
0.861121
0.263491
0.163756
-0.0728645
-0.304539
-0.517938
-0.700037
-0.839507
-0.929357
-0.969153
-0.965728
-0.931854
-0.883253
-0.834945
-0.796781
-0.771732
-0.761301
-0.764217
-0.777126
-0.795385
-0.813758
-0.827182
-0.831083
-0.821525
-0.795347
-0.750431
-0.685924
-0.602347
-0.501537
-0.386376
-0.260318
-0.126785
0.0115173
0.153124
0.298098
0.448006
0.605557
0.773968
0.956215
1.15435
1.36902
1.59943
1.84353
2.09857
2.36173
2.6306
2.9035
3.17945
3.45805
3.73919
4.02294
4.30935
4.59864
4.89135
5.18801
5.48296
5.74964
5.93747
5.98455
5.84297
5.50431
5.01304
4.46046
3.95737
3.57352
3.27093
3.00973
2.77721
2.56968
2.3834
2.21524
2.06295
1.92512
1.80085
1.68936
1.58966
1.50031
1.41947
1.34503
1.27475
1.2068
1.14021
1.0753
1.01396
0.959362
0.915383
0.885643
0.872655
0.87725
0.898455
0.933763
0.979644
1.0319
1.08652
1.14022
1.19022
1.23437
1.27117
1.29975
1.31977
1.331
1.3337
1.32827
1.31523
1.29525
1.26917
1.23795
1.20268
1.16457
1.12516
1.08648
1.05149
1.02411
1.00882
1.01003
1.03128
1.07453
1.13982
1.22529
1.32747
1.44158
1.56339
1.68152
1.77637
1.82475
1.80527
1.70638
1.53345
1.31066
1.07571
0.868958
0.721311
0.627984
0.58884
0.595823
0.636934
0.700307
0.77587
0.857741
0.943926
1.03434
1.12973
1.23101
1.33878
1.45305
1.573
1.69606
1.81673
1.92668
2.01626
2.07583
2.09721
2.07502
2.00775
1.89842
1.75476
1.58875
1.4156
1.25172
1.11064
1.00077
0.927261
0.89969
0.932564
1.0374
1.21195
1.43606
1.67061
1.86908
1.99243
1.99973
1.8462
1.49703
0.948315
0.238475
-0.559118
-0.909667
0
2.54181
6.65283
11.6971
16.5532
19.9287
20.8333
19.0095
15.0799
10.2938
5.98505
3.03054
1.59092
1.22863
1.25533
1.04417
0.837608
0.640056
0.455979
0.288709
0.14049
0.0125555
-0.0947279
-0.181738
-0.249413
-0.298669
-0.331765
-0.352516
-0.365476
-0.37522
-0.385516
-0.398509
-0.414136
-0.429978
-0.441648
-0.443637
-0.430503
-0.397929
-0.343738
-0.268358
-0.17388
-0.0628429
0.0618216
0.196942
0.339318
0.486372
0.634467
0.779623
0.920073
1.05817
1.2016
1.36275
1.55604
1.79372
2.08195
2.41537
2.7776
3.15626
3.53963
3.91573
4.27276
4.59767
4.88102
5.11649
5.30042
5.43183
5.51196
5.54355
5.52984
5.47365
5.37682
5.2428
5.0744
4.87339
4.64324
4.38971
4.12075
3.84588
3.57505
3.31705
3.07847
2.86341
2.67371
2.50414
2.34343
2.17829
1.99675
1.77602
1.51331
1.25104
1.04731
0.950012
0.975395
1.10157
1.27912
1.45204
1.57739
1.65504
1.7001
1.71352
1.69857
1.66012
1.60447
1.53911
1.47243
1.41312
1.36911
1.34565
1.34395
1.36433
1.4044
1.45945
1.5232
1.58816
1.64668
1.69192
1.71837
1.72216
1.70094
1.65362
1.58003
1.48068
1.35657
1.20173
1.00635
0.784343
0.585065
0.471625
0.500498
0.695964
1.03217
1.43461
1.80403
2.05359
2.1417
2.08414
1.94035
1.78231
1.66303
1.59317
1.54536
1.50564
1.46661
1.42255
1.37063
1.31153
1.24933
1.19087
1.14449
1.11859
1.12113
1.15815
1.23283
1.34475
1.48962
1.66411
1.85787
2.05006
2.21738
2.3403
2.40654
2.41291
2.36474
2.2734
2.15244
2.01403
1.86744
1.71815
1.56883
1.42145
1.27783
1.13925
1.00568
0.874881
0.742081
0.596776
0.417551
0.19458
-0.0692486
-0.357594
0
1.54592
4.52775
8.78086
13.6535
18.1052
21.0049
21.5478
19.5964
15.7566
11.1271
6.84309
3.66001
1.7774
0.944901
0.759726
0.673378
0.588004
0.503507
0.422203
0.34979
0.294165
0.263391
0.263195
0.295062
0.355658
0.437742
0.532166
0.630109
0.725055
0.813924
0.894712
0.965094
1.02337
1.06845
1.09973
1.11752
1.12352
1.12098
1.11465
1.11035
1.1145
1.1329
1.1703
1.23195
1.32245
1.44543
1.60321
1.7964
2.02295
2.27923
2.55991
2.85797
3.16531
3.47359
3.77516
4.06413
4.3371
4.5933
4.83409
5.06203
5.27963
5.48826
5.68739
5.87446
6.04555
6.19599
6.3211
6.41668
6.47881
6.50242
6.48316
6.41719
6.30095
6.13199
5.91009
5.63822
5.32314
4.97534
4.60828
4.23746
3.87715
3.54077
3.24031
2.98482
2.78028
2.62936
2.53154
2.48553
2.49204
2.55285
2.66095
2.78854
2.90161
2.97045
2.9762
2.91558
2.80141
2.65771
2.51091
2.3812
2.27365
2.18361
2.10772
2.04766
2.00614
1.98648
1.99207
2.02479
2.08613
2.17291
2.27332
2.37251
2.4559
2.51248
2.53692
2.53019
2.49874
2.4525
2.40223
2.3567
2.32055
2.29416
2.27534
2.25998
2.24348
2.22215
2.19397
2.15863
2.11704
2.07075
2.02193
1.97321
1.92803
1.89158
1.8698
1.86853
1.89189
1.94086
2.01252
2.10042
2.19594
2.2902
2.37657
2.45174
2.51386
2.56305
2.60088
2.62969
2.65204
2.67007
2.6852
2.69783
2.70726
2.7115
2.70733
2.69083
2.65779
2.60434
2.52769
2.42378
2.28962
2.12389
1.92515
1.69026
1.41626
1.08125
0.693062
0.314052
0
0.381341
1.81128
4.5783
8.6521
13.5085
18.1429
21.3458
22.1771
20.4098
16.6756
12.1837
8.15514
5.30384
3.66363
2.80951
2.28586
2.08585
1.89884
1.73015
1.58471
1.46507
1.37137
1.30212
1.25498
1.22762
1.21819
1.22501
1.24652
1.28254
1.33076
1.38624
1.4439
1.50011
1.55383
1.60685
1.66286
1.72556
1.79689
1.87534
1.95762
2.04006
2.11971
2.1957
2.26998
2.34725
2.43401
2.53716
2.66242
2.81252
2.98775
3.18729
3.41008
3.65502
3.92123
4.20812
4.51507
4.84087
5.18327
5.53872
5.90272
6.26978
6.63354
6.98598
7.31461
7.60204
7.83628
8.00267
8.08486
8.07248
7.96898
7.79359
7.5744
7.33553
7.08582
6.82229
6.54345
6.2489
5.93825
5.61458
5.28472
4.95833
4.64613
4.35813
4.10226
3.88289
3.70088
3.55411
3.43848
3.34895
3.28047
3.22839
3.18874
3.15798
3.1329
3.11055
3.08823
3.06363
3.03485
3.00045
2.95939
2.91093
2.85453
2.78985
2.71667
2.63513
2.54596
2.45063
2.35157
2.25307
2.16192
2.08581
2.03237
2.00778
2.01566
2.0563
2.1265
2.21996
2.32811
2.44108
2.54946
2.64563
2.72292
2.77622
2.80208
2.79858
2.76525
2.70311
2.61497
2.50448
2.37496
2.24532
2.14027
2.08318
2.0889
2.15852
2.27858
2.42524
2.57154
2.69455
2.78955
2.85564
2.89182
2.90023
2.88558
2.85468
2.81583
2.77776
2.7482
2.73516
2.74266
2.75852
2.76153
2.72768
2.63767
2.4827
2.26632
1.9912
1.64115
1.23671
0.78836
0.303848
-0.182732
0
1.42014
4.3967
8.72135
13.6164
17.9471
20.6012
20.8885
18.8054
15.0461
10.7229
6.90665
4.21428
2.66797
1.88678
1.60708
1.53738
1.47933
1.4296
1.3849
1.3426
1.30115
1.25997
1.21883
1.17685
1.13147
1.079
1.0167
0.945526
0.872121
0.808734
0.770631
0.771863
0.819104
0.925421
1.08844
1.28323
1.47189
1.62007
1.70417
1.71394
1.65306
1.53931
1.40365
1.28684
1.23241
1.2669
1.38598
1.57024
1.80359
2.07607
2.37691
2.69403
3.01584
3.33269
3.63753
3.9262
4.19702
4.44994
4.68551
4.9033
5.10137
5.27691
5.42642
5.54587
5.6315
5.68019
5.68972
5.65867
5.58635
5.4729
5.32022
5.13213
4.91385
4.67204
4.41468
4.15045
3.88768
3.63322
3.39167
3.16484
2.95197
2.75046
2.55713
2.36953
2.18709
2.01196
1.84935
1.70587
1.58841
1.50239
1.45034
1.43199
1.44253
1.47428
1.51784
1.56358
1.6004
1.61935
1.61506
1.58665
1.53833
1.47903
1.42095
1.37689
1.35725
1.36689
1.40118
1.45645
1.52656
1.60423
1.68212
1.7533
1.81205
1.85413
1.87699
1.87999
1.86458
1.83419
1.79393
1.74999
1.70883
1.67562
1.65466
1.64857
1.6579
1.68107
1.71468
1.7541
1.79428
1.83045
1.85891
1.8768
1.88227
1.87456
1.854
1.82201
1.78118
1.73506
1.68773
1.64322
1.6047
1.57369
1.55038
1.53307
1.51874
1.50359
1.48353
1.45455
1.41281
1.35457
1.27572
1.15814
0.933069
0.5435
0.01679
-0.582338
-0.835983
0
2.2852
5.9921
10.5632
14.9985
18.1475
19.1252
17.6812
14.3203
10.0847
6.09446
3.10014
1.28798
0.405776
0.0721514
0.187687
0.309334
0.440089
0.580747
0.729584
0.882489
1.03337
1.17387
1.29296
1.37975
1.42465
1.42179
1.37109
1.27939
1.15979
1.02971
0.907897
0.807791
0.73633
0.699747
0.700165
0.735743
0.801482
0.890562
0.995863
1.11117
1.23177
1.35555
1.48217
1.61232
1.74731
1.88851
2.03702
2.19331
2.35712
2.52751
2.70322
2.88309
3.06648
3.25367
3.44592
3.64514
3.85325
4.07133
4.29906
4.53464
4.77426
5.01301
5.24537
5.4638
5.65532
5.80219
5.88877
5.89432
5.79764
5.58569
5.26197
4.84996
4.38894
3.92344
3.48685
3.08302
2.71056
2.3723
2.06923
1.80171
1.57039
1.38083
1.26512
1.29525
1.44122
1.62288
1.74116
1.7245
1.56544
1.32199
1.08234
0.916498
0.846498
0.814725
0.796414
0.783598
0.770918
0.756488
0.741877
0.731454
0.731193
0.747626
0.800588
0.948958
1.24159
1.602
1.90158
2.01273
1.87883
1.55635
1.19301
0.94547
0.882797
0.904467
0.932745
0.939693
0.910789
0.848945
0.772116
0.705668
0.672719
0.679753
0.716298
0.773771
0.846156
0.925536
1.00343
1.07267
1.12837
1.16814
1.19193
1.20128
1.1985
1.18587
1.16539
1.13862
1.10657
1.07034
1.03135
0.991465
0.952816
0.917452
0.886816
0.861446
0.840892
0.823487
0.806421
0.786095
0.75854
0.719843
0.66652
0.595797
0.505741
0.393769
0.255856
0.0872833
-0.107312
-0.319104
-0.537173
-0.634058
0
1.75405
4.82663
8.92773
13.2177
16.542
17.8955
16.8801
13.8937
9.93367
6.1258
3.25309
1.54243
0.773409
0.564951
0.46573
0.35628
0.242863
0.12755
0.0146626
-0.0898994
-0.180091
-0.251235
-0.300086
-0.3271
-0.336784
-0.335455
-0.329322
-0.322685
-0.3168
-0.30971
-0.297043
-0.273488
-0.234704
-0.179227
-0.10861
-0.0247413
0.0668763
0.158146
0.241856
0.313717
0.373643
0.42592
0.47829
0.540345
0.621777
0.729581
0.865911
1.0324
1.23058
1.46035
1.71968
2.0046
2.3093
2.62655
2.94849
3.26747
3.57693
3.87208
4.14977
4.40734
4.64141
4.84763
5.02128
5.15784
5.25049
5.29189
5.27651
5.20225
5.07116
4.8891
4.66491
4.41002
4.13887
3.86386
3.59423
3.33727
3.09946
2.88621
2.7012
2.54614
2.4208
2.32321
2.24993
2.19701
2.16016
2.13278
2.10718
2.0765
2.0357
1.98238
1.91704
1.84276
1.76441
1.68766
1.61763
1.5584
1.51524
1.49241
1.49267
1.51709
1.56441
1.63141
1.71153
1.79593
1.87576
1.9439
1.99609
2.03092
2.04907
2.05203
2.04122
2.01873
1.98565
1.94394
1.89694
1.84955
1.80773
1.77752
1.76289
1.76649
1.78883
1.82813
1.88081
1.94226
2.00774
2.07304
2.13499
2.19117
2.23908
2.27595
2.29964
2.30827
2.30094
2.27858
2.24454
2.20449
2.16576
2.13615
2.1225
2.12825
2.15671
2.21007
2.29145
2.41228
2.59648
2.86248
3.17083
3.45131
3.6309
3.65836
3.52187
3.25332
2.91808
2.59354
2.34369
2.16793
2.03509
1.92592
1.8313
1.74453
1.65765
1.56132
1.43567
1.21816
0.894077
0.476186
0.00368357
0
1.31115
4.28107
8.70722
13.7912
18.3539
21.238
21.7264
19.7947
16.087
11.6368
7.4756
4.30678
2.36691
1.48738
1.28928
1.16275
1.04314
0.93611
0.847548
0.784719
0.759802
0.790746
0.889484
1.03806
1.19076
1.29748
1.31733
1.22973
1.04147
0.787639
0.524188
0.311336
0.183843
0.124814
0.115813
0.146175
0.203261
0.277072
0.363442
0.464566
0.586654
0.735765
0.913711
1.11417
1.3278
1.54438
1.75538
1.95661
2.14918
2.33829
2.53075
2.73218
2.94446
3.16553
3.39282
3.62322
3.85345
4.08041
4.30119
4.51283
4.71221
4.89622
5.06178
5.20607
5.32674
5.42154
5.48716
5.52114
5.52107
5.48432
5.40845
5.29167
5.13334
4.93424
4.69677
4.42493
4.12602
3.80782
3.47814
3.14577
2.81989
2.50939
2.22216
1.96439
1.74034
1.55239
1.40143
1.28713
1.20909
1.17114
1.1804
1.2315
1.3006
1.35926
1.38121
1.34954
1.26101
1.12582
0.963069
0.794626
0.638594
0.502071
0.387102
0.299762
0.244369
0.223169
0.236118
0.28231
0.361657
0.458831
0.555248
0.633272
0.680318
0.69122
0.668087
0.618085
0.5505
0.474732
0.398754
0.327399
0.265055
0.21565
0.182278
0.166752
0.169666
0.189697
0.222873
0.262376
0.300652
0.33116
0.349607
0.354554
0.34725
0.330785
0.308808
0.284269
0.258649
0.231942
0.2034
0.172424
0.139536
0.107107
0.0796539
0.0633865
0.0651428
0.0931652
0.159721
0.271364
0.418973
0.579583
0.724479
0.82751
0.869935
0.843107
0.749815
0.604537
0.431822
0.261777
0.122881
0.0299007
-0.0224735
-0.0458481
-0.0450462
-0.0263344
0.00405006
0.0406376
0.0795765
0.118424
0.155413
0.189214
0.218764
0.243229
0.262033
0.274814
0.28128
0.281025
0.273436
0.258107
0.234686
0.203579
0.166492
0.126759
0.0893806
0.0609364
0.0481186
0.0564377
0.088842
0.149887
0.236868
0.33554
0.428859
0.501771
0.545479
0.559705
0.552294
0.53644
0.526622
0.533851
0.560857
0.606288
0.667837
0.742754
0.827597
0.918641
1.01223
1.10482
1.1925
1.27172
1.33944
1.39353
1.43308
1.45848
1.47118
1.47315
1.46634
1.45252
1.43317
1.40902
1.3805
1.34747
1.30877
1.26177
1.20208
1.12116
0.982233
0.720203
0.342002
-0.111602
-0.609821
0
2.08802
5.74139
10.5217
15.5249
19.6134
21.7669
21.4326
18.7414
14.4855
9.84123
5.93252
3.42394
2.33139
2.14405
1.90731
1.53166
1.15671
0.796919
0.466008
0.175399
-0.0670071
-0.25747
-0.396322
-0.48717
-0.535644
-0.548024
-0.530139
-0.487452
-0.423711
-0.341322
-0.242098
-0.127788
-0.000454712
0.137108
0.279384
0.414213
0.525101
0.595315
0.612381
0.573552
0.489943
0.38685
0.298959
0.261551
0.30102
0.408913
0.56599
0.766536
1.00501
1.27556
1.57103
1.88744
2.22193
2.57223
2.9362
3.3115
3.69537
4.08447
4.47475
4.86138
5.23841
5.5962
5.92189
6.20531
6.43739
6.61137
6.72329
6.77177
6.7572
6.68111
6.54619
6.35901
6.12898
5.8656
5.58051
5.28589
4.9926
4.70781
4.43482
4.17605
3.93297
3.70688
3.49932
3.31211
3.14687
3.00352
2.88167
2.77953
2.69403
2.62109
2.55611
2.49447
2.43194
2.36508
2.29152
2.21004
2.12063
2.02618
1.93501
1.85856
1.80839
1.79325
1.81682
1.87672
1.96517
2.07082
2.18099
2.28447
2.37458
2.4455
2.49386
2.51898
2.52299
2.51052
2.48792
2.46226
2.44017
2.42609
2.42181
2.42843
2.4456
2.46823
2.48752
2.49466
2.48357
2.45312
2.40786
2.35696
2.31154
2.28153
2.27106
2.27804
2.30017
2.33472
2.37796
2.42569
2.47375
2.51776
2.55234
2.57239
2.57411
2.55556
2.51769
2.4648
2.40398
2.3437
2.29163
2.25271
2.22642
2.21074
2.20162
2.19447
2.1856
2.1733
2.15828
2.14337
2.13273
2.13055
2.13983
2.162
2.1968
2.24311
2.29789
2.35668
2.41519
2.47021
2.51995
2.56381
2.60126
2.6302
2.64809
2.65094
2.63498
2.59879
2.54478
2.47922
2.41063
2.34729
2.2952
2.25513
2.22869
2.21776
2.22541
2.25628
2.31585
2.40894
2.55455
2.76353
3.01337
3.26807
3.492
3.65496
3.74143
3.74503
3.66419
3.50229
3.27248
3.00246
2.73276
2.50588
2.34932
2.24458
2.16041
2.07798
1.94271
1.55355
0.925629
0.182167
-0.57349
0
2.13655
5.88568
10.8373
16.1697
20.8014
23.6527
23.9815
21.6885
17.4286
12.406
7.9025
4.76818
3.15203
2.60866
2.44771
2.25281
2.06774
1.90185
1.76216
1.65259
1.57388
1.52406
1.49923
1.49444
1.50446
1.52398
1.54881
1.57454
1.59735
1.61448
1.62457
1.62786
1.62605
1.62174
1.61762
1.61572
1.61689
1.62119
1.6286
1.63973
1.65655
1.68297
1.72478
1.78912
1.88306
2.01205
2.17945
2.38533
2.62575
2.89285
3.17692
3.4679
3.75645
4.03502
4.29848
4.5441
4.77121
4.98055
5.17386
5.35383
5.52407
5.68923
5.85506
6.03051
6.24558
6.58941
7.08862
7.61687
8.01956
8.18805
8.1007
7.81451
7.41888
6.98595
6.54936
6.11921
5.70296
5.30431
4.92599
4.57137
4.24522
3.95313
3.69941
3.48684
3.31633
3.18704
3.09644
3.04051
3.01457
3.01427
3.03365
3.06096
3.08142
3.08175
3.05292
2.99252
2.90565
2.80366
2.70101
2.6113
2.54181
2.49154
2.45895
2.44184
2.43721
2.44254
2.45643
2.4793
2.51306
2.56056
2.62758
2.72535
2.86077
3.01002
3.13756
3.2082
3.20122
3.11977
2.99051
2.85308
2.7444
2.68457
2.65718
2.64678
2.64538
2.64522
2.64068
2.62941
2.61242
2.5933
2.57678
2.56721
2.56706
2.57639
2.59421
2.61956
2.6514
2.68893
2.7315
2.77843
2.82831
2.87685
2.91659
2.93875
2.93583
2.90437
2.84695
2.77234
2.69371
2.62545
2.57929
2.55753
2.55886
2.58113
2.61964
2.66831
2.72091
2.77242
2.8195
2.8606
2.89579
2.92626
2.95359
2.97892
3.00269
3.02451
3.04362
3.06004
3.07547
3.09367
3.11974
3.15933
3.21935
3.3
3.39039
3.47186
3.52421
3.5314
3.48616
3.3925
3.26574
3.12976
3.01166
2.93344
2.90793
2.94538
3.02228
3.10086
3.14047
3.04766
2.42056
1.46878
0.467665
-0.414111
0
2.03863
5.85065
11.0271
16.5741
21.1469
23.4994
22.9785
19.8152
15.0351
10.0198
5.94418
3.38714
2.28573
2.17431
2.34918
2.28736
2.1873
2.04007
1.83166
1.54937
1.22115
0.898783
0.629583
0.445224
0.359658
0.373719
0.481245
0.672183
0.931275
1.23339
1.54443
197
406
594
770
941
1116
1299
1500
1706
1901
2090
2271
2441
2603
2760
2921
3090
3319
3530
3724
3074
3224
3373
3524
3676
3610
2267
2305
2383
2574
2644
2770
2879
2970
3166
3231
3275
3359
3489
3555
3606
3753
3708
3735
0
0
0
0
0
0
0
0
0
0
0
0
0
0
0
0
0
0
0
0
0
0
0
0
0
0
0
0
0
0
0
0
0
0
0
0
0
0
0
0
0
0
0
0
0
0
0
0
0
0
0
0
0
0
0
0
0
0
0
0
0
0
0
0
0
0
0
0
0
0
0
0
0
0
0
0
0
0
0
0
0
0
0
0
0
0
0
0
0
0
0
0
0
0
0
0
0
0
0
0
0
0
0
0
0
0
0
0
0
0
0
0
0
0
0
0
0
0
0
0
0
0
0
0
0
0
0
0
0
0
0
0
0
0
0
0
0
0
0
0
0
0
0
0
0
0
0
0
0
0
0
0
0
0
0
0
0
0
0
0
0
0
0
0
0
0
0
0
0
0
0
0
0
0
0
0
0
0
0
0
0
0
0
0
0
0
0
0
0
0
0
0
0
0
0
0
0
0
0
0
0
0
0
0
0
0
0
0
0
0
0
0
0
0
0
0
0
0
0
0
0
0
0
0
0
0
0
0
0
0
0
0
0
0
0
0
0
0
0
0
0
0
0
0
0
0
0
0
0
0
0
0
0
0
0
0
0
0
0
0
0
0
0
0
0
0
0
0
0
0
0
0
0
0
0
0
0
0
0
0
0
0
0
0
0
0
0
0
0
0
0
0
0
0
0
0
0
0
0
0
0
0
0
0
0
0
0
0
0
0
0
0
0
0
0
0
0
0
0
0
0
0
0
0
0
0
0
0
0
0
0
0
0
0
0
0
0
0
0
0
0
0
0
0
0
0
0
0
0
0
0
0
0
0
0
0
0
0
0
0
0
0
0
0
0
0
0
0
0
0
0
0
0
0
0
0
0
0
0
0
0
0
0
0
0
0
0
0
0
0
0
0
0
0
0
0
0
0
0
0
0
0
0
0
0
0
0
0
0
0
0
0
0
0
0
0
0
0
0
0
0
0
0
0
0
0
0
0
0
0
0
0
0
0
0
0
0
0
0
0
0
0
0
0
0
0
0
0
0
0
0
0
0
0
0
0
0
0
0
0
0
0
0
0
0
0
0
0
0
0
0
0
0
0
0
0
0
0
0
0
0
0
0
0
0
0
0
0
0
0
0
0
0
0
0
0
0
0
0
0
0
0
0
0
0
0
0
0
0
0
0
0
0
0
0
0
0
0
0
0
0
0
0
0
0
0
0
0
0
0
0
0
0
0
0
0
0
0
0
0
0
0
0
0
0
0
0
0
0
0
0
0
0
0
0
0
0
0
0
0
0
0
0
0
0
0
0
0
0
0
0
0
0
0
0
0
0
0
0
0
0
0
0
0
0
0
0
0
0
0
0
0
0
0
0
0
0
0
0
0
0
0
0
0
0
0
0
0
0
0
0
0
0
0
0
0
0
0
0
0
0
0
0
0
0
0
0
0
0
0
0
0
0
0
0
0
0
0
0
0
0
0
0
0
0
0
0
0
0
0
0
0
0
0
0
0
0
0
0
0
0
0
0
0
0
0
0
0
0
0
0
0
0
0
0
0
0
0
0
0
0
0
0
0
0
0
0
0
0
0
0
0
0
0
0
0
0
0
0
0
0
0
0
0
0
0
0
0
0
0
0
0
0
0
0
0
0
0
0
0
0
0
0
0
0
0
0
0
0
0
0
0
0
0
0
0
0
0
0
0
0
0
0
0
0
0
0
0
0
0
0
0
0
0
0
0
0
0
0
0
0
0
0
0
0
0
0
0
0
0
0
0
0
0
0
0
0
0
0
0
0
0
0
0
0
0
0
0
0
0
0
0
0
0
0
0
0
0
0
0
0
0
0
0
0
0
0
0
0
0
0
0
0
0
0
0
0
0
0
0
0
0
0
0
0
0
0
0
0
0
0
0
0
0
0
0
0
0
0
0
0
0
0
0
0
0
0
0
0
0
0
0
0
0
0
0
0
0
0
0
0
0
0
0
0
0
0
0
0
0
0
0
0
0
0
0
0
0
0
0
0
0
0
0
0
0
0
0
0
0
0
0
0
0
0
0
0
0
0
0
0
0
0
0
0
0
0
0
0
0
0
0
0
0
0
0
0
0
0
0
0
0
0
0
0
0
0
0
0
0
0
0
0
0
0
0
0
0
0
0
0
0
0
0
0
0
0
0
0
0
0
0
0
0
0
0
0
0
0
0
0
0
0
0
0
0
0
0
0
0
0
0
0
0
0
0
0
0
0
0
0
0
0
0
0
0
0
0
0
0
0
0
0
0
0
0
0
0
0
0
0
0
0
0
0
0
0
0
0
0
0
0
0
0
0
0
0
0
0
0
0
0
0
0
0
0
0
0
0
0
0
0
0
0
0
0
0
0
0
0
0
0
0
0
0
0
0
0
0
0
0
0
0
0
0
0
0
0
0
0
0
0
0
0
0
0
0
0
0
0
0
0
0
0
0
0
0
0
0
0
0
0
0
0
0
0
0
0
0
0
0
0
0
0
0
0
0
0
0
0
0
0
0
0
0
0
0
0
0
0
0
0
0
0
0
0
0
0
0
0
0
0
0
0
0
0
0
0
0
0
0
0
0
0
0
0
0
0
0
0
0
0
0
0
0
0
0
0
0
0
0
0
0
0
0
0
0
0
0
0
0
0
0
0
0
0
0
0
0
0
0
0
0
0
0
0
0
0
0
0
0
0
0
0
0
0
0
0
0
0
0
0
0
0
0
0
0
0
0
0
0
0
0
0
0
0
0
0
0
0
0
0
0
0
0
0
0
0
0
0
0
0
0
0
0
0
0
0
0
0
0
0
0
0
0
0
0
0
0
0
0
0
0
0
0
0
0
0
0
0
0
0
0
0
0
0
0
0
0
0
0
0
0
0
0
0
0
0
0
0
0
0
0
0
0
0
0
0
0
0
0
0
0
0
0
0
0
0
0
0
0
0
0
0
0
0
0
0
0
0
0
0
0
0
0
0
0
0
0
0
0
0
0
0
0
0
0
0
0
0
0
0
0
0
0
0
0
0
0
0
0
0
0
0
0
0
0
0
0
0
0
0
0
0
0
0
0
0
0
0
0
0
0
0
0
0
0
0
0
0
0
0
0
0
0
0
0
0
0
0
0
0
0
0
0
0
0
0
0
0
0
0
0
0
0
0
0
0
0
0
0
0
0
0
0
0
0
0
0
0
0
0
0
0
0
0
0
0
0
0
0
0
0
0
0
0
0
0
0
0
0
0
0
0
0
0
0
0
0
0
0
0
0
0
0
0
0
0
0
0
0
0
0
0
0
0
0
0
0
0
0
0
0
0
0
0
0
0
0
0
0
0
0
0
0
0
0
0
0
0
0
0
0
0
0
0
0
0
0
0
0
0
0
0
0
0
0
0
0
0
0
0
0
0
0
0
0
0
0
0
0
0
0
0
0
0
0
0
0
0
0
0
0
0
0
0
0
0
0
0
0
0
0
0
0
0
0
0
0
0
0
0
0
0
0
0
0
0
0
0
0
0
0
0
0
0
0
0
0
0
0
0
0
0
0
0
0
0
0
0
0
0
0
0
0
0
0
0
0
0
0
0
0
0
0
0
0
0
0
0
0
0
0
0
0
0
0
0
0
0
0
0
0
0
0
0
0
0
0
0
0
0
0
0
0
0
0
0
0
0
0
0
0
0
0
0
0
0
0
0
0
0
0
0
0
0
0
0
0
0
0
0
0
0
0
0
0
0
0
0
0
0
0
0
0
0
0
0
0
0
0
0
0
0
0
0
0
0
0
0
0
0
0
0
0
0
0
0
0
0
0
0
0
0
0
0
0
0
0
0
0
0
0
0
0
0
0
0
0
0
0
0
0
0
0
0
0
0
0
0
0
0
0
0
0
0
0
0
0
0
0
0
0
0
0
0
0
0
0
0
0
0
0
0
0
0
0
0
0
0
0
0
0
0
0
0
0
0
0
0
0
0
0
0
0
0
0
0
0
0
0
0
0
0
0
0
0
0
0
0
0
0
0
0
0
0
0
0
0
0
0
0
0
0
0
0
0
0
0
0
0
0
0
0
0
0
0
0
0
0
0
0
0
0
0
0
0
0
0
0
0
0
0
0
0
0
0
0
0
0
0
0
0
0
0
0
0
0
0
0
0
0
0
0
0
0
0
0
0
0
0
0
0
0
0
0
0
0
0
0
0
0
0
0
0
0
0
0
0
0
0
0
0
0
0
0
0
0
0
0
0
0
0
0
0
0
0
0
0
0
0
0
0
0
0
0
0
0
0
0
0
0
0
0
0
0
0
0
0
0
0
0
0
0
0
0
0
0
0
0
0
0
0
0
0
0
0
0
0
0
0
0
0
0
0
0
0
0
0
0
0
0
0
0
0
0
0
0
0
0
0
0
0
0
0
0
0
0
0
0
0
0
0
0
0
0
0
0
0
0
0
0
0
0
0
0
0
0
0
0
0
0
0
0
0
0
0
0
0
0
0
0
0
0
0
0
0
0
0
0
0
0
0
0
0
0
0
0
0
0
0
0
0
0
0
0
0
0
0
0
0
0
0
0
0
0
0
0
0
0
0
0
0
0
0
0
0
0
0
0
0
0
0
0
0
0
0
0
0
0
0
0
0
0
0
0
0
0
0
0
0
0
0
0
0
0
0
0
0
0
0
0
0
0
0
0
0
0
0
0
0
0
0
0
0
0
0
0
0
0
0
0
0
0
0
0
0
0
0
0
0
0
0
0
0
0
0
0
0
0
0
0
0
0
0
0
0
0
0
0
0
0
0
0
0
0
0
0
0
0
0
0
0
0
0
0
0
0
0
0
0
0
0
0
0
0
0
0
0
0
0
0
0
0
0
0
0
0
0
0
0
0
0
0
0
0
0
0
0
0
0
0
0
0
0
0
0
0
0
0
0
0
0
0
0
0
0
0
0
0
0
0
0
0
0
0
0
0
0
0
0
0
0
0
0
0
0
0
0
0
0
0
0
0
0
0
0
0
0
0
0
0
0
0
0
0
0
0
0
0
0
0
0
0
0
0
0
0
0
0
0
0
0
0
0
0
0
0
0
0
0
0
0
0
0
0
0
0
0
0
0
0
0
0
0
0
0
0
0
0
0
0
0
0
0
0
0
0
0
0
0
0
0
0
0
0
0
0
0
0
0
0
0
0
0
0
0
0
0
0
0
0
0
0
0
0
0
0
0
0
0
0
0
0
0
0
0
0
0
0
0
0
0
0
0
0
0
0
0
0
0
0
0
0
0
0
0
0
0
0
0
0
0
0
0
0
0
0
0
0
0
0
0
0
0
0
0
0
0
0
0
0
0
0
0
0
0
0
0
0
0
0
0
0
0
0
0
0
0
0
0
0
0
0
0
0
0
0
0
0
0
0
0
0
0
0
0
0
0
0
0
0
0
0
0
0
0
0
0
0
0
0
0
0
0
0
0
0
0
0
0
0
0
0
0
0
0
0
0
0
0
0
0
0
0
0
0
0
0
0
0
0
0
0
0
0
0
0
0
0
0
0
0
0
0
0
0
0
0
0
0
0
0
0
0
0
0
0
0
0
0
0
0
0
0
0
0
0
0
0
0
0
0
0
0
0
0
0
0
0
0
0
0
0
0
0
0
0
0
0
0
0
0
0
0
0
0
0
0
0
0
0
0
0
0
0
0
0
0
0
0
0
0
0
0
0
0
0
0
0
0
0
0
0
0
0
0
0
0
0
0
0
0
0
0
0
0
0
0
0
0
0
0
0
0
0
0
0
0
0
0
0
0
0
0
0
0
0
0
0
0
0
0
0
0
0
0
0
0
0
0
0
0
0
0
0
0
0
0
0
0
0
0
0
0
0
0
0
0
0
0
0
0
0
0
0
0
0
0
0
0
0
0
0
0
0
0
0
0
0
0
0
0
0
0
0
0
0
0
0
0
0
0
0
0
0
0
0
0
0
0
0
0
0
0
0
0
0
0
0
0
0
0
0
0
0
0
0
0
0
0
0
0
0
0
0
0
0
0
0
0
0
0
0
0
0
0
0
0
0
0
0
0
0
0
0
0
0
0
0
0
0
0
0
0
0
0
0
0
0
0
0
0
0
0
0
0
0
0
0
0
0
0
0
0
0
0
0
0
0
0
0
0
0
0
0
0
0
0
0
0
0
0
0
0
0
0
0
0
0
0
0
0
0
0
0
0
0
0
0
0
0
0
0
0
0
0
0
0
0
0
0
0
0
0
0
0
0
0
0
0
0
0
0
0
0
0
0
0
0
0
0
0
0
0
0
0
0
0
0
0
0
0
0
0
0
0
0
0
0
0
0
0
0
0
0
0
0
0
0
0
0
0
0
0
0
0
0
0
0
0
0
0
0
0
0
0
0
0
0
0
0
0
0
0
0
0
0
0
0
0
0
0
0
0
0
0
0
0
0
0
0
0
0
0
0
0
0
0
0
0
0
0
0
0
0
0
0
0
0
0
0
0
0
0
0
0
0
0
0
0
0
0
0
0
0
0
0
0
0
0
0
0
0
0
0
0
0
0
0
0
0
0
0
0
0
0
0
0
0
0
0
0
0
0
0
0
0
0
0
0
0
0
0
0
0
0
0
0
0
0
0
0
0
0
0
0
0
0
0
0
0
0
0
0
0
0
0
0
0
0
0
0
0
0
0
0
0
0
0
0
0
0
0
0
0
0
0
0
0
0
0
0
0
0
0
0
0
0
0
0
0
0
0
0
0
0
0
0
0
0
0
0
0
0
0
0
0
0
0
0
0
0
0
0
0
0
0
0
0
0
0
0
0
0
0
0
0
0
0
0
0
0
0
0
0
0
0
0
0
0
0
0
0
0
0
0
0
0
0
0
0
0
0
0
0
0
0
0
0
0
0
0
0
0
0
0
0
0
0
0
0
0
0
0
0
0
0
0
0
0
0
0
0
0
0
0
0
0
0
0
0
0
0
0
0
0
0
0
0
0
0
0
0
0
0
0
0
0
0
0
0
0
0
0
0
0
0
0
0
0
0
0
0
0
0
0
0
0
0
0
0
0
0
0
0
0
0
0
0
0
0
0
0
0
0
0
0
0
0
0
0
0
0
0
0
0
0
0
0
0
0
0
0
0
0
0
0
0
0
0
0
0
0
0
0
0
0
0
0
0
0
0
0
0
0
0
0
0
0
0
0
0
0
0
0
0
0
0
0
0
0
0
0
0
0
0
0
0
0
0
0
0
0
0
0
0
0
0
0
0
0
0
0
0
0
0
0
0
0
0
0
0
0
0
0
0
0
0
0
0
0
0
0
0
0
0
0
0
0
0
0
0
0
0
0
0
0
0
0
0
0
0
0
0
0
0
0
0
0
0
0
0
0
0
0
0
0
0
0
0
0
0
0
0
0
0
0
0
0
0
0
0
0
0
0
0
0
0
0
0
0
0
0
0
0
0
0
0
0
0
0
0
0
0
0
0
0
0
0
0
0
0
0
0
0
0
0
0
0
0
0
0
0
0
0
0
0
0
0
0
0
0
0
0
0
0
0
0
0
0
0
0
0
0
0
0
0
0
0
0
0
0
0
0
0
0
0
0
0
0
0
0
0
0
0
0
0
0
0
0
0
0
0
0
0
0
0
0
0
0
0
0
0
0
0
0
0
0
0
0
0
0
0
0
0
0
0
0
0
0
0
0
0
0
0
0
0
0
0
0
0
0
0
0
0
0
0
0
0
0
0
0
0
0
0
0
0
0
0
0
0
0
0
0
0
0
0
0
0
0
0
0
0
0
0
0
0
0
0
0
0
0
0
0
0
0
0
0
0
0
0
0
0
0
0
0
0
0
0
0
0
0
0
0
0
0
0
0
0
0
0
0
0
0
0
0
0
0
0
0
0
0
0
0
0
0
0
0
0
0
0
0
0
0
0
0
0
0
0
0
0
0
0
0
0
0
0
0
0
0
0
0
0
0
0
0
0
0
0
0
0
0
0
0
0
0
0
0
0
0
0
0
0
0
0
0
0
0
0
0
0
0
0
0
0
0
0
0
0
0
0
0
0
0
0
0
0
0
0
0
0
0
0
0
0
0
0
0
0
0
0
0
0
0
0
0
0
0
0
0
0
0
0
0
0
0
0
0
0
0
0
0
0
0
0
0
0
0
0
0
0
0
0
0
0
0
0
0
0
0
0
0
0
0
0
0
0
0
0
0
0
0
0
0
0
0
0
0
0
0
0
0
0
0
0
0
0
0
0
0
0
0
0
0
0
0
0
0
0
0
0
0
0
0
0
0
0
0
0
0
0
0
0
0
0
0
0
0
0
0
0
0
0
0
0
0
0
0
0
0
0
0
0
0
0
0
0
0
0
0
0
0
0
0
0
0
0
0
0
0
0
0
0
0
0
0
0
0
0
0
0
0
0
0
0
0
0
0
