4.49812
4.9384
5.42412
5.95542
6.52298
7.07546
7.54933
7.89514
8.0877
8.12905
8.04396
7.86834
7.63396
7.35641
7.04013
6.69357
6.32386
5.93489
5.53066
5.11727
4.70181
4.29128
3.89147
3.50668
3.14022
2.79536
2.47629
2.19531
2.00944
2.04523
2.26333
2.54203
2.73154
2.73153
2.53633
2.22352
1.90335
1.66892
1.56558
1.53762
1.55192
1.60134
1.69126
1.82006
1.96858
2.10944
2.21625
2.26986
2.26277
2.20034
2.09862
1.97991
1.86759
1.77882
1.71919
1.68763
1.68143
1.69872
1.73837
1.79437
1.85539
1.91012
1.94979
1.97012
1.97222
1.96181
1.94721
1.93668
1.93567
1.94474
1.9623
1.98635
2.01422
2.04328
2.0713
2.09651
2.11706
2.13045
2.13474
2.12852
2.11193
2.08748
2.06017
2.03654
2.02291
2.02349
2.03849
2.06529
2.09956
2.13645
2.17195
2.20366
2.23077
2.25348
2.27226
2.28768
2.29981
2.30861
2.31423
2.31705
2.31756
2.31604
2.31231
2.30568
2.29509
2.27957
2.25866
2.23262
2.20241
2.16934
2.13457
2.09902
2.0633
2.02821
1.99537
1.96772
1.94955
1.94591
1.96163
2.00001
2.0673
2.16623
2.28469
2.39877
2.48333
2.51875
2.49642
2.4212
2.31056
2.19038
2.08843
2.0234
1.99611
1.99963
2.03198
2.08448
2.14667
2.20907
2.26524
2.31269
2.35223
2.38638
2.41744
2.44643
2.47311
2.49686
2.51801
2.53889
2.56418
2.60035
2.65428
2.73687
2.86678
3.04647
3.23846
3.39421
3.47193
3.45288
3.3494
3.20009
3.05251
2.94058
2.86466
2.79804
2.72336
2.62705
2.50253
2.35313
2.19207
2.03946
1.92056
1.89832
2.00726
2.18702
2.34179
2.38139
2.25314
1.95204
1.40131
0.660123
-0.144666
-0.917371
-1.16795
0
2.97101
7.72431
13.568
19.2872
23.5321
25.2759
24.1651
20.6378
15.7612
10.835
6.92004
4.49892
3.42936
3.17707
3.04549
2.85837
2.6693
2.48266
2.30321
2.13579
1.98517
1.85579
1.75069
1.67123
1.61734
1.5875
1.57887
1.58763
1.60938
1.63966
1.67448
1.71066
1.74612
1.77974
1.81107
1.84001
1.86652
1.89046
1.91219
1.93286
1.95494
1.98261
2.02141
2.07728
2.1551
2.2573
2.38273
2.52597
2.68292
2.84992
3.02512
3.20979
3.40835
3.62761
3.87526
4.15791
4.47907
4.83773
5.22788
5.63909
6.0582
6.4719
6.86829
7.23697
7.56679
7.84602
8.06666
8.22795
8.32758
8.36155
8.32653
8.22234
8.05266
7.82389
7.54284
7.21525
6.8521
6.46565
6.06516
5.65849
5.2549
4.8644
4.49853
4.16681
3.87174
3.61127
3.38056
3.17442
2.98929
2.82415
2.68007
2.55887
2.45904
2.37911
2.31742
2.27136
2.23827
2.21571
2.20229
2.19798
2.2038
2.22123
2.25403
2.30512
2.36788
2.42777
2.46789
2.47484
2.44391
2.38134
2.30251
2.22687
2.17161
2.1421
2.13377
2.1409
2.15875
2.1819
2.20497
2.22347
2.23432
2.23602
2.22865
2.21374
2.19408
2.1732
2.15503
2.14331
2.14092
2.14988
2.17053
2.20023
2.23303
2.26198
2.28102
2.28666
2.279
2.26167
2.24088
2.22392
2.21745
2.2249
2.24638
2.2806
2.32545
2.37581
2.42156
2.45053
2.45181
2.41885
2.35226
2.26104
2.16159
2.07433
2.01875
2.00474
2.03453
2.11707
2.23538
2.35885
2.4576
2.51153
2.51551
2.47896
2.42043
2.35968
2.31055
2.27452
2.24713
2.22541
2.20667
2.1894
2.17374
2.16124
2.15402
2.15372
2.16045
2.17296
2.18878
2.20471
2.21752
2.22466
2.22474
2.21791
2.20598
2.19242
2.18216
2.18096
2.19422
2.22557
2.27843
2.35058
2.43218
2.51038
2.57269
2.61031
2.62017
2.60538
2.57402
2.53689
2.50482
2.48531
2.48206
2.49595
2.52611
2.57056
2.62544
2.68486
2.74102
2.78619
2.81443
2.82278
2.81198
2.78632
2.75255
2.71794
2.68822
2.66597
2.64994
2.6371
2.62341
2.60499
2.57903
2.54385
2.4985
2.44226
2.3753
2.29636
2.19849
2.04514
1.68731
1.11104
0.226359
-0.870145
-1.74507
-1.68629
0
3.59638
8.73621
14.4227
19.3341
22.3051
22.7619
20.8946
17.4834
13.5023
9.74386
6.65146
4.36651
2.85526
1.99573
1.78907
1.6649
1.5541
1.45822
1.37761
1.3116
1.25858
1.21641
1.18286
1.15607
1.13473
1.11814
1.10606
1.09848
1.09522
1.09577
1.09936
1.10527
1.11323
1.12381
1.13856
1.15997
1.191
1.23432
1.29166
1.36337
1.44821
1.54329
1.6447
1.74833
1.85061
1.94926
2.0438
2.13585
2.22925
2.32977
2.4447
2.58225
2.75064
2.95721
3.20735
3.50371
3.84529
4.22775
4.64391
5.0842
5.53747
5.99204
6.43348
6.84335
7.20298
7.49923
7.7244
7.87446
7.94884
7.94998
7.88271
7.75304
7.56678
7.32813
7.04106
6.71073
6.34475
5.95224
5.54196
5.12277
4.70533
4.30122
3.9215
3.57505
3.26758
3.00112
2.77437
2.58358
2.42369
2.28951
2.17656
2.08154
2.00239
1.93811
1.88828
1.85253
1.83012
1.81963
1.81901
1.82564
1.83611
1.84669
1.85441
1.85753
1.85582
1.85034
1.84286
1.83511
1.82815
1.82194
1.81565
1.80838
1.79998
1.79165
1.78593
1.78605
1.79487
1.81353
1.8412
1.8755
1.91251
1.94799
1.97845
2.00202
2.01872
2.03028
2.03949
2.0494
2.06244
2.08001
2.10264
2.13005
2.16093
2.19314
2.22413
2.25144
2.2732
2.2886
2.29824
2.30407
2.30912
2.31675
2.32979
2.35077
2.37946
2.41067
2.43667
2.44954
2.44371
2.41792
2.3758
2.32512
2.27573
2.23687
2.21306
2.20503
2.21342
2.23615
2.26761
2.30066
2.32892
2.34833
2.35812
2.36071
2.36068
2.363
2.37124
2.38703
2.40772
2.42842
2.44426
2.45266
2.45439
2.45305
2.45315
2.45786
2.46726
2.47866
2.48849
2.49315
2.49026
2.47923
2.46119
2.43819
2.41222
2.38434
2.35431
2.32097
2.28303
2.23997
2.19282
2.14456
2.09993
2.06449
2.04344
2.04043
2.05678
2.09124
2.14022
2.19845
2.25972
2.31769
2.36642
2.40078
2.4159
2.40951
2.38177
2.3358
2.27807
2.21813
2.16829
2.14143
2.1488
2.20267
2.32244
2.51713
2.76499
3.01283
3.20915
3.31687
3.31721
3.21198
3.02432
2.79433
2.568
2.38316
2.24913
2.15398
2.08761
2.04698
2.03594
2.06943
2.16434
2.30608
2.4687
2.62039
2.66743
1.92575
0.733273
-0.511024
-1.34233
-1.49009
0
3.1751
7.88205
13.4475
18.7655
22.6294
24.1728
23.1921
20.1757
16.0427
11.7702
8.10149
5.42375
3.79305
3.0176
2.77918
2.56473
2.35656
2.15937
1.97717
1.8131
1.66966
1.54705
1.44438
1.36044
1.29514
1.24929
1.22449
1.22308
1.24719
1.29771
1.3734
1.47064
1.58542
1.71157
1.83427
1.93524
1.99865
2.01528
1.98648
1.92555
1.85503
1.80054
1.78337
1.80862
1.86514
1.945
2.04374
2.15725
2.28163
2.41414
2.55375
2.7013
2.8592
3.0308
3.21967
3.42901
3.66126
3.91777
4.19962
4.50798
4.84416
5.20964
5.61832
6.14237
6.88738
7.71867
8.43673
8.89776
9.06143
8.98689
8.77916
8.51747
8.20959
7.80204
7.30026
6.75533
6.20563
5.67606
5.17794
4.71098
4.27465
3.87105
3.50037
3.16163
2.85367
2.576
2.32966
2.1163
1.93796
1.7974
1.69761
1.63766
1.61103
1.60716
1.61398
1.62069
1.61992
1.60894
1.58991
1.56876
1.55331
1.55064
1.56986
1.61142
1.66109
1.69914
1.70847
1.68155
1.62282
1.5457
1.46636
1.39791
1.34397
1.30234
1.27318
1.2566
1.25246
1.26046
1.28001
1.30954
1.34769
1.39274
1.44304
1.49667
1.55199
1.60808
1.66492
1.72321
1.78379
1.84733
1.91114
1.96728
2.00459
2.01255
1.98595
1.92816
1.85141
1.77365
1.71308
1.68147
1.67683
1.69195
1.72124
1.7584
1.79708
1.83218
1.86044
1.88059
1.89313
1.89976
1.90287
1.90493
1.90818
1.91448
1.92527
1.94158
1.96401
1.99261
2.02683
2.06541
2.10638
2.14713
2.18452
2.21548
2.23753
2.24915
2.25006
2.24109
2.22394
2.2007
2.17335
2.14334
2.11147
2.07782
2.04199
2.00343
1.9619
1.91789
1.8731
1.83074
1.79564
1.77504
1.79207
1.92446
2.2441
2.65896
3.01439
3.16984
3.06715
2.75522
2.36314
2.04074
1.89473
1.88642
1.92821
1.98847
2.05637
2.12561
2.19179
2.25251
2.3071
2.35593
2.39953
2.43776
2.46947
2.49282
2.50562
2.50641
2.49544
2.4752
2.45025
2.42649
2.4101
2.40644
2.41833
2.4475
2.49578
2.56493
2.66026
2.78921
2.9494
3.11846
3.26561
3.36001
3.37891
3.31313
3.16844
2.96359
2.72652
2.48981
2.28082
2.11182
2.00902
2.06986
2.33255
2.68533
2.98516
3.12121
3.06442
2.11687
0.738175
-0.624935
-1.47507
-1.54768
0
3.05346
7.38361
12.4227
17.3122
21.0601
22.821
22.2089
19.4782
15.4414
11.1384
7.43239
4.75269
3.08837
2.17673
1.90396
1.87364
1.85911
1.8597
1.87149
1.88716
1.8986
1.89886
1.88397
1.85415
1.81393
1.77118
1.7352
1.71424
1.71192
1.72803
1.76066
1.80652
1.86026
1.91628
1.96995
2.01853
2.06163
2.10101
2.13994
2.18235
2.2319
2.29136
2.36282
2.44794
2.54819
2.66509
2.80034
2.95569
3.1327
3.33235
3.55465
3.7985
4.06162
4.34091
4.63277
4.93367
5.24059
5.55136
5.86469
6.18001
6.497
6.81507
7.13278
7.4473
7.75335
8.04235
8.30267
8.52121
8.68693
8.79041
8.8243
8.78354
8.66569
8.47115
8.20376
7.87122
7.48543
7.06501
6.62889
6.19133
5.7626
5.35097
4.96227
4.59984
4.26495
3.95755
3.67706
3.42299
3.19538
2.99476
2.8219
2.67816
2.56603
2.48538
2.43484
2.41158
2.412
2.43087
2.46038
2.49261
2.52081
2.54045
2.5498
2.54978
2.54344
2.53526
2.53018
2.53273
2.54748
2.57837
2.62809
2.70002
2.79762
2.91536
3.03411
3.13218
3.19197
3.2057
3.17777
3.12271
3.05956
3.00525
2.96863
2.94638
2.93332
2.9258
2.92001
2.91298
2.90339
2.89185
2.88091
2.87451
2.8772
2.89315
2.92533
2.97501
3.04036
3.11712
3.19762
3.26732
3.30912
3.3074
3.252
3.14244
2.9905
2.81924
2.65787
2.53374
2.46358
2.43621
2.4489
2.49419
2.56202
2.64112
2.72009
2.78414
2.81936
2.81506
2.76736
2.68241
2.5769
2.47481
2.40097
2.37389
2.389
2.4419
2.52476
2.62628
2.73318
2.82635
2.88794
2.90481
2.87077
2.78954
2.67655
2.55749
2.46233
2.41606
2.42986
2.49929
2.59933
2.69695
2.76323
2.78281
2.75712
2.70114
2.63623
2.58247
2.54767
2.5303
2.52831
2.53916
2.5548
2.56315
2.55295
2.51733
2.45691
2.37991
2.30556
2.25755
2.25753
2.31858
2.46611
2.67825
2.90615
3.09855
3.21857
3.25317
3.21331
3.12717
3.0298
2.9527
2.90869
2.8946
2.9031
2.92735
2.96128
2.99847
3.03328
3.06155
3.08133
3.09271
3.09748
3.09822
3.09743
3.09651
3.095
3.09
3.07678
3.05012
3.00592
2.94247
2.85892
2.72186
2.41287
1.77499
0.703644
-0.612079
-1.62803
-1.63062
0
3.45888
8.42252
14.0901
19.3829
23.2219
24.824
23.9401
20.9379
16.6704
12.1616
8.2506
5.36604
3.51987
2.4715
2.08477
1.99747
1.92038
1.85171
1.79048
1.73689
1.69249
1.65973
1.64125
1.63934
1.6566
1.69157
1.73634
1.78033
1.81309
1.8272
1.82022
1.79529
1.76013
1.72488
1.69944
1.68955
1.69615
1.71785
1.75286
1.79629
1.84302
1.88945
1.93471
1.98112
2.03381
2.09949
2.18493
2.29558
2.43237
2.59436
2.7807
2.99014
3.22114
3.47227
3.74244
4.03069
4.33589
4.65628
4.9892
5.33098
5.67722
6.02343
6.36578
6.70151
7.0283
7.34342
7.64669
7.93612
8.18644
8.35146
8.38587
8.26865
8.01445
7.66767
7.28208
6.89637
6.51844
6.14291
5.76766
5.39307
5.02147
4.6572
4.30588
3.97353
3.66535
3.38506
3.13481
2.91545
2.72825
2.57424
2.4531
2.364
2.305
2.27603
2.27042
2.27922
2.29323
2.30465
2.30836
2.30203
2.28556
2.25999
2.22663
2.18738
2.14352
2.09675
2.04922
2.00325
1.96092
1.92336
1.89018
1.86011
1.83198
1.80556
1.7819
1.7629
1.75051
1.74593
1.74899
1.75926
1.77626
1.7998
1.82981
1.86571
1.90609
1.94696
1.98287
2.00839
2.01972
2.0159
1.99911
1.97386
1.94585
1.92051
1.90124
1.8906
1.89019
1.90039
1.92043
1.94785
1.97885
2.00868
2.03199
2.04302
2.03725
2.01201
1.96721
1.90593
1.83341
1.75969
1.69751
1.65848
1.65009
1.67353
1.72339
1.7892
1.85859
1.9207
1.96863
2.00019
2.01665
2.02052
2.01327
1.99537
1.96507
1.9205
1.86171
1.79217
1.71887
1.65496
1.6152
1.61191
1.65519
1.75357
1.88519
2.01862
2.12379
2.18126
2.18624
2.14651
2.07696
1.99436
1.91408
1.84454
1.79204
1.76429
1.77558
1.843
1.97413
2.14876
2.31802
2.43105
2.44676
2.3437
2.12918
1.84509
1.56349
1.36758
1.31861
1.387
1.5789
1.87902
2.20741
2.48576
2.65893
2.70406
2.62984
2.47057
2.27802
2.11077
2.0188
2.00603
2.04762
2.12244
2.21836
2.31713
2.40156
2.45958
2.48674
2.48668
2.4692
2.44685
2.43106
2.42774
2.4364
2.45535
2.48057
2.50339
2.51292
2.49973
2.4586
2.39076
2.30443
2.21329
2.1328
2.07622
2.05271
2.05717
2.07406
2.08183
1.94391
1.18151
0.116335
-0.94262
-1.71556
-1.60952
0
3.40992
8.49233
14.4581
20.0156
23.8429
25.111
23.7539
20.3812
15.961
11.4745
7.66321
4.89595
3.15305
2.14349
1.66516
1.48755
1.33031
1.19735
1.09038
1.00878
0.950014
0.9102
0.884891
0.869856
0.861674
0.857926
0.857425
0.860052
0.866352
0.87696
0.892353
0.911981
0.932455
0.94891
0.956994
0.955087
0.94596
0.937036
0.938974
0.96292
1.01734
1.10077
1.20741
1.33495
1.47528
1.61482
1.74123
1.84679
1.93094
2.00119
2.07203
2.16206
2.28983
2.46928
2.70017
2.97625
3.29071
3.63653
4.0064
4.39381
4.79411
5.20499
5.62948
6.08952
6.6817
7.46532
8.27724
8.97445
9.43187
9.56235
9.35922
8.90207
8.30808
7.66882
7.04738
6.53995
6.13852
5.77916
5.43687
5.10291
4.77371
4.44701
4.12189
3.79893
3.48026
3.16941
2.87118
2.59288
2.34598
2.13883
1.97822
1.86754
1.80884
1.79448
1.81192
1.84634
1.88374
1.9135
1.9298
1.93172
1.92241
1.90785
1.89428
1.88679
1.88873
1.90249
1.92605
1.95244
1.97303
1.98031
1.97036
1.944
1.90624
1.86447
1.82597
1.79517
1.77276
1.75808
1.75017
1.74746
1.74834
1.75156
1.75649
1.76326
1.77267
1.78611
1.80532
1.83205
1.86773
1.91306
1.9676
2.03004
2.0974
2.16539
2.22938
2.28522
2.32985
2.36152
2.37974
2.38493
2.3784
2.36216
2.33898
2.31239
2.28637
2.26469
2.25012
2.24396
2.2451
2.2506
2.25657
2.25929
2.25605
2.24552
2.22757
2.20274
2.17179
2.13573
2.09545
2.05209
2.00756
1.96509
1.92878
1.90301
1.89152
1.89673
1.91927
1.95798
2.01016
2.07213
2.13947
2.20791
2.27299
2.33053
2.37746
2.4122
2.43505
2.44804
2.4543
2.45708
2.45866
2.4597
2.45945
2.45647
2.44976
2.43972
2.4285
2.41971
2.41753
2.42516
2.44323
2.47193
2.50921
2.54936
2.58589
2.6133
2.62859
2.63195
2.62639
2.61661
2.60763
2.60349
2.60602
2.61631
2.63521
2.66318
2.70024
2.74571
2.79812
2.85493
2.91202
2.96492
3.00982
3.0445
3.06891
3.08499
3.0959
3.10478
3.11348
3.1217
3.12663
3.12354
3.10729
3.07399
3.02251
2.95526
2.87787
2.79805
2.72369
2.66039
2.60963
2.57119
2.54055
2.51012
2.46777
2.34869
1.91161
1.21642
0.430263
-0.310468
0
1.65522
4.74111
8.98745
13.7765
18.2281
21.3764
22.4512
21.1819
17.9543
13.6937
9.50147
6.23278
4.23655
3.35422
3.12714
2.90333
2.69732
2.50609
2.33612
2.19393
2.0858
2.01141
1.96477
1.93704
1.91873
1.90207
1.88277
1.86097
1.84114
1.83101
1.8397
1.89935
2.0705
2.31632
2.54992
2.66638
2.59423
2.33767
1.98292
1.6634
1.50258
1.54664
1.67908
1.85528
2.06308
2.27754
2.47316
2.63248
2.75028
2.8352
2.90772
2.99498
3.12367
3.31321
3.56038
3.85117
4.17611
4.52771
4.89818
5.28043
5.66904
6.06058
6.45335
6.84679
7.23996
7.62442
7.97599
8.25832
8.43592
8.48965
8.42562
8.27182
8.06381
7.82742
7.568
7.28404
6.97531
6.63971
6.2742
5.87792
5.45355
5.00765
4.55006
4.09322
3.65106
3.2376
2.86691
2.56383
2.37953
2.34214
2.39558
2.46394
2.47779
2.39843
2.23002
2.0149
1.81438
1.68363
1.63418
1.63649
1.68966
1.77447
1.86093
1.9214
1.93731
1.90381
1.8312
1.74228
1.66565
1.62635
1.63365
1.67568
1.73765
1.80849
1.87705
1.93475
1.97722
2.00446
2.01971
2.02749
2.03183
2.03534
2.03924
2.04445
2.05279
2.06775
2.0946
2.14411
2.24528
2.41589
2.61809
2.78828
2.86486
2.81631
2.653
2.4181
2.16712
1.95089
1.79306
1.68461
1.6214
1.60913
1.6509
1.77003
1.97461
2.22263
2.45458
2.61746
2.67917
2.63573
2.51002
2.34334
2.18226
2.06444
1.99574
1.96085
1.94641
1.94567
1.95247
1.96183
1.97115
1.98061
1.99294
2.01237
2.04344
2.09344
2.16419
2.24025
2.29857
2.31675
2.28219
2.19824
2.08434
1.97004
1.88519
1.84871
1.85188
1.88222
1.93386
1.99855
2.06606
2.12581
2.17
2.19473
2.20021
2.19012
2.17019
2.14628
2.1227
2.10137
2.08236
2.06562
2.05309
2.05007
2.06479
2.11246
2.22635
2.39029
2.5594
2.67856
2.70796
2.6411
2.5059
2.35029
2.22158
2.15087
2.1233
2.12341
2.14478
2.18409
2.23786
2.30226
2.37331
2.4464
2.51644
2.57869
2.6293
2.66577
2.68712
2.69362
2.68625
2.66599
2.63357
2.58947
2.53353
2.46596
2.38813
2.30321
2.21639
2.13451
2.0653
2.01872
2.00905
2.04571
2.11976
2.21378
2.30643
2.31084
1.61724
0.455175
-0.850783
-1.88451
-1.76964
0
3.5959
8.64856
14.2661
19.2586
22.5084
23.3407
21.7378
18.2987
13.9757
9.72436
6.22478
3.76987
2.32271
1.65927
1.60314
1.53196
1.45211
1.35827
1.24884
1.12713
1.00124
0.882852
0.784841
0.719487
0.711269
0.781187
0.905951
1.04122
1.14259
1.18117
1.1527
1.0774
0.991079
0.930989
0.921739
0.954103
1.01064
1.07839
1.14271
1.19121
1.21682
1.21943
1.20585
1.18821
1.18149
1.20086
1.25557
1.34847
1.48017
1.65098
1.85925
2.10075
2.36927
2.65743
2.9577
3.26339
3.56933
3.87229
4.17093
4.46549
4.75737
5.04867
5.34173
5.63889
5.94273
6.25712
6.58773
6.93543
7.2769
7.56993
7.76774
7.83276
7.74825
7.52117
7.17481
6.73803
6.24088
5.72402
5.21742
4.73356
4.27881
3.85944
3.48197
3.14986
2.86399
2.62272
2.42018
2.24925
2.10316
1.97687
1.86793
1.77655
1.70468
1.6605
1.65607
1.68502
1.72636
1.75421
1.74728
1.69659
1.60779
1.49756
1.38679
1.29443
1.22653
1.18206
1.16255
1.17741
1.25
1.40662
1.61748
1.82305
1.95843
1.97861
1.87723
1.68956
1.47868
1.31113
1.23239
1.22059
1.24429
1.2879
1.34436
1.40758
1.4729
1.53721
1.59869
1.65604
1.70813
1.75344
1.78993
1.81517
1.82667
1.82226
1.80059
1.76173
1.70764
1.64272
1.57393
1.51038
1.46241
1.44024
1.46605
1.5752
1.78184
2.03749
2.27435
2.43369
2.48084
2.41061
2.246
2.03306
1.83191
1.70143
1.65807
1.67774
1.73257
1.807
1.88624
1.95623
2.00616
2.02997
2.02661
1.99921
1.95362
1.89706
1.83754
1.78142
1.73444
1.70154
1.68632
1.69197
1.72133
1.76986
1.82649
1.87924
1.91904
1.94289
1.95479
1.96422
1.98245
2.01812
2.07247
2.14379
2.2211
2.29104
2.34295
2.3726
2.383
2.38189
2.37733
2.37336
2.36812
2.35558
2.3289
2.28458
2.22545
2.16121
2.1061
2.07464
2.0748
2.10331
2.15597
2.22636
2.30549
2.38413
2.45483
2.51323
2.55849
2.59286
2.62071
2.64731
2.6774
2.71441
2.76055
2.81666
2.88224
2.95479
3.0291
3.09797
3.15386
3.19027
3.20299
3.1911
3.1572
3.10711
3.04883
2.99106
2.94127
2.90387
2.87995
2.86952
2.86931
2.87293
2.87288
2.86181
2.83371
2.76006
2.47485
1.816
0.940475
-0.0109774
-0.768557
-0.980863
0
2.50489
6.55741
11.6938
17.009
21.3829
23.8276
23.8249
21.5083
17.5925
13.0807
8.90134
5.65181
3.53297
2.43894
2.13692
2.05672
1.97849
1.90127
1.82529
1.7521
1.68419
1.62439
1.57503
1.53746
1.51179
1.49705
1.49167
1.49401
1.50285
1.51775
1.53899
1.56725
1.60318
1.64783
1.70027
1.75426
1.80227
1.8386
1.86243
1.87907
1.89867
1.93241
1.98811
2.06733
2.16131
2.26386
2.3704
2.47889
2.59097
2.71192
2.84949
3.01214
3.206
3.43336
3.69516
3.99059
4.31655
4.66799
5.03859
5.42146
5.80989
6.19807
6.58169
6.95808
7.32568
7.68367
8.03333
8.38236
8.72998
9.04144
9.25845
9.32301
9.20244
8.90327
8.46686
7.95079
7.40943
6.88142
6.37552
5.88929
5.42253
4.9791
4.56334
4.17948
3.83159
3.52327
3.25722
3.03703
2.87033
2.7608
2.69353
2.64954
2.61008
2.56109
2.49634
2.41785
2.33381
2.25494
2.19096
2.14468
2.11589
2.10654
2.11812
2.15257
2.21876
2.3341
2.5004
2.67875
2.81443
2.85549
2.77414
2.58089
2.32453
2.0776
1.91154
1.85218
1.8613
1.91739
2.00758
2.11586
2.22632
2.32653
2.41062
2.47512
2.5199
2.54734
2.56139
2.56676
2.56765
2.56728
2.56784
2.57045
2.57525
2.58166
2.5887
2.59527
2.60038
2.60338
2.60401
2.60228
2.59825
2.5917
2.58173
2.56639
2.54375
2.51247
2.473
2.42853
2.38504
2.35016
2.33108
2.33986
2.37501
2.42404
2.4703
2.50047
2.51056
2.50723
2.5041
2.51501
2.54747
2.59595
2.65283
2.70711
2.7478
2.76708
2.76237
2.7371
2.70003
2.66329
2.63921
2.63943
2.68289
2.75587
2.82936
2.87176
2.86446
2.81171
2.73885
2.67888
2.65481
2.66693
2.69328
2.71027
2.69841
2.65095
2.57687
2.49779
2.4409
2.43783
2.58136
2.87033
3.19736
3.42629
3.44976
3.24037
2.86867
2.4728
2.19378
2.11261
2.14004
2.20893
2.30164
2.41235
2.53619
2.66876
2.80688
2.94701
3.08365
3.20983
3.31768
3.39944
3.44872
3.4616
3.43748
3.37944
3.29406
3.19079
3.08054
2.97312
2.87631
2.79449
2.72879
2.67731
2.63607
2.60027
2.56529
2.52722
2.48273
2.4288
2.36234
2.26297
2.02078
1.46658
0.729729
0.0136137
-0.535686
0
1.95262
5.48969
10.2874
15.5063
19.9984
22.6895
22.9671
20.8968
17.1648
12.7852
8.72151
5.59167
3.56598
2.46019
1.99831
1.90039
1.80702
1.71682
1.62877
1.54268
1.45947
1.3814
1.31197
1.25539
1.21583
1.19644
1.19945
1.22514
1.27105
1.33031
1.39115
1.44086
1.46958
1.4728
1.45294
1.41945
1.38691
1.37171
1.3877
1.44001
1.52304
1.6281
1.74762
1.87345
1.9981
2.11626
2.22576
2.32783
2.42664
2.52835
2.6398
2.76722
2.9154
3.08744
3.28498
3.50884
3.75996
4.03984
4.35083
4.6957
5.07689
5.49774
5.97843
6.54181
7.1622
7.75011
8.22399
8.54548
8.7092
8.72299
8.59527
8.33548
7.96333
7.51747
7.0545
6.62536
6.23793
5.8764
5.52808
5.1865
4.84726
4.50736
4.16627
3.82656
3.49371
3.1753
2.87962
2.61402
2.38344
2.18952
2.03081
1.90314
1.79897
1.71013
1.62978
1.55382
1.48158
1.41561
1.36055
1.32146
1.30199
1.3031
1.32333
1.35691
1.39562
1.43085
1.45552
1.46527
1.45903
1.43881
1.40891
1.37485
1.34224
1.31569
1.29825
1.29165
1.29666
1.31333
1.34106
1.37859
1.42412
1.47538
1.52974
1.58388
1.63434
1.67801
1.71257
1.7367
1.75012
1.75337
1.74763
1.7346
1.7164
1.69559
1.67495
1.65716
1.64427
1.63742
1.63616
1.63888
1.64353
1.64838
1.65259
1.65624
1.66
1.66462
1.67039
1.67717
1.6845
1.69177
1.69834
1.70368
1.70742
1.7094
1.70969
1.70852
1.70624
1.70308
1.69899
1.69373
1.68716
1.67983
1.67354
1.67158
1.67825
1.69788
1.7336
1.78976
1.86168
1.93481
1.99148
2.0163
2.00053
1.94394
1.85365
1.74118
1.61939
1.50031
1.39134
1.30086
1.23575
1.20101
1.19859
1.22637
1.27915
1.34614
1.41475
1.47316
1.5128
1.52972
1.52491
1.50341
1.47295
1.44235
1.41911
1.40887
1.41569
1.44191
1.48875
1.55667
1.64416
1.74577
1.8498
1.94112
2.00593
2.03512
2.02703
1.98867
1.93461
1.88358
1.85348
1.85626
1.88979
1.94497
2.01426
2.09021
2.16365
2.22476
2.26532
2.27948
2.26436
2.22046
2.15163
2.06468
1.96842
1.87223
1.78416
1.70871
1.64736
1.60007
1.56342
1.5319
1.49892
1.45747
1.38783
1.17592
0.608467
-0.192451
-1.06283
-1.76547
-1.61088
0
3.31811
8.12135
13.6536
18.8026
22.4227
23.6924
22.3903
18.9839
14.4724
10.0188
6.51624
4.30161
3.15648
2.57321
2.20564
1.93316
1.68198
1.45955
1.27129
1.11334
0.978359
0.858488
0.748736
0.65148
0.575438
0.534695
0.543015
0.607732
0.742477
0.926376
1.11985
1.28208
1.38327
1.41168
1.37411
1.29135
1.19123
1.10167
1.04073
1.01332
1.01806
1.05205
1.11307
1.19969
1.3097
1.43949
1.57934
1.70927
1.80773
1.85879
1.86034
1.83072
1.80897
1.84585
1.9878
2.26061
2.63113
3.05627
3.51817
4.00543
4.50855
5.02246
5.55023
6.11197
6.7376
7.3616
7.87414
8.18645
8.26293
8.12198
7.82164
7.4425
7.0666
6.7448
6.44762
6.14306
5.8232
5.48735
5.13604
4.77177
4.39979
4.02736
3.66259
3.31324
2.98593
2.68573
2.41629
2.18001
1.97824
1.81197
1.68316
1.5928
1.53639
1.50357
1.48288
1.46421
1.44088
1.41086
1.37652
1.34315
1.31687
1.30218
1.29995
1.30881
1.32679
1.35115
1.37845
1.40417
1.42375
1.43351
1.4313
1.41692
1.39215
1.36017
1.32456
1.28828
1.25276
1.21776
1.18212
1.14434
1.1035
1.05996
1.01568
0.974248
0.940222
0.918162
0.911635
0.922511
0.950715
0.994471
1.05088
1.11654
1.18796
1.26187
1.33473
1.40198
1.45908
1.50248
1.53092
1.54656
1.55492
1.56342
1.5789
1.60579
1.64323
1.68125
1.70636
1.70744
1.68113
1.63414
1.58146
1.54072
1.52532
1.54337
1.58369
1.62494
1.64599
1.63668
1.60375
1.56914
1.56108
1.60217
1.69538
1.82738
1.98059
2.13011
2.25172
2.32716
2.34713
2.31206
2.23112
2.1202
1.99902
1.88763
1.80087
1.74396
1.71428
1.7151
1.73985
1.77617
1.81203
1.83934
1.85604
1.86562
1.87453
1.88856
1.90989
1.93528
1.96016
1.97935
1.98834
1.9845
1.96775
1.94054
1.90756
1.87478
1.84786
1.83179
1.82998
1.84353
1.87076
1.90818
1.95037
1.99135
2.02586
2.05031
2.0635
2.06668
2.06334
2.05846
2.05773
2.06646
2.08856
2.12617
2.17953
2.24703
2.32583
2.4106
2.49428
2.56987
2.63138
2.67463
2.6975
2.69996
2.68378
2.65236
2.61108
2.56554
2.52371
2.49425
2.48481
2.50037
2.54177
2.60517
2.68276
2.76401
2.83824
2.89688
2.93508
2.95209
2.95045
2.93435
2.90755
2.87187
2.82674
2.76934
2.69648
2.60666
2.50192
2.38888
2.27844
2.18534
2.14823
2.24462
2.45891
2.69499
2.83095
2.76624
2.45688
1.81762
0.993548
0.144644
-0.659833
0
2.11112
5.70292
10.4125
15.4654
19.7907
22.3049
22.3058
19.8007
15.5758
10.9093
7.03921
4.66153
3.72389
3.61953
3.33308
2.96644
2.60837
2.2827
2.01143
1.81073
1.68756
1.63803
1.64832
1.69794
1.76445
1.82835
1.8781
1.90816
1.91868
1.91372
1.89922
1.88119
1.86439
1.85196
1.84661
1.85069
1.86636
1.89535
1.93871
1.99627
2.0665
2.14727
2.2359
2.32933
2.42532
2.52308
2.62356
2.72928
2.84386
2.9713
3.1154
3.27918
3.46413
3.67144
3.90194
4.1558
4.43245
4.73051
5.0479
5.38207
5.73036
6.09036
6.46004
6.83754
7.22198
7.6099
7.98702
8.32965
8.6107
8.80686
8.90394
8.89786
8.79154
8.59081
8.30215
7.93491
7.513
7.06076
6.59786
6.13935
5.69589
5.27479
4.88139
4.51826
4.18581
3.88334
3.61019
3.36649
3.15335
2.97246
2.82567
2.71481
2.64076
2.60026
2.58325
2.57659
2.56729
2.54487
2.50315
2.44111
2.36267
2.27546
2.18904
2.11217
2.05023
2.00562
1.9808
1.97509
1.98504
2.00645
2.0355
2.06955
2.10723
2.1479
2.19093
2.23507
2.27835
2.31853
2.35382
2.38355
2.40857
2.431
2.45359
2.47885
2.50804
2.541
2.57655
2.61258
2.64648
2.67559
2.69762
2.71089
2.71441
2.70795
2.69198
2.66761
2.63659
2.60119
2.56419
2.52869
2.49796
2.47516
2.46308
2.4638
2.4784
2.50682
2.54772
2.59849
2.65453
2.70739
2.74672
2.7629
2.74954
2.70554
2.63607
2.55195
2.46731
2.39636
2.34937
2.32691
2.32982
2.35574
2.39975
2.45541
2.51566
2.57466
2.62753
2.67069
2.70182
2.71971
2.72399
2.71514
2.69443
2.66399
2.62679
2.58662
2.54769
2.51418
2.48968
2.47658
2.47618
2.48853
2.5126
2.54644
2.58754
2.633
2.67958
2.72389
2.76239
2.79122
2.80617
2.80457
2.78524
2.74918
2.70008
2.64399
2.58954
2.54602
2.52163
2.52178
2.54813
2.59842
2.66694
2.74568
2.8256
2.89645
2.94965
2.97978
2.9857
2.97098
2.94326
2.91247
2.88834
2.87788
2.88235
2.89842
2.92273
2.95142
2.9806
3.00715
3.02918
3.04624
3.0592
3.06992
3.08085
3.09445
3.11263
3.13646
3.16545
3.19687
3.22585
3.24634
3.25243
3.23957
3.20568
3.15176
3.08196
3.00307
2.9236
2.85241
2.80479
2.83642
3.11696
3.68827
4.35679
4.92845
5.21469
5.08945
4.5481
3.73307
2.90876
2.41287
2.43773
2.60281
2.78082
2.94528
3.07604
3.16137
3.19934
3.19632
3.16323
3.11115
3.04819
2.97897
2.89785
2.73905
2.22546
1.39629
0.387736
-0.502937
-0.841628
0
2.4234
6.49573
11.7626
17.2671
21.7939
24.2863
24.2562
21.967
18.2705
14.1911
10.5047
7.54203
5.27679
3.56696
2.36062
2.26118
2.16828
2.08226
2.00293
1.92951
1.8623
1.80393
1.7595
1.73516
1.73588
1.76208
1.80941
1.87184
1.94084
2.00701
2.06167
2.09831
2.11341
2.10677
2.08133
2.04254
1.99759
1.95434
1.92021
1.90055
1.89885
1.91738
1.95651
2.01489
2.08975
2.17737
2.27379
2.37557
2.47974
2.58515
2.69305
2.80716
2.93339
3.07904
3.2518
3.45863
3.70401
3.98757
4.30837
4.66351
5.04695
5.44953
5.85944
6.26313
6.64664
6.99696
7.30267
7.55474
7.74859
7.88288
7.95813
7.97543
7.93559
7.83863
7.68403
7.47144
7.20177
6.87968
6.51261
6.11033
5.68507
5.25098
4.82277
4.41437
4.03757
3.70102
3.40965
3.16464
2.96431
2.80541
2.68196
2.58588
2.50983
2.44818
2.39749
2.35632
2.32442
2.30355
2.29306
2.28974
2.28916
2.28701
2.28041
2.26833
2.25108
2.22944
2.20423
2.17687
2.14991
2.12794
2.11745
2.12968
2.18732
2.28149
2.37048
2.39778
2.31737
2.11755
1.83062
1.52375
1.27622
1.15452
1.44175
2.03549
2.67725
3.1116
3.19471
2.94485
2.51638
2.11554
1.90161
1.91508
1.98883
2.07033
2.14451
2.20158
2.23764
2.25443
2.25764
2.25479
2.25307
2.25714
2.26885
2.28884
2.3165
2.35032
2.38686
2.42024
2.44396
2.45271
2.44407
2.41965
2.38521
2.3493
2.32098
2.30739
2.31012
2.32669
2.3546
2.39022
2.42948
2.4686
2.50424
2.53334
2.55397
2.56514
2.56696
2.56094
2.54989
2.53742
2.52701
2.52104
2.52026
2.52169
2.52072
2.5133
2.49826
2.47823
2.45888
2.44658
2.44569
2.45628
2.47485
2.49563
2.51327
2.52527
2.53326
2.54249
2.55977
2.59069
2.63589
2.69464
2.75949
2.81947
2.86391
2.88567
2.88326
2.861
2.82754
2.79312
2.76671
2.75248
2.75013
2.75778
2.773
2.79245
2.81233
2.82847
2.83753
2.83772
2.82947
2.81578
2.80203
2.79516
2.80214
2.82819
2.87521
2.94251
3.02419
3.10981
3.18881
3.25346
3.30077
3.33263
3.35436
3.37216
3.39055
3.41037
3.42903
3.44088
3.43787
3.41235
3.35881
3.27565
3.16632
3.03956
2.9084
2.788
2.6928
2.64043
2.64974
2.71671
2.81215
2.90045
2.9505
2.9433
2.87448
2.7024
2.09024
1.10986
-0.0368486
-0.965791
-1.29497
0
3.16978
8.0611
13.88
19.356
23.1499
24.3413
22.7761
19.1062
14.5022
10.1791
6.95688
5.04813
4.14264
3.7103
3.40695
3.15095
2.9151
2.70679
2.53162
2.39302
2.29197
2.22773
2.20013
2.20841
2.24302
2.28415
2.31166
2.30955
2.2703
2.19757
2.10592
2.0172
1.95449
1.93408
1.9555
2.02428
2.12985
2.25123
2.36483
2.45095
2.49852
2.5075
2.48907
2.46359
2.45601
2.48938
2.57792
2.71943
2.89549
3.08995
3.29111
3.4911
3.68849
3.88895
4.104
4.34813
4.63529
4.97139
5.35647
5.78948
6.28726
6.89358
7.59335
8.26123
8.77838
9.05539
9.0591
8.83381
8.49801
8.20739
8.09448
8.21396
8.51209
8.84353
9.03103
8.93628
8.51398
7.82833
7.02775
6.28851
5.74705
5.31175
4.9236
4.57669
4.26879
3.99663
3.75699
3.54572
3.35786
3.18893
3.03551
2.89569
2.76923
2.65721
2.56143
2.48364
2.42514
2.38545
2.3629
2.355
2.35894
2.37181
2.39111
2.41386
2.43608
2.45377
2.46361
2.4637
2.45386
2.43544
2.41067
2.38201
2.35198
2.32306
2.2982
2.28111
2.27598
2.28664
2.31539
2.3651
2.43205
2.50683
2.57798
2.63507
2.67154
2.68633
2.68396
2.67301
2.66357
2.66378
2.67838
2.70983
2.75059
2.78798
2.80844
2.802
2.76559
2.70417
2.62934
2.55602
2.49846
2.46295
2.44879
2.4551
2.47941
2.51406
2.54753
2.56927
2.57259
2.55661
2.52675
2.49337
2.46872
2.46317
2.48126
2.51817
2.56843
2.62381
2.6753
2.71522
2.73869
2.74437
2.73429
2.71299
2.68633
2.66007
2.63823
2.62285
2.61453
2.61149
2.60933
2.60289
2.58806
2.56351
2.53162
2.49836
2.472
2.46086
2.47409
2.51823
2.58586
2.66068
2.72335
2.75706
2.75181
2.70631
2.62767
2.52919
2.42747
2.33807
2.27121
2.23185
2.22074
2.23628
2.27977
2.35415
2.45453
2.55926
2.64435
2.68987
2.68632
2.6385
2.56447
2.4898
2.43915
2.42778
2.44853
2.49241
2.5545
2.63054
2.71599
2.80657
2.89835
2.98708
3.06802
3.13663
3.18867
3.22098
3.23233
3.22415
3.20056
3.16769
3.13224
3.0997
3.07309
3.05168
3.03055
3.00285
2.96238
2.90613
2.83566
2.75702
2.6793
2.61253
2.56307
2.53311
2.52464
2.53924
2.57517
2.62667
2.68598
2.74233
2.5331
1.7385
0.5319
-0.620176
-1.13678
0
3.09507
7.91643
13.6054
18.9316
22.6921
24.0949
22.9848
19.8473
15.6069
11.2995
7.74279
5.32181
3.96515
3.31127
2.99529
2.73773
2.49369
2.2707
2.07613
1.91499
1.78997
1.70159
1.65231
1.63598
1.64235
1.6608
1.68235
1.70102
1.71416
1.72185
1.72586
1.72866
1.73274
1.74042
1.75373
1.774
1.80297
1.83913
1.87819
1.91565
1.94961
1.98277
2.02258
2.07902
2.16108
2.27365
2.41079
2.56541
2.73339
2.91161
3.0981
3.29247
3.49594
3.71089
3.94032
4.18723
4.45407
4.74242
5.05271
5.38423
5.73508
6.10232
6.48207
6.86983
7.26067
7.64746
8.01913
8.35961
8.64951
8.87362
9.01777
9.06819
9.01278
8.84357
8.55956
8.16931
7.69223
7.15794
6.60622
6.066
5.5509
5.06994
4.63309
4.24719
3.91582
3.6393
3.41477
3.23713
3.09983
2.9957
2.91748
2.8585
2.81253
2.77383
2.73748
2.6996
2.6577
2.61095
2.56038
2.50889
2.46083
2.42147
192
429
672
917
1158
1405
1647
1890
2135
2374
2615
2879
3151
3405
3653
3019
3219
3404
3604
3223
3402
3575
3339
3485
3635
3706
0
0
0
0
0
0
0
0
0
0
0
0
0
0
0
0
0
0
0
0
0
0
0
0
0
0
0
0
0
0
0
0
0
0
0
0
0
0
0
0
0
0
0
0
0
0
0
0
0
0
0
0
0
0
0
0
0
0
0
0
0
0
0
0
0
0
0
0
0
0
0
0
0
0
0
0
0
0
0
0
0
0
0
0
0
0
0
0
0
0
0
0
0
0
0
0
0
0
0
0
0
0
0
0
0
0
0
0
0
0
0
0
0
0
0
0
0
0
0
0
0
0
0
0
0
0
0
0
0
0
0
0
0
0
0
0
0
0
0
0
0
0
0
0
0
0
0
0
0
0
0
0
0
0
0
0
0
0
0
0
0
0
0
0
0
0
0
0
0
0
0
0
0
0
0
0
0
0
0
0
0
0
0
0
0
0
0
0
0
0
0
0
0
0
0
0
0
0
0
0
0
0
0
0
0
0
0
0
0
0
0
0
0
0
0
0
0
0
0
0
0
0
0
0
0
0
0
0
0
0
0
0
0
0
0
0
0
0
0
0
0
0
0
0
0
0
0
0
0
0
0
0
0
0
0
0
0
0
0
0
0
0
0
0
0
0
0
0
0
0
0
0
0
0
0
0
0
0
0
0
0
0
0
0
0
0
0
0
0
0
0
0
0
0
0
0
0
0
0
0
0
0
0
0
0
0
0
0
0
0
0
0
0
0
0
0
0
0
0
0
0
0
0
0
0
0
0
0
0
0
0
0
0
0
0
0
0
0
0
0
0
0
0
0
0
0
0
0
0
0
0
0
0
0
0
0
0
0
0
0
0
0
0
0
0
0
0
0
0
0
0
0
0
0
0
0
0
0
0
0
0
0
0
0
0
0
0
0
0
0
0
0
0
0
0
0
0
0
0
0
0
0
0
0
0
0
0
0
0
0
0
0
0
0
0
0
0
0
0
0
0
0
0
0
0
0
0
0
0
0
0
0
0
0
0
0
0
0
0
0
0
0
0
0
0
0
0
0
0
0
0
0
0
0
0
0
0
0
0
0
0
0
0
0
0
0
0
0
0
0
0
0
0
0
0
0
0
0
0
0
0
0
0
0
0
0
0
0
0
0
0
0
0
0
0
0
0
0
0
0
0
0
0
0
0
0
0
0
0
0
0
0
0
0
0
0
0
0
0
0
0
0
0
0
0
0
0
0
0
0
0
0
0
0
0
0
0
0
0
0
0
0
0
0
0
0
0
0
0
0
0
0
0
0
0
0
0
0
0
0
0
0
0
0
0
0
0
0
0
0
0
0
0
0
0
0
0
0
0
0
0
0
0
0
0
0
0
0
0
0
0
0
0
0
0
0
0
0
0
0
0
0
0
0
0
0
0
0
0
0
0
0
0
0
0
0
0
0
0
0
0
0
0
0
0
0
0
0
0
0
0
0
0
0
0
0
0
0
0
0
0
0
0
0
0
0
0
0
0
0
0
0
0
0
0
0
0
0
0
0
0
0
0
0
0
0
0
0
0
0
0
0
0
0
0
0
0
0
0
0
0
0
0
0
0
0
0
0
0
0
0
0
0
0
0
0
0
0
0
0
0
0
0
0
0
0
0
0
0
0
0
0
0
0
0
0
0
0
0
0
0
0
0
0
0
0
0
0
0
0
0
0
0
0
0
0
0
0
0
0
0
0
0
0
0
0
0
0
0
0
0
0
0
0
0
0
0
0
0
0
0
0
0
0
0
0
0
0
0
0
0
0
0
0
0
0
0
0
0
0
0
0
0
0
0
0
0
0
0
0
0
0
0
0
0
0
0
0
0
0
0
0
0
0
0
0
0
0
0
0
0
0
0
0
0
0
0
0
0
0
0
0
0
0
0
0
0
0
0
0
0
0
0
0
0
0
0
0
0
0
0
0
0
0
0
0
0
0
0
0
0
0
0
0
0
0
0
0
0
0
0
0
0
0
0
0
0
0
0
0
0
0
0
0
0
0
0
0
0
0
0
0
0
0
0
0
0
0
0
0
0
0
0
0
0
0
0
0
0
0
0
0
0
0
0
0
0
0
0
0
0
0
0
0
0
0
0
0
0
0
0
0
0
0
0
0
0
0
0
0
0
0
0
0
0
0
0
0
0
0
0
0
0
0
0
0
0
0
0
0
0
0
0
0
0
0
0
0
0
0
0
0
0
0
0
0
0
0
0
0
0
0
0
0
0
0
0
0
0
0
0
0
0
0
0
0
0
0
0
0
0
0
0
0
0
0
0
0
0
0
0
0
0
0
0
0
0
0
0
0
0
0
0
0
0
0
0
0
0
0
0
0
0
0
0
0
0
0
0
0
0
0
0
0
0
0
0
0
0
0
0
0
0
0
0
0
0
0
0
0
0
0
0
0
0
0
0
0
0
0
0
0
0
0
0
0
0
0
0
0
0
0
0
0
0
0
0
0
0
0
0
0
0
0
0
0
0
0
0
0
0
0
0
0
0
0
0
0
0
0
0
0
0
0
0
0
0
0
0
0
0
0
0
0
0
0
0
0
0
0
0
0
0
0
0
0
0
0
0
0
0
0
0
0
0
0
0
0
0
0
0
0
0
0
0
0
0
0
0
0
0
0
0
0
0
0
0
0
0
0
0
0
0
0
0
0
0
0
0
0
0
0
0
0
0
0
0
0
0
0
0
0
0
0
0
0
0
0
0
0
0
0
0
0
0
0
0
0
0
0
0
0
0
0
0
0
0
0
0
0
0
0
0
0
0
0
0
0
0
0
0
0
0
0
0
0
0
0
0
0
0
0
0
0
0
0
0
0
0
0
0
0
0
0
0
0
0
0
0
0
0
0
0
0
0
0
0
0
0
0
0
0
0
0
0
0
0
0
0
0
0
0
0
0
0
0
0
0
0
0
0
0
0
0
0
0
0
0
0
0
0
0
0
0
0
0
0
0
0
0
0
0
0
0
0
0
0
0
0
0
0
0
0
0
0
0
0
0
0
0
0
0
0
0
0
0
0
0
0
0
0
0
0
0
0
0
0
0
0
0
0
0
0
0
0
0
0
0
0
0
0
0
0
0
0
0
0
0
0
0
0
0
0
0
0
0
0
0
0
0
0
0
0
0
0
0
0
0
0
0
0
0
0
0
0
0
0
0
0
0
0
0
0
0
0
0
0
0
0
0
0
0
0
0
0
0
0
0
0
0
0
0
0
0
0
0
0
0
0
0
0
0
0
0
0
0
0
0
0
0
0
0
0
0
0
0
0
0
0
0
0
0
0
0
0
0
0
0
0
0
0
0
0
0
0
0
0
0
0
0
0
0
0
0
0
0
0
0
0
0
0
0
0
0
0
0
0
0
0
0
0
0
0
0
0
0
0
0
0
0
0
0
0
0
0
0
0
0
0
0
0
0
0
0
0
0
0
0
0
0
0
0
0
0
0
0
0
0
0
0
0
0
0
0
0
0
0
0
0
0
0
0
0
0
0
0
0
0
0
0
0
0
0
0
0
0
0
0
0
0
0
0
0
0
0
0
0
0
0
0
0
0
0
0
0
0
0
0
0
0
0
0
0
0
0
0
0
0
0
0
0
0
0
0
0
0
0
0
0
0
0
0
0
0
0
0
0
0
0
0
0
0
0
0
0
0
0
0
0
0
0
0
0
0
0
0
0
0
0
0
0
0
0
0
0
0
0
0
0
0
0
0
0
0
0
0
0
0
0
0
0
0
0
0
0
0
0
0
0
0
0
0
0
0
0
0
0
0
0
0
0
0
0
0
0
0
0
0
0
0
0
0
0
0
0
0
0
0
0
0
0
0
0
0
0
0
0
0
0
0
0
0
0
0
0
0
0
0
0
0
0
0
0
0
0
0
0
0
0
0
0
0
0
0
0
0
0
0
0
0
0
0
0
0
0
0
0
0
0
0
0
0
0
0
0
0
0
0
0
0
0
0
0
0
0
0
0
0
0
0
0
0
0
0
0
0
0
0
0
0
0
0
0
0
0
0
0
0
0
0
0
0
0
0
0
0
0
0
0
0
0
0
0
0
0
0
0
0
0
0
0
0
0
0
0
0
0
0
0
0
0
0
0
0
0
0
0
0
0
0
0
0
0
0
0
0
0
0
0
0
0
0
0
0
0
0
0
0
0
0
0
0
0
0
0
0
0
0
0
0
0
0
0
0
0
0
0
0
0
0
0
0
0
0
0
0
0
0
0
0
0
0
0
0
0
0
0
0
0
0
0
0
0
0
0
0
0
0
0
0
0
0
0
0
0
0
0
0
0
0
0
0
0
0
0
0
0
0
0
0
0
0
0
0
0
0
0
0
0
0
0
0
0
0
0
0
0
0
0
0
0
0
0
0
0
0
0
0
0
0
0
0
0
0
0
0
0
0
0
0
0
0
0
0
0
0
0
0
0
0
0
0
0
0
0
0
0
0
0
0
0
0
0
0
0
0
0
0
0
0
0
0
0
0
0
0
0
0
0
0
0
0
0
0
0
0
0
0
0
0
0
0
0
0
0
0
0
0
0
0
0
0
0
0
0
0
0
0
0
0
0
0
0
0
0
0
0
0
0
0
0
0
0
0
0
0
0
0
0
0
0
0
0
0
0
0
0
0
0
0
0
0
0
0
0
0
0
0
0
0
0
0
0
0
0
0
0
0
0
0
0
0
0
0
0
0
0
0
0
0
0
0
0
0
0
0
0
0
0
0
0
0
0
0
0
0
0
0
0
0
0
0
0
0
0
0
0
0
0
0
0
0
0
0
0
0
0
0
0
0
0
0
0
0
0
0
0
0
0
0
0
0
0
0
0
0
0
0
0
0
0
0
0
0
0
0
0
0
0
0
0
0
0
0
0
0
0
0
0
0
0
0
0
0
0
0
0
0
0
0
0
0
0
0
0
0
0
0
0
0
0
0
0
0
0
0
0
0
0
0
0
0
0
0
0
0
0
0
0
0
0
0
0
0
0
0
0
0
0
0
0
0
0
0
0
0
0
0
0
0
0
0
0
0
0
0
0
0
0
0
0
0
0
0
0
0
0
0
0
0
0
0
0
0
0
0
0
0
0
0
0
0
0
0
0
0
0
0
0
0
0
0
0
0
0
0
0
0
0
0
0
0
0
0
0
0
0
0
0
0
0
0
0
0
0
0
0
0
0
0
0
0
0
0
0
0
0
0
0
0
0
0
0
0
0
0
0
0
0
0
0
0
0
0
0
0
0
0
0
0
0
0
0
0
0
0
0
0
0
0
0
0
0
0
0
0
0
0
0
0
0
0
0
0
0
0
0
0
0
0
0
0
0
0
0
0
0
0
0
0
0
0
0
0
0
0
0
0
0
0
0
0
0
0
0
0
0
0
0
0
0
0
0
0
0
0
0
0
0
0
0
0
0
0
0
0
0
0
0
0
0
0
0
0
0
0
0
0
0
0
0
0
0
0
0
0
0
0
0
0
0
0
0
0
0
0
0
0
0
0
0
0
0
0
0
0
0
0
0
0
0
0
0
0
0
0
0
0
0
0
0
0
0
0
0
0
0
0
0
0
0
0
0
0
0
0
0
0
0
0
0
0
0
0
0
0
0
0
0
0
0
0
0
0
0
0
0
0
0
0
0
0
0
0
0
0
0
0
0
0
0
0
0
0
0
0
0
0
0
0
0
0
0
0
0
0
0
0
0
0
0
0
0
0
0
0
0
0
0
0
0
0
0
0
0
0
0
0
0
0
0
0
0
0
0
0
0
0
0
0
0
0
0
0
0
0
0
0
0
0
0
0
0
0
0
0
0
0
0
0
0
0
0
0
0
0
0
0
0
0
0
0
0
0
0
0
0
0
0
0
0
0
0
0
0
0
0
0
0
0
0
0
0
0
0
0
0
0
0
0
0
0
0
0
0
0
0
0
0
0
0
0
0
0
0
0
0
0
0
0
0
0
0
0
0
0
0
0
0
0
0
0
0
0
0
0
0
0
0
0
0
0
0
0
0
0
0
0
0
0
0
0
0
0
0
0
0
0
0
0
0
0
0
0
0
0
0
0
0
0
0
0
0
0
0
0
0
0
0
0
0
0
0
0
0
0
0
0
0
0
0
0
0
0
0
0
0
0
0
0
0
0
0
0
0
0
0
0
0
0
0
0
0
0
0
0
0
0
0
0
0
0
0
0
0
0
0
0
0
0
0
0
0
0
0
0
0
0
0
0
0
0
0
0
0
0
0
0
0
0
0
0
0
0
0
0
0
0
0
0
0
0
0
0
0
0
0
0
0
0
0
0
0
0
0
0
0
0
0
0
0
0
0
0
0
0
0
0
0
0
0
0
0
0
0
0
0
0
0
0
0
0
0
0
0
0
0
0
0
0
0
0
0
0
0
0
0
0
0
0
0
0
0
0
0
0
0
0
0
0
0
0
0
0
0
0
0
0
0
0
0
0
0
0
0
0
0
0
0
0
0
0
0
0
0
0
0
0
0
0
0
0
0
0
0
0
0
0
0
0
0
0
0
0
0
0
0
0
0
0
0
0
0
0
0
0
0
0
0
0
0
0
0
0
0
0
0
0
0
0
0
0
0
0
0
0
0
0
0
0
0
0
0
0
0
0
0
0
0
0
0
0
0
0
0
0
0
0
0
0
0
0
0
0
0
0
0
0
0
0
0
0
0
0
0
0
0
0
0
0
0
0
0
0
0
0
0
0
0
0
0
0
0
0
0
0
0
0
0
0
0
0
0
0
0
0
0
0
0
0
0
0
0
0
0
0
0
0
0
0
0
0
0
0
0
0
0
0
0
0
0
0
0
0
0
0
0
0
0
0
0
0
0
0
0
0
0
0
0
0
0
0
0
0
0
0
0
0
0
0
0
0
0
0
0
0
0
0
0
0
0
0
0
0
0
0
0
0
0
0
0
0
0
0
0
0
0
0
0
0
0
0
0
0
0
0
0
0
0
0
0
0
0
0
0
0
0
0
0
0
0
0
0
0
0
0
0
0
0
0
0
0
0
0
0
0
0
0
0
0
0
0
0
0
0
0
0
0
0
0
0
0
0
0
0
0
0
0
0
0
0
0
0
0
0
0
0
0
0
0
0
0
0
0
0
0
0
0
0
0
0
0
0
0
0
0
0
0
0
0
0
0
0
0
0
0
0
0
0
0
0
0
0
0
0
0
0
0
0
0
0
0
0
0
0
0
0
0
0
0
0
0
0
0
0
0
0
0
0
0
0
0
0
0
0
0
0
0
0
0
0
0
0
0
0
0
0
0
0
0
0
0
0
0
0
0
0
0
0
0
0
0
0
0
0
0
0
0
0
0
0
0
0
0
0
0
0
0
0
0
0
0
0
0
0
0
0
0
0
0
0
0
0
0
0
0
0
0
0
0
0
0
0
0
0
0
0
0
0
0
0
0
0
0
0
0
0
0
0
0
0
0
0
0
0
0
0
0
0
0
0
0
0
0
0
0
0
0
0
0
0
0
0
0
0
0
0
0
0
0
0
0
0
0
0
0
0
0
0
0
0
0
0
0
0
0
0
0
0
0
0
0
0
0
0
0
0
0
0
0
0
0
0
0
0
0
0
0
0
0
0
0
0
0
0
0
0
0
0
0
0
0
0
0
0
0
0
0
0
0
0
0
0
0
0
0
0
0
0
0
0
0
0
0
0
0
0
0
0
0
0
0
0
0
0
0
0
0
0
0
0
0
0
0
0
0
0
0
0
0
0
0
0
0
0
0
0
0
0
0
0
0
0
0
0
0
0
0
0
0
0
0
0
0
0
0
0
0
0
0
0
0
0
0
0
0
0
0
0
0
0
0
0
0
0
0
0
0
0
0
0
0
0
0
0
0
0
0
0
0
0
0
0
0
0
0
0
0
0
0
0
0
0
0
0
0
0
0
0
0
0
0
0
0
0
0
0
0
0
0
0
0
0
0
0
0
0
0
0
0
0
0
0
0
0
0
0
0
0
0
0
0
0
0
0
0
0
0
0
0
0
0
0
0
0
0
0
0
0
0
0
0
0
0
0
0
0
0
0
0
0
0
0
0
0
0
0
0
0
0
0
0
0
0
0
0
0
0
0
0
0
0
0
0
0
0
0
0
0
0
0
0
0
0
0
0
0
0
0
0
0
0
0
0
0
0
0
0
0
0
0
0
0
0
0
0
0
0
0
0
0
0
0
0
0
0
0
0
0
0
0
0
0
0
0
0
0
0
0
0
0
0
0
0
0
0
0
0
0
0
0
0
0
0
0
0
0
0
0
0
0
0
0
0
0
0
0
0
0
0
0
0
0
0
0
0
0
0
0
0
0
0
0
0
0
0
0
0
0
0
0
0
0
0
0
0
0
0
0
0
0
0
0
0
0
0
0
0
0
0
0
0
0
0
0
0
0
0
0
0
0
0
0
0
0
0
0
0
0
0
0
0
0
0
0
0
0
