1.72018
1.71411
1.69797
1.67591
1.65167
1.62783
1.60549
1.58497
1.56666
1.55132
1.54034
1.53551
1.53866
1.55093
1.57214
1.60133
1.63558
1.67048
1.70128
1.72373
1.73474
1.73274
1.71782
1.69141
1.64449
1.49359
1.11081
0.491377
-0.272216
-0.901615
-0.980248
0
2.30931
5.87479
10.1414
14.2031
17.1059
18.2052
17.3978
15.1123
12.0794
9.02531
6.44814
4.554
3.32295
2.61787
2.34457
2.26426
2.18714
2.11091
2.03373
1.95446
1.87354
1.79432
1.72303
1.66723
1.63396
1.62805
1.65069
1.69913
1.76721
1.8469
1.93015
2.01077
2.08598
2.15519
2.21834
2.27515
2.32533
2.36881
2.40591
2.43737
2.46474
2.49048
2.51775
2.54982
2.5893
2.63749
2.69392
2.75711
2.82509
2.89625
2.97003
3.04736
3.13053
3.22276
3.32755
3.44762
3.58418
3.73824
3.90994
4.0983
4.30351
4.52452
4.75488
4.97973
5.17659
5.32707
5.41772
5.44011
5.39101
5.27309
5.09534
4.8718
4.61873
4.35215
4.08578
3.82643
3.57755
3.34299
3.12739
2.93487
2.7687
2.63188
2.52815
2.4598
2.42056
2.3944
2.36443
2.31714
2.24592
2.15282
2.04771
1.945
1.8591
1.79821
1.76357
1.75354
1.76276
1.78411
1.81064
1.837
1.86067
1.88045
1.89607
1.90818
1.91814
1.92779
1.93919
1.9542
1.97422
2.00019
2.03191
2.06527
2.09201
2.10294
2.09082
2.05328
1.99446
1.92471
1.85828
1.8096
1.78791
1.79091
1.81661
1.8616
1.92081
1.9869
2.05088
2.10345
2.13732
2.14794
2.13413
2.09848
2.04734
1.99028
1.93863
1.90352
1.89301
1.91923
1.99084
2.08807
2.1813
2.24241
2.25384
2.21345
2.13403
2.03819
1.95064
1.89042
1.85775
1.84424
1.84334
1.85095
1.86396
1.87973
1.89645
1.9133
1.93034
1.94826
1.96799
1.99037
2.0158
2.04412
2.07449
2.10547
2.13509
2.16089
2.18006
2.19014
2.18964
2.17841
2.15808
2.13229
2.10634
2.08649
2.07873
2.0876
2.11479
2.15932
2.21801
2.28463
2.35182
2.41201
2.45818
2.48598
2.4936
2.48176
2.45342
2.41317
2.36641
2.31815
2.27189
2.22878
2.18744
2.14538
2.09986
2.04908
1.99322
1.93486
1.87883
1.83129
1.79825
1.78327
1.79529
1.8468
1.93344
2.04437
2.16516
2.23733
1.80112
0.881806
-0.288351
-1.21828
-1.28906
0
2.81564
6.87372
11.4617
15.6157
18.4063
19.2367
18.0345
15.2557
11.6986
8.21766
5.4606
3.71698
2.91092
2.70794
2.59932
2.38397
2.17318
1.97704
1.80423
1.66104
1.5508
1.47369
1.42704
1.40604
1.40454
1.41735
1.43831
1.46148
1.48318
1.50257
1.52155
1.54415
1.57514
1.61846
1.67581
1.74482
1.82111
1.90091
1.98059
2.05679
2.12666
2.18798
2.23927
2.27986
2.31015
2.33151
2.34655
2.35933
2.37527
2.4007
2.44198
2.50448
2.59143
2.70227
2.8338
2.98255
3.14394
3.31282
3.48432
3.65424
3.81913
3.97631
4.12373
4.25926
4.37962
4.47942
4.55317
4.596
4.60287
4.57017
4.49737
4.38777
4.24789
4.08555
3.90776
3.72056
3.52789
3.33161
3.13305
2.93434
2.73865
2.55023
2.37416
2.21544
2.07831
1.96566
1.87866
1.81665
1.77732
1.75709
1.75179
1.75751
1.76833
1.77683
1.77633
1.7618
1.73072
1.68356
1.62368
1.55665
1.48925
1.42816
1.37759
1.34089
1.32275
1.33481
1.40237
1.5466
1.74082
1.93318
2.07532
2.13689
2.10867
1.99756
1.82216
1.61397
1.42003
1.28547
1.22166
1.21324
1.26229
1.36105
1.47787
1.57843
1.63624
1.63947
1.59274
1.51377
1.42679
1.35494
1.3104
1.29053
1.28925
1.30242
1.32774
1.36365
1.40864
1.46122
1.51975
1.58221
1.64613
1.70855
1.76634
1.81658
1.85693
1.88586
1.90277
1.90778
1.90153
1.8849
1.85889
1.82448
1.78267
1.73444
1.68113
1.62516
1.57
1.52014
1.48126
1.45935
1.45914
1.48372
1.53364
1.60632
1.69706
1.79713
1.89498
1.97948
2.04208
2.07837
2.08875
2.07804
2.05429
2.02716
2.00581
1.99656
2.00229
2.02267
2.05568
2.09889
2.14812
2.19861
2.24569
2.28501
2.31338
2.32931
2.33289
2.32564
2.31012
2.28947
2.26679
2.24463
2.22453
2.20683
2.19106
2.17641
2.16189
2.14655
2.1296
2.11036
2.08827
2.06299
2.03416
2.00155
1.96514
1.92519
1.8822
1.83688
1.79
1.7422
1.69376
1.64332
1.52876
1.15453
0.54144
-0.104466
-0.457015
0
1.59492
4.42083
8.20704
12.3104
15.8535
17.9905
18.2101
16.5318
13.4917
9.91739
6.61004
4.09562
2.54507
1.84857
1.75909
1.82939
1.88697
1.92211
1.93097
1.91645
1.88712
1.85453
1.82996
1.82018
1.8245
1.84189
1.87046
1.90614
1.94475
1.98322
2.02022
2.05628
2.09337
2.13395
2.18007
2.23246
2.29018
2.3516
2.41489
2.47826
2.54056
2.60174
2.66296
2.72638
2.79469
2.87047
2.95542
3.04988
3.15252
3.26061
3.3706
3.47862
3.58166
3.67832
3.76931
3.85729
3.94628
4.04067
4.14401
4.25799
4.38312
4.51612
4.64831
4.76928
4.86973
4.94373
4.9898
5.01074
5.01206
4.99956
4.97685
4.9431
4.89324
4.81902
4.71208
4.56734
4.38543
4.17303
3.94113
3.70207
3.46661
3.23961
3.02553
2.83143
2.66311
2.52486
2.41996
2.34963
2.3121
2.30233
2.31265
2.334
2.35758
2.37661
2.38671
2.38615
2.37575
2.35849
2.33895
2.32227
2.31344
2.31635
2.33292
2.36604
2.41454
2.47172
2.52886
2.57716
2.60947
2.62162
2.61288
2.58575
2.54511
2.49695
2.44697
2.39904
2.35518
2.31569
2.28036
2.24924
2.22308
2.20366
2.19351
2.19522
2.21065
2.24327
2.29232
2.34768
2.39672
2.42819
2.43587
2.42055
2.3897
2.35501
2.32884
2.32084
2.33108
2.35569
2.3939
2.44407
2.49903
2.54725
2.5775
2.58149
2.55627
2.50524
2.43734
2.36459
2.29916
2.24961
2.21698
2.20264
2.20863
2.23558
2.28249
2.3465
2.42316
2.50685
2.59106
2.67015
2.74046
2.80079
2.8523
2.89755
2.93919
2.97868
3.01541
3.04615
3.06601
3.07003
3.05449
3.0178
2.96078
2.8868
2.80191
2.71441
2.63157
2.5606
2.50788
2.47783
2.4787
2.5161
2.57959
2.64801
2.70054
2.72319
2.7127
2.67646
2.6286
2.58392
2.55196
2.53142
2.52311
2.4311
1.95808
1.19368
0.36571
-0.180446
0
1.27094
3.81168
7.46295
11.6495
15.4554
17.8931
18.2856
16.5773
13.3849
9.72877
6.58464
4.50615
3.51127
3.24683
3.2677
3.11999
2.9804
2.85086
2.73589
2.63898
2.56451
2.51574
2.49042
2.48169
2.48156
2.48307
2.48212
2.47824
2.47426
2.47487
2.48492
2.50717
2.54135
2.58581
2.63873
2.69826
2.7624
2.82929
2.89725
2.96478
3.03055
3.09333
3.15204
3.20611
3.25606
3.30355
3.35151
3.40389
3.46516
3.53954
3.63023
3.73872
3.86392
4.00261
4.15123
4.30578
4.46218
4.61669
4.76626
4.90875
5.04288
5.16803
5.28326
5.38688
5.47724
5.5525
5.60965
5.64475
5.6533
5.63086
5.57371
5.47962
5.3486
5.18469
4.99499
4.78678
4.56841
4.34811
4.1323
3.92486
3.72874
3.54581
3.37731
3.22431
3.08781
2.96875
2.868
2.78569
2.72124
2.67329
2.63985
2.61857
2.60694
2.60242
2.60268
2.6054
2.60831
2.60955
2.60787
2.60289
2.59516
2.586
2.57709
2.56999
2.56591
2.56508
2.5666
2.56933
2.57273
2.57754
2.58573
2.59993
2.62221
2.65305
2.69018
2.73002
2.76842
2.80103
2.82402
2.83453
2.83086
2.81228
2.77889
2.73189
2.67329
2.60509
2.5296
2.45275
2.38379
2.33209
2.30485
2.30499
2.33021
2.37368
2.4261
2.47842
2.52439
2.56298
2.59434
2.61914
2.63825
2.65225
2.66116
2.66446
2.6615
2.65189
2.63594
2.61474
2.59007
2.56399
2.53842
2.51465
2.49324
2.47412
2.45656
2.43955
2.42227
2.40439
2.38638
2.36945
2.35537
2.34612
2.34336
2.34815
2.36095
2.3814
2.40845
2.44052
2.47584
2.5126
2.54931
2.58496
2.61906
2.65148
2.6821
2.7103
2.73446
2.75186
2.75882
2.75144
2.72667
2.68352
2.62395
2.55326
2.4796
2.41283
2.3626
2.34574
2.38408
2.47317
2.58417
2.68315
2.74284
2.74976
2.7053
2.62257
2.52173
2.42537
2.35145
2.30639
2.28915
2.29744
2.33985
2.42335
2.53768
2.66874
2.80442
2.93618
2.67668
1.98987
0.943179
-0.229637
-1.10737
-1.17913
0
2.63539
6.54508
11.1376
15.5022
18.6465
19.8214
18.8123
16.0459
12.4237
8.94349
6.30246
4.69374
3.88488
3.47574
3.16212
2.90445
2.66039
2.44087
2.2545
2.10687
2.00035
1.93384
1.90319
1.9021
1.92347
1.96067
2.00857
2.06337
2.12333
2.18752
2.255
2.32245
2.38446
2.43492
2.46895
2.48468
2.48415
2.47301
2.45916
2.45084
2.45375
2.46972
2.49884
2.54067
2.59426
2.65824
2.73114
2.81184
2.89984
2.99555
3.10025
3.21603
3.34547
3.49116
3.65526
3.8388
4.04127
4.26109
4.49808
4.74312
4.9745
5.17005
5.31341
5.39872
5.43211
5.42876
5.40672
5.37986
5.35303
5.32264
5.28298
5.22741
5.15059
5.04965
4.92422
4.77588
4.60726
4.42382
4.23033
4.03035
3.82812
3.62901
3.43937
3.26697
3.12923
3.0737
3.13539
3.26546
3.38885
3.43631
3.37474
3.2204
3.02791
2.86103
2.76226
2.71546
2.68891
2.67187
2.65894
2.64519
2.62671
2.60085
2.56647
2.524
2.47451
2.42124
2.37119
2.3329
2.31428
2.32076
2.35383
2.41068
2.48498
2.56846
2.65264
2.73083
2.79919
2.85376
2.89208
2.91299
2.91683
2.90553
2.8825
2.85219
2.81928
2.78797
2.76089
2.73893
2.72241
2.71096
2.70367
2.69933
2.69679
2.69513
2.69416
2.69484
2.69977
2.7125
2.73664
2.77449
2.82777
2.89263
2.9608
3.02266
3.06999
3.09801
3.1059
3.09573
3.07076
3.03397
2.98951
2.94007
2.88764
2.83568
2.78945
2.75498
2.7379
2.74205
2.76832
2.81418
2.87434
2.94127
3.00724
3.06601
3.11399
3.15051
3.17731
3.19754
3.21472
3.23214
3.25234
3.27776
3.31086
3.35474
3.41648
3.50244
3.60546
3.70635
3.7821
3.8138
3.79297
3.72407
3.62264
3.51021
3.40752
3.32523
3.26148
3.2109
3.16947
3.13488
3.10515
3.07884
3.05545
3.03555
3.02076
3.01353
3.01691
3.03514
3.07844
3.16173
3.28307
3.43433
3.6366
3.46036
2.68198
1.42915
0.142389
-0.538466
0
2.10119
5.67252
10.1444
14.6038
18.0571
19.7398
19.3556
17.1542
13.8244
10.2447
7.18911
5.09642
3.98757
3.56381
3.41598
3.27874
3.14713
3.02622
2.92016
2.83197
2.76301
2.71327
2.68188
2.66758
2.66902
2.68521
2.71837
2.77039
2.83122
2.88435
2.91269
2.90514
2.86229
2.79807
2.73623
2.70309
2.71963
2.7788
2.86798
2.98316
3.12094
3.27825
3.44957
3.62319
3.78053
3.90434
3.98127
4.00516
3.98075
3.92552
3.86746
3.83846
3.86462
3.94732
4.06606
4.2049
4.35539
4.50816
4.65459
4.78858
4.90738
5.01163
5.10457
5.19009
5.2723
5.35414
5.43465
5.50821
5.56451
5.59276
5.58323
5.52904
5.42782
5.2827
5.10208
4.89756
4.68092
4.46179
4.24564
4.03478
3.83201
3.6408
3.46491
3.30832
3.17607
3.07319
2.9999
2.94984
2.91396
2.88282
2.84879
2.80784
2.76016
2.70963
2.66246
2.62499
2.60084
2.59056
2.59319
2.60676
2.62792
2.65278
2.67761
2.69958
2.71701
2.72946
2.73744
2.74207
2.74464
2.74617
2.74718
2.74763
2.74703
2.74465
2.73987
2.7324
2.72258
2.71133
2.7001
2.6906
2.68439
2.6824
2.68491
2.69158
2.69999
2.70552
2.70336
2.6903
2.66612
2.63412
2.60027
2.57138
2.55287
2.54637
2.54932
2.55952
2.57404
2.59019
2.60615
2.62116
2.63532
2.64923
2.66362
2.67904
2.69592
2.7146
2.73541
2.75869
2.78481
2.81408
2.84662
2.88218
2.92006
2.95908
2.99754
3.03353
3.06533
3.09162
3.11176
3.12562
3.13342
3.1353
3.13088
3.11929
3.09966
3.07158
3.03572
2.99382
2.95039
2.91174
2.88394
2.87106
2.87385
2.88954
2.91273
2.93698
2.95644
2.96785
2.96929
2.96046
2.94232
2.91723
2.88759
2.85588
2.82462
2.79601
2.77182
2.77055
2.72026
2.24815
1.33449
0.267779
-0.389976
0
1.86757
5.20579
9.48653
13.7874
17.0827
18.5951
18.0636
15.8155
12.6039
9.29272
6.54325
4.64753
3.55372
3.0213
2.83233
2.81993
2.81682
2.82907
2.86557
2.92785
2.99863
3.05472
3.07493
3.04804
2.97727
2.8794
2.7789
2.69965
2.65442
2.63611
2.63705
2.65428
2.68598
2.73039
2.78603
2.85187
2.92849
3.01839
3.12064
3.22309
3.30952
3.36506
3.38272
3.36792
3.33859
3.32027
3.33791
3.4073
3.51579
3.64777
3.79355
3.94607
4.09879
4.24689
4.38795
4.5221
4.6515
4.77945
4.90931
5.04377
5.18436
5.32971
5.47552
5.61478
5.73654
5.82764
5.87845
5.8802
5.82611
5.71397
5.54865
5.34266
5.11359
4.87935
4.65256
4.43573
4.2285
4.03201
3.84724
3.67514
3.51672
3.37291
3.24441
3.13129
3.03287
2.9478
2.87426
2.81021
2.7537
2.70304
2.65694
2.61457
2.57557
2.54025
2.50996
2.48649
2.47172
2.46714
2.47322
2.48894
2.51181
2.53838
2.56516
2.58945
2.61031
2.62786
2.64313
2.65752
2.67216
2.68749
2.70304
2.71764
2.72986
2.73854
2.74314
2.74387
2.74159
2.7377
2.73396
2.7323
2.73475
2.74326
2.75993
2.78802
2.82595
2.86498
2.89352
2.90126
2.88331
2.84231
2.78738
2.73031
2.68097
2.6425
2.61199
2.587
2.56572
2.54708
2.53136
2.52036
2.5169
2.52398
2.54342
2.57783
2.62786
2.68611
2.74198
2.78496
2.8075
2.807
2.78618
2.75211
2.71428
2.68242
2.66248
2.65634
2.66441
2.68651
2.72203
2.76759
2.81673
2.86241
2.89906
2.92403
2.93838
2.94667
2.95573
2.97271
3.00299
3.04752
3.10422
3.16825
3.23164
3.28583
3.32347
3.33977
3.33302
3.30451
3.25785
3.19822
3.1318
3.06457
3.00136
2.94584
2.90095
2.86857
2.84924
2.84211
2.84503
2.85503
2.86863
2.88256
2.89423
2.9021
2.90569
2.90549
2.9026
2.89834
2.89391
2.89331
2.74984
2.27417
1.45735
0.499058
-0.171063
0
1.48256
4.45304
8.63308
13.2863
17.3872
19.9356
20.3096
18.5099
15.1676
11.292
7.86658
5.49023
4.23296
3.75467
3.5802
3.36279
3.17302
2.99837
2.84416
2.71379
2.60919
2.52994
2.47262
2.43255
2.40468
2.38454
2.36881
2.35558
2.34437
2.33584
2.33146
2.33299
2.34244
2.36169
2.39215
2.43452
2.48858
2.5531
2.62594
2.70448
2.78568
2.86639
2.94324
3.01304
3.07343
3.12316
3.16247
3.19336
3.21961
3.2465
3.28019
3.32681
3.39078
3.4742
3.57753
3.69951
3.8369
3.98487
4.13773
4.2897
4.4358
4.57252
4.69818
4.81297
4.9185
5.01666
5.10879
5.19468
5.26939
5.32137
5.33471
5.29418
5.19006
5.02089
4.79347
4.52074
4.21931
3.9098
3.60572
3.31619
3.05315
2.82555
2.63994
2.49951
2.4036
2.34767
2.32413
2.32346
2.33568
2.35182
2.36375
2.36601
2.35607
2.33416
2.30291
2.26661
2.23034
2.19884
2.17551
2.1607
2.15301
2.15061
2.14965
2.14513
2.13252
2.1089
2.0738
2.02947
1.98029
1.93169
1.88854
1.85362
1.82763
1.80841
1.79205
1.77445
1.75295
1.72752
1.70118
1.67958
1.67776
1.75107
1.96506
2.25295
2.51006
2.64231
2.60504
2.41645
2.14261
1.868
1.67264
1.59574
1.58944
1.61764
1.66621
1.72877
1.80056
1.87608
1.94977
2.01663
2.07268
2.11513
2.14236
2.15395
2.15084
2.13508
2.10974
2.07878
2.04668
2.01796
1.99639
1.98569
1.98808
2.00013
2.016
2.02948
2.03621
2.0352
2.02902
2.02269
2.02166
2.02945
2.04756
2.07223
2.09311
2.09859
2.08064
2.03878
1.98175
1.92578
1.88974
1.8889
1.92422
1.98723
2.07295
2.16708
2.25445
2.323
2.36644
2.38507
2.38443
2.37246
2.35621
2.33931
2.3213
2.2991
2.26867
2.22708
2.17415
2.1134
2.05175
1.9983
1.96526
1.98262
2.0693
2.19059
2.29321
2.32798
2.27047
2.13066
1.94692
1.76723
1.62716
1.5254
1.43984
1.35984
1.27964
1.18108
0.973335
0.622586
0.180244
-0.248742
-0.530311
0
1.73739
4.85931
9.04868
13.4881
17.1033
18.9645
18.6531
16.4112
13.0033
9.37177
6.27472
4.08127
2.78358
2.15556
1.93299
1.82352
1.71694
1.6168
1.52837
1.45762
1.41039
1.39045
1.39798
1.42909
1.47674
1.53269
1.58968
1.64347
1.69318
1.73902
1.78087
1.81835
1.85071
1.87699
1.89641
1.90924
1.91752
1.92503
1.93656
1.95674
1.98886
2.03314
2.08756
2.1506
2.2208
2.29673
2.37727
2.4616
2.5492
2.63971
2.73281
2.82828
2.92584
3.0252
3.12603
3.22793
3.33048
3.43341
3.53669
3.64076
3.74662
3.85601
3.97247
4.10523
4.27307
4.48786
4.72417
4.93528
5.08301
5.1458
5.11165
4.96984
4.71457
4.36024
3.95443
3.57165
3.26278
3.01679
2.80741
2.62572
2.47082
2.34085
2.23259
2.14119
2.06194
1.99096
1.9257
1.86502
1.80883
1.75771
1.71246
1.67155
1.63217
1.59123
1.54682
1.49928
1.4515
1.40801
1.37351
1.35122
1.33988
1.33866
1.34565
1.35856
1.3752
1.39399
1.41402
1.43461
1.45499
1.47396
1.48981
1.50058
1.50439
1.50004
1.48752
1.46836
1.4457
1.42396
1.40811
1.40277
1.41618
1.45542
1.51079
1.56567
1.60254
1.60958
1.58494
1.53695
1.48023
1.42966
1.39494
1.37331
1.35968
1.35116
1.34503
1.3394
1.33372
1.32885
1.32655
1.3287
1.33693
1.35167
1.36965
1.38509
1.39185
1.38573
1.36631
1.33773
1.30803
1.28725
1.28502
1.30552
1.34734
1.41191
1.50024
1.60913
1.72446
1.82575
1.89495
1.92083
1.90297
1.85353
1.79497
1.75335
1.74935
1.80186
1.89655
1.99879
2.07001
2.08326
2.0323
1.93156
1.8086
1.69336
1.60902
1.55435
1.51962
1.49835
1.48759
1.48359
1.48085
1.47439
1.46105
1.44046
1.41566
1.39272
1.37967
1.39369
1.46798
1.59869
1.7649
1.93834
2.06316
1.59614
0.676845
-0.439602
-1.30055
-1.29138
0
2.65917
6.36205
10.4473
14.0768
16.4536
17.0514
15.7956
13.1098
9.77254
6.62145
4.24281
2.80454
2.11044
1.80941
1.70931
1.66965
1.63974
1.62141
1.61502
1.61854
1.62907
1.64383
1.66107
1.68054
1.70333
1.73115
1.76541
1.80737
1.85413
1.89959
1.9368
1.96063
1.96993
1.96856
1.96478
1.96919
1.99191
2.05309
2.16327
2.29359
2.40253
2.45658
2.44893
2.40534
2.37254
2.39495
2.49327
2.63726
2.79715
2.96133
3.12235
3.27459
3.41473
3.54201
3.65803
3.76629
3.87139
3.9782
4.091
4.21259
4.34401
4.48563
4.63146
4.76999
4.88871
4.97705
5.02841
5.04044
5.0138
4.95019
4.85067
4.71932
4.56177
4.38117
4.17956
3.96064
3.72988
3.49413
3.26095
3.03778
2.83136
2.64713
2.48883
2.35896
2.25887
2.18659
2.13699
2.10343
2.07874
2.05615
2.03019
1.99758
1.9577
1.91275
1.86722
1.82703
1.7982
1.78598
1.79953
1.83863
1.89113
1.94202
1.97944
1.99928
2.0061
2.01004
2.02139
2.04558
2.07923
2.11655
2.15303
2.18514
2.21135
2.23226
2.24978
2.26581
2.28108
2.29439
2.30267
2.30195
2.2888
2.26175
2.22229
2.17488
2.12613
2.08331
2.05262
2.03691
2.03711
2.05182
2.078
2.1121
2.15082
2.19161
2.23313
2.27461
2.31557
2.35553
2.39381
2.4294
2.46081
2.48632
2.50427
2.51327
2.51239
2.50149
2.4812
2.45295
2.41879
2.38115
2.34265
2.30573
2.27257
2.24517
2.22513
2.2136
2.21096
2.21673
2.22955
2.24708
2.26566
2.28069
2.28809
2.28543
2.27285
2.25349
2.23323
2.21963
2.22036
2.24151
2.284
2.34666
2.42716
2.52131
2.62371
2.72873
2.82919
2.91681
2.98487
3.02822
3.04391
3.03167
2.99391
2.93504
2.86036
2.7749
2.6834
2.58982
2.49707
2.40799
2.326
2.25465
2.1973
2.15661
2.13407
2.12984
2.14277
2.17105
2.21269
2.26501
2.32308
2.38098
2.43313
2.47485
2.45738
2.06263
1.39254
0.605489
-0.0551874
0
1.20892
3.79184
7.55438
11.8661
15.819
18.5093
19.3362
18.2026
15.5359
12.1166
8.77976
6.1222
4.34832
3.31307
2.71503
2.39336
2.28974
2.20043
2.12842
2.0751
2.0401
2.02148
2.01622
2.02092
2.03203
2.0467
2.06284
2.07882
2.09324
2.10469
2.11178
2.11345
2.1092
2.09954
2.08625
2.07251
2.06261
2.06129
2.07289
2.10053
2.14552
2.20722
2.28324
2.36992
2.46303
2.55843
2.65297
2.74453
2.83241
2.91742
3.00179
3.0888
3.18225
3.28581
3.40238
3.53361
3.67893
3.83688
4.00542
4.18276
4.36457
4.54116
4.70061
4.83128
4.92368
4.97219
4.97584
4.93808
4.86573
4.76732
4.65121
4.52457
4.39138
4.25317
4.11044
3.96354
3.81286
3.65934
3.50466
3.35103
3.20085
3.05636
2.91928
2.79079
2.6717
2.56256
2.46379
2.3757
2.29957
2.23503
2.17804
2.12323
2.0653
2.00077
1.9293
1.85406
1.78088
1.71666
1.66636
1.63065
1.60984
1.60351
1.61041
1.62788
1.65024
1.6707
1.68342
1.68459
1.67318
1.6509
1.62161
1.59023
1.5616
1.53899
1.5236
1.51616
1.51715
1.52636
1.5432
1.56643
1.59382
1.62189
1.64676
1.66519
1.67533
1.67728
1.67323
1.6669
1.66269
1.66458
1.67481
1.69336
1.71906
1.75048
1.78576
1.823
1.86049
1.89674
1.92999
1.95786
1.97797
1.98795
1.98612
1.97244
1.94906
1.92046
1.89268
1.87214
1.86415
1.87003
1.88963
1.92217
1.96496
2.01335
2.06051
2.09847
2.12067
2.12337
2.10678
2.0757
2.03888
2.00713
1.99025
1.99406
2.02261
2.06721
2.11478
2.15393
2.17983
2.19545
2.20866
2.227
2.25319
2.28287
2.31111
2.33341
2.3472
2.35299
2.3544
2.35726
2.36831
2.3922
2.43597
2.52703
2.72712
3.04828
3.39827
3.68047
3.82203
3.79508
3.61938
3.34822
3.05037
2.79904
2.64551
2.56062
2.50989
2.47761
2.45735
2.44573
2.43962
2.43479
2.42668
2.41191
2.38931
2.3607
2.33115
2.30836
2.30981
2.3759
2.51021
2.69349
2.8904
2.89412
2.27045
1.22662
0.133846
-0.481409
0
1.91461
5.22236
9.45197
13.7978
17.3261
19.242
19.1394
17.1477
13.895
10.272
7.09757
4.84956
3.58762
3.07556
2.97978
2.85356
2.72667
2.5994
2.47368
2.35393
2.24622
2.15715
2.0924
2.0556
2.04778
2.0674
2.11083
2.17297
2.24808
2.33091
2.41159
2.47972
2.52711
2.55014
2.5515
2.54007
2.52857
2.52974
2.55248
2.59537
2.65177
2.7168
2.78663
2.85714
2.92467
2.98706
3.04419
3.09818
3.15329
3.21529
3.2905
3.38453
3.50096
3.63944
3.79631
3.96587
4.14107
4.31361
4.47569
4.62121
4.74661
4.85117
4.93677
5.00709
5.06662
5.11955
5.16863
5.21457
5.25453
5.28172
5.2867
5.25924
5.19067
5.07597
4.91504
4.71315
4.4803
4.22984
3.9769
3.73203
3.50262
3.29495
3.11338
2.96007
2.83419
2.73288
2.652
2.58692
2.5332
2.48715
2.44607
2.40829
2.37303
2.34007
2.30966
2.28225
2.25836
2.23849
2.22303
2.21218
2.20595
2.20418
2.20655
2.21264
2.22211
2.23482
2.25089
2.27065
2.29441
2.32229
2.35395
2.38722
2.41761
2.43953
2.44763
2.43832
2.41095
2.36834
2.31632
2.26266
2.21536
2.17952
2.15681
2.14811
2.15372
2.17113
2.19607
2.22417
2.25201
2.27771
2.30088
2.32198
2.34142
2.35853
2.37137
2.377
2.37267
2.35732
2.33269
2.30374
2.278
2.26414
2.28138
2.35785
2.48567
2.62435
2.72646
2.75655
2.70386
2.5856
2.44122
2.31964
2.26235
2.2667
2.30632
2.3641
2.43166
2.50235
2.57025
2.63096
2.68204
2.72309
2.75546
2.78174
2.80511
2.8287
2.85493
2.88528
2.92033
2.95941
2.99952
3.0367
3.06695
3.08698
3.09481
3.08983
3.07269
3.04501
3.00944
2.96966
2.92882
2.89035
2.85748
2.83302
2.81999
2.81869
2.8228
2.82358
2.81275
2.78567
2.74334
2.69266
2.64468
2.61163
2.60327
2.62673
2.6938
2.79713
2.92321
3.05547
3.02112
2.46628
1.48977
0.406308
-0.275969
0
1.57475
4.45139
8.25845
12.3048
15.7341
17.7642
17.949
16.3522
13.5256
10.2816
7.36871
5.22141
3.89927
3.20898
2.89106
2.86799
2.84783
2.83078
2.81758
2.80845
2.80324
2.80156
2.80308
2.80764
2.8153
2.82629
2.8409
2.85949
2.88218
2.909
2.93999
2.97533
3.01531
3.06028
3.11039
3.16554
3.22531
3.28892
3.35581
3.4257
3.49868
3.57515
3.65552
3.73983
3.82751
3.91711
4.00546
4.08841
4.16237
4.22572
4.27999
4.33025
4.38451
4.45221
4.54216
4.66037
4.80513
4.97092
5.15177
5.3413
5.53076
5.71081
5.87339
6.01251
6.1245
6.20769
6.25913
6.27907
6.26784
6.2257
6.1531
6.05099
5.92105
5.76569
5.58789
5.39214
5.18396
4.9673
4.74637
4.52602
4.31167
4.10888
3.92279
3.7574
3.61521
3.49763
3.40401
3.32905
3.266
3.20844
3.15192
3.09509
3.04
2.9916
2.95853
2.96463
3.0551
3.23805
3.45023
3.61875
3.68546
3.62267
3.44252
3.19814
2.97221
2.84949
2.8467
2.90138
2.98849
3.08661
3.1737
3.23295
3.257
3.24898
3.22
3.18398
3.1523
3.12928
3.11254
3.09942
3.08767
3.07562
3.06265
3.0491
3.03582
3.02356
3.01257
3.00281
2.99404
2.986
2.97852
2.97146
2.96469
2.958
2.95127
2.94465
2.93879
2.93477
2.93372
2.93663
2.94334
2.94868
2.94453
2.92255
2.87784
2.81186
2.73316
2.65549
2.59388
2.56033
2.55289
2.57199
2.61432
2.67393
2.74333
2.81476
2.87841
2.92536
2.94892
2.94609
2.91905
2.87589
2.82959
2.79531
2.78645
2.81064
2.86119
2.93505
3.02807
3.13504
3.25112
3.37153
3.48613
3.58147
3.64256
3.65642
3.61709
3.52922
3.40772
3.27329
3.14578
3.03628
2.94277
2.86166
2.79214
2.73338
2.68451
2.64469
2.61331
2.58931
2.57107
2.55652
2.5432
2.52856
2.51032
2.48668
2.45656
2.41901
2.36895
2.26969
2.00659
1.53855
0.863419
0.126303
-0.328133
0
1.57408
4.59251
8.77628
13.338
17.1862
19.3163
19.212
17.0539
13.6214
9.94317
6.87779
4.83544
3.7484
3.25901
2.98419
2.82858
2.67979
2.54254
2.42061
2.31568
2.22761
2.15485
2.09509
2.04599
2.00576
1.97351
1.94939
1.93454
1.93012
1.93691
1.95558
1.98658
2.02542
2.06544
2.10021
2.12553
2.14068
2.14847
2.154
2.16287
2.17955
2.20502
2.23897
2.28159
2.33288
2.3927
2.46073
2.53626
2.61799
2.70393
2.79201
2.88059
2.96866
3.05619
3.1442
3.23467
3.33017
3.43342
3.54677
3.67177
3.80978
3.96381
4.1297
4.28978
4.42333
4.51296
4.55015
4.53768
4.48744
4.41438
4.32926
4.23354
4.12386
3.99698
3.84759
3.67187
3.46987
3.24612
3.0094
2.77137
2.54439
2.34181
2.17758
2.05594
1.97122
1.91254
1.8675
1.82574
1.78129
1.73327
1.68493
1.64156
1.60746
1.58469
1.57389
1.56866
1.55983
1.53883
1.50114
1.44826
1.38756
1.32979
1.28557
1.26049
1.25148
1.25548
1.26869
1.28614
1.30261
1.31374
1.31616
1.30783
1.28804
1.25737
1.21761
1.1716
1.12303
1.07613
1.03539
1.00528
0.992286
1.01004
1.08507
1.2274
1.39381
1.52749
1.57649
1.51373
1.35076
1.13639
0.937955
0.812706
0.768445
0.764078
0.778364
0.804914
0.83965
0.878743
0.918808
0.956019
0.98606
1.005
1.00957
0.997904
0.970237
0.929165
0.879297
0.826383
0.776187
0.733054
0.698749
0.674244
0.660049
0.655865
0.660834
0.673568
0.692066
0.713935
0.736475
0.756612
0.770689
0.775802
0.770135
0.753603
0.728342
0.698803
0.671306
0.653046
0.65079
0.669195
0.708441
0.775511
0.892947
1.10562
1.42306
1.77732
2.0842
2.25597
2.23964
2.04135
1.71777
1.34613
1.00502
0.784146
0.676471
0.623869
0.604129
0.615608
0.64282
0.667165
0.672497
0.650359
0.602851
0.542037
0.486148
0.453959
0.47676
0.579354
0.72423
0.853284
0.91414
0.881657
0.764805
0.365581
-0.267345
-1.00425
-1.68652
-2.07353
-1.62512
0
2.91677
6.84914
11.1462
14.9374
17.3809
17.9292
16.5214
13.6144
10.0167
6.58816
3.93875
2.27444
1.44078
1.1088
0.991538
0.882867
0.780233
0.686745
0.605422
0.538926
0.489226
0.457467
0.44374
0.446911
0.464622
0.494396
0.531861
0.571047
0.606525
0.634487
0.653566
0.665167
0.673159
0.682985
0.700385
0.730051
0.773249
0.828732
0.89442
0.967904
1.04476
1.11997
1.18972
1.25246
1.30933
1.36404
1.42205
1.48939
1.5714
1.6705
1.78621
1.91748
2.06243
2.21816
2.38124
2.54824
2.71623
2.88314
3.04785
3.21004
3.3696
3.52633
3.67897
3.82358
3.95228
4.05459
4.11972
4.13748
4.09967
4.00157
3.84369
3.63326
3.38463
3.11776
2.85464
2.60924
2.38601
2.18789
2.01904
1.88171
1.77666
1.70587
1.67367
1.67895
1.7051
1.73149
1.73924
1.71596
1.65931
1.57777
1.48792
1.40895
1.35594
1.32914
1.32915
1.34513
1.36297
1.37103
1.36437
1.34587
1.32372
1.30691
1.30103
1.30418
1.31247
1.32314
1.3338
1.34313
1.35108
1.35867
1.36734
1.37832
1.39222
1.40927
1.42932
1.45191
1.4764
1.5021
1.52841
1.555
1.58183
1.60924
1.6378
1.66807
1.70038
1.73456
1.76927
1.80212
1.83023
1.85098
1.86271
1.86531
1.86027
1.85039
1.83908
1.82948
1.82343
1.82152
1.82304
1.82566
1.82641
1.82258
1.81262
1.79682
1.77745
1.75851
1.74501
1.74164
1.75128
1.77515
1.8133
1.86427
1.92527
1.99113
2.05654
2.11712
2.17009
2.21441
2.2504
2.27867
2.29928
2.31231
2.31735
2.31437
2.30482
2.29229
2.28239
2.28171
2.29619
2.32838
2.3762
2.43869
2.51124
2.5859
2.65434
2.70985
2.74872
2.77085
2.77942
2.77968
2.7772
2.77587
2.77671
2.77464
2.75877
2.71628
2.6375
2.52052
2.37339
2.21314
2.0619
1.94157
1.91341
2.05391
2.33837
2.65458
2.8989
3.05653
3.15594
3.20568
3.17434
3.03577
2.53224
1.62751
0.514258
-0.448382
-0.796567
0
2.2004
5.71661
10.0227
14.2443
17.3963
18.7076
17.9083
15.3435
11.841
8.37707
5.70051
4.10301
3.43079
3.29442
3.26852
3.20099
3.13116
3.06044
2.99066
2.92409
2.86336
2.81103
2.76927
2.73961
2.7228
2.71868
2.72634
2.74429
2.77069
2.80356
2.84085
2.88077
2.92189
2.96317
3.00412
3.04506
3.0872
3.13266
3.18424
3.24502
3.31778
3.40404
3.50393
3.61612
3.73918
3.86808
3.99441
4.11017
4.20984
4.29186
4.35885
4.41656
4.47195
4.53119
4.5975
4.67123
4.75234
4.84089
4.93724
5.0424
5.15799
5.28811
5.44308
5.63216
5.84693
6.06138
6.24328
6.37088
6.43337
6.42434
6.33744
6.16966
5.92942
5.64138
5.34139
5.06285
4.81439
4.58615
4.37157
4.17021
3.98258
3.80923
3.65081
3.50794
3.38039
3.26748
3.16838
3.08249
3.01073
2.95413
2.9141
2.89188
2.888
2.90458
2.93767
2.97758
3.01372
3.03762
3.04519
3.03769
3.02071
3.00201
2.98878
2.98466
2.98885
2.99918
3.01311
3.02729
3.03792
3.04117
3.03417
3.0153
2.98463
2.94413
2.89775
2.85112
2.81122
2.7851
2.77881
2.79631
2.83884
2.90797
3.0048
3.12266
3.24271
3.34257
3.40353
3.41448
3.37505
3.29622
3.19728
3.09898
3.01598
2.95028
2.8954
2.84743
2.80627
2.77429
2.75538
2.75416
2.77409
2.81882
2.8864
2.96662
3.04654
3.11394
3.16005
3.18085
3.17692
3.15252
3.11462
3.07267
3.03514
3.00997
3.00385
3.02483
3.08224
3.17082
3.27076
3.35914
3.41651
3.43152
3.40291
3.33918
3.25663
3.17586
3.11698
3.09097
3.09829
3.14515
3.21919
3.29459
3.34464
3.34923
3.30009
3.20276
3.07482
2.94032
2.82202
2.73181
2.66611
2.61797
2.58519
2.5679
2.56665
2.58668
2.6389
2.73599
2.87092
3.02373
3.17551
3.31483
3.11605
2.43762
1.35951
0.200567
-0.466063
0
1.98737
5.44122
9.81978
14.2367
17.7147
19.4775
19.1914
17.0727
13.7985
10.2429
7.15634
4.94368
3.63283
3.00842
2.8065
2.78042
2.75321
2.72267
2.68726
2.64627
2.59997
2.54948
2.49658
2.44347
2.39237
2.34533
2.30405
2.26986
2.24383
2.22694
2.22034
2.22552
2.24445
2.27934
2.33233
2.40503
2.49779
2.61313
2.75489
2.91068
3.05781
3.1742
3.24546
3.26967
3.25788
3.23021
3.20952
3.21528
3.25089
3.31059
3.39101
3.49
3.60439
3.73007
3.86242
3.99685
4.1293
4.25663
4.3769
4.48947
4.59486
4.69438
4.78963
4.88193
4.97191
5.05865
5.13857
5.20476
5.24803
5.25803
5.22472
5.14043
5.00195
4.81243
4.58217
4.32777
4.06937
3.82517
3.60357
3.40752
3.23936
3.09797
2.97971
2.87964
2.79288
2.71563
2.64581
2.583
2.52809
2.48247
2.44744
2.42361
2.4106
2.40703
2.41076
2.41917
2.42943
2.43866
2.44371
2.44155
2.42964
2.40625
2.37095
2.32505
2.27164
2.21528
2.16132
2.11484
2.07885
2.05484
2.04356
2.04441
2.05429
2.06944
2.08642
2.10267
2.11682
2.12843
2.13758
2.14419
2.1478
2.14743
2.14191
2.13038
2.1127
2.08965
2.06284
2.0343
2.00598
1.97926
1.95485
1.93305
1.91386
1.89731
1.88374
1.87404
1.86977
1.87316
1.88694
1.91372
1.95609
2.01585
2.09968
2.21566
2.35173
2.48362
2.58589
2.64073
2.64396
2.60593
2.54674
2.48839
2.44707
2.42321
2.4107
2.40641
2.40676
2.40886
2.41133
2.41442
2.41959
2.42863
2.44294
2.46277
2.48792
2.51819
2.55356
2.59418
2.6402
2.69141
2.74679
2.80435
2.86173
2.91655
2.96666
3.0105
3.04739
3.07743
3.10127
3.11969
3.13315
3.14104
3.1415
3.13231
3.11098
3.07579
3.02669
2.96585
2.89747
2.82688
2.75919
2.69847
2.64618
2.60064
2.55858
2.51708
2.47533
2.43549
2.40234
2.38184
2.37911
2.39943
2.44095
2.49709
2.55895
2.51598
2.0239
1.16844
0.223361
-0.363616
0
1.67063
4.68863
8.70859
13.0542
16.8707
19.3478
19.9672
18.6847
15.9491
12.5322
9.23892
6.63789
4.93287
4.00321
3.55965
3.29616
3.02762
2.76849
2.53407
2.33986
2.20034
2.12521
2.11623
2.16596
2.25901
2.37552
2.49605
2.60706
2.7051
2.79204
2.86936
2.93543
2.98978
3.03195
3.06224
3.08248
3.09649
3.10963
3.12788
3.15652
3.19812
3.25186
3.31688
3.39244
3.47744
3.57069
3.6712
3.77834
3.89188
4.01195
4.13873
4.2722
4.41172
4.55577
4.70179
4.84633
4.98533
5.115
5.23252
5.33671
5.42833
5.50997
5.5855
5.65934
5.73546
5.8176
5.90831
6.00464
6.09722
6.17437
6.22498
6.24076
6.21706
6.15272
6.0492
5.90989
5.74066
5.55099
5.34925
5.1421
4.93502
4.73238
4.53788
4.35527
4.18817
4.04025
3.9147
3.81531
3.75171
3.73547
3.76049
3.80655
3.85063
3.87354
3.86535
3.82722
3.76968
3.70809
3.65717
3.62328
3.60416
3.59752
3.59912
3.60382
3.60733
3.60738
3.60411
3.59922
3.5946
3.59096
3.58671
3.57877
3.56452
3.5439
3.52045
3.50056
3.49119
3.49713
3.51717
3.54839
3.58402
3.61611
3.63785
3.64548
3.63904
3.62197
3.59978
3.57806
3.56062
3.54827
3.53981
3.53264
3.52364
3.51021
3.4911
3.46667
3.43866
3.40974
3.38291
3.36046
3.34408
3.33521
3.33515
3.34495
3.36333
3.38514
3.40388
3.41335
3.40948
3.39151
3.36224
3.32703
3.29214
3.2628
3.24087
3.22559
3.21562
3.2094
3.20526
3.2019
3.19874
3.19594
3.19429
3.19499
3.19935
3.20852
3.22345
3.24492
3.27346
3.30933
3.35238
3.40204
3.45724
3.51629
3.57684
3.63535
3.68674
3.72596
3.74851
40
254
473
672
886
1095
1289
1496
1709
1908
2119
2337
2544
2749
2959
3167
3365
3577
2932
3091
3248
3406
3560
3712
0
0
0
0
0
0
0
0
0
0
0
0
0
0
0
0
0
0
0
0
0
0
0
0
0
0
0
0
0
0
0
0
0
0
0
0
0
0
0
0
0
0
0
0
0
0
0
0
0
0
0
0
0
0
0
0
0
0
0
0
0
0
0
0
0
0
0
0
0
0
0
0
0
0
0
0
0
0
0
0
0
0
0
0
0
0
0
0
0
0
0
0
0
0
0
0
0
0
0
0
0
0
0
0
0
0
0
0
0
0
0
0
0
0
0
0
0
0
0
0
0
0
0
0
0
0
0
0
0
0
0
0
0
0
0
0
0
0
0
0
0
0
0
0
0
0
0
0
0
0
0
0
0
0
0
0
0
0
0
0
0
0
0
0
0
0
0
0
0
0
0
0
0
0
0
0
0
0
0
0
0
0
0
0
0
0
0
0
0
0
0
0
0
0
0
0
0
0
0
0
0
0
0
0
0
0
0
0
0
0
0
0
0
0
0
0
0
0
0
0
0
0
0
0
0
0
0
0
0
0
0
0
0
0
0
0
0
0
0
0
0
0
0
0
0
0
0
0
0
0
0
0
0
0
0
0
0
0
0
0
0
0
0
0
0
0
0
0
0
0
0
0
0
0
0
0
0
0
0
0
0
0
0
0
0
0
0
0
0
0
0
0
0
0
0
0
0
0
0
0
0
0
0
0
0
0
0
0
0
0
0
0
0
0
0
0
0
0
0
0
0
0
0
0
0
0
0
0
0
0
0
0
0
0
0
0
0
0
0
0
0
0
0
0
0
0
0
0
0
0
0
0
0
0
0
0
0
0
0
0
0
0
0
0
0
0
0
0
0
0
0
0
0
0
0
0
0
0
0
0
0
0
0
0
0
0
0
0
0
0
0
0
0
0
0
0
0
0
0
0
0
0
0
0
0
0
0
0
0
0
0
0
0
0
0
0
0
0
0
0
0
0
0
0
0
0
0
0
0
0
0
0
0
0
0
0
0
0
0
0
0
0
0
0
0
0
0
0
0
0
0
0
0
0
0
0
0
0
0
0
0
0
0
0
0
0
0
0
0
0
0
0
0
0
0
0
0
0
0
0
0
0
0
0
0
0
0
0
0
0
0
0
0
0
0
0
0
0
0
0
0
0
0
0
0
0
0
0
0
0
0
0
0
0
0
0
0
0
0
0
0
0
0
0
0
0
0
0
0
0
0
0
0
0
0
0
0
0
0
0
0
0
0
0
0
0
0
0
0
0
0
0
0
0
0
0
0
0
0
0
0
0
0
0
0
0
0
0
0
0
0
0
0
0
0
0
0
0
0
0
0
0
0
0
0
0
0
0
0
0
0
0
0
0
0
0
0
0
0
0
0
0
0
0
0
0
0
0
0
0
0
0
0
0
0
0
0
0
0
0
0
0
0
0
0
0
0
0
0
0
0
0
0
0
0
0
0
0
0
0
0
0
0
0
0
0
0
0
0
0
0
0
0
0
0
0
0
0
0
0
0
0
0
0
0
0
0
0
0
0
0
0
0
0
0
0
0
0
0
0
0
0
0
0
0
0
0
0
0
0
0
0
0
0
0
0
0
0
0
0
0
0
0
0
0
0
0
0
0
0
0
0
0
0
0
0
0
0
0
0
0
0
0
0
0
0
0
0
0
0
0
0
0
0
0
0
0
0
0
0
0
0
0
0
0
0
0
0
0
0
0
0
0
0
0
0
0
0
0
0
0
0
0
0
0
0
0
0
0
0
0
0
0
0
0
0
0
0
0
0
0
0
0
0
0
0
0
0
0
0
0
0
0
0
0
0
0
0
0
0
0
0
0
0
0
0
0
0
0
0
0
0
0
0
0
0
0
0
0
0
0
0
0
0
0
0
0
0
0
0
0
0
0
0
0
0
0
0
0
0
0
0
0
0
0
0
0
0
0
0
0
0
0
0
0
0
0
0
0
0
0
0
0
0
0
0
0
0
0
0
0
0
0
0
0
0
0
0
0
0
0
0
0
0
0
0
0
0
0
0
0
0
0
0
0
0
0
0
0
0
0
0
0
0
0
0
0
0
0
0
0
0
0
0
0
0
0
0
0
0
0
0
0
0
0
0
0
0
0
0
0
0
0
0
0
0
0
0
0
0
0
0
0
0
0
0
0
0
0
0
0
0
0
0
0
0
0
0
0
0
0
0
0
0
0
0
0
0
0
0
0
0
0
0
0
0
0
0
0
0
0
0
0
0
0
0
0
0
0
0
0
0
0
0
0
0
0
0
0
0
0
0
0
0
0
0
0
0
0
0
0
0
0
0
0
0
0
0
0
0
0
0
0
0
0
0
0
0
0
0
0
0
0
0
0
0
0
0
0
0
0
0
0
0
0
0
0
0
0
0
0
0
0
0
0
0
0
0
0
0
0
0
0
0
0
0
0
0
0
0
0
0
0
0
0
0
0
0
0
0
0
0
0
0
0
0
0
0
0
0
0
0
0
0
0
0
0
0
0
0
0
0
0
0
0
0
0
0
0
0
0
0
0
0
0
0
0
0
0
0
0
0
0
0
0
0
0
0
0
0
0
0
0
0
0
0
0
0
0
0
0
0
0
0
0
0
0
0
0
0
0
0
0
0
0
0
0
0
0
0
0
0
0
0
0
0
0
0
0
0
0
0
0
0
0
0
0
0
0
0
0
0
0
0
0
0
0
0
0
0
0
0
0
0
0
0
0
0
0
0
0
0
0
0
0
0
0
0
0
0
0
0
0
0
0
0
0
0
0
0
0
0
0
0
0
0
0
0
0
0
0
0
0
0
0
0
0
0
0
0
0
0
0
0
0
0
0
0
0
0
0
0
0
0
0
0
0
0
0
0
0
0
0
0
0
0
0
0
0
0
0
0
0
0
0
0
0
0
0
0
0
0
0
0
0
0
0
0
0
0
0
0
0
0
0
0
0
0
0
0
0
0
0
0
0
0
0
0
0
0
0
0
0
0
0
0
0
0
0
0
0
0
0
0
0
0
0
0
0
0
0
0
0
0
0
0
0
0
0
0
0
0
0
0
0
0
0
0
0
0
0
0
0
0
0
0
0
0
0
0
0
0
0
0
0
0
0
0
0
0
0
0
0
0
0
0
0
0
0
0
0
0
0
0
0
0
0
0
0
0
0
0
0
0
0
0
0
0
0
0
0
0
0
0
0
0
0
0
0
0
0
0
0
0
0
0
0
0
0
0
0
0
0
0
0
0
0
0
0
0
0
0
0
0
0
0
0
0
0
0
0
0
0
0
0
0
0
0
0
0
0
0
0
0
0
0
0
0
0
0
0
0
0
0
0
0
0
0
0
0
0
0
0
0
0
0
0
0
0
0
0
0
0
0
0
0
0
0
0
0
0
0
0
0
0
0
0
0
0
0
0
0
0
0
0
0
0
0
0
0
0
0
0
0
0
0
0
0
0
0
0
0
0
0
0
0
0
0
0
0
0
0
0
0
0
0
0
0
0
0
0
0
0
0
0
0
0
0
0
0
0
0
0
0
0
0
0
0
0
0
0
0
0
0
0
0
0
0
0
0
0
0
0
0
0
0
0
0
0
0
0
0
0
0
0
0
0
0
0
0
0
0
0
0
0
0
0
0
0
0
0
0
0
0
0
0
0
0
0
0
0
0
0
0
0
0
0
0
0
0
0
0
0
0
0
0
0
0
0
0
0
0
0
0
0
0
0
0
0
0
0
0
0
0
0
0
0
0
0
0
0
0
0
0
0
0
0
0
0
0
0
0
0
0
0
0
0
0
0
0
0
0
0
0
0
0
0
0
0
0
0
0
0
0
0
0
0
0
0
0
0
0
0
0
0
0
0
0
0
0
0
0
0
0
0
0
0
0
0
0
0
0
0
0
0
0
0
0
0
0
0
0
0
0
0
0
0
0
0
0
0
0
0
0
0
0
0
0
0
0
0
0
0
0
0
0
0
0
0
0
0
0
0
0
0
0
0
0
0
0
0
0
0
0
0
0
0
0
0
0
0
0
0
0
0
0
0
0
0
0
0
0
0
0
0
0
0
0
0
0
0
0
0
0
0
0
0
0
0
0
0
0
0
0
0
0
0
0
0
0
0
0
0
0
0
0
0
0
0
0
0
0
0
0
0
0
0
0
0
0
0
0
0
0
0
0
0
0
0
0
0
0
0
0
0
0
0
0
0
0
0
0
0
0
0
0
0
0
0
0
0
0
0
0
0
0
0
0
0
0
0
0
0
0
0
0
0
0
0
0
0
0
0
0
0
0
0
0
0
0
0
0
0
0
0
0
0
0
0
0
0
0
0
0
0
0
0
0
0
0
0
0
0
0
0
0
0
0
0
0
0
0
0
0
0
0
0
0
0
0
0
0
0
0
0
0
0
0
0
0
0
0
0
0
0
0
0
0
0
0
0
0
0
0
0
0
0
0
0
0
0
0
0
0
0
0
0
0
0
0
0
0
0
0
0
0
0
0
0
0
0
0
0
0
0
0
0
0
0
0
0
0
0
0
0
0
0
0
0
0
0
0
0
0
0
0
0
0
0
0
0
0
0
0
0
0
0
0
0
0
0
0
0
0
0
0
0
0
0
0
0
0
0
0
0
0
0
0
0
0
0
0
0
0
0
0
0
0
0
0
0
0
0
0
0
0
0
0
0
0
0
0
0
0
0
0
0
0
0
0
0
0
0
0
0
0
0
0
0
0
0
0
0
0
0
0
0
0
0
0
0
0
0
0
0
0
0
0
0
0
0
0
0
0
0
0
0
0
0
0
0
0
0
0
0
0
0
0
0
0
0
0
0
0
0
0
0
0
0
0
0
0
0
0
0
0
0
0
0
0
0
0
0
0
0
0
0
0
0
0
0
0
0
0
0
0
0
0
0
0
0
0
0
0
0
0
0
0
0
0
0
0
0
0
0
0
0
0
0
0
0
0
0
0
0
0
0
0
0
0
0
0
0
0
0
0
0
0
0
0
0
0
0
0
0
0
0
0
0
0
0
0
0
0
0
0
0
0
0
0
0
0
0
0
0
0
0
0
0
0
0
0
0
0
0
0
0
0
0
0
0
0
0
0
0
0
0
0
0
0
0
0
0
0
0
0
0
0
0
0
0
0
0
0
0
0
0
0
0
0
0
0
0
0
0
0
0
0
0
0
0
0
0
0
0
0
0
0
0
0
0
0
0
0
0
0
0
0
0
0
0
0
0
0
0
0
0
0
0
0
0
0
0
0
0
0
0
0
0
0
0
0
0
0
0
0
0
0
0
0
0
0
0
0
0
0
0
0
0
0
0
0
0
0
0
0
0
0
0
0
0
0
0
0
0
0
0
0
0
0
0
0
0
0
0
0
0
0
0
0
0
0
0
0
0
0
0
0
0
0
0
0
0
0
0
0
0
0
0
0
0
0
0
0
0
0
0
0
0
0
0
0
0
0
0
0
0
0
0
0
0
0
0
0
0
0
0
0
0
0
0
0
0
0
0
0
0
0
0
0
0
0
0
0
0
0
0
0
0
0
0
0
0
0
0
0
0
0
0
0
0
0
0
0
0
0
0
0
0
0
0
0
0
0
0
0
0
0
0
0
0
0
0
0
0
0
0
0
0
0
0
0
0
0
0
0
0
0
0
0
0
0
0
0
0
0
0
0
0
0
0
0
0
0
0
0
0
0
0
0
0
0
0
0
0
0
0
0
0
0
0
0
0
0
0
0
0
0
0
0
0
0
0
0
0
0
0
0
0
0
0
0
0
0
0
0
0
0
0
0
0
0
0
0
0
0
0
0
0
0
0
0
0
0
0
0
0
0
0
0
0
0
0
0
0
0
0
0
0
0
0
0
0
0
0
0
0
0
0
0
0
0
0
0
0
0
0
0
0
0
0
0
0
0
0
0
0
0
0
0
0
0
0
0
0
0
0
0
0
0
0
0
0
0
0
0
0
0
0
0
0
0
0
0
0
0
0
0
0
0
0
0
0
0
0
0
0
0
0
0
0
0
0
0
0
0
0
0
0
0
0
0
0
0
0
0
0
0
0
0
0
0
0
0
0
0
0
0
0
0
0
0
0
0
0
0
0
0
0
0
0
0
0
0
0
0
0
0
0
0
0
0
0
0
0
0
0
0
0
0
0
0
0
0
0
0
0
0
0
0
0
0
0
0
0
0
0
0
0
0
0
0
0
0
0
0
0
0
0
0
0
0
0
0
0
0
0
0
0
0
0
0
0
0
0
0
0
0
0
0
0
0
0
0
0
0
0
0
0
0
0
0
0
0
0
0
0
0
0
0
0
0
0
0
0
0
0
0
0
0
0
0
0
0
0
0
0
0
0
0
0
0
0
0
0
0
0
0
0
0
0
0
0
0
0
0
0
0
0
0
0
0
0
0
0
0
0
0
0
0
0
0
0
0
0
0
0
0
0
0
0
0
0
0
0
0
0
0
0
0
0
0
0
0
0
0
0
0
0
0
0
0
0
0
0
0
0
0
0
0
0
0
0
0
0
0
0
0
0
0
0
0
0
0
0
0
0
0
0
0
0
0
0
0
0
0
0
0
0
0
0
0
0
0
0
0
0
0
0
0
0
0
0
0
0
0
0
0
0
0
0
0
0
0
0
0
0
0
0
0
0
0
0
0
0
0
0
0
0
0
0
0
0
0
0
0
0
0
0
0
0
0
0
0
0
0
0
0
0
0
0
0
0
0
0
0
0
0
0
0
0
0
0
0
0
0
0
0
0
0
0
0
0
0
0
0
0
0
0
0
0
0
0
0
0
0
0
0
0
0
0
0
0
0
0
0
0
0
0
0
0
0
0
0
0
0
0
0
0
0
0
0
0
0
0
0
0
0
0
0
0
0
0
0
0
0
0
0
0
0
0
0
0
0
0
0
0
0
0
0
0
0
0
0
0
0
0
0
0
0
0
0
0
0
0
0
0
0
0
0
0
0
0
0
0
0
0
0
0
0
0
0
0
0
0
0
0
0
0
0
0
0
0
0
0
0
0
0
0
0
0
0
0
0
0
0
0
0
0
0
0
0
0
0
0
0
0
0
0
0
0
0
0
0
0
0
0
0
0
0
0
0
0
0
0
0
0
0
0
0
0
0
0
0
0
0
0
0
0
0
0
0
0
0
0
0
0
0
0
0
0
0
0
0
0
0
0
0
0
0
0
0
0
0
0
0
0
0
0
0
0
0
0
0
0
0
0
0
0
0
0
0
0
0
0
0
0
0
0
0
0
0
0
0
0
0
0
0
0
0
0
0
0
0
0
0
0
0
0
0
0
0
0
0
0
0
0
0
0
0
0
0
0
0
0
0
0
0
0
0
0
0
0
0
0
0
0
0
0
0
0
0
0
0
0
0
0
0
0
0
0
0
0
0
0
0
0
0
0
0
0
0
0
0
0
0
0
0
0
0
0
0
0
0
0
0
0
0
0
0
0
0
0
0
0
0
0
0
0
0
0
0
0
0
0
0
0
0
0
0
0
0
0
0
0
0
0
0
0
0
0
0
0
0
0
0
0
0
0
0
0
0
0
0
0
0
0
0
0
0
0
0
0
0
0
0
0
0
0
0
0
0
0
0
0
0
0
0
0
0
0
0
0
0
0
0
0
0
0
0
0
0
0
0
0
0
0
0
0
0
0
0
0
0
0
0
0
0
0
0
0
0
0
0
0
0
0
0
0
0
0
0
0
0
0
0
0
0
0
0
0
0
0
0
0
0
0
0
0
0
0
0
0
0
0
0
0
0
0
0
0
0
0
0
0
0
0
0
0
0
0
0
0
0
0
0
0
0
0
0
0
0
0
0
0
0
0
0
0
0
0
0
0
0
0
0
0
0
0
0
0
0
0
0
0
0
0
0
0
0
0
0
0
0
0
0
0
0
0
0
0
0
0
0
0
0
0
0
0
0
0
0
0
0
0
0
0
0
0
0
0
0
0
0
0
0
0
0
0
0
0
0
0
0
0
0
0
0
0
0
0
0
0
0
0
0
0
0
0
0
0
0
0
0
0
0
0
0
0
0
0
0
0
0
0
0
0
0
0
0
0
0
0
0
0
0
0
0
0
0
0
0
0
0
0
0
0
0
0
0
0
0
0
0
0
0
0
0
0
0
0
0
0
0
0
0
0
0
0
0
0
0
0
0
0
0
0
0
0
0
0
0
0
0
0
0
0
0
0
0
0
0
0
0
0
0
0
0
0
0
0
0
0
0
0
0
0
0
0
0
0
0
0
0
0
0
0
0
0
0
0
0
0
0
0
0
0
0
0
0
0
0
0
0
0
0
0
0
0
0
0
0
0
0
0
0
0
0
0
0
0
0
0
0
0
0
0
0
0
0
0
0
0
0
0
0
0
0
0
0
0
0
0
0
0
0
0
0
0
0
0
0
0
0
0
0
0
0
0
0
0
0
0
0
0
0
0
0
0
