1.00701
0.94599
0.897502
0.862442
0.839726
0.826621
0.819467
0.813994
0.805426
0.790161
0.766472
0.734845
0.697815
0.65923
0.623125
0.592619
0.569246
0.552419
0.54147
0.535841
0.535669
0.541885
0.555768
0.578151
0.608505
0.645171
0.684224
0.720049
0.746501
0.757971
0.750226
0.721031
0.670445
0.600865
0.51678
0.424295
0.330394
0.241455
0.16212
0.0950165
0.0417999
0.0030899
-0.0222382
-0.0371292
-0.0448853
-0.0483475
-0.0493042
-0.0483185
-0.0450043
-0.0386749
-0.0287201
-0.0159134
-0.00437775
0
0.0305466
0.0436478
0.0374908
-0.289391
-0.54769
-0.0944733
1.34011
3.498
5.71324
7.32637
7.98573
7.61732
6.26992
4.13229
1.68397
-0.350182
-1.38574
-1.38723
-0.932851
-0.699655
-0.488066
-0.303996
-0.152142
-0.0320694
0.0552277
0.111615
0.14261
0.157214
0.166264
0.17975
0.204002
0.237842
0.277985
0.320114
0.359239
0.391238
0.414127
0.428685
0.438373
0.448535
0.465131
0.493359
0.535165
0.589836
0.656407
0.73286
0.816302
0.903618
0.991731
1.07828
1.16198
1.24274
1.32157
1.40021
1.48074
1.56506
1.6545
1.74935
1.84905
1.95241
2.05775
2.16272
2.26482
2.3618
2.45174
2.53291
2.60265
2.65362
2.67999
2.67479
2.63211
2.54978
2.4314
2.28625
2.12679
1.9649
1.80826
1.65785
1.51325
1.37319
1.23729
1.10709
0.986214
0.879446
0.791287
0.721948
0.672713
0.643028
0.630499
0.633272
0.64686
0.660937
0.66492
0.650302
0.613074
0.555289
0.484955
0.413991
0.354831
0.316316
0.298636
0.302423
0.323108
0.351024
0.375647
0.388559
0.385647
0.368284
0.343275
0.321529
0.315685
0.337204
0.400985
0.534664
0.719318
0.911227
1.06575
1.15339
1.16773
1.12316
1.04544
0.961057
0.890504
0.838898
0.802905
0.779771
0.7678
0.765978
0.771703
0.781863
0.793431
0.80409
0.812652
0.819134
0.824486
0.830058
0.836985
0.845673
0.855907
0.866876
0.877422
0.886331
0.892612
0.895628
0.895139
0.891272
0.884541
0.875773
0.866034
0.856694
0.849383
0.845866
0.847807
0.856541
0.872907
0.89689
0.927332
0.962018
0.997879
1.03112
1.05775
1.07425
1.078
1.06757
1.04286
1.00492
0.955735
0.897832
0.834021
0.767404
0.700776
0.636697
0.577584
0.525509
0.482393
0.449571
0.425264
0.405331
0.384553
0.35788
0.321619
0.274127
0.215862
0.14887
0.076059
0
-0.00564117
0.18957
0.911203
2.46733
4.89312
7.77092
10.2796
11.5052
10.8765
8.48538
5.08766
1.76397
-0.571965
-1.54512
-1.38208
-0.711669
-0.140195
0.203979
0.322077
0.371613
0.41907
0.469707
0.52678
0.593166
0.673186
0.775225
0.901527
1.03087
1.13279
1.17786
1.15096
1.06072
0.93941
0.831687
0.776694
0.782932
0.82172
0.884691
0.96089
1.03961
1.11291
1.1786
1.23593
1.28594
1.33129
1.37591
1.42448
1.48209
1.55364
1.64308
1.75641
1.90766
2.08683
2.26613
2.41575
2.51555
2.5627
2.57138
2.5648
2.56397
2.57904
2.60306
2.62926
2.65135
2.66394
2.66361
2.64914
2.62087
2.57969
2.527
2.46334
2.38799
2.29952
2.19662
2.07876
1.94609
1.8001
1.64357
1.48032
1.31473
1.15119
0.993762
0.846046
0.711127
0.591991
0.490789
0.408994
0.34785
0.308668
0.289479
0.287215
0.29854
0.320625
0.351635
0.390695
0.437881
0.494164
0.556376
0.615512
0.659873
0.678612
0.665721
0.622851
0.559867
0.492979
0.441053
0.418983
0.429216
0.507973
0.676935
0.886701
1.07294
1.18152
1.18923
1.11118
0.991448
0.882094
0.821948
0.812782
0.82971
0.860205
0.898914
0.941266
0.981809
1.01421
1.03232
1.03112
1.00757
0.961674
0.89715
0.821529
0.745317
0.680327
0.645342
0.677764
0.766935
0.877216
0.965823
1.00257
0.982434
0.92482
0.861292
0.819376
0.811628
0.822746
0.842476
0.866985
0.893188
0.918899
0.942725
0.963696
0.980999
0.993863
1.00175
1.00474
1.00394
1.00161
1.00094
1.00547
1.01825
1.04091
1.07538
1.1194
1.16371
1.19656
1.20663
1.18589
1.13146
1.04607
0.936961
0.814082
0.688168
0.567902
0.45801
0.362554
0.285738
0.232047
0.211097
0.240169
0.332442
0.472813
0.622421
0.741844
0.80038
0.78107
0.68253
0.519096
0.318913
0
0.0991348
1.03539
3.03803
5.88106
8.81784
10.828
11.0919
9.43004
6.42607
3.13434
0.548854
-0.836245
-1.12548
-0.782249
-0.411504
-0.0872547
0.15343
0.289204
0.371812
0.427344
0.45848
0.468845
0.462948
0.446168
0.424802
0.405713
0.396083
0.402459
0.429671
0.479743
0.551219
0.639211
0.736279
0.833921
0.924266
1.00272
1.06637
1.11482
1.14993
1.17527
1.19561
1.21605
1.24152
1.27663
1.32539
1.39055
1.4734
1.5737
1.68951
1.81825
1.95497
2.0912
2.21809
2.328
2.4157
2.47893
2.51825
2.53649
2.53781
2.52686
2.50876
2.4872
2.46432
2.44085
2.41549
2.38453
2.34285
2.28569
2.21059
2.11865
2.01454
1.905
1.79652
1.69265
1.59255
1.49417
1.3942
1.28888
1.17516
1.05178
0.919966
0.78336
0.648594
0.524257
0.418521
0.337239
0.287301
0.266018
0.265394
0.275019
0.284817
0.287257
0.278466
0.258191
0.228984
0.195116
0.161547
0.13229
0.110983
0.10051
0.102673
0.117947
0.145385
0.182718
0.226646
0.273246
0.31843
0.358053
0.388337
0.40658
0.411291
0.402445
0.381619
0.351884
0.317379
0.2826
0.25154
0.226628
0.208228
0.19578
0.187614
0.181305
0.174238
0.164245
0.150058
0.131525
0.109559
0.0858074
0.0621605
0.0401943
0.0208027
0.00382652
-0.0117916
-0.0276085
-0.045126
-0.0652416
-0.0878674
-0.111812
-0.134945
-0.154547
-0.16781
-0.172445
-0.167085
-0.151548
-0.126852
-0.0950031
-0.0586273
-0.0205185
0.0167629
0.0513016
0.0817406
0.107408
0.12864
0.14672
0.163855
0.182976
0.207285
0.239568
0.284065
0.341912
0.407212
0.470663
0.52205
0.552823
0.557788
0.535498
0.487703
0.418583
0.335014
0.245509
0.1572
0.076899
0.0109573
-0.0355751
-0.0596676
-0.0606136
-0.0397991
0
0.0625317
0.137796
0.222601
0.314743
0.413047
0.516314
0.623062
0.733304
0.696138
0.842398
1.57709
3.14846
5.40614
7.74723
9.32828
9.45973
7.97168
5.33035
2.4279
0.164639
-0.940037
-0.904272
-0.191713
0.412935
0.843135
1.04133
1.05502
1.0436
1.03606
1.05389
1.10722
1.1841
1.28173
1.39157
1.49683
1.58112
1.63293
1.64884
1.63576
1.6103
1.59425
1.60679
1.65657
1.73147
1.81795
1.90379
1.97902
2.03925
2.08686
2.1298
2.17857
2.24261
2.3252
2.42302
2.53223
2.64969
2.77043
2.88647
2.98993
3.07508
3.13969
3.18579
3.21961
3.25028
3.28779
3.34058
3.41576
3.52133
3.65225
3.78571
3.89623
3.96288
3.97413
3.93013
3.84178
3.72663
3.602
3.47762
3.3514
3.21772
3.07281
2.91388
2.73908
2.54897
2.34729
2.1409
1.9389
1.75252
1.60098
1.51762
1.52318
1.58868
1.6706
1.72709
1.73091
1.67521
1.57233
1.44737
1.32917
1.24035
1.18234
1.14729
1.12955
1.12747
1.13926
1.16278
1.19552
1.23487
1.27831
1.32288
1.36581
1.40493
1.43903
1.468
1.49274
1.51474
1.53557
1.55622
1.57675
1.59614
1.61248
1.62354
1.62741
1.62313
1.61097
1.59237
1.56955
1.54493
1.52061
1.49805
1.47823
1.46184
1.44958
1.44215
1.44022
1.44408
1.45342
1.46692
1.48237
1.49698
1.50777
1.51208
1.50795
1.49444
1.47178
1.4417
1.40703
1.37128
1.33832
1.31198
1.29531
1.29092
1.2997
1.31989
1.34681
1.37393
1.3949
1.4049
1.40163
1.38582
1.36094
1.33255
1.30721
1.29117
1.28836
1.30014
1.32657
1.36784
1.42403
1.4927
1.56688
1.63746
1.69529
1.73255
1.74392
1.72745
1.68495
1.62189
1.54683
1.47033
1.40189
1.34851
1.31604
1.31005
1.32807
1.35999
1.39293
1.4144
1.41507
1.39049
1.34157
1.27394
1.19623
1.1177
1.04499
0.980016
0.920678
0.863242
0.802678
0.733397
0.650474
0.5507
0.433263
0.299922
0.154719
0
-0.0232461
0.23964
1.00606
2.50357
4.74393
7.34104
9.53929
10.5151
9.8047
7.58452
4.60855
1.83281
-0.0370662
-0.804683
-0.736431
-0.394977
-0.143377
0.0616401
0.213996
0.321955
0.409755
0.480955
0.536014
0.575054
0.598458
0.607559
0.605126
0.595434
0.583837
0.575952
0.576332
0.587174
0.609836
0.644761
0.689445
0.737392
0.779932
0.80913
0.819777
0.81089
0.78628
0.754034
0.725029
0.710856
0.72067
0.756437
0.816146
0.897798
0.999034
1.11666
1.24643
1.37935
1.5047
1.61353
1.70057
1.76514
1.81068
1.84304
1.86797
1.88793
1.90147
1.90248
1.88338
1.83913
1.76976
1.68061
1.57998
1.47583
1.37293
1.27187
1.17205
1.07269
0.973107
0.873012
0.77258
0.672188
0.571998
0.47156
0.369605
0.264224
0.153411
0.0358692
-0.0881513
-0.216265
-0.343827
-0.464389
-0.567502
-0.62637
-0.608965
-0.537378
-0.455888
-0.410063
-0.424499
-0.491631
-0.577993
-0.644685
-0.670512
-0.669534
-0.66563
-0.676928
-0.715192
-0.780873
-0.862936
-0.943358
-1.00411
-1.03557
-1.04514
-1.03655
-1.01374
-0.981718
-0.945521
-0.909147
-0.875072
-0.844678
-0.818456
-0.796337
-0.778259
-0.764286
-0.754518
-0.749213
-0.74852
-0.752183
-0.759376
-0.768746
-0.778658
-0.787534
-0.794246
-0.798373
-0.799836
-0.798983
-0.796348
-0.79256
-0.788066
-0.782731
-0.775671
-0.765336
-0.749906
-0.727622
-0.695663
-0.656796
-0.617586
-0.585548
-0.565974
-0.559535
-0.56195
-0.56583
-0.563657
-0.55035
-0.527297
-0.496902
-0.460314
-0.418941
-0.374235
-0.327614
-0.280478
-0.234276
-0.190444
-0.150298
-0.114904
-0.0849654
-0.0610202
-0.0429348
-0.0300068
-0.0209847
-0.0140604
-0.00696325
0.00278955
0.0174983
0.0388418
0.0675362
0.102812
0.143294
0.187235
0.232559
0.27703
0.318043
0.352185
0.376276
0.38794
0.386167
0.372153
0.349718
0.324899
0.304617
0.294758
0.301744
0.323216
0.351558
0.376917
0.390869
0.389001
0.371354
0.340919
0.301403
0.255734
0.206962
0.156927
0.108
0.0639092
0.0290017
0.00706105
0
0.00896983
0.028558
0.053482
0.0780047
0.097443
0.0743531
0.101331
0.661904
2.04421
4.29847
7.07492
9.63157
11.0878
10.841
8.90806
5.95579
2.97929
0.822104
-0.165174
-0.153718
0.393113
0.773916
1.08546
1.28411
1.35942
1.33025
1.23142
1.1003
0.970077
0.86831
0.805352
0.780229
0.789501
0.829542
0.895956
0.985706
1.09426
1.21067
1.32245
1.41902
1.49379
1.54539
1.57766
1.59833
1.61706
1.64308
1.68222
1.7359
1.8028
1.88042
1.96554
2.05461
2.14424
2.23189
2.31631
2.39745
2.47624
2.55401
2.63183
2.71009
2.78822
2.86462
2.93724
3.00426
3.06456
3.11798
3.16497
3.20537
3.23749
3.25911
3.26652
3.256
3.22565
3.17654
3.11264
3.03925
2.96074
2.87872
2.79245
2.69924
2.59664
2.484
2.36343
2.2398
2.11964
2.00961
1.91252
1.82988
1.76276
1.71008
1.66853
1.63431
1.60413
1.57597
1.54928
1.52486
1.50431
1.48932
1.48088
1.47926
1.48448
1.49618
1.51391
1.53724
1.56579
1.59913
1.63672
1.67784
1.72165
1.7674
1.81471
1.86366
1.91473
1.96857
2.02583
2.08639
2.14778
2.20484
2.2511
2.28039
2.2884
2.27379
2.23856
2.18755
2.12735
2.0649
2.00562
1.95198
1.90425
1.86138
1.82074
1.77833
1.72983
1.67162
1.60187
1.52126
1.43328
1.34385
1.2604
1.19029
1.13955
1.11551
1.12432
1.16465
1.2245
1.28632
1.33413
1.3573
1.3526
1.3241
1.28101
1.23403
1.19147
1.15627
1.12605
1.0979
1.06971
1.04103
1.01357
0.990248
0.975471
0.96956
0.959859
0.925767
0.847261
0.715224
0.533053
0.332761
0.157952
0.0476263
0.0219746
0.076468
0.186167
0.31714
0.438794
0.536161
0.609944
0.655075
0.670469
0.656479
0.615331
0.552206
0.476039
0.399258
0.336184
0.309473
0.385853
0.606417
0.887094
1.13145
1.26869
1.26907
1.14253
0.927585
0.676764
0.443805
0.271166
0.155395
0.0761635
0.0207167
-0.0157194
-0.034137
-0.0390073
-0.0353702
-0.0277726
-0.0193946
-0.0116614
-0.00444757
0.0032648
0.0125834
0.023987
0.0371331
0.0514901
0.067304
0
0.210778
1.03501
2.70736
5.12557
7.71366
9.55125
9.78426
8.10475
4.98388
1.47265
-1.32321
-2.76224
-2.86905
-2.14437
-1.19317
-0.396704
0.124277
0.329959
0.277122
0.211092
0.140026
0.0685005
0.000469697
-0.0615867
-0.117438
-0.167727
-0.211599
-0.246702
-0.269503
-0.273921
-0.236419
-0.112365
0.0792871
0.277578
0.41368
0.441317
0.356623
0.198568
0.0307761
-0.0851305
-0.110462
-0.0764485
-0.0116158
0.0741828
0.17768
0.295909
0.425267
0.56227
0.699359
0.826868
0.935991
1.02088
1.0802
1.11757
1.14057
1.15886
1.18194
1.21598
1.26344
1.33041
1.4242
1.54363
1.66731
1.76637
1.81227
1.78529
1.68238
1.52068
1.33413
1.16259
1.0362
0.947498
0.876385
0.813414
0.748281
0.672069
0.579638
0.470984
0.351148
0.228742
0.113638
0.0132885
-0.0698195
-0.133002
-0.175346
-0.197552
-0.201599
-0.186652
-0.153369
-0.111077
-0.0713349
-0.0448165
-0.0380903
-0.0511531
-0.0771152
-0.104447
-0.120943
-0.117793
-0.0971163
-0.0642455
-0.0228037
0.0230482
0.0685885
0.109676
0.143561
0.1693
0.187818
0.201589
0.214005
0.228575
0.248114
0.274093
0.306244
0.342984
0.382129
0.421277
0.458098
0.490595
0.517279
0.537423
0.550915
0.558147
0.559868
0.557018
0.550559
0.541325
0.529888
0.516723
0.502271
0.487138
0.472238
0.458781
0.448078
0.441225
0.438836
0.440902
0.446747
0.455509
0.466668
0.480487
0.498174
0.521684
0.553349
0.596866
0.655913
0.729253
0.804779
0.865175
0.89407
0.881694
0.829073
0.749152
0.663983
0.598459
0.572603
0.585958
0.633963
0.714003
0.807931
0.892464
0.947146
0.958888
0.924522
0.851248
0.755147
0.657975
0.582645
0.542828
0.537793
0.561461
0.613786
0.694203
0.795825
0.906866
1.01222
1.09626
1.14702
1.15614
1.11935
1.03752
0.917898
0.774149
0.624294
0.486798
0.373538
0.284396
0.215363
0.165409
0.134891
0.123298
0.129578
0.156266
0.207027
0.271946
0.332993
0.371552
0.375205
0.343234
0.287608
0
0.0792558
0.793521
2.27037
4.38429
6.68074
8.44468
8.9665
7.90442
5.51961
2.59553
0.0594132
-1.46172
-1.87588
-1.53196
-0.961432
-0.487172
-0.191539
-0.0453036
0.0509691
0.129883
0.19742
0.252196
0.29242
0.317342
0.327547
0.32512
0.313642
0.297928
0.283493
0.275763
0.279413
0.297769
0.3319
0.381469
0.445879
0.524106
0.617777
0.735651
0.887321
1.05373
1.20052
1.28836
1.29174
1.21404
1.08986
0.973422
0.919071
0.960881
1.06391
1.19933
1.35541
1.52625
1.70633
1.88849
2.05995
2.20709
2.31861
2.38735
2.41343
2.40617
2.38236
2.36032
2.35212
2.35777
2.36496
2.35596
2.31504
2.23519
2.12036
1.98256
1.83587
1.69069
1.54928
1.41067
1.27414
1.13914
1.0057
0.874563
0.747109
0.624974
0.50958
0.401725
0.301376
0.207745
0.119601
0.0357344
-0.0446051
-0.121455
-0.194164
-0.261608
-0.322134
-0.374428
-0.41947
-0.459261
-0.495851
-0.530099
-0.560707
-0.583988
-0.594528
-0.586528
-0.556161
-0.504318
-0.42578
-0.316372
-0.189112
-0.0683975
0.0220863
0.0660124
0.058898
0.00868075
-0.0679751
-0.152116
-0.228884
-0.29391
-0.350285
-0.400755
-0.446925
-0.489796
-0.529757
-0.566496
-0.599162
-0.62662
-0.64781
-0.662052
-0.669221
-0.669765
-0.664621
-0.655077
-0.642694
-0.629163
-0.616399
-0.606555
-0.601967
-0.604919
-0.617433
-0.640987
-0.676274
-0.723062
-0.780187
-0.845662
-0.916827
-0.990627
-1.06305
-1.1278
-1.17776
-1.20613
-1.2074
-1.17891
-1.1221
-1.04283
-0.95041
-0.855713
-0.768947
-0.695496
-0.636927
-0.596358
-0.574274
-0.569672
-0.580166
-0.602098
-0.630781
-0.661045
-0.688062
-0.70828
-0.719086
-0.721379
-0.718242
-0.713289
-0.708963
-0.70537
-0.700199
-0.689747
-0.670636
-0.641467
-0.604739
-0.563896
-0.523066
-0.486193
-0.455913
-0.432801
-0.415186
-0.399499
-0.381014
-0.354934
-0.317558
-0.26108
-0.172301
-0.0519861
0.0734242
0.169932
0.208415
0.176918
0.0860916
-0.035908
-0.156306
-0.250746
-0.317295
-0.367342
-0.406739
-0.437338
-0.460629
-0.477791
-0.489509
-0.495812
-0.49564
-0.487771
-0.470674
-0.443003
-0.404176
-0.354861
-0.297201
-0.231654
-0.201633
0
0.803135
2.52506
5.08893
7.87701
9.92091
10.3702
8.96785
6.21386
3.09362
0.552927
-0.929548
-1.42481
-1.31842
-1.0854
-0.868809
-0.682812
-0.537025
-0.429287
-0.347836
-0.288352
-0.244803
-0.210644
-0.180102
-0.149234
-0.116615
-0.0826546
-0.0490856
-0.0180823
0.00860376
0.030254
0.0473919
0.0615973
0.0750712
0.0901587
0.108813
0.132515
0.16268
0.200797
0.248388
0.306924
0.377586
0.460905
0.556411
0.662358
0.776204
0.894273
1.0118
1.12455
1.22972
1.32644
1.41575
1.50001
1.58206
1.66419
1.74747
1.83143
1.91449
1.99428
2.06787
2.13146
2.18005
2.20968
2.21698
2.19963
2.15701
2.09076
2.00483
1.90501
1.79775
1.68899
1.58271
1.48066
1.38354
1.29113
1.20267
1.11742
1.03488
0.954988
0.878047
0.804658
0.735624
0.671958
0.614971
0.5664
0.528515
0.503922
0.496021
0.512387
0.568076
0.674184
0.809129
0.939326
1.03174
1.06482
1.03473
0.95473
0.848989
0.744373
0.663742
0.611205
0.58108
0.569085
0.572877
0.590998
0.621434
0.661925
0.710332
0.764874
0.824058
0.886835
0.952239
1.01866
1.08243
1.13817
1.1801
1.20368
1.20725
1.19284
1.16568
1.13269
1.10043
1.07318
1.05123
1.0335
1.01864
1.00462
0.989055
0.969652
0.944542
0.912769
0.874468
0.831175
0.785878
0.742965
0.707855
0.685979
0.681809
0.700103
0.748688
0.826456
0.917281
1.00177
1.06279
1.09008
1.08228
1.04615
0.993558
0.937581
0.888683
0.850318
0.821934
0.802169
0.789457
0.781706
0.776497
0.77156
0.765248
0.756912
0.747128
0.737719
0.731516
0.731875
0.742016
0.765072
0.80646
0.867323
0.937114
1.00191
1.04915
1.07223
1.07304
1.06128
1.05104
1.05595
1.08353
1.13701
1.21778
1.31127
1.39339
1.44056
1.43582
1.37373
1.26266
1.12288
0.980296
0.857706
0.762847
0.688525
0.628288
0.580742
0.54551
0.522835
0.51348
0.520859
0.550991
0.60666
0.676492
0.741366
0.780759
0.778446
0.726483
0.626076
0.485461
0.316221
0.129869
-0.0625393
-0.16829
0
0.738494
2.34309
4.84666
7.83
10.4489
11.7524
11.1561
8.78603
5.45425
2.257
0.0451164
-0.913917
-0.911558
-0.506965
-0.315465
-0.137532
0.0197876
0.152771
0.2714
0.377859
0.471507
0.551692
0.617766
0.66983
0.709361
0.738961
0.762343
0.784097
0.809201
0.842348
0.887186
0.945667
1.01734
1.09944
1.1884
1.27998
1.36955
1.4523
1.52335
1.57967
1.62049
1.64706
1.66254
1.67173
1.68057
1.69547
1.72265
1.76763
1.83264
1.91811
2.02537
2.15442
2.30338
2.47086
2.65214
2.83284
2.99655
3.12895
3.22117
3.27141
3.28436
3.26866
3.2334
3.18507
3.12747
3.06131
2.98486
2.89638
2.79521
2.68246
2.56095
2.43477
2.30838
2.18536
2.06798
1.95744
1.85376
1.75602
1.66283
1.57277
1.48479
1.39842
1.31376
1.2313
1.1517
1.07548
1.00294
0.934095
0.868757
0.806802
0.748362
0.693921
0.644236
0.60011
0.56246
0.531711
0.507357
0.488585
0.474798
0.466178
0.464043
0.470814
0.492874
0.547931
0.660485
0.805876
0.934484
0.990061
0.933118
0.761384
0.51728
0.275404
0.111758
0.0684975
0.085758
0.128238
0.186192
0.250887
0.315849
0.37766
0.43371
0.481958
0.520742
0.548262
0.562898
0.563775
0.551246
0.527065
0.494214
0.456522
0.41825
0.382945
0.353514
0.332362
0.321085
0.320162
0.328895
0.34557
0.367684
0.392042
0.415536
0.435702
0.45113
0.461618
0.468032
0.471914
0.474947
0.478421
0.482933
0.488066
0.492357
0.49393
0.491154
0.483144
0.469906
0.452107
0.430622
0.406054
0.378803
0.349307
0.318665
0.289145
0.264223
0.24792
0.248575
0.272485
0.309874
0.343151
0.354419
0.33378
0.283647
0.216447
0.146969
0.0838567
0.0249485
-0.035964
-0.103622
-0.179255
-0.258526
-0.331585
-0.385311
-0.368578
-0.247531
-0.0713491
0.0777739
0.129735
0.0631413
-0.0869642
-0.252106
-0.367857
-0.402184
-0.391191
-0.362179
-0.323218
-0.27786
-0.228821
-0.177913
-0.126146
-0.0739906
0
0.29607
1.17517
2.90731
5.35834
7.85653
9.41109
9.22088
7.16726
3.94614
0.725223
-1.4631
-2.20785
-1.80186
-0.946271
-0.256366
0.0426513
0.02914
0.0227158
0.021908
0.0258831
0.0362003
0.0540744
0.0805101
0.116538
0.163038
0.220598
0.28921
0.36797
0.455695
0.549248
0.642026
0.726247
0.7949
0.843421
0.870877
0.880361
0.878503
0.874275
0.877412
0.895521
0.932456
0.989809
1.06773
1.16484
1.27823
1.40375
1.53654
1.67161
1.80436
1.93096
2.04854
2.1552
2.25016
2.33372
2.40717
2.47274
2.53336
2.59238
2.65315
2.71957
2.79585
2.87893
2.95468
3.00476
3.01392
2.97682
2.9009
2.80334
2.70326
2.61283
2.53043
2.44855
2.3615
2.26415
2.15337
2.02886
1.89308
1.75052
1.60659
1.4661
1.33243
1.20829
1.09551
0.995311
0.908531
0.835613
0.776842
0.732486
0.701402
0.681091
0.668236
0.659082
0.649934
0.63769
0.620318
0.597236
0.569535
0.539981
0.51308
0.494494
0.489783
0.503094
0.5361
0.592315
0.665865
0.742791
0.808701
0.853426
0.874079
0.87528
0.866448
0.857296
0.853532
0.854117
0.854617
0.849087
0.833254
0.80697
0.774935
0.745486
0.728046
0.730069
0.752423
0.801268
0.875974
0.960404
1.03247
1.07151
1.06381
1.00688
0.911184
0.79819
0.694737
0.624936
0.59302
0.610766
0.659834
0.709744
0.730059
0.703383
0.633173
0.542243
0.462333
0.419953
0.421832
0.447533
0.485324
0.529504
0.574691
0.616681
0.652587
0.680474
0.699783
0.710992
0.715392
0.714945
0.712086
0.709384
0.709067
0.712723
0.720768
0.731797
0.743332
0.752661
0.757713
0.757627
0.752811
0.744487
0.733956
0.721983
0.708454
0.692532
0.67317
0.649717
0.622454
0.592843
0.563384
0.537105
0.516854
0.504392
0.500258
0.50364
0.51242
0.523501
0.53325
0.537948
0.534005
0.518202
0.487906
0.441292
0.37759
0.297324
0.201593
0.0941265
-0.0237852
-0.198807
0
0.847805
2.5317
4.98087
7.74906
10.0636
11.105
10.4059
8.13153
5.03676
2.10515
0.089882
-0.766118
-0.699066
-0.189509
0.106386
0.371306
0.587561
0.75305
0.889702
1.00155
1.09198
1.16463
1.22269
1.2689
1.30535
1.33363
1.35506
1.37108
1.38345
1.39427
1.40584
1.42043
1.43988
1.4653
1.49752
1.53719
1.58343
1.63551
1.69359
1.75914
1.83475
1.92327
2.0265
2.14529
2.27752
2.41303
2.53798
2.63957
2.70997
2.74887
2.76387
2.76879
2.78034
2.81407
2.87906
2.98145
3.12885
3.30597
3.48159
3.62599
3.71837
3.74857
3.71518
3.6228
3.48041
3.30097
3.10149
2.90226
2.7192
2.55928
2.42313
2.30996
2.22089
2.1574
2.11904
2.09706
2.07625
2.04158
1.98188
1.8929
1.77851
1.6496
1.52069
1.40555
1.31012
1.23554
1.18
1.13862
1.10529
1.07453
1.04267
1.00821
0.971459
0.933808
0.897238
0.863809
0.836022
0.817268
0.813144
0.850821
0.993955
1.21896
1.45471
1.61544
1.64724
1.5534
1.38365
1.20071
1.05222
0.964146
0.915927
0.891658
0.891801
0.920237
0.962598
0.999496
1.01332
0.995789
0.952278
0.899922
0.859794
0.846797
0.860551
0.890681
0.9203
0.934205
0.925683
0.898519
0.863462
0.831429
0.807463
0.7877
0.767131
0.741336
0.708684
0.671521
0.635588
0.608045
0.595017
0.596728
0.610289
0.63397
0.665165
0.699297
0.730923
0.755313
0.769219
0.77126
0.761799
0.742338
0.714595
0.679624
0.637553
0.588194
0.530941
0.463957
0.386544
0.307364
0.243431
0.214331
0.23594
0.314485
0.44324
0.603251
0.76807
0.910986
1.0152
1.0721
1.08321
1.05719
1.00501
0.935823
0.856299
0.771473
0.684172
0.597326
0.515057
0.442427
0.38465
0.349628
0.347526
0.382764
0.442595
0.504519
0.546308
0.552365
0.517457
0.446964
0.353898
0.25381
0.159425
0.0751842
-0.00179176
-0.0733825
-0.141042
0
0.749123
2.45297
5.11361
8.1974
10.7369
11.7486
10.7526
8.06399
4.64316
1.59172
-0.377167
-1.16636
-1.13762
-0.777379
-0.46648
-0.197525
0.00696116
0.141081
0.243812
0.330727
0.407553
0.478537
0.547374
0.616659
0.687513
0.759566
0.830867
0.898078
0.957421
1.00551
1.04007
1.06047
1.0678
1.06477
1.05522
1.0436
1.03425
1.0306
1.03497
1.04874
1.07254
1.10626
1.14938
1.20124
1.26155
1.33074
1.41019
1.50203
1.6088
1.73287
1.88103
2.06917
2.30956
2.57351
2.8104
2.97447
3.03755
2.99669
2.87577
2.71969
2.58063
2.49855
2.4682
2.46139
2.4628
2.4636
2.45632
2.43606
2.40062
2.34988
2.28471
2.20606
2.11617
2.01726
1.91095
1.79893
1.68358
1.56774
1.45437
1.34607
1.24472
1.15133
1.06611
0.988716
0.918582
0.855222
0.798478
0.748653
0.706538
0.673466
0.651198
0.641231
0.644558
0.662951
0.698309
0.746313
0.79741
0.841294
0.870025
0.880531
0.87539
0.86145
0.846832
0.837481
0.833923
0.833158
0.829955
0.818569
0.795133
0.759644
0.716844
0.675619
0.647005
0.641345
0.664289
0.722334
0.815179
0.927474
1.03987
1.13397
1.19583
1.21727
1.19526
1.13085
1.02834
0.895851
0.745817
0.591036
0.444013
0.315038
0.209329
0.132649
0.104085
0.161863
0.346938
0.622635
0.903318
1.12209
1.22343
1.17062
0.963234
0.650102
0.324615
0.100054
0.0389306
0.0597897
0.10595
0.160768
0.215602
0.262838
0.296869
0.314706
0.316157
0.303632
0.28168
0.256367
0.234397
0.221711
0.222975
0.241274
0.277666
0.331482
0.40206
0.484968
0.570591
0.648135
0.708223
0.744627
0.755082
0.740998
0.706203
0.655201
0.5915
0.517581
0.434279
0.340928
0.235902
0.117182
-0.02172
-0.196898
-0.40757
-0.614248
-0.766062
-0.819764
-0.759788
-0.607896
-0.415259
-0.240736
-0.127849
-0.0694641
-0.037241
-0.0230862
-0.0218577
-0.0342195
-0.165631
0
0.901498
2.82072
5.56923
8.40608
10.2984
10.4311
8.66606
5.64084
2.43038
-0.0103197
-1.26434
-1.50194
-1.20916
-1.01281
-0.839118
-0.703117
-0.609116
-0.536106
-0.472872
-0.414501
-0.357556
-0.299545
-0.238958
-0.17692
-0.118548
-0.0707572
-0.039877
-0.0293271
-0.0381769
-0.0610667
-0.0894073
-0.113298
-0.123829
-0.117651
-0.0940565
-0.0524235
0.00714245
0.0830139
0.172245
0.271491
0.374971
0.475963
0.569033
0.651171
0.722329
0.785147
0.843896
0.902996
0.965593
1.03237
1.10185
1.17163
1.23874
1.29999
1.35227
1.39309
1.42102
1.43541
1.43621
1.4238
1.3989
1.36254
1.31614
1.26174
1.20228
1.1416
1.08414
1.03559
1.00951
1.04345
1.15545
1.29949
1.39965
1.38255
1.21157
0.905343
0.531779
0.180922
-0.0707903
-0.241542
-0.372946
-0.470822
-0.536725
-0.573564
-0.582117
-0.560456
-0.518376
-0.470527
-0.430597
-0.407721
-0.403875
-0.413681
-0.426985
-0.433206
-0.425618
-0.406761
-0.381466
-0.354793
-0.332506
-0.319804
-0.320351
-0.335787
-0.365718
-0.40805
-0.459466
-0.515843
-0.572725
-0.625895
-0.671141
-0.704868
-0.724471
-0.728825
-0.718651
-0.696597
-0.666625
-0.634225
-0.605069
-0.583763
-0.572972
-0.572993
-0.581864
-0.595963
-0.610911
-0.62256
-0.628259
-0.627176
-0.61939
-0.605762
-0.588656
-0.57116
-0.556335
-0.546617
-0.543372
-0.546675
-0.55536
-0.567292
-0.579791
-0.590212
-0.596487
-0.59717
-0.59153
-0.579649
-0.562382
-0.541043
-0.517186
-0.492382
-0.468034
-0.445251
-0.424796
-0.407118
-0.392341
-0.380063
-0.369253
-0.358165
-0.344265
-0.324303
-0.294559
-0.245948
-0.157489
-0.00186868
0.213837
0.436677
0.614708
0.713949
0.719691
0.630593
0.454682
0.211421
-0.0617968
-0.304865
-0.465004
-0.541078
-0.559466
-0.524832
-0.437006
-0.319584
-0.201186
-0.107679
-0.0556544
-0.0494132
-0.0821375
-0.14016
-0.20832
-0.274478
-0.333973
-0.386904
-0.431727
-0.329606
0
0.674433
1.894
3.74481
5.99101
8.00381
8.9738
8.34433
6.19066
3.25634
0.57811
-1.06324
-1.50122
-1.13629
-0.730875
-0.40024
-0.169484
-0.0190474
0.103857
0.21594
0.319426
0.414506
0.501558
0.581163
0.653994
0.72068
0.781704
0.837467
0.88843
0.935313
0.979245
1.02177
1.06471
1.10989
1.15891
1.21286
1.27233
1.33763
1.40883
1.4859
1.56878
1.65731
1.75112
1.84938
1.95079
2.05358
2.15552
2.25453
2.34937
2.44013
2.52849
2.61745
2.71064
2.81136
2.92165
3.04136
3.16869
3.29984
3.42824
3.54469
3.6403
3.70822
3.74407
3.74624
3.71571
3.65551
3.56988
3.46346
3.34083
3.2076
3.06902
2.92932
2.79222
2.66132
2.53988
2.43057
2.33501
2.25247
2.17963
2.11181
2.04407
1.97227
1.894
1.80894
1.71875
1.62657
1.53624
1.4512
1.37473
1.30966
1.25804
1.22114
1.1995
1.19286
1.2001
1.2191
1.24708
1.2804
1.31434
1.34436
1.36669
1.37891
1.38002
1.37036
1.35123
1.32449
1.29249
1.25776
1.22259
1.18925
1.15992
1.1363
1.11977
1.11075
1.10675
1.10201
1.09027
1.0671
1.03203
0.989487
0.948099
0.918395
0.909683
0.925601
0.969276
1.03527
1.11121
1.18255
1.2363
1.26337
1.25963
1.22576
1.16641
1.08894
1.002
0.914184
0.832314
0.759984
0.69826
0.6475
0.608239
0.580993
0.566074
0.563518
0.573053
0.594104
0.626227
0.667831
0.714705
0.760893
0.800338
0.828064
0.841225
0.839748
0.826388
0.806196
0.78551
0.770489
0.765194
0.771267
0.78863
0.816307
0.8501
0.883855
0.911038
0.925862
0.924069
0.903172
0.862211
0.801275
0.72112
0.623768
0.512792
0.39278
0.268911
0.148138
0.0389636
-0.0502744
-0.1017
-0.0962809
-0.0495669
0.0101938
0.0536124
0.0617666
0.0319404
-0.0248331
-0.0921338
-0.157255
-0.214224
0
0.420916
1.31489
2.92759
5.21337
7.6749
9.48535
9.87554
8.56217
5.93621
2.87502
0.300218
-1.23483
-1.69771
-1.43253
-0.972882
-0.57912
-0.309375
-0.191003
-0.140553
-0.108574
-0.084409
-0.0637686
-0.0430165
-0.0194872
0.00823343
0.0404719
0.0766564
0.115043
0.152302
0.18446
0.208141
0.221699
0.226107
0.225257
0.225432
0.233969
0.257403
0.299041
0.361893
0.444423
0.534003
0.616006
0.67892
0.718429
0.738953
0.752063
0.772424
0.81287
0.879129
0.965765
1.06653
1.17721
1.29419
1.41407
1.53396
1.65146
1.76393
1.86861
1.96306
2.04496
2.1124
2.16404
2.19897
2.21636
2.21498
2.19299
2.14828
2.07891
1.98412
1.86504
1.72493
1.56886
1.40275
1.23266
1.06322
0.897772
0.739116
0.591242
0.459911
0.350459
0.268062
0.217052
0.199174
0.212318
0.250355
0.304229
0.363865
0.420118
0.467318
0.503204
0.524353
0.5279
0.512501
0.477912
0.425702
0.359955
0.287508
0.217421
0.159637
0.123162
0.114087
0.137687
0.199395
0.292871
0.399981
0.50064
0.577804
0.619748
0.620704
0.580776
0.50587
0.407677
0.302894
0.210154
0.144295
0.112009
0.109607
0.133448
0.176878
0.231127
0.287262
0.338271
0.380022
0.408985
0.424097
0.425905
0.416273
0.398076
0.374766
0.349767
0.325795
0.30451
0.285664
0.267618
0.248278
0.226218
0.201493
0.175858
0.152325
0.134282
0.123899
0.121458
0.126662
0.138782
0.156136
0.176067
0.195499
0.21201
0.224543
0.233862
0.242573
0.254623
0.274338
0.305244
0.349009
0.404056
0.466959
0.53382
0.600218
0.662057
0.716517
0.762537
0.800836
0.833481
0.863073
0.891594
0.919351
0.940463
0.94319
0.914738
0.848011
0.746955
0.627351
0.512032
0.422566
0.37145
0.344873
0.337594
0.342261
0.350463
0.35425
0.346526
0.321735
0.275835
0.20639
0.112743
-0.00705543
-0.149053
-0.30718
-0.47934
-0.424856
0
1.01979
2.82048
5.30746
7.9842
10.0427
10.7041
9.63539
7.16878
4.15647
1.53775
-0.0984655
-0.687191
-0.546631
-0.193045
-0.00697103
0.150649
0.273489
0.360687
0.416937
0.450802
0.471908
0.48812
0.503727
0.519225
0.533232
0.543549
0.548193
0.546217
0.538274
0.526789
0.515834
0.510682
0.517061
0.54017
0.583598
0.648411
0.731754
0.828146
0.932024
1.03718
1.13782
1.23002
1.3125
1.38686
1.45723
1.52926
1.60895
1.70134
1.80944
1.93315
2.06999
2.21596
2.366
2.51429
2.65455
2.78044
2.88619
2.96722
3.02053
3.04495
3.04048
3.00867
2.95301
2.87916
2.79456
2.70745
2.62536
2.55342
2.4926
2.44113
2.39664
2.35571
2.31451
2.26948
2.21755
2.15635
2.08421
2.00059
1.90606
1.80157
1.68868
1.57023
1.45024
1.33334
1.22478
1.1308
1.05703
1.00705
0.982846
0.984451
1.00961
1.05366
1.10976
1.16967
1.22473
1.26685
1.28979
1.28986
1.2663
1.22145
1.16039
1.09038
1.01986
0.957399
0.910083
0.881167
0.871565
0.884567
0.935251
1.06012
1.26695
1.49663
1.67314
1.73093
1.64567
1.44962
1.21972
1.04274
0.975535
0.988731
1.03143
1.08566
1.14467
1.20361
1.25838
1.30548
1.34236
1.3674
1.37964
1.37862
1.3643
1.33699
1.29729
1.24609
1.18463
1.11485
1.03902
0.959767
0.880352
0.804504
0.73647
0.680628
0.640129
0.616772
0.610574
0.619582
0.640242
0.667486
0.695424
0.718829
0.734148
0.740061
0.737383
0.728407
0.71591
0.702245
0.688807
0.676042
0.664021
0.652885
0.643236
0.636349
0.63413
0.638834
0.652599
0.677111
0.714523
0.766719
0.832387
0.902764
0.963922
1.00129
1.00286
0.96207
0.879677
0.76413
0.630188
0.495874
0.377353
0.281249
0.206218
0.14922
0.108078
0.0782692
0.054145
0.0298321
0
-0.0338894
-0.0805077
-0.141443
-0.217003
-0.306222
-0.407005
-0.516553
-0.643347
-0.752974
-0.416059
0.715183
2.79337
5.58015
8.40735
10.3768
10.7393
9.26633
6.39928
3.06989
0.279055
-1.33423
-1.7029
-1.23511
-0.877986
-0.585407
-0.396931
-0.312948
-0.264806
-0.229831
-0.18695
-0.121998
-0.0355846
0.0647579
0.173738
0.282496
0.381964
0.464713
0.526204
0.565219
0.583467
0.584613
0.57309
0.553282
0.528915
0.502458
0.475734
0.450644
0.429891
0.417439
0.41805
0.437073
0.479605
0.549442
0.64804
0.773758
0.921583
1.08467
1.25256
1.41093
1.54756
1.65511
1.73283
1.78634
1.82567
1.86192
1.90525
1.95838
2.00999
2.04118
2.03483
1.98422
1.89718
1.79394
1.69982
1.63565
1.60081
1.59709
1.60681
1.60454
1.56586
1.47619
1.33649
1.16334
0.983387
0.823956
0.699129
0.600864
0.526282
0.471406
0.430154
0.395608
0.361124
0.321182
0.271964
0.21174
0.141546
0.0641527
-0.0162891
-0.0924543
-0.156368
-0.201165
-0.222654
-0.220286
-0.197235
-0.159582
-0.114932
-0.0709133
-0.0331404
-0.00506763
0.0108921
0.0140055
0.00516262
-0.013184
-0.0371983
-0.0620499
-0.0825697
-0.0926535
-0.084078
-0.0551363
-0.0144123
0.0248997
0.0498457
0.0524572
0.0324493
-0.00297928
-0.0418531
-0.0714357
-0.0845005
-0.0817966
-0.0639408
-0.0337791
-0.000581741
0.0246035
0.0316816
0.0141098
-0.0293541
-0.0942289
-0.171275
-0.248522
-0.314205
-0.36244
-0.390459
-0.389038
-0.350246
-0.285008
-0.215477
-0.164087
-0.145841
-0.162832
-0.203579
-0.248009
-0.276348
-0.278
-0.260847
-0.235018
-0.213972
-0.20896
-0.224302
-0.255174
-0.28861
-0.307327
-0.29511
-0.249458
-0.17672
-0.0788047
0.0395912
0.164814
0.282305
0.379932
0.450358
0.491765
0.506901
0.501032
0.47977
0.448204
0.410496
0.368896
0.324706
0.279249
0.233911
0.190018
0.148635
0.110423
0.0756841
0.0445495
0.0172749
-0.00547819
-0.0225022
-0.0321143
-0.0324462
-0.0220216
0
0.0340535
0.0801926
0.135054
0.191562
0.242336
0.281488
0.30591
0.315552
0.140816
0.107433
0.61726
1.90349
3.9447
6.35454
8.43449
9.41998
8.83084
6.74218
3.80131
0.95431
-0.978185
-1.64407
-1.24459
-0.361887
0.400499
0.795083
0.819483
0.829411
0.844868
0.867988
0.901343
0.945852
1.00051
1.06474
1.13787
1.21889
1.30641
1.39882
1.49354
1.58625
1.67208
1.74673
1.80751
1.85411
1.88885
1.91638
1.94284
1.97488
2.01747
2.07345
2.14491
2.23269
2.33594
2.4523
2.57812
2.7094
2.84227
2.9735
3.10085
3.22323
3.34051
3.45315
3.56175
3.66665
3.76766
3.86402
3.9546
4.03813
4.11354
4.18006
4.2372
4.2845
4.32113
4.34529
4.35347
4.34066
4.30209
4.23346
4.13234
3.99945
3.83934
3.66023
3.47285
3.28857
3.11741
2.96751
2.8415
2.73767
2.65136
2.57674
2.50856
2.44322
2.37911
2.31644
2.25651
2.20081
2.15117
2.10951
2.07729
2.05537
2.04396
2.04296
2.05084
2.06547
2.08444
2.1053
2.12582
2.14399
2.15775
2.16547
2.16588
2.15839
2.1433
2.12204
2.09709
2.07153
2.04857
2.03066
2.01882
2.01338
2.01355
2.0175
2.02231
2.02354
2.01634
1.99649
1.96149
1.91146
1.84953
1.78159
1.71516
1.65775
1.61531
1.59476
1.59687
1.60997
1.61758
1.60368
1.55771
1.47809
1.37313
1.2589
1.15461
1.07707
1.02871
1.00607
1.00633
1.02334
1.04899
1.07452
1.09059
1.08961
1.06663
1.02003
0.952123
0.869311
0.781473
67
250
438
625
823
1030
1239
1439
1652
1860
2060
2257
2453
2649
2838
3028
3219
3416
3608
3194
3357
3523
3688
3471
3612
0
0
0
0
0
0
0
0
0
0
0
0
0
0
0
0
0
0
0
0
0
0
0
0
0
0
0
0
0
0
0
0
0
0
0
0
0
0
0
0
0
0
0
0
0
0
0
0
0
0
0
0
0
0
0
0
0
0
0
0
0
0
0
0
0
0
0
0
0
0
0
0
0
0
0
0
0
0
0
0
0
0
0
0
0
0
0
0
0
0
0
0
0
0
0
0
0
0
0
0
0
0
0
0
0
0
0
0
0
0
0
0
0
0
0
0
0
0
0
0
0
0
0
0
0
0
0
0
0
0
0
0
0
0
0
0
0
0
0
0
0
0
0
0
0
0
0
0
0
0
0
0
0
0
0
0
0
0
0
0
0
0
0
0
0
0
0
0
0
0
0
0
0
0
0
0
0
0
0
0
0
0
0
0
0
0
0
0
0
0
0
0
0
0
0
0
0
0
0
0
0
0
0
0
0
0
0
0
0
0
0
0
0
0
0
0
0
0
0
0
0
0
0
0
0
0
0
0
0
0
0
0
0
0
0
0
0
0
0
0
0
0
0
0
0
0
0
0
0
0
0
0
0
0
0
0
0
0
0
0
0
0
0
0
0
0
0
0
0
0
0
0
0
0
0
0
0
0
0
0
0
0
0
0
0
0
0
0
0
0
0
0
0
0
0
0
0
0
0
0
0
0
0
0
0
0
0
0
0
0
0
0
0
0
0
0
0
0
0
0
0
0
0
0
0
0
0
0
0
0
0
0
0
0
0
0
0
0
0
0
0
0
0
0
0
0
0
0
0
0
0
0
0
0
0
0
0
0
0
0
0
0
0
0
0
0
0
0
0
0
0
0
0
0
0
0
0
0
0
0
0
0
0
0
0
0
0
0
0
0
0
0
0
0
0
0
0
0
0
0
0
0
0
0
0
0
0
0
0
0
0
0
0
0
0
0
0
0
0
0
0
0
0
0
0
0
0
0
0
0
0
0
0
0
0
0
0
0
0
0
0
0
0
0
0
0
0
0
0
0
0
0
0
0
0
0
0
0
0
0
0
0
0
0
0
0
0
0
0
0
0
0
0
0
0
0
0
0
0
0
0
0
0
0
0
0
0
0
0
0
0
0
0
0
0
0
0
0
0
0
0
0
0
0
0
0
0
0
0
0
0
0
0
0
0
0
0
0
0
0
0
0
0
0
0
0
0
0
0
0
0
0
0
0
0
0
0
0
0
0
0
0
0
0
0
0
0
0
0
0
0
0
0
0
0
0
0
0
0
0
0
0
0
0
0
0
0
0
0
0
0
0
0
0
0
0
0
0
0
0
0
0
0
0
0
0
0
0
0
0
0
0
0
0
0
0
0
0
0
0
0
0
0
0
0
0
0
0
0
0
0
0
0
0
0
0
0
0
0
0
0
0
0
0
0
0
0
0
0
0
0
0
0
0
0
0
0
0
0
0
0
0
0
0
0
0
0
0
0
0
0
0
0
0
0
0
0
0
0
0
0
0
0
0
0
0
0
0
0
0
0
0
0
0
0
0
0
0
0
0
0
0
0
0
0
0
0
0
0
0
0
0
0
0
0
0
0
0
0
0
0
0
0
0
0
0
0
0
0
0
0
0
0
0
0
0
0
0
0
0
0
0
0
0
0
0
0
0
0
0
0
0
0
0
0
0
0
0
0
0
0
0
0
0
0
0
0
0
0
0
0
0
0
0
0
0
0
0
0
0
0
0
0
0
0
0
0
0
0
0
0
0
0
0
0
0
0
0
0
0
0
0
0
0
0
0
0
0
0
0
0
0
0
0
0
0
0
0
0
0
0
0
0
0
0
0
0
0
0
0
0
0
0
0
0
0
0
0
0
0
0
0
0
0
0
0
0
0
0
0
0
0
0
0
0
0
0
0
0
0
0
0
0
0
0
0
0
0
0
0
0
0
0
0
0
0
0
0
0
0
0
0
0
0
0
0
0
0
0
0
0
0
0
0
0
0
0
0
0
0
0
0
0
0
0
0
0
0
0
0
0
0
0
0
0
0
0
0
0
0
0
0
0
0
0
0
0
0
0
0
0
0
0
0
0
0
0
0
0
0
0
0
0
0
0
0
0
0
0
0
0
0
0
0
0
0
0
0
0
0
0
0
0
0
0
0
0
0
0
0
0
0
0
0
0
0
0
0
0
0
0
0
0
0
0
0
0
0
0
0
0
0
0
0
0
0
0
0
0
0
0
0
0
0
0
0
0
0
0
0
0
0
0
0
0
0
0
0
0
0
0
0
0
0
0
0
0
0
0
0
0
0
0
0
0
0
0
0
0
0
0
0
0
0
0
0
0
0
0
0
0
0
0
0
0
0
0
0
0
0
0
0
0
0
0
0
0
0
0
0
0
0
0
0
0
0
0
0
0
0
0
0
0
0
0
0
0
0
0
0
0
0
0
0
0
0
0
0
0
0
0
0
0
0
0
0
0
0
0
0
0
0
0
0
0
0
0
0
0
0
0
0
0
0
0
0
0
0
0
0
0
0
0
0
0
0
0
0
0
0
0
0
0
0
0
0
0
0
0
0
0
0
0
0
0
0
0
0
0
0
0
0
0
0
0
0
0
0
0
0
0
0
0
0
0
0
0
0
0
0
0
0
0
0
0
0
0
0
0
0
0
0
0
0
0
0
0
0
0
0
0
0
0
0
0
0
0
0
0
0
0
0
0
0
0
0
0
0
0
0
0
0
0
0
0
0
0
0
0
0
0
0
0
0
0
0
0
0
0
0
0
0
0
0
0
0
0
0
0
0
0
0
0
0
0
0
0
0
0
0
0
0
0
0
0
0
0
0
0
0
0
0
0
0
0
0
0
0
0
0
0
0
0
0
0
0
0
0
0
0
0
0
0
0
0
0
0
0
0
0
0
0
0
0
0
0
0
0
0
0
0
0
0
0
0
0
0
0
0
0
0
0
0
0
0
0
0
0
0
0
0
0
0
0
0
0
0
0
0
0
0
0
0
0
0
0
0
0
0
0
0
0
0
0
0
0
0
0
0
0
0
0
0
0
0
0
0
0
0
0
0
0
0
0
0
0
0
0
0
0
0
0
0
0
0
0
0
0
0
0
0
0
0
0
0
0
0
0
0
0
0
0
0
0
0
0
0
0
0
0
0
0
0
0
0
0
0
0
0
0
0
0
0
0
0
0
0
0
0
0
0
0
0
0
0
0
0
0
0
0
0
0
0
0
0
0
0
0
0
0
0
0
0
0
0
0
0
0
0
0
0
0
0
0
0
0
0
0
0
0
0
0
0
0
0
0
0
0
0
0
0
0
0
0
0
0
0
0
0
0
0
0
0
0
0
0
0
0
0
0
0
0
0
0
0
0
0
0
0
0
0
0
0
0
0
0
0
0
0
0
0
0
0
0
0
0
0
0
0
0
0
0
0
0
0
0
0
0
0
0
0
0
0
0
0
0
0
0
0
0
0
0
0
0
0
0
0
0
0
0
0
0
0
0
0
0
0
0
0
0
0
0
0
0
0
0
0
0
0
0
0
0
0
0
0
0
0
0
0
0
0
0
0
0
0
0
0
0
0
0
0
0
0
0
0
0
0
0
0
0
0
0
0
0
0
0
0
0
0
0
0
0
0
0
0
0
0
0
0
0
0
0
0
0
0
0
0
0
0
0
0
0
0
0
0
0
0
0
0
0
0
0
0
0
0
0
0
0
0
0
0
0
0
0
0
0
0
0
0
0
0
0
0
0
0
0
0
0
0
0
0
0
0
0
0
0
0
0
0
0
0
0
0
0
0
0
0
0
0
0
0
0
0
0
0
0
0
0
0
0
0
0
0
0
0
0
0
0
0
0
0
0
0
0
0
0
0
0
0
0
0
0
0
0
0
0
0
0
0
0
0
0
0
0
0
0
0
0
0
0
0
0
0
0
0
0
0
0
0
0
0
0
0
0
0
0
0
0
0
0
0
0
0
0
0
0
0
0
0
0
0
0
0
0
0
0
0
0
0
0
0
0
0
0
0
0
0
0
0
0
0
0
0
0
0
0
0
0
0
0
0
0
0
0
0
0
0
0
0
0
0
0
0
0
0
0
0
0
0
0
0
0
0
0
0
0
0
0
0
0
0
0
0
0
0
0
0
0
0
0
0
0
0
0
0
0
0
0
0
0
0
0
0
0
0
0
0
0
0
0
0
0
0
0
0
0
0
0
0
0
0
0
0
0
0
0
0
0
0
0
0
0
0
0
0
0
0
0
0
0
0
0
0
0
0
0
0
0
0
0
0
0
0
0
0
0
0
0
0
0
0
0
0
0
0
0
0
0
0
0
0
0
0
0
0
0
0
0
0
0
0
0
0
0
0
0
0
0
0
0
0
0
0
0
0
0
0
0
0
0
0
0
0
0
0
0
0
0
0
0
0
0
0
0
0
0
0
0
0
0
0
0
0
0
0
0
0
0
0
0
0
0
0
0
0
0
0
0
0
0
0
0
0
0
0
0
0
0
0
0
0
0
0
0
0
0
0
0
0
0
0
0
0
0
0
0
0
0
0
0
0
0
0
0
0
0
0
0
0
0
0
0
0
0
0
0
0
0
0
0
0
0
0
0
0
0
0
0
0
0
0
0
0
0
0
0
0
0
0
0
0
0
0
0
0
0
0
0
0
0
0
0
0
0
0
0
0
0
0
0
0
0
0
0
0
0
0
0
0
0
0
0
0
0
0
0
0
0
0
0
0
0
0
0
0
0
0
0
0
0
0
0
0
0
0
0
0
0
0
0
0
0
0
0
0
0
0
0
0
0
0
0
0
0
0
0
0
0
0
0
0
0
0
0
0
0
0
0
0
0
0
0
0
0
0
0
0
0
0
0
0
0
0
0
0
0
0
0
0
0
0
0
0
0
0
0
0
0
0
0
0
0
0
0
0
0
0
0
0
0
0
0
0
0
0
0
0
0
0
0
0
0
0
0
0
0
0
0
0
0
0
0
0
0
0
0
0
0
0
0
0
0
0
0
0
0
0
0
0
0
0
0
0
0
0
0
0
0
0
0
0
0
0
0
0
0
0
0
0
0
0
0
0
0
0
0
0
0
0
0
0
0
0
0
0
0
0
0
0
0
0
0
0
0
0
0
0
0
0
0
0
0
0
0
0
0
0
0
0
0
0
0
0
0
0
0
0
0
0
0
0
0
0
0
0
0
0
0
0
0
0
0
0
0
0
0
0
0
0
0
0
0
0
0
0
0
0
0
0
0
0
0
0
0
0
0
0
0
0
0
0
0
0
0
0
0
0
0
0
0
0
0
0
0
0
0
0
0
0
0
0
0
0
0
0
0
0
0
0
0
0
0
0
0
0
0
0
0
0
0
0
0
0
0
0
0
0
0
0
0
0
0
0
0
0
0
0
0
0
0
0
0
0
0
0
0
0
0
0
0
0
0
0
0
0
0
0
0
0
0
0
0
0
0
0
0
0
0
0
0
0
0
0
0
0
0
0
0
0
0
0
0
0
0
0
0
0
0
0
0
0
0
0
0
0
0
0
0
0
0
0
0
0
0
0
0
0
0
0
0
0
0
0
0
0
0
0
0
0
0
0
0
0
0
0
0
0
0
0
0
0
0
0
0
0
0
0
0
0
0
0
0
0
0
0
0
0
0
0
0
0
0
0
0
0
0
0
0
0
0
0
0
0
0
0
0
0
0
0
0
0
0
0
0
0
0
0
0
0
0
0
0
0
0
0
0
0
0
0
0
0
0
0
0
0
0
0
0
0
0
0
0
0
0
0
0
0
0
0
0
0
0
0
0
0
0
0
0
0
0
0
0
0
0
0
0
0
0
0
0
0
0
0
0
0
0
0
0
0
0
0
0
0
0
0
0
0
0
0
0
0
0
0
0
0
0
0
0
0
0
0
0
0
0
0
0
0
0
0
0
0
0
0
0
0
0
0
0
0
0
0
0
0
0
0
0
0
0
0
0
0
0
0
0
0
0
0
0
0
0
0
0
0
0
0
0
0
0
0
0
0
0
0
0
0
0
0
0
0
0
0
0
0
0
0
0
0
0
0
0
0
0
0
0
0
0
0
0
0
0
0
0
0
0
0
0
0
0
0
0
0
0
0
0
0
0
0
0
0
0
0
0
0
0
0
0
0
0
0
0
0
0
0
0
0
0
0
0
0
0
0
0
0
0
0
0
0
0
0
0
0
0
0
0
0
0
0
0
0
0
0
0
0
0
0
0
0
0
0
0
0
0
0
0
0
0
0
0
0
0
0
0
0
0
0
0
0
0
0
0
0
0
0
0
0
0
0
0
0
0
0
0
0
0
0
0
0
0
0
0
0
0
0
0
0
0
0
0
0
0
0
0
0
0
0
0
0
0
0
0
0
0
0
0
0
0
0
0
0
0
0
0
0
0
0
0
0
0
0
0
0
0
0
0
0
0
0
0
0
0
0
0
0
0
0
0
0
0
0
0
0
0
0
0
0
0
0
0
0
0
0
0
0
0
0
0
0
0
0
0
0
0
0
0
0
0
0
0
0
0
0
0
0
0
0
0
0
0
0
0
0
0
0
0
0
0
0
0
0
0
0
0
0
0
0
0
0
0
0
0
0
0
0
0
0
0
0
0
0
0
0
0
0
0
0
0
0
0
0
0
0
0
0
0
0
0
0
0
0
0
0
0
0
0
0
0
0
0
0
0
0
0
0
0
0
0
0
0
0
0
0
0
0
0
0
0
0
0
0
0
0
0
0
0
0
0
0
0
0
0
0
0
0
0
0
0
0
0
0
0
0
0
0
0
0
0
0
0
0
0
0
0
0
0
0
0
0
0
0
0
0
0
0
0
0
0
0
0
0
0
0
0
0
0
0
0
0
0
0
0
0
0
0
0
0
0
0
0
0
0
0
0
0
0
0
0
0
0
0
0
0
0
0
0
0
0
0
0
0
0
0
0
0
0
0
0
0
0
0
0
0
0
0
0
0
0
0
0
0
0
0
0
0
0
0
0
0
0
0
0
0
0
0
0
0
0
0
0
0
0
0
0
0
0
0
0
0
0
0
0
0
0
0
0
0
0
0
0
0
0
0
0
0
0
0
0
0
0
0
0
0
0
0
0
0
0
0
0
0
0
0
0
0
0
0
0
0
0
0
0
0
0
0
0
0
0
0
0
0
0
0
0
0
0
0
0
0
0
0
0
0
0
0
0
0
0
0
0
0
0
0
0
0
0
0
0
0
0
0
0
0
0
0
0
0
0
0
0
0
0
0
0
0
0
0
0
0
0
0
0
0
0
0
0
0
0
0
0
0
0
0
0
0
0
0
0
0
0
0
0
0
0
0
0
0
0
0
0
0
0
0
0
0
0
0
0
0
0
0
0
0
0
0
0
0
0
0
0
0
0
0
0
0
0
0
0
0
0
0
0
0
0
0
0
0
0
0
0
0
0
0
0
0
0
0
0
0
0
0
0
0
0
0
0
0
0
0
0
0
0
0
0
0
0
0
0
0
0
0
0
0
0
0
0
0
0
0
0
0
0
0
0
0
0
0
0
0
0
0
0
0
0
0
0
0
0
0
0
0
0
0
0
0
0
0
0
0
0
0
0
0
0
0
0
0
0
0
0
0
0
0
0
0
0
0
0
0
0
0
0
0
0
0
0
0
0
0
0
0
0
0
0
0
0
0
0
0
0
0
0
0
0
0
0
0
0
0
0
0
0
0
0
0
0
0
0
0
0
0
0
0
0
0
0
0
0
0
0
0
0
0
0
0
0
0
0
0
0
0
0
0
0
0
0
0
0
0
0
0
0
0
0
0
0
0
0
0
0
0
0
0
0
0
0
0
0
0
0
0
0
0
0
0
0
0
0
0
0
0
0
0
0
0
0
0
0
0
0
0
0
0
0
0
0
0
0
0
0
0
0
0
0
0
0
0
0
0
0
0
0
0
0
0
0
0
0
0
0
0
0
0
0
0
0
0
0
0
0
0
0
0
0
0
0
0
0
0
0
0
0
0
0
0
0
0
0
0
0
0
0
0
0
0
0
0
0
0
0
0
0
0
0
0
0
0
0
0
0
0
0
0
0
0
0
0
0
0
0
0
0
0
0
0
0
0
0
0
0
0
0
0
0
0
0
0
0
0
0
0
0
0
0
0
0
0
0
0
0
0
0
0
0
0
0
0
0
0
0
0
0
0
0
0
0
0
0
0
0
0
0
0
0
0
0
0
0
0
0
0
0
0
0
0
0
0
0
0
0
0
0
0
0
0
0
0
0
0
0
0
0
0
0
0
0
0
0
0
0
0
0
0
0
0
0
0
0
0
0
0
0
0
0
0
0
0
0
0
0
0
0
0
0
0
0
0
0
0
0
0
0
0
0
0
0
0
0
0
0
0
0
0
0
0
0
0
0
0
0
0
0
0
0
0
0
0
0
0
0
