0.862362
0.84808
0.816165
0.768557
0.708971
0.642743
0.576346
0.516589
0.46954
0.437555
0.423321
0.432783
0.468256
0.516785
0.561773
0.587608
0.58426
0.549999
0.491013
0.418161
0.342452
0.271295
0.205265
0.142677
0.0849306
0
0.244012
1.20173
3.10231
5.77827
8.57908
10.5681
10.9488
9.48437
6.64644
3.38805
0.684851
-0.879272
-1.26563
-0.846523
-0.260005
0.230134
0.547114
0.658861
0.707672
0.736181
0.752018
0.76267
0.77474
0.793189
0.82072
0.858186
0.905062
0.959874
1.02045
1.08427
1.14779
1.20652
1.2565
1.29518
1.32229
1.3404
1.35481
1.37262
1.40126
1.44666
1.5094
1.58698
1.67785
1.7779
1.87886
1.97272
2.05387
2.12032
2.174
2.21982
2.26397
2.31213
2.36792
2.4316
2.50265
2.58049
2.66438
2.75367
2.84742
2.94336
3.03622
3.11748
3.17718
3.20566
3.19582
3.14503
3.05614
2.93717
2.79969
2.65596
2.51553
2.38192
2.25454
2.13181
2.01234
1.89478
1.77832
1.663
1.54976
1.4402
1.33617
1.23941
1.15123
1.07235
1.00299
0.942897
0.891683
0.849115
0.815067
0.789347
0.771642
0.761393
0.757608
0.75858
0.762316
0.766936
0.771131
0.774537
0.77789
0.782919
0.791946
0.807172
0.831012
0.866792
0.913384
0.961454
0.999315
1.01726
1.01148
0.98553
0.948562
0.911045
0.880376
0.857753
0.840293
0.826387
0.815297
0.807883
0.806318
0.812928
0.830175
0.857022
0.886555
0.909306
0.916499
0.903182
0.869991
0.822889
0.771064
0.723859
0.6874
0.661741
0.643925
0.631021
0.619892
0.607218
0.590312
0.567762
0.539831
0.508546
0.477465
0.451119
0.434201
0.430858
0.446633
0.486275
0.548457
0.619057
0.678429
0.708749
0.699124
0.648885
0.567966
0.473917
0.386319
0.320649
0.278843
0.253584
0.239082
0.232122
0.229707
0.229287
0.229158
0.228624
0.227908
0.227859
0.229511
0.233617
0.240344
0.248987
0.257512
0.263101
0.263039
0.255531
0.240226
0.218256
0.19176
0.163098
0.134126
0.105803
0.078441
0.0521989
0.0276102
0.00586262
-0.0113553
-0.0224109
-0.0264525
-0.024119
-0.0172905
-0.00889483
-0.00219707
0
-0.00620909
-0.0190719
-0.037851
-0.0610603
-0.0869091
-0.114229
-0.0503203
0.216118
0.974687
2.51308
4.85373
7.54723
9.72748
10.4863
9.37932
6.72808
3.48767
0.743483
-0.830582
-1.20847
-0.840972
-0.399281
-0.0170369
0.261266
0.409527
0.500173
0.564802
0.605885
0.627539
0.635347
0.635819
0.635573
0.640427
0.654061
0.677759
0.711257
0.753257
0.801693
0.854123
0.908224
0.962228
1.01518
1.067
1.11826
1.16995
1.22302
1.27808
1.33522
1.39399
1.45359
1.51317
1.57222
1.6309
1.69001
1.75083
1.81471
1.88254
1.95439
2.02941
2.106
2.18229
2.25692
2.32961
2.40154
2.47535
2.55681
2.65984
2.79968
2.9568
3.09357
3.1699
3.16054
3.06554
2.9095
2.73048
2.56442
2.43164
2.32084
2.21938
2.12095
2.02152
1.9178
1.80741
1.68939
1.56436
1.43443
1.30285
1.17334
1.04949
0.93428
0.82958
0.736119
0.654058
0.584217
0.529158
0.491445
0.474667
0.482381
0.53442
0.645669
0.787978
0.92034
1.00458
1.02019
0.971243
0.882605
0.787818
0.714503
0.671809
0.646692
0.629726
0.617022
0.605809
0.595117
0.585782
0.579829
0.579495
0.585871
0.598394
0.616089
0.636091
0.654366
0.666705
0.669523
0.66043
0.638472
0.60409
0.558913
0.505569
0.447796
0.389761
0.335821
0.290552
0.258176
0.246486
0.266123
0.311408
0.36608
0.410591
0.428636
0.412002
0.361662
0.285266
0.193045
0.0945662
-0.00278416
-0.0954411
-0.180872
-0.256494
-0.319892
-0.369306
-0.40325
-0.420891
-0.423209
-0.414818
-0.402953
-0.394685
-0.395211
-0.406526
-0.426877
-0.45117
-0.472237
-0.482611
-0.476984
-0.454491
-0.416682
-0.365617
-0.303641
-0.233587
-0.158307
-0.0802046
-0.000985146
0.0783926
0.1576
0.2367
0.31588
0.395173
0.47419
0.551743
0.625005
0.688
0.732095
0.747751
0.726025
0.661766
0.556752
0.421331
0.273365
0.134234
0.0230356
-0.0551897
-0.10223
-0.121686
-0.120887
-0.108274
-0.0909176
-0.0730392
-0.0559662
-0.0393303
-0.0228558
-0.00824471
0
-0.00527191
-0.028767
-0.0733738
-0.13801
-0.217877
-0.326588
-0.183904
0.27293
1.11886
2.43097
4.19459
6.15739
7.77261
8.35449
7.42631
5.05915
1.94287
-0.909525
-2.66517
-3.06422
-2.43835
-1.52535
-0.813313
-0.52097
-0.561144
-0.584029
-0.598688
-0.60424
-0.598929
-0.582349
-0.55546
-0.523014
-0.491916
-0.468354
-0.455933
-0.454546
-0.460422
-0.467414
-0.469115
-0.461028
-0.44278
-0.417562
-0.388589
-0.358958
-0.331267
-0.306998
-0.286297
-0.268149
-0.250801
-0.232258
-0.210735
-0.184806
-0.153254
-0.115058
-0.0693359
-0.0153603
0.047353
0.118957
0.199251
0.287595
0.383505
0.487741
0.605373
0.756055
0.990518
1.30518
1.62026
1.84114
1.89437
1.75372
1.45255
1.08035
0.76129
0.609627
0.574408
0.569122
0.568932
0.565874
0.553671
0.527959
0.48625
0.427738
0.353188
0.266288
0.171469
0.0730314
-0.024118
-0.11519
-0.195155
-0.260863
-0.312999
-0.354698
-0.390263
-0.423594
-0.45688
-0.489987
-0.520668
-0.545437
-0.561206
-0.566706
-0.561895
-0.547563
-0.525068
-0.496653
-0.464798
-0.43162
-0.398491
-0.365932
-0.333814
-0.301847
-0.270227
-0.240899
-0.218399
-0.208943
-0.218537
-0.250699
-0.304993
-0.377115
-0.460577
-0.549098
-0.638436
-0.726823
-0.813207
-0.894073
-0.962524
-1.00782
-1.01792
-0.983753
-0.903268
-0.770271
-0.605257
-0.441804
-0.310933
-0.232833
-0.213399
-0.245169
-0.310995
-0.389013
-0.458174
-0.506064
-0.532291
-0.542273
-0.541882
-0.535324
-0.525988
-0.516439
-0.507977
-0.500565
-0.493107
-0.483949
-0.471547
-0.455012
-0.43394
-0.408893
-0.381761
-0.355308
-0.332681
-0.316919
-0.310481
-0.314853
-0.330261
-0.355522
-0.388077
-0.424126
-0.459422
-0.489677
-0.511221
-0.521594
-0.519876
-0.506734
-0.484173
-0.455054
-0.422576
-0.389747
-0.358905
-0.331897
-0.310093
-0.294065
-0.283577
-0.277655
-0.274633
-0.27232
-0.268272
-0.260156
-0.246094
-0.224905
-0.196537
-0.161275
-0.119952
-0.0736603
-0.0237814
0.0262922
0.0713758
0.105962
0.125695
0.128982
0.11796
0.0981873
0.0769611
0.0608301
0.0529125
0.0519077
0.0538565
0.0528801
0.0432137
0.0212807
-0.0128668
-0.0552053
-0.0986177
-0.134731
-0.156232
-0.161273
-0.147388
-0.115276
-0.0738678
-0.0343773
-0.00732346
0
-0.00923367
-0.0392878
-0.0855307
-0.142324
-0.204685
-0.269092
-0.334151
-0.400221
-0.29513
0.283514
1.62953
3.80761
6.46296
8.83039
10.0239
9.49035
7.34782
4.36257
1.55323
-0.326939
-1.09641
-1.07838
-0.826373
-0.669665
-0.521895
-0.379914
-0.240691
-0.102795
0.0330761
0.164623
0.287658
0.397304
0.48893
0.55895
0.605664
0.629722
0.6341
0.623625
0.604182
0.581838
0.56198
0.548429
0.543776
0.549973
0.568752
0.601962
0.650693
0.715158
0.794336
0.888664
0.993619
1.10254
1.20922
1.30974
1.40361
1.49387
1.58614
1.68691
1.80191
1.93181
2.07568
2.23435
2.41027
2.5916
2.75901
2.89426
2.98684
3.03804
3.05943
3.06598
3.06693
3.05976
3.03308
2.97114
2.86229
2.70507
2.51007
2.29693
2.08781
1.89763
1.72589
1.57209
1.43557
1.31406
1.20473
1.10514
1.01378
0.930296
0.855174
0.789309
0.733436
0.687299
0.64952
0.617965
0.59027
0.564455
0.539405
0.515081
0.492389
0.472788
0.457716
0.448096
0.444384
0.446247
0.452828
0.463074
0.47605
0.49114
0.508041
0.526573
0.546373
0.566619
0.585693
0.601299
0.610875
0.612218
0.604162
0.587133
0.563389
0.536848
0.512493
0.495437
0.489973
0.502824
0.537665
0.583372
0.62335
0.641134
0.626331
0.578611
0.508033
0.431601
0.367567
0.329918
0.316066
0.320317
0.341273
0.376193
0.421568
0.474098
0.529017
0.581221
0.62599
0.659412
0.678813
0.683073
0.672753
0.649986
0.618139
0.581508
0.544025
0.508652
0.47731
0.450599
0.427816
0.407457
0.38752
0.366091
0.341949
0.315043
0.28672
0.259656
0.237438
0.223694
0.221489
0.235355
0.26362
0.300036
0.336888
0.367664
0.38911
0.401844
0.409357
0.416058
0.425335
0.437839
0.452831
0.469531
0.487088
0.504967
0.523143
0.542077
0.562548
0.585359
0.611153
0.640368
0.673093
0.709041
0.747592
0.787835
0.828668
0.868867
0.90711
0.941879
0.971239
0.993168
1.00578
1.0075
0.997477
0.97584
0.943813
0.903478
0.857287
0.807487
0.755737
0.70284
0.648948
0.594012
0.538187
0.482142
0.427148
0.374905
0.327153
0.285124
0.249443
0.219646
0.194022
0.170148
0.145444
0.117761
0.0858456
0.0495923
0.010029
-0.0315512
0
0.252081
0.932069
2.29117
4.40567
6.97969
9.32823
10.6179
10.2699
8.29048
5.31016
2.29058
0.0679855
-0.993836
-1.05534
-0.583054
-0.221433
0.0908643
0.320131
0.448577
0.518396
0.539052
0.526254
0.498835
0.474362
0.464775
0.471513
0.488564
0.5117
0.536566
0.560288
0.582532
0.60555
0.633234
0.669521
0.716772
0.773932
0.837781
0.904586
0.970194
1.03103
1.08487
1.13107
1.17049
1.20498
1.23682
1.26835
1.3015
1.33798
1.37921
1.4264
1.48043
1.54178
1.61048
1.68595
1.76728
1.85327
1.94246
2.03311
2.1227
2.2076
2.28326
2.34482
2.38745
2.40699
2.4006
2.36729
2.30807
2.22583
2.12478
2.00982
1.88598
1.75755
1.62751
1.49746
1.36819
1.23984
1.11202
0.984074
0.855401
0.725952
0.596677
0.469835
0.349014
0.238768
0.144459
0.0735926
0.0359263
0.0385414
0.0750488
0.124753
0.164813
0.176622
0.150807
0.0897664
0.00710044
-0.0763025
-0.138958
-0.167926
-0.167519
-0.142955
-0.107299
-0.0751088
-0.0569201
-0.0555222
-0.0656063
-0.0767808
-0.078445
-0.0642992
-0.0383685
-0.00542445
0.0296937
0.0617442
0.0865952
0.102142
0.108538
0.107713
0.102335
0.0945906
0.0850698
0.0725065
0.0543206
0.0282878
-0.00560389
-0.0439828
-0.0802618
-0.106249
-0.114671
-0.101873
-0.0694366
-0.0225453
0.030697
0.0814395
0.122514
0.149342
0.16034
0.156336
0.139501
0.112369
0.0777768
0.0387493
-0.00199742
-0.0400417
-0.0692168
-0.0829163
-0.0759282
-0.0426836
0.0170728
0.0897047
0.157272
0.203747
0.220319
0.207556
0.173869
0.131447
0.091745
0.0607572
0.0387046
0.0250267
0.0195224
0.0219353
0.0319991
0.0494895
0.0740822
0.105097
0.141538
0.181557
0.221938
0.258924
0.289108
0.310171
0.321359
0.323524
0.318764
0.309815
0.299458
0.290087
0.28341
0.280994
0.284276
0.294577
0.312959
0.33998
0.375413
0.417853
0.465176
0.514385
0.561686
0.602848
0.633616
0.650066
0.648873
0.627602
0.585045
0.521596
0.439572
0.343391
0.239445
0.135582
0.0401861
-0.0390234
-0.0944218
-0.111752
-0.0873395
-0.0385945
0.0112295
0.0406356
0.0361241
-0.00529938
-0.0778367
-0.171342
-0.275937
-0.384625
-0.322235
0
0.86908
2.53935
4.98196
7.72609
9.9388
10.7709
9.79971
7.29179
4.09759
1.22647
-0.632645
-1.35285
-1.26482
-0.870837
-0.503377
-0.191786
0.0332978
0.17215
0.274724
0.356973
0.422759
0.4767
0.523282
0.565927
0.606351
0.644406
0.678439
0.706045
0.724954
0.733799
0.732595
0.722888
0.707598
0.690689
0.676478
0.669113
0.672306
0.688839
0.720134
0.76638
0.82681
0.899541
0.981655
1.06956
1.15939
1.24751
1.33095
1.40771
1.4769
1.53915
1.5965
1.65216
1.71009
1.7745
1.84921
1.93864
2.05085
2.18633
2.32876
2.45666
2.55007
2.59615
2.59186
2.54302
2.46106
2.3593
2.25001
2.14182
2.03831
1.9404
1.84771
1.75911
1.67297
1.58717
1.49919
1.40645
1.30673
1.19871
1.08248
0.95989
0.834472
0.712037
0.599722
0.504259
0.43046
0.380074
0.353072
0.343974
0.345092
0.348343
0.346908
0.3363
0.314632
0.282252
0.241055
0.194043
0.144728
0.0965673
0.0542105
0.0232783
0.00958519
0.0185737
0.0542235
0.117928
0.219556
0.358494
0.508257
0.638078
0.722022
0.746366
0.712655
0.635674
0.537556
0.440598
0.360893
0.299572
0.252261
0.215625
0.187307
0.165099
0.146726
0.130083
0.113531
0.0961619
0.0780047
0.0601309
0.0449424
0.0358612
0.0365957
0.0503669
0.0790855
0.122752
0.17925
0.244588
0.313499
0.38022
0.439023
0.484388
0.512701
0.522049
0.512351
0.48539
0.444684
0.395105
0.342238
0.291564
0.247556
0.21237
0.186541
0.170368
0.163553
0.165331
0.17465
0.190306
0.211205
0.236171
0.263625
0.292022
0.320579
0.349718
0.381233
0.417969
0.463003
0.518545
0.584925
0.659654
0.738268
0.815979
0.887752
0.949026
0.996296
1.02741
1.04158
1.0392
1.02168
0.99143
0.95147
0.905264
0.856761
0.810145
0.76942
0.738195
0.719211
0.713769
0.721094
0.736258
0.748619
0.746106
0.718323
0.659134
0.568174
0.450702
0.315786
0.1735
0.0323584
-0.10249
0
0.312892
0.96517
2.21466
4.17279
6.59937
8.86174
10.1459
9.84536
7.91173
4.9368
1.88867
-0.354221
-1.38749
-1.36714
-0.782942
-0.225652
0.217351
0.51488
0.690168
0.831671
0.95167
1.04575
1.11108
1.14749
1.15824
1.15016
1.13306
1.11814
1.11582
1.13237
1.16809
1.21894
1.28024
1.34595
1.40987
1.46704
1.51484
1.55343
1.58562
1.61601
1.64996
1.692
1.74498
1.81047
1.88897
1.98006
2.08276
2.19594
2.31849
2.4493
2.58768
2.73302
2.87996
3.01698
3.13083
3.21071
3.25243
3.26074
3.2486
3.23354
3.23259
3.25824
3.3247
3.42545
3.53311
3.61666
3.65019
3.6178
3.51538
3.35072
3.14217
2.91471
2.69336
2.49156
2.30911
2.14215
1.98933
1.85077
1.72608
1.61455
1.51543
1.42738
1.34851
1.2771
1.21203
1.15308
1.10101
1.05722
1.02313
0.999892
0.988086
0.985042
0.986585
0.988044
0.985384
0.976035
0.959184
0.935536
0.906779
0.875097
0.842844
0.812005
0.784574
0.762548
0.747785
0.741737
0.74501
0.757714
0.779684
0.808554
0.839096
0.86612
0.885997
0.897825
0.903729
0.908118
0.916103
0.931654
0.955685
0.986319
1.01968
1.04824
1.06327
1.05723
1.02557
0.967998
0.888703
0.795527
0.698173
0.606081
0.52547
0.457074
0.400499
0.356057
0.32363
0.302603
0.291738
0.289998
0.29687
0.312518
0.337692
0.374404
0.427579
0.501526
0.588675
0.669875
0.722796
0.729833
0.685254
0.598563
0.492478
0.395787
0.333482
0.310558
0.314687
0.336361
0.371094
0.41434
0.462368
0.512552
0.563105
0.611265
0.652398
0.679988
0.68772
0.672686
0.637645
0.590651
0.541843
0.498884
0.463146
0.42979
0.391947
0.34306
0.280102
0.205615
0.127904
0.0594731
0.0143475
0
0.0226595
0.0877353
0.19465
0.338315
0.509731
0.708369
0.992166
1.2986
1.88663
3.04664
4.85835
6.99832
8.76601
9.37782
8.39331
6.00948
3.01206
0.386495
-1.1737
-1.55752
-1.15066
-0.656854
-0.31366
-0.166335
-0.0720166
0.0244623
0.112824
0.190592
0.253307
0.298444
0.325903
0.337813
0.337831
0.330273
0.319429
0.309039
0.301917
0.300662
0.307649
0.324896
0.353764
0.394573
0.44619
0.507063
0.57328
0.638693
0.697272
0.744576
0.77894
0.802012
0.818501
0.835157
0.859267
0.897049
0.950742
1.01966
1.10184
1.19431
1.2929
1.39265
1.48821
1.57402
1.64549
1.70028
1.73799
1.76014
1.76987
1.77127
1.76854
1.765
1.76225
1.75972
1.75484
1.74358
1.72116
1.68275
1.62404
1.54155
1.43294
1.29748
1.13834
0.960882
0.771567
0.577971
0.389054
0.213958
0.0622017
-0.0523688
-0.125954
-0.166725
-0.187569
-0.201471
-0.217455
-0.238567
-0.262469
-0.284054
-0.2988
-0.306546
-0.309334
-0.311907
-0.320101
-0.338817
-0.370265
-0.413046
-0.462355
-0.511143
-0.551756
-0.578241
-0.588974
-0.582636
-0.558151
-0.513784
-0.443433
-0.339746
-0.212063
-0.0880564
0.000904274
0.0302929
-0.00735788
-0.0982391
-0.212191
-0.315003
-0.381869
-0.413778
-0.426518
-0.428965
-0.425024
-0.417529
-0.408519
-0.39898
-0.388864
-0.37739
-0.363538
-0.34658
-0.326146
-0.304955
-0.290447
-0.291719
-0.31575
-0.363454
-0.427477
-0.493159
-0.542711
-0.561091
-0.544659
-0.494443
-0.420088
-0.337437
-0.262744
-0.208408
-0.180409
-0.177774
-0.193715
-0.217796
-0.238513
-0.247091
-0.239558
-0.215459
-0.176793
-0.127035
-0.0699622
-0.00969338
0.0499517
0.105798
0.154443
0.192316
0.217215
0.227381
0.222046
0.20215
0.170741
0.132668
0.0935693
0.0585339
0.0303076
0.0089294
-0.00555167
-0.0135304
-0.015414
-0.0111553
0
0.0227536
0.0556015
0.100156
0.157304
0.226696
0.30644
0.393537
0.485083
0.569116
0.661155
1.11993
2.3077
4.36506
6.9736
9.34589
10.5364
9.93753
7.65427
4.48955
1.52861
-0.413516
-1.13107
-0.969339
-0.496227
-0.0761013
0.257533
0.540548
0.741101
0.884958
0.991629
1.05874
1.09214
1.10377
1.1071
1.11232
1.12337
1.1379
1.15378
1.16967
1.18656
1.20808
1.23967
1.28663
1.3517
1.43231
1.52676
1.62742
1.72466
1.80929
1.8746
1.91749
1.93857
1.94132
1.93109
1.91421
1.89755
1.8869
1.8883
1.90745
1.9491
2.01617
2.10896
2.22466
2.35837
2.50239
2.64514
2.77522
2.88338
2.96384
3.01467
3.03743
3.03609
3.01568
2.98107
2.93642
2.88434
2.82611
2.7622
2.69273
2.61765
2.53711
2.45165
2.36218
2.27001
2.17678
2.08442
1.99499
1.91039
1.83219
1.76143
1.69753
1.63818
1.58029
1.52099
1.45867
1.39364
1.32822
1.26613
1.21148
1.16714
1.13465
1.11434
1.10528
1.10582
1.11423
1.12904
1.14914
1.17358
1.20151
1.23082
1.25803
1.27919
1.29096
1.2917
1.28219
1.26567
1.24712
1.23216
1.22564
1.22972
1.24479
1.2708
1.30726
1.35292
1.40639
1.4656
1.52589
1.5809
1.62469
1.65313
1.665
1.66204
1.64786
1.62611
1.59883
1.56628
1.52806
1.48274
1.42957
1.36897
1.3024
1.23197
1.15971
1.08716
1.01507
0.943941
0.874384
0.80771
0.746633
0.694489
0.654944
0.631029
0.624187
0.633755
0.657081
0.690228
0.728948
0.769548
0.809407
0.846842
0.880413
0.909141
0.932134
0.948603
0.957966
0.959856
0.953972
0.939809
0.916499
0.883239
0.839367
0.784952
0.721546
0.652423
0.582311
0.516633
0.460477
0.416637
0.386769
0.37082
0.367051
0.372413
0.382985
0.394576
0.402802
0.403444
0.39312
0.369521
0.331645
0.27989
0.215929
0.0186779
0
0.609748
2.11274
4.45929
7.18804
9.51789
10.6417
10.1019
8.03857
5.1481
2.35334
0.377176
-0.531286
-0.58129
-0.199195
0.128972
0.437612
0.711631
0.939515
1.13805
1.31337
1.46537
1.59485
1.70354
1.79396
1.86922
1.93298
1.98913
2.04157
2.09385
2.14892
2.2087
2.27381
2.34351
2.4159
2.48808
2.55696
2.62009
2.67635
2.72624
2.77194
2.81678
2.86459
2.91882
2.98163
3.05371
3.13434
3.22141
3.31157
3.40084
3.48491
3.5589
3.61761
3.65805
3.67852
3.67882
3.66044
3.62657
3.5818
3.53131
3.4798
3.43029
3.383
3.33611
3.28621
3.22875
3.1589
3.07253
2.96708
2.84207
2.69927
2.54227
2.37581
2.20504
2.03418
1.86614
1.70253
1.54373
1.38931
1.23869
1.09176
0.949544
0.815059
0.693365
0.589938
0.510044
0.457319
0.43256
0.439428
0.472397
0.517215
0.558616
0.58402
0.586253
0.56464
0.524528
0.475718
0.430443
0.399828
0.389481
0.401844
0.437881
0.506834
0.608411
0.722776
0.826266
0.898453
0.927918
0.91445
0.86714
0.799701
0.725326
0.652829
0.584551
0.520416
0.459984
0.402701
0.348142
0.296342
0.248136
0.205122
0.169336
0.142997
0.128023
0.125579
0.135755
0.157434
0.188315
0.225212
0.264186
0.298871
0.32244
0.329175
0.315965
0.28356
0.236971
0.184541
0.135812
0.0989289
0.0779665
0.0703854
0.0741206
0.087651
0.109732
0.13977
0.178451
0.227223
0.287709
0.364169
0.463473
0.585772
0.710452
0.811103
0.863771
0.85506
0.786766
0.674613
0.541254
0.406879
0.282315
0.164924
0.0508244
-0.0613053
-0.171164
-0.275574
-0.368435
-0.44205
-0.489252
-0.50547
-0.490093
-0.446849
-0.3832
-0.308923
-0.234173
-0.166612
-0.109261
-0.0618256
-0.0226626
0
-0.063555
0.171992
0.969173
2.4673
4.51536
6.60765
8.02565
8.1587
6.83314
4.43707
1.74482
-0.456156
-1.70751
-2.00071
-1.59926
-1.05867
-0.532044
-0.130716
0.0496996
0.111585
0.142727
0.156592
0.156079
0.145544
0.13039
0.116476
0.109151
0.112035
0.127133
0.155164
0.195655
0.247077
0.305583
0.366484
0.424998
0.476982
0.519087
0.549787
0.56964
0.581086
0.588242
0.596526
0.612087
0.641025
0.688478
0.757717
0.848002
0.956037
1.0777
1.20775
1.33979
1.46631
1.5806
1.67774
1.75516
1.81266
1.85194
1.87577
1.88695
1.88748
1.8786
1.85987
1.83003
1.7876
1.73146
1.66134
1.57795
1.48296
1.3787
1.26794
1.15327
1.03675
0.919823
0.8033
0.687348
0.571591
0.455336
0.337914
0.219126
0.099679
-0.0184759
-0.13156
-0.233959
-0.319934
-0.38462
-0.42537
-0.442655
-0.438583
-0.420127
-0.395514
-0.372247
-0.355467
-0.34718
-0.346517
-0.350833
-0.357163
-0.363513
-0.369491
-0.375994
-0.384703
-0.397376
-0.415183
-0.438296
-0.465798
-0.495857
-0.525995
-0.553455
-0.575341
-0.588576
-0.590583
-0.579563
-0.554976
-0.5179
-0.471092
-0.418634
-0.365216
-0.315235
-0.271513
-0.235743
-0.208375
-0.188927
-0.176574
-0.170758
-0.172051
-0.181632
-0.200954
-0.231069
-0.27167
-0.320348
-0.372452
-0.421264
-0.459257
-0.479523
-0.477142
-0.450114
-0.396888
-0.316914
-0.216412
-0.113248
-0.0279289
0.0234631
0.0336042
0.00729542
-0.038011
-0.0762526
-0.0812214
-0.0366613
0.0670376
0.201763
0.324957
0.399747
0.412418
0.378208
0.332716
0.313804
0.343499
0.412977
0.502472
0.583926
0.63202
0.633281
0.590487
0.521404
0.452419
0.408876
0.403081
0.435985
0.487744
0.528356
0.53006
0.478857
0.380077
0.256083
0.137901
0.0546923
0.0126818
0
0.0246918
0.0879982
0.165099
0.22638
0.246058
0.210397
0.122603
-0.00509701
-0.237695
0.019689
1.07214
3.03435
5.66805
8.33966
10.1926
10.5114
9.09124
6.37671
3.25635
0.629079
-0.985234
-1.56898
-1.44328
-0.964806
-0.484756
-0.0424982
0.2831
0.456821
0.567927
0.639066
0.674189
0.682168
0.675184
0.666127
0.665778
0.678833
0.704231
0.739935
0.783366
0.829562
0.872615
0.907968
0.933588
0.950468
0.962265
0.974141
0.99115
1.01678
1.05199
1.09511
1.14479
1.19991
1.26026
1.3266
1.40011
1.4815
1.57035
1.66436
1.76085
1.85731
1.95158
2.04216
2.12822
2.20939
2.28523
2.35473
2.41659
2.46906
2.51028
2.53857
2.55266
2.55174
2.53523
2.50265
2.45353
2.38831
2.30726
2.21133
2.10222
1.98232
1.85418
1.72014
1.58205
1.44133
1.29937
1.15812
1.02052
0.890616
0.773035
0.674707
0.605384
0.567069
0.551101
0.544805
0.53618
0.518043
0.489689
0.455434
0.420986
0.389683
0.360384
0.33006
0.295817
0.256775
0.215289
0.176655
0.147332
0.132415
0.136192
0.154505
0.178843
0.199998
0.211985
0.21443
0.212389
0.213843
0.226095
0.252134
0.288821
0.331764
0.372777
0.402415
0.412846
0.399852
0.364136
0.311664
0.252851
0.200525
0.167022
0.160116
0.18052
0.23355
0.307613
0.382131
0.43695
0.45872
0.444748
0.402963
0.348092
0.295671
0.256459
0.230625
0.213331
0.20188
0.194127
0.188863
0.186012
0.186188
0.18978
0.196231
0.202345
0.201806
0.187206
0.152707
0.0967741
0.0218746
-0.05973
-0.129831
-0.170531
-0.169833
-0.125184
-0.0435734
0.0617317
0.176179
0.288285
0.393883
0.489422
0.569049
0.628735
0.662685
0.665084
0.633174
0.569767
0.483634
0.387461
0.294403
0.214292
0.147995
0.0944386
0.0540321
0.026087
0.00948391
0.00224152
0
-0.00140972
-0.0132933
-0.0438677
-0.0995831
-0.183573
-0.294638
-0.427116
-0.572017
-0.767445
-0.594781
0.171641
1.68291
3.90665
6.52779
8.92815
10.3387
10.1605
8.30099
5.29819
2.10547
-0.359667
-1.62333
-1.77521
-1.26881
-0.744823
-0.307329
-0.0197002
0.0929634
0.158287
0.206869
0.24433
0.27645
0.308607
0.345172
0.390029
0.446297
0.511976
0.577875
0.63277
0.66727
0.677472
0.667227
0.648138
0.637114
0.652015
0.705622
0.795577
0.913182
1.05033
1.19991
1.35468
1.50745
1.65199
1.78388
1.90092
2.00314
2.09253
2.17255
2.2475
2.32192
2.40007
2.48557
2.5809
2.68744
2.80649
2.94036
3.08677
3.23205
3.35837
3.44918
3.49408
3.49202
3.4514
3.38723
3.31661
3.25399
3.20418
3.16471
3.13221
3.10262
3.06903
3.02408
2.96166
2.87851
2.77515
2.65577
2.52719
2.39718
2.27243
2.15622
2.05101
1.95815
1.87795
1.80992
1.75314
1.7066
1.66896
1.6382
1.61238
1.58996
1.57008
1.55261
1.53805
1.52709
1.52037
1.5179
1.51882
1.5218
1.52538
1.52846
1.5304
1.53095
1.52993
1.52697
1.52153
1.51296
1.50094
1.4859
1.46927
1.45344
1.44137
1.43604
1.43929
1.45178
1.47371
1.50396
1.53938
1.57521
1.60637
1.62832
1.63771
1.63261
1.61251
1.57795
1.53009
1.47038
1.40095
1.32403
1.24196
1.15743
1.07372
0.994605
0.924091
0.86591
0.823277
0.798104
0.790773
0.800609
0.826488
0.865459
0.908474
0.943283
0.959056
0.949413
0.914971
0.864145
0.811372
0.773016
0.762351
0.78611
0.850195
0.939485
1.02739
1.08859
1.10688
1.07987
1.0196
0.948803
0.893608
0.874361
0.891747
0.931392
0.983474
1.0382
1.0854
1.11612
1.12379
1.10478
1.05854
0.987518
0.89701
0.795152
0.691213
0.593824
0.509758
0.449187
0.423296
0.423836
0.434302
0.436009
0.414922
0.366502
0.296531
0.217752
0.14406
0.0849227
0.0378237
0
0.054176
0.264754
0.843923
2.04427
3.94982
6.3146
8.53515
9.83512
9.61816
7.80694
4.9509
1.99995
-0.150412
-1.07307
-0.937502
-0.470872
-0.260547
-0.103761
-0.00150261
0.0672969
0.123155
0.178087
0.24114
0.314789
0.396746
0.483992
0.572059
0.656164
0.732267
0.797818
0.852087
0.896068
0.932081
0.963206
0.992739
1.02363
1.05823
1.09818
1.14439
1.197
1.25545
1.3186
1.38488
1.45249
1.51968
1.58513
1.64831
1.70957
1.77025
1.8324
1.89846
1.97082
2.05133
2.1409
2.2394
2.3456
2.45709
2.57043
2.68059
2.78164
2.86791
2.93467
2.97863
2.99814
2.99298
2.96378
2.91143
2.83669
2.74136
2.6273
2.49577
2.34795
2.18565
2.01151
1.82888
1.64163
1.45384
1.26954
1.0924
0.925599
0.771659
0.632458
0.509283
0.402932
0.313784
0.241809
0.186552
0.14737
0.12319
0.11128
0.106931
0.104698
0.099095
0.0854539
0.0607831
0.0244306
-0.0216253
-0.0729826
-0.123506
-0.166143
-0.194879
-0.206142
-0.199582
-0.177917
-0.145885
-0.108658
-0.0703041
-0.0328478
0.0037518
0.0408066
0.079678
0.120634
0.162343
0.201917
0.235622
0.259833
0.271919
0.270793
0.257058
0.232792
0.201085
0.165687
0.129826
0.095951
0.0659436
0.0409972
0.0218017
0.00904545
0.00386776
0.00809413
0.025939
0.0732612
0.16648
0.282242
0.375085
0.396035
0.318809
0.15703
-0.0391252
-0.205882
-0.295546
-0.319291
-0.312559
-0.283604
-0.241312
-0.193124
-0.144061
-0.0961423
-0.0500915
-0.00607558
0.0360154
0.0763529
0.115098
0.152453
0.188738
0.22442
0.260048
0.296065
0.332539
0.368812
0.402855
0.430866
0.448071
0.449591
0.43176
0.393363
0.336408
0.266142
0.190277
0.117594
0.055401
0.00725057
-0.0231703
-0.0333166
-0.0251075
-0.0051466
0.0179141
0.0351359
0.0387416
0.023165
-0.014408
-0.0739896
-0.153134
-0.247546
-0.351571
-0.477128
-0.420304
0
1.00373
2.7041
4.93927
7.18009
8.663
8.73419
7.21773
4.56051
1.6351
-0.685402
-1.9154
-2.08685
-1.55784
-0.924305
-0.36187
0.0365082
0.211808
0.307729
0.381119
0.434195
0.470271
0.49501
0.515298
0.537701
0.567046
0.604975
0.65027
0.701175
0.756173
0.813779
0.87285
0.932693
0.99304
1.05395
1.11573
1.17895
1.24443
1.31327
1.38674
1.46604
1.55204
1.64494
1.74409
1.848
1.95459
2.06161
2.16716
2.27016
2.37053
2.46921
2.56771
2.66759
2.76982
2.87445
2.9797
3.0813
3.17383
3.2519
3.31132
3.34963
3.36606
3.36115
3.33623
3.29356
3.23716
3.16946
3.0931
3.0105
2.92317
2.8311
2.73257
2.62422
2.50201
2.36236
2.20343
2.02601
1.8338
1.63315
1.43208
1.2385
1.05956
0.901281
0.767855
0.661465
0.583266
0.534958
0.516116
0.518736
0.530101
0.537474
0.530538
0.503518
0.456303
0.394189
0.326248
0.262771
0.211512
0.174702
0.15197
0.142418
0.142872
0.148747
0.155026
0.157235
0.15223
0.138724
0.117492
0.091232
0.0640799
0.0408977
0.0264026
0.0243876
0.037201
0.0655817
0.108828
0.165152
0.232024
0.306542
0.385972
0.464072
0.531985
0.580309
0.601347
0.59172
0.554201
0.497781
0.43574
0.382237
0.347477
0.331885
0.338363
0.36443
0.399459
0.430932
0.447877
0.443707
0.417726
0.375003
0.324793
0.278038
0.244019
0.225727
0.222664
0.237474
0.265795
0.296481
0.317257
0.318318
0.295333
0.25081
0.193364
0.135294
0.0910946
0.11492
0.33835
0.718419
1.13014
1.44838
1.55354
1.38113
0.968859
0.459192
0.0484934
-0.0696741
0.0339952
0.18396
0.342406
0.499611
0.644573
0.767688
0.861818
0.9232
0.95182
0.951104
0.927007
0.88677
0.837726
0.786514
0.737702
0.693854
0.65673
0.62749
0.606252
0.591251
0.578662
0.563366
0.539765
0.502691
0.448273
0.374537
0.281637
0.171714
0.0484674
-0.0831203
-0.219065
-0.230179
0
0.673017
2.05567
4.22978
6.87209
9.23935
10.4518
9.94603
7.81116
4.77403
1.82959
-0.245843
-1.19797
-1.26355
-0.89363
-0.559436
-0.259637
-0.0186895
0.146773
0.274821
0.381312
0.46848
0.536122
0.585561
0.618859
0.638838
0.649043
0.65356
0.656704
0.662597
0.674739
0.695608
0.726003
0.76576
0.814356
0.870724
0.933235
0.999881
1.06833
1.13588
1.20016
1.25962
1.31396
1.36421
1.41256
1.46186
1.51494
1.57397
1.63962
1.71153
1.78863
1.86917
1.95092
2.03138
2.10764
2.1759
2.23207
2.2734
2.29831
2.3071
2.30251
2.28948
2.27405
2.26155
2.25497
2.25364
2.25229
2.24311
2.21826
2.172
2.10168
2.00731
1.89046
1.7532
1.60065
1.43812
1.26971
1.09957
0.932687
0.774354
0.629696
0.503989
0.401443
0.321181
0.259946
0.213305
0.177021
0.148128
0.125373
0.108965
0.0998096
0.0985216
0.103906
0.114901
0.128813
0.140531
0.144392
0.135875
0.113014
0.0772223
0.0331324
-0.0126356
-0.053426
-0.0845192
-0.105747
-0.118405
-0.124948
-0.128079
-0.129564
-0.12955
-0.126622
-0.118574
-0.10358
-0.0807518
-0.0514261
-0.0203718
0.0065691
0.0244148
0.0305056
0.0248489
0.00931263
-0.0137537
-0.0426023
-0.0757151
-0.112271
-0.150863
-0.189073
-0.223746
-0.25181
-0.27122
-0.282027
-0.285197
-0.28219
-0.274406
-0.262836
-0.247683
-0.228765
-0.205857
-0.179263
-0.149316
-0.116715
-0.0825914
-0.0486817
-0.0184426
0.0027709
0.0086813
-0.00668135
-0.0469003
-0.111142
-0.193027
-0.28102
-0.360449
-0.416655
-0.432927
-0.381862
-0.269472
-0.129153
0.00147371
0.0931021
0.130333
0.110985
0.0433269
-0.0555948
-0.161118
-0.245645
-0.28789
-0.28073
-0.235566
-0.168476
-0.0893771
-0.00445614
0.0807717
0.161204
0.232754
0.29272
0.339579
0.372823
0.392809
0.400788
0.398859
0.389906
0.377397
0.36498
0.355909
0.353125
0.358606
0.36951
0.379946
0.383142
0.373865
0.350323
0.314786
0.272703
0.230733
0.194557
0.165935
0.14405
0.127921
0.116184
0.107386
0.100392
0.094552
0.0896233
0.0855261
0.0820632
0.0787249
0.074468
-0.0239336
0
0.557668
1.98893
4.312
7.06575
9.40717
10.4646
9.77232
7.52725
4.49931
1.64491
-0.33718
-1.24662
-1.31635
-0.924486
-0.539005
-0.190526
0.0839747
0.257321
0.382272
0.482357
0.562922
0.626206
0.674824
0.711806
0.740143
0.762768
0.782587
0.802472
0.825164
0.853072
0.888039
0.931095
0.982327
1.04115
1.10653
1.17709
1.25132
1.3274
1.40197
1.46953
1.52392
1.55984
1.57508
1.5726
1.56116
1.55401
1.5658
1.60856
1.68344
1.78297
1.90018
2.02941
2.16341
2.29311
2.41033
2.50938
2.5878
2.64639
2.68849
2.71876
2.74168
2.75994
2.77366
2.78003
2.77371
2.74835
2.6982
2.61974
2.5128
2.38091
2.23083
2.07156
1.91156
1.7567
1.61159
1.47675
1.35006
1.22847
1.11005
0.995565
0.888847
0.795772
0.733652
0.716706
0.728465
0.736675
0.707295
0.620791
0.482168
0.319805
0.173574
0.077639
0.0321006
0.0268432
0.0479003
0.0770268
0.0983876
0.103697
0.093752
0.0759493
0.059278
0.0494618
0.0456541
0.0444316
0.0423759
0.0372603
0.029209
0.0206978
0.0155478
0.017466
0.0278682
0.0457629
0.0698054
0.0983957
0.129514
0.16076
0.189865
0.215105
0.235517
0.250928
0.261788
0.268828
0.272606
0.273112
0.269595
0.260406
0.243638
0.217621
0.181563
0.136025
0.0830585
0.025941
-0.0314083
-0.0851453
-0.132152
-0.170322
-0.198611
-0.216837
-0.22543
-0.22526
-0.217361
-0.203249
-0.185407
-0.166733
-0.150039
-0.13741
-0.129601
-0.125706
-0.123274
-0.118911
-0.109248
-0.0920448
-0.0660546
-0.0330603
0.00187488
0.0327741
0.0547856
0.0658198
0.0671276
0.0625984
0.0570821
0.054426
0.0555892
0.0595235
0.0632385
0.0630979
0.0562975
0.0420931
0.02239
0.00153875
-0.0145578
-0.0197207
-0.009761
0.0164936
0.0621314
0.13109
0.226115
0.34097
0.455143
0.544576
0.587154
0.568328
0.486429
0.35529
0.202154
0.0603774
-0.0414147
-0.102463
-0.138008
-0.153508
-0.157381
-0.158195
-0.162073
-0.171065
-0.183107
-0.193578
-0.197767
-0.193184
-0.181843
-0.167384
-0.15303
-0.141842
-0.135886
-0.135747
-0.140452
-0.148376
-0.152234
0
0.517836
1.68017
3.58477
5.94287
8.06485
9.12288
8.57818
6.51468
3.64491
0.961828
-0.753386
-1.26941
-0.906355
-0.543018
-0.242127
-0.03974
0.063893
0.132229
0.188299
0.239271
0.291107
0.347788
0.4115
0.483811
0.565756
0.652911
0.735062
0.80127
0.843668
0.860796
0.858927
0.850529
0.850263
0.869989
0.912284
0.970079
1.03781
1.10912
1.17729
1.23726
1.28697
1.32795
1.3652
1.40621
1.45934
1.53198
1.6281
1.74719
1.88552
2.03816
2.19879
2.35987
2.5142
2.65489
2.77427
2.86402
2.92065
2.94278
2.93055
2.8865
2.81662
2.73059
2.64072
2.55963
2.49719
2.45859
2.44565
2.44598
2.44148
2.41377
2.34935
2.24296
2.09841
1.92703
1.74452
1.56678
1.40228
1.25317
1.1211
1.00676
0.908407
0.822764
0.745903
0.674184
0.605126
0.538023
0.474159
0.416573
0.369386
0.338155
0.336041
0.379808
0.456841
0.538393
0.592809
0.597895
0.549511
0.462548
0.364394
0.284528
0.24498
0.239691
0.25669
0.289595
0.334347
0.386883
0.442745
0.497546
0.547685
0.590726
0.625566
0.652374
0.672308
0.687102
0.698612
0.708447
0.71773
0.727014
0.736372
0.745506
0.753855
0.760685
0.765149
0.766339
0.763351
0.75549
0.742534
0.724941
0.704062
0.682211
0.662526
0.648572
0.644381
0.656533
0.692037
0.744748
0.797455
0.830889
0.831639
0.79821
0.742082
0.682959
0.640307
0.625436
0.631792
0.648678
0.670666
0.692895
0.711295
0.722826
0.724386
0.71442
0.692238
0.658463
0.615673
0.568744
0.524501
0.49054
0.473504
0.477247
0.502054
0.544471
0.598259
0.65602
0.711095
0.759665
0.799406
0.829618
0.850827
0.864165
0.870785
0.871583
0.866844
0.85643
0.839952
0.816956
0.787054
0.749984
0.705626
0.654168
0.595937
0.531396
0.461307
0.386908
0.310046
0.233255
0.159743
0.0932299
0.0378211
0
-0.00611458
0.0338804
0.101802
0.168256
0.203919
0.191745
0.132756
-0.253891
-0.521962
-0.114765
1.29696
3.6666
6.45106
8.74669
9.6712
8.80366
6.42162
3.37633
0.673427
-0.99283
-1.489
-1.1662
-0.790558
-0.48685
-0.225696
-0.0157788
0.159611
0.302703
0.414579
0.497477
0.554779
0.590959
0.611381
0.621864
0.628117
0.635168
0.646587
0.664236
0.689095
0.721266
0.760134
0.804395
0.851038
0.896024
0.935777
0.968211
0.993395
1.01358
1.03253
1.05434
1.08235
1.11821
1.16202
1.21374
1.27322
1.3404
1.41517
1.49694
1.58455
1.6756
1.76728
1.85722
1.94426
2.02853
2.11087
2.19161
2.26911
2.33895
2.39455
2.42923
2.43828
2.42009
2.37587
2.30844
2.22086
2.11759
2.00303
1.87993
1.75026
1.61607
1.47942
1.34206
1.20497
1.06818
0.930781
0.791312
0.648274
0.500793
0.349151
0.195067
0.0416491
-0.106958
-0.246139
-0.371436
-0.479144
-0.56678
-0.632905
-0.675882
-0.694457
-0.692605
-0.681623
-0.673549
-0.678433
-0.701851
-0.743514
-0.797551
-0.854359
-0.90333
-0.935824
-0.950133
-0.947639
-0.927485
-0.883017
-0.793233
-0.629283
-0.423515
-0.235068
-0.134876
-0.174295
-0.357174
-0.633387
-0.917597
-1.12256
-1.19552
-1.20238
-1.18279
-1.14489
-1.09663
-1.0458
-0.998734
-0.959823
-0.93145
-0.914275
-0.907861
-0.91138
-0.924139
-0.945564
-0.975302
-1.01263
-1.05605
-1.10312
-1.15064
-1.1952
-1.23415
-1.26579
-1.28854
-1.30382
-1.31594
-1.32968
-1.34854
-1.3733
-1.40152
-1.42818
-1.44722
-1.45343
-1.446
-1.42513
-1.3911
-1.3499
-1.31229
-1.2886
-1.28573
-1.30484
-1.34078
-1.38368
-1.42239
-1.44841
-1.46004
-1.46074
-1.45492
-1.44714
-1.43986
-1.4323
-1.42091
-1.40125
-1.3703
-1.32813
-1.27945
-1.22858
-1.18006
-1.13747
-1.10302
-1.07801
-1.06467
-1.06597
-1.08592
-1.12916
-1.19912
-1.29598
-1.41537
-1.54841
35
234
436
655
872
1085
1283
1470
1653
1836
2016
2201
2385
2575
2761
2958
3166
3374
3573
3194
3357
3523
3688
3471
3612
0
0
0
0
0
0
0
0
0
0
0
0
0
0
0
0
0
0
0
0
0
0
0
0
0
0
0
0
0
0
0
0
0
0
0
0
0
0
0
0
0
0
0
0
0
0
0
0
0
0
0
0
0
0
0
0
0
0
0
0
0
0
0
0
0
0
0
0
0
0
0
0
0
0
0
0
0
0
0
0
0
0
0
0
0
0
0
0
0
0
0
0
0
0
0
0
0
0
0
0
0
0
0
0
0
0
0
0
0
0
0
0
0
0
0
0
0
0
0
0
0
0
0
0
0
0
0
0
0
0
0
0
0
0
0
0
0
0
0
0
0
0
0
0
0
0
0
0
0
0
0
0
0
0
0
0
0
0
0
0
0
0
0
0
0
0
0
0
0
0
0
0
0
0
0
0
0
0
0
0
0
0
0
0
0
0
0
0
0
0
0
0
0
0
0
0
0
0
0
0
0
0
0
0
0
0
0
0
0
0
0
0
0
0
0
0
0
0
0
0
0
0
0
0
0
0
0
0
0
0
0
0
0
0
0
0
0
0
0
0
0
0
0
0
0
0
0
0
0
0
0
0
0
0
0
0
0
0
0
0
0
0
0
0
0
0
0
0
0
0
0
0
0
0
0
0
0
0
0
0
0
0
0
0
0
0
0
0
0
0
0
0
0
0
0
0
0
0
0
0
0
0
0
0
0
0
0
0
0
0
0
0
0
0
0
0
0
0
0
0
0
0
0
0
0
0
0
0
0
0
0
0
0
0
0
0
0
0
0
0
0
0
0
0
0
0
0
0
0
0
0
0
0
0
0
0
0
0
0
0
0
0
0
0
0
0
0
0
0
0
0
0
0
0
0
0
0
0
0
0
0
0
0
0
0
0
0
0
0
0
0
0
0
0
0
0
0
0
0
0
0
0
0
0
0
0
0
0
0
0
0
0
0
0
0
0
0
0
0
0
0
0
0
0
0
0
0
0
0
0
0
0
0
0
0
0
0
0
0
0
0
0
0
0
0
0
0
0
0
0
0
0
0
0
0
0
0
0
0
0
0
0
0
0
0
0
0
0
0
0
0
0
0
0
0
0
0
0
0
0
0
0
0
0
0
0
0
0
0
0
0
0
0
0
0
0
0
0
0
0
0
0
0
0
0
0
0
0
0
0
0
0
0
0
0
0
0
0
0
0
0
0
0
0
0
0
0
0
0
0
0
0
0
0
0
0
0
0
0
0
0
0
0
0
0
0
0
0
0
0
0
0
0
0
0
0
0
0
0
0
0
0
0
0
0
0
0
0
0
0
0
0
0
0
0
0
0
0
0
0
0
0
0
0
0
0
0
0
0
0
0
0
0
0
0
0
0
0
0
0
0
0
0
0
0
0
0
0
0
0
0
0
0
0
0
0
0
0
0
0
0
0
0
0
0
0
0
0
0
0
0
0
0
0
0
0
0
0
0
0
0
0
0
0
0
0
0
0
0
0
0
0
0
0
0
0
0
0
0
0
0
0
0
0
0
0
0
0
0
0
0
0
0
0
0
0
0
0
0
0
0
0
0
0
0
0
0
0
0
0
0
0
0
0
0
0
0
0
0
0
0
0
0
0
0
0
0
0
0
0
0
0
0
0
0
0
0
0
0
0
0
0
0
0
0
0
0
0
0
0
0
0
0
0
0
0
0
0
0
0
0
0
0
0
0
0
0
0
0
0
0
0
0
0
0
0
0
0
0
0
0
0
0
0
0
0
0
0
0
0
0
0
0
0
0
0
0
0
0
0
0
0
0
0
0
0
0
0
0
0
0
0
0
0
0
0
0
0
0
0
0
0
0
0
0
0
0
0
0
0
0
0
0
0
0
0
0
0
0
0
0
0
0
0
0
0
0
0
0
0
0
0
0
0
0
0
0
0
0
0
0
0
0
0
0
0
0
0
0
0
0
0
0
0
0
0
0
0
0
0
0
0
0
0
0
0
0
0
0
0
0
0
0
0
0
0
0
0
0
0
0
0
0
0
0
0
0
0
0
0
0
0
0
0
0
0
0
0
0
0
0
0
0
0
0
0
0
0
0
0
0
0
0
0
0
0
0
0
0
0
0
0
0
0
0
0
0
0
0
0
0
0
0
0
0
0
0
0
0
0
0
0
0
0
0
0
0
0
0
0
0
0
0
0
0
0
0
0
0
0
0
0
0
0
0
0
0
0
0
0
0
0
0
0
0
0
0
0
0
0
0
0
0
0
0
0
0
0
0
0
0
0
0
0
0
0
0
0
0
0
0
0
0
0
0
0
0
0
0
0
0
0
0
0
0
0
0
0
0
0
0
0
0
0
0
0
0
0
0
0
0
0
0
0
0
0
0
0
0
0
0
0
0
0
0
0
0
0
0
0
0
0
0
0
0
0
0
0
0
0
0
0
0
0
0
0
0
0
0
0
0
0
0
0
0
0
0
0
0
0
0
0
0
0
0
0
0
0
0
0
0
0
0
0
0
0
0
0
0
0
0
0
0
0
0
0
0
0
0
0
0
0
0
0
0
0
0
0
0
0
0
0
0
0
0
0
0
0
0
0
0
0
0
0
0
0
0
0
0
0
0
0
0
0
0
0
0
0
0
0
0
0
0
0
0
0
0
0
0
0
0
0
0
0
0
0
0
0
0
0
0
0
0
0
0
0
0
0
0
0
0
0
0
0
0
0
0
0
0
0
0
0
0
0
0
0
0
0
0
0
0
0
0
0
0
0
0
0
0
0
0
0
0
0
0
0
0
0
0
0
0
0
0
0
0
0
0
0
0
0
0
0
0
0
0
0
0
0
0
0
0
0
0
0
0
0
0
0
0
0
0
0
0
0
0
0
0
0
0
0
0
0
0
0
0
0
0
0
0
0
0
0
0
0
0
0
0
0
0
0
0
0
0
0
0
0
0
0
0
0
0
0
0
0
0
0
0
0
0
0
0
0
0
0
0
0
0
0
0
0
0
0
0
0
0
0
0
0
0
0
0
0
0
0
0
0
0
0
0
0
0
0
0
0
0
0
0
0
0
0
0
0
0
0
0
0
0
0
0
0
0
0
0
0
0
0
0
0
0
0
0
0
0
0
0
0
0
0
0
0
0
0
0
0
0
0
0
0
0
0
0
0
0
0
0
0
0
0
0
0
0
0
0
0
0
0
0
0
0
0
0
0
0
0
0
0
0
0
0
0
0
0
0
0
0
0
0
0
0
0
0
0
0
0
0
0
0
0
0
0
0
0
0
0
0
0
0
0
0
0
0
0
0
0
0
0
0
0
0
0
0
0
0
0
0
0
0
0
0
0
0
0
0
0
0
0
0
0
0
0
0
0
0
0
0
0
0
0
0
0
0
0
0
0
0
0
0
0
0
0
0
0
0
0
0
0
0
0
0
0
0
0
0
0
0
0
0
0
0
0
0
0
0
0
0
0
0
0
0
0
0
0
0
0
0
0
0
0
0
0
0
0
0
0
0
0
0
0
0
0
0
0
0
0
0
0
0
0
0
0
0
0
0
0
0
0
0
0
0
0
0
0
0
0
0
0
0
0
0
0
0
0
0
0
0
0
0
0
0
0
0
0
0
0
0
0
0
0
0
0
0
0
0
0
0
0
0
0
0
0
0
0
0
0
0
0
0
0
0
0
0
0
0
0
0
0
0
0
0
0
0
0
0
0
0
0
0
0
0
0
0
0
0
0
0
0
0
0
0
0
0
0
0
0
0
0
0
0
0
0
0
0
0
0
0
0
0
0
0
0
0
0
0
0
0
0
0
0
0
0
0
0
0
0
0
0
0
0
0
0
0
0
0
0
0
0
0
0
0
0
0
0
0
0
0
0
0
0
0
0
0
0
0
0
0
0
0
0
0
0
0
0
0
0
0
0
0
0
0
0
0
0
0
0
0
0
0
0
0
0
0
0
0
0
0
0
0
0
0
0
0
0
0
0
0
0
0
0
0
0
0
0
0
0
0
0
0
0
0
0
0
0
0
0
0
0
0
0
0
0
0
0
0
0
0
0
0
0
0
0
0
0
0
0
0
0
0
0
0
0
0
0
0
0
0
0
0
0
0
0
0
0
0
0
0
0
0
0
0
0
0
0
0
0
0
0
0
0
0
0
0
0
0
0
0
0
0
0
0
0
0
0
0
0
0
0
0
0
0
0
0
0
0
0
0
0
0
0
0
0
0
0
0
0
0
0
0
0
0
0
0
0
0
0
0
0
0
0
0
0
0
0
0
0
0
0
0
0
0
0
0
0
0
0
0
0
0
0
0
0
0
0
0
0
0
0
0
0
0
0
0
0
0
0
0
0
0
0
0
0
0
0
0
0
0
0
0
0
0
0
0
0
0
0
0
0
0
0
0
0
0
0
0
0
0
0
0
0
0
0
0
0
0
0
0
0
0
0
0
0
0
0
0
0
0
0
0
0
0
0
0
0
0
0
0
0
0
0
0
0
0
0
0
0
0
0
0
0
0
0
0
0
0
0
0
0
0
0
0
0
0
0
0
0
0
0
0
0
0
0
0
0
0
0
0
0
0
0
0
0
0
0
0
0
0
0
0
0
0
0
0
0
0
0
0
0
0
0
0
0
0
0
0
0
0
0
0
0
0
0
0
0
0
0
0
0
0
0
0
0
0
0
0
0
0
0
0
0
0
0
0
0
0
0
0
0
0
0
0
0
0
0
0
0
0
0
0
0
0
0
0
0
0
0
0
0
0
0
0
0
0
0
0
0
0
0
0
0
0
0
0
0
0
0
0
0
0
0
0
0
0
0
0
0
0
0
0
0
0
0
0
0
0
0
0
0
0
0
0
0
0
0
0
0
0
0
0
0
0
0
0
0
0
0
0
0
0
0
0
0
0
0
0
0
0
0
0
0
0
0
0
0
0
0
0
0
0
0
0
0
0
0
0
0
0
0
0
0
0
0
0
0
0
0
0
0
0
0
0
0
0
0
0
0
0
0
0
0
0
0
0
0
0
0
0
0
0
0
0
0
0
0
0
0
0
0
0
0
0
0
0
0
0
0
0
0
0
0
0
0
0
0
0
0
0
0
0
0
0
0
0
0
0
0
0
0
0
0
0
0
0
0
0
0
0
0
0
0
0
0
0
0
0
0
0
0
0
0
0
0
0
0
0
0
0
0
0
0
0
0
0
0
0
0
0
0
0
0
0
0
0
0
0
0
0
0
0
0
0
0
0
0
0
0
0
0
0
0
0
0
0
0
0
0
0
0
0
0
0
0
0
0
0
0
0
0
0
0
0
0
0
0
0
0
0
0
0
0
0
0
0
0
0
0
0
0
0
0
0
0
0
0
0
0
0
0
0
0
0
0
0
0
0
0
0
0
0
0
0
0
0
0
0
0
0
0
0
0
0
0
0
0
0
0
0
0
0
0
0
0
0
0
0
0
0
0
0
0
0
0
0
0
0
0
0
0
0
0
0
0
0
0
0
0
0
0
0
0
0
0
0
0
0
0
0
0
0
0
0
0
0
0
0
0
0
0
0
0
0
0
0
0
0
0
0
0
0
0
0
0
0
0
0
0
0
0
0
0
0
0
0
0
0
0
0
0
0
0
0
0
0
0
0
0
0
0
0
0
0
0
0
0
0
0
0
0
0
0
0
0
0
0
0
0
0
0
0
0
0
0
0
0
0
0
0
0
0
0
0
0
0
0
0
0
0
0
0
0
0
0
0
0
0
0
0
0
0
0
0
0
0
0
0
0
0
0
0
0
0
0
0
0
0
0
0
0
0
0
0
0
0
0
0
0
0
0
0
0
0
0
0
0
0
0
0
0
0
0
0
0
0
0
0
0
0
0
0
0
0
0
0
0
0
0
0
0
0
0
0
0
0
0
0
0
0
0
0
0
0
0
0
0
0
0
0
0
0
0
0
0
0
0
0
0
0
0
0
0
0
0
0
0
0
0
0
0
0
0
0
0
0
0
0
0
0
0
0
0
0
0
0
0
0
0
0
0
0
0
0
0
0
0
0
0
0
0
0
0
0
0
0
0
0
0
0
0
0
0
0
0
0
0
0
0
0
0
0
0
0
0
0
0
0
0
0
0
0
0
0
0
0
0
0
0
0
0
0
0
0
0
0
0
0
0
0
0
0
0
0
0
0
0
0
0
0
0
0
0
0
0
0
0
0
0
0
0
0
0
0
0
0
0
0
0
0
0
0
0
0
0
0
0
0
0
0
0
0
0
0
0
0
0
0
0
0
0
0
0
0
0
0
0
0
0
0
0
0
0
0
0
0
0
0
0
0
0
0
0
0
0
0
0
0
0
0
0
0
0
0
0
0
0
0
0
0
0
0
0
0
0
0
0
0
0
0
0
0
0
0
0
0
0
0
0
0
0
0
0
0
0
0
0
0
0
0
0
0
0
0
0
0
0
0
0
0
0
0
0
0
0
0
0
0
0
0
0
0
0
0
0
0
0
0
0
0
0
0
0
0
0
0
0
0
0
0
0
0
0
0
0
0
0
0
0
0
0
0
0
0
0
0
0
0
0
0
0
0
0
0
0
0
0
0
0
0
0
0
0
0
0
0
0
0
0
0
0
0
0
0
0
0
0
0
0
0
0
0
0
0
0
0
0
0
0
0
0
0
0
0
0
0
0
0
0
0
0
0
0
0
0
0
0
0
0
0
0
0
0
0
0
0
0
0
0
0
0
0
0
0
0
0
0
0
0
0
0
0
0
0
0
0
0
0
0
0
0
0
0
0
0
0
0
0
0
0
0
0
0
0
0
0
0
0
0
0
0
0
0
0
0
0
0
0
0
0
0
0
0
0
0
0
0
0
0
0
0
0
0
0
0
0
0
0
0
0
0
0
0
0
0
0
0
0
0
0
0
0
0
0
0
0
0
0
0
0
0
0
0
0
0
0
0
0
0
0
0
0
0
0
0
0
0
0
0
0
0
0
0
0
0
0
0
0
0
0
0
0
0
0
0
0
0
0
0
0
0
0
0
0
0
0
0
0
0
0
0
0
0
0
0
0
0
0
0
0
0
0
0
0
0
0
0
0
0
0
0
0
0
0
0
0
0
0
0
0
0
0
0
0
0
0
0
0
0
0
0
0
0
0
0
0
0
0
0
0
0
0
0
0
0
0
0
0
0
0
0
0
0
0
0
0
0
0
0
0
0
0
0
0
0
0
0
0
0
0
0
0
0
0
0
0
0
0
0
0
0
0
0
0
0
0
0
0
0
0
0
0
0
0
0
0
0
0
0
0
0
0
0
0
0
0
0
0
0
0
0
0
0
0
0
0
0
0
0
0
0
0
0
0
0
0
0
0
0
0
0
0
0
0
0
0
0
0
0
0
0
0
0
0
0
0
0
0
0
0
0
0
0
0
0
0
0
0
0
0
0
0
0
0
0
0
0
0
0
0
0
0
0
0
0
0
0
0
0
0
0
0
0
0
0
0
0
0
0
0
0
0
0
0
0
0
0
0
0
0
0
0
0
0
0
0
0
0
0
0
0
0
0
0
0
0
0
0
0
0
0
0
0
0
0
0
0
0
0
0
0
0
0
0
0
0
0
0
0
0
0
0
0
0
0
0
0
0
0
0
0
0
0
0
0
0
0
0
0
0
0
0
0
0
0
0
0
0
0
0
0
0
0
0
0
0
0
0
0
0
0
0
0
0
0
0
0
0
0
0
0
0
0
0
0
0
0
0
0
0
0
0
0
0
0
0
0
0
0
0
0
0
0
0
0
0
0
0
0
0
0
0
0
0
0
0
0
0
0
0
0
0
0
0
0
0
0
0
0
0
0
0
0
0
0
0
0
0
0
0
0
0
0
0
0
0
0
0
0
0
0
0
0
0
0
0
0
0
0
0
0
0
0
0
0
0
0
0
0
0
0
0
0
0
0
0
0
0
0
0
0
0
0
0
0
0
0
0
0
0
0
0
0
0
0
0
0
0
0
0
0
0
0
0
0
0
0
0
0
0
0
0
0
0
0
0
0
0
0
0
0
0
0
0
0
0
0
0
0
0
0
0
0
0
0
0
0
0
0
0
0
0
0
0
0
0
0
0
0
0
0
0
0
0
0
0
0
0
0
0
0
0
0
0
0
0
0
0
0
0
0
0
0
0
0
0
0
0
0
0
0
0
0
0
0
0
0
0
0
0
0
0
0
0
0
0
0
0
0
0
0
0
0
0
0
0
0
0
0
0
0
0
0
0
0
0
0
0
0
0
0
0
0
0
0
0
0
0
0
0
0
0
0
0
0
0
0
0
0
0
0
0
0
0
0
0
0
0
0
0
0
0
0
0
0
0
0
0
0
0
0
0
0
0
0
0
0
0
0
0
0
0
0
0
0
0
0
0
0
0
0
0
0
0
0
0
0
0
0
0
0
0
0
0
0
0
0
0
0
0
0
0
0
0
0
0
0
0
0
0
0
0
0
