1.78941
1.82965
1.86419
1.89406
1.92044
1.94429
1.96571
1.98367
1.99646
2.00225
2.00059
1.99372
1.98718
1.989
2.01894
2.10409
2.22449
2.33174
2.37208
2.31568
2.17489
2.00039
1.85629
1.78692
1.7799
1.80151
1.82098
1.81101
1.75815
1.66689
1.55586
1.44849
1.36214
1.2946
1.23567
1.17754
1.11082
1.02637
0.917085
0.772872
0.584353
0.360125
0.113223
-0.157192
0
0.791538
2.3667
4.6045
7.06593
9.1207
10.1923
9.99063
8.61417
6.48744
4.18071
2.20293
0.85386
0.177558
0.0182605
0.148215
0.277109
0.403647
0.525079
0.637841
0.73927
0.826971
0.899573
0.958005
1.00587
1.04904
1.09448
1.15187
1.23197
1.32248
1.39617
1.42259
1.38348
1.28493
1.15974
1.05756
1.02581
1.08973
1.20979
1.36084
1.52588
1.68776
1.83354
1.95834
2.06014
2.14147
2.20842
2.26919
2.33252
2.40604
2.49553
2.60424
2.7328
2.87998
3.04353
3.22049
3.4081
3.60519
3.81448
4.05302
4.39935
4.87809
5.38907
5.78586
5.93161
5.76373
5.32015
4.71582
4.09865
3.6583
3.5359
3.53773
3.58213
3.62854
3.62552
3.52989
3.327
3.04036
2.72359
2.43786
2.2269
2.06823
1.94528
1.85375
1.78811
1.74295
1.71342
1.6959
1.68584
1.67874
1.67054
1.65847
1.64174
1.62192
1.60262
1.58868
1.58457
1.59238
1.61433
1.65354
1.70728
1.76412
1.81052
1.83493
1.8315
1.80208
1.75549
1.70443
1.66112
1.63245
1.61677
1.61098
1.61209
1.61643
1.62064
1.62225
1.61999
1.6137
1.6041
1.59262
1.58136
1.57307
1.5712
1.57961
1.61
1.6814
1.7774
1.86153
1.89123
1.84072
1.71847
1.56694
1.44288
1.38964
1.41022
1.46146
1.52977
1.6061
1.68369
1.75887
1.83062
1.89939
1.96574
2.02974
2.09055
2.1467
2.19652
2.23845
2.27037
2.29139
2.30116
2.30004
2.28917
2.27056
2.24684
2.22077
2.19467
2.16975
2.1457
2.12113
2.09355
2.0598
2.01643
1.96038
1.88964
1.80398
1.70522
1.59751
1.48684
1.38028
1.28553
1.21246
1.16735
1.1447
1.13243
1.11515
1.078
1.00974
0.904494
0.761762
0.58554
0.383414
0.16579
-0.0754612
0
0.677526
2.15017
4.39104
7.05937
9.52782
11.0713
11.1588
9.70386
7.12693
4.17983
1.62425
-0.0598669
-0.79034
-0.793933
-0.411391
-0.0514961
0.261097
0.505667
0.672849
0.801403
0.908581
0.994218
1.05743
1.09694
1.11199
1.1034
1.07452
1.03153
0.983132
0.939411
0.910202
0.900859
0.914874
0.953177
1.01328
1.09108
1.17851
1.26713
1.34996
1.42297
1.48575
1.54119
1.59452
1.65196
1.71919
1.79934
1.89431
2.00545
2.13311
2.27675
2.43532
2.60762
2.79272
2.99037
3.20105
3.42598
3.67536
3.9781
4.31806
4.63579
4.85835
4.93682
4.87533
4.72951
4.57243
4.45066
4.36276
4.27537
4.17775
4.06288
3.9286
3.77718
3.61363
3.44355
3.27194
3.10129
2.93304
2.76798
2.60649
2.44888
2.29578
2.14841
2.00896
1.88073
1.77135
1.7145
1.80426
2.01777
2.26085
2.40381
2.35237
2.10333
1.74732
1.41858
1.22665
1.19643
1.2234
1.27801
1.35332
1.44254
1.53931
1.63707
1.72609
1.79534
1.8336
1.83159
1.78478
1.69575
1.57517
1.43996
1.31294
1.21587
1.16418
1.16359
1.20991
1.2922
1.39759
1.51549
1.63819
1.76188
1.87737
1.96635
2.00335
1.9665
1.85145
1.67966
1.49516
1.35013
1.2854
1.28661
1.34449
1.44198
1.55562
1.6622
1.74759
1.80861
1.84521
1.86239
1.86827
1.87195
1.88144
1.90108
1.93285
1.97788
2.03556
2.10421
2.1804
2.25852
2.33242
2.39631
2.44542
2.47642
2.48745
2.47777
2.44742
2.39755
2.33014
2.24654
2.14881
2.03991
1.92384
1.80559
1.69044
1.58378
1.49068
1.4154
1.36094
1.32944
1.32446
1.34931
1.3967
1.45094
1.49471
1.51218
1.49145
1.4257
1.31284
1.15436
0.95439
0.723326
0.470752
0.20336
-0.0821738
0
0.626927
1.95407
4.00653
6.54483
9.01166
10.6696
10.9092
9.56204
7.0185
4.06668
1.53858
-0.0354158
-0.584458
-0.411768
-0.104501
0.182342
0.432946
0.63822
0.806013
0.950255
1.06934
1.16242
1.22941
1.27122
1.29033
1.29097
1.27879
1.25995
1.23986
1.2221
1.20798
1.19683
1.18746
1.17983
1.17637
1.18202
1.20313
1.24544
1.31218
1.39981
1.50353
1.61955
1.74373
1.87227
2.00299
2.13516
2.26961
2.40846
2.55447
2.71025
2.87731
3.05526
3.24205
3.4328
3.61965
3.79506
3.95403
4.09553
4.22257
4.34079
4.45508
4.56902
4.67731
4.76657
4.82126
4.82987
4.78805
4.6976
4.56313
4.3892
4.18474
3.96134
3.72713
3.48884
3.25352
3.0284
2.82003
2.63423
2.47368
2.33831
2.22562
2.13135
2.05036
1.97742
1.90801
1.83877
1.76795
1.69552
1.62316
1.55394
1.4918
1.44075
1.40412
1.38323
1.37851
1.38951
1.41456
1.44824
1.48237
1.50987
1.52673
1.53315
1.53349
1.53472
1.54368
1.56792
1.60402
1.64017
1.66127
1.65581
1.62107
1.56453
1.50089
1.44642
1.41319
1.3997
1.4002
1.41048
1.42719
1.44705
1.46722
1.48568
1.50121
1.51334
1.52212
1.52792
1.5314
1.53344
1.53523
1.53831
1.54452
1.5559
1.57441
1.60166
1.63866
1.68565
1.74213
1.80706
1.87901
1.95644
2.03773
2.12134
2.20544
2.28751
2.36451
2.4329
2.48896
2.52881
2.54812
2.54447
2.51694
2.46648
2.39623
2.31137
2.21853
2.12459
2.0354
1.95434
1.8817
1.81651
1.75656
1.69942
1.64324
1.58731
1.53217
1.47926
1.43036
1.38681
1.34955
1.31885
1.29372
1.27165
1.24863
1.21926
1.17652
1.11318
1.02274
0.900469
0.744612
0.557193
0.344326
0.0943689
-0.272315
0
1.1765
3.27319
5.97798
8.66312
10.5364
10.9312
9.62597
7.00512
3.9214
1.30632
-0.252754
-0.718388
-0.491306
-0.29514
-0.108295
0.0732812
0.249161
0.419832
0.584674
0.741156
0.885818
1.01455
1.12295
1.20713
1.26494
1.29603
1.30203
1.28648
1.2546
1.2128
1.16806
1.12719
1.09593
1.07782
1.07481
1.08762
1.1157
1.15784
1.21272
1.27915
1.35647
1.44466
1.54412
1.65523
1.77805
1.91214
2.05671
2.21087
2.37401
2.54617
2.72811
2.92113
3.12657
3.34503
3.57564
3.81644
4.06236
4.30084
4.51628
4.69393
4.823
4.89833
4.92019
4.8925
4.82016
4.70702
4.55802
4.37861
4.17314
3.94602
3.70283
3.45077
3.19844
2.95497
2.72971
2.53141
2.36334
2.22483
2.11204
2.0194
1.9411
1.87225
1.80945
1.75082
1.6956
1.64347
1.59443
1.54878
1.50692
1.46937
1.43695
1.41082
1.39252
1.38372
1.38622
1.40293
1.43662
1.48416
1.53456
1.57392
1.58915
1.57174
1.52052
1.44214
1.34963
1.25924
1.18574
1.13556
1.10902
1.10593
1.12478
1.16171
1.21106
1.26652
1.32011
1.36235
1.3853
1.38365
1.35583
1.30492
1.23865
1.16805
1.10496
1.05898
1.03338
1.02691
1.03574
1.0545
1.07873
1.10678
1.14048
1.18521
1.25837
1.37072
1.499
1.60154
1.63874
1.5947
1.48714
1.36045
1.26587
1.23916
1.26693
1.31981
1.38459
1.4525
1.51585
1.56922
1.60999
1.63823
1.65577
1.66507
1.66786
1.66406
1.6507
1.62363
1.57829
1.51178
1.42458
1.3212
1.20952
1.09886
0.997703
0.911824
0.843311
0.791118
0.752416
0.724058
0.703417
0.688336
0.676397
0.664095
0.646493
0.617707
0.572055
0.505381
0.416033
0.305104
0.175947
0.0332319
-0.117388
-0.273764
-0.316227
0
1.01683
2.92292
5.51564
8.13187
9.86624
10.005
8.43136
5.72754
2.87799
0.75219
-0.298973
-0.486089
-0.297738
-0.226807
-0.155287
-0.0824779
-0.00805044
0.0674351
0.14275
0.215184
0.280923
0.336179
0.378371
0.407202
0.425049
0.436402
0.446485
0.459561
0.477634
0.499509
0.522891
0.545477
0.565436
0.582133
0.59652
0.611121
0.629665
0.656345
0.694855
0.748034
0.817504
0.903251
1.00372
1.11678
1.23762
1.36099
1.48324
1.60354
1.72426
1.85054
1.98879
2.14482
2.32199
2.51824
2.72863
2.94732
3.16577
3.37262
3.55704
3.71014
3.82574
3.90049
3.93362
3.9264
3.88165
3.80346
3.69732
3.57045
3.42981
3.28151
3.13066
2.98101
2.83455
2.6919
2.55265
2.41573
2.27994
2.14437
2.00864
1.87305
1.73859
1.6069
1.48017
1.36105
1.25252
1.15737
1.07783
1.01513
0.969598
0.940094
0.923951
0.917775
0.918086
0.921932
0.927333
0.933442
0.94042
0.949091
0.960485
0.975384
0.994058
1.01612
1.0405
1.06544
1.08851
1.10635
1.11527
1.1122
1.09522
1.0644
1.02228
0.973889
0.926075
0.886334
0.861333
0.853868
0.865257
0.895607
0.942566
0.998948
1.05435
1.09891
1.12519
1.12951
1.11236
1.0779
1.03282
0.984965
0.942017
0.909407
0.890169
0.887568
0.903759
0.93936
0.993177
1.06216
1.14198
1.22698
1.31156
1.39118
1.46311
1.52651
1.58212
1.63145
1.6757
1.71564
1.7512
1.78171
1.80643
1.82505
1.83787
1.84564
1.84916
1.84893
1.84513
1.83709
1.82346
1.80229
1.77106
1.72683
1.66672
1.58926
1.49388
1.3824
1.25948
1.13265
1.01164
0.91383
0.877715
0.934989
1.06167
1.21157
1.33717
1.40505
1.39915
1.31619
1.16208
0.953154
0.718318
0.491236
0.295575
0.134896
-0.00527229
-0.131718
-0.193271
0
0.938718
2.96945
5.97082
9.25554
11.7951
12.6723
11.5197
8.7007
5.1402
1.90693
-0.22841
-1.04176
-0.82729
-0.350532
-0.0700619
0.163471
0.353402
0.52146
0.683063
0.852271
1.04454
1.2428
1.40964
1.50622
1.51101
1.43054
1.29797
1.16008
1.05837
1.01273
1.00378
1.01431
1.0398
1.07803
1.12767
1.18782
1.25716
1.33342
1.41337
1.49353
1.57126
1.64574
1.71846
1.79299
1.87419
1.96719
2.07566
2.20103
2.34462
2.50728
2.6888
2.88782
3.10172
3.32658
3.55728
3.78771
4.00949
4.21058
4.38156
4.51514
4.60718
4.65713
4.66748
4.64246
4.58626
4.50179
4.39172
4.26139
4.11332
3.94952
3.7734
3.58944
3.40255
3.21708
3.03611
2.86112
2.69203
2.52783
2.36727
2.20968
2.05547
1.90648
1.76583
1.63816
1.52982
1.44604
1.39116
1.36792
1.37676
1.41593
1.48351
1.57552
1.68298
1.78792
1.87005
1.9118
1.90111
1.83434
1.71811
1.5687
1.40877
1.26227
1.14551
1.05873
1.00437
0.983706
0.994726
1.03261
1.09042
1.16
1.23284
1.30112
1.35929
1.40269
1.42743
1.4308
1.41149
1.36992
1.30857
1.22825
1.1366
1.05405
1.00332
1.00316
1.06198
1.19229
1.36101
1.52251
1.63708
1.68658
1.67953
1.64429
1.61416
1.61219
1.63627
1.67487
1.7164
1.74926
1.76619
1.76686
1.75814
1.75173
1.76013
1.79223
1.84784
1.91937
2.00006
2.08147
2.15498
2.21238
2.24821
2.2597
2.24671
2.21137
2.15749
2.08996
2.01406
1.93478
1.85638
1.78173
1.71251
1.65018
1.59612
1.55152
1.51725
1.49372
1.48074
1.47744
1.48183
1.49065
1.49963
1.5038
1.49761
1.47535
1.43157
1.3615
1.26149
1.12947
0.955014
0.727043
0.457536
0.162958
-0.163692
0
0.858631
2.56651
5.01427
7.73623
9.99021
11.0375
10.4888
8.50545
5.72169
2.93905
0.790381
-0.443791
-0.817823
-0.494517
-0.0442242
0.381949
0.72001
0.921486
1.0349
1.11499
1.17778
1.22792
1.26947
1.30541
1.33755
1.36668
1.39298
1.41647
1.43739
1.4563
1.47411
1.49179
1.5102
1.53002
1.55189
1.5767
1.60595
1.64196
1.68784
1.74709
1.82295
1.91748
2.03079
2.16052
2.30355
2.45349
2.60319
2.74716
2.88308
3.01252
3.14053
3.27419
3.42047
3.58426
3.76539
3.96057
4.16532
4.37271
4.57469
4.76373
4.93372
5.07734
5.18492
5.25203
5.27661
5.25693
5.19206
5.08261
4.9309
4.74039
4.51488
4.25832
3.98074
3.69105
3.39604
3.10478
2.82928
2.58228
2.37521
2.22544
2.16554
2.20544
2.30217
2.40429
2.46851
2.47117
2.41197
2.30973
2.19251
2.08584
2.00303
1.93922
1.88749
1.84546
1.81292
1.79082
1.78089
1.78478
1.80305
1.83437
1.87542
1.92127
1.96634
2.00556
2.03528
2.05302
2.05776
2.0496
2.02957
1.99945
1.96189
1.92012
1.87821
1.84101
1.81345
1.79964
1.80354
1.82775
1.86883
1.91663
1.95921
1.98602
1.99069
1.97244
1.93599
1.88998
1.8446
1.80917
1.78843
1.78273
1.79098
1.81206
1.84449
1.88605
1.93465
1.98866
2.04693
2.1087
2.17327
2.23744
2.29523
2.3398
2.36607
2.3733
2.36599
2.35237
2.3411
2.33774
2.34166
2.3485
2.3542
2.3544
2.34541
2.32468
2.29102
2.24432
2.18537
2.11616
2.03886
1.95584
1.86978
1.78376
1.701
1.62453
1.55682
1.4993
1.45213
1.41425
1.38354
1.35711
1.33145
1.30307
1.26871
1.22547
1.17076
1.10219
1.01748
0.914516
0.788991
0.629464
0.437729
0.219353
-0.0643688
0
0.809797
2.43767
4.67918
7.09103
9.09227
10.1187
9.81734
8.21867
5.78201
3.23907
1.28005
0.252064
0.0523101
0.252018
0.308495
0.36712
0.432527
0.507853
0.592549
0.684789
0.78043
0.873843
0.959341
1.03287
1.09324
1.14138
1.18007
1.21268
1.24135
1.26653
1.28631
1.29747
1.29775
1.28795
1.27288
1.26084
1.26175
1.28473
1.33327
1.40489
1.4964
1.60476
1.72626
1.85628
1.98709
2.11217
2.22807
2.33563
2.44009
2.54993
2.67468
2.82219
2.99626
3.19147
3.40078
3.61686
3.83063
4.03091
4.20775
4.35345
4.46324
4.5352
4.56952
4.56755
4.53082
4.46052
4.35999
4.23159
4.07698
3.89913
3.70259
3.49349
3.2792
3.06733
2.8651
2.67881
2.51321
2.37126
2.2541
2.16052
2.08642
2.02577
1.97211
1.9197
1.86447
1.80449
1.74003
1.67306
1.60654
1.54353
1.48643
1.4372
1.39738
1.36842
1.3519
1.34975
1.3669
1.4177
1.5277
1.69011
1.85785
1.96978
1.97455
1.85363
1.63313
1.37929
1.17695
1.09577
1.1121
1.17282
1.26279
1.36508
1.46343
1.54536
1.60539
1.64166
1.65542
1.6491
1.62467
1.58547
1.53256
1.46633
1.38644
1.30064
1.22489
1.17666
1.16918
1.20652
1.28156
1.37798
1.4754
1.55565
1.61218
1.64837
1.66582
1.66878
1.66282
1.65366
1.64572
1.64181
1.64347
1.65153
1.66622
1.68776
1.71679
1.75446
1.80235
1.86187
1.93372
2.01938
2.11691
2.21752
2.30882
2.37836
2.41641
2.41789
2.38267
2.31458
2.2198
2.10545
1.98006
1.8511
1.72424
1.60421
1.49518
1.40091
1.32479
1.26807
1.22831
1.2005
1.17837
1.15568
1.12736
1.09017
1.04283
0.985537
0.919212
0.844934
0.763409
0.674939
0.579697
0.477592
0.369244
0.254648
-0.055612
0
0.831012
2.65223
5.31311
8.23045
10.5326
11.4034
10.4708
8.01664
4.8678
2.0164
0.185387
-0.423772
-0.0965426
0.42125
0.723433
0.936684
1.04868
1.06794
1.0187
0.931099
0.833384
0.748238
0.684672
0.645733
0.634705
0.654736
0.706486
0.790904
0.908296
1.05616
1.22498
1.39236
1.53268
1.62388
1.64999
1.6057
1.50124
1.36369
1.23216
1.14737
1.13437
1.18022
1.26526
1.37894
1.51678
1.67472
1.84859
2.03482
2.23029
2.43216
2.63758
2.84346
3.04636
3.24262
3.42865
3.60138
3.75899
3.90137
4.03036
4.14982
4.2647
4.38482
4.54863
4.80721
5.11222
5.35538
5.41856
5.23722
4.84151
4.34779
3.90205
3.60332
3.39102
3.19832
3.00998
2.81937
2.62273
2.42014
2.21563
2.01733
1.83579
1.68718
1.61739
1.64312
1.72633
1.81159
1.8531
1.83618
1.78042
1.72303
1.69285
1.69139
1.69191
1.66995
1.60791
1.50353
1.37113
1.23598
1.12531
1.08667
1.24164
1.58257
1.96844
2.27002
2.38026
2.24592
1.89931
1.45841
1.08717
0.934299
0.964685
1.05176
1.156
1.26735
1.38102
1.49298
1.59877
1.69146
1.76402
1.81
1.82434
1.80608
1.76053
1.69912
1.63646
1.58563
1.55373
1.53917
1.53515
1.53267
1.52509
1.51132
1.4965
1.49005
1.50201
1.53804
1.59488
1.66741
1.75103
1.84096
1.93227
2.02074
2.10354
2.17948
2.24877
2.31247
2.37128
2.42446
2.46887
2.49935
2.50982
2.49636
2.4602
2.40881
2.35443
2.31019
2.29397
2.30287
2.3181
2.31379
2.26954
2.18007
2.05722
1.92422
1.80619
1.71972
1.65781
1.61333
1.58428
1.56733
1.55551
1.54139
1.51899
1.48516
1.44003
1.38654
1.32872
1.26947
1.208
1.1374
1.04547
0.91838
0.74568
0.524747
0.263019
-0.0296266
-0.332419
0
1.21336
3.33903
6.08912
8.84815
10.825
11.3492
10.1838
7.67636
4.63285
1.95517
0.244526
-0.401236
-0.298017
-0.0119531
0.187328
0.363135
0.509457
0.626112
0.71808
0.787737
0.838921
0.876253
0.904432
0.927637
0.949172
0.971498
0.996383
1.02522
1.05944
1.10061
1.15029
1.20952
1.27829
1.35515
1.43717
1.52074
1.60237
1.67934
1.75036
1.8158
1.87763
1.93909
2.00433
2.07771
2.1639
2.26754
2.39278
2.54276
2.71904
2.92103
3.14559
3.38693
3.63739
3.88717
4.12235
4.33029
4.50151
4.63112
4.71922
4.77022
4.79119
4.78966
4.77165
4.74072
4.69861
4.64386
4.57333
4.48355
4.3716
4.23594
4.07711
3.89903
3.7072
3.50852
3.31094
3.12246
2.94994
2.79826
2.66967
2.56399
2.47912
2.41064
2.35332
2.30258
2.25527
2.21007
2.16727
2.12814
2.09449
2.0672
2.04524
2.02602
2.00607
1.98198
1.95124
1.91288
1.86761
1.81783
1.76737
1.72057
1.682
1.65582
1.64496
1.65053
1.6715
1.7048
1.74584
1.78923
1.82984
1.8635
1.88754
1.90106
1.90502
1.90192
1.89518
1.88834
1.88423
1.88459
1.88945
1.89637
1.902
1.90358
1.90014
1.89305
1.88551
1.8814
1.88393
1.89397
1.91022
1.93139
1.95607
1.9831
2.012
2.04317
2.07767
2.11685
2.16176
2.21266
2.2689
2.32851
2.38865
2.44617
2.49828
2.54296
2.57917
2.60673
2.62681
2.64143
2.65318
2.66481
2.67865
2.69669
2.71867
2.7386
2.747
2.73386
2.69228
2.62135
2.52683
2.41962
2.31268
2.21718
2.13664
2.07156
2.02286
1.9903
1.97277
1.96841
1.97311
1.98031
1.98323
1.97567
1.95245
1.90932
1.84246
1.74769
1.62023
1.4567
1.25853
1.00221
0.697413
0.364376
-0.197018
0
1.28337
3.60795
6.51981
9.29986
11.2041
11.7114
10.691
8.43796
5.56464
2.78744
0.693089
-0.422774
-0.595105
-0.10291
0.285149
0.612373
0.851257
1.00586
1.13487
1.25665
1.39452
1.55345
1.707
1.81486
1.84688
1.80056
1.7026
1.59506
1.5156
1.484
1.48278
1.49878
1.52917
1.57287
1.62944
1.69983
1.78805
1.88867
1.98664
2.06517
2.11332
2.13216
2.13603
2.14783
2.19093
2.28158
2.41342
2.57378
2.75751
2.96246
3.18677
3.42873
3.68643
3.96137
4.25297
4.53954
4.78868
4.97036
5.06889
5.09056
5.06259
5.02356
5.00941
5.04819
5.14607
5.25914
5.3251
5.28772
5.11735
4.82222
4.44699
4.05735
3.71528
3.43424
3.18975
2.97073
2.77554
2.60208
2.44861
2.31419
2.19836
2.1011
2.02237
1.96172
1.91801
1.88937
1.87318
1.8663
1.8652
1.86621
1.86528
1.85856
1.84285
1.8161
1.77778
1.72902
1.67252
1.61215
1.55227
1.4971
1.44978
1.41282
1.38813
1.37694
1.3799
1.39707
1.42818
1.47266
1.52941
1.59569
1.66499
1.727
1.77094
1.78793
1.77351
1.72942
1.66405
1.59113
1.52677
1.48562
1.47292
1.49943
1.56383
1.6423
1.70661
1.73535
1.72287
1.68174
1.63727
1.61649
1.63634
1.69766
1.78301
1.86518
1.9178
1.92455
1.88409
1.81014
1.72742
1.66436
1.64253
1.66267
1.71317
1.78217
1.86035
1.93808
2.00767
2.06491
2.10968
2.14529
2.17694
2.20983
2.24719
2.29081
2.33565
2.3679
2.3706
2.32931
2.23745
2.09927
1.92935
1.74879
1.57977
1.4372
1.32041
1.23102
1.17135
1.14168
1.14058
1.16538
1.2134
1.28248
1.36825
1.45513
1.51832
1.52987
1.46349
1.30128
1.03917
0.688052
0.269559
-0.19084
-0.668584
-0.629562
0
1.33272
3.36407
5.86968
8.35777
10.1618
10.6816
9.67217
7.40936
4.60231
2.08226
0.443704
-0.163755
0.00431247
0.269142
0.441799
0.591924
0.718204
0.824234
0.91036
0.975078
1.0196
1.04431
1.05018
1.04053
1.02215
1.00487
0.999475
1.01456
1.05282
1.11034
1.18149
1.25755
1.33028
1.3946
1.44991
1.4999
1.5507
1.61096
1.68619
1.76541
1.82815
1.85535
1.84119
1.8
1.76456
1.77606
1.86943
2.04545
2.2726
2.52931
2.80325
3.08127
3.35113
3.60305
3.83085
4.03223
4.20834
4.36268
4.49871
4.62005
4.72909
4.82522
4.90375
4.95649
4.9739
4.94634
4.86649
4.73152
4.54472
4.31583
4.05994
3.79495
3.5377
3.29735
3.07801
2.88382
2.71644
2.57523
2.45782
2.36096
2.27985
2.20856
2.14166
2.07503
2.00644
1.93574
1.86461
1.79587
1.73262
1.67716
1.63087
1.59441
1.5678
1.55076
1.5431
1.54495
1.55682
1.57943
1.6132
1.65846
1.71593
1.78548
1.86088
1.92775
1.9688
1.96798
1.91525
1.81047
1.6648
1.49854
1.33917
1.21385
1.14314
1.13636
1.18964
1.28731
1.40615
1.52145
1.61336
1.67779
1.71709
1.7315
1.72358
1.69727
1.65709
1.60823
1.55518
1.50187
1.45203
1.40926
1.37677
1.35697
1.35155
1.36217
1.38852
1.42503
1.46527
1.50385
1.53798
1.56793
1.59617
1.6257
1.65829
1.6935
1.72904
1.76222
1.79121
1.81583
1.83743
1.85795
1.87869
1.89939
1.91846
1.93339
1.94125
1.93935
1.92576
1.8995
1.86066
1.81019
1.74961
1.68079
1.60577
1.52675
1.44584
1.36503
1.28625
1.21128
1.14162
1.07822
1.0212
0.969889
0.922888
0.878172
0.833138
0.784602
0.728783
0.661364
0.575653
0.448037
0.230063
-0.0718064
-0.43375
-0.824408
-0.745651
0
1.49804
3.66816
6.21358
8.63029
10.3196
10.7923
9.88046
7.83106
5.20844
2.65309
0.633313
-0.670566
-1.31233
-1.26777
-0.995062
-0.581353
-0.0973295
0.330507
0.571543
0.672347
0.718742
0.735104
0.726199
0.697402
0.65458
0.604876
0.554905
0.511094
0.479747
0.466257
0.474199
0.504641
0.555963
0.624126
0.703478
0.787847
0.871691
0.951309
1.02463
1.09123
1.15245
1.21112
1.27127
1.33784
1.41624
1.51185
1.62944
1.7724
1.94204
2.13669
2.35206
2.58256
2.81901
3.04629
3.24968
3.41797
3.54582
3.63466
3.69221
3.73044
3.76286
3.80176
3.85821
3.94786
4.067
4.18379
4.25773
4.25343
4.15299
3.96118
3.7009
3.40146
3.08785
2.77719
2.47588
2.18747
1.91821
1.67655
1.48269
1.38394
1.4291
1.57424
1.73932
1.84567
1.84087
1.71222
1.48882
1.23291
1.01901
0.903464
0.861932
0.853902
0.865554
0.887222
0.911484
0.93421
0.954133
0.971264
0.98515
0.994022
0.995147
0.986629
0.969415
0.948306
0.931319
0.927571
0.944494
0.982986
1.04908
1.1361
1.22295
1.28658
1.30947
1.28549
1.22164
1.13519
1.04725
0.976104
0.929288
0.902371
0.89142
0.895491
0.913625
0.94476
0.987434
1.03886
1.09447
1.148
1.19299
1.22434
1.23958
1.23963
1.22877
1.21353
1.20095
1.19655
1.20315
1.21975
1.24293
1.26913
1.29688
1.32791
1.36651
1.41738
1.48306
1.5622
1.64873
1.73765
1.82506
1.90983
1.99433
2.08551
2.20561
2.36585
2.53357
2.64947
2.65869
2.54081
2.32089
2.05729
1.81521
1.64129
1.51966
1.42448
1.34677
1.28315
1.23011
1.18453
1.14398
1.10698
1.07298
1.04221
1.0154
0.99339
0.976629
0.964732
0.956143
0.947443
0.931259
0.89789
0.837229
0.741481
0.607938
0.440828
0.227145
-0.227748
0
1.24893
3.52745
6.41166
9.13053
10.827
10.9122
9.34046
6.64408
3.68316
1.24978
-0.238884
-0.799381
-0.716057
-0.404458
-0.130062
0.113257
0.315397
0.474625
0.598708
0.689092
0.749029
0.782987
0.796108
0.793878
0.781577
0.764064
0.745473
0.728889
0.716348
0.708738
0.706095
0.708759
0.718501
0.739291
0.777347
0.854667
1.07523
1.47933
1.94317
2.29846
2.42374
2.30322
2.02676
1.74111
1.5833
1.6234
1.75415
1.91332
2.08533
2.26582
2.45342
2.64953
2.85778
3.08278
3.32873
3.6049
3.93043
4.29582
4.65147
4.94581
5.14317
5.23211
5.22278
5.13748
5.0005
4.83174
4.646
4.45205
4.25205
4.04487
3.82812
3.59938
3.35653
3.0978
2.82319
2.53526
2.23936
1.9433
1.65794
1.41294
1.32313
1.53817
1.91964
2.28655
2.48872
2.4555
2.20919
1.84202
1.4767
1.23374
1.16951
1.18944
1.2391
1.30087
1.36713
1.43201
1.49073
1.53986
1.57755
1.60327
1.61759
1.62173
1.61738
1.60672
1.59237
1.57739
1.56526
1.55946
1.56275
1.57901
1.60902
1.6473
1.6864
1.71974
1.74408
1.76009
1.7711
1.78052
1.78983
1.79802
1.80285
1.80213
1.79477
1.78088
1.76122
1.73662
1.70814
1.67691
1.6447
1.61448
1.59022
1.57617
1.57588
1.59025
1.61832
1.65907
1.7107
1.77112
1.83823
1.91076
1.98801
2.06961
2.15519
2.24426
2.33501
2.42186
2.49633
2.54922
2.5732
2.56511
2.52694
2.46489
2.3871
2.3011
2.2125
2.12405
2.037
1.95243
1.87173
1.79671
1.72965
1.67281
1.62791
1.5957
1.57566
1.56642
1.56486
1.56711
1.56908
1.56692
1.55721
1.53682
1.5025
1.45053
1.37657
1.27639
1.1453
0.979807
0.778682
0.541775
0.275427
-0.0489039
-0.386286
0
1.31074
3.47758
6.13011
8.67012
10.4133
10.7989
9.61759
7.15184
4.1174
1.38766
-0.375192
-0.978356
-0.700224
-0.327205
-0.0401429
0.204725
0.398154
0.546039
0.649609
0.713552
0.745404
0.754862
0.752909
0.750664
0.757937
0.781724
0.824181
0.888245
0.967932
1.04842
1.11357
1.15054
1.15335
1.12458
1.07468
1.01935
0.975632
0.957185
0.967568
1.00394
1.06246
1.14009
1.23435
1.34283
1.46338
1.59414
1.73339
1.87927
2.02958
2.18176
2.33309
2.4811
2.62407
2.76143
2.89399
3.02387
3.15423
3.28937
3.43852
3.62912
3.91692
4.29747
4.68439
4.97818
5.0921
4.98261
4.66727
4.22403
3.77126
3.42038
3.1526
2.88179
2.59925
2.30826
2.01215
1.71704
1.43366
1.17475
0.952782
0.777492
0.654106
0.582439
0.562938
0.595682
0.663381
0.741089
0.806415
0.843
0.842327
0.803813
0.733626
0.642924
0.546093
0.457952
0.388315
0.343047
0.326593
0.34288
0.397983
0.481545
0.572574
0.649152
0.694174
0.699133
0.664972
0.600363
0.518643
0.434745
0.361166
0.303818
0.265187
0.248019
0.25867
0.293813
0.339336
0.379027
0.399688
0.395312
0.368554
0.328988
0.289111
0.259962
0.245673
0.244144
0.253195
0.271113
0.295863
0.325078
0.356112
0.386126
0.412401
0.432864
0.446432
0.453274
0.454803
0.453303
0.451226
0.450377
0.451415
0.452945
0.452145
0.445904
0.432202
0.411205
0.385698
0.360757
0.342802
0.338209
0.350591
0.38313
0.445417
0.556237
0.735119
0.959721
1.17441
1.31818
1.34185
1.22642
0.994747
0.708433
0.446318
0.269718
0.165785
0.0920828
0.0299036
-0.0265605
-0.0808044
-0.133697
-0.183443
-0.226193
-0.257136
-0.272761
-0.266193
-0.2277
-0.159515
-0.0823663
-0.0217578
0
-0.0245464
-0.0997165
-0.214493
-0.353237
-0.502026
-0.652312
-0.801273
-0.812907
-0.398152
0.742488
2.66077
5.02274
7.18882
8.4822
8.49654
7.2714
5.24352
3.0166
1.08991
-0.300536
-1.16529
-1.62355
-1.52391
-1.3681
-1.13327
-0.839926
-0.539781
-0.290823
-0.116569
0.00805922
0.103657
0.176088
0.227271
0.259961
0.277377
0.283047
0.280644
0.273763
0.265633
0.258838
0.255145
0.255471
0.260303
0.270096
0.285691
0.308596
0.341013
0.385603
0.445066
0.521639
0.616251
0.729466
0.860889
1.00911
1.1718
1.34623
1.52908
1.71666
1.90512
2.0908
2.27037
2.44165
2.60375
2.75733
2.90438
3.04788
3.1911
3.33779
3.49076
3.65065
3.81561
3.97787
4.12089
4.2235
4.25769
4.19497
4.02167
3.75347
3.43693
3.13315
2.89072
2.70184
2.53692
2.38497
2.24008
2.09722
1.95318
1.80712
1.6605
1.51677
1.38046
1.25759
1.1551
1.07799
1.0294
1.00989
1.02092
1.05727
1.10794
1.16061
1.20411
1.23065
1.23695
1.22427
1.19748
1.16374
1.13098
1.10548
1.09164
1.09236
1.11091
1.15092
1.21122
1.28238
1.35165
1.40651
1.43773
1.44143
1.41947
1.37811
1.32542
1.26856
1.21215
1.15816
1.10766
1.06266
1.02676
1.00516
1.00557
1.05742
1.20258
1.40908
1.61464
1.75359
1.78676
1.71791
1.58941
1.46027
1.37851
1.35992
1.37443
1.40465
1.44686
1.49909
1.56124
1.63402
1.71756
1.8101
1.90704
2.00295
2.09154
2.16719
2.22607
2.26679
2.29038
2.29968
2.29841
2.29031
2.2786
2.26596
2.25442
2.24584
2.24186
2.24385
2.25374
2.26811
2.27592
2.26327
2.21927
2.14187
2.04038
1.93281
1.83886
1.77209
1.73411
1.71862
1.71538
1.71641
1.71999
1.73027
1.75321
1.79354
1.84481
1.89192
1.91582
1.89892
1.82842
1.69673
1.50069
1.24128
0.919211
0.548816
0.151969
0
0.602254
2.12715
4.46672
7.19243
9.61631
10.9958
10.8473
9.20933
6.66671
4.08158
2.17244
1.20285
0.962222
1.00984
1.04327
1.09072
1.15285
1.23461
1.33763
1.44897
1.55106
1.6278
1.67006
1.67847
1.66231
1.63525
1.61013
1.59414
1.58672
1.58625
1.59162
1.60215
1.61835
1.64222
1.67681
1.72531
1.78978
1.87578
1.98135
2.0933
2.19661
2.28064
2.34379
2.39447
2.44775
2.51962
2.62164
2.75103
2.89944
3.06241
3.23591
3.41545
3.59674
3.77608
3.95108
4.12107
4.28721
4.45212
4.62049
4.80147
5.00297
5.21418
5.40572
5.5452
5.60827
5.58415
5.4766
5.30191
5.0841
4.84714
4.60724
4.37001
4.13702
3.90978
3.69086
3.48429
3.29484
3.12919
2.99481
2.89099
2.81192
2.749
2.69349
2.63891
2.58259
2.52575
2.47236
2.42725
2.39272
2.36887
2.35523
2.35037
2.35176
2.35603
2.35915
2.35739
2.3482
2.33093
2.30718
2.2807
2.25685
2.24151
2.24059
2.26219
2.31114
2.37617
2.43444
2.46203
2.44239
2.37282
2.26632
2.14804
2.04736
1.98875
1.97382
1.98923
2.02837
2.08629
2.15791
2.2356
2.30954
2.3709
2.41308
2.43255
2.42922
2.40611
2.36831
2.32165
2.27137
2.22138
2.17386
2.13029
2.09279
2.06413
2.04715
2.04472
2.05912
2.0912
2.13999
2.20254
2.27436
2.35001
2.42384
2.49052
2.54596
2.58792
2.61638
2.63379
2.64493
2.65622
2.6747
2.70671
2.76245
2.85144
2.96675
3.08508
3.17899
3.22469
3.20776
3.12596
2.98951
2.81932
2.64316
2.4878
2.36541
2.27378
2.21196
2.17219
2.14295
2.11262
2.07299
2.02142
1.96075
1.89717
1.83682
1.78197
1.72958
1.67424
1.60786
1.52102
1.40473
1.25223
1.06052
0.827887
0.561274
0.193934
0
0.577315
2.14865
4.60179
7.43834
9.90919
11.2902
11.1681
9.59555
7.04946
4.23509
1.83834
0.320477
-0.191327
0.0989087
0.405788
0.663964
0.887652
1.07102
1.22268
1.34063
1.42837
1.49003
1.52877
1.54691
1.54673
1.53132
1.50514
1.47407
1.44481
1.42299
1.41217
1.41454
1.43049
1.45874
1.49575
1.53716
1.57897
1.61849
1.65501
1.68993
1.72639
1.7686
1.82071
1.88603
1.96721
2.06587
2.18208
2.31431
2.45946
2.61338
2.7714
2.92922
3.08369
3.2334
3.37901
3.52307
3.66982
3.82925
4.03421
4.35744
4.78689
5.21478
5.54435
5.69741
5.63163
5.35854
4.94842
4.51592
4.19057
4.02424
3.90088
3.77237
3.63119
3.47356
3.29785
3.1068
2.90706
2.7079
2.5193
2.3485
2.20225
2.08888
2.01119
1.96008
1.92404
1.89317
1.86219
1.8314
1.8053
1.78965
1.7885
1.80039
1.82139
1.84804
1.87623
1.90193
1.92104
1.93066
1.92904
1.91573
1.89174
1.85948
1.82241
1.78438
1.74899
1.71888
1.69567
1.68107
1.67676
1.68433
1.70508
1.74219
1.79808
1.8679
1.93965
1.99877
2.03182
2.0298
1.99032
1.91816
1.82434
1.72418
1.63396
1.56481
1.5217
1.50509
1.51572
1.5512
1.60465
1.66687
1.72703
1.77541
1.80587
1.81683
1.81128
1.79568
1.77805
1.76552
1.76278
1.76963
1.78223
1.79588
1.80839
1.8224
1.8455
1.88796
1.96997
2.11916
2.30638
2.47951
2.58677
2.60001
2.52796
2.41364
2.31588
2.28205
2.32393
2.39628
2.47425
2.53381
2.55801
2.54051
2.48452
2.39867
2.29263
2.1755
2.05483
1.93484
1.81868
1.70956
1.61048
1.52373
1.45083
1.39291
1.35038
1.32286
1.3091
1.30729
1.3147
1.32403
1.32223
1.29351
1.22156
1.07831
0.797953
0.400502
-0.0631676
-0.419136
0
1.38829
3.65694
6.40867
9.03484
10.8847
11.4564
10.5601
8.40869
5.5844
2.85453
0.884212
-0.0235052
-0.0127882
0.337259
0.485625
0.608652
0.703516
0.771943
0.822749
0.862448
0.898004
0.935241
0.978418
1.029
1.08196
1.12822
1.15859
1.1676
1.15611
1.13181
1.10723
1.09578
1.10719
1.14828
1.21097
1.27827
1.33251
1.36368
1.37481
1.38188
1.40839
1.47682
1.60089
1.76579
1.95626
2.16311
2.37806
2.59158
2.79131
2.9663
3.1101
3.22114
3.30332
3.36575
3.42136
3.48452
3.56819
3.68224
3.84621
4.07565
4.35872
4.6403
4.8731
5.02145
5.05009
4.93586
4.69236
4.38004
4.08189
3.85452
3.68044
3.52169
3.36637
3.21168
3.05692
2.90244
2.74926
2.59862
2.45166
2.30922
2.17184
2.03994
1.91405
1.79502
1.68426
1.58422
1.49747
1.42631
1.37245
1.33663
1.31838
1.3161
1.32733
1.34921
1.37878
1.41296
1.44906
1.48306
1.51039
1.52672
1.52915
1.5173
1.49378
1.46365
1.43283
1.40612
1.38533
1.36897
1.35409
1.33665
1.31271
1.27962
1.23684
1.18638
1.13266
1.08208
1.04204
1.01937
1.01883
1.04204
1.08699
1.14854
1.21952
1.29226
1.36018
1.41963
1.46811
1.50396
1.52661
1.53614
1.53309
1.5185
1.49391
1.46154
1.42412
1.38533
1.34967
1.32168
1.30543
1.30393
1.31866
1.34937
1.39402
1.44912
1.51024
1.57268
1.63243
1.68668
1.73403
1.77401
1.80707
1.83423
1.85649
1.87444
1.88809
1.8965
1.89788
1.88983
1.86972
1.83522
1.78483
1.71841
1.63757
1.54563
1.44727
1.34795
1.25308
1.16784
1.09488
1.03469
0.986027
0.946797
0.914781
0.888043
0.864828
0.843159
0.820438
0.793726
0.759584
0.714659
0.656328
0.583312
0.496072
0.396877
0.286424
-0.0122252
0
0.74311
2.44018
4.92728
7.60563
9.63649
10.3038
9.3531
7.11233
4.32161
1.77987
0.0227678
-0.810134
-0.903746
-0.677439
-0.505688
-0.343933
-0.187853
-0.0320958
0.125765
0.285575
0.442284
0.586583
0.708088
0.799157
0.857718
0.887907
0.898458
0.89984
0.901507
0.908673
0.923292
0.946646
0.97868
1.01854
1.06452
1.11362
1.16303
1.21094
1.2572
1.30356
1.35333
1.4107
1.47988
1.56362
1.66272
1.77802
1.91028
2.05971
2.22605
2.40846
2.6054
2.81448
3.03232
3.25462
3.47627
3.69154
3.8943
4.07801
4.23581
4.36221
4.45419
4.51
4.52914
4.51236
4.46185
4.38126
4.27557
4.15064
4.01266
3.86705
3.71742
3.56571
3.41261
3.2582
3.1026
2.94632
2.79051
2.63681
2.48703
2.34271
2.20517
2.07541
1.95428
1.84268
1.7417
1.65251
1.57632
1.51403
1.46646
1.43435
1.41838
1.4188
1.43547
1.4676
1.51464
1.57494
1.64274
1.70899
1.76443
1.80169
1.817
1.81107
1.78867
1.75725
1.72498
1.69866
1.68148
1.67377
1.67468
1.68273
1.69584
1.71147
1.72698
1.74
1.74877
1.75246
1.75141
1.74721
1.74261
1.74123
1.74693
1.76302
1.79149
1.83247
1.88423
1.94291
2.00339
2.0601
2.10784
2.14235
2.16052
2.16046
2.14125
2.10289
2.0469
1.97351
1.88191
1.77733
1.68039
1.61728
1.61305
1.68336
1.82784
2.02817
2.25251
2.46482
2.63535
2.76698
2.86607
2.93366
2.97366
2.9917
2.99398
2.98648
2.9734
2.9568
2.9363
2.9093
2.87188
2.82023
2.75239
2.6697
2.57739
2.48389
2.3991
2.33351
2.30234
2.30859
2.33258
2.34614
2.32322
2.2497
2.12879
1.98025
1.83387
1.71962
1.65117
53
238
422
605
789
975
1159
1343
1529
1717
1901
2086
2272
2459
2643
2830
3015
3202
3391
3578
2889
3031
3174
3315
3456
3596
3736
0
0
0
0
0
0
0
0
0
0
0
0
0
0
0
0
0
0
0
0
0
0
0
0
0
0
0
0
0
0
0
0
0
0
0
0
0
0
0
0
0
0
0
0
0
0
0
0
0
0
0
0
0
0
0
0
0
0
0
0
0
0
0
0
0
0
0
0
0
0
0
0
0
0
0
0
0
0
0
0
0
0
0
0
0
0
0
0
0
0
0
0
0
0
0
0
0
0
0
0
0
0
0
0
0
0
0
0
0
0
0
0
0
0
0
0
0
0
0
0
0
0
0
0
0
0
0
0
0
0
0
0
0
0
0
0
0
0
0
0
0
0
0
0
0
0
0
0
0
0
0
0
0
0
0
0
0
0
0
0
0
0
0
0
0
0
0
0
0
0
0
0
0
0
0
0
0
0
0
0
0
0
0
0
0
0
0
0
0
0
0
0
0
0
0
0
0
0
0
0
0
0
0
0
0
0
0
0
0
0
0
0
0
0
0
0
0
0
0
0
0
0
0
0
0
0
0
0
0
0
0
0
0
0
0
0
0
0
0
0
0
0
0
0
0
0
0
0
0
0
0
0
0
0
0
0
0
0
0
0
0
0
0
0
0
0
0
0
0
0
0
0
0
0
0
0
0
0
0
0
0
0
0
0
0
0
0
0
0
0
0
0
0
0
0
0
0
0
0
0
0
0
0
0
0
0
0
0
0
0
0
0
0
0
0
0
0
0
0
0
0
0
0
0
0
0
0
0
0
0
0
0
0
0
0
0
0
0
0
0
0
0
0
0
0
0
0
0
0
0
0
0
0
0
0
0
0
0
0
0
0
0
0
0
0
0
0
0
0
0
0
0
0
0
0
0
0
0
0
0
0
0
0
0
0
0
0
0
0
0
0
0
0
0
0
0
0
0
0
0
0
0
0
0
0
0
0
0
0
0
0
0
0
0
0
0
0
0
0
0
0
0
0
0
0
0
0
0
0
0
0
0
0
0
0
0
0
0
0
0
0
0
0
0
0
0
0
0
0
0
0
0
0
0
0
0
0
0
0
0
0
0
0
0
0
0
0
0
0
0
0
0
0
0
0
0
0
0
0
0
0
0
0
0
0
0
0
0
0
0
0
0
0
0
0
0
0
0
0
0
0
0
0
0
0
0
0
0
0
0
0
0
0
0
0
0
0
0
0
0
0
0
0
0
0
0
0
0
0
0
0
0
0
0
0
0
0
0
0
0
0
0
0
0
0
0
0
0
0
0
0
0
0
0
0
0
0
0
0
0
0
0
0
0
0
0
0
0
0
0
0
0
0
0
0
0
0
0
0
0
0
0
0
0
0
0
0
0
0
0
0
0
0
0
0
0
0
0
0
0
0
0
0
0
0
0
0
0
0
0
0
0
0
0
0
0
0
0
0
0
0
0
0
0
0
0
0
0
0
0
0
0
0
0
0
0
0
0
0
0
0
0
0
0
0
0
0
0
0
0
0
0
0
0
0
0
0
0
0
0
0
0
0
0
0
0
0
0
0
0
0
0
0
0
0
0
0
0
0
0
0
0
0
0
0
0
0
0
0
0
0
0
0
0
0
0
0
0
0
0
0
0
0
0
0
0
0
0
0
0
0
0
0
0
0
0
0
0
0
0
0
0
0
0
0
0
0
0
0
0
0
0
0
0
0
0
0
0
0
0
0
0
0
0
0
0
0
0
0
0
0
0
0
0
0
0
0
0
0
0
0
0
0
0
0
0
0
0
0
0
0
0
0
0
0
0
0
0
0
0
0
0
0
0
0
0
0
0
0
0
0
0
0
0
0
0
0
0
0
0
0
0
0
0
0
0
0
0
0
0
0
0
0
0
0
0
0
0
0
0
0
0
0
0
0
0
0
0
0
0
0
0
0
0
0
0
0
0
0
0
0
0
0
0
0
0
0
0
0
0
0
0
0
0
0
0
0
0
0
0
0
0
0
0
0
0
0
0
0
0
0
0
0
0
0
0
0
0
0
0
0
0
0
0
0
0
0
0
0
0
0
0
0
0
0
0
0
0
0
0
0
0
0
0
0
0
0
0
0
0
0
0
0
0
0
0
0
0
0
0
0
0
0
0
0
0
0
0
0
0
0
0
0
0
0
0
0
0
0
0
0
0
0
0
0
0
0
0
0
0
0
0
0
0
0
0
0
0
0
0
0
0
0
0
0
0
0
0
0
0
0
0
0
0
0
0
0
0
0
0
0
0
0
0
0
0
0
0
0
0
0
0
0
0
0
0
0
0
0
0
0
0
0
0
0
0
0
0
0
0
0
0
0
0
0
0
0
0
0
0
0
0
0
0
0
0
0
0
0
0
0
0
0
0
0
0
0
0
0
0
0
0
0
0
0
0
0
0
0
0
0
0
0
0
0
0
0
0
0
0
0
0
0
0
0
0
0
0
0
0
0
0
0
0
0
0
0
0
0
0
0
0
0
0
0
0
0
0
0
0
0
0
0
0
0
0
0
0
0
0
0
0
0
0
0
0
0
0
0
0
0
0
0
0
0
0
0
0
0
0
0
0
0
0
0
0
0
0
0
0
0
0
0
0
0
0
0
0
0
0
0
0
0
0
0
0
0
0
0
0
0
0
0
0
0
0
0
0
0
0
0
0
0
0
0
0
0
0
0
0
0
0
0
0
0
0
0
0
0
0
0
0
0
0
0
0
0
0
0
0
0
0
0
0
0
0
0
0
0
0
0
0
0
0
0
0
0
0
0
0
0
0
0
0
0
0
0
0
0
0
0
0
0
0
0
0
0
0
0
0
0
0
0
0
0
0
0
0
0
0
0
0
0
0
0
0
0
0
0
0
0
0
0
0
0
0
0
0
0
0
0
0
0
0
0
0
0
0
0
0
0
0
0
0
0
0
0
0
0
0
0
0
0
0
0
0
0
0
0
0
0
0
0
0
0
0
0
0
0
0
0
0
0
0
0
0
0
0
0
0
0
0
0
0
0
0
0
0
0
0
0
0
0
0
0
0
0
0
0
0
0
0
0
0
0
0
0
0
0
0
0
0
0
0
0
0
0
0
0
0
0
0
0
0
0
0
0
0
0
0
0
0
0
0
0
0
0
0
0
0
0
0
0
0
0
0
0
0
0
0
0
0
0
0
0
0
0
0
0
0
0
0
0
0
0
0
0
0
0
0
0
0
0
0
0
0
0
0
0
0
0
0
0
0
0
0
0
0
0
0
0
0
0
0
0
0
0
0
0
0
0
0
0
0
0
0
0
0
0
0
0
0
0
0
0
0
0
0
0
0
0
0
0
0
0
0
0
0
0
0
0
0
0
0
0
0
0
0
0
0
0
0
0
0
0
0
0
0
0
0
0
0
0
0
0
0
0
0
0
0
0
0
0
0
0
0
0
0
0
0
0
0
0
0
0
0
0
0
0
0
0
0
0
0
0
0
0
0
0
0
0
0
0
0
0
0
0
0
0
0
0
0
0
0
0
0
0
0
0
0
0
0
0
0
0
0
0
0
0
0
0
0
0
0
0
0
0
0
0
0
0
0
0
0
0
0
0
0
0
0
0
0
0
0
0
0
0
0
0
0
0
0
0
0
0
0
0
0
0
0
0
0
0
0
0
0
0
0
0
0
0
0
0
0
0
0
0
0
0
0
0
0
0
0
0
0
0
0
0
0
0
0
0
0
0
0
0
0
0
0
0
0
0
0
0
0
0
0
0
0
0
0
0
0
0
0
0
0
0
0
0
0
0
0
0
0
0
0
0
0
0
0
0
0
0
0
0
0
0
0
0
0
0
0
0
0
0
0
0
0
0
0
0
0
0
0
0
0
0
0
0
0
0
0
0
0
0
0
0
0
0
0
0
0
0
0
0
0
0
0
0
0
0
0
0
0
0
0
0
0
0
0
0
0
0
0
0
0
0
0
0
0
0
0
0
0
0
0
0
0
0
0
0
0
0
0
0
0
0
0
0
0
0
0
0
0
0
0
0
0
0
0
0
0
0
0
0
0
0
0
0
0
0
0
0
0
0
0
0
0
0
0
0
0
0
0
0
0
0
0
0
0
0
0
0
0
0
0
0
0
0
0
0
0
0
0
0
0
0
0
0
0
0
0
0
0
0
0
0
0
0
0
0
0
0
0
0
0
0
0
0
0
0
0
0
0
0
0
0
0
0
0
0
0
0
0
0
0
0
0
0
0
0
0
0
0
0
0
0
0
0
0
0
0
0
0
0
0
0
0
0
0
0
0
0
0
0
0
0
0
0
0
0
0
0
0
0
0
0
0
0
0
0
0
0
0
0
0
0
0
0
0
0
0
0
0
0
0
0
0
0
0
0
0
0
0
0
0
0
0
0
0
0
0
0
0
0
0
0
0
0
0
0
0
0
0
0
0
0
0
0
0
0
0
0
0
0
0
0
0
0
0
0
0
0
0
0
0
0
0
0
0
0
0
0
0
0
0
0
0
0
0
0
0
0
0
0
0
0
0
0
0
0
0
0
0
0
0
0
0
0
0
0
0
0
0
0
0
0
0
0
0
0
0
0
0
0
0
0
0
0
0
0
0
0
0
0
0
0
0
0
0
0
0
0
0
0
0
0
0
0
0
0
0
0
0
0
0
0
0
0
0
0
0
0
0
0
0
0
0
0
0
0
0
0
0
0
0
0
0
0
0
0
0
0
0
0
0
0
0
0
0
0
0
0
0
0
0
0
0
0
0
0
0
0
0
0
0
0
0
0
0
0
0
0
0
0
0
0
0
0
0
0
0
0
0
0
0
0
0
0
0
0
0
0
0
0
0
0
0
0
0
0
0
0
0
0
0
0
0
0
0
0
0
0
0
0
0
0
0
0
0
0
0
0
0
0
0
0
0
0
0
0
0
0
0
0
0
0
0
0
0
0
0
0
0
0
0
0
0
0
0
0
0
0
0
0
0
0
0
0
0
0
0
0
0
0
0
0
0
0
0
0
0
0
0
0
0
0
0
0
0
0
0
0
0
0
0
0
0
0
0
0
0
0
0
0
0
0
0
0
0
0
0
0
0
0
0
0
0
0
0
0
0
0
0
0
0
0
0
0
0
0
0
0
0
0
0
0
0
0
0
0
0
0
0
0
0
0
0
0
0
0
0
0
0
0
0
0
0
0
0
0
0
0
0
0
0
0
0
0
0
0
0
0
0
0
0
0
0
0
0
0
0
0
0
0
0
0
0
0
0
0
0
0
0
0
0
0
0
0
0
0
0
0
0
0
0
0
0
0
0
0
0
0
0
0
0
0
0
0
0
0
0
0
0
0
0
0
0
0
0
0
0
0
0
0
0
0
0
0
0
0
0
0
0
0
0
0
0
0
0
0
0
0
0
0
0
0
0
0
0
0
0
0
0
0
0
0
0
0
0
0
0
0
0
0
0
0
0
0
0
0
0
0
0
0
0
0
0
0
0
0
0
0
0
0
0
0
0
0
0
0
0
0
0
0
0
0
0
0
0
0
0
0
0
0
0
0
0
0
0
0
0
0
0
0
0
0
0
0
0
0
0
0
0
0
0
0
0
0
0
0
0
0
0
0
0
0
0
0
0
0
0
0
0
0
0
0
0
0
0
0
0
0
0
0
0
0
0
0
0
0
0
0
0
0
0
0
0
0
0
0
0
0
0
0
0
0
0
0
0
0
0
0
0
0
0
0
0
0
0
0
0
0
0
0
0
0
0
0
0
0
0
0
0
0
0
0
0
0
0
0
0
0
0
0
0
0
0
0
0
0
0
0
0
0
0
0
0
0
0
0
0
0
0
0
0
0
0
0
0
0
0
0
0
0
0
0
0
0
0
0
0
0
0
0
0
0
0
0
0
0
0
0
0
0
0
0
0
0
0
0
0
0
0
0
0
0
0
0
0
0
0
0
0
0
0
0
0
0
0
0
0
0
0
0
0
0
0
0
0
0
0
0
0
0
0
0
0
0
0
0
0
0
0
0
0
0
0
0
0
0
0
0
0
0
0
0
0
0
0
0
0
0
0
0
0
0
0
0
0
0
0
0
0
0
0
0
0
0
0
0
0
0
0
0
0
0
0
0
0
0
0
0
0
0
0
0
0
0
0
0
0
0
0
0
0
0
0
0
0
0
0
0
0
0
0
0
0
0
0
0
0
0
0
0
0
0
0
0
0
0
0
0
0
0
0
0
0
0
0
0
0
0
0
0
0
0
0
0
0
0
0
0
0
0
0
0
0
0
0
0
0
0
0
0
0
0
0
0
0
0
0
0
0
0
0
0
0
0
0
0
0
0
0
0
0
0
0
0
0
0
0
0
0
0
0
0
0
0
0
0
0
0
0
0
0
0
0
0
0
0
0
0
0
0
0
0
0
0
0
0
0
0
0
0
0
0
0
0
0
0
0
0
0
0
0
0
0
0
0
0
0
0
0
0
0
0
0
0
0
0
0
0
0
0
0
0
0
0
0
0
0
0
0
0
0
0
0
0
0
0
0
0
0
0
0
0
0
0
0
0
0
0
0
0
0
0
0
0
0
0
0
0
0
0
0
0
0
0
0
0
0
0
0
0
0
0
0
0
0
0
0
0
0
0
0
0
0
0
0
0
0
0
0
0
0
0
0
0
0
0
0
0
0
0
0
0
0
0
0
0
0
0
0
0
0
0
0
0
0
0
0
0
0
0
0
0
0
0
0
0
0
0
0
0
0
0
0
0
0
0
0
0
0
0
0
0
0
0
0
0
0
0
0
0
0
0
0
0
0
0
0
0
0
0
0
0
0
0
0
0
0
0
0
0
0
0
0
0
0
0
0
0
0
0
0
0
0
0
0
0
0
0
0
0
0
0
0
0
0
0
0
0
0
0
0
0
0
0
0
0
0
0
0
0
0
0
0
0
0
0
0
0
0
0
0
0
0
0
0
0
0
0
0
0
0
0
0
0
0
0
0
0
0
0
0
0
0
0
0
0
0
0
0
0
0
0
0
0
0
0
0
0
0
0
0
0
0
0
0
0
0
0
0
0
0
0
0
0
0
0
0
0
0
0
0
0
0
0
0
0
0
0
0
0
0
0
0
0
0
0
0
0
0
0
0
0
0
0
0
0
0
0
0
0
0
0
0
0
0
0
0
0
0
0
0
0
0
0
0
0
0
0
0
0
0
0
0
0
0
0
0
0
0
0
0
0
0
0
0
0
0
0
0
0
0
0
0
0
0
0
0
0
0
0
0
0
0
0
0
0
0
0
0
0
0
0
0
0
0
0
0
0
0
0
0
0
0
0
0
0
0
0
0
0
0
0
0
0
0
0
0
0
0
0
0
0
0
0
0
0
0
0
0
0
0
0
0
0
0
0
0
0
0
0
0
0
0
0
0
0
0
0
0
0
0
0
0
0
0
0
0
0
0
0
0
0
0
0
0
0
0
0
0
0
0
0
0
0
0
0
0
0
0
0
0
0
0
0
0
0
0
0
0
0
0
0
0
0
0
0
0
0
0
0
0
0
0
0
0
0
0
0
0
0
0
0
0
0
0
0
0
0
0
0
0
0
0
0
0
0
0
0
0
0
0
0
0
0
0
0
0
0
0
0
0
0
0
0
0
0
0
0
0
0
0
0
0
0
0
0
0
0
0
0
0
0
0
0
0
0
0
0
0
0
0
0
0
0
0
0
0
0
0
0
0
0
0
0
0
0
0
0
0
0
0
0
0
0
0
0
0
0
0
0
0
0
0
0
0
0
0
0
0
0
0
0
0
0
0
0
0
0
0
0
0
0
0
0
0
0
0
0
0
0
0
0
0
0
0
0
0
0
0
0
0
0
0
0
0
0
0
0
0
0
0
0
0
0
0
0
0
0
0
0
0
0
0
0
0
0
0
0
0
0
0
0
0
0
0
0
0
0
0
0
0
0
0
0
0
0
0
0
0
0
0
0
0
0
0
0
0
0
0
0
0
0
0
0
0
0
0
0
0
0
0
0
0
0
0
0
0
0
0
0
0
0
0
0
0
0
0
0
0
0
0
0
0
0
0
0
0
0
0
0
0
0
0
0
0
0
0
0
0
0
0
0
0
0
0
0
0
0
0
0
0
0
0
0
0
0
0
0
0
0
0
0
0
0
0
0
0
0
0
0
0
0
0
0
0
0
0
0
0
0
0
0
0
0
0
0
0
0
0
0
0
0
0
0
0
0
0
0
0
0
0
0
0
0
0
0
0
0
0
0
0
0
0
0
0
0
0
0
0
0
0
0
0
0
0
0
0
0
0
0
0
0
0
0
0
0
0
0
0
0
0
0
0
0
0
0
0
0
0
0
0
0
0
0
0
0
0
0
0
0
0
0
0
0
0
0
0
0
0
0
0
0
0
0
0
0
0
0
0
0
0
0
0
0
0
0
0
0
0
0
0
0
0
0
0
0
0
0
0
0
0
0
0
0
0
0
0
0
0
