0.998737
0.883433
0.754578
0.615213
0.468743
0.318559
0.167516
0.0176987
-0.129662
-0.274065
-0.415438
-0.553777
-0.688818
-0.819814
-0.94546
-1.06394
-1.17304
-1.2704
-1.35367
-1.42089
-1.47085
-1.50266
-1.51482
-1.50784
-1.48807
-1.46419
-1.4442
-1.43331
-1.43255
-1.43871
-1.44567
-1.44675
-1.43706
-1.41665
-1.38872
-1.3565
-1.3242
-1.29626
-1.2767
-1.26861
-1.27386
-1.29296
-1.32495
-1.36726
-1.41634
-1.46699
-1.51252
-1.54644
-1.56367
-1.56164
-1.54079
-1.50452
-1.45835
-1.40858
-1.36097
-1.31899
-1.28363
-1.25498
-1.2319
-1.21248
-1.19449
-1.1758
-1.15476
-1.13024
-1.10172
-1.06918
-1.03286
-0.993041
-0.94974
-0.902473
-0.850156
-0.790788
-0.720473
-0.631072
-0.508186
-0.344049
-0.166312
-0.016787
0.062088
0.0403008
-0.0874596
-0.294681
-0.525985
-0.712586
-0.797828
-0.805047
-0.775352
-0.726551
-0.665328
-0.59816
-0.530279
-0.464764
-0.402735
-0.34816
-0.331098
0
0.936758
2.70731
5.23154
8.02096
10.2793
11.2115
10.3981
8.02393
4.81822
1.7299
-0.482253
-1.52416
-1.57959
-1.09665
-0.658793
-0.287483
-0.0181191
0.143408
0.273298
0.389343
0.49413
0.588738
0.67407
0.750874
0.819797
0.881411
0.936226
0.984656
1.02697
1.06321
1.09343
1.11776
1.13659
1.15069
1.16137
1.17051
1.18042
1.19363
1.21258
1.23917
1.27454
1.31906
1.3722
1.43264
1.49849
1.56763
1.63818
1.70885
1.77917
1.8495
1.92085
1.99459
2.07209
2.15431
2.24164
2.33371
2.42935
2.52647
2.62155
2.70933
2.78311
2.83614
2.86181
2.85418
2.80859
2.72227
2.5949
2.42907
2.2304
2.00729
1.77091
1.53163
1.29708
1.07271
0.862484
0.6685
0.491245
0.330024
0.183496
0.0501396
-0.0714294
-0.1823
-0.283231
-0.374649
-0.456685
-0.529103
-0.591578
-0.643738
-0.685365
-0.716612
-0.738131
-0.750979
-0.756565
-0.756522
-0.752208
-0.744384
-0.733054
-0.717553
-0.696832
-0.669884
-0.636162
-0.595901
-0.550346
-0.501399
-0.451261
-0.402215
-0.356293
-0.314841
-0.27839
-0.246675
-0.21883
-0.19368
-0.170057
-0.14706
-0.123984
-0.100265
-0.0751686
-0.0475296
-0.0156822
0.0222931
0.0680752
0.12253
0.185292
0.25431
0.327108
0.401044
0.473739
0.543501
0.609464
0.671457
0.729684
0.784186
0.835062
0.8823
0.926038
0.966883
1.00608
1.04541
1.08677
1.13162
1.18075
1.23292
1.28367
1.32585
1.35132
1.35249
1.32386
1.26293
1.17064
1.05121
0.911488
0.760043
0.606362
0.457923
0.321332
0.20136
0.100605
0.0192455
-0.0449432
-0.096262
-0.140506
-0.165282
0
0.719976
2.31664
4.8297
7.84408
10.5486
12.0451
11.7552
9.70216
6.50474
3.09413
0.322115
-1.33401
-1.84643
-1.50825
-0.728098
0.115234
0.819531
1.17851
1.18245
1.15941
1.13154
1.11115
1.10935
1.13334
1.18084
1.24433
1.31905
1.40176
1.48923
1.5783
1.66595
1.74933
1.82595
1.89385
1.95173
1.9991
2.03623
2.06402
2.08374
2.0968
2.10479
2.10916
2.11145
2.11349
2.11744
2.12571
2.14068
2.16428
2.19749
2.24033
2.29177
2.34785
2.40238
2.44873
2.48102
2.49508
2.48871
2.46146
2.41383
2.34648
2.26017
2.15622
2.03518
1.89668
1.73983
1.56384
1.36839
1.15383
0.921521
0.674072
0.415608
0.151758
-0.110656
-0.364291
-0.602171
-0.818302
-1.00873
-1.17272
-1.31212
-1.43064
-1.53283
-1.62311
-1.705
-1.78064
-1.8508
-1.91519
-1.97285
-2.02219
-2.06159
-2.08992
-2.10661
-2.11177
-2.10623
-2.09135
-2.06886
-2.04051
-2.00774
-1.97154
-1.9325
-1.89094
-1.84722
-1.80199
-1.75633
-1.71161
-1.66937
-1.63104
-1.59771
-1.56998
-1.54791
-1.53112
-1.51887
-1.51019
-1.50409
-1.4996
-1.49589
-1.49226
-1.4882
-1.48327
-1.47709
-1.46931
-1.45953
-1.44744
-1.43285
-1.41576
-1.39646
-1.37553
-1.35375
-1.332
-1.31107
-1.29141
-1.2729
-1.25481
-1.23571
-1.21366
-1.18643
-1.15179
-1.10782
-1.05329
-0.987642
-0.910797
-0.823216
-0.725925
-0.620083
-0.507298
-0.390561
-0.275002
-0.168156
-0.0790268
-0.0158882
0.0145958
0.00880203
-0.0325745
-0.1038
-0.194323
-0.290224
-0.376736
-0.442438
-0.484412
-0.500993
-0.492729
-0.462894
-0.416526
-0.359449
-0.297755
-0.240006
0
0.73521
2.22452
4.52655
7.3287
9.94341
11.5343
11.487
9.72503
6.77147
3.50946
0.784801
-0.916258
-1.55639
-1.41133
-0.852176
-0.264603
0.213786
0.466752
0.537885
0.587843
0.633978
0.678482
0.721842
0.763945
0.804435
0.843125
0.880293
0.916718
0.953471
0.991557
1.03156
1.07329
1.11609
1.15892
1.20049
1.23937
1.27401
1.30283
1.32448
1.3381
1.34356
1.34186
1.33517
1.32732
1.324
1.33148
1.35544
1.39982
1.46592
1.55205
1.65379
1.76473
1.87756
1.98548
2.08285
2.16441
2.22589
2.26451
2.27825
2.26556
2.22522
2.15631
2.05836
1.93147
1.7766
1.59623
1.3947
1.1765
0.945571
0.705965
0.461571
0.215851
-0.0283028
-0.268557
-0.502998
-0.729915
-0.947596
-1.15419
-1.34767
-1.52593
-1.68691
-1.82891
-1.95079
-2.05184
-2.13173
-2.1921
-2.23622
-2.26802
-2.29143
-2.3098
-2.32549
-2.33972
-2.35269
-2.36391
-2.37263
-2.37817
-2.37991
-2.37741
-2.37036
-2.35867
-2.34243
-2.32199
-2.29797
-2.27138
-2.24367
-2.21663
-2.19218
-2.17209
-2.15777
-2.15006
-2.14918
-2.15468
-2.16552
-2.18015
-2.19656
-2.21255
-2.22595
-2.23479
-2.23749
-2.23302
-2.22139
-2.20394
-2.1828
-2.16036
-2.13864
-2.11876
-2.10059
-2.08271
-2.06262
-2.0372
-2.00337
-1.95864
-1.90147
-1.83134
-1.74876
-1.65522
-1.55315
-1.44562
-1.33602
-1.22783
-1.12387
-1.02588
-0.934303
-0.84834
-0.766338
-0.68634
-0.606676
-0.526367
-0.445206
-0.363544
-0.281713
-0.199432
-0.11544
-0.027552
0.0694229
0.184889
0.31227
0.423197
0.47819
0.443956
0.311548
0.105347
-0.123295
-0.316337
-0.433947
-0.50311
-0.535495
-0.545232
-0.547928
-0.556197
-0.577038
-0.611617
-0.656934
-0.708245
-0.763143
-0.584871
0
1.31033
3.49887
6.41755
9.50282
11.9044
12.8202
11.879
9.35086
6.04444
2.94009
0.771971
-0.214581
-0.23175
0.277397
0.705672
1.09476
1.41593
1.65386
1.85376
2.0286
2.18005
2.31056
2.4233
2.52193
2.61042
2.69262
2.77189
2.85073
2.93056
3.01176
3.094
3.17658
3.25879
3.34034
3.42149
3.50322
3.58711
3.67513
3.76935
3.87167
3.9835
4.10559
4.23792
4.37979
4.53
4.68725
4.8503
5.01804
5.18952
5.36389
5.54027
5.71768
5.89499
6.07098
6.2444
6.41398
6.57846
6.73645
6.88612
7.02469
7.14778
7.24906
7.3208
7.35418
7.33984
7.26938
7.13723
6.94232
6.68913
6.38768
6.05228
5.70042
5.34715
5.00261
4.67419
4.36614
4.07981
3.8143
3.56743
3.33683
3.12062
2.91786
2.72846
2.55275
2.39086
2.24215
2.1049
1.97633
1.85296
1.73124
1.60827
1.48237
1.35335
1.22242
1.09169
0.963446
0.839363
0.719933
0.603624
0.487274
0.366975
0.239238
0.102132
-0.0439926
-0.196384
-0.350407
-0.500496
-0.641837
-0.770314
-0.883113
-0.978845
-1.05737
-1.11942
-1.16628
-1.19945
-1.22048
-1.23086
-1.232
-1.22517
-1.21148
-1.19186
-1.16708
-1.13773
-1.1043
-1.06725
-1.02706
-0.984294
-0.93956
-0.893469
-0.84653
-0.799026
-0.750929
-0.701877
-0.651236
-0.598216
-0.542
-0.481842
-0.417107
-0.347261
-0.271771
-0.190141
-0.102028
-0.00744782
0.0929337
0.197922
0.304944
0.409544
0.506284
0.589696
0.655186
0.699721
0.722176
0.723331
0.705544
0.672334
0.628017
0.577245
0.524139
0.472015
0.423297
0.379459
0.341147
0.308058
0.278816
0.251454
0.223875
0.194368
0.16196
0.126631
0.0892395
0.0512375
0.0142746
-0.0203354
-0.0518448
-0.0801346
-0.105762
-0.129807
-0.153603
-0.178445
-0.205319
-0.234726
-0.266628
-0.300797
-0.32814
0
0.999849
2.92198
5.53561
8.13632
9.82514
9.96598
8.52123
6.04561
3.36308
1.15979
-0.260892
-0.969838
-1.23206
-1.27517
-1.30592
-1.3327
-1.35287
-1.36308
-1.35891
-1.33529
-1.28641
-1.20666
-1.09169
-0.93867
-0.746286
-0.515579
-0.250487
0.0424911
0.355133
0.678633
1.00477
1.32688
1.6403
1.94243
2.23212
2.50905
2.7728
3.02241
3.25605
3.47124
3.66526
3.8357
3.98101
4.10087
4.19637
4.26999
4.3254
4.36709
4.39995
4.42873
4.45748
4.48906
4.52479
4.56429
4.60566
4.64575
4.68074
4.70661
4.71947
4.7154
4.69016
4.63954
4.56031
4.44941
4.30392
4.12159
3.9016
3.64512
3.35556
3.0384
2.70051
2.35007
1.99447
1.63929
1.28927
0.948379
0.619948
0.30671
0.0108322
-0.26614
-0.52336
-0.760747
-0.978978
-1.1794
-1.36389
-1.53469
-1.69413
-1.84442
-1.98785
-2.12656
-2.26196
-2.39442
-2.52308
-2.64578
-2.75943
-2.86051
-2.94577
-3.01293
-3.06109
-3.09091
-3.10442
-3.10466
-3.09543
-3.08023
-3.06189
-3.04254
-3.02355
-3.00552
-2.98826
-2.97098
-2.95238
-2.93092
-2.90507
-2.87354
-2.83558
-2.79106
-2.74061
-2.68556
-2.62777
-2.56944
-2.51277
-2.45959
-2.41103
-2.36729
-2.32769
-2.29085
-2.25512
-2.21912
-2.18215
-2.14449
-2.10734
-2.07264
-2.04253
-2.01888
-2.00278
-1.99423
-1.99199
-1.99373
-1.9963
-1.99616
-1.9898
-1.97412
-1.94668
-1.90579
-1.85049
-1.78049
-1.6961
-1.59824
-1.48855
-1.36953
-1.24463
-1.11822
-0.995297
-0.881028
-0.780084
-0.696
-0.630695
-0.584283
-0.555221
-0.540766
-0.537604
-0.542493
-0.55276
-0.566592
-0.583
-0.601592
-0.622278
-0.644978
-0.669426
-0.695134
-0.721457
-0.747713
-0.773462
-0.558899
0
1.21314
3.32205
6.24615
9.43568
11.9867
13.0089
12.0594
9.38647
5.82882
2.43111
0.00219374
-1.15074
-1.21144
-0.644095
-0.247144
0.0952414
0.349177
0.509297
0.641336
0.756507
0.859914
0.955264
1.04462
1.1288
1.20777
1.28143
1.35014
1.41492
1.47743
1.53973
1.60391
1.67184
1.74508
1.82478
1.9117
2.00617
2.10803
2.21654
2.33033
2.44751
2.56587
2.6833
2.7982
2.90989
3.01874
3.1261
3.23396
3.34445
3.45934
3.5796
3.70517
3.83496
3.96699
4.09815
4.22379
4.33817
4.43552
4.5107
4.55927
4.57787
4.56445
4.51849
4.44107
4.33477
4.20337
4.0513
3.8833
3.70377
3.51616
3.32265
3.12441
2.92244
2.71825
2.51414
2.31323
2.1193
1.9363
1.76783
1.61653
1.48378
1.36951
1.27236
1.19005
1.11986
1.05905
1.00529
0.956851
0.912646
0.872074
0.834797
0.800461
0.768477
0.737956
0.707844
0.677207
0.645565
0.613148
0.581436
0.553296
0.532273
0.521759
0.524157
0.540313
0.56938
0.609119
0.656493
0.708294
0.761524
0.81394
0.863685
0.908784
0.947141
0.976535
0.994611
0.99909
0.988054
0.960254
0.915369
0.854183
0.778643
0.691932
0.598154
0.501711
0.406913
0.317721
0.237422
0.168369
0.111871
0.0678183
0.0349786
0.0113418
-0.00552621
-0.0181715
-0.0290366
-0.0403389
-0.0540026
-0.0715833
-0.0941464
-0.122134
-0.155233
-0.192344
-0.231695
-0.27113
-0.308515
-0.342268
-0.371575
-0.396549
-0.418399
-0.439322
-0.461731
-0.487465
-0.517814
-0.551381
-0.581633
-0.59961
-0.596661
-0.567292
-0.511018
-0.432536
-0.340264
-0.243976
-0.152567
-0.0704723
-0.000208473
0.0553538
0.094737
0.11734
0.123571
0.115058
0.0947291
0.0665746
0.035018
0.00401325
-0.0240598
-0.048905
-0.0717894
-0.0958107
-0.125126
-0.164042
-0.21667
-0.287694
-0.376463
-0.479435
-0.599701
-0.525094
0
1.24969
3.38875
6.31319
9.52102
12.1894
13.4653
12.8443
10.4317
6.92689
3.3301
0.527381
-1.03208
-1.41737
-1.0559
-0.600117
-0.210674
0.0734993
0.247854
0.376023
0.478226
0.554035
0.60296
0.625865
0.626299
0.610989
0.589105
0.570505
0.563624
0.57156
0.592791
0.625309
0.667452
0.717117
0.771861
0.829195
0.886913
0.943338
0.997495
1.04917
1.0989
1.1478
1.19741
1.24945
1.30558
1.36719
1.43531
1.51045
1.59264
1.68147
1.77627
1.87634
1.98112
2.09036
2.20412
2.32282
2.44722
2.57794
2.71438
2.85279
2.98347
3.09296
3.1666
3.191
3.15667
3.06012
2.9047
2.69985
2.45883
2.19611
1.92623
1.65691
1.39163
1.13318
0.884076
0.646478
0.422314
0.213219
0.0203819
-0.155526
-0.314396
-0.45758
-0.587269
-0.706112
-0.816736
-0.921298
-1.02124
-1.11726
-1.20952
-1.29787
-1.38207
-1.46173
-1.5363
-1.60497
-1.66664
-1.72003
-1.76398
-1.79787
-1.82175
-1.83638
-1.84322
-1.84469
-1.8436
-1.84218
-1.84137
-1.84048
-1.83721
-1.82814
-1.80916
-1.77383
-1.71673
-1.64104
-1.56091
-1.49405
-1.45662
-1.45875
-1.50181
-1.57795
-1.67192
-1.7649
-1.83975
-1.88985
-1.91845
-1.93097
-1.92994
-1.91887
-1.90125
-1.87982
-1.85611
-1.83048
-1.80255
-1.77187
-1.73837
-1.70359
-1.67105
-1.64547
-1.63161
-1.63299
-1.65098
-1.68439
-1.72985
-1.78265
-1.83776
-1.89097
-1.93981
-1.98314
-2.02016
-2.05043
-2.07374
-2.08992
-2.0987
-2.09954
-2.09199
-2.07583
-2.05122
-2.01884
-1.97981
-1.9357
-1.88841
-1.83934
-1.78881
-1.73566
-1.67722
-1.60973
-1.52906
-1.4316
-1.30809
-1.14593
-0.941217
-0.715935
-0.507183
-0.345633
-0.251366
-0.234405
-0.296168
-0.429761
-0.618603
-0.834686
-1.0395
-1.20058
-1.31139
-1.38104
-1.40569
-1.38588
-1.32618
-1.23414
-1.11889
-0.989993
-0.842646
-0.6127
0
1.37212
3.69479
6.78081
9.9725
12.3342
13.0474
11.8032
8.9626
5.39437
2.08603
-0.249821
-1.38138
-1.51679
-1.09776
-0.744562
-0.458081
-0.266118
-0.15992
-0.0773544
-0.0009758
0.0743149
0.151911
0.234359
0.323409
0.4201
0.524653
0.636673
0.755049
0.878004
1.00275
1.125
1.23982
1.34286
1.43141
1.50523
1.56697
1.62197
1.67741
1.74087
1.81878
1.91417
2.02635
2.15232
2.28815
2.42954
2.57235
2.71349
2.85148
2.98659
3.12049
3.25554
3.39403
3.53744
3.6859
3.83818
3.99188
4.14364
4.28946
4.4251
4.5465
4.6498
4.73115
4.78712
4.81461
4.81063
4.77254
4.69856
4.58829
4.44329
4.26741
4.06699
3.85137
3.63092
3.41503
3.21311
3.03322
2.88137
2.76106
2.67318
2.61646
2.58809
2.58455
2.60224
2.63739
2.6869
2.74771
2.81667
2.8905
2.96592
3.03994
3.11019
3.17512
3.23397
3.28659
3.3331
3.37394
3.40951
3.44005
3.46562
3.48608
3.50107
3.50994
3.51214
3.5075
3.49666
3.48145
3.46494
3.45102
3.44494
3.45503
3.47379
3.47627
3.42807
3.29835
3.07361
2.76527
2.40692
2.04181
1.70631
1.39756
1.10862
0.83692
0.577372
0.323795
0.0703957
-0.186979
-0.450053
-0.717873
-0.987107
-1.25274
-1.50904
-1.75054
-1.97293
-2.17373
-2.35261
-2.51137
-2.65355
-2.78321
-2.90407
-3.02051
-3.13627
-3.24871
-3.34709
-3.41685
-3.44426
-3.41962
-3.33885
-3.20401
-3.02326
-2.80974
-2.57893
-2.34485
-2.11439
-1.88817
-1.66464
-1.44229
-1.21956
-0.994965
-0.767289
-0.535705
-0.299741
-0.0591461
0.186889
0.44039
0.702782
0.964431
1.20089
1.38124
1.47929
1.48512
1.41032
1.28389
1.14073
1.00929
0.899884
0.804774
0.716847
0.632154
0.547893
0.461653
0.371559
0.276494
0.176563
0.0668816
-0.182041
0
1.04684
3.17678
6.20438
9.48049
12.0825
13.1706
12.3396
9.78765
6.22337
2.56798
-0.394147
-2.25277
-3.01404
-2.94244
-2.53854
-2.16801
-1.88042
-1.71386
-1.6796
-1.75696
-1.89896
-2.04287
-2.12275
-2.10399
-2.01596
-1.88975
-1.74129
-1.57868
-1.40757
-1.23282
-1.05825
-0.886219
-0.71764
-0.552129
-0.388375
-0.224548
-0.0586906
0.110947
0.285668
0.466167
0.65248
0.844048
1.03993
1.23912
1.44092
1.64526
1.85284
2.06503
2.28352
2.50983
2.74481
2.98823
3.23877
3.49422
3.75191
4.00927
4.26409
4.51425
4.75715
4.98949
5.20582
5.39608
5.54402
5.63141
5.64368
5.57454
5.42841
5.22028
4.97255
4.70932
4.44927
4.19822
3.95604
3.72285
3.49955
3.28658
3.08404
2.89187
2.71002
2.53876
2.37894
2.23248
2.10334
1.9949
1.91028
1.85153
1.81877
1.81022
1.82182
1.84693
1.87837
1.90983
1.93683
1.95713
1.97054
1.97822
1.98183
1.98291
1.98245
1.98096
1.9788
1.97658
1.97537
1.97676
1.98257
1.99465
2.01514
2.04466
2.07784
2.10494
2.11535
2.10118
2.06048
1.9986
1.92711
1.86051
1.81197
1.78527
1.7776
1.78703
1.80907
1.83789
1.86749
1.89302
1.91095
1.91925
1.9172
1.90512
1.88424
1.85625
1.82274
1.78535
1.74563
1.70493
1.66431
1.62442
1.58537
1.54666
1.50713
1.46489
1.41766
1.36323
1.30005
1.22792
1.14835
1.06454
0.982855
0.911092
0.85658
0.824466
0.816443
0.83027
0.860249
0.898462
0.936459
0.967021
0.985184
0.988704
0.977789
0.954263
0.920505
0.878626
0.830278
0.776179
0.716367
0.650627
0.578941
0.501617
0.419249
0.332564
0.242168
0.148285
0.0505646
-0.052092
-0.161206
-0.276694
-0.397188
-0.520009
-0.498212
0
1.24536
3.46625
6.56755
10.0493
13.0874
14.8086
14.6522
12.6308
9.34385
5.73232
2.6991
0.788443
0.0686783
0.233752
0.769473
1.04495
1.295
1.51056
1.69588
1.85659
1.99425
2.11024
2.20501
2.28067
2.33889
2.38139
2.41051
2.42955
2.4427
2.45448
2.46902
2.48934
2.51641
2.55012
2.58979
2.6343
2.68251
2.73361
2.78738
2.84424
2.90519
2.97147
3.04435
3.1248
3.21342
3.31059
3.41664
3.53232
3.65893
3.79842
3.95306
4.12501
4.31575
4.52557
4.75327
4.99617
5.25193
5.51749
5.78418
6.03218
6.23798
6.3834
6.45219
6.4325
6.32077
6.12398
5.85899
5.54935
5.22106
4.8968
4.58503
4.28562
3.99736
3.72045
3.45595
3.20473
2.96752
2.745
2.53772
2.3461
2.1704
2.01072
1.86685
1.73826
1.62414
1.52341
1.43475
1.35673
1.28796
1.22724
1.17373
1.12692
1.08667
1.05303
1.02608
1.00577
0.991861
0.983968
0.981698
0.984904
0.99387
1.00941
1.03281
1.06555
1.10891
1.16345
1.22859
1.3023
1.38114
1.46057
1.53521
1.60003
1.65125
1.68694
1.70723
1.71406
1.71051
1.70002
1.68556
1.66906
1.65111
1.63103
1.60718
1.57772
1.54115
1.49686
1.44533
1.38801
1.32696
1.26429
1.20168
1.14015
1.08012
1.0218
0.965676
0.912849
0.865157
0.824919
0.794502
0.77589
0.769363
0.77499
0.79293
0.823002
0.86494
0.918962
0.98527
1.0637
1.15122
1.23625
1.30127
1.32773
1.30054
1.2131
1.07083
0.890842
0.697761
0.517468
0.367653
0.247215
0.150679
0.0792595
0.0324566
0.00805168
0.00248375
0.0113461
0.0298737
0.0556473
-0.0920021
0
0.761945
2.50135
5.1873
8.31287
11.005
12.3535
11.8105
9.45206
5.9589
2.32327
-0.561997
-2.22148
-2.68122
-2.3138
-1.61721
-0.949438
-0.476087
-0.292132
-0.295802
-0.31289
-0.329901
-0.342419
-0.346599
-0.339587
-0.32037
-0.289232
-0.246679
-0.193227
-0.12942
-0.0557396
0.0273914
0.119485
0.219822
0.327323
0.440549
0.557853
0.677669
0.798853
0.920973
1.04446
1.17054
1.30097
1.43763
1.58209
1.73519
1.89686
2.06613
2.2413
2.42033
2.60124
2.78253
2.96345
3.14411
3.32538
3.50857
3.69509
3.8867
4.08438
4.2828
4.46757
4.62087
4.72665
4.77507
4.76408
4.6979
4.58354
4.42751
4.23468
4.01585
3.78142
3.53891
3.29429
3.05307
2.82051
2.60179
2.4014
2.22269
2.0675
1.93626
1.82798
1.73944
1.66634
1.60407
1.54847
1.49647
1.44635
1.39778
1.3515
1.30879
1.27077
1.23824
1.2114
1.18974
1.17209
1.15674
1.1417
1.12489
1.1044
1.0788
1.04746
1.01075
0.970187
0.928336
0.888462
0.853988
0.828695
0.816486
0.815765
0.818432
0.813853
0.792545
0.749669
0.68681
0.611252
0.533077
0.461363
0.399329
0.345383
0.29831
0.255992
0.216414
0.178503
0.142542
0.110054
0.0832436
0.0640656
0.0536964
0.0523834
0.0582558
0.0679939
0.0779175
0.0850449
0.0880188
0.0876289
0.0868004
0.0900757
0.102717
0.128966
0.171269
0.233448
0.319412
0.427679
0.548612
0.668543
0.773207
0.849538
0.886789
0.877248
0.817031
0.707147
0.554541
0.37232
0.178371
-0.00776215
-0.172092
-0.307905
-0.410536
-0.480337
-0.521973
-0.54305
-0.552425
-0.548985
-0.506153
0
1.38308
3.81481
7.04748
10.3506
12.7293
13.3332
11.858
8.7117
4.84257
1.31603
-1.12546
-2.28643
-2.44183
-2.10163
-1.78218
-1.50203
-1.27524
-1.10923
-1.00353
-0.950195
-0.936113
-0.946688
-0.96936
-0.995571
-1.02133
-1.04544
-1.06724
-1.08595
-1.10067
-1.1106
-1.11516
-1.11436
-1.10905
-1.10072
-1.09125
-1.08258
-1.07643
-1.07408
-1.07634
-1.08348
-1.09509
-1.11019
-1.12724
-1.14414
-1.15845
-1.16769
-1.16937
-1.16193
-1.14506
-1.1195
-1.08674
-1.04882
-1.008
-0.966772
-0.927885
-0.894456
-0.870003
-0.858395
-0.863671
-0.889838
-0.940639
-1.01939
-1.12877
-1.26974
-1.44164
-1.64358
-1.87393
-2.12958
-2.40589
-2.6968
-2.99522
-3.29357
-3.58454
-3.86173
-4.12029
-4.35706
-4.57052
-4.76037
-4.92697
-5.07093
-5.19284
-5.29328
-5.37282
-5.43254
-5.47478
-5.50354
-5.52338
-5.53862
-5.55249
-5.56647
-5.58007
-5.59119
-5.59678
-5.59382
-5.58067
-5.5568
-5.52318
-5.48263
-5.43918
-5.39739
-5.36154
-5.33494
-5.31951
-5.31563
-5.32225
-5.33721
-5.35775
-5.38112
-5.40509
-5.42833
-5.45035
-5.47114
-5.49075
-5.50878
-5.52388
-5.53346
-5.53407
-5.52165
-5.49223
-5.44255
-5.37055
-5.27566
-5.15876
-5.02211
-4.86908
-4.70436
-4.5325
-4.35726
-4.18177
-4.00818
-3.83729
-3.66832
-3.49896
-3.32567
-3.14431
-2.95095
-2.74274
-2.51871
-2.2802
-2.02872
-1.7704
-1.52291
-1.30749
-1.14209
-1.0367
-0.99077
-0.993379
-1.02611
-1.06781
-1.09982
-1.11182
-1.10535
-1.08498
-1.05408
-1.0154
-0.971587
-0.925029
-0.877716
-0.703725
0
1.54362
4.13077
7.50114
10.9399
13.4841
14.3066
13.0953
10.2179
6.57342
3.19943
0.844744
-0.273255
-0.423438
-0.10173
0.127077
0.344315
0.542213
0.715775
0.87447
1.02127
1.15595
1.27878
1.39085
1.49413
1.59141
1.68604
1.78139
1.88039
1.98504
2.09625
2.21383
2.33678
2.4637
2.59311
2.72374
2.85462
2.98506
3.11454
3.24263
3.36885
3.49267
3.61348
3.73069
3.84387
3.95292
4.05826
4.16099
4.26281
4.3659
4.47244
4.58414
4.70173
4.82457
4.95065
5.07677
5.19901
5.3133
5.41584
5.5027
5.56872
5.60853
5.61948
5.59986
5.54832
5.46424
5.34797
5.20105
5.02628
4.82762
4.61024
4.38153
4.14877
3.91866
3.69806
3.49305
3.30813
3.14561
3.00548
2.88579
2.78348
2.69539
2.61911
2.55257
2.49502
2.44688
2.40851
2.37975
2.35949
2.34569
2.33561
2.32573
2.31259
2.29359
2.26751
2.2347
2.19685
2.1565
2.11629
2.07843
2.0441
2.01349
1.98616
1.9613
1.93804
1.91577
1.8944
1.87448
1.85726
1.84456
1.8386
1.8416
1.8554
1.88099
1.91814
1.96516
2.01887
2.07489
2.12767
2.17126
2.20039
2.21119
2.20174
2.17223
2.1248
2.06304
1.99144
1.91468
1.83722
1.76265
1.69376
1.63267
1.58086
1.53917
1.50801
1.48736
1.47687
1.47547
1.47902
1.47746
1.4575
1.40573
1.31236
1.17479
0.999754
0.802579
0.603862
0.424433
0.275443
0.154105
0.062581
0
-0.0415552
-0.0628012
-0.0697004
-0.0682531
-0.0641272
-0.193612
-0.0554943
0.814755
2.71328
5.58148
8.90939
11.8448
13.4868
13.2531
11.1453
7.7688
4.08051
0.989069
-0.980305
-1.7935
-1.77172
-1.32891
-0.830163
-0.39801
-0.0976038
0.0148792
0.0633272
0.100479
0.134646
0.16798
0.201385
0.235313
0.269914
0.305252
0.341505
0.379052
0.418377
0.459867
0.503557
0.548998
0.595283
0.641336
0.686212
0.729443
0.771284
0.812775
0.85561
0.901845
0.953521
1.0123
1.07917
1.15435
1.23729
1.32687
1.42166
1.5202
1.62123
1.72384
1.82749
1.93188
2.03682
2.14205
2.24703
2.35074
2.45135
2.54572
2.62868
2.69316
2.7319
2.73716
2.70185
2.62096
2.49285
2.31988
2.10819
1.86657
1.60562
1.33602
1.06473
0.795987
0.53327
0.279649
0.0380581
-0.188464
-0.396671
-0.583073
-0.743934
-0.876617
-0.979704
-1.05231
-1.09266
-1.10314
-1.09301
-1.07324
-1.05412
-1.04345
-1.0454
-1.06029
-1.08525
-1.1154
-1.14522
-1.17004
-1.18712
-1.1949
-1.1925
-1.17959
-1.15659
-1.12453
-1.08512
-1.04147
-0.998007
-0.959415
-0.929852
-0.912277
-0.907963
-0.916309
-0.934969
-0.960247
-0.987653
-1.01266
-1.03167
-1.04189
-1.04152
-1.03011
-1.00855
-0.978874
-0.943766
-0.905955
-0.867546
-0.829491
-0.791326
-0.751243
-0.706475
-0.653896
-0.590711
-0.515296
-0.427374
-0.327834
-0.218602
-0.102477
0.0171989
0.136855
0.252763
0.360711
0.456333
0.536154
0.597126
0.636721
0.653082
0.64522
0.613237
0.558602
0.484417
0.395753
0.297949
0.200556
0.114332
0.0487558
0.0100752
0
-0.013298
-0.00791283
0.00701828
0.021851
-0.035387
-0.0472122
0.520578
2.08515
4.7692
8.19973
11.5368
13.7706
14.1502
12.5207
9.38457
5.66278
2.29836
-0.0867264
-1.32677
-1.62393
-1.32827
-0.846424
-0.404999
-0.0753502
0.0762844
0.150375
0.200679
0.238689
0.268832
0.296031
0.325346
0.361509
0.408411
0.468604
0.542928
0.630373
0.728254
0.832693
0.939434
1.04467
1.1458
1.24195
1.33411
1.42495
1.51819
1.61792
1.7278
1.85033
1.98643
2.13525
2.29426
2.45958
2.62651
2.79009
2.94567
3.08929
3.21809
3.33134
3.43025
3.51793
3.59888
3.67829
3.76109
3.85272
3.95869
4.07525
4.18797
4.27915
4.33265
4.33672
4.28416
4.17121
3.99669
3.76255
3.47562
3.14937
2.7996
2.44438
2.09869
1.76871
1.4589
1.17589
0.923515
0.703969
0.517879
0.364468
0.241804
0.147144
0.0773277
0.0291473
-0.000354767
-0.0142326
-0.0147987
-0.00367966
0.0179024
0.0488815
0.0882751
0.135233
0.188949
0.24855
0.313084
0.381519
0.452739
0.525533
0.598571
0.670402
0.739498
0.804295
0.863515
0.916393
0.962882
1.00373
1.04037
1.07466
1.10846
1.14322
1.17968
1.21772
1.25641
1.29426
1.32935
1.35955
1.38255
1.39647
1.40018
1.39331
1.37632
1.35047
1.31753
1.27947
1.23794
1.19445
1.15019
1.10613
1.0633
1.02285
0.985995
0.953568
0.925655
0.901385
0.878969
0.856337
0.831979
0.80574
0.779258
0.755813
0.739629
0.738471
0.764815
0.81957
0.879744
0.914056
0.895158
0.810838
0.669582
0.497964
0.330859
0.198636
0.108987
0.0465767
0
-0.0288895
-0.0513924
-0.0710823
-0.0905708
-0.111245
-0.133241
-0.15571
-0.00936584
0.756902
2.40981
4.8224
7.43818
9.60192
10.942
11.4211
11.0657
9.7825
7.54395
4.71981
2.08562
0.380719
-0.180238
0.0436905
0.472821
0.854347
1.15766
1.33986
1.42078
1.47178
1.51062
1.54286
1.57186
1.59991
1.62767
1.65369
1.67473
1.68659
1.68512
1.66697
1.62993
1.57309
1.49681
1.4034
1.29668
1.18065
1.05957
0.93821
0.821478
0.714133
0.620566
0.544102
0.486984
0.450423
0.434741
0.43965
0.464539
0.508707
0.571512
0.651953
0.748871
0.861395
0.988792
1.13018
1.28441
1.45012
1.62584
1.81001
2.00128
2.19888
2.40302
2.61547
2.83866
3.06649
3.27453
3.4268
3.48915
3.44329
3.29404
3.06889
2.81339
2.58395
2.42199
2.31751
2.24797
2.20284
2.17829
2.16834
2.16718
2.17044
2.17609
2.18448
2.19759
2.21764
2.24579
2.2808
2.32008
2.36009
2.39719
2.42864
2.45335
2.47219
2.48764
2.50311
2.52196
2.54623
2.5769
2.61409
2.65515
2.69465
2.72689
2.7479
2.75695
2.7572
2.7548
2.75692
2.76924
2.79629
2.83413
2.87409
2.90664
2.92549
2.93017
2.92599
2.92175
2.92646
2.9458
2.97875
3.0234
3.07882
3.14393
3.21725
3.297
3.38124
3.46793
3.55509
3.64102
3.72454
3.80524
3.88358
3.96093
4.03944
4.12178
4.21093
4.30982
4.42116
4.5472
4.68973
4.85001
5.02864
5.22548
5.43944
5.66832
5.90864
6.15568
6.40352
6.64324
6.86481
7.05951
7.22106
7.3467
7.43768
7.49893
7.53824
7.56498
7.58884
7.61834
7.65941
7.71568
7.78944
7.88211
7.99422
8.1253
8.27391
8.43772
8.62375
9.04307
9.88013
10.9849
12.0733
12.835
13.1431
13.13
13.0606
13.0918
13.114
12.8171
11.9564
10.6129
9.20128
8.25847
8.23649
8.27843
8.32401
8.35893
8.37065
8.35138
8.29946
8.21883
8.11719
8.00424
7.88863
7.77522
7.66675
7.56503
7.47103
7.38512
7.30725
7.23727
7.17515
7.12157
7.07838
7.04811
7.03275
7.03432
7.05421
7.09257
7.1481
7.21805
7.29879
7.38646
7.4776
7.56979
7.66184
7.75329
7.84403
7.93399
8.02286
8.10974
8.19318
8.27176
8.34461
8.41222
8.477
8.54333
8.61727
8.71459
8.86731
9.08147
9.31503
9.51215
9.62793
9.64406
9.56987
9.43175
9.25895
9.07407
8.8925
8.72181
8.56482
8.42353
8.30058
8.19927
8.12242
8.07134
8.04514
8.04088
8.05441
8.08121
8.11733
8.15998
8.20786
8.26108
8.32075
8.38841
8.46538
8.55229
8.64891
8.75472
8.86903
8.99134
9.12144
9.25927
9.40453
9.55669
9.71376
9.86992
10.0172
10.1474
10.2536
10.3319
10.3813
10.4035
10.402
10.3808
10.3453
10.3005
10.2498
10.1962
10.1423
10.0902
10.0415
9.99693
9.95623
9.91808
9.88034
9.84046
9.79604
9.74538
9.68789
9.62429
9.55645
9.48703
9.41893
9.35473
9.29623
9.24428
9.19882
9.15915
9.12438
9.09394
9.06799
9.04761
9.03485
9.0325
9.04393
9.07278
9.12265
9.19678
9.29781
9.42727
9.58516
9.76943
9.97559
10.1969
10.4253
10.6511
10.8646
11.0579
11.2254
11.3649
11.4775
11.5666
11.6377
11.697
11.7508
11.804
11.8598
11.92
11.9848
12.0534
12.1245
12.197
12.2702
12.3436
12.4602
13.2206
14.855
17.1258
19.3905
21.017
21.7731
21.8209
21.3753
20.449
18.9718
17.1084
15.3521
14.2466
14.0215
14.5977
15.3357
16.0494
16.6317
16.9721
17.2139
17.3983
17.5347
17.6386
17.7286
17.8232
17.9367
18.0721
18.2273
18.3999
18.5873
18.7852
18.9888
19.1928
19.3919
19.5809
19.7549
19.909
20.0391
20.1427
20.2183
20.265
20.2834
20.2752
20.2436
20.1928
20.1279
20.0539
19.9753
19.8948
19.8136
19.7316
19.6477
19.5601
19.4666
19.3648
19.252
19.1251
18.9809
18.8157
18.6256
18.407
18.1569
17.8734
17.556
17.2058
16.8256
16.4193
15.9915
15.5473
15.0918
14.6298
14.1661
13.7051
13.2513
12.8087
12.3808
11.9707
11.5804
11.2113
10.8637
10.5377
10.2329
9.94871
9.68423
9.43788
9.20705
8.9877
8.77423
8.55986
8.33726
8.09937
7.84028
7.55583
7.24396
6.90468
6.53988
6.1525
5.7461
5.32425
4.89013
4.44611
3.99376
3.53393
3.06721
2.59445
2.11731
1.63858
1.16224
0.69313
0.236409
-0.203049
-0.621143
-1.01477
-1.38181
-1.72098
-2.03163
-2.31378
-2.56816
-2.79641
-3.0014
-3.187
-3.35641
-3.5112
-3.65281
-3.78069
-3.8898
-3.97074
-4.01366
-4.01184
-3.96388
-3.87404
-3.75118
-3.6067
-3.45194
-3.29576
-3.14203
-2.99134
-2.84323
-2.69737
-2.55396
-2.41396
-2.27908
-2.15139
-2.03277
-1.92421
-1.82536
-1.73429
-1.64768
-1.56147
-1.47156
-1.37482
-1.26958
-1.15567
-1.03393
-0.906771
-0.776959
-0.646867
-0.517977
-0.390814
-0.438402
0
1.24672
3.45495
6.35969
9.32629
11.5382
12.3066
11.3678
9.01157
5.96319
3.07612
0.996664
-0.0310343
-0.150961
0.274726
0.615531
0.91939
1.16062
1.32822
1.46116
1.57158
1.66428
1.74419
1.8158
1.88267
1.94733
2.01131
2.0754
2.13995
2.20526
2.27171
2.33989
2.41044
2.48382
2.56004
2.63843
2.71761
2.79565
2.87032
2.93946
3.00131
3.05467
3.09898
3.13422
3.16056
3.17823
3.18789
3.19052
3.18745
3.18055
3.17218
3.1651
3.16204
3.16526
3.17607
3.19429
3.21857
3.24669
3.27531
3.30007
3.31569
3.31639
3.29707
3.25332
3.18177
3.08063
2.95013
2.79271
2.61309
2.41778
2.21453
2.01121
1.81401
1.62784
1.45713
1.30502
1.17297
1.06133
0.969578
0.896643
0.841171
0.801739
0.776984
0.765644
0.766347
0.777484
0.797441
0.824555
0.857057
0.893141
0.93113
0.969622
1.00755
1.04413
1.07876
1.11085
1.13973
1.16464
1.18489
1.2
1.20987
1.21479
1.21534
1.21221
1.20588
1.19651
1.1838
1.16712
1.14565
1.11863
1.08556
1.0463
1.00114
0.950614
0.895452
0.83635
0.773841
0.708194
0.639383
0.567138
0.491055
0.410767
0.326136
0.237422
0.14539
0.051329
-0.0429077
-0.134999
-0.222446
-0.302811
-0.373911
-0.433918
-0.481372
-0.515084
-0.534007
-0.537117
-0.52347
-0.492469
-0.443753
-0.377269
-0.293586
-0.19425
-0.081807
0.0416054
0.170224
0.290094
0.384963
0.440865
0.449989
0.413312
0.340855
0.249265
0.157487
0.0821144
0.030518
0
-0.0129517
-0.0103622
0.00595589
0.0338558
0.0710712
0.115386
0.164696
0.217057
0.413729
1.00037
2.23748
4.27148
6.96465
9.82916
12.1238
13.1166
12.4082
10.1451
6.98978
3.84532
1.47817
0.241919
0.0309387
0.45079
0.891307
1.2733
1.55916
1.74225
1.89446
2.03439
2.16557
2.29069
2.4117
2.52964
2.64466
2.75612
2.86282
2.9638
3.05882
3.14881
3.23606
3.32395
3.41635
3.51672
3.62733
3.74865
3.8791
4.01607
4.15643
4.29725
4.43651
4.57335
4.70814
4.84205
4.97658
5.11304
5.25217
5.39398
5.53786
5.68275
5.82744
5.97077
6.11175
6.24954
6.38339
6.51215
6.6334
6.74238
6.83198
6.89572
6.92667
6.91898
6.86925
6.77725
6.64583
6.48017
6.28698
6.0744
5.85253
5.62913
5.40982
5.19919
5.00113
4.81868
4.65369
4.50679
4.3777
4.26534
4.1681
4.08421
4.01199
3.94999
3.89712
3.85266
3.81638
3.78846
3.76941
3.75994
3.7608
3.7725
3.79518
3.82855
3.87199
3.92472
3.98626
4.0566
4.13487
4.21441
4.28114
4.31757
4.30745
4.24188
4.12392
3.96912
3.80143
3.64578
3.51936
3.41906
3.33616
3.26506
3.20253
3.14509
3.08949
3.03308
2.97402
2.91137
2.84504
2.7758
2.70528
2.63593
2.57163
2.51705
2.47679
2.45455
2.45214
2.46874
2.50081
2.54262
2.58752
2.62943
2.66503
2.69291
2.71407
2.73144
2.74897
2.77067
2.79979
2.83807
2.88605
2.94402
3.01237
3.09182
3.18344
3.28851
3.40804
3.54224
3.68997
3.8484
4.0134
4.17841
4.33433
4.47225
4.58489
4.66771
4.71941
4.74187
4.73959
4.71886
4.68682
4.65064
4.61623
4.58774
4.5676
4.55651
4.55349
4.55672
4.56426
4.57418
4.58481
4.59042
4.95527
5.86798
7.19565
8.52404
9.41785
9.73228
9.67885
9.57314
9.4999
9.2265
8.45419
7.16373
5.72737
4.68409
4.38464
4.89355
5.39439
5.83437
6.15003
6.31122
6.41936
6.51164
6.59567
6.67852
6.76592
6.86164
6.96717
7.08205
7.20442
7.3316
7.46064
7.58885
7.71416
7.83546
7.9526
8.06636
8.17806
8.28914
8.40074
8.51321
8.62586
8.73701
8.84427
8.94498
9.03667
9.11756
9.18679
9.24446
9.29147
9.32928
9.35961
9.38421
9.40462
9.42217
9.4379
9.45257
9.46675
9.48081
9.49499
9.5094
9.52406
9.53885
9.55349
9.5675
9.58007
9.59004
9.59581
9.59534
9.58621
9.56591
9.53206
9.4829
9.4177
9.33712
9.24344
9.14043
9.03305
8.9271
8.82872
8.74379
8.67696
8.63124
8.6081
8.6076
8.62875
8.66979
8.72854
8.80262
8.88962
8.98707
9.09269
9.20459
9.32127
9.44154
9.56442
9.68909
9.81475
9.9405
10.0653
10.188
10.3072
10.4218
10.5305
10.6324
10.7271
10.8144
10.8946
10.9684
11.0368
11.1008
11.1615
11.2199
11.2769
11.3333
11.3895
11.4459
11.5027
11.5601
11.6182
11.6771
11.7368
11.7973
11.8586
11.9207
11.9836
12.0474
12.112
12.1775
12.2438
12.3109
12.3789
12.4478
12.5175
12.5881
12.6595
12.7318
12.805
12.8791
12.954
13.0298
13.1065
13.184
13.2625
13.3418
13.422
13.5031
13.5852
13.6681
13.7519
13.8366
13.9222
14.0088
14.0962
14.1846
14.2739
14.3641
14.4552
14.5472
14.6402
14.7341
14.829
14.9248
15.0215
15.1192
15.2178
15.3173
15.4178
15.5193
15.6217
15.7251
15.8295
15.9348
16.041
16.1483
16.2565
16.3657
16.4759
16.587
16.6992
16.8123
16.9264
17.0415
17.1576
17.2747
17.3928
17.5119
17.632
17.7532
17.8753
17.9984
18.1226
18.2478
18.374
18.5012
18.6295
18.7588
18.8891
19.0204
19.1528
19.2863
19.4208
19.5563
19.6929
19.8305
19.9692
20.1089
20.2498
20.3916
20.5346
20.6786
20.8237
20.9698
21.117
21.2654
21.4147
21.5652
21.7168
21.8695
22.0232
22.1781
22.334
22.4911
22.6492
22.8085
22.9689
23.1304
23.293
23.4567
23.6215
23.7875
23.9546
24.1228
24.2922
24.4627
24.6343
24.8071
104
267
433
610
795
970
1156
1346
1532
1712
1882
2046
2206
2364
2524
2687
3184
3349
3503
3653
3588
3139
3289
3448
3601
3738
2262
2318
2403
2590
2676
2721
2775
2961
2999
3108
3152
3208
3262
3345
3515
3538
3601
3665
3727
3652
3702
0
0
0
0
0
0
0
0
0
0
0
0
0
0
0
0
0
0
0
0
0
0
0
0
0
0
0
0
0
0
0
0
0
0
0
0
0
0
0
0
0
0
0
0
0
0
0
0
0
0
0
0
0
0
0
0
0
0
0
0
0
0
0
0
0
0
0
0
0
0
0
0
0
0
0
0
0
0
0
0
0
0
0
0
0
0
0
0
0
0
0
0
0
0
0
0
0
0
0
0
0
0
0
0
0
0
0
0
0
0
0
0
0
0
0
0
0
0
0
0
0
0
0
0
0
0
0
0
0
0
0
0
0
0
0
0
0
0
0
0
0
0
0
0
0
0
0
0
0
0
0
0
0
0
0
0
0
0
0
0
0
0
0
0
0
0
0
0
0
0
0
0
0
0
0
0
0
0
0
0
0
0
0
0
0
0
0
0
0
0
0
0
0
0
0
0
0
0
0
0
0
0
0
0
0
0
0
0
0
0
0
0
0
0
0
0
0
0
0
0
0
0
0
0
0
0
0
0
0
0
0
0
0
0
0
0
0
0
0
0
0
0
0
0
0
0
0
0
0
0
0
0
0
0
0
0
0
0
0
0
0
0
0
0
0
0
0
0
0
0
0
0
0
0
0
0
0
0
0
0
0
0
0
0
0
0
0
0
0
0
0
0
0
0
0
0
0
0
0
0
0
0
0
0
0
0
0
0
0
0
0
0
0
0
0
0
0
0
0
0
0
0
0
0
0
0
0
0
0
0
0
0
0
0
0
0
0
0
0
0
0
0
0
0
0
0
0
0
0
0
0
0
0
0
0
0
0
0
0
0
0
0
0
0
0
0
0
0
0
0
0
0
0
0
0
0
0
0
0
0
0
0
0
0
0
0
0
0
0
0
0
0
0
0
0
0
0
0
0
0
0
0
0
0
0
0
0
0
0
0
0
0
0
0
0
0
0
0
0
0
0
0
0
0
0
0
0
0
0
0
0
0
0
0
0
0
0
0
0
0
0
0
0
0
0
0
0
0
0
0
0
0
0
0
0
0
0
0
0
0
0
0
0
0
0
0
0
0
0
0
0
0
0
0
0
0
0
0
0
0
0
0
0
0
0
0
0
0
0
0
0
0
0
0
0
0
0
0
0
0
0
0
0
0
0
0
0
0
0
0
0
0
0
0
0
0
0
0
0
0
0
0
0
0
0
0
0
0
0
0
0
0
0
0
0
0
0
0
0
0
0
0
0
0
0
0
0
0
0
0
0
0
0
0
0
0
0
0
0
0
0
0
0
0
0
0
0
0
0
0
0
0
0
0
0
0
0
0
0
0
0
0
0
0
0
0
0
0
0
0
0
0
0
0
0
0
0
0
0
0
0
0
0
0
0
0
0
0
0
0
0
0
0
0
0
0
0
0
0
0
0
0
0
0
0
0
0
0
0
0
0
0
0
0
0
0
0
0
0
0
0
0
0
0
0
0
0
0
0
0
0
0
0
0
0
0
0
0
0
0
0
0
0
0
0
0
0
0
0
0
0
0
0
0
0
0
0
0
0
0
0
0
0
0
0
0
0
0
0
0
0
0
0
0
0
0
0
0
0
0
0
0
0
0
0
0
0
0
0
0
0
0
0
0
0
0
0
0
0
0
0
0
0
0
0
0
0
0
0
0
0
0
0
0
0
0
0
0
0
0
0
0
0
0
0
0
0
0
0
0
0
0
0
0
0
0
0
0
0
0
0
0
0
0
0
0
0
0
0
0
0
0
0
0
0
0
0
0
0
0
0
0
0
0
0
0
0
0
0
0
0
0
0
0
0
0
0
0
0
0
0
0
0
0
0
0
0
0
0
0
0
0
0
0
0
0
0
0
0
0
0
0
0
0
0
0
0
0
0
0
0
0
0
0
0
0
0
0
0
0
0
0
0
0
0
0
0
0
0
0
0
0
0
0
0
0
0
0
0
0
0
0
0
0
0
0
0
0
0
0
0
0
0
0
0
0
0
0
0
0
0
0
0
0
0
0
0
0
0
0
0
0
0
0
0
0
0
0
0
0
0
0
0
0
0
0
0
0
0
0
0
0
0
0
0
0
0
0
0
0
0
0
0
0
0
0
0
0
0
0
0
0
0
0
0
0
0
0
0
0
0
0
0
0
0
0
0
0
0
0
0
0
0
0
0
0
0
0
0
0
0
0
0
0
0
0
0
0
0
0
0
0
0
0
0
0
0
0
0
0
0
0
0
0
0
0
0
0
0
0
0
0
0
0
0
0
0
0
0
0
0
0
0
0
0
0
0
0
0
0
0
0
0
0
0
0
0
0
0
0
0
0
0
0
0
0
0
0
0
0
0
0
0
0
0
0
0
0
0
0
0
0
0
0
0
0
0
0
0
0
0
0
0
0
0
0
0
0
0
0
0
0
0
0
0
0
0
0
0
0
0
0
0
0
0
0
0
0
0
0
0
0
0
0
0
0
0
0
0
0
0
0
0
0
0
0
0
0
0
0
0
0
0
0
0
0
0
0
0
0
0
0
0
0
0
0
0
0
0
0
0
0
0
0
0
0
0
0
0
0
0
0
0
0
0
0
0
0
0
0
0
0
0
0
0
0
0
0
0
0
0
0
0
0
0
0
0
0
0
0
0
0
0
0
0
0
0
0
0
0
0
0
0
0
0
0
0
0
0
0
0
0
0
0
0
0
0
0
0
0
0
0
0
0
0
0
0
0
0
0
0
0
0
0
0
0
0
0
0
0
0
0
0
0
0
0
0
0
0
0
0
0
0
0
0
0
0
0
0
0
0
0
0
0
0
0
0
0
0
0
0
0
0
0
0
0
0
0
0
0
0
0
0
0
0
0
0
0
0
0
0
0
0
0
0
0
0
0
0
0
0
0
0
0
0
0
0
0
0
0
0
0
0
0
0
0
0
0
0
0
0
0
0
0
0
0
0
0
0
0
0
0
0
0
0
0
0
0
0
0
0
0
0
0
0
0
0
0
0
0
0
0
0
0
0
0
0
0
0
0
0
0
0
0
0
0
0
0
0
0
0
0
0
0
0
0
0
0
0
0
0
0
0
0
0
0
0
0
0
0
0
0
0
0
0
0
0
0
0
0
0
0
0
0
0
0
0
0
0
0
0
0
0
0
0
0
0
0
0
0
0
0
0
0
0
0
0
0
0
0
0
0
0
0
0
0
0
0
0
0
0
0
0
0
0
0
0
0
0
0
0
0
0
0
0
0
0
0
0
0
0
0
0
0
0
0
0
0
0
0
0
0
0
0
0
0
0
0
0
0
0
0
0
0
0
0
0
0
0
0
0
0
0
0
0
0
0
0
0
0
0
0
0
0
0
0
0
0
0
0
0
0
0
0
0
0
0
0
0
0
0
0
0
0
0
0
0
0
0
0
0
0
0
0
0
0
0
0
0
0
0
0
0
0
0
0
0
0
0
0
0
0
0
0
0
0
0
0
0
0
0
0
0
0
0
0
0
0
0
0
0
0
0
0
0
0
0
0
0
0
0
0
0
0
0
0
0
0
0
0
0
0
0
0
0
0
0
0
0
0
0
0
0
0
0
0
0
0
0
0
0
0
0
0
0
0
0
0
0
0
0
0
0
0
0
0
0
0
0
0
0
0
0
0
0
0
0
0
0
0
0
0
0
0
0
0
0
0
0
0
0
0
0
0
0
0
0
0
0
0
0
0
0
0
0
0
0
0
0
0
0
0
0
0
0
0
0
0
0
0
0
0
0
0
0
0
0
0
0
0
0
0
0
0
0
0
0
0
0
0
0
0
0
0
0
0
0
0
0
0
0
0
0
0
0
0
0
0
0
0
0
0
0
0
0
0
0
0
0
0
0
0
0
0
0
0
0
0
0
0
0
0
0
0
0
0
0
0
0
0
0
0
0
0
0
0
0
0
0
0
0
0
0
0
0
0
0
0
0
0
0
0
0
0
0
0
0
0
0
0
0
0
0
0
0
0
0
0
0
0
0
0
0
0
0
0
0
0
0
0
0
0
0
0
0
0
0
0
0
0
0
0
0
0
0
0
0
0
0
0
0
0
0
0
0
0
0
0
0
0
0
0
0
0
0
0
0
0
0
0
0
0
0
0
0
0
0
0
0
0
0
0
0
0
0
0
0
0
0
0
0
0
0
0
0
0
0
0
0
0
0
0
0
0
0
0
0
0
0
0
0
0
0
0
0
0
0
0
0
0
0
0
0
0
0
0
0
0
0
0
0
0
0
0
0
0
0
0
0
0
0
0
0
0
0
0
0
0
0
0
0
0
0
0
0
0
0
0
0
0
0
0
0
0
0
0
0
0
0
0
0
0
0
0
0
0
0
0
0
0
0
0
0
0
0
0
0
0
0
0
0
0
0
0
0
0
0
0
0
0
0
0
0
0
0
0
0
0
0
0
0
0
0
0
0
0
0
0
0
0
0
0
0
0
0
0
0
0
0
0
0
0
0
0
0
0
0
0
0
0
0
0
0
0
0
0
0
0
0
0
0
0
0
0
0
0
0
0
0
0
0
0
0
0
0
0
0
0
0
0
0
0
0
0
0
0
0
0
0
0
0
0
0
0
0
0
0
0
0
0
0
0
0
0
0
0
0
0
0
0
0
0
0
0
0
0
0
0
0
0
0
0
0
0
0
0
0
0
0
0
0
0
0
0
0
0
0
0
0
0
0
0
0
0
0
0
0
0
0
0
0
0
0
0
0
0
0
0
0
0
0
0
0
0
0
0
0
0
0
0
0
0
0
0
0
0
0
0
0
0
0
0
0
0
0
0
0
0
0
0
0
0
0
0
0
0
0
0
0
0
0
0
0
0
0
0
0
0
0
0
0
0
0
0
0
0
0
0
0
0
0
0
0
0
0
0
0
0
0
0
0
0
0
0
0
0
0
0
0
0
0
0
0
0
0
0
0
0
0
0
0
0
0
0
0
0
0
0
0
0
0
0
0
0
0
0
0
0
0
0
0
0
0
0
0
0
0
0
0
0
0
0
0
0
0
0
0
0
0
0
0
0
0
0
0
0
0
0
0
0
0
0
0
0
0
0
0
0
0
0
0
0
0
0
0
0
0
0
0
0
0
0
0
0
0
0
0
0
0
0
0
0
0
0
0
0
0
0
0
0
0
0
0
0
0
0
0
0
0
0
0
0
0
0
0
0
0
0
0
0
0
0
0
0
0
0
0
0
0
0
0
0
0
0
0
0
0
0
0
0
0
0
0
0
0
0
0
0
0
0
0
0
0
0
0
0
0
0
0
0
0
0
0
0
0
0
0
0
0
0
0
0
0
0
0
0
0
0
0
0
0
0
0
0
0
0
0
0
0
0
0
0
0
0
0
0
0
0
0
0
0
0
0
0
0
0
0
0
0
0
0
0
0
0
0
0
0
0
0
0
0
0
0
0
0
0
0
0
0
0
0
0
0
0
0
0
0
0
0
0
0
0
0
0
0
0
0
0
0
0
0
0
0
0
0
0
0
0
0
0
0
0
0
0
0
0
0
0
0
0
0
0
0
0
0
0
0
0
0
0
0
0
0
0
0
0
0
0
0
0
0
0
0
0
0
0
0
0
0
0
0
0
0
0
0
0
0
0
0
0
0
0
0
0
0
0
0
0
0
0
0
0
0
0
0
0
0
0
0
0
0
0
0
0
0
0
0
0
0
0
0
0
0
0
0
0
0
0
0
0
0
0
0
0
0
0
0
0
0
0
0
0
0
0
0
0
0
0
0
0
0
0
0
0
0
0
0
0
0
0
0
0
0
0
0
0
0
0
0
0
0
0
0
0
0
0
0
0
0
0
0
0
0
0
0
0
0
0
0
0
0
0
0
0
0
0
0
0
0
0
0
0
0
0
0
0
0
0
0
0
0
0
0
0
0
0
0
0
0
0
0
0
0
0
0
0
0
0
0
0
0
0
0
0
0
0
0
0
0
0
0
0
0
0
0
0
0
0
0
0
0
0
0
0
0
0
0
0
0
0
0
0
0
0
0
0
0
0
0
0
0
0
0
0
0
0
0
0
0
0
0
0
0
0
0
0
0
0
0
0
0
0
0
0
0
0
0
0
0
0
0
0
0
0
0
0
0
0
0
0
0
0
0
0
0
0
0
0
0
0
0
0
0
0
0
0
0
0
0
0
0
0
0
0
0
0
0
0
0
0
0
0
0
0
0
0
0
0
0
0
0
0
0
0
0
0
0
0
0
0
0
0
0
0
0
0
0
0
0
0
0
0
0
0
0
0
0
0
0
0
0
0
0
0
0
0
0
0
0
0
0
0
0
0
0
0
0
0
0
0
0
0
0
0
0
0
0
0
0
0
0
0
0
0
0
0
0
0
0
0
0
0
0
0
0
0
0
0
0
0
0
0
0
0
0
0
0
0
0
0
0
0
0
0
0
0
0
0
0
0
0
0
0
0
0
0
0
0
0
0
0
0
0
0
0
0
0
0
0
0
0
0
0
0
0
0
0
0
0
0
0
0
0
0
0
0
0
0
0
0
0
0
0
0
0
0
0
0
0
0
0
0
0
0
0
0
0
0
0
0
0
0
0
0
0
0
0
0
0
0
0
0
0
0
0
0
0
0
0
0
0
0
0
0
0
0
0
0
0
0
0
0
0
0
0
0
0
0
0
0
0
0
0
0
0
0
0
0
0
0
0
0
0
0
0
0
0
0
0
0
0
0
0
0
0
0
0
0
0
0
0
0
0
0
0
0
0
0
0
0
0
0
0
0
0
0
0
0
0
0
0
0
0
0
0
0
0
0
0
0
0
0
0
0
0
0
0
0
0
0
0
0
0
0
0
0
0
0
0
0
0
0
0
0
0
0
0
0
0
0
0
0
0
0
0
0
0
0
0
0
0
0
0
0
0
0
0
0
0
0
0
0
0
0
0
0
0
0
0
0
0
0
0
0
0
0
0
0
0
0
0
0
0
0
0
0
0
0
0
0
0
0
0
0
0
0
0
0
0
0
0
0
0
0
0
0
0
0
0
0
0
0
0
0
0
0
0
0
0
0
0
0
0
0
0
0
0
0
0
0
0
0
0
0
0
0
0
0
0
0
0
0
0
0
0
0
0
0
0
0
0
0
0
0
0
0
0
0
0
0
0
0
0
0
0
0
0
0
0
0
0
0
0
0
0
0
0
0
0
0
0
0
0
0
0
0
0
0
0
0
0
0
0
0
0
0
0
0
0
0
0
0
0
0
0
0
0
0
0
0
0
0
0
0
0
0
0
0
0
0
0
0
0
0
0
0
0
0
0
0
0
0
0
0
0
0
0
0
0
0
0
0
0
0
0
0
0
0
0
0
0
0
0
0
0
0
0
0
0
0
0
0
0
0
0
0
0
0
0
0
0
0
0
0
0
0
0
0
0
0
0
0
0
0
0
0
0
0
0
0
0
0
0
0
0
0
0
0
0
0
0
0
0
0
0
0
0
0
0
0
0
0
0
0
0
0
0
0
0
0
0
0
0
0
0
0
0
0
0
0
0
0
0
0
0
0
0
0
0
0
0
0
0
0
0
0
0
0
0
0
0
0
0
0
0
0
0
0
0
0
0
0
0
0
0
0
0
0
0
0
0
0
0
0
0
0
0
0
0
0
0
0
0
0
0
0
0
0
0
0
0
0
0
0
0
0
0
0
0
0
0
0
0
0
0
0
0
0
0
0
0
0
0
0
0
0
0
0
0
0
0
0
0
0
0
0
0
0
0
0
0
0
0
0
0
0
0
0
0
0
0
0
0
0
0
0
0
0
0
0
0
0
0
0
0
0
0
0
0
0
0
0
0
0
0
0
0
0
0
0
0
0
0
0
0
0
0
0
0
0
0
0
0
0
0
0
0
0
0
0
0
0
0
0
0
0
0
0
0
0
0
0
0
0
0
0
0
0
0
0
0
0
0
0
0
0
0
0
0
0
0
0
0
0
0
0
0
0
0
0
0
0
0
0
0
0
0
0
0
0
0
0
0
0
0
0
0
0
0
0
0
0
0
0
0
0
0
0
0
0
0
0
0
0
0
0
0
0
0
0
0
0
0
0
0
0
0
0
0
0
0
0
0
0
0
0
0
0
0
0
0
0
0
0
0
0
0
0
0
0
0
0
0
0
0
0
0
0
0
0
0
0
0
0
0
0
0
0
0
0
0
0
0
0
0
0
0
0
0
0
0
0
0
0
0
0
0
0
0
0
0
0
0
0
0
0
0
0
0
0
0
0
0
0
0
0
0
0
0
0
0
0
0
0
0
0
0
0
0
0
0
0
0
0
0
0
0
0
0
0
0
0
0
0
0
0
0
0
0
0
0
0
0
0
0
0
0
0
0
0
0
0
0
0
0
0
0
0
0
0
0
0
0
0
0
0
