-2.29857
-2.20355
-2.10809
-2.01515
-1.92573
-1.8389
-1.75223
-1.66269
-1.56766
-1.46597
-1.35749
-1.24626
-1.13956
-1.04585
-0.973049
-0.927226
-0.912084
-0.929115
-0.978137
-1.05792
-1.16568
-1.29775
-1.45121
-1.62392
-1.81378
-2.01811
-2.23394
-2.45869
-2.68926
-2.92169
-3.15127
-3.37276
-3.58087
-3.7707
-3.93828
-4.08096
-4.1976
-4.2887
-4.35618
-4.40299
-4.43289
-4.45113
-4.46422
-4.47765
-4.49491
-4.51686
-4.54155
-4.56476
-4.581
-4.58498
-4.57323
-4.54493
-4.50136
-4.44559
-4.38183
-4.31603
-4.2528
-4.19409
-4.13889
-4.08378
-4.02445
-3.9575
-3.88205
-3.80054
-3.71772
-3.63859
-3.5676
-3.50749
-3.45869
-3.41944
-3.38647
-3.35601
-3.32484
-3.2912
-3.25438
-3.21506
-3.17672
-3.14482
-3.12489
-3.12089
-3.1339
-3.16182
-3.2002
-3.24392
-3.28905
-3.33403
-3.37929
-3.42596
-3.47495
-3.52628
-3.57867
-3.62971
-3.67649
-3.7164
-3.74729
-3.76892
-3.78227
-3.78896
-3.79061
-3.78834
-3.78285
-3.7747
-3.76468
-3.75464
-3.74703
-3.74396
-3.74615
-3.75204
-3.7578
-3.75812
-3.74761
-3.72236
-3.68275
-3.63141
-3.57074
-3.50341
-3.43201
-3.35836
-3.28316
-3.2058
-3.12457
-3.03701
-2.94039
-2.83232
-2.71127
-2.57691
-2.43034
-2.27399
-2.11142
-1.94671
-1.78393
-1.62651
-1.47684
-1.33612
-1.20443
-1.08112
-0.965303
-0.856213
-0.753637
-0.657822
-0.569337
-0.488902
-0.417157
-0.354581
-0.30201
-0.261021
-0.23266
-0.217734
-0.216853
-0.229926
-0.255749
-0.291901
-0.335091
-0.38182
-0.42913
-0.475278
-0.519673
-0.562562
-0.604721
-0.647626
-0.543376
0
1.23614
3.32482
6.08245
8.92563
11.0124
11.5852
10.3459
7.63075
4.26803
1.19652
-0.928713
-1.9298
-2.03715
-1.62062
-1.16417
-0.734908
-0.391744
-0.203023
-0.103494
-0.0388336
-0.00627708
-0.000682068
-0.0109867
-0.0222492
-0.0191715
0.00994301
0.0666916
0.144202
0.235342
0.333998
0.434034
0.529742
0.616663
0.692157
0.755618
0.808405
0.853515
0.895046
0.937562
0.985415
1.0421
1.10975
1.18879
1.27794
1.37452
1.47499
1.57571
1.67366
1.76697
1.85512
1.93879
2.01937
2.0984
2.17704
2.2558
2.33459
2.41299
2.49072
2.56799
2.6457
2.72563
2.8113
2.90565
3.00065
3.07847
3.11722
3.09869
3.01432
2.86665
2.66701
2.43176
2.17949
1.92902
1.68977
1.46592
1.26047
1.0773
0.919353
0.785415
0.671821
0.574014
0.487812
0.410452
0.341087
0.280638
0.231076
0.194444
0.171384
0.161732
0.163876
0.175033
0.191801
0.210728
0.22929
0.246046
0.260814
0.274593
0.289236
0.306906
0.329451
0.357833
0.391637
0.429355
0.468291
0.504921
0.535678
0.557608
0.568886
0.569082
0.559146
0.541152
0.517864
0.492237
0.46692
0.443834
0.423979
0.407452
0.393601
0.381133
0.368299
0.353157
0.33403
0.30984
0.28036
0.246319
0.209301
0.171448
0.135019
0.101918
0.0732765
0.0491737
0.0289993
0.0114658
-0.0051384
-0.0226856
-0.0430019
-0.0677086
-0.098122
-0.135192
-0.179451
-0.230973
-0.289354
-0.353695
-0.42262
-0.494279
-0.566582
-0.637181
-0.703743
-0.764192
-0.81691
-0.860873
-0.895699
-0.921582
-0.939183
-0.949463
-0.953627
-0.952864
-0.948161
-0.940346
-0.930065
-0.91785
-0.90425
-0.889941
-0.876118
-0.864719
-0.857917
-0.857482
-0.863936
-0.875849
-0.889598
-0.89976
-0.900082
-0.884758
-0.850579
-0.798095
-0.729196
-0.646273
-0.552137
-0.45062
-0.348664
-0.256672
-0.184748
-0.141104
-0.130512
-0.153201
-0.204651
-0.276449
-0.357927
-0.438043
-0.508031
-0.564092
-0.604841
-0.628514
-0.634484
-0.623562
-0.597884
-0.560654
-0.515767
-0.455942
-0.41298
0
1.18833
3.40673
6.46057
9.6459
11.9577
12.5201
11.0153
7.86103
4.02539
0.584392
-1.72333
-2.71194
-2.66411
-2.05548
-1.33735
-0.720055
-0.293314
-0.156591
-0.126589
-0.113502
-0.108083
-0.107537
-0.108747
-0.108636
-0.104482
-0.0942512
-0.0766345
-0.0508856
-0.0168041
0.0252163
0.0741611
0.128383
0.185704
0.243521
0.299105
0.350212
0.395565
0.435192
0.470477
0.503917
0.538621
0.577699
0.623653
0.677728
0.740081
0.809918
0.885931
0.966498
1.04982
1.13517
1.22339
1.31695
1.41943
1.53465
1.66558
1.81336
1.97678
2.1549
2.34513
2.53848
2.71488
2.85501
2.93788
2.94352
2.86266
2.70524
2.49896
2.27717
2.06395
1.86422
1.67101
1.48049
1.29138
1.10343
0.917095
0.733508
0.554269
0.38126
0.216444
0.0616766
-0.0814354
-0.211658
-0.32822
-0.430883
-0.519965
-0.596325
-0.661274
-0.716383
-0.763464
-0.804496
-0.841242
-0.875051
-0.906743
-0.936611
-0.964562
-0.990364
-1.01392
-1.03548
-1.05574
-1.07583
-1.09706
-1.12061
-1.14732
-1.17756
-1.21124
-1.24798
-1.28732
-1.32889
-1.37256
-1.41856
-1.4674
-1.51975
-1.57621
-1.63706
-1.70201
-1.77001
-1.83727
-1.89666
-1.93932
-1.95632
-1.9407
-1.88905
-1.80231
-1.68556
-1.54701
-1.39653
-1.24443
-1.0974
-0.960723
-0.837843
-0.730123
-0.63692
-0.556023
-0.484403
-0.419126
-0.358149
-0.300788
-0.247616
-0.200127
-0.159972
-0.128265
-0.105122
-0.0895668
-0.0797895
-0.0736376
-0.0691502
-0.064949
-0.0604477
-0.0557064
-0.0512066
-0.0475367
-0.0450436
-0.0435871
-0.0424345
-0.0403311
-0.0357279
-0.0271219
-0.0134079
0.00587044
0.0304346
0.0594973
0.0921265
0.127687
0.166226
0.20865
0.256605
0.312148
0.378725
0.460674
0.559439
0.667527
0.76919
0.847162
0.887004
0.880237
0.825911
0.730766
0.608088
0.475315
0.350571
0.246021
0.164024
0.101643
0.0556995
0.0247564
0.00696583
0
0.00889854
0.023687
0.042193
0.0639927
0.0599228
0.309363
1.15645
2.85523
5.33943
8.10232
10.3114
11.14
10.1584
7.56298
4.10525
0.755069
-1.71015
-2.97005
-3.16847
-2.66504
-2.05251
-1.47764
-1.07268
-0.956623
-0.942032
-0.948345
-0.966802
-0.992487
-1.02022
-1.04522
-1.06398
-1.0747
-1.07626
-1.06765
-1.0483
-1.01829
-0.978157
-0.9291
-0.873767
-0.816823
-0.763778
-0.719411
-0.686638
-0.665784
-0.654545
-0.648655
-0.643036
-0.633035
-0.615616
-0.590195
-0.557191
-0.516933
-0.469928
-0.41684
-0.358442
-0.295615
-0.229372
-0.160795
-0.0908686
-0.0203251
0.0505369
0.121893
0.194259
0.268267
0.344308
0.421185
0.494319
0.556153
0.597395
0.608738
0.582508
0.51371
0.400422
0.243769
0.0478508
-0.177411
-0.420275
-0.670958
-0.921641
-1.1657
-1.39751
-1.61289
-1.80941
-1.98621
-2.14364
-2.28262
-2.40343
-2.50648
-2.59192
-2.65943
-2.70852
-2.73881
-2.75027
-2.74325
-2.71851
-2.67714
-2.62081
-2.55137
-2.47099
-2.38237
-2.28877
-2.19389
-2.10192
-2.01698
-1.94244
-1.88051
-1.83185
-1.7955
-1.76913
-1.74945
-1.73285
-1.71606
-1.69673
-1.67368
-1.64654
-1.61565
-1.58202
-1.54688
-1.51134
-1.4762
-1.44193
-1.4087
-1.37665
-1.34598
-1.31702
-1.2901
-1.26533
-1.24229
-1.21991
-1.19646
-1.16991
-1.13833
-1.10051
-1.05641
-1.00696
-0.953793
-0.899065
-0.84514
-0.79419
-0.747918
-0.707398
-0.673099
-0.64483
-0.621668
-0.602055
-0.583819
-0.564279
-0.540499
-0.509746
-0.470045
-0.420717
-0.361492
-0.29463
-0.225271
-0.158709
-0.0986605
-0.0459533
0.0018311
0.0495646
0.103501
0.173703
0.259689
0.347389
0.416718
0.450414
0.441071
0.393065
0.319422
0.236512
0.159741
0.0968909
0.0487518
0.015903
-0.000250816
0
0.00435123
0.0194623
0.0407265
0.0632626
0.0687126
0.101332
0.650586
2.03191
4.3039
7.13846
9.85143
11.623
11.8253
10.3022
7.4554
4.08334
1.0567
-1.00524
-1.90661
-1.84459
-1.21845
-0.565422
-0.0715918
0.140233
0.135714
0.117426
0.0993329
0.0845521
0.0753729
0.0730687
0.0778569
0.089845
0.109047
0.135356
0.168521
0.208014
0.252882
0.301714
0.352684
0.403487
0.451978
0.496735
0.537452
0.575037
0.611363
0.648735
0.689243
0.734255
0.784127
0.838646
0.89742
0.960425
1.02839
1.10282
1.18565
1.27864
1.38275
1.49769
1.62168
1.75247
1.88763
2.02478
2.16177
2.29616
2.42397
2.53921
2.63474
2.70196
2.73271
2.72136
2.66616
2.56958
2.43764
2.2787
2.10254
1.9184
1.73203
1.54626
1.36214
1.17991
0.999792
0.822612
0.651029
0.491287
0.351925
0.242763
0.17193
0.142994
0.153245
0.193721
0.251042
0.310463
0.359229
0.392052
0.409977
0.415301
0.409474
0.394045
0.370882
0.341932
0.309037
0.273866
0.237968
0.202822
0.169827
0.140219
0.114935
0.0944773
0.0786882
0.0664108
0.0552864
0.0421488
0.0237545
-0.00251827
-0.0380617
-0.0826855
-0.134646
-0.191067
-0.248671
-0.304638
-0.357489
-0.407296
-0.455231
-0.503564
-0.554892
-0.611329
-0.673776
-0.741568
-0.812379
-0.882101
-0.94595
-0.999393
-1.03893
-1.06254
-1.0698
-1.06168
-1.04023
-1.0086
-0.969988
-0.928259
-0.889262
-0.859362
-0.844167
-0.847236
-0.868866
-0.905397
-0.949324
-0.990288
-1.01676
-1.01881
-0.992529
-0.938436
-0.858539
-0.755672
-0.633987
-0.498151
-0.356907
-0.221458
-0.102172
-0.00708923
0.0590797
0.0953625
0.104369
0.0916943
0.0650349
0.0331581
0.00467796
-0.013282
-0.015604
0
0.0261524
0.0678783
0.123068
0.189221
0.263659
0.343917
0.427906
0.513978
0.818987
1.5618
3.01131
5.30659
8.26018
11.2885
13.5592
14.3282
13.2948
10.7704
7.55519
4.5874
2.56009
1.70248
1.80763
2.42482
2.83836
3.21566
3.53388
3.79436
4.01912
4.21091
4.37484
4.5176
4.6464
4.76797
4.88772
5.00907
5.13314
5.25893
5.38329
5.50121
5.60773
5.69921
5.77434
5.83443
5.88293
5.92443
5.96344
6.00353
6.04668
6.09371
6.14519
6.20162
6.26355
6.3316
6.40713
6.48934
6.57167
6.64346
6.6936
6.71439
6.70484
6.67194
6.62966
6.59592
6.58836
6.61683
6.67975
6.78363
6.94414
7.15524
7.37416
7.55546
7.6654
7.68551
7.61264
7.45617
7.23306
6.96282
6.66539
6.36321
6.06949
5.78826
5.52041
5.2668
5.0288
4.8068
4.60041
4.40875
4.23093
4.06639
3.91515
3.77781
3.65533
3.54872
3.45873
3.3858
3.32917
3.28602
3.25206
3.2224
3.19232
3.15785
3.11616
3.06576
3.00632
2.93841
2.86327
2.7824
2.69715
2.6086
2.51759
2.42469
2.33027
2.23457
2.13786
2.04059
1.94359
1.84831
1.75676
1.67134
1.5946
1.52917
1.47734
1.43904
1.41131
1.38974
1.3696
1.34692
1.31935
1.28643
1.24937
1.21036
1.17189
1.13597
1.10399
1.0769
1.05565
1.0409
1.03298
1.03173
1.03649
1.04585
1.05751
1.0688
1.07712
1.08045
1.07763
1.06844
1.05342
1.03354
1.01004
0.984128
0.956907
0.929601
0.903771
0.881495
0.865488
0.860615
0.881496
0.97426
1.20027
1.49995
1.78051
1.95509
1.97403
1.838
1.58724
1.27797
0.966718
0.713888
0.533017
0.398038
0.290881
0.20377
0.134846
0.0805916
0.0369446
0
-0.016732
-0.0319572
-0.179739
-0.0561436
0.691746
2.33293
4.84759
7.80384
10.4248
11.8626
11.5602
9.51591
6.30215
2.81982
-0.0788593
-1.90183
-2.61665
-2.52432
-2.04095
-1.58123
-1.19481
-0.936121
-0.814355
-0.738018
-0.680722
-0.638289
-0.605338
-0.575802
-0.543744
-0.50443
-0.455445
-0.396748
-0.329647
-0.257339
-0.183974
-0.113443
-0.0483562
0.0105995
0.0647449
0.116924
0.170598
0.228793
0.292861
0.363465
0.438771
0.514182
0.584338
0.644894
0.694021
0.733226
0.767239
0.802923
0.847474
0.906408
0.980624
1.06715
1.1619
1.25979
1.35505
1.44217
1.51666
1.57525
1.61577
1.63665
1.63628
1.6126
1.56393
1.48861
1.38464
1.25109
1.08881
0.900747
0.691991
0.469409
0.240969
0.01474
-0.201705
-0.401949
-0.581205
-0.736561
-0.86697
-0.97299
-1.05656
-1.12043
-1.16731
-1.19922
-1.2179
-1.22459
-1.21947
-1.20182
-1.17029
-1.12319
-1.05882
-0.975765
-0.873256
-0.751944
-0.614093
-0.462679
-0.301845
-0.136518
0.0276985
0.185413
0.331933
0.462773
0.572376
0.656479
0.713647
0.74358
0.747624
0.729372
0.694838
0.651847
0.608636
0.572055
0.545027
0.526789
0.515766
0.508868
0.502292
0.492331
0.475982
0.451259
0.417229
0.373847
0.321867
0.262356
0.196437
0.125209
0.0498354
-0.0284075
-0.108147
-0.187985
-0.266618
-0.342983
-0.416397
-0.486618
-0.553822
-0.618468
-0.681072
-0.741948
-0.800977
-0.857454
-0.910055
-0.956889
-0.995692
-1.02415
-1.04039
-1.04316
-1.03188
-1.00672
-0.968374
-0.917878
-0.856348
-0.784782
-0.704003
-0.61493
-0.517922
-0.413531
-0.303851
-0.1936
-0.0899871
-0.00110512
0.0655286
0.104507
0.113826
0.0956439
0.056276
0.00530968
-0.0460979
-0.0876516
-0.113581
-0.123515
-0.119113
-0.10118
-0.0723609
-0.037137
0
0.0462565
0.0882503
0.124745
-0.0266997
-0.0356455
0.564601
2.14742
4.77627
8.02852
11.0461
12.8452
12.7478
10.7089
7.35032
3.68331
0.671881
-1.12842
-1.68884
-1.37144
-0.674834
-0.0190854
0.495028
0.767414
0.880338
0.951748
0.98441
0.988425
0.980059
0.977826
0.997161
1.04289
1.10849
1.18641
1.27196
1.36165
1.45295
1.54482
1.6377
1.73312
1.83292
1.93852
2.05004
2.16645
2.28531
2.40274
2.51475
2.61844
2.71295
2.79982
2.88283
2.96712
3.05804
3.15987
3.27423
3.40015
3.53525
3.67642
3.82014
3.96318
4.10314
4.2387
4.36967
4.49663
4.62056
4.74233
4.86202
4.97797
5.08497
5.17523
5.23897
5.26651
5.25073
5.18904
5.08441
4.94492
4.78228
4.60982
4.43976
4.27845
4.13026
3.99931
3.8885
3.7998
3.73427
3.69163
3.67092
3.67085
3.69008
3.72733
3.78152
3.85175
3.93719
4.03699
4.14981
4.27404
4.40785
4.54897
4.69477
4.84243
4.98926
5.13303
5.27253
5.40791
5.54067
5.67339
5.80904
5.95009
6.09908
6.25628
6.41406
6.55956
6.67944
6.76409
6.81052
6.82312
6.81221
6.79121
6.77343
6.76776
6.77672
6.79983
6.8358
6.88291
6.93905
7.00186
7.06897
7.13842
7.20879
7.27946
7.35074
7.42373
7.50001
7.58113
7.66803
7.76141
7.86004
7.9579
8.04716
8.12095
8.17575
8.21282
8.23783
8.25884
8.28338
8.31585
8.35654
8.40022
8.43837
8.46159
8.46173
8.43313
8.37294
8.28102
8.15956
8.01423
7.85168
7.67714
7.4942
7.3047
7.10868
6.90423
6.68769
6.45448
6.19969
5.91895
5.60916
5.26916
4.90012
4.50567
4.09164
3.66559
3.23617
2.81235
2.40279
2.0152
1.6559
1.32985
1.03941
0.784467
0.562267
0.367472
0.19244
0.0342373
-0.0732941
0
0.61588
2.14803
4.5987
7.50588
10.0387
11.309
10.7578
8.4242
4.95296
1.3283
-1.53791
-3.15379
-3.56223
-3.19046
-2.57443
-2.07046
-1.79373
-1.67761
-1.55006
-1.37923
-1.19013
-0.987404
-0.772606
-0.547864
-0.31641
-0.0828943
0.146688
0.365585
0.566545
0.743105
0.891289
1.0099
1.10079
1.16869
1.22044
1.26399
1.30718
1.35677
1.41736
1.49154
1.58047
1.68423
1.80229
1.93397
2.07875
2.23629
2.40635
2.58862
2.78257
2.98747
3.20252
3.42708
3.66074
3.90339
4.1551
4.41583
4.68519
4.9622
5.24512
5.53142
5.81771
6.09982
6.37281
6.63113
6.86895
7.08059
7.26078
7.40591
7.51431
7.58653
7.62539
7.63561
7.62335
7.59552
7.55914
7.52074
7.48594
7.45911
7.4433
7.44025
7.45044
7.47333
7.50773
7.55222
7.60561
7.66756
7.73877
7.81802
7.89312
7.93991
7.9275
7.83172
7.65003
7.40804
7.1522
6.93192
6.78165
6.82106
7.08096
7.40138
7.64463
7.714
7.5715
7.24252
6.80312
6.36006
6.04216
5.93794
5.94
5.97439
6.0189
6.06499
6.10644
6.13809
6.15585
6.15573
6.13509
6.09377
6.03266
5.95373
5.86016
5.75636
5.64771
5.53988
5.43791
5.34497
5.26197
5.18827
5.12083
5.05426
4.98169
4.89655
4.7939
4.67139
4.52984
4.37299
4.20672
4.0376
3.87149
3.71183
3.55945
3.41469
3.27747
3.1477
3.02598
2.91353
2.81186
2.72248
2.64633
2.5832
2.53146
2.48814
2.44922
2.41018
2.36654
2.31436
2.2502
2.17147
2.07655
1.96497
1.83772
1.69684
1.54536
1.38692
1.22513
1.06306
0.902745
0.745374
0.591251
0.439766
0.290229
0.143132
0
-0.107653
0.112796
0.828117
2.27899
4.52208
7.25964
9.83062
11.4221
11.4265
9.74625
6.8607
3.60326
0.782082
-1.13199
-2.08993
-2.32952
-2.15593
-1.99214
-1.84782
-1.72992
-1.64162
-1.57699
-1.53121
-1.4989
-1.47379
-1.44988
-1.42249
-1.3892
-1.34924
-1.30279
-1.25144
-1.19724
-1.142
-1.08687
-1.03219
-0.97769
-0.922893
-0.867317
-0.810666
-0.752576
-0.692135
-0.627612
-0.556725
-0.477493
-0.389299
-0.293637
-0.194186
-0.0954018
-0.0014061
0.0853371
0.164711
0.238728
0.310513
0.382878
0.457185
0.531793
0.601935
0.66116
0.703176
0.723418
0.719836
0.692667
0.643377
0.573136
0.481903
0.369092
0.234129
0.0764763
-0.104877
-0.3106
-0.539246
-0.786855
-1.04706
-1.31159
-1.5712
-1.81667
-2.03995
-2.23501
-2.39835
-2.52903
-2.62874
-2.70098
-2.75013
-2.77953
-2.79144
-2.78741
-2.7673
-2.72924
-2.67021
-2.58681
-2.47596
-2.33556
-2.16504
-1.96566
-1.74169
-1.49889
-1.24297
-0.979328
-0.712609
-0.446239
-0.182134
0.0792259
0.338329
0.595949
0.852457
1.10739
1.3594
1.60657
1.84703
2.07952
2.30382
2.52077
2.732
2.93922
3.14343
3.34369
3.53539
3.71111
3.86187
3.98014
4.06249
4.11094
4.13236
4.13635
4.1323
4.12678
4.1217
4.1158
4.10654
4.09041
4.06354
4.02238
3.96431
3.8881
3.7942
3.68459
3.56245
3.43144
3.29492
3.15511
3.01269
2.86672
2.7151
2.55552
2.38645
2.20809
2.02286
1.83526
1.65131
1.47737
1.31927
1.18145
1.06649
0.974958
0.90568
0.856413
0.824331
0.806784
0.802176
0.809951
0.830374
0.864665
0.914507
0.981944
1.07367
1.20011
1.36355
1.54183
1.70319
1.81817
1.8666
1.84136
1.7489
1.60759
1.44518
1.2944
1.17755
1.09494
1.04643
1.0239
1.00555
0.964838
0.879158
0.73768
0.545535
0.322628
0
0.0646904
0.774807
2.2946
4.58295
7.26684
9.65105
10.9239
10.4953
8.28787
4.80347
0.914653
-2.51166
-4.94749
-6.32525
-6.64601
-6.96753
-7.29324
-7.62701
-7.97244
-8.33204
-8.70649
-9.09426
-9.49162
-9.89305
-10.292
-10.6816
-11.0558
-11.4098
-11.7404
-12.0463
-12.3278
-12.5862
-12.8238
-13.043
-13.246
-13.4341
-13.6082
-13.7674
-13.9102
-14.0352
-14.1414
-14.2273
-14.292
-14.3343
-14.3523
-14.3436
-14.3044
-14.2316
-14.1229
-13.9751
-13.7862
-13.5567
-13.2894
-12.9891
-12.6632
-12.3199
-11.968
-11.6163
-11.2727
-10.9438
-10.6343
-10.3477
-10.0857
-9.84888
-9.63712
-9.4495
-9.28457
-9.1403
-9.01404
-8.90259
-8.80234
-8.70961
-8.62099
-8.53365
-8.4455
-8.35515
-8.26175
-8.16469
-8.06339
-7.95725
-7.84574
-7.72864
-7.60641
-7.48032
-7.35254
-7.22587
-7.10333
-6.98757
-6.88038
-6.78234
-6.69263
-6.60925
-6.5293
-6.44954
-6.36696
-6.27926
-6.18528
-6.08504
-5.97972
-5.87125
-5.76193
-5.65394
-5.54906
-5.44847
-5.35274
-5.26196
-5.17583
-5.09377
-5.01493
-4.93824
-4.86237
-4.78582
-4.707
-4.62441
-4.53689
-4.44384
-4.34557
-4.24344
-4.13997
-4.03962
-3.94806
-3.87091
-3.81246
-3.77462
-3.75654
-3.75489
-3.7649
-3.78157
-3.8008
-3.82005
-3.83865
-3.85716
-3.87761
-3.90331
-3.93762
-3.98326
-4.04135
-4.11098
-4.18935
-4.27261
-4.3571
-4.44044
-4.52195
-4.602
-4.68104
-4.75846
-4.83195
-4.89755
-4.95028
-4.98502
-4.99979
-4.9923
-4.95974
-4.89968
-4.81133
-4.69436
-4.54809
-4.37284
-4.17026
-3.94317
-3.6956
-3.43249
-3.15935
-2.88193
-2.60589
-2.33663
-2.07919
-1.83853
-1.6203
-1.42744
-1.26123
-1.1209
-1.0035
-0.904185
-0.816985
-0.735821
-0.65564
-0.573354
-0.488313
-0.401764
-0.3164
-0.23573
-0.162866
-0.0996582
-0.0460709
0
0.0799347
0.133711
0.779286
2.29056
4.54883
7.03046
9.10845
10.4025
10.853
10.5128
9.3683
7.44215
5.04479
2.80999
1.37475
0.977118
1.359
1.81703
2.21382
2.5016
2.661
2.76309
2.84159
2.90499
2.96212
3.02118
3.08883
3.16875
3.26196
3.37117
3.49885
3.6395
3.77886
3.90198
3.99811
4.065
4.11016
4.1481
4.19438
4.25911
4.34057
4.43084
4.52336
4.61154
4.69081
4.75981
4.82045
4.8771
4.93505
4.9988
5.07056
5.15039
5.23697
5.32841
5.4226
5.51715
5.6096
5.6974
5.77791
5.84833
5.9056
5.94643
5.96728
5.9645
5.93443
5.87352
5.77864
5.64735
5.47789
5.26944
5.02259
4.73969
4.42489
4.08411
3.7246
3.35423
2.98081
2.61125
2.25117
1.90467
1.57457
1.26287
0.971214
0.701159
0.454224
0.231671
0.0343987
-0.138272
-0.288201
-0.418138
-0.531171
-0.630126
-0.717117
-0.793395
-0.859469
-0.915504
-0.961383
-0.996944
-1.02204
-1.03652
-1.0403
-1.03345
-1.01587
-0.988518
-0.954577
-0.918177
-0.883726
-0.855092
-0.834992
-0.824834
-0.82505
-0.835738
-0.857008
-0.888744
-0.932133
-0.989162
-1.06205
-1.15303
-1.2641
-1.39679
-1.55182
-1.72875
-1.92552
-2.13813
-2.36065
-2.58556
-2.80446
-3.0086
-3.19058
-3.34488
-3.46823
-3.55953
-3.61944
-3.63867
-3.60294
-3.53294
-3.45781
-3.40982
-3.41488
-3.52599
-3.69778
-3.84266
-3.87182
-3.73399
-3.43439
-3.02846
-2.59645
-2.21144
-1.89635
-1.6186
-1.37674
-1.17458
-1.012
-0.888916
-0.805088
-0.759394
-0.749
-0.768808
-0.811478
-0.868059
-0.928882
-0.986187
-1.03493
-1.07111
-1.09149
-1.09292
-1.07197
-1.02657
-0.955213
-0.856833
-0.731179
-0.57936
-0.404236
-0.21051
-0.00445719
0.206741
0.414992
0.610292
0.782546
0.924146
1.02919
1.09353
1.11495
1.09346
1.03169
0.935016
0.811501
0.666574
0.514954
0.372427
0.250083
0.151561
0.0868006
0.0397667
-0.0308245
-0.131945
-0.293494
0
1.14828
3.36221
6.40233
9.59511
12.0498
13.0128
12.1861
9.85176
6.74298
3.73278
1.4986
0.317753
0.0680141
0.397961
0.864948
1.31653
1.74144
2.13408
2.5088
2.87318
3.22858
3.57612
3.91719
4.25343
4.58673
4.91921
5.25292
5.58956
5.93
6.27393
6.61958
6.96369
7.30173
7.62841
7.93821
8.22606
8.48782
8.72064
8.92304
9.09493
9.23733
9.35212
9.44165
9.50838
9.5545
9.58211
9.59307
9.5888
9.57036
9.53844
9.49357
9.43612
9.36653
9.28532
9.19325
9.09121
8.97992
8.85965
8.72992
8.58911
8.4344
8.26188
8.06688
7.84475
7.59169
7.30565
6.98707
6.63933
6.26906
5.88491
5.49694
5.11549
4.74987
4.40739
4.0925
3.80622
3.54765
3.31872
3.12129
2.95232
2.81045
2.69677
2.61277
2.55811
2.52951
2.52092
2.52483
2.53381
2.54196
2.54636
2.54572
2.53945
2.52763
2.51085
2.49007
2.46646
2.44118
2.41515
2.38893
2.36263
2.33584
2.30802
2.27897
2.24941
2.22124
2.19728
2.1806
2.17343
2.17625
2.18712
2.20177
2.21562
2.22406
2.22352
2.21227
2.19079
2.16162
2.12882
2.09706
2.07057
2.05241
2.04399
2.04469
2.05304
2.06562
2.07849
2.08856
2.09444
2.09673
2.09763
2.10005
2.10651
2.11819
2.13416
2.1522
2.16941
2.18234
2.18739
2.18189
2.16435
2.13451
2.09324
2.04234
1.98423
1.92166
1.85748
1.79456
1.73568
1.68355
1.64125
1.61198
1.59882
1.60437
1.63038
1.67798
1.75243
1.86677
2.03666
2.24305
2.43835
2.56929
2.59077
2.4855
2.27402
2.00573
1.73564
1.50158
1.30214
1.11935
0.944924
0.778366
0.619873
0.470816
0.3331
0.20848
0.0977119
0
0.0735096
0.536351
1.59591
3.45785
6.09918
9.13373
11.843
13.4099
13.2686
11.3852
8.2996
4.89286
2.00772
0.13405
-0.686078
-0.729173
-0.345565
0.133447
0.605936
1.00856
1.25593
1.36087
1.42172
1.46435
1.49527
1.51489
1.52346
1.52125
1.50854
1.48583
1.45386
1.41372
1.3667
1.31418
1.25749
1.19789
1.13632
1.07353
1.01026
0.94734
0.885758
0.826606
0.771004
0.719976
0.674294
0.634345
0.600003
0.570542
0.544586
0.520144
0.494658
0.465185
0.429187
0.385183
0.333463
0.276544
0.219189
0.167818
0.132286
0.131364
0.179309
0.2629
0.356436
0.43166
0.467135
0.452524
0.386917
0.273732
0.116035
-0.0824089
-0.311114
-0.560885
-0.825133
-1.09852
-1.37609
-1.65309
-1.92473
-2.18637
-2.43264
-2.65551
-2.8447
-2.99305
-3.09654
-3.15299
-3.16294
-3.13005
-3.06095
-2.96423
-2.849
-2.72349
-2.59438
-2.46524
-2.33739
-2.21107
-2.08566
-1.95991
-1.83241
-1.70206
-1.56839
-1.4325
-1.2991
-1.1747
-1.06554
-0.975441
-0.904433
-0.848723
-0.801997
-0.75744
-0.709648
-0.656907
-0.599532
-0.538337
-0.474773
-0.410719
-0.34803
-0.28822
-0.232253
-0.180489
-0.132762
-0.0885967
-0.0475214
-0.00938625
0.0253983
0.0557379
0.0800942
0.0967999
0.104537
0.102797
0.0921879
0.0745096
0.0525541
0.0297001
0.00932016
-0.00579615
-0.0135835
-0.0129567
-0.00390596
0.0125249
0.0344865
0.0595862
0.0851654
0.10856
0.127347
0.139572
0.143987
0.14026
0.129113
0.112191
0.0918591
0.0707427
0.0512266
0.035016
0.022005
0.010393
-0.00260057
-0.0196454
-0.0421489
-0.06942
-0.0984108
-0.124085
-0.140266
-0.135277
-0.0680573
0.155781
0.531591
0.940835
1.2713
1.43884
1.41071
1.21593
0.933626
0.661725
0.477857
0.372556
0.293288
0.221752
0.153202
0.0861356
0.0194201
-0.0476572
-0.115217
-0.183028
-0.235648
0
0.930409
2.84346
5.72557
9.08928
12.0618
13.7055
13.43
11.2757
7.90739
4.31655
1.39855
-0.368838
-0.999456
-0.841331
-0.392481
0.0162991
0.349848
0.58719
0.74774
0.882631
1.00716
1.12744
1.24874
1.37494
1.50815
1.6488
1.79643
1.95003
2.10832
2.26991
2.43338
2.59724
2.75986
2.91956
3.07474
3.2242
3.36735
3.50436
3.63608
3.76389
3.88937
4.01412
4.13949
4.26654
4.39602
4.52839
4.66372
4.80166
4.94133
5.0813
5.21954
5.35362
5.48083
5.59843
5.70355
5.79313
5.86458
5.91547
5.9435
5.94648
5.92244
5.86964
5.78661
5.67217
5.52545
5.34735
5.13928
4.90242
4.63898
4.35231
4.04668
3.72693
3.39795
3.06418
2.72928
2.39605
2.06665
1.74295
1.42697
1.12117
0.828422
0.55188
0.29459
0.0591003
-0.152874
-0.340636
-0.504561
-0.645998
-0.767092
-0.870533
-0.959245
-1.03603
-1.10328
-1.16269
-1.21526
-1.26136
-1.30099
-1.33403
-1.36071
-1.38166
-1.39778
-1.40996
-1.41879
-1.42434
-1.42622
-1.42376
-1.41634
-1.40362
-1.38593
-1.36424
-1.33986
-1.31405
-1.28772
-1.26113
-1.23392
-1.20522
-1.17383
-1.13857
-1.09836
-1.05213
-0.998821
-0.937484
-0.867361
-0.788045
-0.699692
-0.603184
-0.500127
-0.392693
-0.283389
-0.174616
-0.0683517
0.0340263
0.131702
0.224234
0.311276
0.392476
0.467414
0.535724
0.597316
0.652641
0.702871
0.749991
0.796719
0.846345
0.902348
0.96814
1.04767
1.14985
1.29237
1.48339
1.69026
1.86941
1.9811
2.00403
1.94382
1.83185
1.71505
1.64048
1.63709
1.68433
1.77849
1.92074
2.08599
2.23702
2.34004
2.37015
2.31573
2.18181
1.99089
1.77897
1.58493
1.42896
1.30019
1.18343
1.06982
0.952443
0.817742
0.638179
0.414153
0.16171
-0.137267
0
0.918601
2.88943
5.84215
9.27512
12.341
14.1308
14.0431
12.0525
8.72922
4.99729
1.7587
-0.425605
-1.45834
-1.61401
-1.33512
-1.08115
-0.874791
-0.731643
-0.656776
-0.613557
-0.585497
-0.567027
-0.555088
-0.546913
-0.54016
-0.533246
-0.52576
-0.519598
-0.518581
-0.52697
-0.547748
-0.581259
-0.624752
-0.673006
-0.719817
-0.759666
-0.789777
-0.810318
-0.822001
-0.824819
-0.818529
-0.802406
-0.775222
-0.735433
-0.681518
-0.612302
-0.527464
-0.427079
-0.311497
-0.181251
-0.0368362
0.121429
0.29341
0.479008
0.677892
0.889166
1.11104
1.34188
1.57821
1.80913
2.01472
2.1755
2.27572
2.30644
2.26691
2.16398
2.00984
1.81925
1.60743
1.38962
1.1771
0.975336
0.787121
0.614342
0.459872
0.324469
0.206225
0.102049
0.00849915
-0.0774185
-0.157738
-0.233393
-0.304398
-0.370172
-0.430086
-0.483393
-0.528707
-0.56424
-0.587828
-0.597151
-0.590146
-0.565519
-0.523416
-0.465512
-0.394652
-0.314841
-0.23078
-0.147202
-0.0683373
0.00255089
0.0635437
0.114125
0.155004
0.187716
0.21403
0.234993
0.250729
0.260141
0.261123
0.251235
0.229135
0.195818
0.155156
0.113437
0.0779789
0.0551701
0.0480011
0.0556423
0.0762581
0.101477
0.12185
0.129893
0.122364
0.10091
0.0709019
0.0389862
0.0104492
-0.0128788
-0.032777
-0.0516026
-0.0717999
-0.095586
-0.124464
-0.159008
-0.198927
-0.243293
-0.290805
-0.340166
-0.390234
-0.440037
-0.488704
-0.53534
-0.578871
-0.61795
-0.650912
-0.675975
-0.691459
-0.696084
-0.689248
-0.671168
-0.642823
-0.605695
-0.561346
-0.510982
-0.455123
-0.393377
-0.324571
-0.247051
-0.159016
-0.0571959
0.0654913
0.217655
0.388233
0.543615
0.646119
0.666366
0.595091
0.448689
0.264349
0.0858818
-0.0534773
-0.152617
-0.231747
-0.302455
-0.370073
-0.438497
-0.510398
-0.586864
-0.667595
-0.913059
-0.846577
0
1.94241
4.94884
8.51633
11.7678
13.7469
13.7951
11.8384
8.43769
4.56593
1.21319
-0.985689
-1.92363
-1.93249
-1.56077
-1.24237
-1.00152
-0.850949
-0.780127
-0.736099
-0.704958
-0.683349
-0.669851
-0.662374
-0.658218
-0.654328
-0.647692
-0.635795
-0.61715
-0.591528
-0.559717
-0.523245
-0.484488
-0.446623
-0.412676
-0.384811
-0.363853
-0.349121
-0.338637
-0.329654
-0.319333
-0.30531
-0.286199
-0.26137
-0.230076
-0.191145
-0.142743
-0.0823014
-0.00678272
0.0867587
0.20045
0.334913
0.488683
0.658292
0.838885
1.02422
1.2069
1.37823
1.52788
1.64579
1.72578
1.76277
1.75271
1.69314
1.58424
1.42968
1.23696
1.01664
0.780789
0.540689
0.302857
0.070007
-0.156768
-0.377767
-0.594109
-0.806991
-1.01702
-1.2238
-1.4258
-1.62053
-1.80493
-1.9757
-2.12969
-2.26403
-2.37621
-2.46441
-2.52745
-2.56483
-2.57424
-2.54886
-2.47736
-2.3604
-2.22857
-2.11703
-2.05639
-2.06314
-2.13331
-2.2428
-2.35557
-2.43692
-2.46773
-2.46504
-2.4468
-2.42172
-2.39645
-2.37676
-2.36675
-2.36855
-2.38237
-2.40691
-2.43985
-2.47806
-2.51814
-2.55683
-2.5906
-2.61633
-2.63163
-2.63526
-2.62736
-2.6095
-2.58428
-2.55475
-2.52382
-2.49378
-2.46609
-2.44189
-2.4223
-2.40841
-2.40149
-2.40283
-2.41337
-2.43333
-2.46185
-2.49689
-2.53537
-2.57358
-2.60775
-2.63455
-2.65118
-2.65563
-2.64668
-2.62386
-2.58739
-2.53829
-2.47834
-2.40964
-2.33384
-2.25307
-2.1689
-2.08127
-1.98798
-1.88467
-1.76547
-1.62414
-1.45556
-1.24572
-0.96563
-0.629301
-0.301144
-0.0421117
0.110188
0.14768
0.0875378
-0.0368808
-0.185445
-0.319047
-0.41027
-0.459064
-0.475514
-0.467518
-0.439717
-0.395309
-0.337519
-0.270095
-0.197064
-0.113412
0
0.506704
1.81378
4.13472
7.26295
10.518
12.9467
13.7118
12.4709
9.54494
5.78371
2.20473
-0.406005
-1.73923
-1.96509
-1.52002
-1.09457
-0.750558
-0.544737
-0.49411
-0.491916
-0.50852
-0.539157
-0.579051
-0.623645
-0.668773
-0.711067
-0.747979
-0.777805
-0.799719
-0.813704
-0.820364
-0.821383
-0.819273
-0.816485
-0.814704
-0.814246
-0.813677
-0.809799
-0.79802
-0.773041
-0.729714
-0.664509
-0.575812
-0.463734
-0.329815
-0.176892
-0.00905795
0.168652
0.35068
0.531395
0.705532
0.868677
1.0177
1.15098
1.26848
1.3715
1.46227
1.54339
1.61709
1.68498
1.74752
1.80358
1.85004
1.88227
1.8955
1.88513
1.84767
1.78166
1.68815
1.57072
1.43483
1.28685
1.13309
0.978258
0.824765
0.673716
0.525476
0.379903
0.236716
0.0958578
-0.0422388
-0.176463
-0.305059
-0.42587
-0.536511
-0.634397
-0.716719
-0.780932
-0.825712
-0.850454
-0.85543
-0.841944
-0.812423
-0.770355
-0.720076
-0.666409
-0.614231
-0.567944
-0.531833
-0.509184
-0.502404
-0.512943
-0.541233
-0.586639
-0.647453
-0.720955
-0.803535
-0.890873
-0.978309
-1.06089
-1.13395
-1.19343
-1.23619
-1.26015
-1.26429
-1.24856
-1.2137
-1.16108
-1.09295
-1.01232
-0.922263
-0.825799
-0.725986
-0.625879
-0.528402
-0.436229
-0.351652
-0.276509
-0.212148
-0.159291
-0.117655
-0.0861155
-0.0627543
-0.0449846
-0.0297785
-0.0139868
0.00528927
0.0303663
0.0627596
0.102954
0.150743
0.205615
0.266919
0.334077
0.406766
0.485006
0.569166
0.660004
0.759129
0.870484
1.00293
1.1665
1.348
1.51227
1.61718
1.62885
1.53486
1.34924
1.10728
0.853879
0.631644
0.455812
0.314991
0.200298
0.11307
0.0526423
0.0163916
0
0.00266113
0.0134501
0.0381599
0.238194
0.950195
2.49431
4.99799
8.22007
11.506
13.9463
14.72
13.4735
10.5274
6.76895
3.26774
0.822191
-0.313523
-0.397915
0.0617783
0.444699
0.763326
0.981444
1.09949
1.19098
1.27368
1.35206
1.42849
1.50404
1.57846
1.65063
1.71941
1.78459
1.84747
1.91083
1.97831
2.0534
2.13846
2.23372
2.33721
2.4465
2.55908
2.67239
2.78402
2.89151
2.99176
3.08125
3.15719
3.21725
3.26034
3.28741
3.30182
3.30893
3.31517
3.32666
3.34782
3.37971
3.42169
3.4728
3.53183
3.59721
3.6672
3.73975
3.8124
3.88197
3.94405
3.99263
4.02113
4.02257
3.9902
3.91844
3.80389
3.64605
3.44757
3.21397
2.95282
2.67438
2.38803
2.10043
1.81714
1.54321
1.2832
1.04129
0.821316
0.62678
0.460823
0.325712
0.225475
0.171906
0.180998
0.245968
0.33588
0.416832
0.461606
0.457264
0.407607
0.329712
0.246267
0.177099
0.129646
0.0991764
0.080739
0.0717484
0.0710686
0.0776958
0.0907581
0.10941
0.132551
0.158274
0.183611
0.204848
0.218369
0.22154
0.213527
0.195764
0.171847
0.14681
0.125933
0.11341
0.111048
0.118909
0.133858
0.15124
0.166294
0.175457
0.177144
0.171847
0.161617
0.149243
0.13744
0.128093
0.122355
0.121028
0.124688
0.133587
0.147567
0.166051
0.187496
0.208537
0.224355
0.229827
0.220793
0.195349
0.154716
0.103344
0.0481546
-0.00291338
-0.0427979
-0.0675783
-0.0748436
-0.0644153
-0.0376584
0.0035078
0.0575191
0.122909
0.20203
0.303774
0.435367
0.577301
0.696424
0.756967
0.735757
0.63348
0.476041
0.305348
0.164
0.0777763
0.0299965
0.00492392
0
0.0114765
0.0356459
0.0687587
0.107411
0.148966
0.286083
0.799552
2.0262
4.21069
7.27112
10.6764
13.5541
15.0132
14.5351
12.222
8.76323
5.14347
2.24856
0.564918
0.0911836
0.457604
1.03807
1.50975
1.7879
1.85463
1.86219
1.85837
1.85137
1.84779
1.85204
1.86502
1.8863
1.91484
1.94894
1.98644
2.02504
2.06241
2.09641
2.1254
2.14836
2.16502
2.17597
2.18259
2.18695
2.19153
2.19891
2.21135
2.23044
2.25712
2.29165
2.33378
2.38288
2.43824
2.49936
2.56608
2.63856
2.71708
2.80179
2.89247
2.98841
3.0884
3.19096
3.29452
3.39745
3.49768
3.59163
3.6741
3.73896
3.77882
3.7863
3.75542
3.68253
3.56659
3.40883
3.21242
2.98558
2.73846
2.4786
2.21174
1.94282
1.67624
1.4158
1.16448
0.924534
0.697677
0.485408
0.289309
0.111208
-0.046877
-0.183023
-0.295264
-0.381095
-0.43867
-0.470163
-0.484072
-0.491251
-0.501934
-0.523533
-0.559242
-0.607879
-0.665027
-0.725064
-0.783338
-0.83811
-0.890353
-0.941825
-0.99457
-1.05026
-1.10956
-1.17187
-1.23548
-1.29811
-1.35773
-1.41322
-1.46429
-1.51214
-1.55882
-1.60639
-1.65604
-1.70754
-1.75759
-1.80003
-1.82737
-1.83263
-1.81102
-1.76108
-1.68487
-1.58742
-1.47555
-1.35692
-1.23744
-1.12046
-1.0076
-0.898696
-0.792
-0.684658
-0.573478
-0.455756
-0.330003
-0.196388
-0.0569005
0.0853173
0.226486
0.362881
0.491533
0.610752
0.720406
0.821933
0.918095
1.01253
1.1092
1.21176
1.32439
1.45208
1.59696
1.75264
1.9031
2.02843
2.11101
2.13766
2.10067
1.99885
1.83877
1.63503
1.40821
1.18046
0.967903
0.773712
0.60099
0.451814
0.326162
0.222909
0.137864
0.0656179
0
0.0484927
0.49494
1.71735
3.945
7.0366
10.3992
13.1362
14.3818
13.6717
11.1618
7.57159
3.8808
0.935716
-0.833616
-1.46573
-1.31138
-0.811091
-0.349971
0.000141907
0.172899
0.224534
0.248897
0.264977
0.277843
0.291548
0.308852
0.330799
0.356879
0.385677
0.415117
0.442763
0.466181
0.483328
0.49292
0.49461
0.489129
0.478353
0.465244
0.453634
0.447839
0.452135
0.470057
0.503965
0.554711
0.62142
0.701618
0.791622
0.887065
0.983705
1.07803
1.16753
1.25082
1.32762
1.39852
1.46465
1.52743
1.58832
1.64871
1.70985
1.77275
1.83813
1.90609
1.97507
2.03971
2.09015
2.11378
2.09719
2.02898
1.90253
1.71789
1.48232
1.20926
0.916044
0.621201
0.336063
0.066604
-0.181157
-0.402792
-0.595336
-0.756908
-0.887244
-0.987205
-1.05845
-1.1033
-1.12467
-1.12606
-1.11098
-1.08268
-1.04587
-1.00738
-0.97345
-0.948288
-0.933148
-0.925917
-0.921616
-0.913738
-0.896095
-0.864583
-0.820172
-0.76634
-0.706527
-0.644664
-0.585373
-0.532914
-0.490504
-0.459956
-0.441592
-0.434426
-0.436538
-0.445545
-0.459026
-0.474764
-0.490846
-0.505675
-0.517684
-0.525259
-0.526837
-0.520904
-0.505618
-0.480324
-0.448503
-0.416888
-0.393247
-0.384334
-0.394064
-0.422526
-0.466082
-0.518369
-0.571795
-0.619551
-0.657755
-0.684653
-0.699547
-0.70227
-0.693797
-0.676017
-0.65141
-0.622664
-0.592303
-0.56237
-0.534208
-0.508468
-0.485106
-0.463506
-0.442618
-0.421121
-0.397576
-0.37053
-0.338722
-0.30123
-0.25761
-0.207632
-0.151728
-0.096451
-0.0579531
170
371
564
740
913
1085
1263
1443
1619
1804
1992
2187
2366
2548
2730
2912
3089
3261
3432
3602
3588
3139
3289
3448
3601
3738
2262
2318
2403
2590
2676
2721
2775
2961
2999
3108
3152
3208
3262
3345
3515
3538
3601
3665
3727
3652
3702
0
0
0
0
0
0
0
0
0
0
0
0
0
0
0
0
0
0
0
0
0
0
0
0
0
0
0
0
0
0
0
0
0
0
0
0
0
0
0
0
0
0
0
0
0
0
0
0
0
0
0
0
0
0
0
0
0
0
0
0
0
0
0
0
0
0
0
0
0
0
0
0
0
0
0
0
0
0
0
0
0
0
0
0
0
0
0
0
0
0
0
0
0
0
0
0
0
0
0
0
0
0
0
0
0
0
0
0
0
0
0
0
0
0
0
0
0
0
0
0
0
0
0
0
0
0
0
0
0
0
0
0
0
0
0
0
0
0
0
0
0
0
0
0
0
0
0
0
0
0
0
0
0
0
0
0
0
0
0
0
0
0
0
0
0
0
0
0
0
0
0
0
0
0
0
0
0
0
0
0
0
0
0
0
0
0
0
0
0
0
0
0
0
0
0
0
0
0
0
0
0
0
0
0
0
0
0
0
0
0
0
0
0
0
0
0
0
0
0
0
0
0
0
0
0
0
0
0
0
0
0
0
0
0
0
0
0
0
0
0
0
0
0
0
0
0
0
0
0
0
0
0
0
0
0
0
0
0
0
0
0
0
0
0
0
0
0
0
0
0
0
0
0
0
0
0
0
0
0
0
0
0
0
0
0
0
0
0
0
0
0
0
0
0
0
0
0
0
0
0
0
0
0
0
0
0
0
0
0
0
0
0
0
0
0
0
0
0
0
0
0
0
0
0
0
0
0
0
0
0
0
0
0
0
0
0
0
0
0
0
0
0
0
0
0
0
0
0
0
0
0
0
0
0
0
0
0
0
0
0
0
0
0
0
0
0
0
0
0
0
0
0
0
0
0
0
0
0
0
0
0
0
0
0
0
0
0
0
0
0
0
0
0
0
0
0
0
0
0
0
0
0
0
0
0
0
0
0
0
0
0
0
0
0
0
0
0
0
0
0
0
0
0
0
0
0
0
0
0
0
0
0
0
0
0
0
0
0
0
0
0
0
0
0
0
0
0
0
0
0
0
0
0
0
0
0
0
0
0
0
0
0
0
0
0
0
0
0
0
0
0
0
0
0
0
0
0
0
0
0
0
0
0
0
0
0
0
0
0
0
0
0
0
0
0
0
0
0
0
0
0
0
0
0
0
0
0
0
0
0
0
0
0
0
0
0
0
0
0
0
0
0
0
0
0
0
0
0
0
0
0
0
0
0
0
0
0
0
0
0
0
0
0
0
0
0
0
0
0
0
0
0
0
0
0
0
0
0
0
0
0
0
0
0
0
0
0
0
0
0
0
0
0
0
0
0
0
0
0
0
0
0
0
0
0
0
0
0
0
0
0
0
0
0
0
0
0
0
0
0
0
0
0
0
0
0
0
0
0
0
0
0
0
0
0
0
0
0
0
0
0
0
0
0
0
0
0
0
0
0
0
0
0
0
0
0
0
0
0
0
0
0
0
0
0
0
0
0
0
0
0
0
0
0
0
0
0
0
0
0
0
0
0
0
0
0
0
0
0
0
0
0
0
0
0
0
0
0
0
0
0
0
0
0
0
0
0
0
0
0
0
0
0
0
0
0
0
0
0
0
0
0
0
0
0
0
0
0
0
0
0
0
0
0
0
0
0
0
0
0
0
0
0
0
0
0
0
0
0
0
0
0
0
0
0
0
0
0
0
0
0
0
0
0
0
0
0
0
0
0
0
0
0
0
0
0
0
0
0
0
0
0
0
0
0
0
0
0
0
0
0
0
0
0
0
0
0
0
0
0
0
0
0
0
0
0
0
0
0
0
0
0
0
0
0
0
0
0
0
0
0
0
0
0
0
0
0
0
0
0
0
0
0
0
0
0
0
0
0
0
0
0
0
0
0
0
0
0
0
0
0
0
0
0
0
0
0
0
0
0
0
0
0
0
0
0
0
0
0
0
0
0
0
0
0
0
0
0
0
0
0
0
0
0
0
0
0
0
0
0
0
0
0
0
0
0
0
0
0
0
0
0
0
0
0
0
0
0
0
0
0
0
0
0
0
0
0
0
0
0
0
0
0
0
0
0
0
0
0
0
0
0
0
0
0
0
0
0
0
0
0
0
0
0
0
0
0
0
0
0
0
0
0
0
0
0
0
0
0
0
0
0
0
0
0
0
0
0
0
0
0
0
0
0
0
0
0
0
0
0
0
0
0
0
0
0
0
0
0
0
0
0
0
0
0
0
0
0
0
0
0
0
0
0
0
0
0
0
0
0
0
0
0
0
0
0
0
0
0
0
0
0
0
0
0
0
0
0
0
0
0
0
0
0
0
0
0
0
0
0
0
0
0
0
0
0
0
0
0
0
0
0
0
0
0
0
0
0
0
0
0
0
0
0
0
0
0
0
0
0
0
0
0
0
0
0
0
0
0
0
0
0
0
0
0
0
0
0
0
0
0
0
0
0
0
0
0
0
0
0
0
0
0
0
0
0
0
0
0
0
0
0
0
0
0
0
0
0
0
0
0
0
0
0
0
0
0
0
0
0
0
0
0
0
0
0
0
0
0
0
0
0
0
0
0
0
0
0
0
0
0
0
0
0
0
0
0
0
0
0
0
0
0
0
0
0
0
0
0
0
0
0
0
0
0
0
0
0
0
0
0
0
0
0
0
0
0
0
0
0
0
0
0
0
0
0
0
0
0
0
0
0
0
0
0
0
0
0
0
0
0
0
0
0
0
0
0
0
0
0
0
0
0
0
0
0
0
0
0
0
0
0
0
0
0
0
0
0
0
0
0
0
0
0
0
0
0
0
0
0
0
0
0
0
0
0
0
0
0
0
0
0
0
0
0
0
0
0
0
0
0
0
0
0
0
0
0
0
0
0
0
0
0
0
0
0
0
0
0
0
0
0
0
0
0
0
0
0
0
0
0
0
0
0
0
0
0
0
0
0
0
0
0
0
0
0
0
0
0
0
0
0
0
0
0
0
0
0
0
0
0
0
0
0
0
0
0
0
0
0
0
0
0
0
0
0
0
0
0
0
0
0
0
0
0
0
0
0
0
0
0
0
0
0
0
0
0
0
0
0
0
0
0
0
0
0
0
0
0
0
0
0
0
0
0
0
0
0
0
0
0
0
0
0
0
0
0
0
0
0
0
0
0
0
0
0
0
0
0
0
0
0
0
0
0
0
0
0
0
0
0
0
0
0
0
0
0
0
0
0
0
0
0
0
0
0
0
0
0
0
0
0
0
0
0
0
0
0
0
0
0
0
0
0
0
0
0
0
0
0
0
0
0
0
0
0
0
0
0
0
0
0
0
0
0
0
0
0
0
0
0
0
0
0
0
0
0
0
0
0
0
0
0
0
0
0
0
0
0
0
0
0
0
0
0
0
0
0
0
0
0
0
0
0
0
0
0
0
0
0
0
0
0
0
0
0
0
0
0
0
0
0
0
0
0
0
0
0
0
0
0
0
0
0
0
0
0
0
0
0
0
0
0
0
0
0
0
0
0
0
0
0
0
0
0
0
0
0
0
0
0
0
0
0
0
0
0
0
0
0
0
0
0
0
0
0
0
0
0
0
0
0
0
0
0
0
0
0
0
0
0
0
0
0
0
0
0
0
0
0
0
0
0
0
0
0
0
0
0
0
0
0
0
0
0
0
0
0
0
0
0
0
0
0
0
0
0
0
0
0
0
0
0
0
0
0
0
0
0
0
0
0
0
0
0
0
0
0
0
0
0
0
0
0
0
0
0
0
0
0
0
0
0
0
0
0
0
0
0
0
0
0
0
0
0
0
0
0
0
0
0
0
0
0
0
0
0
0
0
0
0
0
0
0
0
0
0
0
0
0
0
0
0
0
0
0
0
0
0
0
0
0
0
0
0
0
0
0
0
0
0
0
0
0
0
0
0
0
0
0
0
0
0
0
0
0
0
0
0
0
0
0
0
0
0
0
0
0
0
0
0
0
0
0
0
0
0
0
0
0
0
0
0
0
0
0
0
0
0
0
0
0
0
0
0
0
0
0
0
0
0
0
0
0
0
0
0
0
0
0
0
0
0
0
0
0
0
0
0
0
0
0
0
0
0
0
0
0
0
0
0
0
0
0
0
0
0
0
0
0
0
0
0
0
0
0
0
0
0
0
0
0
0
0
0
0
0
0
0
0
0
0
0
0
0
0
0
0
0
0
0
0
0
0
0
0
0
0
0
0
0
0
0
0
0
0
0
0
0
0
0
0
0
0
0
0
0
0
0
0
0
0
0
0
0
0
0
0
0
0
0
0
0
0
0
0
0
0
0
0
0
0
0
0
0
0
0
0
0
0
0
0
0
0
0
0
0
0
0
0
0
0
0
0
0
0
0
0
0
0
0
0
0
0
0
0
0
0
0
0
0
0
0
0
0
0
0
0
0
0
0
0
0
0
0
0
0
0
0
0
0
0
0
0
0
0
0
0
0
0
0
0
0
0
0
0
0
0
0
0
0
0
0
0
0
0
0
0
0
0
0
0
0
0
0
0
0
0
0
0
0
0
0
0
0
0
0
0
0
0
0
0
0
0
0
0
0
0
0
0
0
0
0
0
0
0
0
0
0
0
0
0
0
0
0
0
0
0
0
0
0
0
0
0
0
0
0
0
0
0
0
0
0
0
0
0
0
0
0
0
0
0
0
0
0
0
0
0
0
0
0
0
0
0
0
0
0
0
0
0
0
0
0
0
0
0
0
0
0
0
0
0
0
0
0
0
0
0
0
0
0
0
0
0
0
0
0
0
0
0
0
0
0
0
0
0
0
0
0
0
0
0
0
0
0
0
0
0
0
0
0
0
0
0
0
0
0
0
0
0
0
0
0
0
0
0
0
0
0
0
0
0
0
0
0
0
0
0
0
0
0
0
0
0
0
0
0
0
0
0
0
0
0
0
0
0
0
0
0
0
0
0
0
0
0
0
0
0
0
0
0
0
0
0
0
0
0
0
0
0
0
0
0
0
0
0
0
0
0
0
0
0
0
0
0
0
0
0
0
0
0
0
0
0
0
0
0
0
0
0
0
0
0
0
0
0
0
0
0
0
0
0
0
0
0
0
0
0
0
0
0
0
0
0
0
0
0
0
0
0
0
0
0
0
0
0
0
0
0
0
0
0
0
0
0
0
0
0
0
0
0
0
0
0
0
0
0
0
0
0
0
0
0
0
0
0
0
0
0
0
0
0
0
0
0
0
0
0
0
0
0
0
0
0
0
0
0
0
0
0
0
0
0
0
0
0
0
0
0
0
0
0
0
0
0
0
0
0
0
0
0
0
0
0
0
0
0
0
0
0
0
0
0
0
0
0
0
0
0
0
0
0
0
0
0
0
0
0
0
0
0
0
0
0
0
0
0
0
0
0
0
0
0
0
0
0
0
0
0
0
0
0
0
0
0
0
0
0
0
0
0
0
0
0
0
0
0
0
0
0
0
0
0
0
0
0
0
0
0
0
0
0
0
0
0
0
0
0
0
0
0
0
0
0
0
0
0
0
0
0
0
0
0
0
0
0
0
0
0
0
0
0
0
0
0
0
0
0
0
0
0
0
0
0
0
0
0
0
0
0
0
0
0
0
0
0
0
0
0
0
0
0
0
0
0
0
0
0
0
0
0
0
0
0
0
0
0
0
0
0
0
0
0
0
0
0
0
0
0
0
0
0
0
0
0
0
0
0
0
0
0
0
0
0
0
0
0
0
0
0
0
0
0
0
0
0
0
0
0
0
0
0
0
0
0
0
0
0
0
0
0
0
0
0
0
0
0
0
0
0
0
0
0
0
0
0
0
0
0
0
0
0
0
0
0
0
0
0
0
0
0
0
0
0
0
0
0
0
0
0
0
0
0
0
0
0
0
0
0
0
0
0
0
0
0
0
0
0
0
0
0
0
0
0
0
0
0
0
0
0
0
0
0
0
0
0
0
0
0
0
0
0
0
0
0
0
0
0
0
0
0
0
0
0
0
0
0
0
0
0
0
0
0
0
0
0
0
0
0
0
0
0
0
0
0
0
0
0
0
0
0
0
0
0
0
0
0
0
0
0
0
0
0
0
0
0
0
0
0
0
0
0
0
0
0
0
0
0
0
0
0
0
0
0
0
0
0
0
0
0
0
0
0
0
0
0
0
0
0
0
0
0
0
0
0
0
0
0
0
0
0
0
0
0
0
0
0
0
0
0
0
0
0
0
0
0
0
0
0
0
0
0
0
0
0
0
0
0
0
0
0
0
0
0
0
0
0
0
0
0
0
0
0
0
0
0
0
0
0
0
0
0
0
0
0
0
0
0
0
0
0
0
0
0
0
0
0
0
0
0
0
0
0
0
0
0
0
0
0
0
0
0
0
0
0
0
0
0
0
0
0
0
0
0
0
0
0
0
0
0
0
0
0
0
0
0
0
0
0
0
0
0
0
0
0
0
0
0
0
0
0
0
0
0
0
0
0
0
0
0
0
0
0
0
0
0
0
0
0
0
0
0
0
0
0
0
0
0
0
0
0
0
0
0
0
0
0
0
0
0
0
0
0
0
0
0
0
0
0
0
0
0
0
0
0
0
0
0
0
0
0
0
0
0
0
0
0
0
0
0
0
0
0
0
0
0
0
0
0
0
0
0
0
0
0
0
0
0
0
0
0
0
0
0
0
0
0
0
0
0
0
0
0
0
0
0
0
0
0
0
0
0
0
0
0
0
0
0
0
0
0
0
0
0
0
0
0
0
0
0
0
0
0
0
0
0
0
0
0
0
0
0
0
0
0
0
0
0
0
0
0
0
0
0
0
0
0
0
0
0
0
0
0
0
0
0
0
0
0
0
0
0
0
0
0
0
0
0
0
0
0
0
0
0
0
0
0
0
0
0
0
0
0
0
0
0
0
0
0
0
0
0
0
0
0
0
0
0
0
0
0
0
0
0
0
0
0
0
0
0
0
0
0
0
0
0
0
0
0
0
0
0
0
0
0
0
0
0
0
0
0
0
0
0
0
0
0
0
0
0
0
0
0
0
0
0
0
0
0
0
0
0
0
0
0
0
0
0
0
0
0
0
0
0
0
0
0
0
0
0
0
0
0
0
0
0
0
0
0
0
0
0
0
0
0
0
0
0
0
0
0
0
0
0
0
0
0
0
0
0
0
0
0
0
0
0
0
0
0
0
0
0
0
0
0
0
0
0
0
0
0
0
0
0
0
0
0
0
0
0
0
0
0
0
0
0
0
0
0
0
0
0
0
0
0
0
0
0
0
0
0
0
0
0
0
0
0
0
0
0
0
0
0
0
0
0
0
0
0
0
0
0
0
0
0
0
0
0
0
0
0
0
0
0
0
0
0
0
0
0
0
0
0
0
0
0
0
0
0
0
0
0
0
0
0
0
0
0
0
0
0
0
0
0
0
0
0
0
0
0
0
0
0
0
0
0
0
0
0
0
0
0
0
0
0
0
0
0
0
0
0
0
0
0
0
0
0
0
0
0
0
0
0
0
0
0
0
0
0
0
0
0
0
0
0
0
0
0
0
0
0
0
0
0
0
0
0
0
0
0
0
0
0
0
0
0
0
0
0
0
0
0
0
0
0
0
0
0
0
0
0
0
0
0
0
0
0
0
0
0
0
0
0
0
0
0
0
0
0
0
0
0
0
0
0
0
0
0
0
0
0
0
0
0
0
0
0
0
0
0
0
0
0
0
0
0
0
0
0
0
0
0
0
0
0
0
0
0
0
0
0
0
0
0
0
0
0
0
0
0
0
0
0
0
0
0
0
0
0
0
0
0
0
0
0
0
0
0
0
0
0
0
0
0
0
0
0
0
0
0
0
0
0
0
0
0
0
0
0
0
0
0
0
0
0
0
0
0
0
0
0
0
0
0
0
0
0
0
0
0
0
0
0
0
0
0
0
0
0
0
0
0
0
0
0
0
0
0
0
0
0
0
0
0
0
0
0
0
0
0
0
0
0
0
0
0
0
0
0
0
0
0
0
0
0
0
0
0
0
0
0
0
0
0
0
0
0
0
0
0
0
0
0
0
0
0
0
0
0
0
0
0
0
0
0
0
0
0
0
0
0
0
0
0
0
0
0
0
0
0
0
0
0
0
0
0
0
0
0
0
0
0
0
0
0
0
0
0
0
0
0
0
0
0
0
0
0
0
0
0
0
0
0
0
0
0
0
0
0
0
0
0
0
0
0
0
0
0
0
0
0
0
0
0
0
0
0
0
0
0
0
0
0
0
0
0
0
0
0
0
0
0
0
0
0
0
0
0
0
0
0
0
0
0
0
0
0
0
0
0
0
0
0
0
0
0
0
0
0
0
0
0
0
0
0
0
0
0
0
0
0
0
0
0
0
0
0
0
0
0
0
0
0
0
0
0
0
0
0
0
0
0
0
0
0
0
