-3.43549
-3.27134
-3.09896
-2.92104
-2.74011
-2.55847
-2.37826
-2.20168
-2.03121
-1.87048
-1.72338
-1.59206
-1.47685
-1.37543
-1.28255
-1.19042
-1.08996
-0.972678
-0.832498
-0.658346
-0.442001
-0.20562
0.0118301
0.175161
0.263397
0.274234
0.223204
0.139008
0.0561039
0.00561829
0
-0.00357819
0.0160667
0.050919
0.0960564
0.14751
0.204926
0.300437
0.910947
2.35659
4.71231
7.65379
10.4806
12.349
12.6297
11.205
8.5365
5.45909
2.81511
1.13235
0.501461
0.673611
1.22195
1.62731
2.0049
2.34318
2.64403
2.91145
3.14671
3.35298
3.53448
3.69563
3.84037
3.97182
4.09211
4.20242
4.30315
4.39357
4.47178
4.53643
4.58607
4.61969
4.63695
4.63838
4.6252
4.59899
4.56127
4.51324
4.45641
4.39171
4.32049
4.2448
4.16744
4.09163
4.02057
3.95691
3.90233
3.85753
3.8225
3.79686
3.78026
3.77245
3.77348
3.7833
3.80142
3.82648
3.85661
3.88952
3.92267
3.95359
3.97997
3.99962
4.00967
4.0065
3.98743
3.9501
3.89337
3.81852
3.72662
3.62955
3.55039
3.51721
3.55834
3.69748
3.94979
4.31963
4.80003
5.37359
6.00735
6.69232
7.68298
8.85991
10.2814
11.8383
13.2493
14.2337
14.708
14.7875
14.58
14.0032
12.8564
11.0907
8.98372
7.01278
5.53789
4.65093
4.21663
3.79797
3.40352
3.0401
2.71219
2.42166
2.16793
1.9483
1.75857
1.59385
1.44894
1.31906
1.20023
1.08937
0.984337
0.88383
0.787258
0.694301
0.605302
0.521484
0.445489
0.380791
0.331369
0.301569
0.303989
0.339191
0.390382
0.434937
0.452503
0.43205
0.374596
0.290962
0.196291
0.104166
0.0205757
-0.0554939
-0.126083
-0.19305
-0.258243
-0.322992
-0.387482
-0.449743
-0.505464
-0.549123
-0.575747
-0.582606
-0.570139
-0.541709
-0.502314
-0.456783
-0.408421
-0.358402
-0.306252
-0.25076
-0.190664
-0.125219
-0.0546455
0.0199608
0.0966393
0.172698
0.244473
0.307675
0.358598
0.394373
0.413428
0.415723
0.402695
0.376896
0.341495
0.29977
0.254986
0.209692
0.165845
0.124976
0.0880653
0.055394
0.0264565
0
-0.0306572
-0.0625366
-0.0972473
-0.150587
-0.169855
0.30604
1.5613
3.64633
6.25425
8.75027
10.3828
10.5925
9.26651
6.79402
3.89066
1.29212
-0.515177
-1.40027
-1.52052
-1.10672
-0.701219
-0.353205
-0.127466
-0.0538063
-0.027063
-0.0135895
-0.0067543
-0.00282974
0.000524139
0.00437546
0.00900421
0.0144447
0.0208977
0.0289192
0.0393295
0.0529671
0.0704292
0.0917831
0.116843
0.145447
0.177588
0.213513
0.253714
0.298735
0.348912
0.40432
0.464122
0.524912
0.580296
0.622958
0.646561
0.647646
0.626868
0.5892
0.542859
0.497295
0.460788
0.437175
0.425645
0.424059
0.430122
0.441251
0.455472
0.472025
0.491432
0.515204
0.546799
0.587209
0.62618
0.646123
0.627733
0.557311
0.432109
0.261133
0.061174
-0.149638
-0.357805
-0.559511
-0.754778
-0.942908
-1.12284
-1.29299
-1.45041
-1.59224
-1.71573
-1.81887
-1.90086
-1.96236
-2.00524
-2.03209
-2.04561
-2.04811
-2.04133
-2.02644
-2.00435
-1.97598
-1.94258
-1.90531
-1.86543
-1.82432
-1.78364
-1.74569
-1.7133
-1.68922
-1.67562
-1.67334
-1.68111
-1.69527
-1.71011
-1.71877
-1.71448
-1.69289
-1.65204
-1.58372
-1.47583
-1.32542
-1.16006
-1.0181
-0.936374
-0.939754
-1.03036
-1.18118
-1.33851
-1.43594
-1.41949
-1.31222
-1.1541
-0.970163
-0.794107
-0.656676
-0.576721
-0.556674
-0.583913
-0.636691
-0.691405
-0.728162
-0.742961
-0.737721
-0.712798
-0.668079
-0.601706
-0.515463
-0.419675
-0.327696
-0.251857
-0.200424
-0.175572
-0.173021
-0.183461
-0.195306
-0.197919
-0.186028
-0.16021
-0.122643
-0.0774704
-0.0309113
0.0103271
0.0404007
0.0553314
0.053624
0.0364243
0.00725708
-0.0285583
-0.0647491
-0.0950394
-0.114429
-0.120322
-0.112184
-0.0901352
-0.0554199
-0.00987091
0.0426743
0.0965012
0.146176
0.187769
0.219792
0.243637
0.263339
0.284666
0.313737
0.356198
0.419748
0.506363
0.602997
0.68761
0.737448
0.735677
0.676598
0.56823
0.431152
0.293208
0.181052
0.104938
0.0566467
0.0266708
0.0109756
0.00482636
0.00345612
0.00281067
0
0.00775452
0.132199
0.76537
2.17906
4.36109
6.90226
9.14432
10.483
10.6035
9.52119
7.49992
4.97153
2.47
0.511247
-0.586739
-0.82884
-0.530122
-0.269412
-0.0405983
0.14841
0.296559
0.40925
0.495887
0.566187
0.626775
0.680198
0.725425
0.759482
0.780033
0.786897
0.782622
0.772049
0.761176
0.755452
0.757922
0.770672
0.795447
0.832964
0.883015
0.944665
1.01637
1.09614
1.18171
1.2708
1.36143
1.45216
1.54234
1.63213
1.72244
1.81483
1.9112
2.01354
2.12365
2.24296
2.3722
2.51133
2.66002
2.81566
2.97116
3.11735
3.24552
3.3494
3.42634
3.47724
3.50513
3.51314
3.50261
3.47449
3.4297
3.3681
3.28879
3.19162
3.07787
2.95003
2.81128
2.66492
2.51365
2.35947
2.20378
2.04783
1.89317
1.74205
1.59743
1.46272
1.34134
1.23604
1.14862
1.07971
1.02897
0.995261
0.976891
0.971749
0.977353
0.990389
1.00667
1.02144
1.02981
1.02737
1.01092
0.979048
0.932497
0.874091
0.808309
0.740468
0.675613
0.617726
0.569171
0.530383
0.499971
0.474937
0.451619
0.426617
0.397644
0.364063
0.326984
0.288903
0.252992
0.222334
0.199182
0.184235
0.176734
0.17481
0.17605
0.178045
0.178769
0.176731
0.170934
0.16086
0.146235
0.126817
0.102533
0.0735512
0.0403889
0.00400314
-0.0341892
-0.0723946
-0.108673
-0.141302
-0.169178
-0.192194
-0.211661
-0.230234
-0.251412
-0.278803
-0.315266
-0.362169
-0.41896
-0.483177
-0.550879
-0.617411
-0.678394
-0.730196
-0.770408
-0.797977
-0.813066
-0.816687
-0.810303
-0.795428
-0.773396
-0.745332
-0.712317
-0.675509
-0.636622
-0.599225
-0.568131
-0.548334
-0.543766
-0.556155
-0.584478
-0.625274
-0.673678
-0.724753
-0.774782
-0.821937
-0.865032
-0.90342
-0.936673
-0.964313
-0.985686
-0.99999
-1.00641
-1.00432
-0.993384
-0.973726
-0.945869
-0.910681
-0.869277
-0.822931
-0.773048
-0.721162
-0.669007
-0.618558
-0.571957
-0.531379
-0.498816
-0.475831
-0.463308
-0.461264
-0.468755
-0.483886
-0.504285
-0.526509
-0.546133
-0.55899
-0.56192
-0.553342
-0.533593
-0.504913
-0.466267
-0.368312
0
1.00593
2.86912
5.4859
8.33303
10.6139
11.5815
10.8711
8.66431
5.60493
2.51972
0.0952112
-1.33586
-1.82499
-1.64796
-1.474
-1.30781
-1.15584
-1.02299
-0.912167
-0.824407
-0.759227
-0.714935
-0.688146
-0.674712
-0.669975
-0.668469
-0.66451
-0.652647
-0.626397
-0.584367
-0.531582
-0.476361
-0.427402
-0.391021
-0.369632
-0.361899
-0.364166
-0.372272
-0.38261
-0.393206
-0.403001
-0.411057
-0.416156
-0.416721
-0.410878
-0.396545
-0.371614
-0.334181
-0.282775
-0.216562
-0.135531
-0.0406544
0.0660366
0.181419
0.301712
0.422799
0.540738
0.652378
0.755816
0.850553
0.937303
1.01745
1.09228
1.16186
1.22396
1.27377
1.3045
1.30845
1.27885
1.21179
1.1074
0.97005
0.807608
0.629924
0.447557
0.267821
0.0956497
-0.0656357
-0.214468
-0.350782
-0.475602
-0.59037
-0.696277
-0.793717
-0.882053
-0.959762
-1.02456
-1.07239
-1.09957
-1.10933
-1.10818
-1.10393
-1.10318
-1.1093
-1.12162
-1.1361
-1.14714
-1.14987
-1.14368
-1.1301
-1.11078
-1.08869
-1.06738
-1.05026
-1.04
-1.0381
-1.04464
-1.05832
-1.07669
-1.09665
-1.11514
-1.12973
-1.1385
-1.14106
-1.13936
-1.13646
-1.13551
-1.13869
-1.14662
-1.15831
-1.17179
-1.18499
-1.19664
-1.20666
-1.21565
-1.22459
-1.23428
-1.24493
-1.25586
-1.26558
-1.27202
-1.27305
-1.26685
-1.25192
-1.22752
-1.19395
-1.15194
-1.10374
-1.05361
-1.00624
-0.965734
-0.934715
-0.913706
-0.900989
-0.892999
-0.885063
-0.872341
-0.851315
-0.819903
-0.776962
-0.722233
-0.65652
-0.581358
-0.499245
-0.413852
-0.329309
-0.249735
-0.179263
-0.121979
-0.0806625
-0.0563812
-0.0486443
-0.055249
-0.0723343
-0.0947342
-0.116692
-0.13279
-0.13885
-0.133479
-0.117455
-0.0913567
-0.0565247
-0.01474
0.0318275
0.0812256
0.131308
0.179812
0.224554
0.263658
0.295804
0.320618
0.338853
0.35248
0.364565
0.378951
0.399735
0.433212
0.490636
0.579109
0.681747
0.772099
0.823357
0.81828
0.75548
0.649535
0.52545
0.4102
0.323918
0.264403
0.222861
0.193428
0.173176
0.157914
0.143595
0.126958
0.105891
0.0794136
-0.0922066
0
0.793158
2.63005
5.47014
8.79379
11.7213
13.3503
13.1493
11.1927
8.11191
4.804
2.06556
0.338208
-0.343652
-0.237425
0.213599
0.479441
0.716172
0.914838
1.0784
1.21368
1.32372
1.41239
1.48235
1.53839
1.58485
1.62601
1.66662
1.71198
1.76746
1.83737
1.92369
2.03033
2.15111
2.26707
2.35731
2.40593
2.40713
2.36662
2.29904
2.22292
2.15519
2.10561
2.07394
2.05796
2.05696
2.07064
2.09825
2.13851
2.1894
2.24804
2.31068
2.37307
2.43105
2.48098
2.52013
2.54719
2.5627
2.56879
2.56897
2.56764
2.56969
2.58243
2.62016
2.69471
2.7861
2.86082
2.88447
2.83506
2.71042
2.52689
2.31089
2.08818
1.87589
1.6756
1.48432
1.30074
1.12639
0.964493
0.818097
0.690511
0.584592
0.502065
0.443113
0.406294
0.38878
0.386746
0.395714
0.410578
0.427146
0.442097
0.452708
0.456874
0.45322
0.44111
0.420495
0.392198
0.357651
0.318744
0.277707
0.236968
0.19896
0.165872
0.139365
0.120299
0.108375
0.102433
0.100566
0.0998041
0.096092
0.0854828
0.0650253
0.0334766
-0.00829601
-0.0573868
-0.109451
-0.159715
-0.204141
-0.240492
-0.269346
-0.292785
-0.313268
-0.333727
-0.357066
-0.385712
-0.421073
-0.463231
-0.510897
-0.561499
-0.611437
-0.656576
-0.692928
-0.717441
-0.728735
-0.726119
-0.711271
-0.690793
-0.671865
-0.660013
-0.657455
-0.662702
-0.671525
-0.678858
-0.680794
-0.676325
-0.667365
-0.656166
-0.644972
-0.635856
-0.630002
-0.627169
-0.625731
-0.623015
-0.615923
-0.601747
-0.578969
-0.546542
-0.506339
-0.464038
-0.42567
-0.395223
-0.372981
-0.355365
-0.336389
-0.310071
-0.272669
-0.225106
-0.17063
-0.111754
-0.0504964
0.0119312
0.0754068
0.140748
0.209209
0.282173
0.360722
0.443199
0.520811
0.580155
0.607794
0.594686
0.539477
0.44949
0.339077
0.226022
0.127379
0.0524752
0
-0.0481552
-0.0789101
-0.094492
-0.098324
-0.0914021
0.08265
0.40919
1.14423
2.59149
4.84024
7.55389
9.98429
11.2607
10.8179
8.7057
5.58379
2.4033
-0.027441
-1.3419
-1.64132
-1.29217
-0.768205
-0.307814
0.0116249
0.129168
0.175771
0.200981
0.212772
0.215655
0.214121
0.212305
0.213647
0.220684
0.235088
0.257543
0.287739
0.324457
0.365757
0.409262
0.452525
0.493366
0.530165
0.562066
0.589094
0.612194
0.633215
0.654812
0.680246
0.71306
0.75663
0.813628
0.885489
0.972015
1.07124
1.17962
1.29254
1.4051
1.51284
1.61243
1.70211
1.7818
1.85297
1.91821
1.98077
2.0439
2.11057
2.18355
2.26517
2.35509
2.4466
2.52664
2.58011
2.59277
2.55365
2.45699
2.30347
2.10106
1.86471
1.61444
1.3703
1.14286
0.933357
0.740004
0.561943
0.396757
0.241415
0.0932713
-0.0491573
-0.185799
-0.315076
-0.434305
-0.540873
-0.632128
-0.705806
-0.760244
-0.793178
-0.802081
-0.788166
-0.76074
-0.733774
-0.721164
-0.733651
-0.776276
-0.847097
-0.937494
-1.0341
-1.12196
-1.18963
-1.23413
-1.25813
-1.26478
-1.2579
-1.24304
-1.22648
-1.21441
-1.21276
-1.22553
-1.25459
-1.2994
-1.35698
-1.42243
-1.48834
-1.5464
-1.58897
-1.61044
-1.60821
-1.58305
-1.53864
-1.48083
-1.41634
-1.35355
-1.30326
-1.27472
-1.27438
-1.30399
-1.35915
-1.42947
-1.50107
-1.56078
-1.60045
-1.62294
-1.63344
-1.63673
-1.63732
-1.63783
-1.6383
-1.63659
-1.62953
-1.61434
-1.59054
-1.55942
-1.52248
-1.48127
-1.43732
-1.3917
-1.34491
-1.29679
-1.24677
-1.19414
-1.13834
-1.07926
-1.01742
-0.95392
-0.890377
-0.828671
-0.770651
-0.71785
-0.671302
-0.631423
-0.597633
-0.568389
-0.541264
-0.513078
-0.480185
-0.438941
-0.38632
-0.320609
-0.241803
-0.14935
-0.049118
0.0471825
0.127431
0.182423
0.208184
0.206438
0.183137
0.145793
0.100729
0.0518097
0
-0.0600533
-0.12596
-0.199978
-0.284869
-0.385506
-0.505418
-0.641258
-0.78702
-0.963644
-0.754979
0.117304
1.8372
4.34141
7.22953
9.81359
11.3344
11.2647
9.55175
6.66388
3.40736
0.601908
-1.22227
-1.96122
-1.86459
-1.31363
-0.722818
-0.204242
0.146459
0.26148
0.313927
0.347802
0.369714
0.382337
0.388934
0.392975
0.397774
0.406027
0.419717
0.439857
0.466347
0.498299
0.533428
0.568413
0.599802
0.62468
0.641141
0.648426
0.646732
0.636859
0.619875
0.597326
0.570816
0.542567
0.515773
0.494743
0.484499
0.490105
0.515772
0.56398
0.634833
0.725825
0.832056
0.946851
1.06269
1.17153
1.26664
1.34359
1.40073
1.43918
1.46219
1.47401
1.47858
1.4781
1.47219
1.45793
1.4304
1.38435
1.31585
1.22349
1.10867
0.975069
0.827631
0.672082
0.513535
0.355543
0.201095
0.0529472
-0.0864395
-0.21504
-0.331306
-0.434696
-0.525966
-0.606658
-0.678626
-0.743397
-0.801566
-0.852961
-0.896526
-0.930717
-0.954114
-0.965983
-0.966646
-0.95755
-0.941042
-0.919931
-0.897002
-0.874429
-0.853524
-0.834724
-0.817795
-0.801977
-0.786242
-0.769531
-0.750987
-0.730093
-0.706759
-0.681418
-0.655203
-0.630191
-0.609371
-0.595865
-0.592218
-0.599532
-0.616767
-0.640504
-0.665347
-0.68499
-0.693698
-0.688032
-0.664553
-0.626418
-0.582079
-0.541716
-0.514431
-0.506017
-0.517939
-0.547588
-0.589468
-0.636761
-0.682922
-0.723746
-0.756833
-0.781024
-0.796351
-0.803798
-0.804653
-0.8006
-0.793642
-0.785498
-0.777267
-0.769272
-0.761098
-0.75181
-0.74027
-0.725475
-0.706777
-0.684129
-0.657808
-0.628197
-0.595825
-0.561349
-0.525611
-0.490019
-0.456804
-0.428387
-0.406666
-0.392136
-0.38329
-0.37662
-0.367342
-0.350639
-0.322948
-0.283661
-0.234686
-0.177928
-0.114877
-0.0466789
0.026136
0.103929
0.188488
0.283213
0.386314
0.482165
0.547765
0.561167
0.511689
0.406766
0.271681
0.14172
0.0499702
0.00858917
0
0.0173912
0.0518921
0.0960686
0.142651
0.186107
0.223502
0.253892
0.263927
0.264648
0.699361
1.83317
3.76708
6.31201
8.95987
10.996
11.7468
10.8694
8.53959
5.41492
2.36502
0.102613
-1.08116
-1.33844
-1.02027
-0.680126
-0.367633
-0.126851
0.00779648
0.0831039
0.133842
0.170935
0.198857
0.220752
0.239982
0.259785
0.282902
0.311208
0.345711
0.386639
0.433131
0.481727
0.526116
0.559557
0.576747
0.575567
0.558122
0.530618
0.502032
0.482031
0.478846
0.494157
0.526255
0.574045
0.636151
0.71014
0.79274
0.880443
0.969432
1.056
1.13728
1.21175
1.2794
1.34176
1.40143
1.46146
1.52456
1.59236
1.66504
1.74133
1.81765
1.88818
1.9461
1.98441
1.99673
1.97781
1.92413
1.83421
1.70886
1.55112
1.3661
1.16079
0.942609
0.718437
0.493807
0.273274
0.0610161
-0.139232
-0.324339
-0.492074
-0.641169
-0.771225
-0.883883
-0.983201
-1.07389
-1.16013
-1.24436
-1.32629
-1.40223
-1.46605
-1.51121
-1.53315
-1.53109
-1.5086
-1.47284
-1.43274
-1.39693
-1.37065
-1.35728
-1.35772
-1.37074
-1.39351
-1.42217
-1.45254
-1.48102
-1.50445
-1.52056
-1.52817
-1.52692
-1.51823
-1.5044
-1.48807
-1.47156
-1.45654
-1.44388
-1.4338
-1.42614
-1.42046
-1.41632
-1.41331
-1.41093
-1.40865
-1.40601
-1.4027
-1.39873
-1.39439
-1.39013
-1.38635
-1.38325
-1.38056
-1.37754
-1.37302
-1.36562
-1.35408
-1.33759
-1.31595
-1.28962
-1.2597
-1.22788
-1.19603
-1.16591
-1.13896
-1.11616
-1.09813
-1.08517
-1.0774
-1.07486
-1.07752
-1.08513
-1.09709
-1.11224
-1.12866
-1.14322
-1.15043
-1.14433
-1.11949
-1.07276
-1.00456
-0.919241
-0.824066
-0.727124
-0.634917
-0.549647
-0.470786
-0.396259
-0.32346
-0.250124
-0.17692
-0.110157
-0.0599968
-0.0366875
-0.0463974
-0.0881332
-0.152779
-0.224765
-0.286047
-0.32118
-0.326779
-0.309711
-0.275092
-0.228095
-0.174972
-0.121822
-0.073391
-0.0325432
0
0.0184013
-0.0334312
0.363428
1.61302
3.90203
6.96755
10.0686
12.2296
12.6657
11.1573
8.15821
4.57536
1.35679
-0.872353
-1.94775
-2.0657
-1.46607
-0.792254
-0.127703
0.359322
0.496241
0.518789
0.443193
0.314339
0.187726
0.106113
0.0792343
0.0812187
0.0990997
0.129127
0.169863
0.219846
0.277756
0.342078
0.409616
0.475598
0.535293
0.585159
0.623866
0.652721
0.675335
0.696681
0.721932
0.755316
0.79854
0.852254
0.917624
0.995242
1.08503
1.18609
1.29655
1.41355
1.53362
1.65322
1.76934
1.8801
1.98514
2.08565
2.18404
2.28338
2.3875
2.50093
2.62415
2.74687
2.85305
2.92572
2.95159
2.92394
2.84292
2.71382
2.54459
2.34365
2.12342
1.89277
1.65666
1.41811
1.17937
0.942342
0.708742
0.480003
0.257335
0.0418331
-0.165321
-0.362593
-0.547856
-0.718299
-0.870591
-1.0011
-1.10471
-1.17438
-1.20577
-1.20416
-1.18229
-1.15453
-1.13325
-1.12603
-1.13435
-1.15439
-1.17936
-1.20246
-1.21977
-1.23141
-1.23908
-1.24425
-1.24794
-1.24993
-1.24866
-1.24169
-1.2264
-1.19918
-1.16076
-1.11785
-1.07922
-1.05204
-1.03867
-1.03519
-1.03268
-1.02061
-0.991165
-0.937759
-0.869197
-0.801508
-0.750619
-0.725224
-0.72351
-0.735384
-0.748862
-0.756873
-0.760884
-0.766093
-0.776825
-0.794366
-0.815575
-0.833831
-0.841897
-0.83336
-0.809618
-0.778176
-0.749213
-0.730871
-0.725606
-0.729244
-0.73294
-0.726871
-0.704146
-0.667069
-0.619667
-0.564756
-0.505663
-0.446383
-0.39066
-0.341398
-0.30027
-0.267513
-0.241862
-0.220671
-0.200144
-0.175746
-0.142921
-0.097744
-0.036124
0.0493591
0.168557
0.325694
0.505027
0.674995
0.804985
0.872182
0.866281
0.792192
0.669976
0.530461
0.406139
0.317592
0.258734
0.216031
0.181227
0.149878
0.118262
0.083519
0.0441601
0
-0.0646461
0.0561426
0.702625
2.19375
4.64639
7.78607
10.9279
13.1793
13.7942
12.504
9.6504
6.05155
2.6702
0.24964
-0.915365
-0.993579
-0.479967
-0.0860716
0.23469
0.458605
0.58711
0.684677
0.755066
0.801762
0.826767
0.832308
0.822877
0.806324
0.793208
0.794532
0.818751
0.879076
0.973835
1.08029
1.17013
1.21932
1.2156
1.16164
1.07335
0.97474
0.891241
0.839562
0.819036
0.823922
0.850893
0.898874
0.965215
1.04599
1.137
1.23313
1.32985
1.42405
1.51446
1.60171
1.68787
1.77568
1.86766
1.96528
2.06817
2.17472
2.28229
2.38714
2.48433
2.56803
2.63302
2.67446
2.68812
2.67067
2.62001
2.53553
2.41831
2.27116
2.09879
1.90832
1.70654
1.49924
1.29159
1.08831
0.893514
0.710491
0.541607
0.388284
0.251061
0.129768
0.0237968
-0.0675781
-0.144824
-0.207694
-0.255272
-0.286681
-0.30134
-0.299344
-0.28197
-0.250448
-0.209002
-0.163858
-0.121265
-0.0862495
-0.0616702
-0.0478575
-0.0428721
-0.0432105
-0.0446783
-0.0434293
-0.0369445
-0.0234643
-0.00203576
0.0277749
0.0654851
0.107578
0.148643
0.183027
0.206117
0.215357
0.210628
0.193914
0.16846
0.137783
0.105102
0.0723587
0.0405266
0.0100301
-0.0191351
-0.0473202
-0.0750315
-0.102627
-0.130009
-0.156388
-0.180201
-0.199284
-0.211276
-0.214098
-0.205812
-0.185696
-0.155954
-0.122548
-0.0928049
-0.0734011
-0.0687153
-0.0798671
-0.104723
-0.138819
-0.17684
-0.214068
-0.247675
-0.276845
-0.301418
-0.32087
-0.334465
-0.341386
-0.340713
-0.331731
-0.314294
-0.289082
-0.257685
-0.222522
-0.186631
-0.153411
-0.126647
-0.110993
-0.109942
-0.125899
-0.159477
-0.208919
-0.269956
-0.336339
-0.401066
-0.45798
-0.503532
-0.536487
-0.559185
-0.576124
-0.592525
-0.613004
-0.640815
-0.770028
-0.697652
0
1.63013
4.26813
7.58019
10.7914
12.9079
13.1311
11.254
7.79722
3.7853
0.293717
-1.97613
-2.87738
-2.71593
-1.99318
-1.16427
-0.501545
-0.101446
0.0264074
0.0655594
0.107286
0.152986
0.203958
0.260884
0.323591
0.390935
0.46153
0.534259
0.608581
0.684562
0.762624
0.843168
0.926248
1.01138
1.09777
1.18464
1.27145
1.3581
1.44494
1.53265
1.62202
1.71367
1.80786
1.90451
2.00322
2.10358
2.20538
2.3089
2.4151
2.52567
2.64294
2.76963
2.9085
3.06195
3.23257
3.42724
3.65576
3.9212
4.20325
4.46098
4.66241
4.78688
4.82025
4.755
4.59622
4.36781
4.11096
3.86954
3.66055
3.46709
3.2759
3.08226
2.88404
2.68026
2.47162
2.26035
2.04982
1.84401
1.64691
1.4621
1.29239
1.13962
1.00455
0.886892
0.785548
0.698469
0.622561
0.554589
0.491777
0.432346
0.375869
0.323342
0.276823
0.238863
0.211778
0.196969
0.194466
0.202791
0.219541
0.240872
0.262696
0.281359
0.294166
0.299658
0.297641
0.289023
0.275546
0.259549
0.243545
0.229918
0.220863
0.218148
0.222875
0.235272
0.254754
0.279677
0.307072
0.332532
0.35107
0.35823
0.351009
0.328659
0.293137
0.249024
0.202855
0.161962
0.133106
0.119979
0.123908
0.144739
0.180145
0.226074
0.277636
0.329138
0.375034
0.411151
0.435383
0.448098
0.45218
0.452622
0.455723
0.468009
0.498184
0.562086
0.673782
0.817713
0.955588
1.0475
1.06322
0.990369
0.838258
0.635723
0.422695
0.237804
0.0969551
-0.0104194
-0.0954361
-0.159556
-0.203437
-0.228475
-0.236793
-0.231271
-0.215552
-0.178633
0
0.511643
1.69586
3.75241
6.53309
9.46661
11.703
12.4476
11.3277
8.59237
5.02475
1.6057
-0.889639
-2.15032
-2.33566
-1.8506
-1.24008
-0.715781
-0.400213
-0.33115
-0.308101
-0.287942
-0.266828
-0.243374
-0.217125
-0.188625
-0.159138
-0.130206
-0.103158
-0.0787092
-0.0567401
-0.0363361
-0.016053
0.00565856
0.0299738
0.0574592
0.0878096
0.118953
0.147073
0.168281
0.18008
0.182587
0.179022
0.17522
0.178241
0.194516
0.22815
0.277322
0.33823
0.407314
0.48074
0.554295
0.623823
0.686349
0.740495
0.786565
0.826253
0.86202
0.89607
0.929951
0.962971
0.991766
1.01103
1.01466
0.996749
0.952291
0.877506
0.770155
0.630084
0.462773
0.27162
0.0611625
-0.163542
-0.397611
-0.635971
-0.875037
-1.11167
-1.34238
-1.56318
-1.76955
-1.95727
-2.1229
-2.2637
-2.37882
-2.47016
-2.5412
-2.59639
-2.64027
-2.67672
-2.70854
-2.73707
-2.7622
-2.7826
-2.79549
-2.79781
-2.78668
-2.76023
-2.71838
-2.66266
-2.59674
-2.52676
-2.45904
-2.3986
-2.34816
-2.30782
-2.27557
-2.24819
-2.22226
-2.19499
-2.1647
-2.13019
-2.09062
-2.04541
-1.99421
-1.93698
-1.87402
-1.80616
-1.73469
-1.6612
-1.58751
-1.51534
-1.44589
-1.37963
-1.31627
-1.25487
-1.19416
-1.13281
-1.06974
-1.00423
-0.935888
-0.864542
-0.790173
-0.712878
-0.632831
-0.550249
-0.465353
-0.378324
-0.289299
-0.198467
-0.106253
-0.0135567
0.077915
0.165025
0.24373
0.309719
0.359157
0.389458
0.399741
0.390839
0.364946
0.325118
0.274882
0.2185
0.159374
0.102816
0.0545055
0.0194954
0.00110703
0
0.0283216
0.0668049
0.109285
0.136751
0.251732
0.89381
2.4032
4.86904
7.95909
10.9286
12.8651
13.0755
11.4173
8.37635
4.84543
1.73297
-0.378684
-1.36031
-1.43871
-0.902973
-0.376731
0.110807
0.517836
0.805291
0.951712
0.958754
0.852411
0.682431
0.51702
0.427821
0.445814
0.530941
0.646998
0.777614
0.914793
1.05245
1.18514
1.308
1.41682
1.50882
1.58298
1.63947
1.67974
1.70667
1.72464
1.73923
1.75667
1.78284
1.82194
1.87526
1.94201
2.02039
2.10692
2.19654
2.28425
2.36625
2.44081
2.50848
2.57179
2.6345
2.70049
2.77271
2.85261
2.93972
3.03058
3.11988
3.20115
3.26718
3.30846
3.31694
3.28532
3.20777
3.08134
2.90733
2.69213
2.44693
2.18615
1.92503
1.67481
1.44116
1.229
1.04083
0.876883
0.735735
0.614771
0.510706
0.420159
0.340016
0.267628
0.200842
0.1379
0.0773403
0.0177338
-0.0421381
-0.10305
-0.165014
-0.227035
-0.287088
-0.34242
-0.390111
-0.427379
-0.452758
-0.466466
-0.470171
-0.466542
-0.458587
-0.448974
-0.439499
-0.430781
-0.422258
-0.412515
-0.39987
-0.382751
-0.359613
-0.33187
-0.30647
-0.292958
-0.300287
-0.33318
-0.389522
-0.460035
-0.530561
-0.586193
-0.617595
-0.613099
-0.577659
-0.525372
-0.473799
-0.438483
-0.429162
-0.448522
-0.493094
-0.555235
-0.625299
-0.693885
-0.7555
-0.807116
-0.847209
-0.875499
-0.891814
-0.896331
-0.889225
-0.870347
-0.839117
-0.794656
-0.733842
-0.651123
-0.543241
-0.41967
-0.299738
-0.204556
-0.151164
-0.148013
-0.193261
-0.27617
-0.380907
-0.491469
-0.596798
-0.694139
-0.784587
-0.868666
-0.945617
-1.01465
-1.07481
-1.12429
-1.16131
-1.18523
-1.15467
-0.782874
0
1.46949
3.73274
6.58526
9.42447
11.4141
11.833
10.431
7.58171
4.13041
1.01424
-1.12902
-2.15296
-2.32124
-2.08227
-1.85505
-1.65008
-1.47586
-1.33822
-1.23049
-1.15032
-1.09677
-1.06773
-1.05991
-1.06881
-1.08936
-1.11488
-1.13544
-1.14112
-1.12392
-1.07951
-1.00849
-0.916382
-0.812432
-0.707315
-0.610511
-0.52616
-0.456088
-0.398977
-0.351101
-0.307616
-0.263898
-0.216808
-0.165167
-0.108916
-0.0485638
0.0150303
0.0809341
0.148374
0.216824
0.285954
0.355487
0.425012
0.493808
0.560684
0.624094
0.682259
0.733336
0.775519
0.807012
0.825869
0.829799
0.816067
0.781617
0.724408
0.642245
0.534181
0.400955
0.245127
0.0708755
-0.116471
-0.31078
-0.506437
-0.69836
-0.882211
-1.05456
-1.21302
-1.35629
-1.48426
-1.59792
-1.69932
-1.79122
-1.87674
-1.95881
-2.03971
-2.12061
-2.20132
-2.2802
-2.3544
-2.4201
-2.47296
-2.50911
-2.52567
-2.51966
-2.48534
-2.42238
-2.3441
-2.26636
-2.20318
-2.16276
-2.14547
-2.14453
-2.14909
-2.1481
-2.13415
-2.10767
-2.07098
-2.02578
-1.97385
-1.9174
-1.85942
-1.80416
-1.75605
-1.71893
-1.69518
-1.68505
-1.68647
-1.69543
-1.70695
-1.71639
-1.72091
-1.72006
-1.71433
-1.70524
-1.69513
-1.68666
-1.68245
-1.68475
-1.69527
-1.71493
-1.74372
-1.78046
-1.8232
-1.86872
-1.91134
-1.94454
-1.96216
-1.95946
-1.93383
-1.88483
-1.81376
-1.72302
-1.61558
-1.4959
-1.36826
-1.23577
-1.10408
-0.979875
-0.869661
-0.778619
-0.709625
-0.662763
-0.635458
-0.623062
-0.619722
-0.619073
-0.616225
-0.607927
-0.592344
-0.569144
-0.539416
-0.506041
-0.472825
-0.443748
-0.422194
-0.472115
-0.532081
0
1.51373
4.05795
7.27487
10.411
12.5543
12.9898
11.5096
8.52333
4.89532
1.58319
-0.736519
-1.86609
-2.02842
-1.53798
-1.04071
-0.564432
-0.168253
0.0823837
0.252047
0.35706
0.406889
0.420819
0.42337
0.437577
0.478075
0.54066
0.616441
0.700153
0.785722
0.867213
0.939911
1.00101
1.04984
1.08766
1.11712
1.1416
1.16461
1.18885
1.21602
1.24684
1.28115
1.31785
1.35485
1.38942
1.41881
1.44079
1.45406
1.45854
1.45541
1.44694
1.43617
1.42653
1.42124
1.42323
1.43488
1.4586
1.49634
1.54484
1.59464
1.63351
1.6488
1.63007
1.57104
1.47027
1.33063
1.15795
0.961932
0.752466
0.535858
0.316383
0.0978439
-0.116396
-0.323463
-0.521045
-0.707373
-0.881155
-1.04135
-1.18686
-1.31631
-1.42787
-1.51941
-1.58835
-1.62978
-1.63686
-1.609
-1.55687
-1.49466
-1.43691
-1.39524
-1.37621
-1.38064
-1.40429
-1.43938
-1.47616
-1.50621
-1.52439
-1.52767
-1.5117
-1.47038
-1.4046
-1.32497
-1.24502
-1.17804
-1.13429
-1.11949
-1.13482
-1.17764
-1.24236
-1.31974
-1.40011
-1.47627
-1.54228
-1.59331
-1.62615
-1.63861
-1.6313
-1.60775
-1.57369
-1.53528
-1.49792
-1.46539
-1.43944
-1.41995
-1.40535
-1.39334
-1.38154
-1.36801
-1.35161
-1.33164
-1.30758
-1.27904
-1.24564
-1.20687
-1.16203
-1.11027
-1.05074
-0.982751
-0.906012
-0.820863
-0.728415
-0.630566
-0.529842
-0.429356
-0.332529
-0.242822
-0.163643
-0.0982025
-0.0488709
-0.0172775
-0.00417938
-0.00930176
-0.0312042
-0.0672852
-0.113954
-0.167029
-0.222237
-0.275845
-0.32524
-0.368582
-0.404929
-0.434128
-0.456625
-0.473291
-0.485213
-0.493405
-0.498778
-0.421562
0
1.0249
2.91209
5.61234
8.63256
11.1227
12.2242
11.5036
9.19843
6.10489
3.17236
1.06467
-0.0517441
-0.416701
-0.41031
-0.392899
-0.377068
-0.363837
-0.354073
-0.348439
-0.347337
-0.350874
-0.358858
-0.370773
-0.385852
-0.403095
-0.421385
-0.439545
-0.45645
-0.471089
-0.482603
-0.490337
-0.493863
-0.49305
-0.488091
-0.479544
-0.468291
-0.455426
-0.442162
-0.429553
-0.41815
-0.407718
-0.39713
-0.384425
-0.367107
-0.342613
-0.30885
-0.264671
-0.210388
-0.147459
-0.0781235
-0.00513763
0.0686417
0.140733
0.209404
0.273907
0.334543
0.392537
0.449767
0.508499
0.571718
0.643066
0.720102
0.787929
0.82524
0.81135
0.734186
0.59561
0.41161
0.207204
0.0082077
-0.169556
-0.328793
-0.474983
-0.610637
-0.737787
-0.858373
-0.973599
-1.08357
-1.18728
-1.28306
-1.36905
-1.44294
-1.50372
-1.55374
-1.59671
-1.63654
-1.67606
-1.71609
-1.75514
-1.78999
-1.81666
-1.83184
-1.83494
-1.82695
-1.8095
-1.78481
-1.75584
-1.72559
-1.69648
-1.67001
-1.64665
-1.62594
-1.6069
-1.58835
-1.56936
-1.54947
-1.52876
-1.50773
-1.48723
-1.46812
-1.45102
-1.43599
-1.42244
-1.40925
-1.39502
-1.3786
-1.35951
-1.33826
-1.31634
-1.29609
-1.28
-1.26999
-1.26685
-1.27005
-1.27796
-1.28833
-1.29895
-1.30811
-1.3148
-1.31856
-1.31918
-1.31642
-1.30983
-1.29877
-1.28255
-1.26058
-1.23263
-1.19858
-1.15796
-1.11011
-1.05422
-0.989568
-0.915695
-0.832716
-0.741484
-0.643533
-0.540956
-0.436099
-0.331233
-0.228296
-0.128819
-0.0342697
0.0530563
0.128732
0.185941
0.215941
0.208144
0.154224
0.0527206
-0.0881805
-0.25135
-0.414824
-0.557681
-0.670375
-0.757492
-0.820084
-0.858937
-0.876331
-0.875513
-0.860933
-0.837088
-0.78737
-0.569455
0
1.2297
3.36448
6.24735
9.26015
11.4943
12.1345
10.8537
7.99127
4.40767
1.09763
-1.22051
-2.32574
-2.4473
-2.01738
-1.59516
-1.24191
-1.01016
-0.924648
-0.882862
-0.85898
-0.849264
-0.851997
-0.865289
-0.88716
-0.915627
-0.948722
-0.984458
-1.0208
-1.05564
-1.08678
-1.11202
-1.12933
-1.13698
-1.13374
-1.11894
-1.0925
-1.0547
-1.00606
-0.94706
-0.878025
-0.799042
-0.710075
-0.611163
-0.502654
-0.385409
-0.260854
-0.130884
0.00238342
0.136938
0.271164
0.40402
0.535006
0.663963
0.790728
0.914764
1.03486
1.14884
1.2532
1.34305
1.41274
1.4579
1.47525
1.46283
1.42012
1.34782
1.24756
1.12145
0.971686
0.800362
0.610646
0.405789
0.188664
-0.0378052
-0.270136
-0.504125
-0.734629
-0.955202
-1.15954
-1.34209
-1.49888
-1.62806
-1.73016
-1.80795
-1.86577
-1.90864
-1.94132
-1.96764
-1.98977
-2.00833
-2.02296
-2.03291
-2.03772
-2.0378
-2.03475
-2.03086
-2.02887
-2.03164
-2.04151
-2.05985
-2.08678
-2.12105
-2.16009
-2.20028
-2.23734
-2.26696
-2.28551
-2.29091
-2.28205
-2.25706
-2.22087
-2.18158
-2.14647
-2.11963
-2.10076
-2.08598
-2.07022
-2.04992
-2.02485
-1.998
-1.97325
-1.95318
-1.9372
-1.92129
-1.89941
-1.86592
-1.81786
-1.75834
-1.69193
-1.62273
-1.55491
-1.49215
-1.43709
-1.39115
-1.35453
-1.32651
-1.30571
-1.29044
-1.27887
-1.26918
-1.25966
-1.24888
-1.23574
-1.21972
-1.20089
-1.17991
-1.15784
-1.13592
-1.11505
-1.09561
-1.07726
-1.05913
-1.04016
-1.01949
-0.996844
-0.972666
-0.947973
-0.924048
-0.90207
-0.882797
-0.866441
-0.852742
-0.841204
-0.831378
-0.823063
-0.81634
-0.811458
-0.808561
-0.807389
-0.807032
-0.805751
-0.801021
-0.789771
-0.768796
-0.735279
-0.687342
-0.624509
-0.547937
-0.460321
-0.365516
-0.267729
-0.175466
-0.302336
0
1.21816
3.6386
7.01796
10.5574
13.1482
13.8356
12.2765
8.92963
4.85553
1.22943
-1.15653
-2.13689
-2.07528
-1.57319
-1.22312
-0.935912
-0.730192
-0.579334
-0.445416
-0.32252
-0.210363
-0.10931
-0.0201587
0.0562242
0.119367
0.169559
0.20808
0.237225
0.260127
0.280425
0.301854
0.327829
0.361083
0.403429
0.455647
0.517496
0.587846
0.66489
0.746403
0.830022
0.913518
0.995065
1.07348
1.14846
1.22072
1.29198
1.36477
1.44204
1.52667
1.62089
1.72585
1.84139
1.96607
2.09745
2.23242
2.36756
2.49941
2.62457
2.73928
2.83938
2.92121
2.98191
3.01937
3.0325
3.02134
2.98696
2.93115
2.85595
2.76322
2.65459
2.53156
2.39574
2.24929
2.09502
1.93624
1.77777
1.62509
1.48335
1.35654
1.24688
1.1547
1.07878
1.01689
0.966468
0.924631
0.889167
0.858502
0.831317
0.806492
0.783129
0.760651
0.738955
0.718513
0.700397
0.686149
0.677516
0.676087
0.682899
0.698101
0.720761
0.748877
0.779624
0.809674
0.835735
0.85512
0.866187
0.868548
0.863068
0.85163
0.836739
0.821078
0.807089
0.796663
0.790977
0.790542
0.795308
0.804762
0.818033
0.83398
0.851273
0.868446
0.884008
0.896603
0.90513
0.908784
0.907015
0.898906
0.883551
0.86059
0.829885
0.791827
0.747582
0.699111
0.64884
0.599097
0.551529
0.506657
0.464208
0.423578
0.384304
0.346486
0.310902
0.278781
0.251304
0.229068
0.211641
0.198011
0.186293
0.174723
0.162452
0.150157
0.140252
0.136641
0.144056
0.167178
0.209607
0.271815
0.352577
0.449821
0.559967
0.67816
0.798372
0.913306
1.01608
1.10096
1.16388
1.20247
1.21572
1.20136
1.16022
1.09395
1.00536
0.898898
0.780019
0.65669
0.53694
0.427226
0.331145
0.249038
0.17859
0.116073
0.057637
0
-0.107848
0.144951
1.04868
2.81747
5.44081
8.54879
11.4125
13.1562
13.1156
11.1655
7.82294
4.04767
0.841684
-1.14345
-1.79826
-1.48065
-0.811485
-0.269337
0.00381241
0.00323257
-0.0350708
-0.0729858
-0.106087
-0.13129
-0.147171
-0.154166
-0.15284
-0.144198
-0.129394
-0.109496
-0.0852615
-0.0572228
-0.025676
0.00951233
0.0488876
0.093203
0.143056
0.198427
0.258282
0.320622
0.382178
0.439481
0.489848
0.532221
0.567577
0.598729
0.629643
0.66446
0.706233
0.756253
0.814767
0.880959
0.953075
1.02884
1.1059
1.1822
1.25631
1.3275
1.39578
1.46173
1.52625
1.59014
1.65364
1.71514
1.76816
1.80138
1.8003
1.75133
1.64666
1.48789
1.28707
1.06443
0.84353
0.642915
0.465586
0.310709
0.181338
0.0763893
-0.00970535
-0.0833557
-0.149977
-0.212614
-0.271429
-0.324184
-0.367489
-0.398322
-0.416084
-0.421245
-0.415825
-0.402611
-0.384254
-0.36286
-0.339397
-0.314276
-0.287871
-0.261003
-0.235437
-0.213742
-0.198904
-0.193759
-0.200439
-0.219933
-0.251823
-0.294164
-0.343443
-0.395033
-0.443934
-0.485221
-0.514886
-0.52998
-0.528496
-0.512911
-0.490385
-0.469681
-0.459012
-0.464227
-0.487714
-0.52822
-0.581454
-0.641249
-0.70092
-0.754919
-0.800106
-0.835346
-0.860656
-0.876709
-0.884568
-0.885763
-0.882137
-0.875684
-0.868622
-0.863507
-0.86281
-0.868552
-0.881908
-0.90285
-0.929999
-0.960777
-0.991856
-1.01978
-1.04163
-1.05595
-1.06206
-1.05998
-1.05042
-1.03431
-1.01254
-0.985938
-0.954715
-0.918411
-0.876082
-0.826784
-0.770222
-0.7057
-0.636492
-0.569299
-0.511349
-0.467845
-0.440056
-0.425021
-0.417014
-0.410029
-0.400015
-0.386335
-0.36946
-0.349842
-0.326703
-0.297296
-0.257072
-0.200684
-0.118322
0.00949402
0.201167
0.445413
0.688305
0.887283
1.01396
1.03918
0.937542
0.708497
0.396298
0.0901474
-0.104362
-0.156503
-0.145271
-0.115457
-0.079895
-0.0461502
-0.0190376
0
0.0186615
-0.080304
0.205563
1.22803
3.17314
5.9024
8.90734
11.4416
12.7682
12.4281
10.4365
7.32575
3.97665
1.2661
-0.300805
-0.750765
-0.496385
-0.0408676
0.363088
0.672413
0.859109
0.968664
1.05879
1.14162
1.22041
1.29601
1.36836
1.43711
1.50184
1.56274
1.62103
1.67899
1.73964
1.80607
1.88072
1.96437
2.05654
2.15644
2.26276
2.37364
2.48688
2.59939
2.70673
2.8045
2.88921
2.95947
3.01679
3.06578
3.11324
3.16669
3.23248
3.31375
3.40914
3.5158
3.63078
3.75083
3.87261
3.99291
4.10869
4.21687
4.31474
4.3997
4.46924
4.52103
4.55298
4.56333
4.5508
4.51465
4.45483
4.37252
4.26922
4.14712
4.00884
3.85714
3.69496
3.52499
3.34948
3.17079
2.99158
2.81491
2.6441
2.48245
2.33272
2.19677
2.07521
1.96744
1.87197
1.78692
1.71048
1.64137
1.57896
1.52317
1.47407
1.43163
1.39536
1.36389
1.33496
1.3062
1.27582
1.24316
1.20885
1.17463
1.14264
1.1147
1.09177
1.07275
1.05507
1.03558
1.01156
0.981555
0.945707
0.905439
0.862776
0.819606
0.777155
0.736076
0.696962
0.660691
0.628712
0.60302
0.585941
0.58118
0.591715
0.615312
0.645394
0.673309
0.690634
0.691361
0.673272
0.638148
0.590894
0.537951
0.485472
0.437175
0.394447
0.35705
0.323935
0.293716
0.264816
0.235816
0.2057
0.173984
0.14077
0.106791
0.0733749
0.0425003
0.0169693
-0.000328827
-0.00678101
-0.000701141
0.0185547
0.0503265
0.0905495
0.133755
0.174178
0.206869
0.228503
0.237735
0.235162
0.223067
0.205313
0.186452
0.170943
0.163387
0.170563
0.208298
0.314562
0.533986
0.820799
1.09553
1.28207
1.32086
1.18886
0.914771
0.575457
0.272326
0.0975174
0.025988
-0.00415039
-0.0164093
-0.0170639
-0.0102356
0
0.0100739
0.0172119
0.0195686
-0.0267395
0.0208405
0.626849
2.12517
4.58341
7.65358
10.6058
12.574
12.9117
11.4821
8.72609
5.46922
2.57244
0.611341
-0.269859
-0.297177
0.0987366
0.38374
0.6226
0.797662
0.907845
0.993143
1.06711
1.13436
1.19841
1.26225
1.32809
1.39738
1.47061
1.54735
1.62631
1.70537
1.78187
1.85311
1.91671
1.97104
2.01539
2.0501
2.07651
2.09683
2.11405
2.13171
2.15366
2.1838
2.22567
2.28199
47
228
425
633
842
1036
1229
1421
1609
1791
1966
2131
2294
2458
2625
2793
2967
3150
3335
3526
3712
3139
3289
3448
3601
3738
2262
2318
2403
2590
2676
2721
2775
2961
2999
3108
3152
3208
3262
3345
3515
3538
3601
3665
3727
3652
3702
0
0
0
0
0
0
0
0
0
0
0
0
0
0
0
0
0
0
0
0
0
0
0
0
0
0
0
0
0
0
0
0
0
0
0
0
0
0
0
0
0
0
0
0
0
0
0
0
0
0
0
0
0
0
0
0
0
0
0
0
0
0
0
0
0
0
0
0
0
0
0
0
0
0
0
0
0
0
0
0
0
0
0
0
0
0
0
0
0
0
0
0
0
0
0
0
0
0
0
0
0
0
0
0
0
0
0
0
0
0
0
0
0
0
0
0
0
0
0
0
0
0
0
0
0
0
0
0
0
0
0
0
0
0
0
0
0
0
0
0
0
0
0
0
0
0
0
0
0
0
0
0
0
0
0
0
0
0
0
0
0
0
0
0
0
0
0
0
0
0
0
0
0
0
0
0
0
0
0
0
0
0
0
0
0
0
0
0
0
0
0
0
0
0
0
0
0
0
0
0
0
0
0
0
0
0
0
0
0
0
0
0
0
0
0
0
0
0
0
0
0
0
0
0
0
0
0
0
0
0
0
0
0
0
0
0
0
0
0
0
0
0
0
0
0
0
0
0
0
0
0
0
0
0
0
0
0
0
0
0
0
0
0
0
0
0
0
0
0
0
0
0
0
0
0
0
0
0
0
0
0
0
0
0
0
0
0
0
0
0
0
0
0
0
0
0
0
0
0
0
0
0
0
0
0
0
0
0
0
0
0
0
0
0
0
0
0
0
0
0
0
0
0
0
0
0
0
0
0
0
0
0
0
0
0
0
0
0
0
0
0
0
0
0
0
0
0
0
0
0
0
0
0
0
0
0
0
0
0
0
0
0
0
0
0
0
0
0
0
0
0
0
0
0
0
0
0
0
0
0
0
0
0
0
0
0
0
0
0
0
0
0
0
0
0
0
0
0
0
0
0
0
0
0
0
0
0
0
0
0
0
0
0
0
0
0
0
0
0
0
0
0
0
0
0
0
0
0
0
0
0
0
0
0
0
0
0
0
0
0
0
0
0
0
0
0
0
0
0
0
0
0
0
0
0
0
0
0
0
0
0
0
0
0
0
0
0
0
0
0
0
0
0
0
0
0
0
0
0
0
0
0
0
0
0
0
0
0
0
0
0
0
0
0
0
0
0
0
0
0
0
0
0
0
0
0
0
0
0
0
0
0
0
0
0
0
0
0
0
0
0
0
0
0
0
0
0
0
0
0
0
0
0
0
0
0
0
0
0
0
0
0
0
0
0
0
0
0
0
0
0
0
0
0
0
0
0
0
0
0
0
0
0
0
0
0
0
0
0
0
0
0
0
0
0
0
0
0
0
0
0
0
0
0
0
0
0
0
0
0
0
0
0
0
0
0
0
0
0
0
0
0
0
0
0
0
0
0
0
0
0
0
0
0
0
0
0
0
0
0
0
0
0
0
0
0
0
0
0
0
0
0
0
0
0
0
0
0
0
0
0
0
0
0
0
0
0
0
0
0
0
0
0
0
0
0
0
0
0
0
0
0
0
0
0
0
0
0
0
0
0
0
0
0
0
0
0
0
0
0
0
0
0
0
0
0
0
0
0
0
0
0
0
0
0
0
0
0
0
0
0
0
0
0
0
0
0
0
0
0
0
0
0
0
0
0
0
0
0
0
0
0
0
0
0
0
0
0
0
0
0
0
0
0
0
0
0
0
0
0
0
0
0
0
0
0
0
0
0
0
0
0
0
0
0
0
0
0
0
0
0
0
0
0
0
0
0
0
0
0
0
0
0
0
0
0
0
0
0
0
0
0
0
0
0
0
0
0
0
0
0
0
0
0
0
0
0
0
0
0
0
0
0
0
0
0
0
0
0
0
0
0
0
0
0
0
0
0
0
0
0
0
0
0
0
0
0
0
0
0
0
0
0
0
0
0
0
0
0
0
0
0
0
0
0
0
0
0
0
0
0
0
0
0
0
0
0
0
0
0
0
0
0
0
0
0
0
0
0
0
0
0
0
0
0
0
0
0
0
0
0
0
0
0
0
0
0
0
0
0
0
0
0
0
0
0
0
0
0
0
0
0
0
0
0
0
0
0
0
0
0
0
0
0
0
0
0
0
0
0
0
0
0
0
0
0
0
0
0
0
0
0
0
0
0
0
0
0
0
0
0
0
0
0
0
0
0
0
0
0
0
0
0
0
0
0
0
0
0
0
0
0
0
0
0
0
0
0
0
0
0
0
0
0
0
0
0
0
0
0
0
0
0
0
0
0
0
0
0
0
0
0
0
0
0
0
0
0
0
0
0
0
0
0
0
0
0
0
0
0
0
0
0
0
0
0
0
0
0
0
0
0
0
0
0
0
0
0
0
0
0
0
0
0
0
0
0
0
0
0
0
0
0
0
0
0
0
0
0
0
0
0
0
0
0
0
0
0
0
0
0
0
0
0
0
0
0
0
0
0
0
0
0
0
0
0
0
0
0
0
0
0
0
0
0
0
0
0
0
0
0
0
0
0
0
0
0
0
0
0
0
0
0
0
0
0
0
0
0
0
0
0
0
0
0
0
0
0
0
0
0
0
0
0
0
0
0
0
0
0
0
0
0
0
0
0
0
0
0
0
0
0
0
0
0
0
0
0
0
0
0
0
0
0
0
0
0
0
0
0
0
0
0
0
0
0
0
0
0
0
0
0
0
0
0
0
0
0
0
0
0
0
0
0
0
0
0
0
0
0
0
0
0
0
0
0
0
0
0
0
0
0
0
0
0
0
0
0
0
0
0
0
0
0
0
0
0
0
0
0
0
0
0
0
0
0
0
0
0
0
0
0
0
0
0
0
0
0
0
0
0
0
0
0
0
0
0
0
0
0
0
0
0
0
0
0
0
0
0
0
0
0
0
0
0
0
0
0
0
0
0
0
0
0
0
0
0
0
0
0
0
0
0
0
0
0
0
0
0
0
0
0
0
0
0
0
0
0
0
0
0
0
0
0
0
0
0
0
0
0
0
0
0
0
0
0
0
0
0
0
0
0
0
0
0
0
0
0
0
0
0
0
0
0
0
0
0
0
0
0
0
0
0
0
0
0
0
0
0
0
0
0
0
0
0
0
0
0
0
0
0
0
0
0
0
0
0
0
0
0
0
0
0
0
0
0
0
0
0
0
0
0
0
0
0
0
0
0
0
0
0
0
0
0
0
0
0
0
0
0
0
0
0
0
0
0
0
0
0
0
0
0
0
0
0
0
0
0
0
0
0
0
0
0
0
0
0
0
0
0
0
0
0
0
0
0
0
0
0
0
0
0
0
0
0
0
0
0
0
0
0
0
0
0
0
0
0
0
0
0
0
0
0
0
0
0
0
0
0
0
0
0
0
0
0
0
0
0
0
0
0
0
0
0
0
0
0
0
0
0
0
0
0
0
0
0
0
0
0
0
0
0
0
0
0
0
0
0
0
0
0
0
0
0
0
0
0
0
0
0
0
0
0
0
0
0
0
0
0
0
0
0
0
0
0
0
0
0
0
0
0
0
0
0
0
0
0
0
0
0
0
0
0
0
0
0
0
0
0
0
0
0
0
0
0
0
0
0
0
0
0
0
0
0
0
0
0
0
0
0
0
0
0
0
0
0
0
0
0
0
0
0
0
0
0
0
0
0
0
0
0
0
0
0
0
0
0
0
0
0
0
0
0
0
0
0
0
0
0
0
0
0
0
0
0
0
0
0
0
0
0
0
0
0
0
0
0
0
0
0
0
0
0
0
0
0
0
0
0
0
0
0
0
0
0
0
0
0
0
0
0
0
0
0
0
0
0
0
0
0
0
0
0
0
0
0
0
0
0
0
0
0
0
0
0
0
0
0
0
0
0
0
0
0
0
0
0
0
0
0
0
0
0
0
0
0
0
0
0
0
0
0
0
0
0
0
0
0
0
0
0
0
0
0
0
0
0
0
0
0
0
0
0
0
0
0
0
0
0
0
0
0
0
0
0
0
0
0
0
0
0
0
0
0
0
0
0
0
0
0
0
0
0
0
0
0
0
0
0
0
0
0
0
0
0
0
0
0
0
0
0
0
0
0
0
0
0
0
0
0
0
0
0
0
0
0
0
0
0
0
0
0
0
0
0
0
0
0
0
0
0
0
0
0
0
0
0
0
0
0
0
0
0
0
0
0
0
0
0
0
0
0
0
0
0
0
0
0
0
0
0
0
0
0
0
0
0
0
0
0
0
0
0
0
0
0
0
0
0
0
0
0
0
0
0
0
0
0
0
0
0
0
0
0
0
0
0
0
0
0
0
0
0
0
0
0
0
0
0
0
0
0
0
0
0
0
0
0
0
0
0
0
0
0
0
0
0
0
0
0
0
0
0
0
0
0
0
0
0
0
0
0
0
0
0
0
0
0
0
0
0
0
0
0
0
0
0
0
0
0
0
0
0
0
0
0
0
0
0
0
0
0
0
0
0
0
0
0
0
0
0
0
0
0
0
0
0
0
0
0
0
0
0
0
0
0
0
0
0
0
0
0
0
0
0
0
0
0
0
0
0
0
0
0
0
0
0
0
0
0
0
0
0
0
0
0
0
0
0
0
0
0
0
0
0
0
0
0
0
0
0
0
0
0
0
0
0
0
0
0
0
0
0
0
0
0
0
0
0
0
0
0
0
0
0
0
0
0
0
0
0
0
0
0
0
0
0
0
0
0
0
0
0
0
0
0
0
0
0
0
0
0
0
0
0
0
0
0
0
0
0
0
0
0
0
0
0
0
0
0
0
0
0
0
0
0
0
0
0
0
0
0
0
0
0
0
0
0
0
0
0
0
0
0
0
0
0
0
0
0
0
0
0
0
0
0
0
0
0
0
0
0
0
0
0
0
0
0
0
0
0
0
0
0
0
0
0
0
0
0
0
0
0
0
0
0
0
0
0
0
0
0
0
0
0
0
0
0
0
0
0
0
0
0
0
0
0
0
0
0
0
0
0
0
0
0
0
0
0
0
0
0
0
0
0
0
0
0
0
0
0
0
0
0
0
0
0
0
0
0
0
0
0
0
0
0
0
0
0
0
0
0
0
0
0
0
0
0
0
0
0
0
0
0
0
0
0
0
0
0
0
0
0
0
0
0
0
0
0
0
0
0
0
0
0
0
0
0
0
0
0
0
0
0
0
0
0
0
0
0
0
0
0
0
0
0
0
0
0
0
0
0
0
0
0
0
0
0
0
0
0
0
0
0
0
0
0
0
0
0
0
0
0
0
0
0
0
0
0
0
0
0
0
0
0
0
0
0
0
0
0
0
0
0
0
0
0
0
0
0
0
0
0
0
0
0
0
0
0
0
0
0
0
0
0
0
0
0
0
0
0
0
0
0
0
0
0
0
0
0
0
0
0
0
0
0
0
0
0
0
0
0
0
0
0
0
0
0
0
0
0
0
0
0
0
0
0
0
0
0
0
0
0
0
0
0
0
0
0
0
0
0
0
0
0
0
0
0
0
0
0
0
0
0
0
0
0
0
0
0
0
0
0
0
0
0
0
0
0
0
0
0
0
0
0
0
0
0
0
0
0
0
0
0
0
0
0
0
0
0
0
0
0
0
0
0
0
0
0
0
0
0
0
0
0
0
0
0
0
0
0
0
0
0
0
0
0
0
0
0
0
0
0
0
0
0
0
0
0
0
0
0
0
0
0
0
0
0
0
0
0
0
0
0
0
0
0
0
0
0
0
0
0
0
0
0
0
0
0
0
0
0
0
0
0
0
0
0
0
0
0
0
0
0
0
0
0
0
0
0
0
0
0
0
0
0
0
0
0
0
0
0
0
0
0
0
0
0
0
0
0
0
0
0
0
0
0
0
0
0
0
0
0
0
0
0
0
0
0
0
0
0
0
0
0
0
0
0
0
0
0
0
0
0
0
0
0
0
0
0
0
0
0
0
0
0
0
0
0
0
0
0
0
0
0
0
0
0
0
0
0
0
0
0
0
0
0
0
0
0
0
0
0
0
0
0
0
0
0
0
0
0
0
0
0
0
0
0
0
0
0
0
0
0
0
0
0
0
0
0
0
0
0
0
0
0
0
0
0
0
0
0
0
0
0
0
0
0
0
0
0
0
0
0
0
0
0
0
0
0
0
0
0
0
0
0
0
0
0
0
0
0
0
0
0
0
0
0
0
0
0
0
0
0
0
0
0
0
0
0
0
0
0
0
0
0
0
0
0
0
0
0
0
0
0
0
0
0
0
0
0
0
0
0
0
0
0
0
0
0
0
0
0
0
0
0
0
0
0
0
0
0
0
0
0
0
0
0
0
0
0
0
0
0
0
0
0
0
0
0
0
0
0
0
0
0
0
0
0
0
0
0
0
0
0
0
0
0
0
0
0
0
0
0
0
0
0
0
0
0
0
0
0
0
0
0
0
0
0
0
0
0
0
0
0
0
0
0
0
0
0
0
0
0
0
0
0
0
0
0
0
0
0
0
0
0
0
0
0
0
0
0
0
0
0
0
0
0
0
0
0
0
0
0
0
0
0
0
0
0
0
0
0
0
0
0
0
0
0
0
0
0
0
0
0
0
0
0
0
0
0
0
0
0
0
0
0
0
0
0
0
0
0
0
0
0
0
0
0
0
0
0
0
0
0
0
0
0
0
0
0
0
0
0
0
0
0
0
0
0
0
0
0
0
0
0
0
0
0
0
0
0
0
0
0
0
0
0
0
0
0
0
0
0
0
0
0
0
0
0
0
0
0
0
0
0
0
0
0
0
0
0
0
0
0
0
0
0
0
0
0
0
0
0
0
0
0
0
0
0
0
0
0
0
0
0
0
0
0
0
0
0
0
0
0
0
0
0
0
0
0
0
0
0
0
0
0
0
0
0
0
0
0
0
0
0
0
0
0
0
0
0
0
0
0
0
0
0
0
0
0
0
0
0
0
0
0
0
0
0
0
0
0
0
0
0
0
0
0
0
0
0
0
0
0
0
0
0
0
0
0
0
0
0
0
0
0
0
0
0
0
0
0
0
0
0
0
0
0
0
0
0
0
0
0
0
0
0
0
0
0
0
0
0
0
0
0
0
0
0
0
0
0
0
0
0
0
0
0
0
0
0
0
0
0
0
0
0
0
0
0
0
0
0
0
0
0
0
0
0
0
0
0
0
0
0
0
0
0
0
0
0
0
0
0
0
0
0
0
0
0
0
0
0
0
0
0
0
0
0
0
0
0
0
0
0
0
0
0
0
0
0
0
0
0
0
0
0
0
0
0
0
0
0
0
0
0
0
0
0
0
0
0
0
0
0
0
0
0
0
0
0
0
0
0
0
0
0
0
0
0
0
0
0
0
0
0
0
0
0
0
0
0
0
0
0
0
0
0
0
0
0
0
0
0
0
0
0
0
0
0
0
0
0
0
0
0
0
0
0
0
0
0
0
0
0
0
0
0
0
0
0
0
0
0
0
0
0
0
0
0
0
0
0
0
0
0
0
0
0
0
0
0
0
0
0
0
0
0
0
0
0
0
0
0
0
0
0
0
0
0
0
0
0
0
0
0
0
0
0
0
0
0
0
0
0
0
0
0
0
0
0
0
0
0
0
0
0
0
0
0
0
0
0
0
0
0
0
0
0
0
0
0
0
0
0
0
0
0
0
0
0
0
0
0
0
0
0
0
0
0
0
0
0
0
0
0
0
0
0
0
0
0
0
0
0
0
0
0
0
0
0
0
0
0
0
0
0
0
0
0
0
0
0
0
0
0
0
0
0
0
0
0
0
0
0
0
0
0
0
0
0
0
0
0
0
0
0
0
0
0
0
0
0
0
0
0
0
0
0
0
0
0
0
0
0
0
0
0
0
0
0
0
0
0
0
0
0
0
0
0
0
0
0
0
0
0
0
0
0
0
0
0
0
0
0
0
0
0
0
0
0
0
0
0
0
0
0
0
0
0
0
0
0
0
0
0
0
0
0
0
0
0
0
0
0
0
0
0
0
0
0
0
0
0
0
0
0
0
0
0
0
0
0
0
0
0
0
0
0
0
0
0
0
0
0
0
0
0
0
0
0
0
0
0
0
0
0
0
0
0
0
0
0
0
0
0
0
0
0
0
0
0
0
0
0
0
0
0
0
0
0
0
0
0
0
0
0
0
0
0
0
0
0
0
0
0
0
0
0
0
0
0
0
0
0
0
0
0
0
0
0
0
0
0
0
0
0
0
0
0
0
0
0
0
0
0
0
0
0
0
0
0
0
0
0
0
0
0
0
0
0
0
0
0
0
0
0
0
0
0
0
0
0
0
0
0
0
0
0
0
0
0
0
0
0
0
0
0
0
0
0
0
0
0
0
0
0
0
0
0
0
0
0
0
0
0
0
0
0
0
0
0
0
0
0
0
0
0
0
0
0
0
0
0
0
0
0
0
0
0
0
0
0
0
0
