-0.527473
-0.498929
-0.47299
-0.454675
-0.444727
-0.601191
0
1.85113
5.13163
9.46339
13.925
17.324
18.6719
17.6232
14.6283
10.7007
6.93548
4.06434
2.2755
1.33791
0.881758
0.757219
0.675905
0.615557
0.583026
0.582848
0.61667
0.682706
0.775404
0.885597
1.00132
1.10987
1.19979
1.26306
1.29663
1.30278
1.28806
1.26136
1.2317
1.20624
1.18871
1.18074
1.18385
1.19916
1.22745
1.26907
1.32358
1.3895
1.46407
1.54365
1.62369
1.69996
1.76932
1.83036
1.8834
1.93018
1.973
2.01394
2.05424
2.09424
2.13377
2.17295
2.21309
2.25717
2.31047
2.38752
2.51806
2.7152
2.93973
3.13335
3.24378
3.24083
3.11889
2.89273
2.59538
2.27776
1.99967
1.79389
1.65717
1.57041
1.51897
1.49873
1.51018
1.55664
1.63065
1.7113
1.77627
1.80672
1.79238
1.73444
1.64494
1.54343
1.45222
1.38833
1.35484
1.35068
1.37525
1.432
1.51264
1.60205
1.68428
1.74616
1.78015
1.78537
1.76697
1.73435
1.69898
1.67135
1.65813
1.66397
1.69211
1.74671
1.82957
1.93646
2.05471
2.16392
2.24332
2.2767
2.2557
2.18234
2.07008
1.94269
1.83029
1.76308
1.75877
1.81198
1.90994
2.0455
2.21438
2.41377
2.6392
2.8827
3.13028
3.35963
3.548
3.67205
3.70791
3.63768
3.459
3.1913
2.87322
2.55108
2.26522
2.02496
1.81942
1.64162
1.49187
1.37232
1.28511
1.23199
1.21307
1.2248
1.25606
1.28543
1.28794
1.24025
1.12484
0.933691
0.670618
0.351504
0.00201941
0
1.04194
3.45809
7.16116
11.5582
15.6737
18.4711
19.245
17.8941
14.9371
11.2658
7.76856
5.02235
3.18983
2.1244
1.57665
1.49791
1.41885
1.3371
1.25052
1.1574
1.06005
0.967069
0.889973
0.839836
0.823911
0.84364
0.894632
0.968329
1.05445
1.14302
1.22799
1.30575
1.37424
1.43312
1.48373
1.52869
1.57127
1.61459
1.6608
1.71047
1.76252
1.81429
1.86255
1.90478
1.94023
1.97061
2.00009
2.03466
2.08095
2.14487
2.22914
2.3337
2.45759
2.59895
2.7463
2.8821
2.98938
3.05574
3.07609
3.05311
2.99556
2.91518
2.82353
2.7302
2.64049
2.5573
2.48285
2.41876
2.36638
2.32704
2.29892
2.2746
2.24457
2.19953
2.133
2.04302
1.9325
1.80813
1.67844
1.5519
1.43402
1.32812
1.23841
1.16821
1.12015
1.0959
1.09688
1.12323
1.17369
1.24603
1.33381
1.41978
1.48131
1.49668
1.45017
1.33772
1.17046
0.973505
0.779763
0.62067
0.508784
0.433239
0.385983
0.36776
0.372081
0.388425
0.407285
0.422412
0.431945
0.438
0.444958
0.457204
0.477354
0.504625
0.537302
0.574159
0.614332
0.657568
0.703997
0.753593
0.805642
0.858546
0.910137
0.95846
1.00276
1.0443
1.08672
1.13725
1.22286
1.4359
1.82657
2.27455
2.62553
2.75843
2.6309
2.29093
1.85263
1.44641
1.1614
0.964906
0.798116
0.64354
0.497937
0.362476
0.240453
0.136116
0.0537527
0
-0.00450077
0.0460739
0.110534
0.130147
0.0478901
-0.168745
-0.511562
-0.930485
-1.3211
-0.376554
2.31335
6.53216
11.4279
15.7916
18.5111
18.9813
17.2778
14.0341
10.1236
6.34592
3.25178
1.12452
0.0272373
-0.167833
0.0635565
0.244664
0.338144
0.331308
0.241516
0.11206
-0.0016655
-0.0509445
-0.0193195
0.0604418
0.190804
0.361183
0.543301
0.703704
0.815974
0.865156
0.85046
0.786071
0.698867
0.621939
0.584645
0.599762
0.654235
0.731137
0.82105
0.915633
1.01005
1.10382
1.19977
1.30149
1.41305
1.52887
1.63589
1.71896
1.76777
1.78206
1.7726
1.75745
1.75534
1.77876
1.82353
1.88712
1.95777
2.02197
2.06923
2.09531
2.10296
2.09966
2.09381
2.09096
2.09146
2.09244
2.09011
2.08078
2.06204
2.03349
1.99667
1.95466
1.91137
1.86997
1.83267
1.80063
1.77384
1.75063
1.72847
1.70501
1.67914
1.65182
1.62632
1.6079
1.60249
1.61504
1.64816
1.70129
1.77074
1.8504
1.93288
2.01071
2.07641
2.12446
2.15138
2.15591
2.13905
2.10396
2.05549
1.99957
1.94235
1.88925
1.84365
1.80766
1.78293
1.77042
1.7706
1.7837
1.80984
1.8491
1.90141
1.96686
2.04566
2.13605
2.22901
2.30951
2.36232
2.37761
2.35605
2.31104
2.26657
2.25046
2.2855
2.37571
2.50391
2.65834
2.8289
3.00478
3.1764
3.3364
3.47742
3.58838
3.65953
3.68364
3.65373
3.56562
3.42089
3.22842
3.00346
2.7644
2.52865
2.30629
2.10027
1.91425
1.75029
1.60928
1.49097
1.39515
1.32089
1.26179
1.20275
1.12535
1.01143
0.845002
0.611926
0.322223
0
-0.14145
0.993313
3.8535
8.27098
13.3739
17.8725
20.5842
20.9188
19.0576
15.7631
11.9747
8.44055
5.56168
3.44729
2.05416
1.28813
1.3021
1.33016
1.36114
1.39321
1.4242
1.45231
1.47689
1.49857
1.51934
1.54232
1.57125
1.60977
1.66127
1.73006
1.82214
1.93863
2.05988
2.15518
2.19312
2.15281
2.0338
1.86018
1.67596
1.53242
1.47156
1.48347
1.5544
1.67368
1.82439
1.98767
2.14707
2.29426
2.42669
2.54283
2.64313
2.72917
2.80282
2.86596
2.91976
2.96475
3.00122
3.02942
3.04967
3.06248
3.06858
3.06888
3.06425
3.05541
3.04271
3.02609
3.00509
2.979
2.94719
2.90943
2.86614
2.81859
2.76879
2.71933
2.6731
2.6329
2.60101
2.57889
2.56713
2.56615
2.57346
2.58222
2.58452
2.57341
2.54486
2.49891
2.43957
2.37349
2.30808
2.24936
2.19965
2.16014
2.13198
2.11566
2.1114
2.11916
2.1389
2.17044
2.21332
2.2679
2.33378
2.40474
2.46842
2.51031
2.51726
2.48154
2.40364
2.29315
2.16707
2.04664
1.95112
1.88901
1.86507
1.90705
2.06599
2.35007
2.6768
2.95906
3.1316
3.16524
3.06819
2.87929
2.65998
2.48701
2.43518
2.50472
2.655
2.85117
3.08173
3.32247
3.5472
3.73285
3.8631
3.92945
3.93035
3.869
3.75155
3.5864
3.38903
3.17378
2.95344
2.74043
2.54566
2.37582
2.2395
2.14191
2.07798
2.03735
2.00688
1.9729
1.92292
1.84649
1.73535
1.58194
1.32107
0.954761
0.501985
0
0.00132942
1.47171
4.80972
9.70201
15.0931
19.5408
21.7982
21.327
18.4751
14.2523
9.8528
6.19899
3.71343
2.35813
1.83076
1.79774
1.75819
1.71319
1.65862
1.59248
1.51555
1.43151
1.34648
1.26805
1.20393
1.16066
1.14423
1.16259
1.2181
1.29619
1.37497
1.43303
1.45477
1.43376
1.3734
1.28536
1.18662
1.09613
1.02772
0.986691
0.976063
0.998601
1.05358
1.13698
1.24214
1.36085
1.48449
1.60526
1.7162
1.81144
1.88778
1.94417
1.98171
2.00355
2.0145
2.02035
2.02679
2.03813
2.05646
2.08104
2.10575
2.12076
2.11537
2.08104
2.01381
1.91566
1.79436
1.66192
1.53212
1.41629
1.31943
1.24396
1.19366
1.1675
1.15816
1.15708
1.15689
1.15314
1.14497
1.13418
1.12351
1.11461
1.10673
1.09706
1.08155
1.05625
1.01856
0.968135
0.907083
0.839712
0.771944
0.710039
0.660846
0.630354
0.623095
0.641293
0.684202
0.747859
0.825661
0.908692
0.987308
1.05282
1.0988
1.12188
1.122
1.10214
1.06769
1.02576
0.984296
0.950521
0.930276
0.927722
0.945116
0.982062
1.03728
1.10537
1.17737
1.24423
1.29885
1.33764
1.36112
1.37346
1.38107
1.39076
1.40785
1.43462
1.47133
1.51767
1.57292
1.63648
1.70821
1.78867
1.88047
1.98663
2.10132
2.20827
2.28672
2.31825
2.29317
2.21318
2.0896
1.93871
1.77714
1.61868
1.46983
1.33359
1.2123
1.10735
1.01887
0.94495
0.88061
0.817332
0.745063
0.654275
0.536959
0.38398
0.200693
0
-0.250435
0.520816
2.91886
7.01496
12.0855
16.7804
19.6875
19.9845
17.7973
14.0719
10.0722
6.81621
4.73928
3.69327
3.19688
2.7558
2.38395
2.049
1.75518
1.5142
1.34323
1.23985
1.18962
1.17411
1.17625
1.18413
1.19243
1.20134
1.21361
1.23146
1.25372
1.27743
1.2975
1.30875
1.30788
1.29496
1.27386
1.25156
1.23658
1.23698
1.25776
1.29881
1.35876
1.43552
1.52526
1.62317
1.72346
1.82004
1.90764
1.98248
2.04282
2.08904
2.12334
2.14907
2.16981
2.18852
2.20676
2.22449
2.24007
2.25071
2.25357
2.24693
2.2313
2.20991
2.18838
2.17361
2.17198
2.18957
2.23082
2.28966
2.35163
2.40003
2.42072
2.40566
2.35412
2.27175
2.16831
2.05531
1.94399
1.84155
1.75321
1.68371
1.63615
1.61168
1.60938
1.62644
1.65852
1.70025
1.74566
1.78837
1.82109
1.83811
1.83637
1.81687
1.78446
1.75053
1.72869
1.73056
1.76751
1.83414
1.91524
1.99255
2.05271
2.09246
2.11904
2.14607
2.18748
2.2507
2.331
2.4247
2.52909
2.63956
2.74885
2.84819
2.9293
2.98539
3.01225
3.00921
2.97956
2.93055
2.87261
2.81805
2.77848
2.76168
2.77266
2.81457
2.88704
2.98622
3.10553
3.23669
3.37092
3.50014
3.61791
3.71742
3.79036
3.82917
3.82853
3.78441
3.69529
3.56341
3.39546
3.20219
2.99706
2.79406
2.60409
2.43293
2.28521
2.16276
2.06497
1.98899
1.92943
1.8791
1.82986
1.7731
1.69941
1.58058
1.33664
0.977455
0.548051
0
0.331794
2.30988
6.20099
11.4275
16.6422
20.2582
21.1598
19.2001
15.2177
10.592
6.60649
3.96275
2.65369
2.18656
1.96256
1.53965
1.14437
0.803824
0.543284
0.380757
0.32171
0.356318
0.46077
0.602294
0.7464
0.866507
0.956098
1.01901
1.05743
1.07596
1.08183
1.08353
1.08948
1.10608
1.13697
1.18389
1.24686
1.32413
1.41239
1.5073
1.60366
1.69524
1.77616
1.84253
1.8931
1.9297
1.9571
1.98215
2.01232
2.054
2.11097
2.18217
2.26391
2.35203
2.44184
2.52864
2.60864
2.67947
2.74017
2.79076
2.83102
2.85943
2.87371
2.87047
2.84534
2.79452
2.71636
2.61278
2.4898
2.35722
2.22727
2.11153
2.01786
1.95294
1.92415
1.93559
1.98686
2.07294
2.17912
2.27767
2.33993
2.34148
2.26627
2.11192
1.89305
1.63954
1.38838
1.17223
0.999008
0.85723
0.739379
0.645784
0.578463
0.538396
0.527534
0.548009
0.60081
0.692208
0.827145
0.987173
1.1384
1.24792
1.2941
1.27313
1.1995
1.10014
1.00476
0.936107
0.898522
0.883019
0.882566
0.893911
0.915224
0.945725
0.985712
1.03677
1.10211
1.18594
1.28777
1.39286
1.47819
1.52171
1.51144
1.45279
1.37091
1.30564
1.2995
1.38211
1.54097
1.75282
1.99157
2.22392
2.41886
2.55411
2.61866
2.61122
2.53653
2.40174
2.21451
1.99031
1.74119
1.47616
1.20511
0.93888
0.686666
0.455532
0.253415
0.0926098
0
0.00386009
0.117069
0.26173
0.345836
0.289763
0.0524448
-0.351618
-0.854331
-1.36002
-0.734689
1.54762
5.47572
10.3262
14.8638
17.8287
18.4586
16.7777
13.5118
9.70655
6.2743
3.70445
2.03961
1.05439
0.47537
0.337901
0.240467
0.161278
0.103333
0.066703
0.0490738
0.0468479
0.0565044
0.0757759
0.103916
0.141985
0.192258
0.256896
0.336869
0.430891
0.535283
0.645169
0.753614
0.852251
0.932776
0.989108
1.01787
1.01874
0.994364
0.949733
0.891227
0.825447
0.758105
0.693209
0.632543
0.576144
0.523437
0.473537
0.425583
0.379006
0.333626
0.289643
0.247535
0.207997
0.171897
0.140187
0.113794
0.0934788
0.0796688
0.0722759
0.0706165
0.0732056
0.0776573
0.0806133
0.0776081
0.0633823
0.0332993
-0.0160721
-0.0860291
-0.175014
-0.278371
-0.38882
-0.497249
-0.594356
-0.672211
-0.725473
-0.751999
-0.752788
-0.731368
-0.692875
-0.643666
-0.589402
-0.534407
-0.482053
-0.434885
-0.395411
-0.365804
-0.345995
-0.334553
-0.328483
-0.323304
-0.313611
-0.294184
-0.261295
-0.213687
-0.15314
-0.0835518
-0.00807114
0.0708115
0.151795
0.234605
0.319238
0.405026
0.489619
0.568579
0.636742
0.690122
0.727895
0.753555
0.774683
0.801274
0.843017
0.906384
0.991036
1.09432
1.20609
1.31228
1.39965
1.45941
1.48939
1.49413
1.48317
1.46813
1.45971
1.46355
1.48061
1.51032
1.55119
1.60028
1.65327
1.70556
1.75265
1.79029
1.81427
1.81944
1.79838
1.74533
1.65537
1.52608
1.35934
1.16234
0.947438
0.73033
0.527172
0.349764
0.21068
0.113331
0.048484
0
-0.00565109
-0.0329529
-0.142458
-0.467588
-0.951516
-1.49932
-1.9889
-1.43124
0.555817
3.98714
8.29704
12.5403
15.7539
17.2525
16.7769
14.5362
11.1659
7.54627
4.48289
2.40386
1.28285
0.818941
0.756017
0.720782
0.68849
0.658751
0.631272
0.605955
0.582909
0.562427
0.544939
0.530994
0.52122
0.516246
0.516544
0.522208
0.532723
0.546683
0.561792
0.575211
0.584084
0.586198
0.580567
0.567786
0.550065
0.53094
0.514724
0.505821
0.508417
0.526148
0.561972
0.618139
0.696174
0.79759
0.927441
1.09573
1.29536
1.49083
1.63667
1.69094
1.63076
1.46238
1.22058
0.957586
0.72692
0.551493
0.419226
0.328567
0.281474
0.277335
0.314512
0.390894
0.499687
0.623199
0.73832
0.822705
0.858564
0.836192
0.756253
0.629999
0.477151
0.32185
0.185424
0.0771456
0.000507355
-0.0408209
-0.0465022
-0.0187236
0.0362722
0.105209
0.17205
0.222188
0.245017
0.235771
0.196156
0.133517
0.0586943
-0.0168255
-0.0844116
-0.139974
-0.181332
-0.208591
-0.223255
-0.227298
-0.222586
-0.210751
-0.192718
-0.170628
-0.147232
-0.125161
-0.105973
-0.0893448
-0.0729366
-0.0531162
-0.026276
0.00995674
0.0559124
0.110291
0.171307
0.237999
0.310974
0.39208
0.483096
0.587894
0.699628
0.800566
0.869508
0.890968
0.863392
0.801941
0.733953
0.68902
0.688473
0.724736
0.788341
0.874111
0.974994
1.0832
1.19076
1.28676
1.35989
1.39923
1.39632
1.34779
1.25695
1.13346
0.990672
0.841855
0.696418
0.557473
0.427126
0.306945
0.19854
0.104327
0.0268036
-0.0313316
-0.0632179
-0.0686256
-0.0641106
-0.072551
-0.115772
-0.206283
-0.341758
-0.50495
-0.759373
0
2.26487
6.09952
10.8986
15.4629
18.4378
18.9271
16.9252
13.2851
9.24848
5.84914
3.54547
2.24047
1.56798
1.21234
1.14808
1.08518
1.02259
0.959824
0.896571
0.83318
0.771449
0.715131
0.669579
0.640976
0.63514
0.656432
0.706985
0.786388
0.891685
1.01763
1.15648
1.30015
1.44161
1.575
1.69632
1.80386
1.89805
1.98067
2.05158
2.10973
2.15303
2.17819
2.18461
2.17805
2.17176
2.18368
2.23085
2.32361
2.45403
2.61107
2.78733
2.97463
3.16511
3.35194
3.52498
3.67291
3.78317
3.84233
3.84051
3.77627
3.65922
3.50866
3.34922
3.20536
3.08997
3.00346
2.94577
2.92655
2.96468
3.07416
3.2298
3.38621
3.49711
3.52867
3.469
3.33107
3.14903
2.96908
2.83574
2.76202
2.73257
2.73023
2.74615
2.7708
2.79636
2.81811
2.83433
2.84492
2.8497
2.84738
2.83549
2.81154
2.77434
2.72495
2.66665
2.60413
2.54239
2.48521
2.43473
2.39304
2.36205
2.34317
2.33718
2.34392
2.36216
2.38977
2.42322
2.45819
2.49048
2.51661
2.53466
2.54515
2.55107
2.55759
2.57123
2.59864
2.64519
2.71355
2.80285
2.90803
3.02149
3.13496
3.24018
3.33029
3.3997
3.44594
3.47001
3.47514
3.46595
3.44726
3.42306
3.39506
3.36192
3.31853
3.25707
3.16968
3.05136
2.90213
2.72771
2.53872
2.34883
2.17101
2.01266
1.89541
1.87586
1.99012
2.17366
2.32928
2.36626
2.23792
1.95489
1.56778
1.13465
0.696497
0.267335
-0.154762
-0.571447
0
2.03864
5.84135
10.8984
16.0012
19.7065
20.9661
19.5708
16.178
11.9478
8.0146
5.07925
3.27978
2.33203
1.79996
1.36954
0.985281
0.625678
0.30039
0.0164478
-0.222109
-0.413926
-0.559562
-0.660645
-0.719477
-0.739818
-0.72844
-0.686144
-0.624266
-0.563519
-0.52469
-0.523012
-0.563976
-0.64249
-0.74567
-0.857795
-0.965221
-1.06187
-1.14755
-1.22261
-1.28758
-1.3433
-1.39015
-1.42794
-1.45546
-1.47041
-1.46975
-1.45025
-1.40944
-1.34647
-1.26053
-1.1522
-1.03235
-0.919423
-0.832083
-0.784845
-0.784841
-0.830058
-0.908733
-0.999401
-1.07152
-1.08737
-1.01095
-0.811971
-0.472049
0.0046176
0.592624
1.26185
1.98434
2.72945
3.46515
4.16192
4.79607
5.35183
5.82203
6.20732
6.51426
6.75294
6.93275
7.06111
7.14473
7.18971
7.19997
7.17787
7.12545
7.04542
6.94172
6.81967
6.68561
6.54629
6.40789
6.27501
6.15008
6.03351
5.92359
5.8164
5.70644
5.58803
5.45663
5.30989
5.14823
4.97481
4.79475
4.61404
4.43806
4.27014
4.11087
3.95961
3.81453
3.67325
3.53374
3.39511
3.25802
3.12512
3.00069
2.88932
2.79472
2.71855
2.65983
2.61513
2.5795
2.54771
2.51546
2.48019
2.44098
2.39829
2.35357
2.309
2.2674
2.23231
2.20781
2.19814
2.20869
2.24677
2.31714
2.41861
2.53857
2.64916
2.72053
2.72291
2.62616
2.40819
2.07008
1.6479
1.21046
0.838265
0.578584
0.398656
0.260871
0.154252
0.0705818
0
-0.0656937
-0.15881
-0.300092
-0.504372
-0.780351
-1.11693
-1.48806
-1.96234
-1.01517
1.77822
5.85616
9.91388
12.743
13.9176
13.7433
12.6725
10.8956
8.48952
5.78869
3.41351
1.87207
1.19798
1.00733
0.68948
0.362908
0.0297028
-0.274319
-0.490852
-0.562193
-0.458511
-0.197946
0.150439
0.486185
0.715991
0.82733
0.856236
0.831262
0.790723
0.76755
0.778054
0.811681
0.859534
0.917
0.983824
1.06539
1.17107
1.31027
1.48773
1.69872
1.92866
2.16463
2.39252
2.60002
2.779
2.92664
3.04521
3.14074
3.22105
3.29408
3.36637
3.44191
3.52293
3.61006
3.70267
3.7992
3.89765
3.99588
4.09203
4.1846
4.2725
4.35447
4.42843
4.49154
4.54107
4.57428
4.58948
4.58742
4.57217
4.5512
4.5345
4.53259
4.5588
4.63727
4.76149
4.8955
4.99581
5.03022
4.99177
4.90038
4.79169
4.69972
4.64384
4.61495
4.60169
4.6016
4.61384
4.63872
4.67735
4.73086
4.79908
4.88252
4.98056
5.08604
5.18244
5.25132
5.27722
5.25287
5.18264
5.08211
4.97345
4.87861
4.81349
4.77577
4.75993
4.76606
4.79406
4.84644
4.92909
5.03945
5.15454
5.24332
5.27415
5.22419
5.08656
4.87262
4.60875
4.32945
4.06951
3.85794
3.71475
3.65021
3.66586
3.75603
3.90875
4.10616
4.32557
4.54254
4.73949
4.91029
5.05944
5.19575
5.32801
5.4678
5.62791
5.82048
6.05272
6.33328
6.72273
7.27259
7.87302
8.3895
8.71697
8.82002
8.74171
8.57753
8.42884
8.35847
8.35095
8.35866
8.36298
8.35061
8.31202
8.24191
8.14368
8.02727
7.90688
7.87837
9.11812
11.2211
13.4635
15.0629
15.698
15.6465
15.4586
15.475
15.5881
15.3924
14.5678
13.1729
11.628
10.4236
9.81107
9.56513
9.35695
9.16716
9.00208
8.86501
8.74803
8.63947
8.52804
8.40721
8.27811
8.14977
8.03632
7.95257
7.90687
7.90361
7.94077
8.01116
8.10481
8.2113
8.32177
8.43095
8.53558
8.63311
8.72049
8.7927
8.84406
8.86862
8.86112
8.81897
8.74419
8.64435
8.53085
8.4214
8.33373
8.28168
8.27224
8.3046
8.37122
8.46059
8.56044
8.66051
8.7551
8.84111
8.91632
8.97884
9.02533
9.05292
9.0587
9.04056
8.99829
8.9342
8.85307
8.76123
8.6651
8.56968
8.47709
8.38707
8.29729
8.20415
8.10396
7.99415
7.8742
7.74623
7.61444
7.48428
7.36246
7.25719
7.17038
7.09889
7.03556
6.9713
6.89729
6.80652
6.69428
6.55811
6.39885
6.22289
6.03442
5.83836
5.6413
5.451
5.27559
5.12255
4.9979
4.9074
4.86057
4.86191
4.89308
4.93043
4.95128
4.94017
4.89302
4.81741
4.729
4.64569
4.58103
4.53494
4.50428
4.48694
4.47914
4.47582
4.47135
4.46092
4.44158
4.41296
4.37759
4.34058
4.30868
4.28893
4.28793
4.31041
4.35612
4.42085
4.49739
4.57576
4.64196
4.68172
4.68257
4.6356
4.53722
4.39039
4.20458
3.99432
3.77632
3.56613
3.37192
3.19708
3.04493
2.91667
2.81175
2.72894
2.66526
2.61503
2.57147
2.52725
2.47234
2.36285
1.96504
1.3396
0.604072
-0.105165
-0.522558
0
2.02015
5.68681
10.602
15.7796
19.9506
22.0321
21.5386
18.7478
14.5546
10.0926
6.30494
3.65697
2.10353
1.28824
0.913835
0.955152
1.01722
1.11419
1.23894
1.37017
1.48139
1.55115
1.57056
1.54467
1.48765
1.41513
1.33818
1.26167
1.18691
1.11526
1.04906
0.991521
0.946352
0.917031
0.907126
0.91957
0.950539
0.98837
1.01951
1.03265
1.02229
0.990434
0.945763
0.900739
0.867921
0.854412
0.861034
0.890076
0.942212
1.01694
1.11522
1.24299
1.39702
1.55531
1.69051
1.77934
1.81308
1.80359
1.78059
1.78054
1.84516
1.98991
2.16783
2.30268
2.32503
2.20456
1.96392
1.66952
1.40432
1.23494
1.14023
1.08534
1.06272
1.06534
1.08461
1.11139
1.13673
1.15232
1.15121
1.1282
1.08034
1.00721
0.910901
0.795609
0.666926
0.530934
0.393504
0.259471
0.133064
0.0181725
-0.0810555
-0.159909
-0.214594
-0.242341
-0.237929
-0.196595
-0.12765
-0.0444824
0.0389748
0.111996
0.169523
0.212323
0.244999
0.272888
0.299331
0.324654
0.347612
0.366561
0.380661
0.390775
0.399888
0.412866
0.435665
0.473774
0.531059
0.610706
0.717578
0.849237
0.989173
1.11871
1.22309
1.29673
1.34575
1.38682
1.44267
1.55688
1.83563
2.28163
2.75926
3.13733
3.33782
3.34549
3.19222
2.9323
2.62169
2.3063
2.01227
1.74052
1.48646
1.24759
1.02395
0.817755
0.632181
0.469876
0.332094
0.218201
0.126427
0.0524513
-0.011763
-0.0749298
-0.144637
-0.227687
-0.324308
-0.429565
-0.675533
0
2.19922
6.01628
10.8268
15.3946
18.3696
18.9019
17.0097
13.4939
9.48817
5.94689
3.35416
1.73335
0.838815
0.370761
0.270969
0.185306
0.123232
0.0910637
0.0905167
0.118764
0.169357
0.233739
0.302959
0.369216
0.427418
0.47451
0.509746
0.534513
0.552163
0.566955
0.584385
0.609832
0.64756
0.699932
0.767076
0.847088
0.93677
1.03253
1.13116
1.23009
1.32717
1.41961
1.50381
1.57561
1.63111
1.66843
1.68927
1.69958
1.70866
1.72722
1.76465
1.82492
1.90669
2.00689
2.12299
2.25171
2.38963
2.53448
2.68227
2.82341
2.94379
3.02733
3.06105
3.04081
2.97471
2.88174
2.78568
2.70658
2.65031
2.61153
2.58234
2.55252
2.51356
2.46175
2.39918
2.33246
2.27017
2.21979
2.18283
2.15927
2.14957
2.15309
2.16837
2.19345
2.22592
2.26233
2.29842
2.33011
2.35423
2.36914
2.37519
2.3746
2.37108
2.36885
2.37167
2.38136
2.39772
2.41947
2.44298
2.4616
2.46843
2.45886
2.43281
2.39332
2.35686
2.34438
2.37434
2.45588
2.58529
2.74727
2.92058
3.08553
3.23363
3.36624
3.48548
3.59597
3.70191
3.80693
3.90747
3.99109
4.04136
4.04519
3.99921
3.91274
3.80625
3.70538
3.63276
3.59453
3.59645
3.62084
3.63881
3.61902
3.53672
3.38028
3.15384
2.87574
2.57413
2.28012
2.01224
1.77661
1.5776
1.41952
1.30465
1.23473
1.20465
1.19199
1.17023
1.11241
0.976199
0.664455
0.195709
-0.364871
-0.773607
0
2.47203
6.63902
11.7946
16.6909
19.9964
20.8305
19.0964
15.4589
11.0177
6.86422
3.72623
1.81794
0.911879
0.555154
0.301053
0.0713974
-0.128056
-0.283807
-0.385091
-0.425293
-0.346309
-0.0714203
0.323926
0.709154
0.971661
1.04672
0.931564
0.68138
0.389328
0.156369
0.0540115
0.0368805
0.0466309
0.0591522
0.0513
0.00664978
-0.0788498
-0.19481
-0.319202
-0.425356
-0.478822
-0.448248
-0.367722
-0.301418
-0.311812
-0.428581
-0.63333
-0.86703
-1.05533
-1.13724
-1.12038
-1.04663
-0.917049
-0.733669
-0.500497
-0.216905
0.13289
0.529193
0.918335
1.24681
1.47686
1.59295
1.59896
1.51161
1.35655
1.16757
0.984198
0.839525
0.745277
0.689754
0.657863
0.635889
0.610718
0.574673
0.528122
0.478615
0.436966
0.412068
0.406088
0.412286
0.424307
0.434467
0.435854
0.424002
0.397774
0.359444
0.314107
0.268568
0.229071
0.200902
0.187325
0.189662
0.205968
0.230695
0.255814
0.272939
0.275293
0.259215
0.225099
0.177626
0.125264
0.0790527
0.0508408
0.0503525
0.0819229
0.14483
0.235748
0.350684
0.483551
0.623375
0.75686
0.872664
0.963675
1.02836
1.07089
1.10002
1.12696
1.16279
1.21619
1.2902
1.38325
1.49221
1.61363
1.74361
1.87816
2.01306
2.14296
2.26034
2.35528
2.41711
2.43445
2.39755
2.30131
2.14802
1.94873
1.7225
1.4931
1.28354
1.10644
0.962363
0.852841
0.774873
0.722237
0.687074
0.661168
0.636633
0.605087
0.558479
0.489546
0.392632
0.264897
0.107433
-0.163306
0
1.63233
5.11956
10.0842
15.3946
19.5615
21.3677
20.3971
17.1672
12.8132
8.53398
5.12892
2.84945
1.54998
0.950339
0.962611
1.03723
1.10105
1.13536
1.12726
1.07358
0.982491
0.871727
0.763902
0.680261
0.631445
0.612828
0.619658
0.64905
0.697034
0.759885
0.834571
0.919963
1.0164
1.12611
1.25632
1.40995
1.56512
1.69045
1.75781
1.7564
1.70005
1.62278
1.56448
1.55447
1.59741
1.6699
1.75911
1.86075
1.97206
2.09196
2.22322
2.37074
2.52789
2.67055
2.76776
2.79574
2.75065
2.65323
2.54202
2.45781
2.42626
2.43701
2.46602
2.49792
2.51763
2.51437
2.48408
2.42962
2.35907
2.28288
2.21091
2.14866
2.09793
2.05906
2.03138
2.01323
2.00222
1.99558
1.99049
1.98443
1.97547
1.9623
1.94416
1.92063
1.89125
1.85521
1.81111
1.75681
1.68982
1.60787
1.50962
1.3932
1.25635
1.1094
0.971654
0.863331
0.799057
0.782997
0.807748
0.857396
0.913171
0.959046
0.989564
1.00582
1.00727
0.994987
0.971212
0.939045
0.902261
0.865223
0.832797
0.810211
0.802074
0.812529
0.844906
0.900616
0.980109
1.08397
1.20218
1.31762
1.41336
1.47756
1.50685
1.50717
1.49153
1.47561
1.47271
1.49729
1.5426
1.58493
1.59549
1.55258
1.45014
1.29935
1.12319
0.947324
0.791748
0.659232
0.544776
0.445721
0.361528
0.291479
0.234499
0.188785
0.151614
0.119009
0.0845963
0.0401344
-0.0220963
-0.107347
-0.216632
-0.345872
-0.4864
-0.777834
0
2.47905
6.73954
12.0353
16.9941
20.1625
20.638
18.4458
14.4635
9.95847
6.02206
3.20781
1.51703
0.640684
0.241641
0.175359
0.111014
0.0483078
-0.0121841
-0.0699303
-0.12437
-0.174817
-0.220375
-0.259864
-0.29165
-0.314071
-0.3255
-0.3246
-0.310539
-0.28307
-0.242473
-0.189388
-0.124711
-0.0482574
0.0422501
0.14464
0.242579
0.313187
0.334272
0.294535
0.201157
0.079882
-0.0332245
-0.104893
-0.118539
-0.0942841
-0.0447754
0.0176071
0.0765793
0.118811
0.137588
0.134744
0.120214
0.109162
0.117412
0.156535
0.227393
0.320643
0.427459
0.537842
0.640951
0.727345
0.790507
0.827678
0.83996
0.831804
0.810045
0.782678
0.757495
0.740607
0.736403
0.748718
0.775246
0.805318
0.825858
0.825545
0.798629
0.74709
0.680469
0.613359
0.561387
0.535993
0.537369
0.564065
0.615095
0.676208
0.730964
0.766391
0.777551
0.769432
0.755168
0.750982
0.773033
0.830951
0.907619
0.972668
0.99654
0.963445
0.877166
0.758213
0.635172
0.534883
0.467608
0.428102
0.411132
0.413345
0.431924
0.463915
0.506785
0.559001
0.620326
0.691779
0.775272
0.873018
0.988273
1.12667
1.29741
1.50251
1.71183
1.88215
1.97183
1.95728
1.84781
1.68933
1.5501
1.49185
1.53961
1.64043
1.75905
1.86514
1.93405
1.95255
1.91969
1.84322
1.73418
1.60301
1.46085
1.31577
1.17284
1.03663
0.910965
0.799419
0.701638
0.613324
0.527345
0.43539
0.330048
0.206695
0.0646679
-0.0925419
-0.258061
0
1.50941
4.73574
9.49111
14.7566
19.023
20.9792
20.1454
17.0661
12.9686
9.13064
6.34211
4.72885
3.94072
3.50151
3.21565
2.97935
2.77225
2.6038
2.47999
2.40313
2.372
2.38251
2.42837
2.50201
2.5946
2.69848
2.80764
2.91785
3.02697
3.13473
3.24153
3.34764
3.45235
3.5528
3.64399
3.7197
3.77427
3.80447
3.81105
3.79935
3.77885
3.76147
3.75914
3.77995
3.8258
3.89329
3.97954
4.07792
4.18117
4.28316
4.37997
4.4701
4.55357
4.62965
4.69633
4.74925
4.78182
4.78717
4.76085
4.7031
4.62005
4.5233
4.42814
4.34918
4.2953
4.27343
4.28969
4.34687
4.43608
4.54252
4.64968
4.74213
4.80756
4.83775
4.82875
4.78073
4.69755
4.58724
4.45888
4.32222
4.18689
4.06072
3.94816
3.85261
3.77822
3.72814
3.70463
3.70932
3.74491
3.81207
3.90609
4.01595
4.1259
4.21901
4.2803
4.29863
4.26809
4.18849
4.06531
3.9089
3.73329
3.55481
3.39118
3.26103
3.17967
3.15778
3.19953
3.30132
3.45193
3.63422
3.82808
4.01375
4.17899
4.31645
4.42003
4.48706
4.51815
4.51679
4.48881
4.44163
4.38354
4.32294
4.26639
4.21787
4.17947
4.15275
4.13518
4.11516
4.07743
4.00701
3.89364
3.73505
3.53755
3.31381
3.07875
2.8452
2.61878
2.40214
2.1981
2.0081
1.83148
1.66735
1.51666
1.38614
1.28091
1.06608
0.672539
0.166341
0
1.00581
3.69781
8.02556
13.1578
17.704
20.289
20.1771
17.59
13.5333
9.26134
5.72012
3.28264
1.85567
1.17979
1.19341
1.41432
1.61785
1.77119
1.85198
1.85382
1.78713
1.67478
1.54473
1.42317
1.32254
1.24344
1.1893
1.16424
1.17293
1.21503
1.28405
1.37031
1.46225
1.54644
1.61014
1.64348
1.64114
1.60371
1.53843
1.45679
1.38144
1.33774
1.34846
1.4288
1.61024
1.92537
2.30957
2.67956
2.9664
3.13352
3.17933
3.1275
3.0126
2.86964
2.73121
2.61948
2.54133
2.49796
2.48883
2.51338
2.56997
2.65675
2.76584
2.88469
2.99983
3.09854
3.17011
3.20652
3.20272
3.15679
3.07015
2.9486
2.80246
2.64342
2.48371
2.33562
2.20958
2.11367
2.05791
2.05589
2.11487
2.2151
2.32615
2.41732
2.46417
2.45269
2.38025
2.25408
2.08882
1.90428
1.7228
1.56269
1.44104
1.37089
1.35854
1.40196
1.491
1.60961
1.73941
1.8633
1.97065
2.05843
2.12231
2.15997
2.1708
2.15595
2.11851
2.06374
1.99853
1.93219
1.87538
1.83762
1.82555
1.84186
1.88525
1.95143
2.03492
2.13102
2.23695
2.35182
2.47949
2.63259
2.82395
3.031
3.21138
3.31874
3.32306
3.22333
3.04557
2.82842
2.60684
2.40233
2.21599
2.0457
1.89306
1.76132
1.65318
1.5711
1.5165
1.48567
1.46721
1.44629
1.40684
1.33396
1.21248
0.989362
0.671494
0.281953
-0.146068
0
1.4284
4.52578
9.00389
13.8511
17.6927
19.4069
18.6301
15.856
12.1077
8.42486
5.47349
3.44391
2.18959
1.44665
1.18216
1.02539
0.888165
0.774434
0.686205
0.62359
0.585085
0.568027
0.569116
0.584846
0.611595
0.64572
0.683835
0.721759
0.753233
0.771623
0.771346
0.749608
0.707942
0.652736
0.59444
0.545631
0.518437
0.519185
0.546762
0.600546
0.678206
0.774779
0.883305
0.99585
1.10421
1.20135
1.28242
1.34545
1.39154
1.42461
1.4507
1.47691
1.51097
1.56389
1.65086
1.77949
1.92816
2.05623
2.12179
2.09389
1.9624
1.74397
1.48198
1.23759
1.07062
0.997717
0.987853
1.01195
1.05847
1.1173
1.17959
1.23921
1.29301
1.34032
1.38216
1.42044
1.45705
1.49317
1.52901
1.56367
1.59484
1.61916
1.633
1.63329
1.61839
1.5889
1.54795
1.50086
1.4543
1.4148
1.38692
1.37604
1.3812
1.38687
1.36985
1.30626
1.17908
0.984361
0.72883
0.439326
0.161894
-0.0593185
-0.195404
-0.240125
-0.208556
-0.128131
-0.0267563
0.0763809
0.175169
0.270262
0.362497
0.452231
0.539513
0.624251
0.706595
0.78743
0.868753
0.953787
1.04672
1.1534
1.28694
1.47248
1.7239
1.99853
2.23247
2.37017
2.38046
2.26174
2.03748
1.74667
1.43448
1.14658
0.910661
0.726799
0.586118
0.481329
0.41725
0.401761
0.429251
0.473343
0.503806
0.493056
0.421668
0.281301
0.0744095
-0.188593
-0.493242
-0.824002
-1.1645
-1.08731
0
2.63617
6.97656
12.3732
17.4648
20.697
21.0518
18.552
14.2285
9.5746
5.83442
3.53938
2.49943
2.14893
1.94821
1.61274
1.28791
0.989652
0.733698
0.535023
0.404895
0.347904
0.360143
0.429236
0.536405
0.660314
0.781771
0.890409
0.98496
1.06731
1.13923
1.202
1.25721
1.30647
1.35121
1.39239
1.4303
1.4643
1.49286
1.51402
1.52565
1.5261
1.51503
1.49396
1.46663
1.43882
1.41766
1.41034
1.42265
1.45817
1.51725
1.59648
1.68946
1.78932
1.88962
1.9849
2.07138
2.14712
2.21179
2.266
2.31039
2.34479
2.36748
2.37501
2.36328
2.32777
2.26487
2.17332
2.05509
1.91565
1.76321
1.60746
1.45774
1.32042
1.19824
1.09236
1.00328
0.930462
0.872885
0.829478
0.799303
0.781629
0.776068
0.781648
0.796044
0.815099
0.832197
0.838011
0.823207
0.779955
0.703752
0.59497
0.459684
0.309377
0.159466
0.0802013
0.374126
0.949605
1.55524
1.89492
1.78413
1.25571
0.544069
-0.0361763
-0.230021
-0.0424717
0.186216
0.405338
0.598179
0.753334
0.867795
0.947387
1.00526
1.0587
1.12502
1.2172
1.3375
1.48208
1.64533
1.81847
1.98776
2.13977
2.26423
2.3559
2.41528
2.44796
2.46283
2.46988
2.47789
2.49305
2.51901
2.55176
2.57726
2.57745
2.53534
2.43977
2.289
2.09196
1.86698
1.63785
1.42835
1.24967
1.10019
0.985563
0.90434
0.836896
0.758176
0.64391
0.476508
0.248869
-0.0348198
-0.360977
-0.71558
0
2.06404
5.6431
10.3925
15.4597
19.6944
22.0448
21.9524
19.5476
15.5592
11.0078
6.85303
3.74256
1.91588
1.24384
1.34641
1.35954
1.36607
1.36175
1.34514
1.31786
1.28384
1.24814
1.21568
1.18994
1.17344
1.1676
1.17309
1.18964
1.21714
1.25529
1.30356
1.36107
1.42691
1.49976
1.57771
1.65856
1.73919
1.81642
1.88806
1.95367
2.01484
2.07482
2.13734
2.20523
2.27913
2.35677
2.43401
2.50594
2.56752
2.6145
2.64403
2.65462
2.6464
2.62107
2.58144
2.53116
2.47449
2.41592
2.35993
2.31021
2.26908
2.23717
2.21353
2.19575
2.18097
2.16688
2.15239
2.138
2.12549
2.11714
2.11483
2.11892
2.12853
2.14045
2.14933
2.1494
2.13595
2.10646
2.06107
2.00225
1.93386
1.85989
1.78345
1.70629
1.62887
1.55112
1.47306
1.3953
1.31936
1.24765
1.18317
1.12885
1.08703
1.05911
1.04492
1.04293
1.0502
1.06107
1.06925
1.06916
1.05721
1.03253
0.997159
0.955564
0.91364
0.877528
0.85179
0.839124
0.841026
0.857823
0.888702
0.931947
0.985232
1.04586
1.11096
1.17771
1.24326
1.3053
1.36258
1.41525
1.46499
1.51472
1.56797
1.62799
1.69701
1.77551
1.86205
1.95444
2.04932
2.14041
2.21446
2.25549
2.24465
2.16413
2.00373
1.76737
1.47611
1.16495
0.873985
0.636574
0.44837
0.310175
0.216182
0.15254
0.103508
0.0556034
0
-0.0674549
-0.148084
-0.242753
-0.353302
-0.48086
-0.626968
-0.790906
-0.969171
-1.39332
-0.802182
1.45363
5.30489
9.97312
14.3439
17.413
18.5342
17.5034
14.622
10.7065
6.84896
3.91832
2.1433
1.15255
0.436675
0.095327
-0.197413
-0.473721
-0.724618
-0.938342
-1.11144
-1.23634
-1.30366
-1.30803
-1.25319
-1.15276
-1.02642
-0.894445
-0.773167
-0.667088
-0.579972
-0.516021
-0.477769
-0.465848
-0.478988
-0.514312
-0.567842
-0.634967
-0.710336
-0.788391
-0.86401
-0.931423
-0.98477
-1.01867
-1.02908
-1.01412
-0.974657
-0.914336
-0.839204
-0.756891
-0.675668
-0.604904
-0.553796
-0.527789
-0.528995
-0.556062
-0.604446
-0.667271
-0.736732
-0.805824
-0.869859
-0.927634
-0.980882
-1.03145
-1.0812
-1.13127
-1.18166
-1.23137
-1.27895
-1.32328
-1.36448
-1.40399
-1.44516
-1.493
-1.55282
-1.62886
-1.72297
-1.83374
-1.95622
-2.08241
-2.20239
-2.30583
-2.38509
-2.43496
-2.45202
-2.42632
-2.34102
-2.2089
-2.07168
-1.974
-1.9497
-2.01116
-2.14644
-2.32523
-2.50967
-2.66503
-2.77748
-2.85445
-2.89725
-2.89683
-2.86371
-2.825
-2.81079
-2.84517
-2.93842
-3.08297
-3.25475
-3.41948
-3.54226
-3.60839
-3.62717
-3.59909
-3.53005
-3.44619
-3.37589
-3.34097
-3.35036
-3.39851
-3.46906
-3.542
-3.60089
-3.64025
-3.66376
-3.6738
-3.67089
-3.65438
-3.62202
-3.57032
-3.48898
-3.35221
-3.14969
-2.92527
-2.73721
-2.63557
-2.64604
-2.76799
-2.98501
-3.27976
-3.642
-4.06023
-4.50562
-4.95415
-5.38855
-5.79508
-6.16026
-6.44751
-6.62051
-6.70953
-6.76523
-6.83902
-6.96356
-7.14242
-7.35322
-7.5624
-7.74355
-7.89415
-8.03289
-7.71718
15
171
328
487
644
803
962
1120
1276
1434
1592
1751
2068
2224
2378
2532
2687
2838
2987
3137
3288
3441
3598
3704
3524
3663
0
0
0
0
0
0
0
0
0
0
0
0
0
0
0
0
0
0
0
0
0
0
0
0
0
0
0
0
0
0
0
0
0
0
0
0
0
0
0
0
0
0
0
0
0
0
0
0
0
0
0
0
0
0
0
0
0
0
0
0
0
0
0
0
0
0
0
0
0
0
0
0
0
0
0
0
0
0
0
0
0
0
0
0
0
0
0
0
0
0
0
0
0
0
0
0
0
0
0
0
0
0
0
0
0
0
0
0
0
0
0
0
0
0
0
0
0
0
0
0
0
0
0
0
0
0
0
0
0
0
0
0
0
0
0
0
0
0
0
0
0
0
0
0
0
0
0
0
0
0
0
0
0
0
0
0
0
0
0
0
0
0
0
0
0
0
0
0
0
0
0
0
0
0
0
0
0
0
0
0
0
0
0
0
0
0
0
0
0
0
0
0
0
0
0
0
0
0
0
0
0
0
0
0
0
0
0
0
0
0
0
0
0
0
0
0
0
0
0
0
0
0
0
0
0
0
0
0
0
0
0
0
0
0
0
0
0
0
0
0
0
0
0
0
0
0
0
0
0
0
0
0
0
0
0
0
0
0
0
0
0
0
0
0
0
0
0
0
0
0
0
0
0
0
0
0
0
0
0
0
0
0
0
0
0
0
0
0
0
0
0
0
0
0
0
0
0
0
0
0
0
0
0
0
0
0
0
0
0
0
0
0
0
0
0
0
0
0
0
0
0
0
0
0
0
0
0
0
0
0
0
0
0
0
0
0
0
0
0
0
0
0
0
0
0
0
0
0
0
0
0
0
0
0
0
0
0
0
0
0
0
0
0
0
0
0
0
0
0
0
0
0
0
0
0
0
0
0
0
0
0
0
0
0
0
0
0
0
0
0
0
0
0
0
0
0
0
0
0
0
0
0
0
0
0
0
0
0
0
0
0
0
0
0
0
0
0
0
0
0
0
0
0
0
0
0
0
0
0
0
0
0
0
0
0
0
0
0
0
0
0
0
0
0
0
0
0
0
0
0
0
0
0
0
0
0
0
0
0
0
0
0
0
0
0
0
0
0
0
0
0
0
0
0
0
0
0
0
0
0
0
0
0
0
0
0
0
0
0
0
0
0
0
0
0
0
0
0
0
0
0
0
0
0
0
0
0
0
0
0
0
0
0
0
0
0
0
0
0
0
0
0
0
0
0
0
0
0
0
0
0
0
0
0
0
0
0
0
0
0
0
0
0
0
0
0
0
0
0
0
0
0
0
0
0
0
0
0
0
0
0
0
0
0
0
0
0
0
0
0
0
0
0
0
0
0
0
0
0
0
0
0
0
0
0
0
0
0
0
0
0
0
0
0
0
0
0
0
0
0
0
0
0
0
0
0
0
0
0
0
0
0
0
0
0
0
0
0
0
0
0
0
0
0
0
0
0
0
0
0
0
0
0
0
0
0
0
0
0
0
0
0
0
0
0
0
0
0
0
0
0
0
0
0
0
0
0
0
0
0
0
0
0
0
0
0
0
0
0
0
0
0
0
0
0
0
0
0
0
0
0
0
0
0
0
0
0
0
0
0
0
0
0
0
0
0
0
0
0
0
0
0
0
0
0
0
0
0
0
0
0
0
0
0
0
0
0
0
0
0
0
0
0
0
0
0
0
0
0
0
0
0
0
0
0
0
0
0
0
0
0
0
0
0
0
0
0
0
0
0
0
0
0
0
0
0
0
0
0
0
0
0
0
0
0
0
0
0
0
0
0
0
0
0
0
0
0
0
0
0
0
0
0
0
0
0
0
0
0
0
0
0
0
0
0
0
0
0
0
0
0
0
0
0
0
0
0
0
0
0
0
0
0
0
0
0
0
0
0
0
0
0
0
0
0
0
0
0
0
0
0
0
0
0
0
0
0
0
0
0
0
0
0
0
0
0
0
0
0
0
0
0
0
0
0
0
0
0
0
0
0
0
0
0
0
0
0
0
0
0
0
0
0
0
0
0
0
0
0
0
0
0
0
0
0
0
0
0
0
0
0
0
0
0
0
0
0
0
0
0
0
0
0
0
0
0
0
0
0
0
0
0
0
0
0
0
0
0
0
0
0
0
0
0
0
0
0
0
0
0
0
0
0
0
0
0
0
0
0
0
0
0
0
0
0
0
0
0
0
0
0
0
0
0
0
0
0
0
0
0
0
0
0
0
0
0
0
0
0
0
0
0
0
0
0
0
0
0
0
0
0
0
0
0
0
0
0
0
0
0
0
0
0
0
0
0
0
0
0
0
0
0
0
0
0
0
0
0
0
0
0
0
0
0
0
0
0
0
0
0
0
0
0
0
0
0
0
0
0
0
0
0
0
0
0
0
0
0
0
0
0
0
0
0
0
0
0
0
0
0
0
0
0
0
0
0
0
0
0
0
0
0
0
0
0
0
0
0
0
0
0
0
0
0
0
0
0
0
0
0
0
0
0
0
0
0
0
0
0
0
0
0
0
0
0
0
0
0
0
0
0
0
0
0
0
0
0
0
0
0
0
0
0
0
0
0
0
0
0
0
0
0
0
0
0
0
0
0
0
0
0
0
0
0
0
0
0
0
0
0
0
0
0
0
0
0
0
0
0
0
0
0
0
0
0
0
0
0
0
0
0
0
0
0
0
0
0
0
0
0
0
0
0
0
0
0
0
0
0
0
0
0
0
0
0
0
0
0
0
0
0
0
0
0
0
0
0
0
0
0
0
0
0
0
0
0
0
0
0
0
0
0
0
0
0
0
0
0
0
0
0
0
0
0
0
0
0
0
0
0
0
0
0
0
0
0
0
0
0
0
0
0
0
0
0
0
0
0
0
0
0
0
0
0
0
0
0
0
0
0
0
0
0
0
0
0
0
0
0
0
0
0
0
0
0
0
0
0
0
0
0
0
0
0
0
0
0
0
0
0
0
0
0
0
0
0
0
0
0
0
0
0
0
0
0
0
0
0
0
0
0
0
0
0
0
0
0
0
0
0
0
0
0
0
0
0
0
0
0
0
0
0
0
0
0
0
0
0
0
0
0
0
0
0
0
0
0
0
0
0
0
0
0
0
0
0
0
0
0
0
0
0
0
0
0
0
0
0
0
0
0
0
0
0
0
0
0
0
0
0
0
0
0
0
0
0
0
0
0
0
0
0
0
0
0
0
0
0
0
0
0
0
0
0
0
0
0
0
0
0
0
0
0
0
0
0
0
0
0
0
0
0
0
0
0
0
0
0
0
0
0
0
0
0
0
0
0
0
0
0
0
0
0
0
0
0
0
0
0
0
0
0
0
0
0
0
0
0
0
0
0
0
0
0
0
0
0
0
0
0
0
0
0
0
0
0
0
0
0
0
0
0
0
0
0
0
0
0
0
0
0
0
0
0
0
0
0
0
0
0
0
0
0
0
0
0
0
0
0
0
0
0
0
0
0
0
0
0
0
0
0
0
0
0
0
0
0
0
0
0
0
0
0
0
0
0
0
0
0
0
0
0
0
0
0
0
0
0
0
0
0
0
0
0
0
0
0
0
0
0
0
0
0
0
0
0
0
0
0
0
0
0
0
0
0
0
0
0
0
0
0
0
0
0
0
0
0
0
0
0
0
0
0
0
0
0
0
0
0
0
0
0
0
0
0
0
0
0
0
0
0
0
0
0
0
0
0
0
0
0
0
0
0
0
0
0
0
0
0
0
0
0
0
0
0
0
0
0
0
0
0
0
0
0
0
0
0
0
0
0
0
0
0
0
0
0
0
0
0
0
0
0
0
0
0
0
0
0
0
0
0
0
0
0
0
0
0
0
0
0
0
0
0
0
0
0
0
0
0
0
0
0
0
0
0
0
0
0
0
0
0
0
0
0
0
0
0
0
0
0
0
0
0
0
0
0
0
0
0
0
0
0
0
0
0
0
0
0
0
0
0
0
0
0
0
0
0
0
0
0
0
0
0
0
0
0
0
0
0
0
0
0
0
0
0
0
0
0
0
0
0
0
0
0
0
0
0
0
0
0
0
0
0
0
0
0
0
0
0
0
0
0
0
0
0
0
0
0
0
0
0
0
0
0
0
0
0
0
0
0
0
0
0
0
0
0
0
0
0
0
0
0
0
0
0
0
0
0
0
0
0
0
0
0
0
0
0
0
0
0
0
0
0
0
0
0
0
0
0
0
0
0
0
0
0
0
0
0
0
0
0
0
0
0
0
0
0
0
0
0
0
0
0
0
0
0
0
0
0
0
0
0
0
0
0
0
0
0
0
0
0
0
0
0
0
0
0
0
0
0
0
0
0
0
0
0
0
0
0
0
0
0
0
0
0
0
0
0
0
0
0
0
0
0
0
0
0
0
0
0
0
0
0
0
0
0
0
0
0
0
0
0
0
0
0
0
0
0
0
0
0
0
0
0
0
0
0
0
0
0
0
0
0
0
0
0
0
0
0
0
0
0
0
0
0
0
0
0
0
0
0
0
0
0
0
0
0
0
0
0
0
0
0
0
0
0
0
0
0
0
0
0
0
0
0
0
0
0
0
0
0
0
0
0
0
0
0
0
0
0
0
0
0
0
0
0
0
0
0
0
0
0
0
0
0
0
0
0
0
0
0
0
0
0
0
0
0
0
0
0
0
0
0
0
0
0
0
0
0
0
0
0
0
0
0
0
0
0
0
0
0
0
0
0
0
0
0
0
0
0
0
0
0
0
0
0
0
0
0
0
0
0
0
0
0
0
0
0
0
0
0
0
0
0
0
0
0
0
0
0
0
0
0
0
0
0
0
0
0
0
0
0
0
0
0
0
0
0
0
0
0
0
0
0
0
0
0
0
0
0
0
0
0
0
0
0
0
0
0
0
0
0
0
0
0
0
0
0
0
0
0
0
0
0
0
0
0
0
0
0
0
0
0
0
0
0
0
0
0
0
0
0
0
0
0
0
0
0
0
0
0
0
0
0
0
0
0
0
0
0
0
0
0
0
0
0
0
0
0
0
0
0
0
0
0
0
0
0
0
0
0
0
0
0
0
0
0
0
0
0
0
0
0
0
0
0
0
0
0
0
0
0
0
0
0
0
0
0
0
0
0
0
0
0
0
0
0
0
0
0
0
0
0
0
0
0
0
0
0
0
0
0
0
0
0
0
0
0
0
0
0
0
0
0
0
0
0
0
0
0
0
0
0
0
0
0
0
0
0
0
0
0
0
0
0
0
0
0
0
0
0
0
0
0
0
0
0
0
0
0
0
0
0
0
0
0
0
0
0
0
0
0
0
0
0
0
0
0
0
0
0
0
0
0
0
0
0
0
0
0
0
0
0
0
0
0
0
0
0
0
0
0
0
0
0
0
0
0
0
0
0
0
0
0
0
0
0
0
0
0
0
0
0
0
0
0
0
0
0
0
0
0
0
0
0
0
0
0
0
0
0
0
0
0
0
0
0
0
0
0
0
0
0
0
0
0
0
0
0
0
0
0
0
0
0
0
0
0
0
0
0
0
0
0
0
0
0
0
0
0
0
0
0
0
0
0
0
0
0
0
0
0
0
0
0
0
0
0
0
0
0
0
0
0
0
0
0
0
0
0
0
0
0
0
0
0
0
0
0
0
0
0
0
0
0
0
0
0
0
0
0
0
0
0
0
0
0
0
0
0
0
0
0
0
0
0
0
0
0
0
0
0
0
0
0
0
0
0
0
0
0
0
0
0
0
0
0
0
0
0
0
0
0
0
0
0
0
0
0
0
0
0
0
0
0
0
0
0
0
0
0
0
0
0
0
0
0
0
0
0
0
0
0
0
0
0
0
0
0
0
0
0
0
0
0
0
0
0
0
0
0
0
0
0
0
0
0
0
0
0
0
0
0
0
0
0
0
0
0
0
0
0
0
0
0
0
0
0
0
0
0
0
0
0
0
0
0
0
0
0
0
0
0
0
0
0
0
0
0
0
0
0
0
0
0
0
0
0
0
0
0
0
0
0
0
0
0
0
0
0
0
0
0
0
0
0
0
0
0
0
0
0
0
0
0
0
0
0
0
0
0
0
0
0
0
0
0
0
0
0
0
0
0
0
0
0
0
0
0
0
0
0
0
0
0
0
0
0
0
0
0
0
0
0
0
0
0
0
0
0
0
0
0
0
0
0
0
0
0
0
0
0
0
0
0
0
0
0
0
0
0
0
0
0
0
0
0
0
0
0
0
0
0
0
0
0
0
0
0
0
0
0
0
0
0
0
0
0
0
0
0
0
0
0
0
0
0
0
0
0
0
0
0
0
0
0
0
0
0
0
0
0
0
0
0
0
0
0
0
0
0
0
0
0
0
0
0
0
0
0
0
0
0
0
0
0
0
0
0
0
0
0
0
0
0
0
0
0
0
0
0
0
0
0
0
0
0
0
0
0
0
0
0
0
0
0
0
0
0
0
0
0
0
0
0
0
0
0
0
0
0
0
0
0
0
0
0
0
0
0
0
0
0
0
0
0
0
0
0
0
0
0
0
0
0
0
0
0
0
0
0
0
0
0
0
0
0
0
0
0
0
0
0
0
0
0
0
0
0
0
0
0
0
0
0
0
0
0
0
0
0
0
0
0
0
0
0
0
0
0
0
0
0
0
0
0
0
0
0
0
0
0
0
0
0
0
0
0
0
0
0
0
0
0
0
0
0
0
0
0
0
0
0
0
0
0
0
0
0
0
0
0
0
0
0
0
0
0
0
0
0
0
0
0
0
0
0
0
0
0
0
0
0
0
0
0
0
0
0
0
0
0
0
0
0
0
0
0
0
0
0
0
0
0
0
0
0
0
0
0
0
0
0
0
0
0
0
0
0
0
0
0
0
0
0
0
0
0
0
0
0
0
0
0
0
0
0
0
0
0
0
0
0
0
0
0
0
0
0
0
0
0
0
0
0
0
0
0
0
0
0
0
0
0
0
0
0
0
0
0
0
0
0
0
0
0
0
0
0
0
0
0
0
0
0
0
0
0
0
0
0
0
0
0
0
0
0
0
0
0
0
0
0
0
0
0
0
0
0
0
0
0
0
0
0
0
0
0
0
0
0
0
0
0
0
0
0
0
0
0
0
0
0
0
0
0
0
0
0
0
0
0
0
0
0
0
0
0
0
0
0
0
0
0
0
0
0
0
0
0
0
0
0
0
0
0
0
0
0
0
0
0
0
0
0
0
0
0
0
0
0
0
0
0
0
0
0
0
0
0
0
0
0
0
0
0
0
0
0
0
0
0
0
0
0
0
0
0
0
0
0
0
0
0
0
0
0
0
0
0
0
0
0
0
0
0
0
0
0
0
0
0
0
0
0
0
0
0
0
0
0
0
0
0
0
0
0
0
0
0
0
0
0
0
0
0
0
0
0
0
0
0
0
0
0
0
0
0
0
0
0
0
0
0
0
0
0
0
0
0
0
0
0
0
0
0
0
0
0
0
0
0
0
0
0
0
0
0
0
0
0
0
0
0
0
0
0
0
0
0
0
0
0
0
0
0
0
0
0
0
0
0
0
0
0
0
0
0
0
0
0
0
0
0
0
0
0
0
0
0
0
0
0
0
0
0
0
0
0
0
0
0
0
0
0
0
0
0
0
0
0
0
0
0
0
0
0
0
0
0
0
0
0
0
0
0
0
0
0
0
0
0
0
0
0
0
0
0
0
0
0
0
0
0
0
0
0
0
0
0
0
0
0
0
0
0
0
0
0
0
0
0
0
0
0
0
0
0
0
0
0
0
0
0
0
0
0
0
0
0
0
0
0
0
0
0
0
0
0
0
0
0
0
0
0
0
0
0
0
0
0
0
0
0
0
0
0
0
0
0
0
0
0
0
0
0
0
0
0
0
0
0
0
0
0
0
0
0
0
0
0
0
0
0
0
0
0
0
0
0
0
0
0
0
0
0
0
0
0
0
0
0
0
0
0
0
0
0
0
0
0
0
0
0
0
0
0
0
0
0
0
0
0
0
0
0
0
0
0
0
0
0
0
0
0
0
0
0
0
0
0
0
0
0
0
0
0
0
0
0
0
0
0
0
0
0
0
0
0
0
0
0
0
0
0
0
0
0
0
0
0
0
0
0
0
0
0
0
0
0
0
0
0
0
0
0
0
0
0
0
0
0
0
0
0
0
0
0
0
0
0
0
0
0
0
0
0
0
0
0
0
0
0
0
0
0
0
0
0
0
0
0
0
0
0
0
0
0
0
0
0
0
0
0
0
0
0
0
0
0
0
0
0
0
0
0
0
0
0
0
0
0
0
0
0
0
0
0
0
0
0
0
0
0
0
0
0
0
0
0
0
0
0
0
0
0
0
0
0
0
0
0
0
0
0
0
0
0
0
0
0
0
0
0
0
0
0
0
0
0
0
0
0
0
0
0
0
0
0
0
0
0
0
0
0
0
0
0
0
0
0
0
0
0
0
0
0
0
0
0
0
0
0
0
0
0
0
