-0.280206
-0.278091
-0.275584
-0.272549
-0.268834
-0.264311
-0.258899
-0.252585
-0.245445
-0.237657
-0.229503
-0.221352
-0.213634
-0.206799
-0.201256
-0.197324
-0.195203
-0.194925
-0.196364
-0.199252
-0.20322
-0.207854
-0.21275
-0.21757
-0.222054
-0.226025
-0.22935
-0.231891
-0.233444
-0.233713
-0.232298
-0.228751
-0.222665
-0.213824
-0.202318
-0.188687
-0.173996
-0.159911
-0.148647
-0.142479
-0.143311
-0.152179
-0.168903
-0.191963
-0.218697
-0.309935
0
1.03726
3.23817
6.54618
10.3396
13.5564
15.1267
14.4832
11.8411
8.08109
4.31999
1.43276
-0.22265
-0.788693
-0.68425
-0.479501
-0.342184
-0.219206
-0.110657
-0.0126099
0.0780258
0.163017
0.243907
0.321835
0.397621
0.471959
0.545706
0.620045
0.696536
0.77692
0.862796
0.955248
1.05455
1.16002
1.27015
1.38288
1.49599
1.60758
1.71638
1.82197
1.92478
2.02597
2.12719
2.23022
2.33673
2.44802
2.56487
2.68743
2.81516
2.9469
3.08088
3.21482
3.34606
3.4717
3.58881
3.69456
3.78638
3.86206
3.91965
3.95777
3.97563
3.97299
3.95003
3.90741
3.84625
3.76796
3.6743
3.56739
3.44972
3.32417
3.19381
3.06173
2.93081
2.80335
2.68098
2.56474
2.45523
2.35269
2.25721
2.16883
2.08765
2.01375
1.94716
1.88775
1.83514
1.78872
1.74778
1.71164
1.67985
1.65233
1.62944
1.61188
1.60051
1.59611
1.59907
1.6092
1.62566
1.64698
1.67126
1.69648
1.72071
1.74236
1.76022
1.77345
1.78153
1.78414
1.78113
1.77259
1.759
1.74132
1.72108
1.70033
1.68149
1.66704
1.65926
1.65989
1.67005
1.69024
1.72056
1.76103
1.81182
1.87342
1.94673
2.03321
2.13944
2.28457
2.50059
2.77505
3.03723
3.22138
3.27938
3.18989
2.96469
2.64809
2.30658
2.01144
1.80767
1.66648
1.55599
1.46277
1.3822
1.31257
1.25284
1.20233
1.16071
1.12783
1.10369
1.08815
1.0802
1.07643
1.07007
1.05207
1.01265
0.942889
0.83652
0.69137
0.510144
0.300277
0.0727795
-0.217042
0
1.14233
3.50476
6.99126
10.9953
14.5025
16.448
16.1806
13.7853
10.0644
6.17087
3.10232
1.33679
0.780924
0.992867
1.38483
1.55511
1.70345
1.82477
1.9207
1.99387
2.04997
2.09646
2.14089
2.18936
2.24514
2.30855
2.37821
2.45178
2.52653
2.59999
2.67042
2.73703
2.79993
2.8599
2.91809
2.97575
3.03413
3.09437
3.15752
3.22454
3.29622
3.37306
3.45513
3.54198
3.63268
3.72607
3.82097
3.91653
4.01232
4.10824
4.20429
4.30011
4.39457
4.48519
4.5681
4.63885
4.69293
4.72652
4.73699
4.723
4.68425
4.62106
4.53396
4.42383
4.29275
4.14335
3.97862
3.80215
3.61838
3.43241
3.24953
3.07461
2.91159
2.76318
2.6308
2.51472
2.41439
2.32864
2.25598
2.19473
2.14303
2.09842
2.05808
2.01935
1.98013
1.93924
1.89671
1.85376
1.81256
1.77578
1.74585
1.72464
1.71318
1.71131
1.71781
1.73065
1.74716
1.7646
1.78073
1.79419
1.80465
1.81276
1.81975
1.82708
1.83597
1.84714
1.86073
1.87662
1.89457
1.91442
1.93622
1.96031
1.98721
2.01752
2.05186
2.09079
2.13489
2.18476
2.24116
2.30494
2.37699
2.458
2.54928
2.65251
2.76607
2.88159
2.98647
3.06741
3.11314
3.11645
3.07515
2.99206
2.87428
2.73203
2.57734
2.42158
2.27251
2.1335
2.00521
1.88804
1.7823
1.68764
1.60332
1.52841
1.46196
1.40302
1.35054
1.30327
1.25928
1.21528
1.16711
1.10997
1.03764
0.931324
0.742117
0.452736
0.102994
-0.270877
-0.421381
0
1.36665
3.94138
7.56352
11.5398
14.7855
16.2395
15.3612
12.4227
8.40634
4.54961
1.80004
0.484635
0.33632
0.792056
0.953487
1.09601
1.20868
1.28511
1.33548
1.36269
1.37113
1.3655
1.35026
1.32875
1.30366
1.27742
1.25262
1.23217
1.21928
1.21707
1.22821
1.25394
1.29427
1.34872
1.41629
1.49538
1.58405
1.68016
1.78132
1.88499
1.98836
2.08853
2.18258
2.26785
2.3425
2.40581
2.45846
2.50258
2.54157
2.57965
2.62112
2.66966
2.72751
2.79497
2.87122
2.95306
3.03292
3.10193
3.15194
3.17703
3.17407
3.14256
3.08372
2.99945
2.89172
2.76495
2.6226
2.46651
2.299
2.12283
1.94118
1.75764
1.57566
1.39885
1.23114
1.07612
0.936813
0.815276
0.712257
0.627045
0.557601
0.500935
0.453634
0.412335
0.374213
0.337302
0.300399
0.262988
0.225125
0.187318
0.150445
0.115692
0.0844763
0.0583254
0.0386956
0.0267512
0.0231523
0.0278903
0.0402543
0.0588793
0.0819086
0.107211
0.132717
0.156657
0.177842
0.195876
0.211269
0.22541
0.240398
0.258721
0.282847
0.314795
0.355766
0.405953
0.464615
0.530285
0.60112
0.675333
0.751561
0.829083
0.907846
0.988371
1.07158
1.1574
1.24047
1.30903
1.34847
1.34652
1.29837
1.20965
1.09564
0.976736
0.871739
0.789637
0.725137
0.670576
0.621261
0.572389
0.520333
0.463479
0.402408
0.339447
0.277759
0.220259
0.168302
0.121788
0.0797747
0.0402016
0
-0.0596764
-0.128547
-0.21118
-0.311661
-0.439083
-0.608956
-0.814149
-1.03941
-1.37582
-1.11778
0.200433
2.80886
6.47117
10.4137
13.5207
14.7578
13.6371
10.4689
6.24193
2.18458
-0.750894
-2.20667
-2.40868
-1.90271
-1.35853
-0.939325
-0.721301
-0.705587
-0.722999
-0.747139
-0.77267
-0.795372
-0.81233
-0.822307
-0.825129
-0.821201
-0.811333
-0.79651
-0.777688
-0.755646
-0.730883
-0.703543
-0.673369
-0.639688
-0.601485
-0.557558
-0.506772
-0.448335
-0.382045
-0.308412
-0.228635
-0.144404
-0.0576405
0.0297867
0.116265
0.200523
0.281582
0.358622
0.430807
0.497139
0.556287
0.606594
0.646391
0.674082
0.688258
0.687793
0.671872
0.639967
0.591779
0.527212
0.446406
0.350013
0.239096
0.115062
-0.0201969
-0.164355
-0.314812
-0.469003
-0.62466
-0.77995
-0.933528
-1.08448
-1.23216
-1.37595
-1.51506
-1.64837
-1.77443
-1.89151
-1.99769
-2.09104
-2.17006
-2.23407
-2.28315
-2.31816
-2.34056
-2.35224
-2.35518
-2.35114
-2.34143
-2.32691
-2.30807
-2.2851
-2.25828
-2.22806
-2.19506
-2.15983
-2.12262
-2.08319
-2.0408
-1.99428
-1.94231
-1.88366
-1.81755
-1.74369
-1.66224
-1.57377
-1.47909
-1.37913
-1.27482
-1.16704
-1.05657
-0.944092
-0.830127
-0.714996
-0.598743
-0.48106
-0.361229
-0.238136
-0.110324
0.0242027
0.170114
0.339529
0.554797
0.821624
1.09499
1.31915
1.45262
1.4742
1.37881
1.1716
0.86913
0.509712
0.165582
-0.0866631
-0.244894
-0.345344
-0.395446
-0.400756
-0.371441
-0.319893
-0.258242
-0.196471
-0.139816
-0.0905182
-0.0498741
-0.0192261
0.000146484
0.00696259
0
-0.026432
-0.0712563
-0.16128
-0.396469
-0.761914
-1.20954
-1.69423
-1.59716
-0.45079
2.00109
5.56163
9.55088
13.0056
15.0099
15.0086
13.0008
9.56334
5.67121
2.34324
0.248454
-0.519677
-0.365968
0.0731346
0.156404
0.229992
0.294145
0.352832
0.409489
0.466313
0.524754
0.584991
0.646194
0.706763
0.764399
0.816303
0.859895
0.893292
0.915572
0.927042
0.929407
0.925748
0.92028
0.917913
0.923643
0.941492
0.973963
1.02227
1.08641
1.16515
1.25612
1.35617
1.46167
1.56899
1.67484
1.77655
1.87223
1.96084
2.04205
2.11616
2.18377
2.24561
2.30229
2.35414
2.40121
2.44316
2.47929
2.50836
2.52832
2.53626
2.52946
2.50507
2.46059
2.39438
2.30612
2.19699
2.06962
1.92783
1.77611
1.61965
1.46275
1.30918
1.16227
1.02473
0.898549
0.784881
0.68399
0.595294
0.517586
0.449329
0.388947
0.335063
0.286627
0.242942
0.203583
0.168314
0.137016
0.10968
0.0863586
0.0672218
0.0525795
0.0429031
0.0388031
0.0410133
0.0503204
0.0674896
0.0931488
0.127704
0.171259
0.223567
0.284031
0.351714
0.425329
0.503231
0.583507
0.663943
0.742055
0.815354
0.881822
0.940266
0.990619
1.03403
1.07265
1.10922
1.14638
1.18608
1.22899
1.27455
1.3206
1.36395
1.40091
1.42774
1.44105
1.43796
1.41618
1.37411
1.31102
1.22773
1.12604
1.0093
0.88232
0.750923
0.62136
0.499265
0.389079
0.294213
0.216584
0.156598
0.113987
0.0883324
0.0763618
0.0710121
0.0651993
0.0532112
0.0317307
0
-0.0379807
-0.0845192
-0.140643
-0.209443
-0.302293
-0.48898
-0.778532
-1.13814
-1.6522
-1.57183
-0.44798
1.93161
5.38316
9.27274
12.6393
14.5006
14.2475
11.9362
8.30107
4.44977
1.39024
-0.353225
-0.844649
-0.54942
-0.125274
0.0504242
0.201553
0.32178
0.407687
0.459277
0.479865
0.475465
0.453818
0.423234
0.391463
0.364638
0.346104
0.336673
0.336023
0.343564
0.358501
0.379977
0.40729
0.439971
0.477744
0.520404
0.567738
0.619508
0.67553
0.73592
0.801248
0.872636
0.951715
1.04043
1.14071
1.25415
1.38166
1.5233
1.67823
1.84474
2.0203
2.20172
2.38539
2.5668
2.73991
2.8976
3.03321
3.14122
3.21714
3.25775
3.26111
3.2265
3.15449
3.04691
2.90705
2.74018
2.55326
2.35384
2.14901
1.94455
1.74499
1.55413
1.37489
1.20919
1.05806
0.921847
0.800509
0.693919
0.602103
0.525472
0.464365
0.418941
0.388953
0.374268
0.373413
0.382435
0.396651
0.411695
0.424335
0.432923
0.437311
0.438271
0.436694
0.432879
0.426437
0.416253
0.401109
0.380348
0.354375
0.324842
0.294443
0.266391
0.243721
0.228468
0.221969
0.224639
0.236222
0.256158
0.283952
0.319196
0.362024
0.413092
0.473278
0.543552
0.625655
0.722861
0.838845
0.970725
1.1029
1.2139
1.28204
1.29057
1.23159
1.10784
0.932797
0.72898
0.524595
0.343385
0.192581
0.069709
-0.025383
-0.090036
-0.128015
-0.146047
-0.151115
-0.148722
-0.141838
-0.130869
-0.114618
-0.091848
-0.0619766
-0.0286491
0
0.027784
0.0285721
-0.00727844
-0.0857788
-0.208255
-0.384865
-0.602695
-0.842727
-1.02159
-0.631064
0.710017
3.19997
6.64286
10.3671
13.3722
14.6954
13.8391
11.0294
7.14371
3.32806
0.509154
-0.938233
-1.21262
-0.834414
-0.410503
-0.0690826
0.15417
0.273631
0.363911
0.446046
0.52439
0.600653
0.676025
0.751516
0.828046
0.906485
0.987641
1.07215
1.1603
1.25185
1.34584
1.44061
1.53372
1.62239
1.70388
1.77594
1.83715
1.88697
1.92575
1.9545
1.97477
1.9887
1.99866
2.00756
2.01908
2.03761
2.06797
2.11511
2.18359
2.277
2.39744
2.54511
2.71819
2.91284
3.12366
3.34408
3.56743
3.78657
3.99322
4.17795
4.33152
4.44782
4.5211
4.5461
4.51881
4.4377
4.30476
4.12604
3.91147
3.67396
3.42867
3.18666
2.95476
2.73906
2.54474
2.37572
2.23491
2.12347
2.04111
1.98612
1.95651
1.94885
1.95786
1.97807
2.00447
2.03296
2.06054
2.08517
2.10535
2.1196
2.1261
2.12261
2.10655
2.07548
2.02766
1.96254
1.88089
1.78485
1.67754
1.56303
1.44545
1.32856
1.21612
1.11216
1.02066
0.94454
0.886029
0.846535
0.826729
0.826777
0.846668
0.886528
0.946784
1.02893
1.15205
1.3638
1.69777
2.07872
2.4128
2.6341
2.71356
2.65299
2.47586
2.22246
1.94709
1.70785
1.51923
1.35695
1.20536
1.0589
0.916049
0.776929
0.642739
0.515668
0.398582
0.294513
0.206052
0.134954
0.0816288
0.0443283
0.0190155
0
0.00025444
-0.00633488
-0.0254713
-0.0612436
-0.118638
-0.199166
-0.298871
-0.512237
-0.553523
0.0646601
1.69373
4.42897
7.92843
11.4019
13.8376
14.4082
12.8605
9.66472
5.81881
2.40676
0.153597
-0.788476
-0.748888
-0.3017
-0.023357
0.220718
0.415689
0.552865
0.657194
0.730293
0.77321
0.787637
0.775806
0.740502
0.685107
0.613611
0.53056
0.441199
0.350676
0.264835
0.191026
0.135735
0.104596
0.10176
0.129398
0.187502
0.274107
0.385812
0.518426
0.667305
0.826976
0.99298
1.16193
1.33103
1.49784
1.66013
1.81579
1.96268
2.09848
2.22129
2.32962
2.42237
2.49886
2.5589
2.60262
2.63033
2.64231
2.63865
2.61964
2.58579
2.53767
2.47626
2.40331
2.32152
2.23441
2.14599
2.0603
1.98089
1.91037
1.85017
1.80037
1.75989
1.72694
1.69956
1.67603
1.65522
1.6366
1.62011
1.60583
1.5937
1.58336
1.57413
1.56513
1.55551
1.5447
1.5325
1.51911
1.50496
1.49055
1.47623
1.46221
1.44851
1.43524
1.4227
1.41161
1.40314
1.39875
1.39995
1.40797
1.42352
1.4467
1.477
1.51361
1.5557
1.60272
1.65468
1.71228
1.77671
1.84934
1.93163
2.0256
2.13312
2.25252
2.37477
2.48634
2.57353
2.62557
2.63668
2.60665
2.54012
2.44491
2.33036
2.20674
2.0826
1.96313
1.85136
1.74924
1.658
1.57803
1.50843
1.44706
1.39119
1.33806
1.28547
1.23214
1.17782
1.12309
1.06886
1.01582
0.963917
0.912096
0.858007
0.79328
0.663164
0.381957
-0.0314394
-0.510234
-0.672976
0
1.86172
4.97071
8.87464
12.6698
15.2771
15.8656
14.225
10.8808
6.87013
3.29689
0.903482
-0.131335
-0.114008
0.406744
0.51464
0.590506
0.617135
0.594
0.535628
0.464098
0.39989
0.353613
0.321517
0.299988
0.28774
0.283815
0.28766
0.299271
0.319091
0.347717
0.385566
0.43255
0.488141
0.551371
0.620961
0.695571
0.774098
0.855959
0.941287
1.031
1.12667
1.23023
1.34351
1.46771
1.60298
1.74816
1.90075
2.05721
2.21334
2.36481
2.50759
2.63819
2.75317
2.84899
2.92358
2.97569
3.00466
3.01045
2.9937
2.95574
2.89853
2.82457
2.73677
2.63879
2.53423
2.42642
2.31843
2.21298
2.11223
2.0177
1.93029
1.85039
1.7782
1.71371
1.65689
1.60778
1.56635
1.53243
1.50554
1.48486
1.46925
1.45732
1.44759
1.43871
1.42951
1.41912
1.40696
1.3927
1.37621
1.35746
1.33668
1.31441
1.2916
1.2697
1.2507
1.23689
1.23059
1.23373
1.24747
1.27168
1.30536
1.34709
1.39515
1.44783
1.50372
1.56175
1.62124
1.68168
1.74233
1.80142
1.85453
1.89447
1.9125
1.89968
1.84908
1.75759
1.62668
1.46206
1.27254
1.06877
0.862573
0.662607
0.47757
0.314716
0.179577
0.0753494
0.00251236
-0.0411289
-0.0599573
-0.0597296
-0.046652
-0.0268234
-0.00523376
0.0146158
0.0302021
0.0392088
0.039056
0.0269547
0
-0.0509165
-0.122972
-0.220132
-0.365804
-0.596231
-0.895676
-1.23381
-1.55385
-1.26412
0.100306
2.78516
6.5574
10.6171
13.8111
15.0971
14.0297
10.9857
6.98665
3.22029
0.539805
-0.795464
-1.05076
-0.734758
-0.580032
-0.442708
-0.334937
-0.263338
-0.215531
-0.185657
-0.169487
-0.161963
-0.15784
-0.152218
-0.140974
-0.120925
-0.0899334
-0.0469334
0.00811043
0.0743183
0.150088
0.233345
0.321829
0.413358
0.506046
0.598436
0.689553
0.778902
0.866443
0.952558
1.03802
1.12393
1.21154
1.30207
1.3964
1.4948
1.59682
1.70123
1.80631
1.91011
2.01091
2.10742
2.199
2.28553
2.36724
2.44426
2.51638
2.58288
2.64232
2.6923
2.72944
2.74999
2.75084
2.72941
2.68421
2.61525
2.52423
2.41447
2.29054
2.15765
2.02113
1.88538
1.75355
1.62818
1.51141
1.40509
1.31064
1.22908
1.16113
1.10714
1.06704
1.04037
1.02622
1.0233
1.03004
1.04457
1.06493
1.08912
1.11522
1.14152
1.16659
1.18938
1.20924
1.22608
1.24043
1.25344
1.26691
1.28314
1.30468
1.33401
1.37315
1.42333
1.48469
1.55649
1.63745
1.72598
1.82047
1.91955
2.02228
2.12814
2.23694
2.34861
2.46246
2.57532
2.67935
2.76344
2.81511
2.82365
2.78332
2.69593
2.57149
2.42667
2.28086
2.15004
2.03866
1.94325
1.86059
1.78742
1.71972
1.65374
1.58686
1.51799
1.44746
1.37657
1.3069
1.23951
1.17472
1.11209
1.05027
0.987151
0.919898
0.844048
0.749148
0.615704
0.446637
0.255184
0
0.159438
1.18075
3.3794
6.68278
10.494
13.8073
15.5762
15.176
12.7152
9.00557
5.19164
2.24372
0.595031
0.0973801
0.260857
0.337033
0.400894
0.457362
0.507713
0.556011
0.608241
0.670865
0.749125
0.844266
0.955003
1.0785
1.21035
1.34503
1.47668
1.60032
1.71272
1.81269
1.90105
1.98004
2.05258
2.12138
2.18828
2.25393
2.3177
2.37816
2.43365
2.48313
2.52671
2.56601
2.60415
2.64533
2.69425
2.75532
2.83186
2.92535
3.03558
3.1612
3.29988
3.44833
3.6026
3.75839
3.91056
4.053
4.17944
4.28444
4.36332
4.41229
4.42863
4.41075
4.35817
4.27147
4.15214
4.00234
3.82551
3.62577
3.40763
3.17551
2.93332
2.68503
2.43528
2.18928
1.95253
1.73035
1.52729
1.34666
1.19014
1.05772
0.94782
0.857706
0.783937
0.72286
0.671029
0.625482
0.583912
0.544711
0.506928
0.470156
0.43435
0.399644
0.366182
0.334009
0.303088
0.273468
0.245523
0.22033
0.199826
0.186443
0.182847
0.191357
0.21339
0.249151
0.297693
0.35732
0.426197
0.502837
0.586077
0.67641
0.776342
0.889176
1.01197
1.12998
1.22319
1.27231
1.26484
1.19855
1.08165
0.930226
0.764498
0.604943
0.463564
0.342582
0.241118
0.159376
0.0975578
0.0543659
0.0272961
0.0130646
0.00807953
0.00884705
0.0121574
0.0152977
0.0159187
0.0116768
0
-0.0445271
-0.102472
-0.176987
-0.273809
-0.407727
-0.587977
-0.8055
-1.04389
-1.22748
-0.824698
0.531374
3.00127
6.34404
9.86207
12.5793
13.6155
12.5866
9.80672
6.16322
2.72137
0.278148
-0.900164
-1.04889
-0.660847
-0.421828
-0.216492
-0.0640553
0.033815
0.11083
0.177364
0.236179
0.288956
0.336616
0.379556
0.418031
0.452504
0.483861
0.513413
0.542712
0.573251
0.606163
0.642038
0.680909
0.722428
0.766156
0.811871
0.859809
0.910742
0.965898
1.02672
1.09456
1.17039
1.25456
1.34675
1.44606
1.55122
1.6609
1.77397
1.88966
2.00753
2.12726
2.24824
2.3692
2.4877
2.59922
2.69798
2.77792
2.83367
2.86154
2.86011
2.83021
2.77437
2.69599
2.59852
2.48579
2.36094
2.22633
2.08407
1.93642
1.78601
1.6359
1.48957
1.35053
1.22201
1.1068
1.00686
0.923102
0.855625
0.803847
0.766671
0.742612
0.729884
0.72647
0.730189
0.738739
0.749915
0.761958
0.773627
0.784444
0.794759
0.805669
0.8187
0.835382
0.856783
0.883176
0.913866
0.947539
0.982705
1.01813
1.05326
1.08848
1.1251
1.16508
1.21052
1.26312
1.32359
1.39129
1.46426
1.53912
1.61101
1.67458
1.72461
1.75622
1.76513
1.74851
1.70471
1.63309
1.53414
1.40965
1.26303
1.09942
0.925559
0.749218
0.580627
0.429517
0.303532
0.2071
0.140858
0.101752
0.0838295
0.0794762
0.0808159
0.0809235
0.0751579
0.0610497
0.0368645
0
-0.0528793
-0.121402
-0.206059
-0.308604
-0.426488
-0.555457
-0.847212
-0.610583
0.71025
3.26478
6.58548
9.78477
12.049
12.988
12.5933
11.0136
8.49381
5.50554
2.76504
0.939184
0.254655
0.407609
0.782179
0.937459
1.07116
1.17782
1.26155
1.32764
1.37931
1.42096
1.45734
1.49291
1.5312
1.57461
1.62447
1.68141
1.74577
1.81795
1.89852
1.98814
2.08735
2.19622
2.31414
2.43982
2.57146
2.70711
2.845
2.98379
3.12266
3.26121
3.39922
3.5364
3.67225
3.80599
3.93663
4.06321
4.185
4.30176
4.41391
4.52253
4.62926
4.73603
4.84466
4.95646
5.07181
5.19002
5.30889
5.42374
5.5277
5.61362
5.67506
5.70723
5.70753
5.6757
5.61352
5.52442
5.41297
5.28447
5.1451
5.0009
4.8572
4.71843
4.58927
4.47419
4.37654
4.29861
4.24147
4.20492
4.18766
4.18773
4.20283
4.23068
4.26874
4.31433
4.36501
4.41833
4.47153
4.52152
4.56544
4.60116
4.62772
4.64556
4.65645
4.66318
4.66898
4.67697
4.68964
4.70859
4.73477
4.76869
4.81073
4.86133
4.92121
4.9913
5.07254
5.1655
5.2711
5.3907
5.52184
5.65374
5.77069
5.85721
5.90145
5.89741
5.84574
5.75321
5.63144
5.49505
5.3595
5.23665
5.13202
5.0466
4.9796
4.93126
4.90037
4.88456
4.88062
4.88475
4.89294
4.90106
4.905
4.9009
4.88533
4.85539
4.80882
4.74413
4.65874
4.53896
4.3577
4.14826
3.9676
3.88195
3.93758
4.14112
5.20353
6.61161
7.80208
8.46958
8.63991
8.57493
8.5284
8.55566
8.51016
8.19139
7.56207
6.74841
6.00452
5.62983
5.5739
5.57043
5.58979
5.62657
5.67489
5.72935
5.78565
5.84159
5.89634
5.94978
6.00231
6.05466
6.1079
6.1633
6.22229
6.28615
6.35586
6.43177
6.51353
6.60002
6.68964
6.78055
6.87121
6.96071
7.04896
7.13651
7.22421
7.31271
7.40202
7.49123
7.57863
7.66188
7.73851
7.80631
7.86372
7.91003
7.9454
7.97074
7.98743
7.99711
8.00145
8.00193
7.99977
7.99593
7.99108
7.98569
7.98006
7.97435
7.96869
7.96311
7.95767
7.95238
7.94724
7.94226
7.93744
7.93279
7.92831
7.92399
7.91983
7.9158
7.9119
7.90807
7.90424
7.90034
7.89621
7.89169
7.8866
7.88075
7.87397
7.86618
7.85739
7.84774
7.83745
7.82684
7.81624
7.80595
7.79628
7.78748
7.77985
7.77377
7.76965
7.7679
7.76886
7.77264
7.7791
7.7878
7.7981
7.80925
7.82054
7.83142
7.84154
7.85069
7.85882
7.86596
7.87216
7.87747
7.8819
7.88537
7.88768
7.88851
7.88732
7.88335
7.87562
7.86296
7.84414
7.81799
7.7836
7.74052
7.68888
7.6295
7.56382
7.49375
7.42142
7.34889
7.27783
7.20937
7.14394
7.0814
7.02115
6.96236
6.90416
6.84571
6.7862
6.72462
6.6596
6.58926
6.51037
6.41086
6.25083
6.03116
5.80238
5.64337
5.62409
5.88903
6.5433
7.27508
7.82895
8.10144
8.15392
8.13023
8.13282
8.13787
8.00456
7.6377
7.04026
6.36848
5.86867
5.70381
5.65048
5.61915
5.60011
5.5854
5.56901
5.54748
5.51993
5.48763
5.45339
5.42036
5.39115
5.36766
5.35094
5.3412
5.3376
5.33863
5.34259
5.34801
5.354
5.36037
5.36764
5.37685
5.38931
5.40628
5.42879
5.4576
5.49321
5.53572
5.58486
5.63995
5.7
5.76381
5.83017
5.89795
5.96618
6.034
6.10042
6.16399
6.22269
6.27399
6.3149
6.34228
6.35316
6.34502
6.31584
6.26416
6.18897
6.09016
5.96904
5.8273
5.66659
5.48879
5.29624
5.09167
4.87816
4.65919
4.43856
4.22027
4.00826
3.80617
3.61698
3.44274
3.28443
3.14198
3.01449
2.90057
2.79862
2.70715
2.62482
2.55044
2.48279
2.42056
2.36226
2.30634
2.25146
2.19682
2.14234
2.08894
2.03845
1.99339
1.95665
1.93115
1.91953
1.92411
1.94681
1.98904
2.05163
2.13458
2.23685
2.35608
2.48857
2.62947
2.77324
2.91426
3.04759
3.16901
3.27519
3.36308
3.42918
3.46986
3.48213
3.4629
3.40953
3.32065
3.19688
3.04136
2.85967
2.6593
2.44907
2.23723
2.03029
1.83314
1.64869
1.47784
1.31968
1.1721
1.03241
0.898134
0.767613
0.640381
0.517152
0.399403
0.28867
0.186005
0.0910004
0
-0.0326111
-0.0745377
-0.132513
-0.213203
-0.322815
-0.45677
-0.813696
-0.886639
-0.125072
1.72252
4.44258
7.43302
10.024
11.7198
12.1938
11.2313
8.86204
5.58613
2.34331
0.0705322
-0.833269
-0.654968
-0.178672
0.124062
0.380264
0.58007
0.729321
0.838963
0.916499
0.97081
1.01039
1.04281
1.07338
1.10529
1.1408
1.18181
1.22979
1.28578
1.35042
1.42299
1.50136
1.58255
1.66321
1.74011
1.81054
1.87249
1.92477
1.96694
1.99967
2.02454
2.04356
2.05925
2.0746
2.0928
2.11684
2.14907
2.191
2.2428
2.30339
2.37075
2.44222
2.51485
2.58567
2.65184
2.7107
2.75976
2.79683
2.81993
2.82717
2.81691
2.78783
2.73895
2.66987
2.58076
2.47239
2.34633
2.20498
2.05159
1.89004
1.72465
1.55984
1.39988
1.24862
1.10932
0.984595
0.876361
0.785867
0.713709
0.659887
0.623846
0.604564
0.600644
0.61045
0.632232
0.664243
0.704787
0.752255
0.805123
0.861879
0.920942
0.980826
1.04027
1.09838
1.15472
1.2093
1.26242
1.3145
1.36585
1.41652
1.46635
1.51507
1.56252
1.60892
1.65501
1.7021
1.75197
1.80659
1.86773
1.93667
2.01403
2.09947
2.19022
2.27952
2.35803
2.41584
2.44437
2.43805
2.39549
2.31959
2.21684
2.09582
1.96616
1.83531
1.70761
1.5861
1.47277
1.36881
1.27495
1.19174
1.11977
1.05959
1.01155
0.97562
0.950629
0.933865
0.921257
0.907647
0.8873
0.854578
0.804653
0.734158
0.641694
0.524807
0.387527
0.2037
0
0.396773
1.77572
4.29529
7.67904
11.1794
13.7898
14.6472
13.4294
10.5248
6.86503
3.51022
1.21503
0.196919
0.187451
0.674716
0.885155
1.06629
1.19956
1.27873
1.30992
1.3078
1.29032
1.27395
1.26798
1.27458
1.29346
1.3235
1.36323
1.41095
1.46477
1.52243
1.58162
1.64035
1.69715
1.75122
1.80249
1.85148
1.89926
1.94728
1.99726
2.05103
2.11054
2.17764
2.25392
2.34039
2.43738
2.54436
2.65997
2.78246
2.90979
3.03984
3.17064
3.30024
3.42634
3.54596
3.65517
3.74982
3.82575
3.8793
3.90786
3.91029
3.88691
3.83914
3.76899
3.67863
3.57139
3.45101
3.32062
3.18271
3.03966
2.89392
2.74789
2.60374
2.46327
2.32784
2.19847
2.07588
1.96064
1.85329
1.75444
1.66485
1.58544
1.51744
1.46204
1.42006
1.39178
1.37668
1.37381
1.38087
1.39468
1.41195
1.42985
1.44648
1.46112
1.4742
1.48697
1.50115
1.51842
1.54008
1.56706
1.60001
1.6393
1.68509
1.73739
1.79608
1.86094
1.93169
2.00791
2.08911
2.17465
2.26362
2.35377
2.43923
2.51038
2.55566
2.56369
2.52636
2.44155
2.31456
2.15755
1.98695
1.81968
1.66647
1.5293
1.40807
1.30349
1.21508
1.14157
1.08136
1.03289
0.994772
0.965862
0.944966
0.930401
0.919969
0.910831
0.899443
0.88131
0.851252
0.804017
0.73471
0.63059
0.467647
0.254939
0.0132942
-0.301609
0
1.3129
3.84815
7.36018
11.1281
14.138
15.4552
14.6283
11.9142
8.18464
4.54608
1.87166
0.493192
0.195619
0.465925
0.57426
0.668817
0.752692
0.824901
0.888913
0.946649
0.99969
1.04946
1.09709
1.14351
1.18955
1.23618
1.28451
1.33576
1.39106
1.45123
1.51661
1.58705
1.66199
1.74063
1.82217
1.90588
1.99117
2.07743
2.16395
2.24979
2.33387
2.41513
2.49277
2.56657
2.63711
2.70577
2.77461
2.84606
2.92245
3.00562
3.09652
3.19503
3.29987
3.40875
3.51862
3.62582
3.72616
3.8148
3.88674
3.93762
3.96437
3.96477
3.93744
3.88194
3.79882
3.68968
3.55717
3.40494
3.23748
3.06023
2.8788
2.69818
2.52243
2.35505
2.19885
2.05574
1.92669
1.81176
1.71032
1.62146
1.54392
1.4763
1.41724
1.36533
1.3193
1.27773
1.23935
1.20322
1.16891
1.13651
1.10661
1.08007
1.05781
1.04064
1.02902
1.02326
1.02375
1.03085
1.04494
1.06637
1.09531
1.13168
1.175
1.22451
1.27918
1.33783
1.3993
1.46255
1.5267
1.59101
1.65472
1.71652
1.77346
1.81942
1.8467
1.8459
1.8084
1.72919
1.6092
1.45577
1.28132
1.10033
0.926054
0.764833
0.61741
0.484312
0.366698
0.265157
0.179906
0.11092
0.0579594
0.0206402
-0.00156326
-0.00953827
-0.00553284
0.00486488
0.0111507
0
-0.0459747
-0.13569
-0.27754
-0.473896
-0.719938
-1.00374
-1.30772
-1.37002
-0.606934
1.33337
4.47506
8.3417
12.0014
14.3731
14.6826
12.8285
9.4442
5.60648
2.35503
0.290842
-0.549105
-0.533352
-0.168592
-0.0131245
0.125548
0.240435
0.33243
0.412926
0.486598
0.557178
0.627884
0.700935
0.777346
0.857089
0.939333
1.02278
1.10599
1.18771
1.26708
1.34382
1.41829
1.49146
1.56476
1.63977
1.718
1.80056
1.888
1.98026
2.07671
2.17634
2.27796
2.38035
2.48244
2.58339
2.6826
2.77971
2.87456
2.96705
3.05705
3.14427
3.22816
3.30787
3.38225
3.44989
3.50916
3.5581
3.59446
3.61607
3.62099
3.60739
3.57373
3.51888
3.44235
3.34439
3.22608
3.0894
2.93761
2.7749
2.60555
2.43392
2.26445
2.10126
1.94778
1.80643
1.67846
1.56409
1.46281
1.37385
1.29659
1.23096
1.17725
1.13597
1.10754
1.09222
1.08893
1.09473
1.10509
1.11469
1.11819
1.11097
1.08981
1.05334
1.00225
0.939035
0.867096
0.793392
0.726349
0.673837
0.64194
0.634119
0.650949
0.69043
0.748729
0.821128
0.902671
0.989322
1.07879
1.17018
1.26356
1.35939
1.45837
1.56097
1.6658
1.76773
1.85877
1.92974
1.97212
1.97962
1.94901
1.88037
1.77683
1.6442
1.49173
1.32949
1.1658
1.00677
0.856427
0.717354
0.591274
0.478794
0.37973
0.2935
0.219431
0.156878
0.10509
0.0630714
0.0291935
0
-0.00817032
-0.0244743
-0.0560223
-0.111995
-0.20792
-0.33855
-0.489433
-0.710957
-0.409666
0.816827
3.2124
6.63528
10.4554
13.6877
15.3537
14.9066
12.4912
8.8869
5.15879
2.20871
0.460584
-0.181852
-0.132943
0.0183308
0.154492
0.278738
0.387792
0.480359
0.55849
0.623977
0.679501
0.728176
0.773108
0.817046
0.862105
0.90964
0.960297
1.01414
1.07076
1.1295
1.18962
1.25052
1.31191
1.37393
1.43716
1.50252
1.57106
1.64381
1.72149
1.80441
1.8924
1.98498
2.08148
2.18124
2.28377
2.38876
2.49602
2.60523
2.71576
2.82634
2.93469
3.03756
3.13121
3.21182
3.27594
3.32087
3.34481
3.3469
3.32711
3.28614
3.22567
3.14831
3.05681
2.95365
2.84099
2.72065
2.59402
2.46219
2.32607
2.18669
2.04554
1.90479
1.76736
1.63683
1.51703
1.41162
1.32358
1.25484
1.20606
1.17669
1.16487
1.16789
1.18249
1.20525
1.23276
1.26184
1.2896
1.31361
1.33226
1.34497
1.35244
1.35657
1.3605
1.36798
1.38246
1.40641
1.44075
1.4849
1.53715
1.59545
1.65816
1.72457
1.79508
1.87092
1.95356
2.04403
2.14215
2.24693
2.35652
2.46791
2.5772
2.67972
2.76985
2.84138
2.889
2.90805
2.89502
2.84813
2.76779
2.65687
2.52051
2.36562
2.20045
2.0332
1.87009
1.71642
1.57633
1.45264
1.34682
1.25851
1.18596
1.12631
1.07588
1.03046
0.985503
0.93619
0.877549
0.804672
0.713057
0.599155
0.460958
0.295302
0.10152
-0.113845
-0.448668
-0.561624
0
1.63814
4.49379
8.25466
12.0803
14.8338
15.5514
13.9099
10.4144
6.17907
2.41878
-0.0557289
-1.07311
-0.995332
-0.462173
-0.241537
-0.053208
0.0910746
0.188651
0.245985
0.275536
0.291122
0.303888
0.31953
0.339326
0.363824
0.393487
0.42877
0.47021
0.518259
0.572995
0.633727
0.699223
0.767851
0.837823
0.907556
0.975976
1.04263
1.10765
1.17154
1.23499
1.2986
1.36286
1.42808
1.49456
1.56272
1.63314
1.7066
1.78394
1.86586
1.95266
2.044
2.13885
2.23537
2.33099
2.42261
2.50684
2.58027
2.63973
2.68233
2.70547
2.7068
2.68441
2.63687
2.56361
2.46516
2.34347
2.20243
2.04746
1.88493
1.72151
1.56367
1.41707
1.28616
1.17351
1.07872
0.999328
0.931546
0.871225
0.814799
0.759993
0.706158
0.654224
0.606252
0.564624
0.531723
0.509425
0.498984
0.500378
0.511949
0.531213
0.55563
0.583266
0.613266
0.645963
0.682605
0.724769
0.773665
0.829423
0.891529
0.958081
1.02683
1.09602
1.16516
1.23532
1.3089
1.38992
1.48535
1.59818
1.71637
1.82039
1.89006
1.91149
1.88125
1.80631
1.7006
1.58012
1.4589
1.34478
1.2394
1.1427
1.05479
0.975792
0.905528
0.843314
0.788291
0.739721
0.697244
0.661013
0.631592
0.609625
0.595567
0.589131
0.588066
0.586762
0.57676
0.548447
0.492857
0.402237
0.257562
0.0672241
-0.15649
-0.412614
0
1.52295
4.33537
8.10463
11.9562
14.7356
15.4878
13.9132
10.5345
6.46109
2.87938
0.559543
-0.362777
-0.264137
0.276043
0.485051
0.665492
0.80128
0.897265
0.974136
1.03715
1.0919
1.14327
1.19467
1.24789
1.30354
1.36165
1.42197
1.48433
1.54871
1.61521
1.68392
1.75475
1.82732
1.90093
1.97467
2.0475
2.11844
2.1867
2.25186
2.31407
2.37415
2.4337
2.49499
2.56074
2.63368
2.7161
2.80932
2.91338
3.02699
3.14777
3.27283
3.3993
3.52478
3.64743
3.7654
3.87589
3.97443
4.05507
4.10908
4.12747
4.1042
4.03863
3.93573
3.8043
3.65415
3.49405
3.33072
3.1675
3.00633
2.84893
2.69718
2.553
2.4182
2.2943
2.18232
2.08263
1.99489
1.91812
1.85082
1.79117
1.73726
1.68733
1.63998
1.5944
1.5505
1.50903
1.47156
1.4401
1.41675
1.40331
1.40081
1.4094
1.42836
1.45629
1.49156
1.53253
1.57784
1.62666
1.67868
1.73376
1.79178
1.85231
1.91426
1.9751
2.0304
2.07476
2.10248
2.10856
2.08956
2.04419
1.97351
1.88064
1.77016
1.64736
1.51802
1.38674
1.25672
1.13011
1.00855
0.89339
0.785698
0.68638
0.596267
0.516169
0.446872
0.38903
0.34299
0.308674
0.285519
0.271906
0.263852
0.254264
0.234593
0.196619
0.134139
0.0443386
-0.071582
-0.208775
-0.489021
-0.582143
0
1.60811
4.34657
7.86086
11.3301
13.7027
14.1253
12.3582
8.93334
4.93526
1.51038
-0.618899
-1.36891
-1.15917
-0.63932
-0.282199
0.0168999
0.237129
0.402217
0.540203
0.653047
0.742815
0.81243
0.865418
0.905558
0.936498
0.961408
0.982761
1.00233
1.02133
1.04074
1.06162
1.08532
1.11348
1.14793
1.19039
1.2421
1.30354
1.37458
1.45438
1.54151
1.63414
1.73035
1.82835
1.92673
2.02463
2.12172
2.21815
2.3143
2.41061
2.50729
2.60419
2.70072
2.79592
2.88847
2.97687
3.05933
3.13373
3.19744
3.24771
3.28209
3.29809
3.2934
3.2662
3.21542
3.14103
3.0443
2.92783
2.79566
2.65326
2.50625
2.35977
2.21818
2.08499
1.96269
1.85263
1.75515
1.66989
1.59611
1.53307
1.48015
1.43692
1.40302
1.37799
1.36122
1.35187
1.34877
1.35062
1.35652
1.36631
1.38079
1.40155
1.43057
1.46963
1.51962
1.58016
1.64926
1.72429
1.80233
1.88103
1.95921
2.0372
2.11665
2.20078
2.29519
2.40361
2.51789
2.62011
2.68991
2.71105
2.67573
2.58584
2.45176
2.28953
2.1172
1.95
1.79459
1.65163
1.51999
1.39913
1.28961
1.19215
1.10745
1.03633
0.979675
0.937462
0.907104
0.883624
0.860849
0.832285
0.792013
0.735371
0.65929
0.56231
0.442681
0.290536
0.104494
-0.106537
-0.330741
-0.44609
0
1.41262
4.01574
7.59812
11.4262
14.4276
15.6175
14.5591
11.5947
7.69735
4.02278
1.41783
0.150898
-0.0341274
0.359999
0.73253
1.04587
1.26147
1.37034
1.44307
1.50244
1.55437
1.60249
1.65002
1.69957
1.75297
1.81126
1.87465
1.94255
2.01371
2.08637
2.15854
2.22823
2.29387
2.35466
2.41075
2.46331
2.51431
2.56625
2.62166
2.68264
2.75055
2.82574
2.90773
2.99542
3.08731
3.1817
3.27685
3.37106
3.4627
3.55022
3.6322
3.70746
3.77523
3.83519
3.88749
3.93264
3.97117
4.00346
4.02961
4.04907
4.06057
4.06205
4.05099
4.0247
3.9806
3.91666
3.83169
3.72572
3.60022
3.45814
3.30386
3.14303
2.98166
2.82555
2.67998
2.54931
2.43651
2.34303
2.26875
2.21209
2.17025
2.13963
2.11644
2.0971
2.07866
2.05903
2.03706
2.01259
1.98632
1.95963
1.93446
1.91307
1.89791
1.89124
1.89482
1.90972
1.93621
1.97376
2.02118
2.077
2.13986
2.20893
2.28389
2.36567
2.45722
2.56366
2.68835
2.82221
2.94236
3.02157
3.03585
2.97135
2.82957
2.62958
2.40513
2.19566
2.02948
1.90331
1.80255
1.72008
1.65285
1.59723
1.54959
1.50663
1.46562
1.42453
1.38208
1.33774
1.29168
1.24455
1.19714
1.14987
1.1022
1.05223
0.996544
0.930514
0.842436
0.69941
0.499739
0.255068
-0.0898323
0
1.04052
3.32892
6.76444
10.7417
14.2695
16.3181
16.2494
14.1085
10.6096
6.81446
3.68281
1.732
0.956328
0.990392
1.33433
1.47008
1.58873
1.68509
1.76055
1.8255
1.88488
1.94307
2.00376
2.06916
2.13995
2.21548
2.29428
2.37446
2.45443
2.53338
2.61153
2.69008
2.77092
2.85617
2.94766
3.04666
3.15356
3.26811
3.38957
3.51692
3.64913
3.78536
3.92509
4.0682
4.21492
4.3657
4.52096
4.68069
4.84413
5.00946
5.17374
5.33294
5.48269
5.61906
5.73934
5.84245
5.92907
6.00118
6.06133
6.11137
6.15239
6.18399
6.20402
6.20912
6.19527
6.15869
6.09666
6.00818
5.8944
5.75868
5.60641
5.44443
5.28036
5.12078
4.97112
4.83597
4.71875
4.62212
4.54807
4.49743
4.47011
4.4656
4.48308
4.52125
4.57829
4.65176
4.73864
4.83552
4.93859
5.04417
5.14904
5.25032
5.34544
5.43222
5.50929
5.57612
5.6333
5.68255
5.72677
5.76982
5.81621
5.87061
5.93739
6.02
6.12077
6.24068
6.3792
6.53596
6.71123
6.90099
7.09094
7.26094
7.39238
7.47167
7.49263
7.45737
7.37535
7.26106
55
215
375
534
692
848
1001
1153
1302
1450
1598
1746
1891
2334
2482
2628
2775
2923
3071
3214
3355
3495
3637
3599
3434
3646
0
0
0
0
0
0
0
0
0
0
0
0
0
0
0
0
0
0
0
0
0
0
0
0
0
0
0
0
0
0
0
0
0
0
0
0
0
0
0
0
0
0
0
0
0
0
0
0
0
0
0
0
0
0
0
0
0
0
0
0
0
0
0
0
0
0
0
0
0
0
0
0
0
0
0
0
0
0
0
0
0
0
0
0
0
0
0
0
0
0
0
0
0
0
0
0
0
0
0
0
0
0
0
0
0
0
0
0
0
0
0
0
0
0
0
0
0
0
0
0
0
0
0
0
0
0
0
0
0
0
0
0
0
0
0
0
0
0
0
0
0
0
0
0
0
0
0
0
0
0
0
0
0
0
0
0
0
0
0
0
0
0
0
0
0
0
0
0
0
0
0
0
0
0
0
0
0
0
0
0
0
0
0
0
0
0
0
0
0
0
0
0
0
0
0
0
0
0
0
0
0
0
0
0
0
0
0
0
0
0
0
0
0
0
0
0
0
0
0
0
0
0
0
0
0
0
0
0
0
0
0
0
0
0
0
0
0
0
0
0
0
0
0
0
0
0
0
0
0
0
0
0
0
0
0
0
0
0
0
0
0
0
0
0
0
0
0
0
0
0
0
0
0
0
0
0
0
0
0
0
0
0
0
0
0
0
0
0
0
0
0
0
0
0
0
0
0
0
0
0
0
0
0
0
0
0
0
0
0
0
0
0
0
0
0
0
0
0
0
0
0
0
0
0
0
0
0
0
0
0
0
0
0
0
0
0
0
0
0
0
0
0
0
0
0
0
0
0
0
0
0
0
0
0
0
0
0
0
0
0
0
0
0
0
0
0
0
0
0
0
0
0
0
0
0
0
0
0
0
0
0
0
0
0
0
0
0
0
0
0
0
0
0
0
0
0
0
0
0
0
0
0
0
0
0
0
0
0
0
0
0
0
0
0
0
0
0
0
0
0
0
0
0
0
0
0
0
0
0
0
0
0
0
0
0
0
0
0
0
0
0
0
0
0
0
0
0
0
0
0
0
0
0
0
0
0
0
0
0
0
0
0
0
0
0
0
0
0
0
0
0
0
0
0
0
0
0
0
0
0
0
0
0
0
0
0
0
0
0
0
0
0
0
0
0
0
0
0
0
0
0
0
0
0
0
0
0
0
0
0
0
0
0
0
0
0
0
0
0
0
0
0
0
0
0
0
0
0
0
0
0
0
0
0
0
0
0
0
0
0
0
0
0
0
0
0
0
0
0
0
0
0
0
0
0
0
0
0
0
0
0
0
0
0
0
0
0
0
0
0
0
0
0
0
0
0
0
0
0
0
0
0
0
0
0
0
0
0
0
0
0
0
0
0
0
0
0
0
0
0
0
0
0
0
0
0
0
0
0
0
0
0
0
0
0
0
0
0
0
0
0
0
0
0
0
0
0
0
0
0
0
0
0
0
0
0
0
0
0
0
0
0
0
0
0
0
0
0
0
0
0
0
0
0
0
0
0
0
0
0
0
0
0
0
0
0
0
0
0
0
0
0
0
0
0
0
0
0
0
0
0
0
0
0
0
0
0
0
0
0
0
0
0
0
0
0
0
0
0
0
0
0
0
0
0
0
0
0
0
0
0
0
0
0
0
0
0
0
0
0
0
0
0
0
0
0
0
0
0
0
0
0
0
0
0
0
0
0
0
0
0
0
0
0
0
0
0
0
0
0
0
0
0
0
0
0
0
0
0
0
0
0
0
0
0
0
0
0
0
0
0
0
0
0
0
0
0
0
0
0
0
0
0
0
0
0
0
0
0
0
0
0
0
0
0
0
0
0
0
0
0
0
0
0
0
0
0
0
0
0
0
0
0
0
0
0
0
0
0
0
0
0
0
0
0
0
0
0
0
0
0
0
0
0
0
0
0
0
0
0
0
0
0
0
0
0
0
0
0
0
0
0
0
0
0
0
0
0
0
0
0
0
0
0
0
0
0
0
0
0
0
0
0
0
0
0
0
0
0
0
0
0
0
0
0
0
0
0
0
0
0
0
0
0
0
0
0
0
0
0
0
0
0
0
0
0
0
0
0
0
0
0
0
0
0
0
0
0
0
0
0
0
0
0
0
0
0
0
0
0
0
0
0
0
0
0
0
0
0
0
0
0
0
0
0
0
0
0
0
0
0
0
0
0
0
0
0
0
0
0
0
0
0
0
0
0
0
0
0
0
0
0
0
0
0
0
0
0
0
0
0
0
0
0
0
0
0
0
0
0
0
0
0
0
0
0
0
0
0
0
0
0
0
0
0
0
0
0
0
0
0
0
0
0
0
0
0
0
0
0
0
0
0
0
0
0
0
0
0
0
0
0
0
0
0
0
0
0
0
0
0
0
0
0
0
0
0
0
0
0
0
0
0
0
0
0
0
0
0
0
0
0
0
0
0
0
0
0
0
0
0
0
0
0
0
0
0
0
0
0
0
0
0
0
0
0
0
0
0
0
0
0
0
0
0
0
0
0
0
0
0
0
0
0
0
0
0
0
0
0
0
0
0
0
0
0
0
0
0
0
0
0
0
0
0
0
0
0
0
0
0
0
0
0
0
0
0
0
0
0
0
0
0
0
0
0
0
0
0
0
0
0
0
0
0
0
0
0
0
0
0
0
0
0
0
0
0
0
0
0
0
0
0
0
0
0
0
0
0
0
0
0
0
0
0
0
0
0
0
0
0
0
0
0
0
0
0
0
0
0
0
0
0
0
0
0
0
0
0
0
0
0
0
0
0
0
0
0
0
0
0
0
0
0
0
0
0
0
0
0
0
0
0
0
0
0
0
0
0
0
0
0
0
0
0
0
0
0
0
0
0
0
0
0
0
0
0
0
0
0
0
0
0
0
0
0
0
0
0
0
0
0
0
0
0
0
0
0
0
0
0
0
0
0
0
0
0
0
0
0
0
0
0
0
0
0
0
0
0
0
0
0
0
0
0
0
0
0
0
0
0
0
0
0
0
0
0
0
0
0
0
0
0
0
0
0
0
0
0
0
0
0
0
0
0
0
0
0
0
0
0
0
0
0
0
0
0
0
0
0
0
0
0
0
0
0
0
0
0
0
0
0
0
0
0
0
0
0
0
0
0
0
0
0
0
0
0
0
0
0
0
0
0
0
0
0
0
0
0
0
0
0
0
0
0
0
0
0
0
0
0
0
0
0
0
0
0
0
0
0
0
0
0
0
0
0
0
0
0
0
0
0
0
0
0
0
0
0
0
0
0
0
0
0
0
0
0
0
0
0
0
0
0
0
0
0
0
0
0
0
0
0
0
0
0
0
0
0
0
0
0
0
0
0
0
0
0
0
0
0
0
0
0
0
0
0
0
0
0
0
0
0
0
0
0
0
0
0
0
0
0
0
0
0
0
0
0
0
0
0
0
0
0
0
0
0
0
0
0
0
0
0
0
0
0
0
0
0
0
0
0
0
0
0
0
0
0
0
0
0
0
0
0
0
0
0
0
0
0
0
0
0
0
0
0
0
0
0
0
0
0
0
0
0
0
0
0
0
0
0
0
0
0
0
0
0
0
0
0
0
0
0
0
0
0
0
0
0
0
0
0
0
0
0
0
0
0
0
0
0
0
0
0
0
0
0
0
0
0
0
0
0
0
0
0
0
0
0
0
0
0
0
0
0
0
0
0
0
0
0
0
0
0
0
0
0
0
0
0
0
0
0
0
0
0
0
0
0
0
0
0
0
0
0
0
0
0
0
0
0
0
0
0
0
0
0
0
0
0
0
0
0
0
0
0
0
0
0
0
0
0
0
0
0
0
0
0
0
0
0
0
0
0
0
0
0
0
0
0
0
0
0
0
0
0
0
0
0
0
0
0
0
0
0
0
0
0
0
0
0
0
0
0
0
0
0
0
0
0
0
0
0
0
0
0
0
0
0
0
0
0
0
0
0
0
0
0
0
0
0
0
0
0
0
0
0
0
0
0
0
0
0
0
0
0
0
0
0
0
0
0
0
0
0
0
0
0
0
0
0
0
0
0
0
0
0
0
0
0
0
0
0
0
0
0
0
0
0
0
0
0
0
0
0
0
0
0
0
0
0
0
0
0
0
0
0
0
0
0
0
0
0
0
0
0
0
0
0
0
0
0
0
0
0
0
0
0
0
0
0
0
0
0
0
0
0
0
0
0
0
0
0
0
0
0
0
0
0
0
0
0
0
0
0
0
0
0
0
0
0
0
0
0
0
0
0
0
0
0
0
0
0
0
0
0
0
0
0
0
0
0
0
0
0
0
0
0
0
0
0
0
0
0
0
0
0
0
0
0
0
0
0
0
0
0
0
0
0
0
0
0
0
0
0
0
0
0
0
0
0
0
0
0
0
0
0
0
0
0
0
0
0
0
0
0
0
0
0
0
0
0
0
0
0
0
0
0
0
0
0
0
0
0
0
0
0
0
0
0
0
0
0
0
0
0
0
0
0
0
0
0
0
0
0
0
0
0
0
0
0
0
0
0
0
0
0
0
0
0
0
0
0
0
0
0
0
0
0
0
0
0
0
0
0
0
0
0
0
0
0
0
0
0
0
0
0
0
0
0
0
0
0
0
0
0
0
0
0
0
0
0
0
0
0
0
0
0
0
0
0
0
0
0
0
0
0
0
0
0
0
0
0
0
0
0
0
0
0
0
0
0
0
0
0
0
0
0
0
0
0
0
0
0
0
0
0
0
0
0
0
0
0
0
0
0
0
0
0
0
0
0
0
0
0
0
0
0
0
0
0
0
0
0
0
0
0
0
0
0
0
0
0
0
0
0
0
0
0
0
0
0
0
0
0
0
0
0
0
0
0
0
0
0
0
0
0
0
0
0
0
0
0
0
0
0
0
0
0
0
0
0
0
0
0
0
0
0
0
0
0
0
0
0
0
0
0
0
0
0
0
0
0
0
0
0
0
0
0
0
0
0
0
0
0
0
0
0
0
0
0
0
0
0
0
0
0
0
0
0
0
0
0
0
0
0
0
0
0
0
0
0
0
0
0
0
0
0
0
0
0
0
0
0
0
0
0
0
0
0
0
0
0
0
0
0
0
0
0
0
0
0
0
0
0
0
0
0
0
0
0
0
0
0
0
0
0
0
0
0
0
0
0
0
0
0
0
0
0
0
0
0
0
0
0
0
0
0
0
0
0
0
0
0
0
0
0
0
0
0
0
0
0
0
0
0
0
0
0
0
0
0
0
0
0
0
0
0
0
0
0
0
0
0
0
0
0
0
0
0
0
0
0
0
0
0
0
0
0
0
0
0
0
0
0
0
0
0
0
0
0
0
0
0
0
0
0
0
0
0
0
0
0
0
0
0
0
0
0
0
0
0
0
0
0
0
0
0
0
0
0
0
0
0
0
0
0
0
0
0
0
0
0
0
0
0
0
0
0
0
0
0
0
0
0
0
0
0
0
0
0
0
0
0
0
0
0
0
0
0
0
0
0
0
0
0
0
0
0
0
0
0
0
0
0
0
0
0
0
0
0
0
0
0
0
0
0
0
0
0
0
0
0
0
0
0
0
0
0
0
0
0
0
0
0
0
0
0
0
0
0
0
0
0
0
0
0
0
0
0
0
0
0
0
0
0
0
0
0
0
0
0
0
0
0
0
0
0
0
0
0
0
0
0
0
0
0
0
0
0
0
0
0
0
0
0
0
0
0
0
0
0
0
0
0
0
0
0
0
0
0
0
0
0
0
0
0
0
0
0
0
0
0
0
0
0
0
0
0
0
0
0
0
0
0
0
0
0
0
0
0
0
0
0
0
0
0
0
0
0
0
0
0
0
0
0
0
0
0
0
0
0
0
0
0
0
0
0
0
0
0
0
0
0
0
0
0
0
0
0
0
0
0
0
0
0
0
0
0
0
0
0
0
0
0
0
0
0
0
0
0
0
0
0
0
0
0
0
0
0
0
0
0
0
0
0
0
0
0
0
0
0
0
0
0
0
0
0
0
0
0
0
0
0
0
0
0
0
0
0
0
0
0
0
0
0
0
0
0
0
0
0
0
0
0
0
0
0
0
0
0
0
0
0
0
0
0
0
0
0
0
0
0
0
0
0
0
0
0
0
0
0
0
0
0
0
0
0
0
0
0
0
0
0
0
0
0
0
0
0
0
0
0
0
0
0
0
0
0
0
0
0
0
0
0
0
0
0
0
0
0
0
0
0
0
0
0
0
0
0
0
0
0
0
0
0
0
0
0
0
0
0
0
0
0
0
0
0
0
0
0
0
0
0
0
0
0
0
0
0
0
0
0
0
0
0
0
0
0
0
0
0
0
0
0
0
0
0
0
0
0
0
0
0
0
0
0
0
0
0
0
0
0
0
0
0
0
0
0
0
0
0
0
0
0
0
0
0
0
0
0
0
0
0
0
0
0
0
0
0
0
0
0
0
0
0
0
0
0
0
0
0
0
0
0
0
0
0
0
0
0
0
0
0
0
0
0
0
0
0
0
0
0
0
0
0
0
0
0
0
0
0
0
0
0
0
0
0
0
0
0
0
0
0
0
0
0
0
0
0
0
0
0
0
0
0
0
0
0
0
0
0
0
0
0
0
0
0
0
0
0
0
0
0
0
0
0
0
0
0
0
0
0
0
0
0
0
0
0
0
0
0
0
0
0
0
0
0
0
0
0
0
0
0
0
0
0
0
0
0
0
0
0
0
0
0
0
0
0
0
0
0
0
0
0
0
0
0
0
0
0
0
0
0
0
0
0
0
0
0
0
0
0
0
0
0
0
0
0
0
0
0
0
0
0
0
0
0
0
0
0
0
0
0
0
0
0
0
0
0
0
0
0
0
0
0
0
0
0
0
0
0
0
0
0
0
0
0
0
0
0
0
0
0
0
0
0
0
0
0
0
0
0
0
0
0
0
0
0
0
0
0
0
0
0
0
0
0
0
0
0
0
0
0
0
0
0
0
0
0
0
0
0
0
0
0
0
0
0
0
0
0
0
0
0
0
0
0
0
0
0
0
0
0
0
0
0
0
0
0
0
0
0
0
0
0
0
0
0
0
0
0
0
0
0
0
0
0
0
0
0
0
0
0
0
0
0
0
0
0
0
0
0
0
0
0
0
0
0
0
0
0
0
0
0
0
0
0
0
0
0
0
0
0
0
0
0
0
0
0
0
0
0
0
0
0
0
0
0
0
0
0
0
0
0
0
0
0
0
0
0
0
0
0
0
0
0
0
0
0
0
0
0
0
0
0
0
0
0
0
0
0
0
0
0
0
0
0
0
0
0
0
0
0
0
0
0
0
0
0
0
0
0
0
0
0
0
0
0
0
0
0
0
0
0
0
0
0
0
0
0
0
0
0
0
0
0
0
0
0
0
0
0
0
0
0
0
0
0
0
0
0
0
0
0
0
0
0
0
0
0
0
0
0
0
0
0
0
0
0
0
0
0
0
0
0
0
0
0
0
0
0
0
0
0
0
0
0
0
0
0
0
0
0
0
0
0
0
0
0
0
0
0
0
0
0
0
0
0
0
0
0
0
0
0
0
0
0
0
0
0
0
0
0
0
0
0
0
0
0
0
0
0
0
0
0
0
0
0
0
0
0
0
0
0
0
0
0
0
0
0
0
0
0
0
0
0
0
0
0
0
0
0
0
0
0
0
0
0
0
0
0
0
0
0
0
0
0
0
0
0
0
0
0
0
0
0
0
0
0
0
0
0
0
0
0
0
0
0
0
0
0
0
0
0
0
0
0
0
0
0
0
0
0
0
0
0
0
0
0
0
0
0
0
0
0
0
0
0
0
0
0
0
0
0
0
0
0
0
0
0
0
0
0
0
0
0
0
0
0
0
0
0
0
0
0
0
0
0
0
0
0
0
0
0
0
0
0
0
0
0
0
0
0
0
0
0
0
0
0
0
0
0
0
0
0
0
0
0
0
0
0
0
0
0
0
0
0
0
0
0
0
0
0
0
0
0
0
0
0
0
0
0
0
0
0
0
0
0
0
0
0
0
0
0
0
0
0
0
0
0
0
0
0
0
0
0
0
0
0
0
0
0
0
0
0
0
0
0
0
0
0
0
0
0
0
0
0
0
0
0
0
0
0
0
0
0
0
0
0
0
0
0
0
0
0
0
0
0
0
0
0
0
0
0
0
0
0
0
0
0
0
0
0
0
0
0
0
0
0
0
0
0
0
0
0
0
0
0
0
0
0
0
0
0
0
0
0
0
0
0
0
0
0
0
0
0
0
0
0
0
0
0
0
0
0
0
0
0
0
0
0
0
0
0
0
0
0
0
0
0
0
0
0
0
0
0
0
0
0
0
0
0
0
0
0
0
0
0
0
0
0
0
0
0
0
0
0
0
0
0
0
0
0
0
0
0
0
0
0
0
0
0
0
0
0
0
0
0
0
0
0
0
0
0
0
0
0
0
0
0
0
0
0
0
0
0
0
