0.654005
0.603309
0.560067
0.52619
0.503145
0.493172
0.49775
0.513452
0.533934
0.55262
0.564919
0.569861
0.570396
0.572152
0.58106
0.601972
0.636003
0.673823
0.701415
0.705666
0.679834
0.626548
0.557052
0.486958
0.430342
0.393176
0.370496
0.358224
0.352577
0.350411
0.35052
0.354193
0.364918
0.3874
0.426252
0.483051
0.557038
0.646757
0.749828
0.863289
0.98248
1.10111
1.21299
1.31268
1.39579
1.4565
1.49144
1.4992
1.47926
1.43217
1.35972
1.26512
1.15281
1.02817
0.897085
0.765586
0.637901
0.517933
0.408534
0.311146
0.225929
0.151317
0.0826281
0.014255
-0.0588223
-0.139758
-0.22867
-0.322891
-0.447292
0
1.23195
3.26411
5.7873
8.22079
9.90169
10.3487
9.47215
7.61167
5.37853
3.38459
2.00122
1.26905
0.983708
0.888648
0.871142
0.855055
0.839475
0.823827
0.80763
0.790865
0.774327
0.759807
0.749994
0.748096
0.757242
0.779452
0.81505
0.863742
0.923831
0.992543
1.06653
1.14168
1.2145
1.28279
1.34608
1.40568
1.46435
1.52579
1.59397
1.67266
1.76418
1.87018
1.99184
2.12941
2.2821
2.44808
2.62463
2.80849
2.99632
3.18516
3.37284
3.55788
3.73906
3.91507
4.08354
4.23857
4.36967
4.46403
4.50896
4.49516
4.41941
4.28622
4.10787
3.9021
3.68744
3.47748
3.27616
3.08276
2.89686
2.71972
2.55376
2.40313
2.27233
2.16607
2.09501
2.08538
2.14815
2.25123
2.35248
2.41495
2.41885
2.36555
2.27325
2.16834
2.07723
2.01603
1.98262
1.97825
2.01605
2.08335
2.15274
2.19397
2.18476
2.11906
2.00882
1.87842
1.7549
1.65895
1.58877
1.53584
1.49583
1.46654
1.44535
1.429
1.4142
1.39819
1.37914
1.35635
1.33027
1.30236
1.27469
1.24938
1.22806
1.2114
1.19921
1.19041
1.18293
1.17373
1.15958
1.13786
1.1072
1.0679
1.02193
0.9725
0.923348
0.877977
0.838804
0.807049
0.783462
0.768222
0.761116
0.761571
0.768974
0.782131
0.79793
0.812601
0.822472
0.824896
0.818977
0.805806
0.7881
0.769427
0.753296
0.741967
0.736574
0.737826
0.746184
0.761926
0.785341
0.816834
0.856946
0.906322
0.965634
1.03537
1.11584
1.20689
1.3076
1.41754
1.53368
1.64739
1.7483
1.82629
1.87343
1.88506
1.85976
1.79859
1.70416
1.58045
1.43722
1.28237
1.12178
0.961513
0.807277
0.663345
0.532246
0.414733
0.309731
0.214854
0.126727
0.0417343
-0.0434469
-0.13233
-0.227236
-0.327729
-0.431419
-0.526015
0
1.48984
3.95498
6.94996
9.67795
11.316
11.3983
10.0356
7.83156
5.5486
3.74142
2.57619
1.90162
1.46277
1.13545
0.994744
0.873947
0.774142
0.698962
0.64943
0.624139
0.619841
0.632272
0.656956
0.689363
0.726191
0.765364
0.805782
0.847186
0.890038
0.935363
0.984586
1.03932
1.10115
1.17145
1.25123
1.34107
1.44113
1.55126
1.67122
1.80088
1.9404
2.09034
2.25152
2.42467
2.61008
2.80719
3.01442
3.22917
3.44824
3.66825
3.88615
4.09944
4.30572
4.50205
4.68459
4.84825
4.98612
5.08891
5.14563
5.14641
5.0855
4.96345
4.78825
4.57459
4.34112
4.10627
3.88044
3.66558
3.46113
3.26716
3.08299
2.90749
2.7395
2.57829
2.42388
2.27719
2.14037
2.01699
1.91101
1.82613
1.76553
1.73117
1.72331
1.74013
1.77813
1.83409
1.90049
1.96676
2.02305
2.06181
2.07889
2.07392
2.04988
2.012
1.9663
1.9183
1.87187
1.82887
1.79016
1.75631
1.72786
1.70541
1.6896
1.68108
1.68019
1.68667
1.69952
1.71683
1.73534
1.74977
1.75406
1.74266
1.71174
1.66025
1.59046
1.50761
1.41887
1.33185
1.25268
1.18387
1.12672
1.0823
1.05091
1.03245
1.02666
1.03321
1.0521
1.08371
1.12711
1.17693
1.22462
1.2613
1.28
1.27752
1.2553
1.21878
1.17565
1.13341
1.09677
1.06627
1.04055
1.01797
0.996751
0.975541
0.953968
0.93286
0.91413
0.90018
0.893178
0.894432
0.904088
0.921221
0.944255
0.97152
1.00166
1.03399
1.06864
1.10635
1.14826
1.19571
1.25021
1.31339
1.38771
1.47836
1.59752
1.76823
2.00082
2.25159
2.46502
2.58579
2.57355
2.41911
2.15295
1.83827
1.54728
1.33129
1.169
1.03388
0.915716
0.812997
0.727199
0.661817
0.614971
0.573073
0.517777
0.430096
0.289142
0.0801231
-0.18362
-0.473391
-0.647692
0
1.60651
4.15003
7.23305
10.1169
11.964
12.2096
10.8559
8.48753
5.97056
4.01201
2.86018
2.31702
2.00679
1.75343
1.6535
1.57062
1.50609
1.46201
1.43903
1.43678
1.4543
1.49046
1.5423
1.60843
1.68705
1.77579
1.87176
1.9718
2.07276
2.17202
2.26749
2.35778
2.44191
2.51947
2.59119
2.65865
2.72433
2.79144
2.86358
2.94419
3.03591
3.14005
3.25634
3.38244
3.51548
3.65251
3.79062
3.92723
4.0603
4.18838
4.31089
4.42804
4.54085
4.65076
4.75914
4.86747
4.9722
5.06102
5.1159
5.12008
5.06479
4.95174
4.79056
4.5939
4.37386
4.14447
3.91412
3.68725
3.46752
3.2581
3.06118
2.87775
2.70759
2.54959
2.40224
2.26415
2.13451
2.01326
1.90109
1.79909
1.70837
1.62969
1.56309
1.50793
1.46299
1.4263
1.39559
1.36901
1.34548
1.32479
1.30737
1.29389
1.28514
1.28013
1.27476
1.2632
1.23967
1.20047
1.14556
1.0792
1.00921
0.945292
0.896517
0.86672
0.866301
0.911294
1.00854
1.13
1.23595
1.28848
1.26216
1.15326
0.983884
0.797375
0.643984
0.561274
0.535059
0.537827
0.557774
0.589898
0.630016
0.675196
0.724144
0.776954
0.834251
0.896335
0.961193
1.02133
1.0652
1.08065
1.0589
0.998088
0.905154
0.794805
0.685638
0.594722
0.530057
0.486868
0.459609
0.44678
0.446796
0.458177
0.479441
0.509626
0.547766
0.592712
0.64316
0.697713
0.755305
0.815599
0.879262
0.947987
1.02423
1.1113
1.21575
1.34871
1.52402
1.742
1.96933
2.16599
2.29795
2.33447
2.25458
2.05942
1.78029
1.47426
1.20784
1.02239
0.895696
0.798703
0.718231
0.650645
0.590807
0.532474
0.469692
0.397801
0.312762
0.213041
0.101226
-0.0187113
-0.142848
-0.268124
0
0.747165
2.24479
4.5415
7.26313
9.64577
10.8584
10.45
8.62631
6.14974
3.91123
2.46526
1.83201
1.65907
1.56369
1.52332
1.49063
1.46706
1.45562
1.45598
1.46294
1.46947
1.46921
1.45846
1.43747
1.4102
1.38305
1.36282
1.35475
1.35977
1.37588
1.40076
1.43248
1.46922
1.50957
1.55261
1.59772
1.64434
1.6917
1.7386
1.78372
1.82621
1.86635
1.90598
1.94852
1.99851
2.06075
2.13934
2.23623
2.35043
2.4797
2.62086
2.76992
2.91752
3.05055
3.15637
3.22498
3.25044
3.23126
3.16933
3.06806
2.93038
2.7579
2.55669
2.3332
2.09264
1.84021
1.58231
1.3264
1.08014
0.851973
0.649643
0.473266
0.318617
0.178873
0.0469192
-0.0826169
-0.212229
-0.34147
-0.467695
-0.587478
-0.698734
-0.798194
-0.883448
-0.95305
-1.00652
-1.04439
-1.06814
-1.07991
-1.08217
-1.07727
-1.06721
-1.05362
-1.0376
-1.0199
-1.0015
-0.983263
-0.965393
-0.946848
-0.925071
-0.896317
-0.85663
-0.803198
-0.735567
-0.657133
-0.572368
-0.486658
-0.405171
-0.331669
-0.267814
-0.213193
-0.16598
-0.12394
-0.0855209
-0.0501688
-0.0184599
0.00842752
0.0294531
0.0442849
0.0534761
0.058271
0.0602573
0.061138
0.0627531
0.0672789
0.0775736
0.097237
0.138265
0.235929
0.411942
0.621189
0.791962
0.86162
0.80659
0.64996
0.446509
0.258435
0.136222
0.0827827
0.0697905
0.0816824
0.112213
0.157998
0.2161
0.283643
0.358008
0.437041
0.519096
0.60292
0.687415
0.771372
0.85321
0.930677
1.00097
1.06115
1.10819
1.13924
1.15159
1.14279
1.11023
1.05217
0.967867
0.858342
0.727096
0.580482
0.427465
0.278637
0.144644
0.0359051
-0.0362635
-0.0706316
-0.0731331
-0.0538168
-0.024227
-0.00103626
0
-0.0250877
-0.0911778
-0.198564
-0.3397
-0.499691
-0.647343
-0.130564
1.29604
3.55942
6.19302
8.45586
9.62887
9.35616
7.82867
5.68024
3.65146
2.23411
1.51195
1.26035
1.18402
1.10825
1.03612
0.967821
0.905622
0.852624
0.811776
0.785297
0.774423
0.778979
0.797241
0.826207
0.862246
0.901959
0.942946
0.984227
1.02613
1.0697
1.11594
1.16525
1.21635
1.26602
1.31024
1.34555
1.37043
1.38626
1.39764
1.41185
1.43772
1.48408
1.5562
1.65545
1.78081
1.92993
2.0993
2.28456
2.48042
2.68103
2.88016
3.06957
3.23773
3.37566
3.47518
3.52813
3.52933
3.47961
3.38652
3.26137
3.11418
2.94971
2.77162
2.58321
2.38627
2.182
1.97268
1.76171
1.55313
1.35091
1.15845
0.978089
0.811018
0.657381
0.516526
0.387311
0.268424
0.158626
0.0569995
-0.0368631
-0.122759
-0.199917
-0.267234
-0.323337
-0.366155
-0.394799
-0.412616
-0.4247
-0.436716
-0.453483
-0.477921
-0.510773
-0.551108
-0.597278
-0.647662
-0.700698
-0.755311
-0.810401
-0.8642
-0.91395
-0.956115
-0.986929
-1.00306
-1.00236
-0.984381
-0.950434
-0.903011
-0.846708
-0.788366
-0.735102
-0.692552
-0.664007
-0.650099
-0.649092
-0.657666
-0.671921
-0.688243
-0.70382
-0.717013
-0.726675
-0.731734
-0.731301
-0.724776
-0.712012
-0.69344
-0.670034
-0.643124
-0.614065
-0.583926
-0.553288
-0.522207
-0.490404
-0.457551
-0.42358
-0.388868
-0.354548
-0.322403
-0.294394
-0.272066
-0.255942
-0.245099
-0.237047
-0.227989
-0.213369
-0.188589
-0.150378
-0.0967462
-0.0259825
0.0626596
0.169006
0.292031
0.429642
0.580369
0.74252
0.910304
1.07438
1.22469
1.35125
1.44532
1.50197
1.51948
1.49941
1.44684
1.3703
1.28113
1.19184
1.11368
1.05256
1.00654
0.971468
0.944191
0.919963
0.893122
0.857824
0.80748
0.72798
0.597232
0.421917
0.217498
0.00430875
0
0.637815
2.05728
4.26968
6.97508
9.56091
11.287
11.6125
10.4853
8.39024
6.09391
4.24465
3.09388
2.50285
2.1757
1.95661
1.88275
1.82487
1.78881
1.77803
1.79325
1.8325
1.89172
1.96548
2.04742
2.13225
2.21642
2.29809
2.37711
2.45459
2.53232
2.61241
2.69669
2.7862
2.88077
2.97918
3.07943
3.17913
3.27596
3.3684
3.45625
3.54089
3.62517
3.71307
3.80912
3.91765
4.04215
4.1846
4.34518
4.52303
4.71646
4.92398
5.14582
5.38167
5.62421
5.85451
6.04915
6.18597
6.25003
6.23761
6.15682
6.02439
5.85987
5.67912
5.49097
5.29817
5.10183
4.90299
4.70276
4.50255
4.30415
4.10955
3.92055
3.73847
3.56396
3.39707
3.23744
3.08468
2.9388
2.80043
2.67095
2.55228
2.44658
2.35637
2.28404
2.22952
2.19133
2.16726
2.15505
2.15279
2.15894
2.17222
2.19123
2.21068
2.2226
2.21801
2.18937
2.13278
2.04934
1.94497
1.82901
1.71232
1.60376
1.50762
1.42708
1.36565
1.32785
1.31703
1.32753
1.34618
1.35863
1.35322
1.32432
1.274
1.21126
1.14926
1.10146
1.07531
1.06968
1.08259
1.11235
1.15553
1.20809
1.26488
1.31991
1.36768
1.40417
1.42735
1.43756
1.43739
1.43114
1.42395
1.42061
1.42473
1.4377
1.4591
1.48864
1.526
1.57076
1.6231
1.68397
1.7496
1.81191
1.86217
1.89491
1.91121
1.91921
1.93095
1.95693
2.00113
2.05814
2.11872
2.17311
2.21605
2.25013
2.28576
2.33776
2.41992
2.53979
2.70794
2.90805
3.10704
3.27241
3.38191
3.42707
3.41108
3.34414
3.23927
3.10971
2.96878
2.82597
2.68667
2.55319
2.42608
2.30526
2.19074
2.08229
1.97926
1.88072
1.78579
1.6918
1.55719
1.22894
0.751109
0.245756
-0.133071
0
0.938392
2.85753
5.61664
8.66935
11.1957
12.4413
12.082
10.3806
8.02661
5.7682
4.0777
3.04029
2.47933
2.17601
2.20164
2.26227
2.35051
2.46558
2.59947
2.74119
2.88176
3.01839
3.15266
3.28624
3.42014
3.55459
3.68873
3.82049
3.94667
4.06369
4.16832
4.25854
4.33407
4.39674
4.45041
4.50054
4.55355
4.61588
4.69285
4.78785
4.90199
5.03411
5.18091
5.33795
5.4989
5.65787
5.81045
5.95452
6.09026
6.21966
6.34549
6.47013
6.59468
6.71792
6.83548
6.94012
7.02256
7.07385
7.08567
7.05089
6.96409
6.82211
6.62485
6.37589
6.08272
5.75667
5.41301
5.06516
4.72262
4.39347
4.08454
3.80112
3.54687
3.32373
3.13192
2.97037
2.83821
2.7326
2.64486
2.56557
2.48641
2.40186
2.31045
2.2151
2.12229
2.04041
1.97762
1.93765
1.92355
1.93537
1.97141
2.03222
2.11175
2.1933
2.25956
2.29601
2.29418
2.25389
2.18352
2.09793
2.01459
1.9492
1.90581
1.88169
1.87472
1.88338
1.90497
1.93624
1.97391
2.01489
2.05657
2.09649
2.13165
2.15861
2.17402
2.17495
2.15978
2.12902
2.08579
2.0357
1.98593
1.9439
1.91472
1.90405
1.91684
1.9476
1.98146
2.00166
1.99476
1.95479
1.88491
1.79605
1.70319
1.62047
1.55483
1.5043
1.4655
1.43657
1.41527
1.39928
1.3867
1.37639
1.36802
1.362
1.35914
1.36022
1.36581
1.37603
1.38881
1.39937
1.40261
1.39522
1.37758
1.35426
1.33303
1.32234
1.32862
1.35301
1.39105
1.44061
1.49933
1.56569
1.64042
1.73786
1.93106
2.31347
2.76578
3.14426
3.34623
3.34524
3.18069
2.91563
2.59782
2.25419
1.9305
1.68463
1.51062
1.38516
1.29611
1.25009
1.2371
1.23595
1.22252
1.17506
1.0784
0.926185
0.709907
0.44134
0.137154
-0.184621
0
0.990838
2.97227
5.80271
8.94904
11.6066
13.0013
12.7451
11.0392
8.57403
6.1678
4.37375
3.30395
2.74617
2.42614
2.31866
2.28799
2.26935
2.26245
2.26663
2.28012
2.30056
2.32555
2.35323
2.38294
2.41535
2.45232
2.49648
2.55049
2.61629
2.69447
2.7837
2.88119
2.9836
3.08761
3.19053
3.29087
3.38855
3.48487
3.5821
3.68288
3.78968
3.90427
4.02746
4.15904
4.29791
4.44234
4.59016
4.73905
4.88676
5.03127
5.17115
5.30577
5.43551
5.56167
5.68629
5.81374
5.95109
6.09492
6.22359
6.30637
6.31581
6.23836
6.07916
5.85957
5.60827
5.3493
5.09295
4.83913
4.5874
4.3388
4.09611
3.86365
3.64685
3.45254
3.29094
3.17239
3.09619
3.05024
3.0184
2.98512
2.93956
2.878
2.80385
2.72575
2.65427
2.59749
2.55729
2.53171
2.5191
2.51696
2.52118
2.52765
2.53317
2.5359
2.53548
2.53256
2.52824
2.52343
2.51836
2.51261
2.50533
2.49572
2.48346
2.46897
2.4534
2.4383
2.42528
2.41548
2.40939
2.4069
2.40765
2.41113
2.41684
2.42437
2.43332
2.44312
2.45282
2.46098
2.4657
2.46483
2.45638
2.43878
2.41119
2.3736
2.32681
2.27226
2.21196
2.14834
2.08427
2.02294
1.96844
1.92488
1.89611
1.88497
1.89263
1.92153
1.96847
2.02334
2.07428
2.11025
2.12334
2.10996
2.07106
2.01138
1.93841
1.86129
1.7887
1.72727
1.68245
1.65734
1.65225
1.6647
1.69
1.72231
1.75582
1.78603
1.81092
1.82942
1.84194
1.85017
1.85691
1.86573
1.88061
1.90619
1.95086
2.02686
2.13728
2.25842
2.35707
2.40033
2.3654
2.24665
2.05847
1.83227
1.60744
1.41781
1.26489
1.13494
1.02032
0.91768
0.823511
0.734792
0.649074
0.564647
0.480246
0.394548
0.305184
0.210086
0.10754
-0.0474637
0
0.681157
2.22575
4.58516
7.32245
9.69647
10.9418
10.6197
8.8402
6.21314
3.55618
1.53135
0.412674
0.0829192
0.207854
0.282405
0.351887
0.415359
0.471373
0.520093
0.56255
0.600658
0.636839
0.673616
0.713208
0.75735
0.807138
0.863001
0.924768
0.99184
1.06348
1.13903
1.21814
1.30081
1.3875
1.47892
1.57593
1.6792
1.78902
1.90508
2.02644
2.15153
2.27827
2.40437
2.52752
2.64556
2.75682
2.86058
2.95716
3.04795
3.13526
3.22192
3.31109
3.40674
3.50915
3.60955
3.69412
3.74873
3.76395
3.73755
3.67347
3.57801
3.45538
3.30761
3.13831
2.94977
2.74276
2.51803
2.2777
2.02571
1.76763
1.51
1.2596
1.02271
0.804543
0.609027
0.438782
0.295317
0.17923
0.0903496
0.0286432
-0.00387764
-0.00466442
0.020237
0.0562458
0.0880301
0.103244
0.0956758
0.0663792
0.0222712
-0.0271544
-0.0734219
-0.112445
-0.14468
-0.170573
-0.190047
-0.202869
-0.208511
-0.206316
-0.195841
-0.177484
-0.152147
-0.121542
-0.0882156
-0.0553581
-0.026041
-0.00256233
0.0139812
0.0238785
0.0286915
0.0308739
0.0332127
0.0382362
0.0475636
0.0616234
0.0801338
0.102254
0.126671
0.151716
0.175578
0.196592
0.21342
0.225183
0.231545
0.232743
0.22957
0.223302
0.215593
0.208232
0.202878
0.200904
0.203378
0.210457
0.220821
0.232447
0.243261
0.251823
0.25783
0.262254
0.267107
0.274989
0.288517
0.309336
0.338711
0.377687
0.42656
0.484679
0.55122
0.62365
0.697227
0.767128
0.829776
0.883995
0.931551
0.976871
1.02601
1.08521
1.15881
1.2474
1.35427
1.48349
1.63285
1.7891
1.9338
2.04923
2.12119
2.14069
2.10476
2.01717
1.88898
1.73821
1.58731
1.45685
1.35615
1.28146
1.2256
1.18506
1.15561
1.13118
1.10497
1.07016
1.01447
0.897446
0.668437
0.361793
0.027187
-0.292613
0
1.0795
3.04692
5.67502
8.38011
10.3776
11.0066
10.065
7.93787
5.41288
3.28234
1.98553
1.50316
1.52122
1.65013
1.67412
1.69079
1.7006
1.70403
1.7025
1.69826
1.69397
1.69229
1.69545
1.70492
1.72155
1.74572
1.77751
1.81678
1.86321
1.91631
1.97552
2.04022
2.10983
2.18389
2.26219
2.34476
2.43186
2.52391
2.62134
2.72446
2.83345
2.9482
3.06837
3.19337
3.3224
3.45449
3.58853
3.72332
3.85754
3.98969
4.11801
4.24014
4.35324
4.45457
4.54149
4.61171
4.6634
4.69509
4.70393
4.68835
4.64701
4.57886
4.48357
4.36205
4.21666
4.05101
3.86935
3.67596
3.47532
3.2703
3.06278
2.8544
2.64681
2.442
2.24279
2.05351
1.88107
1.73382
1.61766
1.5371
1.49406
1.48672
1.50911
1.55163
1.60268
1.65108
1.68891
1.71466
1.72945
1.73466
1.73278
1.72659
1.7186
1.7106
1.70372
1.69878
1.69663
1.69844
1.70581
1.72061
1.74466
1.77921
1.82441
1.87904
1.94118
2.00699
2.071
2.12818
2.17509
2.21072
2.23659
2.25621
2.27392
2.29353
2.31715
2.34454
2.37369
2.40113
2.42312
2.43678
2.44099
2.43671
2.42682
2.41534
2.40635
2.40284
2.40596
2.41491
2.42613
2.43496
2.43717
2.43008
2.41299
2.3869
2.35359
2.31486
2.2724
2.22761
2.18196
2.13768
2.09785
2.06594
2.04509
2.0372
2.04247
2.05926
2.08458
2.11491
2.14704
2.17897
2.21003
2.24069
2.27251
2.30784
2.34947
2.40024
2.46249
2.53766
2.62727
2.73304
2.85127
2.97031
3.07594
3.15478
3.19666
3.19569
3.15009
3.06135
2.93348
2.77283
2.59035
2.39772
2.20578
2.02382
1.85825
1.71289
1.5924
1.50169
1.44313
1.40683
1.37312
1.3195
1.22477
1.02825
0.726404
0.340218
-0.0919399
0
1.09112
3.2528
6.13944
9.0568
11.2026
11.9817
11.2556
9.39992
7.12369
5.1373
3.85004
3.2628
3.08924
2.96657
2.7889
2.62195
2.47711
2.36313
2.28506
2.24403
2.23766
2.2611
2.30826
2.37309
2.44921
2.53284
2.62278
2.7197
2.82534
2.94157
3.07028
3.21224
3.36638
3.53136
3.6995
3.85898
3.99866
4.11141
4.19636
4.25915
4.31025
4.36185
4.42445
4.50234
4.59369
4.69535
4.80334
4.91262
5.01773
5.11369
5.19657
5.26378
5.31398
5.34679
5.36235
5.36083
5.34233
5.30661
5.25312
5.18112
5.08971
4.97794
4.84486
4.68977
4.51302
4.31556
4.09951
3.86863
3.62832
3.38516
3.14611
2.91757
2.70438
2.50926
2.33255
2.17272
2.02724
1.89366
1.77048
1.65812
1.5588
1.47534
1.41051
1.36589
1.34427
1.34264
1.35405
1.37025
1.38372
1.38917
1.38422
1.36909
1.34573
1.31658
1.28411
1.24974
1.21406
1.17729
1.13965
1.10163
1.06422
1.02922
0.999201
0.977146
0.966165
0.969006
0.98759
1.02261
1.07325
1.13711
1.21168
1.29157
1.36836
1.43346
1.4797
1.50268
1.50146
1.47861
1.43935
1.39031
1.33819
1.28844
1.24412
1.20678
1.17741
1.15681
1.14536
1.143
1.14918
1.16285
1.18252
1.20627
1.23175
1.25643
1.27794
1.29439
1.30466
1.30849
1.30652
1.30001
1.29057
1.27979
1.26896
1.25898
1.25042
1.24374
1.2395
1.23851
1.24182
1.25072
1.26654
1.29042
1.32347
1.36678
1.42141
1.48818
1.56772
1.66087
1.76906
1.89424
2.03874
2.20315
2.37998
2.54936
2.68596
2.76143
2.74914
2.63355
2.42086
2.1453
1.86359
1.63355
1.46674
1.33279
1.21222
1.09889
0.98832
0.877378
0.767919
0.664718
0.571528
0.48779
0.409281
0.312817
0.174083
-0.00955753
-0.219393
0
0.984774
2.83647
5.36651
8.07794
10.2817
11.3452
10.9779
9.38884
7.19701
5.1203
3.63234
2.80087
2.38459
2.08389
1.91178
1.76099
1.63871
1.55255
1.50493
1.49366
1.51341
1.55744
1.61901
1.69075
1.76724
1.84496
1.92137
1.99468
2.06409
2.13007
2.19452
2.26058
2.33226
2.41382
2.50902
2.62024
2.74819
2.89211
3.04965
3.21713
3.38999
3.56347
3.73312
3.89542
4.04809
4.19025
4.32225
4.44536
4.56132
4.67183
4.77828
4.88151
4.98188
5.07938
5.17384
5.26489
5.35156
5.43125
5.49894
5.54847
5.57176
5.56054
5.50841
5.4124
5.27332
5.09498
4.88304
4.6459
4.39489
4.13797
3.88142
3.63192
3.39628
3.18077
2.99169
2.83675
2.72003
2.63458
2.56968
2.51372
2.45718
2.39491
2.32685
2.25725
2.19252
2.13861
2.09706
2.06829
2.05005
2.03849
2.02956
2.02033
2.00988
1.99936
1.99137
1.98874
1.99315
2.00485
2.02208
2.04047
2.05509
2.06207
2.05995
2.05031
2.03737
2.0266
2.02306
2.02924
2.04626
2.07083
2.09574
2.11346
2.11898
2.11154
2.09468
2.07439
2.05623
2.04277
2.03211
2.01893
1.99737
1.96423
1.9211
1.87422
1.8322
1.80265
1.78782
1.78357
1.78687
1.79332
1.79845
1.79892
1.79326
1.78203
1.76749
1.75273
1.74079
1.73356
1.7314
1.73378
1.73909
1.74476
1.748
1.74653
1.73902
1.72542
1.7069
1.68557
1.66396
1.64455
1.62914
1.61864
1.61342
1.61347
1.61858
1.62854
1.64336
1.66338
1.6907
1.7366
1.86628
2.21191
2.70262
3.19385
3.51612
3.55443
3.30796
2.87871
2.40182
1.97439
1.64618
1.41141
1.23144
1.0819
0.956049
0.855601
0.785912
0.751176
0.746475
0.753636
0.751033
0.718142
0.639752
0.508954
0.328201
0.108364
-0.152884
0
1.05365
3.18299
6.13143
9.21108
11.5399
12.4138
11.6222
9.53426
6.90539
4.51569
2.84516
1.95832
1.62451
1.54878
1.53281
1.5159
1.4988
1.4823
1.46793
1.45779
1.45421
1.45929
1.47452
1.50051
1.53699
1.58308
1.63762
1.69948
1.7674
1.8405
1.91804
1.99903
2.08224
2.16627
2.24983
2.33214
2.41325
2.49431
2.57759
2.66625
2.76387
2.8738
2.99847
3.13865
3.29307
3.45841
3.63007
3.79993
3.95963
4.10239
4.22432
4.32487
4.4063
4.47213
4.52447
4.56502
4.59285
4.60406
4.59312
4.55463
4.48507
4.38388
4.25392
4.10106
3.93346
3.7594
3.58539
3.41536
3.2511
3.09368
2.94335
2.79988
2.66283
2.53171
2.4061
2.28559
2.17003
2.06004
1.95859
1.87041
1.80085
1.75551
1.73796
1.74766
1.77923
1.82337
1.86943
1.90822
1.93616
1.95335
1.96028
1.95844
1.94923
1.93352
1.91101
1.88057
1.841
1.79204
1.73475
1.67151
1.61002
1.55942
1.52769
1.51921
1.53332
1.56459
1.60462
1.64474
1.67843
1.70273
1.71763
1.72492
1.72647
1.72334
1.71536
1.70168
1.68185
1.65658
1.62799
1.5991
1.57296
1.55148
1.53442
1.52058
1.50753
1.49227
1.47207
1.44524
1.41171
1.37328
1.33355
1.29753
1.27124
1.2604
1.26962
1.30151
1.35603
1.4346
1.53248
1.63775
1.73626
1.8152
1.8654
1.88274
1.8686
1.82953
1.77604
1.72092
1.67683
1.65325
1.65361
1.67601
1.71729
1.7756
1.84896
1.93554
2.03483
2.14893
2.28149
2.42522
2.55598
2.64085
2.64936
2.56722
2.40424
2.19116
1.96741
1.76724
1.60106
1.45889
1.33519
1.23012
1.14454
1.07891
1.02808
0.981651
0.926969
0.85114
0.731028
0.528369
0.256466
-0.0526372
-0.354857
0
1.25151
3.43881
6.22935
8.95787
10.8546
11.3621
10.3838
8.33013
5.92164
3.85168
2.4942
1.81788
1.53092
1.32584
1.17625
1.04723
0.954456
0.907335
0.907176
0.947298
1.01512
1.09572
1.17584
1.24805
1.31209
1.37016
1.42473
1.47841
1.53391
1.59349
1.65866
1.72999
1.80723
1.88946
1.97537
2.06361
2.15294
2.24239
2.33122
2.41892
2.50519
2.58995
2.6735
2.75665
2.84071
2.92744
3.01876
3.11622
3.22059
3.33133
3.44667
3.56307
3.67559
3.77872
3.86709
3.93589
3.98109
3.99938
3.98828
3.94604
3.87174
3.76563
3.62934
3.46604
3.28036
3.07802
2.86578
2.64995
2.43609
2.22915
2.03332
1.85178
1.68645
1.53864
1.40862
1.29223
1.18324
1.0751
0.962632
0.8437
0.720061
0.597267
0.483513
0.38777
0.314485
0.26805
0.254499
0.277272
0.332389
0.406072
0.479372
0.535233
0.561405
0.55215
0.508704
0.438529
0.353528
0.267598
0.19378
0.13905
0.104047
0.0879437
0.0912386
0.11267
0.151414
0.203628
0.261893
0.318327
0.365906
0.399619
0.417194
0.419236
0.408795
0.39051
0.369554
0.350447
0.33594
0.327171
0.323955
0.325234
0.328712
0.331578
0.331177
0.325598
0.314055
0.29698
0.275835
0.252702
0.229814
0.209071
0.191766
0.178811
0.17084
0.168248
0.171235
0.17984
0.193894
0.212742
0.234988
0.258566
0.280917
0.299355
0.311935
0.318144
0.319477
0.319689
0.324574
0.34121
0.376801
0.437365
0.525909
0.641367
0.789083
0.978283
1.21498
1.47688
1.72274
1.91296
2.01036
1.99077
1.85389
1.62476
1.3461
1.06986
0.848502
0.687386
0.566781
0.476603
0.419281
0.387258
0.369306
0.352611
0.325043
0.277005
0.202482
0.0992765
-0.0313171
-0.185056
-0.35433
-0.53768
-0.555212
0
1.38042
3.59074
6.2617
8.71767
10.2276
10.3251
9.01673
6.75833
4.22473
2.01163
0.428869
-0.532415
-1.08296
-1.4076
-1.67604
-1.93919
-2.19662
-2.44789
-2.69085
-2.9201
-3.12723
-3.30164
-3.42989
-3.50117
-3.51286
-3.47307
-3.39869
-3.31004
-3.22455
-3.15005
-3.08392
-3.02172
-2.95922
-2.89195
-2.81529
-2.72526
-2.61931
-2.49691
-2.35984
-2.21215
-2.05932
-1.90771
-1.76327
-1.63036
-1.51102
-1.40474
-1.30876
-1.21888
-1.13054
-1.03993
-0.944922
-0.845387
-0.742999
-0.642048
-0.548288
-0.467189
-0.402602
-0.355933
-0.326058
-0.309966
-0.303908
-0.304654
-0.310401
-0.321073
-0.337992
-0.362901
-0.396845
-0.439245
-0.487457
-0.537025
-0.582566
-0.619236
-0.644126
-0.653608
-0.649894
-0.638461
-0.625435
-0.615173
-0.608473
-0.602069
-0.589537
-0.563206
-0.516334
-0.448162
-0.360725
-0.255939
-0.135977
-0.0034893
0.138956
0.289205
0.444813
0.599587
0.74062
0.850494
0.910608
0.908794
0.846997
0.743708
0.628285
0.529107
0.461863
0.416919
0.381337
0.349781
0.318827
0.287097
0.255164
0.224648
0.197085
0.172705
0.149834
0.12567
0.0975986
0.0644338
0.0269559
-0.0125446
-0.0515184
-0.0886438
-0.125004
-0.163209
-0.206956
-0.260285
-0.326544
-0.407392
-0.502069
-0.607111
-0.716619
-0.82312
-0.91908
-0.993295
-1.03016
-1.02511
-0.992766
-0.954471
-0.931071
-0.936938
-0.977281
-1.04879
-1.1423
-1.24576
-1.34704
-1.43869
-1.51759
-1.58273
-1.63466
-1.67514
-1.70646
-1.73201
-1.75581
-1.78248
-1.81628
-1.86026
-1.91541
-1.98376
-2.05772
-2.11796
-2.14077
-2.1044
-1.9953
-1.81198
-1.56492
-1.27305
-0.958453
-0.641995
-0.338212
-0.0649871
0.161345
0.333971
0.448145
0.501244
0.494437
0.434711
0.335819
0.217202
0.10076
0.0062747
-0.0594724
-0.101378
-0.126046
-0.136271
-0.136549
-0.134
-0.136376
-0.150581
-0.181546
-0.231506
-0.299839
-0.383488
-0.477774
-0.5841
0
1.43507
3.71502
6.45014
8.94301
10.46
10.5701
9.35857
7.37739
5.35479
3.83928
2.99495
2.64848
2.51056
2.4575
2.41832
2.38515
2.35904
2.34142
2.33392
2.33766
2.35357
2.38234
2.42431
2.47951
2.54777
2.62908
2.72377
2.83231
2.95486
3.09226
3.24478
3.41167
3.59082
3.77901
3.97217
4.16592
4.35605
4.53949
4.7149
4.88281
5.0454
5.20574
5.3668
5.53052
5.69709
5.86491
6.03102
6.19221
6.34619
6.49266
6.63373
6.77368
6.9197
7.0908
7.30523
7.53591
7.73608
7.86244
7.89341
7.83431
7.70973
7.54919
7.37299
7.18385
6.97607
6.74734
6.49746
6.22707
5.93792
5.63355
5.31989
5.00506
4.69839
4.40946
4.14822
3.92412
3.74228
3.60416
3.50809
3.44975
3.42295
3.42054
3.43539
3.46127
3.49336
3.52826
3.56403
3.59942
3.63321
3.66405
3.69026
3.7101
3.722
3.72474
3.71737
3.69899
3.66844
3.62431
3.56634
3.49422
3.4088
3.3129
3.2114
3.11098
3.01961
2.94491
2.8927
2.86593
2.86417
2.88488
2.92266
2.96865
3.01321
3.04796
3.06683
3.06644
3.04603
3.00684
2.95141
2.88274
2.80412
2.71853
2.62815
2.53438
2.43803
2.33955
2.23908
2.13662
2.0322
1.92601
1.81865
1.71116
1.60495
1.50158
1.4025
1.30873
1.22061
1.13792
1.06002
0.986195
0.915956
0.849234
0.786419
0.728225
0.67541
0.62866
0.588417
0.554729
0.527336
0.50578
0.489504
0.477907
0.470365
0.466299
0.464914
0.46522
0.466447
0.468371
0.471598
0.47765
0.488764
0.507425
0.53575
0.574692
0.623581
0.681168
0.745661
0.814972
0.887222
0.961257
1.03695
1.11529
1.1983
1.28966
1.40051
1.56594
1.8382
2.18042
2.50317
2.72946
2.82116
2.78264
2.64072
2.42043
2.14103
1.83918
1.5829
1.39924
1.27078
1.17369
1.09312
1.02232
0.95522
0.88555
0.807236
0.710981
0.579268
0.412852
0.219564
0.0127999
0
0.726632
2.46273
5.14859
8.27864
11.0279
12.5827
12.5124
10.97
8.59957
6.20661
4.38964
3.34068
2.89558
2.75166
2.72329
2.72278
2.72755
2.73812
2.75532
2.77962
2.81098
2.84883
2.8919
2.93874
2.98769
3.03725
3.08643
3.13497
3.18334
3.23253
3.28372
3.33795
3.39607
3.45855
3.52584
3.59876
3.67867
3.76744
3.86702
3.97891
4.1035
4.23922
4.38315
4.53159
4.67996
4.82269
4.95337
5.06697
5.16008
5.23153
5.2827
5.31755
5.34215
5.36387
5.39037
5.43344
5.51749
5.6616
5.83197
5.97707
6.0454
6.00392
5.85008
5.6113
5.33145
5.05062
4.78689
4.53149
4.27801
4.02427
3.76947
3.51409
3.26004
3.01061
2.77014
2.5447
2.34243
2.16962
2.03022
1.92597
1.85605
1.8172
1.80418
1.81057
1.82968
1.85531
1.88207
1.9061
1.92412
1.93363
1.9328
1.92062
1.89709
1.86329
1.82134
1.7741
1.72482
1.67658
1.6318
1.59233
1.55963
1.53478
1.51876
1.51245
1.51629
1.53023
1.55352
1.58577
1.62379
1.66185
1.69399
1.7155
1.72409
1.72032
1.70706
1.68842
1.66861
1.65106
1.63778
1.63093
1.63259
1.64478
1.66922
1.70695
1.75799
1.82062
1.89255
1.97106
2.0531
2.1355
2.21517
2.28892
2.35403
2.4087
2.45205
2.48427
2.50659
2.52101
2.5298
2.53494
2.53747
2.53766
2.53508
2.52922
2.52022
2.50929
2.49862
2.49083
2.48807
2.49105
2.49879
2.50872
2.51632
2.51566
2.5012
2.46903
2.41798
2.35032
2.2717
2.19035
2.11563
2.05632
2.01733
2.00248
2.0131
2.04846
2.10646
2.18404
2.2769
2.38168
2.49596
2.61781
2.74555
2.87772
3.01293
3.14984
3.28695
3.42219
3.55188
3.6693
3.7659
3.83234
3.85903
3.83828
3.76654
3.64603
3.48509
3.29697
3.09726
2.89993
2.71148
2.53325
2.36483
2.20467
2.0501
1.89748
1.72648
1.40585
0.931976
0.378055
-0.12472
-0.396969
0
1.31414
3.59931
6.52405
9.38708
11.3463
11.79
10.6432
8.40531
5.87728
3.75415
2.34469
1.56623
1.15159
0.886972
0.731964
0.575835
0.41776
0.256854
0.0925429
-0.0741751
-0.235736
-0.378569
-0.487336
-0.550125
-0.562925
-0.531203
-0.467764
-0.387934
-0.304475
-0.224121
-0.147438
-0.0736926
-0.00240757
0.066884
0.134692
0.201759
0.269355
0.339501
0.41498
0.499034
0.594789
0.704558
0.829215
0.9678
1.11769
1.27519
1.43628
1.59733
1.75586
1.91077
2.06243
2.21224
2.36213
2.51404
2.66972
2.83061
2.99669
3.16287
3.31599
3.43942
3.51612
3.53231
3.48088
3.3633
3.18917
2.97427
2.73809
2.5018
2.27837
2.07159
1.8821
1.71065
1.55765
1.42113
1.29657
1.1784
1.06118
0.940861
0.815707
0.686739
0.557488
0.433165
0.319252
0.220322
0.14012
0.0801389
0.0393393
0.0137648
-0.00322993
-0.0178418
-0.0341971
-0.0533115
-0.0729042
-0.0881365
-0.0931185
-0.0770933
-0.0287068
0.0422691
0.113022
0.15831
0.161213
0.120579
0.0519015
-0.0188745
-0.0661116
-0.0750102
-0.0560568
-0.0240125
0.0130205
0.0491439
0.0798413
0.102584
0.116861
0.123751
0.125289
0.123976
0.122031
0.121215
0.122938
0.128238
0.13775
0.151659
0.169623
0.190839
0.214118
0.237885
0.260532
0.280741
0.297739
0.31142
0.322306
0.331367
0.339777
0.348694
0.359097
0.371787
0.387508
0.406993
0.430968
0.460075
0.494705
0.534793
0.579732
0.628182
0.677795
0.725058
0.765785
0.795919
0.812107
0.812262
0.795983
0.764737
0.721777
0.671787
0.620333
0.573096
0.534792
0.508691
0.497521
0.503149
0.526444
0.56741
0.625397
0.699304
0.787746
0.892202
1.0173
1.16499
1.31807
1.44793
1.52362
1.52361
1.44578
1.30881
1.14285
0.974775
0.818575
0.672882
0.535013
0.405209
0.285971
0.180916
0.0959743
0.0387691
0.0107442
0
-0.0170535
-0.0523882
-0.120255
-0.227598
-0.373024
-0.547866
-0.738431
-0.557688
0.25104
1.82807
4.09201
6.66055
8.90494
10.1682
10.0585
8.64849
6.4475
4.15562
2.34822
1.27341
0.848976
0.812676
0.843452
0.867125
0.886792
0.901342
0.910651
0.915697
0.918666
0.922905
0.932623
0.952324
0.986025
1.03641
1.10417
1.18701
1.28093
1.38137
1.48341
1.58269
1.67612
1.76243
1.84232
1.9183
1.99418
2.07447
2.16358
2.26506
2.381
2.51146
2.65437
2.80667
2.96197
3.10989
3.24061
3.34737
3.42817
3.48632
3.52931
3.56662
3.60692
3.65575
3.71292
3.77556
3.83981
3.90055
3.95149
3.9854
3.9956
3.97694
3.92554
3.83942
3.71912
3.56812
3.39262
3.20085
3.00169
2.8033
2.6108
2.42858
2.26118
2.1134
1.98977
1.89333
1.82734
1.79495
1.79796
1.83552
1.90325
1.99318
2.09449
2.1951
2.28482
2.35736
2.40849
2.43756
2.44738
2.44343
2.43261
2.42197
2.41753
2.42275
2.43908
2.46744
2.50822
2.56133
2.62819
2.70634
2.7848
2.8507
2.89303
2.90615
2.89163
2.85708
2.81277
2.7676
2.72639
2.6891
2.65547
2.62579
2.60118
2.58361
2.57518
2.57742
2.59136
2.61382
2.63862
2.65839
2.66638
2.65802
2.63174
2.58908
2.53419
2.47282
2.4112
2.35407
2.30425
2.26275
2.2294
2.20235
2.17883
2.15588
2.13106
2.10299
2.07156
2.03788
2.00396
1.9722
1.94468
1.92311
1.90849
1.9011
1.90025
1.90391
1.90922
1.91334
1.91411
1.91059
1.90324
1.89375
1.88458
1.87839
1.87745
1.8831
1.89595
1.9163
1.94506
1.98774
2.07079
2.30008
2.71853
3.18902
3.58189
3.79519
3.77501
3.52106
3.08861
2.58263
2.13265
1.8715
1.75287
1.67344
1.60751
1.54966
1.49868
1.45344
1.41223
1.37179
1.327
1.27154
1.1986
1.08816
0.901135
0.643497
0.334667
0
0.0858818
0.837057
2.4292
4.78126
7.43553
9.64077
10.662
10.1552
8.36205
5.98384
3.81864
2.3909
1.78399
1.72738
1.79856
1.70069
1.60423
1.51292
1.43043
1.35968
1.30261
1.26002
1.23165
1.21629
1.21218
1.21725
1.22979
1.24875
1.27385
1.30541
1.34407
1.39058
1.44525
1.50748
1.57585
1.64777
1.71903
1.78515
1.84284
1.89102
1.93142
1.96839
2.00797
2.05644
2.11876
2.19693
2.28918
2.39237
2.50299
2.61733
2.73189
2.84383
2.95084
3.0507
3.14116
3.21983
3.28375
3.32906
3.35146
3.34638
3.30941
3.23679
3.12589
2.97569
2.78721
2.56382
2.31149
2.03925
1.75736
1.47492
1.19971
0.938665
0.697202
0.478736
0.284553
0.113535
-0.0379265
-0.174827
-0.302555
-0.42585
-0.547918
-0.669898
-0.790786
-0.907801
-1.01716
-1.11512
-1.1985
-1.26529
-1.31477
-1.34752
78
265
457
640
821
1004
1189
1380
1571
1758
1946
2134
2322
2506
2688
2879
3080
3283
3477
3666
3739
3221
3366
3512
3660
3631
0
0
0
0
0
0
0
0
0
0
0
0
0
0
0
0
0
0
0
0
0
0
0
0
0
0
0
0
0
0
0
0
0
0
0
0
0
0
0
0
0
0
0
0
0
0
0
0
0
0
0
0
0
0
0
0
0
0
0
0
0
0
0
0
0
0
0
0
0
0
0
0
0
0
0
0
0
0
0
0
0
0
0
0
0
0
0
0
0
0
0
0
0
0
0
0
0
0
0
0
0
0
0
0
0
0
0
0
0
0
0
0
0
0
0
0
0
0
0
0
0
0
0
0
0
0
0
0
0
0
0
0
0
0
0
0
0
0
0
0
0
0
0
0
0
0
0
0
0
0
0
0
0
0
0
0
0
0
0
0
0
0
0
0
0
0
0
0
0
0
0
0
0
0
0
0
0
0
0
0
0
0
0
0
0
0
0
0
0
0
0
0
0
0
0
0
0
0
0
0
0
0
0
0
0
0
0
0
0
0
0
0
0
0
0
0
0
0
0
0
0
0
0
0
0
0
0
0
0
0
0
0
0
0
0
0
0
0
0
0
0
0
0
0
0
0
0
0
0
0
0
0
0
0
0
0
0
0
0
0
0
0
0
0
0
0
0
0
0
0
0
0
0
0
0
0
0
0
0
0
0
0
0
0
0
0
0
0
0
0
0
0
0
0
0
0
0
0
0
0
0
0
0
0
0
0
0
0
0
0
0
0
0
0
0
0
0
0
0
0
0
0
0
0
0
0
0
0
0
0
0
0
0
0
0
0
0
0
0
0
0
0
0
0
0
0
0
0
0
0
0
0
0
0
0
0
0
0
0
0
0
0
0
0
0
0
0
0
0
0
0
0
0
0
0
0
0
0
0
0
0
0
0
0
0
0
0
0
0
0
0
0
0
0
0
0
0
0
0
0
0
0
0
0
0
0
0
0
0
0
0
0
0
0
0
0
0
0
0
0
0
0
0
0
0
0
0
0
0
0
0
0
0
0
0
0
0
0
0
0
0
0
0
0
0
0
0
0
0
0
0
0
0
0
0
0
0
0
0
0
0
0
0
0
0
0
0
0
0
0
0
0
0
0
0
0
0
0
0
0
0
0
0
0
0
0
0
0
0
0
0
0
0
0
0
0
0
0
0
0
0
0
0
0
0
0
0
0
0
0
0
0
0
0
0
0
0
0
0
0
0
0
0
0
0
0
0
0
0
0
0
0
0
0
0
0
0
0
0
0
0
0
0
0
0
0
0
0
0
0
0
0
0
0
0
0
0
0
0
0
0
0
0
0
0
0
0
0
0
0
0
0
0
0
0
0
0
0
0
0
0
0
0
0
0
0
0
0
0
0
0
0
0
0
0
0
0
0
0
0
0
0
0
0
0
0
0
0
0
0
0
0
0
0
0
0
0
0
0
0
0
0
0
0
0
0
0
0
0
0
0
0
0
0
0
0
0
0
0
0
0
0
0
0
0
0
0
0
0
0
0
0
0
0
0
0
0
0
0
0
0
0
0
0
0
0
0
0
0
0
0
0
0
0
0
0
0
0
0
0
0
0
0
0
0
0
0
0
0
0
0
0
0
0
0
0
0
0
0
0
0
0
0
0
0
0
0
0
0
0
0
0
0
0
0
0
0
0
0
0
0
0
0
0
0
0
0
0
0
0
0
0
0
0
0
0
0
0
0
0
0
0
0
0
0
0
0
0
0
0
0
0
0
0
0
0
0
0
0
0
0
0
0
0
0
0
0
0
0
0
0
0
0
0
0
0
0
0
0
0
0
0
0
0
0
0
0
0
0
0
0
0
0
0
0
0
0
0
0
0
0
0
0
0
0
0
0
0
0
0
0
0
0
0
0
0
0
0
0
0
0
0
0
0
0
0
0
0
0
0
0
0
0
0
0
0
0
0
0
0
0
0
0
0
0
0
0
0
0
0
0
0
0
0
0
0
0
0
0
0
0
0
0
0
0
0
0
0
0
0
0
0
0
0
0
0
0
0
0
0
0
0
0
0
0
0
0
0
0
0
0
0
0
0
0
0
0
0
0
0
0
0
0
0
0
0
0
0
0
0
0
0
0
0
0
0
0
0
0
0
0
0
0
0
0
0
0
0
0
0
0
0
0
0
0
0
0
0
0
0
0
0
0
0
0
0
0
0
0
0
0
0
0
0
0
0
0
0
0
0
0
0
0
0
0
0
0
0
0
0
0
0
0
0
0
0
0
0
0
0
0
0
0
0
0
0
0
0
0
0
0
0
0
0
0
0
0
0
0
0
0
0
0
0
0
0
0
0
0
0
0
0
0
0
0
0
0
0
0
0
0
0
0
0
0
0
0
0
0
0
0
0
0
0
0
0
0
0
0
0
0
0
0
0
0
0
0
0
0
0
0
0
0
0
0
0
0
0
0
0
0
0
0
0
0
0
0
0
0
0
0
0
0
0
0
0
0
0
0
0
0
0
0
0
0
0
0
0
0
0
0
0
0
0
0
0
0
0
0
0
0
0
0
0
0
0
0
0
0
0
0
0
0
0
0
0
0
0
0
0
0
0
0
0
0
0
0
0
0
0
0
0
0
0
0
0
0
0
0
0
0
0
0
0
0
0
0
0
0
0
0
0
0
0
0
0
0
0
0
0
0
0
0
0
0
0
0
0
0
0
0
0
0
0
0
0
0
0
0
0
0
0
0
0
0
0
0
0
0
0
0
0
0
0
0
0
0
0
0
0
0
0
0
0
0
0
0
0
0
0
0
0
0
0
0
0
0
0
0
0
0
0
0
0
0
0
0
0
0
0
0
0
0
0
0
0
0
0
0
0
0
0
0
0
0
0
0
0
0
0
0
0
0
0
0
0
0
0
0
0
0
0
0
0
0
0
0
0
0
0
0
0
0
0
0
0
0
0
0
0
0
0
0
0
0
0
0
0
0
0
0
0
0
0
0
0
0
0
0
0
0
0
0
0
0
0
0
0
0
0
0
0
0
0
0
0
0
0
0
0
0
0
0
0
0
0
0
0
0
0
0
0
0
0
0
0
0
0
0
0
0
0
0
0
0
0
0
0
0
0
0
0
0
0
0
0
0
0
0
0
0
0
0
0
0
0
0
0
0
0
0
0
0
0
0
0
0
0
0
0
0
0
0
0
0
0
0
0
0
0
0
0
0
0
0
0
0
0
0
0
0
0
0
0
0
0
0
0
0
0
0
0
0
0
0
0
0
0
0
0
0
0
0
0
0
0
0
0
0
0
0
0
0
0
0
0
0
0
0
0
0
0
0
0
0
0
0
0
0
0
0
0
0
0
0
0
0
0
0
0
0
0
0
0
0
0
0
0
0
0
0
0
0
0
0
0
0
0
0
0
0
0
0
0
0
0
0
0
0
0
0
0
0
0
0
0
0
0
0
0
0
0
0
0
0
0
0
0
0
0
0
0
0
0
0
0
0
0
0
0
0
0
0
0
0
0
0
0
0
0
0
0
0
0
0
0
0
0
0
0
0
0
0
0
0
0
0
0
0
0
0
0
0
0
0
0
0
0
0
0
0
0
0
0
0
0
0
0
0
0
0
0
0
0
0
0
0
0
0
0
0
0
0
0
0
0
0
0
0
0
0
0
0
0
0
0
0
0
0
0
0
0
0
0
0
0
0
0
0
0
0
0
0
0
0
0
0
0
0
0
0
0
0
0
0
0
0
0
0
0
0
0
0
0
0
0
0
0
0
0
0
0
0
0
0
0
0
0
0
0
0
0
0
0
0
0
0
0
0
0
0
0
0
0
0
0
0
0
0
0
0
0
0
0
0
0
0
0
0
0
0
0
0
0
0
0
0
0
0
0
0
0
0
0
0
0
0
0
0
0
0
0
0
0
0
0
0
0
0
0
0
0
0
0
0
0
0
0
0
0
0
0
0
0
0
0
0
0
0
0
0
0
0
0
0
0
0
0
0
0
0
0
0
0
0
0
0
0
0
0
0
0
0
0
0
0
0
0
0
0
0
0
0
0
0
0
0
0
0
0
0
0
0
0
0
0
0
0
0
0
0
0
0
0
0
0
0
0
0
0
0
0
0
0
0
0
0
0
0
0
0
0
0
0
0
0
0
0
0
0
0
0
0
0
0
0
0
0
0
0
0
0
0
0
0
0
0
0
0
0
0
0
0
0
0
0
0
0
0
0
0
0
0
0
0
0
0
0
0
0
0
0
0
0
0
0
0
0
0
0
0
0
0
0
0
0
0
0
0
0
0
0
0
0
0
0
0
0
0
0
0
0
0
0
0
0
0
0
0
0
0
0
0
0
0
0
0
0
0
0
0
0
0
0
0
0
0
0
0
0
0
0
0
0
0
0
0
0
0
0
0
0
0
0
0
0
0
0
0
0
0
0
0
0
0
0
0
0
0
0
0
0
0
0
0
0
0
0
0
0
0
0
0
0
0
0
0
0
0
0
0
0
0
0
0
0
0
0
0
0
0
0
0
0
0
0
0
0
0
0
0
0
0
0
0
0
0
0
0
0
0
0
0
0
0
0
0
0
0
0
0
0
0
0
0
0
0
0
0
0
0
0
0
0
0
0
0
0
0
0
0
0
0
0
0
0
0
0
0
0
0
0
0
0
0
0
0
0
0
0
0
0
0
0
0
0
0
0
0
0
0
0
0
0
0
0
0
0
0
0
0
0
0
0
0
0
0
0
0
0
0
0
0
0
0
0
0
0
0
0
0
0
0
0
0
0
0
0
0
0
0
0
0
0
0
0
0
0
0
0
0
0
0
0
0
0
0
0
0
0
0
0
0
0
0
0
0
0
0
0
0
0
0
0
0
0
0
0
0
0
0
0
0
0
0
0
0
0
0
0
0
0
0
0
0
0
0
0
0
0
0
0
0
0
0
0
0
0
0
0
0
0
0
0
0
0
0
0
0
0
0
0
0
0
0
0
0
0
0
0
0
0
0
0
0
0
0
0
0
0
0
0
0
0
0
0
0
0
0
0
0
0
0
0
0
0
0
0
0
0
0
0
0
0
0
0
0
0
0
0
0
0
0
0
0
0
0
0
0
0
0
0
0
0
0
0
0
0
0
0
0
0
0
0
0
0
0
0
0
0
0
0
0
0
0
0
0
0
0
0
0
0
0
0
0
0
0
0
0
0
0
0
0
0
0
0
0
0
0
0
0
0
0
0
0
0
0
0
0
0
0
0
0
0
0
0
0
0
0
0
0
0
0
0
0
0
0
0
0
0
0
0
0
0
0
0
0
0
0
0
0
0
0
0
0
0
0
0
0
0
0
0
0
0
0
0
0
0
0
0
0
0
0
0
0
0
0
0
0
0
0
0
0
0
0
0
0
0
0
0
0
0
0
0
0
0
0
0
0
0
0
0
0
0
0
0
0
0
0
0
0
0
0
0
0
0
0
0
0
0
0
0
0
0
0
0
0
0
0
0
0
0
0
0
0
0
0
0
0
0
0
0
0
0
0
0
0
0
0
0
0
0
0
0
0
0
0
0
0
0
0
0
0
0
0
0
0
0
0
0
0
0
0
0
0
0
0
0
0
0
0
0
0
0
0
0
0
0
0
0
0
0
0
0
0
0
0
0
0
0
0
0
0
0
0
0
0
0
0
0
0
0
0
0
0
0
0
0
0
0
0
0
0
0
0
0
0
0
0
0
0
0
0
0
0
0
0
0
0
0
0
0
0
0
0
0
0
0
0
0
0
0
0
0
0
0
0
0
0
0
0
0
0
0
0
0
0
0
0
0
0
0
0
0
0
0
0
0
0
0
0
0
0
0
0
0
0
0
0
0
0
0
0
0
0
0
0
0
0
0
0
0
0
0
0
0
0
0
0
0
0
0
0
0
0
0
0
0
0
0
0
0
0
0
0
0
0
0
0
0
0
0
0
0
0
0
0
0
0
0
0
0
0
0
0
0
0
0
0
0
0
0
0
0
0
0
0
0
0
0
0
0
0
0
0
0
0
0
0
0
0
0
0
0
0
0
0
0
0
0
0
0
0
0
0
0
0
0
0
0
0
0
0
0
0
0
0
0
0
0
0
0
0
0
0
0
0
0
0
0
0
0
0
0
0
0
0
0
0
0
0
0
0
0
0
0
0
0
0
0
0
0
0
0
0
0
0
0
0
0
0
0
0
0
0
0
0
0
0
0
0
0
0
0
0
0
0
0
0
0
0
0
0
0
0
0
0
0
0
0
0
0
0
0
0
0
0
0
0
0
0
0
0
0
0
0
0
0
0
0
0
0
0
0
0
0
0
0
0
0
0
0
0
0
0
0
0
0
0
0
0
0
0
0
0
0
0
0
0
0
0
0
0
0
0
0
0
0
0
0
0
0
0
0
0
0
0
0
0
0
0
0
0
0
0
0
0
0
0
0
0
0
0
0
0
0
0
0
0
0
0
0
0
0
0
0
0
0
0
0
0
0
0
0
0
0
0
0
0
0
0
0
0
0
0
0
0
0
0
0
0
0
0
0
0
0
0
0
0
0
0
0
0
0
0
0
0
0
0
0
0
0
0
0
0
0
0
0
0
0
0
0
0
0
0
0
0
0
0
0
0
0
0
0
0
0
0
0
0
0
0
0
0
0
0
0
0
0
0
0
0
0
0
0
0
0
0
0
0
0
0
0
0
0
0
0
0
0
0
0
0
0
0
0
0
0
0
0
0
0
0
0
0
0
0
0
0
0
0
0
0
0
0
0
0
0
0
0
0
0
0
0
0
0
0
0
0
0
0
0
0
0
0
0
0
0
0
0
0
0
0
0
0
0
0
0
0
0
0
0
0
0
0
0
0
0
0
0
0
0
0
0
0
0
0
0
0
0
0
0
0
0
0
0
0
0
0
0
0
0
0
0
0
0
0
0
0
0
0
0
0
0
0
0
0
0
0
0
0
0
0
0
0
0
0
0
0
0
0
0
0
0
0
0
0
0
0
0
0
0
0
0
0
0
0
0
0
0
0
0
0
0
0
0
0
0
0
0
0
0
0
0
0
0
0
0
0
0
0
0
0
0
0
0
0
0
0
0
0
0
0
0
0
0
0
0
0
0
0
0
0
0
0
0
0
0
0
0
0
0
0
0
0
0
0
0
0
0
0
0
0
0
0
0
0
0
0
0
0
0
0
0
0
0
0
0
0
0
0
0
0
0
0
0
0
0
0
0
0
0
0
0
0
0
0
0
0
0
0
0
0
0
0
0
0
0
0
0
0
0
0
0
0
0
0
0
0
0
0
0
0
0
0
0
0
0
0
0
0
0
0
0
0
0
0
0
0
0
0
0
0
0
0
0
0
0
0
0
0
0
0
0
0
0
0
0
0
0
0
0
0
0
0
0
0
0
0
0
0
0
0
0
0
0
0
0
0
0
0
0
0
0
0
0
0
0
0
0
0
0
0
0
0
0
0
0
0
0
0
0
0
0
0
0
0
0
0
0
0
0
0
0
0
0
0
0
0
0
0
0
0
0
0
0
0
0
0
0
0
0
0
0
0
0
0
0
0
0
0
0
0
0
0
0
0
0
0
0
0
0
0
0
0
0
0
0
0
0
0
0
0
0
0
0
0
0
0
0
0
0
0
0
0
0
0
0
0
0
0
0
0
0
0
0
0
0
0
0
0
0
0
0
0
0
0
0
0
0
0
0
0
0
0
0
0
0
0
0
0
0
0
0
0
0
0
0
0
0
0
0
0
0
0
0
0
0
0
0
0
0
0
0
0
0
0
0
0
0
0
0
0
0
0
0
0
0
0
0
0
0
0
0
0
0
0
0
0
0
0
0
0
0
0
0
0
0
0
0
0
0
0
0
0
0
0
0
0
0
0
0
0
0
0
0
0
0
0
0
0
0
0
0
0
0
0
0
0
0
0
0
0
0
0
0
0
0
0
0
0
0
0
0
0
0
0
0
0
0
0
0
0
0
0
0
0
0
0
0
0
0
0
0
0
0
0
0
0
0
0
0
0
0
0
0
0
0
0
0
0
0
0
0
0
0
0
0
0
0
0
0
0
0
0
0
0
0
0
0
0
0
0
0
0
0
0
0
0
0
0
0
0
0
0
0
0
0
0
0
0
0
0
0
0
0
0
0
0
0
0
0
0
0
0
0
0
0
0
0
0
0
0
0
0
0
0
0
0
0
0
0
0
0
0
0
0
0
0
0
0
0
0
0
0
0
0
0
0
0
0
0
0
0
0
0
0
0
0
0
0
0
0
0
0
0
0
0
0
0
0
0
0
0
0
0
0
0
0
0
0
0
0
0
0
0
0
0
0
0
0
0
0
0
0
0
0
0
0
0
0
0
0
0
0
0
0
0
0
0
0
0
0
0
0
0
0
0
0
0
0
0
0
0
0
0
0
0
0
0
0
0
0
0
0
0
0
0
0
0
0
0
0
0
0
0
0
0
0
0
0
0
0
0
0
0
0
0
0
