2.04115
1.80656
1.5603
1.30993
1.06399
0.832362
0.626515
0.463328
0.377337
0.448051
0.771153
1.24706
1.71765
2.02161
2.02567
1.68842
1.10491
0.478544
0.0207126
-0.157505
-0.195127
-0.183549
-0.145545
-0.0840661
0
0.116946
0.256228
0.417228
0.597866
0.796482
1.01572
1.27826
1.74056
2.56395
3.75803
5.18568
6.49487
7.21758
6.9963
5.79468
3.9362
1.92192
0.156188
-1.2172
-2.3257
-3.27124
-4.02153
-4.37987
-4.14221
-3.29331
-2.07497
-0.862994
0.0342917
0.493738
0.696356
0.82715
0.925291
0.986171
1.00863
0.995539
0.953774
0.893378
0.826257
0.764612
0.718508
0.69428
0.695576
0.724618
0.78282
0.872195
0.996105
1.15498
1.33962
1.52973
1.69853
1.82027
1.87592
1.8583
1.77568
1.6526
1.52646
1.43928
1.42609
1.49493
1.6237
1.78711
1.96993
2.15536
2.32795
2.47607
2.59329
2.67873
2.73618
2.77264
2.79635
2.81504
2.83418
2.85625
2.88069
2.90367
2.91813
2.91558
2.88831
2.83144
2.74464
2.6327
2.50486
2.37256
2.24646
2.13714
2.04279
1.95083
1.84426
1.71017
1.54722
1.36852
1.19867
1.06604
0.993494
0.994807
1.0758
1.20818
1.35072
1.46292
1.51424
1.48839
1.38318
1.20795
0.980188
0.722376
0.4598
0.214122
0
-0.184925
-0.318611
-0.394416
-0.411684
-0.35771
-0.251462
-0.127502
-0.021009
0.0428181
0.0553769
0.0242617
-0.0334896
-0.100484
-0.165502
-0.22619
-0.282274
-0.332648
-0.374442
-0.402704
-0.411237
-0.394214
-0.3502
-0.280851
-0.188686
-0.0784843
0.0420764
0.163524
0.275518
0.367606
0.430814
0.459034
0.449287
0.402303
0.322971
0.220443
0.107641
0
-0.0751417
-0.103238
-0.0341641
0.132863
0.325813
0.447888
0.418118
0.209724
-0.131675
-0.500969
-0.77501
-0.865155
-0.812744
-0.630087
-0.382552
-0.144637
0.0246534
0.0952986
0.0662233
-0.0432396
-0.2031
-0.379746
-0.543266
-0.678258
-0.779103
-0.846101
-0.88336
-0.895233
-0.882887
-0.846696
-0.786193
-0.700277
-0.587877
-0.447415
-0.268286
0
0.585302
1.41256
2.55458
3.9902
5.46282
6.52843
6.75173
5.9409
4.27148
2.21453
0.307782
-1.08235
-1.73541
-1.74212
-1.70567
-1.63783
-1.53887
-1.41264
-1.26545
-1.10444
-0.936904
-0.768463
-0.602733
-0.441989
-0.28764
-0.140339
0
0.123908
0.242242
0.354865
0.459213
0.548557
0.613618
0.645127
0.638696
0.598907
0.540263
0.48377
0.449945
0.464828
0.519024
0.580594
0.611413
0.587379
0.510983
0.409165
0.318328
0.265883
0.255398
0.265091
0.284635
0.306832
0.327216
0.344961
0.362479
0.384066
0.41405
0.454613
0.506853
0.570047
0.64031
0.710805
0.772638
0.815274
0.828443
0.804526
0.739461
0.633989
0.494322
0.33184
0.161621
0
-0.13751
-0.243521
-0.31822
-0.362383
-0.378818
-0.373442
-0.353364
-0.331236
-0.326767
-0.360162
-0.447722
-0.596976
-0.803064
-1.0482
-1.3051
-1.54355
-1.73802
-1.8792
-1.96369
-1.99701
-1.99029
-1.95635
-1.90804
-1.8543
-1.80032
-1.75007
-1.7069
-1.67393
-1.65421
-1.65053
-1.6647
-1.6969
-1.74511
-1.80532
-1.87049
-1.92935
-1.96997
-1.98219
-1.95981
-1.90194
-1.81306
-1.70178
-1.57883
-1.45475
-1.337
-1.22997
-1.13638
-1.05711
-0.991664
-0.939093
-0.897485
-0.864073
-0.835389
-0.807114
-0.774118
-0.730847
-0.672068
-0.593804
-0.49418
-0.374778
-0.238848
-0.0915858
0.0603092
0.208708
0.342705
0.450722
0.523093
0.55286
0.5375
0.480326
0.390862
0.283666
0.175643
0.08244
0.0125559
-0.0312325
-0.0476862
-0.0444197
-0.0320808
-0.0210099
-0.0183743
-0.0266878
-0.0441292
-0.0664166
-0.0894214
-0.111468
-0.134168
-0.161086
-0.196085
-0.240872
-0.292764
-0.343202
-0.375447
-0.369781
-0.309575
-0.187433
0
0.215648
0.432262
0.60232
0.689896
0.680464
0.583406
0.326647
0.145343
0.887047
2.63985
4.93712
6.89956
7.68245
6.93315
4.94197
2.41523
0.06551
-1.69994
-2.81263
-2.97946
-3.01535
-2.94909
-2.78497
-2.55792
-2.31968
-2.11861
-1.97471
-1.87208
-1.79324
-1.72971
-1.67497
-1.62297
-1.56887
-1.50945
-1.44304
-1.36961
-1.29042
-1.20886
-1.13117
-1.06447
-1.01489
-0.985873
-0.977366
-0.986137
-1.00728
-1.03613
-1.06972
-1.10679
-1.14668
-1.18726
-1.22339
-1.24671
-1.24732
-1.21674
-1.15107
-1.05619
-0.942093
-0.81849
-0.696229
-0.585295
-0.493205
-0.423996
-0.377933
-0.351845
-0.339886
-0.334483
-0.327766
-0.312604
-0.282985
-0.232465
-0.15965
-0.0809536
-0.0201787
0
-0.0240596
-0.100655
-0.215901
-0.350745
-0.490475
-0.630746
-0.774563
-0.926162
-1.08597
-1.24754
-1.39769
-1.51988
-1.59965
-1.63027
-1.60738
-1.5464
-1.46971
-1.39911
-1.34944
-1.32587
-1.32554
-1.34206
-1.37025
-1.40768
-1.45358
-1.50818
-1.56874
-1.62794
-1.67186
-1.68394
-1.64976
-1.56214
-1.41254
-1.21804
-1.01449
-0.839433
-0.720101
-0.665616
-0.665974
-0.69724
-0.730118
-0.738316
-0.712965
-0.656746
-0.571887
-0.46023
-0.324951
-0.172266
-0.0116009
0.145546
0.28818
0.408046
0.501159
0.568568
0.616095
0.652987
0.689808
0.736147
0.798818
0.879651
0.976891
1.08835
1.21202
1.34561
1.48676
1.63303
1.77968
1.91851
2.03977
2.13446
2.1969
2.2267
2.22877
2.21136
2.18269
2.14751
2.10561
2.05347
1.98517
1.89461
1.77779
1.63444
1.46904
1.28899
1.10969
0.950091
0.82741
0.753428
0.732072
0.759
0.823078
0.909062
1.00048
1.08267
1.14422
1.17488
1.16721
1.11667
1.02232
0.886029
0.708118
0.504148
0.300341
0.122404
-0.0106665
-0.09077
0
0.778811
1.95279
3.33303
4.7748
6.1073
7.09493
7.44168
6.89699
5.42297
3.2871
0.980732
-1.00253
-2.36472
-2.72565
-2.74874
-2.68588
-2.541
-2.33533
-2.102
-1.8772
-1.68598
-1.53318
-1.43058
-1.3824
-1.38664
-1.4342
-1.50862
-1.58754
-1.64659
-1.6652
-1.63238
-1.55433
-1.4498
-1.3346
-1.22184
-1.12373
-1.05003
-1.00739
-0.999113
-1.02568
-1.08541
-1.17499
-1.28974
-1.42422
-1.57214
-1.72366
-1.86343
-1.97442
-2.04138
-2.05416
-2.01055
-1.91729
-1.78858
-1.64216
-1.49414
-1.35361
-1.21971
-1.08807
-0.95138
-0.795624
-0.60055
-0.371198
-0.153701
-0.011282
0
-0.0992857
-0.34285
-0.675492
-1.01433
-1.2729
-1.41393
-1.45962
-1.37531
-1.20786
-1.02828
-0.908544
-0.897396
-1.004
-1.19535
-1.4084
-1.57213
-1.63099
-1.60383
-1.52062
-1.38871
-1.21426
-1.00455
-0.769537
-0.529685
-0.313576
-0.148645
-0.0566477
-0.0474416
-0.11418
-0.233421
-0.371175
-0.492364
-0.569836
-0.604442
-0.604225
-0.569733
-0.499323
-0.387319
-0.223561
0
0.274224
0.565872
0.826807
1.01308
1.09502
1.06476
0.940426
0.765112
0.59776
0.495585
0.485064
0.542106
0.639554
0.757374
0.87544
0.980112
1.06844
1.14826
1.2339
1.33935
1.47157
1.62426
1.78415
1.9392
2.07748
2.18992
2.272
2.32388
2.34939
2.35404
2.34352
2.32151
2.28878
2.24413
2.18496
2.10825
2.01159
1.89387
1.75565
1.59935
1.42933
1.25238
1.07649
0.913091
0.774219
0.670493
0.608661
0.589616
0.60764
0.651226
0.705279
0.754032
0.784954
0.788881
0.761189
0.701834
0.614809
0.50732
0.389186
0.270775
0.162733
0.0748838
0.0152643
-0.0105921
0
0.0453675
0.124636
0.233602
0.36606
0.530142
0.830133
1.4565
2.47524
4.0237
6.00715
7.97042
9.22216
9.19013
7.76775
5.3937
2.78613
0.527319
-1.18795
-2.46758
-3.46191
-4.10102
-4.15706
-3.49083
-2.26224
-0.915768
0.0726873
0.444083
0.531773
0.582477
0.621425
0.64931
0.66865
0.686007
0.711561
0.765465
0.896823
1.08725
1.26696
1.34371
1.25734
1.02541
0.747894
0.563701
0.581206
0.806875
1.15508
1.52832
1.82723
1.9868
1.99506
1.88949
1.73701
1.6085
1.5571
1.57371
1.63612
1.731
1.84905
1.98146
2.11939
2.25517
2.38298
2.49902
2.60078
2.68614
2.75361
2.80222
2.83067
2.83758
2.82197
2.78359
2.72311
2.64189
2.54172
2.42503
2.29476
2.15357
2.00416
1.84979
1.69446
1.54286
1.40007
1.27105
1.16006
1.06999
1.00197
0.955377
0.927382
0.913114
0.90644
0.900647
0.889181
0.866347
0.827946
0.771821
0.698263
0.610202
0.513107
0.414229
0.3216
0.242975
0.186959
0.160759
0.161051
0.175009
0.187062
0.184526
0.162337
0.125084
0.0855099
0.0600253
0.0627989
0.10529
0.189006
0.287212
0.363921
0.388264
0.347469
0.25303
0.137237
0.0413056
0
0.0299331
0.10083
0.197886
0.310697
0.427712
0.540463
0.645538
0.74507
0.845613
0.955638
1.08487
1.245
1.42421
1.59789
1.73734
1.82001
1.83632
1.79045
1.69587
1.56897
1.42442
1.27471
1.12623
0.98353
0.851312
0.73451
0.637432
0.563969
0.519701
0.513256
0.546562
0.603328
0.661333
0.698349
0.698675
0.657863
0.583998
0.495374
0.415726
0.367575
0.359401
0.434879
0.633012
0.891134
1.11115
1.19703
1.09896
0.840801
0.511478
0.221426
0.0489399
-0.0156519
-0.0364564
-0.0363272
-0.0253325
-0.0109334
0
0.202071
1.04212
2.46242
4.30355
6.25986
7.86737
8.58769
8.03187
6.20626
3.59174
0.949338
-1.04649
-2.10584
-2.21208
-2.11537
-1.98532
-1.82105
-1.62362
-1.397
-1.15175
-0.89942
-0.649553
-0.409667
-0.183872
0.0269032
0.222679
0.403173
0.568241
0.718138
0.853257
0.973682
1.07914
1.16936
1.24407
1.30315
1.34707
1.37716
1.39582
1.40642
1.41311
1.42032
1.43224
1.45237
1.48333
1.52668
1.58292
1.65165
1.73169
1.82115
1.91766
2.01839
2.12035
2.2207
2.31694
2.40698
2.48828
2.5578
2.61372
2.65505
2.68255
2.69954
2.71228
2.72905
2.75871
2.81553
2.89937
2.98498
3.03476
3.01308
2.90012
2.69853
2.43073
2.1292
1.82528
1.53692
1.26588
1.0114
0.774107
0.555531
0.360583
0.198439
0.0755978
0
-0.0517792
-0.0484321
0.00457335
0.0949945
0.206176
0.320262
0.421138
0.491415
0.516643
0.48549
0.390896
0.233669
0.0257959
-0.209241
-0.440597
-0.637721
-0.778476
-0.861793
-0.890483
-0.874714
-0.827493
-0.760695
-0.684519
-0.604285
-0.522878
-0.442483
-0.364838
-0.291297
-0.222826
-0.160103
-0.104048
-0.0568419
-0.0215372
-0.00147209
0
0.00135841
-0.0161709
-0.0463392
-0.0777573
-0.0948507
-0.0799807
-0.0146107
0.185457
0.621441
1.18126
1.69146
1.99396
2.0171
1.80426
1.48183
1.18486
0.98885
0.872352
0.786178
0.71572
0.659339
0.618894
0.598063
0.602753
0.643663
0.727925
0.841058
0.958127
1.05127
1.09728
1.08305
1.0071
0.877917
0.710971
0.526234
0.345549
0.185247
0.0625377
-0.00678456
0
0.191521
0.678573
1.29757
1.83734
2.1165
2.04494
1.64743
1.03269
0.320335
0.305951
1.26055
3.04824
5.25125
7.29773
8.63154
8.86211
7.87862
5.90766
3.46336
1.15936
-0.550269
-1.54908
-1.93423
-2.22374
-2.42181
-2.48425
-2.36246
-2.03297
-1.52758
-0.934829
-0.367755
0.0917196
0.462469
0.78238
1.04222
1.23342
1.3468
1.37707
1.32824
1.2168
1.07051
0.922748
0.804763
0.732923
0.700805
0.700449
0.727094
0.775456
0.837817
0.906217
0.973674
1.03513
1.08795
1.13203
1.16949
1.20423
1.24132
1.28633
1.34468
1.42086
1.51759
1.63507
1.77236
1.92498
2.08033
2.21969
2.32527
2.38477
2.39454
2.3603
2.29475
2.21282
2.12615
2.03913
1.94886
1.84904
1.73298
1.59692
1.44201
1.27438
1.10339
0.938808
0.787392
0.651679
0.532451
0.428601
0.338302
0.25991
0.192242
0.134457
0.0856058
0.0423416
0
-0.0456703
-0.0999006
-0.165356
-0.242635
-0.330425
-0.425758
-0.523805
-0.618952
-0.704045
-0.771488
-0.81456
-0.829323
-0.809947
-0.763974
-0.703481
-0.640232
-0.580606
-0.522694
-0.457018
-0.370705
-0.244822
-0.0678104
0.13499
0.321066
0.447813
0.489075
0.444448
0.338965
0.214506
0.116422
0.0780939
0.0992855
0.164852
0.261563
0.380405
0.514288
0.656565
0.801367
0.943588
1.07814
1.20111
1.30997
1.40383
1.48371
1.55249
1.61398
1.67126
1.72557
1.77485
1.81435
1.83974
1.85057
1.85215
1.85459
1.86946
1.90552
1.96326
2.03577
2.11646
2.19903
2.27687
2.344
2.39543
2.42738
2.43798
2.42719
2.39684
2.35071
2.2943
2.23446
2.17867
2.13356
2.10382
2.09144
2.09518
2.11098
2.13267
2.15272
2.16252
2.15215
2.11228
2.03423
1.91071
1.70593
1.37256
0.93983
0.50408
0.166626
0
-0.0132145
0.155002
0.45931
0.853528
1.53445
2.5317
3.86883
5.4331
6.9356
7.9892
8.24769
7.54855
5.99267
3.91981
1.77074
-0.0930658
-1.50107
-2.32676
-2.95011
-3.28192
-3.28718
-2.97333
-2.41921
-1.77793
-1.23394
-0.924501
-0.779602
-0.703036
-0.655877
-0.625527
-0.604858
-0.585722
-0.560035
-0.521168
-0.465323
-0.390968
-0.301572
-0.207067
-0.119098
-0.0478672
0
0.0396301
0.0520477
0.0356995
-0.0135433
-0.0987526
-0.251115
-0.543882
-0.944035
-1.35598
-1.67033
-1.81426
-1.77664
-1.59522
-1.32336
-1.00587
-0.679491
-0.373116
-0.0977406
0.13946
0.333456
0.484218
0.59234
0.661226
0.69554
0.699763
0.679517
0.639449
0.5819
0.509695
0.42681
0.338501
0.250925
0.170217
0.1019
0.0502052
0.0160591
-0.00321999
-0.0127676
-0.0188904
-0.0276098
-0.0434353
-0.0686224
-0.102996
-0.144229
-0.188306
-0.230611
-0.266471
-0.291262
-0.300716
-0.291328
-0.260772
-0.208056
-0.132726
-0.0355726
0.0770775
0.192902
0.297941
0.378872
0.425314
0.431679
0.398262
0.331479
0.243238
0.149498
0.0675906
0.0136795
0
0.0181789
0.0836457
0.192522
0.339061
0.518049
0.72384
0.954017
1.21668
1.49379
1.74644
1.93089
2.01709
2.0035
1.91897
1.81033
1.72322
1.68654
1.68969
1.71695
1.76137
1.8185
1.88405
1.95357
2.02138
2.08018
2.1227
2.14309
2.13897
2.11316
2.07442
2.03656
2.01594
2.04524
2.1768
2.40294
2.6462
2.80891
2.80942
2.60727
2.21349
1.68951
1.13712
0.675026
0.357833
0.149977
0.027132
-0.0223503
-0.0174145
0.0214169
0.0772694
0.138954
0.201682
0.26271
0.318158
0.361519
0.384228
0.379244
0.345146
0.28818
0.220863
0.157585
0.109214
0.0771381
0.0559078
0.0399151
0.0229439
0
-0.0291016
-0.0778149
-0.192739
0.390656
1.7678
3.60978
5.29791
6.23728
6.14497
5.13225
3.57134
1.87484
0.341156
-0.891205
-1.79475
-2.55384
-3.22027
-3.80649
-4.19229
-4.16296
-3.55829
-2.43113
-1.08406
0.0528271
0.508322
0.549829
0.533417
0.504805
0.475736
0.454679
0.445528
0.446169
0.452828
0.460548
0.464455
0.461126
0.449565
0.431609
0.411774
0.396608
0.393351
0.408692
0.448219
0.518617
0.6264
0.774193
0.950386
1.12456
1.26336
1.34051
1.34559
1.28972
1.20519
1.13769
1.13253
1.21954
1.38256
1.60787
1.87059
2.13151
2.35176
2.50134
2.56323
2.53465
2.4265
2.2616
2.07095
1.88748
1.73652
1.62488
1.5431
1.48219
1.42868
1.36867
1.29178
1.19373
1.07669
0.947697
0.815766
0.688823
0.570738
0.463062
0.366925
0.282679
0.21027
0.149442
0.0997726
0.0600422
0.0279886
0
-0.0390205
-0.0853539
-0.146373
-0.228247
-0.334601
-0.464943
-0.613709
-0.771163
-0.919424
-1.03906
-1.11381
-1.13132
-1.08017
-0.979121
-0.860454
-0.758068
-0.697781
-0.691184
-0.734432
-0.811478
-0.900042
-0.978201
-1.03281
-1.06088
-1.06456
-1.04767
-1.01421
-0.968162
-0.913583
-0.853755
-0.791411
-0.72807
-0.663625
-0.59637
-0.52335
-0.441145
-0.346967
-0.239833
-0.121437
0.00370369
0.128468
0.24375
0.341102
0.414786
0.463219
0.489446
0.500468
0.50557
0.514048
0.53292
0.565265
0.608842
0.658527
0.708101
0.750896
0.781039
0.794341
0.78874
0.764428
0.723807
0.671464
0.613632
0.557876
0.512299
0.485424
0.486827
0.523458
0.596073
0.695407
0.79743
0.870574
0.886469
0.827124
0.691283
0.49822
0.286301
0.104716
0
-0.013905
0.0499489
0.166123
0.326497
0.520536
0.741396
0.992975
1.30673
1.94563
2.92786
4.19637
5.55744
6.63677
6.9753
6.25904
4.53221
2.22607
-0.0453449
-1.77974
-2.59666
-2.68054
-2.70706
-2.66541
-2.54668
-2.35059
-2.05248
-1.66457
-1.27033
-0.96143
-0.804143
-0.810165
-0.927391
-1.05872
-1.10341
-1.00294
-0.800852
-0.563694
-0.323445
-0.110776
0.0515125
0.152391
0.193118
0.184823
0.144514
0.0911133
0.0421688
0.00911865
0
0.0328854
0.102755
0.216176
0.39129
0.650153
0.968966
1.28102
1.51604
1.62429
1.59552
1.46377
1.29431
1.15738
1.10112
1.11698
1.17115
1.2454
1.3304
1.41828
1.50206
1.57532
1.63263
1.67075
1.68868
1.68854
1.67586
1.66093
1.66009
1.69207
1.77468
1.92129
2.13801
2.42217
2.76254
3.14177
3.54002
3.92642
4.27163
4.55248
4.75357
4.86709
4.89129
4.82913
4.68764
4.47866
4.22239
3.94358
3.668
3.4202
3.21792
3.08865
3.0855
3.22004
3.42978
3.63579
3.76982
3.79383
3.70583
3.53223
3.3119
3.0787
2.84812
2.6174
2.38107
2.13574
1.88015
1.61563
1.34674
1.08104
0.827952
0.599742
0.41159
0.266185
0.159655
0.0843735
0.0327429
0
0.0016922
0.0237284
0.0655483
0.115256
0.1548
0.167377
0.14585
0.0970955
0.0400738
-0.000766563
-0.00310097
0.0343754
0.104288
0.204377
0.333383
0.487393
0.652253
0.812444
0.954442
1.06964
1.15578
1.21619
1.25725
1.28492
1.30211
1.30876
1.30049
1.27143
1.21601
1.13077
1.01558
0.874161
0.713801
0.544375
0.377007
0.221984
0.0870413
-0.0214678
-0.099276
-0.142278
-0.149075
-0.126509
-0.08631
-0.041374
-0.00322571
0.0202606
0.0263716
0.0180132
0.00311089
-0.00687122
0
0.0360355
0.104761
0.209328
0.348912
0.527087
0.763232
1.1914
1.77652
2.72648
4.21055
6.03888
7.61471
8.20542
7.37443
5.26703
2.54117
-0.000910568
-1.81603
-2.72934
-2.82088
-2.87922
-2.90313
-2.8823
-2.80918
-2.68007
-2.49626
-2.23689
-1.91203
-1.57854
-1.29978
-1.1254
-1.0738
-1.12499
-1.22662
-1.31073
-1.31541
-1.22115
-1.05914
-0.85331
-0.615925
-0.373786
-0.153597
0.0240885
0.149055
0.22249
0.254829
0.261487
0.258222
0.257349
0.26435
0.281373
0.308886
0.345472
0.387988
0.429938
0.462664
0.478595
0.47417
0.452334
0.423442
0.403781
0.411814
0.463211
0.565371
0.714518
0.901223
1.11016
1.32365
1.52641
1.70918
1.8646
1.98837
2.07861
2.13463
2.15663
2.14583
2.10415
2.03459
1.94184
1.83249
1.71476
1.59754
1.48913
1.39816
1.33
1.27741
1.22667
1.16266
1.07455
0.960169
0.827179
0.690596
0.567655
0.471698
0.403463
0.365222
0.34343
0.320043
0.279637
0.215932
0.135227
0.0552979
0
-0.0617374
-0.0628739
-0.00982037
0.0924171
0.234527
0.402621
0.569036
0.701352
0.764877
0.717625
0.52663
0.196626
-0.211534
-0.591742
-0.83433
-0.878573
-0.80923
-0.697297
-0.566018
-0.435215
-0.319381
-0.226063
-0.156268
-0.106411
-0.0708576
-0.0440857
-0.0213606
0
0.00906887
0.0198153
0.033279
0.0503294
0.0716471
0.097891
0.130122
0.170287
0.221403
0.288275
0.383093
0.516687
0.666601
0.788548
0.830983
0.756224
0.55835
0.269479
-0.0485653
-0.324653
-0.503598
-0.6002
-0.646451
-0.65326
-0.635092
-0.606211
-0.577495
-0.554354
-0.537595
-0.524717
-0.511895
-0.495887
-0.475438
-0.450652
-0.422166
-0.390674
-0.356297
-0.318341
-0.275526
-0.226545
-0.170491
-0.10859
-0.0491096
-0.00729103
0
-0.0680798
-0.186265
-0.345799
-0.52821
-0.710884
-0.873763
-0.962093
-0.348779
0.633656
1.86903
3.39382
5.04237
6.36165
6.79932
6.04475
4.25704
1.99879
-0.0599552
-1.44851
-2.02592
-1.91971
-1.83367
-1.75107
-1.67053
-1.58888
-1.50104
-1.40134
-1.28524
-1.15114
-1.00184
-0.843383
-0.683786
-0.531754
-0.394986
-0.278862
-0.185828
-0.115785
-0.0673466
-0.0358543
-0.0155468
0
0.0170544
0.0424118
0.0834473
0.152285
0.24182
0.319949
0.345713
0.290407
0.157539
-0.0112175
-0.150129
-0.197666
-0.12374
0.0225853
0.207948
0.412302
0.61738
0.81191
0.990322
1.15087
1.29484
1.42493
1.54431
1.65483
1.75654
1.84791
1.9261
1.98739
2.02757
2.04282
2.03049
1.98992
1.92305
1.83454
1.73129
1.62135
1.51232
1.40983
1.31687
1.23229
1.15145
1.06814
0.976781
0.874251
0.760773
0.639688
0.516357
0.396809
0.285979
0.18788
0.106205
0.0441502
0.00431252
-0.0117588
0
0.0520012
0.124666
0.206108
0.285357
0.35566
0.415453
0.466133
0.504625
0.520915
0.494567
0.403269
0.236489
0.006213
-0.252305
-0.491337
-0.668033
-0.770182
-0.80544
-0.786396
-0.737309
-0.681329
-0.632368
-0.591127
-0.546505
-0.481782
-0.383191
-0.246974
-0.0832378
0.0847939
0.22979
0.329793
0.374768
0.367525
0.319402
0.243752
0.151038
0.0503784
-0.0531639
-0.155038
-0.247
-0.318636
-0.359468
-0.362366
-0.326348
-0.257355
-0.166511
-0.0665375
0.0320873
0.123882
0.207777
0.285403
0.358349
0.425546
0.482169
0.520023
0.529563
0.502531
0.434333
0.325409
0.181248
0.0111404
-0.173783
-0.362803
-0.547743
-0.723323
-0.885283
-1.02801
-1.14362
-1.22518
-1.26563
-1.25941
-1.20409
-1.09921
-0.945765
-0.745293
-0.510643
-0.28021
-0.0969666
0
0.00469666
-0.103316
-0.294073
-0.515844
-0.71535
-0.858276
-0.955995
-0.811703
-0.204809
0.881911
2.5307
4.51041
6.25531
7.09122
6.58536
4.80216
2.28925
-0.206062
-2.11046
-3.24579
-3.57743
-3.78875
-3.87476
-3.80334
-3.56982
-3.2065
-2.78138
-2.37736
-2.05952
-1.82687
-1.64325
-1.48757
-1.35402
-1.23969
-1.14155
-1.05602
-0.97859
-0.903732
-0.825248
-0.737174
-0.633957
-0.5087
-0.359596
-0.205446
-0.0758759
0
0.0119513
-0.0447693
-0.14696
-0.257373
-0.336346
-0.353224
-0.313169
-0.232265
-0.117033
0.0316431
0.210692
0.402991
0.581811
0.722321
0.808633
0.839986
0.832867
0.817201
0.827548
0.894649
1.07301
1.36146
1.68076
1.93826
2.06176
2.01938
1.82417
1.52464
1.18446
0.860374
0.583608
0.352036
0.156171
-0.00801773
-0.13949
-0.233797
-0.289967
-0.315184
-0.320359
-0.318624
-0.323317
-0.345962
-0.394604
-0.47268
-0.578431
-0.704852
-0.839783
-0.969636
-1.08035
-1.15943
-1.1984
-1.18022
-1.10591
-1.00076
-0.896693
-0.822181
-0.793928
-0.813482
-0.869547
-0.944291
-1.02054
-1.08847
-1.14693
-1.19711
-1.24062
-1.27927
-1.31446
-1.34638
-1.37331
-1.39105
-1.39347
-1.3742
-1.328
-1.25255
-1.14964
-1.02542
-0.889269
-0.751877
-0.622918
-0.508229
-0.411101
-0.331998
-0.269502
-0.221837
-0.1868
-0.162494
-0.147043
-0.13814
-0.132809
-0.127624
-0.119342
-0.10571
-0.0863923
-0.0628593
-0.0378033
-0.0151639
0
0.0227398
0.0275409
0.012387
-0.0210398
-0.0666203
-0.114159
-0.151131
-0.154326
-0.0962115
0.00673516
0.11259
0.1728
0.155635
0.0608267
-0.0826659
-0.23365
-0.359732
-0.45347
-0.52967
-0.595632
-0.653601
-0.702085
-0.735423
-0.745016
-0.721736
-0.660431
-0.554629
-0.39507
-0.189174
0.0269682
0.212471
0.333379
0.371722
0.329818
0.228458
0.0996612
-0.023145
-0.113681
0
0.734097
1.77703
3.05391
4.47629
5.79769
6.60605
6.50593
5.39248
3.59208
1.71681
0.293949
-0.55234
-1.15172
-1.91639
-2.99317
-4.13505
-4.83123
-4.6555
-3.56866
-1.97183
-0.481116
0.39248
0.484527
0.465068
0.43297
0.39391
0.34928
0.300036
0.248145
0.197504
0.154798
0.129075
0.130241
0.16686
0.240258
0.348375
0.488308
0.655295
0.83814
1.0217
1.19098
1.33355
1.44144
1.51224
1.54941
1.56173
1.56187
1.564
1.58091
1.62119
1.688
1.77924
1.88333
1.98656
2.07834
2.15491
2.22016
2.28301
2.35274
2.4341
2.52376
2.61369
2.6924
2.74819
2.77197
2.75883
2.70816
2.62283
2.50809
2.37351
2.22705
2.07468
1.92195
1.77381
1.63421
1.5058
1.3905
1.28942
1.20292
1.13079
1.07219
1.02563
0.98882
0.958575
0.931322
0.903558
0.872394
0.835983
0.793703
0.746012
0.694046
0.63908
0.582088
0.523484
0.46333
0.40178
0.339687
0.279103
0.223404
0.176901
0.143946
0.129231
0.136622
0.164761
0.202423
0.233337
0.240825
0.212342
0.143067
0.0374954
-0.0913424
-0.2248
-0.342923
-0.432778
-0.491058
-0.516632
-0.507333
-0.470382
-0.415664
-0.351739
-0.282755
-0.206782
-0.116191
0
0.158485
0.398405
0.73051
1.09419
1.41035
1.61158
1.66338
1.57138
1.37684
1.14429
0.943456
0.824412
0.780043
0.779154
0.802071
0.826511
0.830317
0.796231
0.715213
0.587673
0.422684
0.235626
0.0451269
-0.133301
-0.289449
-0.417438
-0.514671
-0.579357
-0.612213
-0.616308
-0.592735
-0.544986
-0.490012
-0.449521
-0.443497
-0.484353
-0.572645
-0.696771
-0.837239
-0.973585
-1.09053
-1.18664
-1.26428
-1.32059
-1.35198
-1.35404
-1.32079
-1.24591
-1.11448
-0.821155
0
1.21365
2.40152
3.45926
4.40539
5.21918
5.72068
5.61811
4.72244
3.14719
1.30027
-0.343354
-1.48424
-1.99579
-2.33339
-2.59942
-2.7733
-2.84367
-2.8106
-2.68561
-2.48854
-2.24162
-1.96329
-1.66669
-1.36193
-1.05642
-0.756648
-0.472723
-0.216606
0
0.137014
0.223996
0.264985
0.268713
0.245875
0.206474
0.158906
0.108911
0.0613636
0.021319
-0.00599804
-0.0100058
0.020656
0.0687067
0.101078
0.082058
-0.0087431
-0.164115
-0.350051
-0.518947
-0.62747
-0.657324
-0.631719
-0.565913
-0.46522
-0.333675
-0.176369
0
0.213074
0.420004
0.601547
0.739271
0.818062
0.830511
0.780814
0.686003
0.572766
0.469686
0.397109
0.354929
0.330286
0.305481
0.261218
0.184126
0.0725784
-0.0615448
-0.195943
-0.304638
-0.365765
-0.381145
-0.354817
-0.289262
-0.190223
-0.069763
0.0516882
0.153958
0.221466
0.24572
0.226438
0.170803
0.0908711
0
-0.0926743
-0.178032
-0.253754
-0.316811
-0.363279
-0.388779
-0.385379
-0.334927
-0.210945
-0.0189056
0.189144
0.347429
0.400373
0.324576
0.139562
-0.0975231
-0.312427
-0.442594
-0.481651
-0.46879
-0.425948
-0.368245
-0.309346
-0.258249
-0.2178
-0.185087
-0.153199
-0.113431
-0.0580948
0.0166679
0.114721
0.239446
0.392396
0.57476
0.788789
1.02973
1.27518
1.49035
1.6427
1.71207
1.69807
1.62216
1.52272
1.44399
1.4409
1.54454
1.7026
1.82398
1.82766
1.68505
1.43205
1.14604
0.904211
0.750208
0.656405
0.594048
0.556872
0.543561
0.554506
0.603092
0.701946
0.819464
0.901568
0.891647
0.759075
0.518465
0.226086
-0.0455631
-0.239355
-0.347352
-0.40908
-0.431973
-0.421246
-0.381131
-0.316116
-0.228638
-0.12177
0
0.172449
0.346153
0.513695
0.668579
0.805785
0.922437
1.01804
1.08947
1.03703
1.21919
2.24399
4.16019
6.4816
8.33375
8.87971
7.77291
5.35362
2.46304
0
-1.50308
-1.89431
-1.77926
-1.63727
-1.46787
-1.26327
-1.00924
-0.69673
-0.334664
0.0670418
0.509026
0.978215
1.42593
1.79394
2.03072
2.10065
1.99346
1.733
1.3815
1.03415
0.798464
0.729913
0.786462
0.912299
1.07732
1.26426
1.45377
1.62609
1.7639
1.85769
1.9057
1.91344
1.89217
1.85661
1.82213
1.80186
1.80443
1.83123
1.87711
1.93649
2.00415
2.07471
2.14312
2.20521
2.25822
2.30098
2.33382
2.35827
2.37646
2.39035
2.40036
2.40443
2.39723
2.3706
2.31508
2.22228
2.08727
1.91012
1.6963
1.45553
1.1998
0.941101
0.68792
0.445032
0.215224
0
-0.199203
-0.381732
-0.545429
-0.687072
-0.802201
-0.881097
-0.907275
-0.883616
-0.836894
-0.800606
-0.802071
-0.851577
-0.939745
-1.04463
-1.14417
-1.22624
-1.29432
-1.35344
-1.40475
-1.44614
-1.47208
-1.47551
-1.4508
-1.39702
-1.32155
-1.23063
-1.13237
-1.03522
-0.945911
-0.869693
-0.810201
-0.76959
-0.748949
-0.748581
-0.768081
-0.806184
-0.860539
-0.927543
-1.00256
-1.07977
-1.15308
-1.2168
-1.26635
-1.29871
-1.31263
-1.30851
-1.28809
-1.25399
-1.20901
-1.1557
-1.09596
-1.03078
-0.960153
-0.883046
-0.797647
-0.70166
-0.592713
-0.468799
-0.328686
-0.172193
0
0.19313
0.39817
0.613242
0.837341
1.07254
1.32222
1.57046
1.77498
1.87708
1.82667
1.61094
1.26739
0.872249
0.510413
0.244136
0.0505682
-0.100674
-0.215635
-0.299294
-0.35724
-0.394381
-0.414771
-0.421593
-0.416275
-0.398338
-0.365522
-0.314337
-0.233798
-0.0975899
0.0988115
0.309214
0.466755
0.513739
0.432554
0.257753
0.0603657
-0.0866323
-0.140973
-0.132002
-0.0977207
-0.0504135
0
0.143264
1.00525
2.62618
4.56054
6.06352
6.49211
5.66368
3.93296
1.93948
0.218849
-1.04874
-1.98153
-2.75002
-3.38328
-3.74676
-3.72457
-3.31154
-2.64661
-1.95159
-1.42963
-1.16734
-1.01112
-0.888028
-0.781088
-0.69042
-0.618846
-0.569108
-0.54313
-0.5399
-0.554053
-0.575967
-0.593681
-0.596124
-0.57654
-0.534902
-0.476709
-0.412507
-0.352813
-0.303926
-0.265646
-0.231917
-0.194165
-0.145844
-0.0854941
-0.0199976
0.0383356
0.0766445
0.0867255
0.0683218
0.0292855
-0.0170906
-0.0561114
-0.0762335
-0.0743204
-0.0495301
0
0.0764812
0.183294
0.330702
0.538752
0.802948
1.05881
1.21072
1.16064
0.856849
0.338315
-0.257373
-0.741603
-0.964558
-0.979275
-0.901751
-0.775779
-0.647534
-0.55376
-0.514459
-0.531835
-0.594584
-0.684889
-0.785286
-0.883708
-0.975753
-1.06019
-1.13711
-1.20676
-1.26863
-1.32119
-1.36221
-1.38873
-1.39605
-1.38659
-1.36735
-1.34657
-1.33006
-1.3184
-1.30679
-1.28772
-1.25517
-1.20833
-1.15318
-1.10098
-1.06519
-1.05766
-1.08554
-1.14946
-1.24305
-1.35347
-1.46301
-1.55392
-1.61113
-1.62405
-1.58691
-1.49931
-1.3599
-1.17695
-0.979738
-0.79855
-0.656541
-0.563874
-0.516292
-0.498671
-0.492084
-0.481304
-0.459454
-0.428653
-0.392167
-0.35131
-0.302243
-0.235566
-0.138729
0
0.19184
0.429065
0.734996
1.14619
1.65083
2.16393
2.57596
2.7754
2.6988
2.36961
1.89807
1.44307
1.15136
1.0503
1.02978
1.03238
1.03776
1.02971
0.995434
0.927086
0.822457
0.684989
0.5223
0.344972
0.174377
0.0328775
-0.0602246
-0.0920266
-0.0574504
0.0415841
0.198323
0.403063
0.642155
0.901121
1.16144
1.39958
1.59214
1.72025
1.77262
1.7458
1.64213
1.46729
1.22922
0.947746
0.639934
0.306477
0
0.524942
1.95328
3.97328
6.00584
7.4241
7.781
6.96303
5.22358
3.07936
1.10072
-0.308681
-1.03773
-1.21539
-1.32568
-1.41567
-1.47201
-1.48198
-1.43589
-1.33025
-1.16986
-0.967937
-0.743803
-0.518917
-0.310808
-0.12633
0.0299389
0.153553
0.242284
0.295778
0.315149
0.302274
0.261931
0.201091
0.129126
0.05747
0
-0.0272353
-0.0172734
0.0526169
0.173279
0.310674
0.424102
0.481652
0.471913
0.407005
0.316624
0.236999
0.200034
0.210969
0.263596
0.367903
0.552073
0.842936
1.20056
1.54115
1.7765
1.84282
1.72455
1.46185
1.13825
0.852044
0.680395
0.614041
0.602738
0.616511
0.641324
0.664046
0.672947
0.65901
0.616857
0.545266
0.447251
0.329833
0.202537
0.0761797
-0.0389406
-0.135151
-0.210067
-0.264166
-0.300134
-0.324178
-0.34577
-0.374996
-0.420621
-0.488427
-0.580029
-0.692404
-0.818241
-0.947092
-1.06715
-1.16857
-1.24353
-1.28789
-1.29829
-1.27873
-1.23949
-1.19253
-1.14873
-1.11572
-1.09699
-1.09206
-1.09761
-1.10865
-1.11952
-1.12548
-1.1222
-1.10615
-1.07503
-1.02816
-0.966518
-0.892451
-0.808934
-0.718702
-0.623596
-0.524247
-0.420262
-0.311
-0.196375
-0.0775443
0.0430515
0.161622
0.274044
0.37696
0.468774
0.55025
0.624519
0.696504
0.771879
0.855775
0.951528
1.06151
1.18443
1.30899
1.41367
1.47354
1.46638
1.37907
1.21218
0.981198
0.713769
0.443854
0.204134
0.0125449
-0.11537
-0.172386
-0.15933
-0.0842008
0.0392738
0.193597
0.359877
0.520248
0.659725
0.771199
0.850977
0.894344
0.897981
0.859972
0.780195
0.659655
0.496994
0.295181
0.0707389
-0.138104
-0.28621
-0.330992
-0.24022
0
0.370418
0.850271
1.39707
1.96939
2.53541
2.87688
3.35591
4.3686
5.8539
7.31471
8.04081
7.52648
5.7937
3.3901
1.06453
-0.634249
-1.40743
-1.72747
-1.97547
-2.13031
-2.17485
-2.09848
-1.90077
-1.59522
-1.21127
-0.792988
-0.392553
-0.0442329
0.245128
0.466073
0.621828
0.727004
0.802731
0.866539
0.9329
0.9926
1.02033
0.995641
0.922714
0.836229
0.788866
0.827027
0.968215
1.17429
1.41159
1.63769
1.8146
1.91785
1.94045
1.89236
1.79693
1.686
1.59408
1.54848
1.56118
1.62916
1.74148
1.88593
2.05058
2.22025
2.37988
2.51662
2.62108
2.68779
2.71439
2.70221
2.65514
2.57917
2.48202
2.37259
2.26003
2.15235
2.0549
1.96906
1.89272
1.81844
1.73536
1.63271
1.50294
1.34419
1.16115
0.964189
0.767018
0.583538
0.423314
0.288891
0.181717
0.100452
0.0411346
-0.00169592
-0.0347042
-0.0650265
-0.0993197
-0.143166
-0.200534
-0.273319
-0.361043
-0.460808
-0.567609
-0.675011
-0.776255
-0.865259
-0.937596
-0.990271
-1.02383
-1.04126
-1.04726
-1.04738
-1.04721
-1.05214
-1.06659
-1.093
-1.13147
-1.17906
-1.22964
-1.27411
-1.3015
-1.30063
-1.26215
-1.18431
-1.06618
-0.900456
-0.687043
-0.454772
-0.242304
-0.0846443
-0.00331135
0
-0.0459461
-0.118929
-0.183034
-0.210654
-0.199935
-0.153417
-0.087364
-0.0230772
0.0214073
0.0379257
0.0302393
0.0106379
-0.00718422
-0.0153505
-0.0163576
-0.0179744
-0.0296391
-0.0590168
-0.10931
-0.178751
-0.262026
-0.352488
-0.443772
-0.531388
-0.611556
-0.67964
-0.731303
-0.76261
-0.770874
-0.755413
-0.717801
-0.661447
-0.590684
-0.509796
-0.422855
-0.33294
-0.243012
-0.157877
-0.0840122
-0.0290064
0
0.0023387
-0.0267548
-0.0835143
-0.160386
-0.247589
-0.334935
-0.363006
0.082415
1.09419
2.66293
4.46239
5.90531
6.41948
5.766
4.18388
2.23805
0.469133
-0.908286
-2.03618
-3.16003
-4.29119
-5.15646
-5.36651
-4.72428
-3.40594
-1.881
-0.653381
-0.110219
-0.120239
-0.160739
-0.197546
-0.22037
-0.222655
-0.199831
-0.154951
-0.103066
-0.0615543
-0.0433163
-0.0513725
-0.077231
-0.103902
-0.11238
-0.0887641
-0.0321295
0.0462033
0.137288
0.234515
0.332146
0.426473
0.516308
0.602785
0.688652
0.777314
0.871925
0.974718
1.08672
1.20784
1.33722
1.47381
1.6167
1.76533
1.91938
2.07839
2.2414
2.40631
2.56938
2.72431
2.86137
2.96842
3.0337
3.04651
2.99919
2.88915
2.71993
2.5011
2.24644
1.97108
1.68874
1.40862
1.1354
0.872709
0.625247
0.402934
0.216289
0.0778727
0
0.0126701
0.162754
0.418526
0.708895
0.95833
1.11258
1.15157
1.08569
0.941764
0.749623
0.536829
0.329188
0.14143
-0.0134408
-0.121794
-0.173208
-0.162419
-0.0906131
0.0342952
0.198479
0.383932
0.570902
0.739542
0.873624
0.962625
1.00273
0.996495
0.951345
0.877376
0.785213
0.685094
0.584583
0.488742
0.402078
0.328506
0.271457
0.233813
0.217745
0.224566
0.25462
0.30727
0.380936
0.473188
0.580697
0.699605
0.825758
0.954852
1.08258
1.2047
1.31702
1.41537
1.49531
1.55199
1.58085
1.57843
1.5426
1.47332
1.37334
1.24845
1.10715
0.959754
0.817006
0.688178
0.57926
0.494369
0.435208
0.400846
0.388467
0.394093
0.411186
0.429995
0.440662
0.434872
0.407214
0.356073
0.283801
0.196173
0.1014
0.0090733
-0.0718893
-0.13213
-0.162599
-0.154984
-0.102355
0
0.123221
0.295959
0.519668
0.815865
1.24009
1.83208
2.56006
3.39059
4.23081
4.91011
5.20086
4.8877
3.86701
2.22724
0.245082
-1.70254
-3.17664
-4.27453
-4.92874
-5.15642
-5.03154
-4.64865
-4.10749
-3.50122
-2.92581
-2.48358
-2.17354
-1.9389
-1.74652
-1.58233
-1.4415
-1.3224
-1.22458
-1.14784
-1.09254
-1.05921
-1.04792
-1.05763
-1.08599
-1.12943
-1.18361
-1.24402
-1.30641
-1.3674
-1.42453
-1.47612
-1.52116
-1.55921
-1.59015
-1.61399
-1.63063
-1.63966
-1.63994
-1.62967
-1.6062
-1.56601
-1.50508
-1.41954
-1.30668
-1.16604
-1.00033
-0.815777
-0.621683
-0.43147
-0.260214
-0.122764
-0.0323971
0
-0.0184383
-0.108026
-0.270225
-0.502031
-0.794179
-1.1313
-1.49525
-1.86516
-2.22022
-2.53077
-2.77908
-2.97166
-3.12697
-3.26333
-3.3877
-3.49097
-3.55232
-3.55027
-3.47463
-3.3209
-3.12745
-2.94553
-2.81958
-2.77222
-2.80018
-2.88176
-2.99014
-3.10528
-3.21871
-3.32999
-3.44002
-3.54972
-3.65977
-3.77085
-3.88335
-3.99695
-4.10938
-4.2138
-4.29769
-4.34508
-4.34188
-4.27458
-4.14815
-3.9873
-3.82253
-3.67751
-3.56027
-3.46303
-3.37011
-3.26877
-3.15664
-3.04175
-2.93526
-2.84414
-2.76697
-2.69552
-2.6205
-2.53762
-2.44934
-2.36025
-2.26946
-2.16535
-2.02679
-1.83109
-1.56468
-1.20919
-0.802114
-0.405209
-0.0788159
0.137482
0.232634
0.220175
0.127843
-0.0131457
-0.175484
-0.338964
-0.494587
-0.638798
-0.769815
-0.886068
-0.985328
-1.0641
-1.11775
-1.14046
-1.11914
-1.02263
-0.822562
-0.562532
-0.310794
-0.137326
-0.0870033
-0.162103
-0.322148
-0.499595
-0.622437
-0.637748
-0.56437
-0.428973
-0.242984
0
0.34464
0.938386
1.88846
2.96337
4.03625
5.021
5.78172
6.12048
5.84812
4.90583
3.43526
1.73253
0.124957
-1.0604
-1.8937
-2.40672
-2.54832
-2.33163
-1.83033
-1.17039
-0.501316
0.0391613
0.417514
0.708285
0.957785
1.18206
1.38225
1.55482
1.69799
1.81102
1.89565
1.9578
2.0081
2.06078
2.13088
2.23051
2.36563
2.53052
2.71729
2.91701
3.1208
3.32211
3.5179
3.7082
3.89366
4.07394
4.24208
4.38263
4.4765
4.50964
4.48134
4.40886
4.3262
4.27716
4.30434
4.42133
4.61447
4.91075
5.30238
5.71893
6.08557
6.34971
6.49857
6.56026
6.58815
6.63609
40
144
179
215
251
292
390
459
565
634
679
740
865
914
1002
1037
1081
1174
1258
1294
1367
1430
1518
1604
1647
1721
1779
1880
1913
1956
1991
2049
2131
2178
2272
2305
2429
2480
2519
2547
2578
2658
2678
2739
2799
2837
2895
2969
3014
3051
3186
3312
3357
3436
3526
3597
3691
0
0
0
0
0
0
0
0
0
0
0
0
0
0
0
0
0
0
0
0
0
0
0
0
0
0
0
0
0
0
0
0
0
0
0
0
0
0
0
0
0
0
0
0
0
0
0
0
0
0
0
0
0
0
0
0
0
0
0
0
0
0
0
0
0
0
0
0
0
0
0
0
0
0
0
0
0
0
0
0
0
0
0
0
0
0
0
0
0
0
0
0
0
0
0
0
0
0
0
0
0
0
0
0
0
0
0
0
0
0
0
0
0
0
0
0
0
0
0
0
0
0
0
0
0
0
0
0
0
0
0
0
0
0
0
0
0
0
0
0
0
0
0
0
0
0
0
0
0
0
0
0
0
0
0
0
0
0
0
0
0
0
0
0
0
0
0
0
0
0
0
0
0
0
0
0
0
0
0
0
0
0
0
0
0
0
0
0
0
0
0
0
0
0
0
0
0
0
0
0
0
0
0
0
0
0
0
0
0
0
0
0
0
0
0
0
0
0
0
0
0
0
0
0
0
0
0
0
0
0
0
0
0
0
0
0
0
0
0
0
0
0
0
0
0
0
0
0
0
0
0
0
0
0
0
0
0
0
0
0
0
0
0
0
0
0
0
0
0
0
0
0
0
0
0
0
0
0
0
0
0
0
0
0
0
0
0
0
0
0
0
0
0
0
0
0
0
0
0
0
0
0
0
0
0
0
0
0
0
0
0
0
0
0
0
0
0
0
0
0
0
0
0
0
0
0
0
0
0
0
0
0
0
0
0
0
0
0
0
0
0
0
0
0
0
0
0
0
0
0
0
0
0
0
0
0
0
0
0
0
0
0
0
0
0
0
0
0
0
0
0
0
0
0
0
0
0
0
0
0
0
0
0
0
0
0
0
0
0
0
0
0
0
0
0
0
0
0
0
0
0
0
0
0
0
0
0
0
0
0
0
0
0
0
0
0
0
0
0
0
0
0
0
0
0
0
0
0
0
0
0
0
0
0
0
0
0
0
0
0
0
0
0
0
0
0
0
0
0
0
0
0
0
0
0
0
0
0
0
0
0
0
0
0
0
0
0
0
0
0
0
0
0
0
0
0
0
0
0
0
0
0
0
0
0
0
0
0
0
0
0
0
0
0
0
0
0
0
0
0
0
0
0
0
0
0
0
0
0
0
0
0
0
0
0
0
0
0
0
0
0
0
0
0
0
0
0
0
0
0
0
0
0
0
0
0
0
0
0
0
0
0
0
0
0
0
0
0
0
0
0
0
0
0
0
0
0
0
0
0
0
0
0
0
0
0
0
0
0
0
0
0
0
0
0
0
0
0
0
0
0
0
0
0
0
0
0
0
0
0
0
0
0
0
0
0
0
0
0
0
0
0
0
0
0
0
0
0
0
0
0
0
0
0
0
0
0
0
0
0
0
0
0
0
0
0
0
0
0
0
0
0
0
0
0
0
0
0
0
0
0
0
0
0
0
0
0
0
0
0
0
0
0
0
0
0
0
0
0
0
0
0
0
0
0
0
0
0
0
0
0
0
0
0
0
0
0
0
0
0
0
0
0
0
0
0
0
0
0
0
0
0
0
0
0
0
0
0
0
0
0
0
0
0
0
0
0
0
0
0
0
0
0
0
0
0
0
0
0
0
0
0
0
0
0
0
0
0
0
0
0
0
0
0
0
0
0
0
0
0
0
0
0
0
0
0
0
0
0
0
0
0
0
0
0
0
0
0
0
0
0
0
0
0
0
0
0
0
0
0
0
0
0
0
0
0
0
0
0
0
0
0
0
0
0
0
0
0
0
0
0
0
0
0
0
0
0
0
0
0
0
0
0
0
0
0
0
0
0
0
0
0
0
0
0
0
0
0
0
0
0
0
0
0
0
0
0
0
0
0
0
0
0
0
0
0
0
0
0
0
0
0
0
0
0
0
0
0
0
0
0
0
0
0
0
0
0
0
0
0
0
0
0
0
0
0
0
0
0
0
0
0
0
0
0
0
0
0
0
0
0
0
0
0
0
0
0
0
0
0
0
0
0
0
0
0
0
0
0
0
0
0
0
0
0
0
0
0
0
0
0
0
0
0
0
0
0
0
0
0
0
0
0
0
0
0
0
0
0
0
0
0
0
0
0
0
0
0
0
0
0
0
0
0
0
0
0
0
0
0
0
0
0
0
0
0
0
0
0
0
0
0
0
0
0
0
0
0
0
0
0
0
0
0
0
0
0
0
0
0
0
0
0
0
0
0
0
0
0
0
0
0
0
0
0
0
0
0
0
0
0
0
0
0
0
0
0
0
0
0
0
0
0
0
0
0
0
0
0
0
0
0
0
0
0
0
0
0
0
0
0
0
0
0
0
0
0
0
0
0
0
0
0
0
0
0
0
0
0
0
0
0
0
0
0
0
0
0
0
0
0
0
0
0
0
0
0
0
0
0
0
0
0
0
0
0
0
0
0
0
0
0
0
0
0
0
0
0
0
0
0
0
0
0
0
0
0
0
0
0
0
0
0
0
0
0
0
0
0
0
0
0
0
0
0
0
0
0
0
0
0
0
0
0
0
0
0
0
0
0
0
0
0
0
0
0
0
0
0
0
0
0
0
0
0
0
0
0
0
0
0
0
0
0
0
0
0
0
0
0
0
0
0
0
0
0
0
0
0
0
0
0
0
0
0
0
0
0
0
0
0
0
0
0
0
0
0
0
0
0
0
0
0
0
0
0
0
0
0
0
0
0
0
0
0
0
0
0
0
0
0
0
0
0
0
0
0
0
0
0
0
0
0
0
0
0
0
0
0
0
0
0
0
0
0
0
0
0
0
0
0
0
0
0
0
0
0
0
0
0
0
0
0
0
0
0
0
0
0
0
0
0
0
0
0
0
0
0
0
0
0
0
0
0
0
0
0
0
0
0
0
0
0
0
0
0
0
0
0
0
0
0
0
0
0
0
0
0
0
0
0
0
0
0
0
0
0
0
0
0
0
0
0
0
0
0
0
0
0
0
0
0
0
0
0
0
0
0
0
0
0
0
0
0
0
0
0
0
0
0
0
0
0
0
0
0
0
0
0
0
0
0
0
0
0
0
0
0
0
0
0
0
0
0
0
0
0
0
0
0
0
0
0
0
0
0
0
0
0
0
0
0
0
0
0
0
0
0
0
0
0
0
0
0
0
0
0
0
0
0
0
0
0
0
0
0
0
0
0
0
0
0
0
0
0
0
0
0
0
0
0
0
0
0
0
0
0
0
0
0
0
0
0
0
0
0
0
0
0
0
0
0
0
0
0
0
0
0
0
0
0
0
0
0
0
0
0
0
0
0
0
0
0
0
0
0
0
0
0
0
0
0
0
0
0
0
0
0
0
0
0
0
0
0
0
0
0
0
0
0
0
0
0
0
0
0
0
0
0
0
0
0
0
0
0
0
0
0
0
0
0
0
0
0
0
0
0
0
0
0
0
0
0
0
0
0
0
0
0
0
0
0
0
0
0
0
0
0
0
0
0
0
0
0
0
0
0
0
0
0
0
0
0
0
0
0
0
0
0
0
0
0
0
0
0
0
0
0
0
0
0
0
0
0
0
0
0
0
0
0
0
0
0
0
0
0
0
0
0
0
0
0
0
0
0
0
0
0
0
0
0
0
0
0
0
0
0
0
0
0
0
0
0
0
0
0
0
0
0
0
0
0
0
0
0
0
0
0
0
0
0
0
0
0
0
0
0
0
0
0
0
0
0
0
0
0
0
0
0
0
0
0
0
0
0
0
0
0
0
0
0
0
0
0
0
0
0
0
0
0
0
0
0
0
0
0
0
0
0
0
0
0
0
0
0
0
0
0
0
0
0
0
0
0
0
0
0
0
0
0
0
0
0
0
0
0
0
0
0
0
0
0
0
0
0
0
0
0
0
0
0
0
0
0
0
0
0
0
0
0
0
0
0
0
0
0
0
0
0
0
0
0
0
0
0
0
0
0
0
0
0
0
0
0
0
0
0
0
0
0
0
0
0
0
0
0
0
0
0
0
0
0
0
0
0
0
0
0
0
0
0
0
0
0
0
0
0
0
0
0
0
0
0
0
0
0
0
0
0
0
0
0
0
0
0
0
0
0
0
0
0
0
0
0
0
0
0
0
0
0
0
0
0
0
0
0
0
0
0
0
0
0
0
0
0
0
0
0
0
0
0
0
0
0
0
0
0
0
0
0
0
0
0
0
0
0
0
0
0
0
0
0
0
0
0
0
0
0
0
0
0
0
0
0
0
0
0
0
0
0
0
0
0
0
0
0
0
0
0
0
0
0
0
0
0
0
0
0
0
0
0
0
0
0
0
0
0
0
0
0
0
0
0
0
0
0
0
0
0
0
0
0
0
0
0
0
0
0
0
0
0
0
0
0
0
0
0
0
0
0
0
0
0
0
0
0
0
0
0
0
0
0
0
0
0
0
0
0
0
0
0
0
0
0
0
0
0
0
0
0
0
0
0
0
0
0
0
0
0
0
0
0
0
0
0
0
0
0
0
0
0
0
0
0
0
0
0
0
0
0
0
0
0
0
0
0
0
0
0
0
0
0
0
0
0
0
0
0
0
0
0
0
0
0
0
0
0
0
0
0
0
0
0
0
0
0
0
0
0
0
0
0
0
0
0
0
0
0
0
0
0
0
0
0
0
0
0
0
0
0
0
0
0
0
0
0
0
0
0
0
0
0
0
0
0
0
0
0
0
0
0
0
0
0
0
0
0
0
0
0
0
0
0
0
0
0
0
0
0
0
0
0
0
0
0
0
0
0
0
0
0
0
0
0
0
0
0
0
0
0
0
0
0
0
0
0
0
0
0
0
0
0
0
0
0
0
0
0
0
0
0
0
0
0
0
0
0
0
0
0
0
0
0
0
0
0
0
0
0
0
0
0
0
0
0
0
0
0
0
0
0
0
0
0
0
0
0
0
0
0
0
0
0
0
0
0
0
0
0
0
0
0
0
0
0
0
0
0
0
0
0
0
0
0
0
0
0
0
0
0
0
0
0
0
0
0
0
0
0
0
0
0
0
0
0
0
0
0
0
0
0
0
0
0
0
0
0
0
0
0
0
0
0
0
0
0
0
0
0
0
0
0
0
0
0
0
0
0
0
0
0
0
0
0
0
0
0
0
0
0
0
0
0
0
0
0
0
0
0
0
0
0
0
0
0
0
0
0
0
0
0
0
0
0
0
0
0
0
0
0
0
0
0
0
0
0
0
0
0
0
0
0
0
0
0
0
0
0
0
0
0
0
0
0
0
0
0
0
0
0
0
0
0
0
0
0
0
0
0
0
0
0
0
0
0
0
0
0
0
0
0
0
0
0
0
0
0
0
0
0
0
0
0
0
0
0
0
0
0
0
0
0
0
0
0
0
0
0
0
0
0
0
0
0
0
0
0
0
0
0
0
0
0
0
0
0
0
0
0
0
0
0
0
0
0
0
0
0
0
0
0
0
0
0
0
0
0
0
0
0
0
0
0
0
0
0
0
0
0
0
0
0
0
0
0
0
0
0
0
0
0
0
0
0
0
0
0
0
0
0
0
0
0
0
0
0
0
0
0
0
0
0
0
0
0
0
0
0
0
0
0
0
0
0
0
0
0
0
0
0
0
0
0
0
0
0
0
0
0
0
0
0
0
0
0
0
0
0
0
0
0
0
0
0
0
0
0
0
0
0
0
0
0
0
0
0
0
0
0
0
0
0
0
0
0
0
0
0
0
0
0
0
0
0
0
0
0
0
0
0
0
0
0
0
0
0
0
0
0
0
0
0
0
0
0
0
0
0
0
0
0
0
0
0
0
0
0
0
0
0
0
0
0
0
0
0
0
0
0
0
0
0
0
0
0
0
0
0
0
0
0
0
0
0
0
0
0
0
0
0
0
0
0
0
0
0
0
0
0
0
0
0
0
0
0
0
0
0
0
0
0
0
0
0
0
0
0
0
0
0
0
0
0
0
0
0
0
0
0
0
0
0
0
0
0
0
0
0
0
0
0
0
0
0
0
0
0
0
0
0
0
0
0
0
0
0
0
0
0
0
0
0
0
0
0
0
0
0
0
0
0
0
0
0
0
0
0
0
0
0
0
0
0
0
0
0
0
0
0
0
0
0
0
0
0
0
0
0
0
0
0
0
0
0
0
0
0
0
0
0
0
0
0
0
0
0
0
0
0
0
0
0
0
0
0
0
0
0
0
0
0
0
0
0
0
0
0
0
0
0
0
0
0
0
0
0
0
0
0
0
0
0
0
0
0
0
0
0
0
0
0
0
0
0
0
0
0
0
0
0
0
0
0
0
0
0
0
0
0
0
0
0
0
0
0
0
0
0
0
0
0
0
0
0
0
0
0
0
0
0
0
0
0
0
0
0
0
0
0
0
0
0
0
0
0
0
0
0
0
0
0
0
0
0
0
0
0
0
0
0
0
0
0
0
0
0
0
0
0
0
0
0
0
0
0
0
0
0
0
0
0
0
0
0
0
0
0
0
0
0
0
0
0
0
0
0
0
0
0
0
0
0
0
0
0
0
0
0
0
0
0
0
0
0
0
0
0
0
0
0
0
0
0
0
0
0
0
0
0
0
0
0
0
0
0
0
0
0
0
0
0
0
0
0
0
0
0
0
0
0
0
0
0
0
0
0
0
0
0
0
0
0
0
0
0
0
0
0
0
0
0
0
0
0
0
0
0
0
0
0
0
0
0
0
0
0
0
0
0
0
0
0
0
0
0
0
0
0
0
0
0
0
0
0
0
0
0
0
0
0
0
0
0
0
0
0
0
0
0
0
0
0
0
0
0
0
0
0
0
0
0
0
0
0
0
0
0
0
0
0
0
0
0
0
0
0
0
0
0
0
0
0
0
0
0
0
0
0
0
0
0
0
0
0
0
0
0
0
0
0
0
0
0
0
0
0
0
0
0
0
0
0
0
0
0
0
0
0
0
0
0
0
0
0
0
0
0
0
0
0
0
0
0
0
0
0
0
0
0
0
0
0
0
0
0
0
0
0
0
0
0
0
0
0
0
0
0
0
0
0
0
0
0
0
0
0
0
0
0
0
0
0
0
0
0
0
0
0
0
0
0
0
0
0
0
0
0
0
0
0
0
0
0
0
0
0
0
0
0
0
0
0
0
0
0
0
0
0
0
0
0
0
0
0
0
0
0
0
0
0
0
0
0
0
0
0
0
0
0
0
0
0
0
0
0
0
0
0
0
0
0
0
0
0
0
0
0
0
0
0
0
0
0
0
0
0
0
0
0
0
0
0
0
0
0
0
0
0
0
0
0
0
0
0
0
0
0
0
0
0
0
0
0
0
0
0
0
0
0
0
0
0
0
0
0
0
0
0
0
0
0
0
0
0
0
0
0
0
0
0
0
0
0
0
0
0
0
0
0
0
0
0
0
0
0
0
0
0
0
0
0
0
0
0
0
0
0
0
0
0
0
0
0
0
0
0
0
0
0
0
0
0
0
0
0
0
0
0
0
0
0
0
0
0
0
0
0
0
0
0
0
0
0
0
0
0
0
0
0
0
0
0
0
0
0
0
0
0
0
0
0
0
0
0
0
0
0
0
0
0
0
0
0
0
0
0
0
0
0
0
0
0
0
0
0
0
0
0
0
0
0
0
0
0
0
0
0
0
0
0
0
0
0
0
0
0
0
0
0
0
0
0
0
0
0
0
0
0
0
0
0
0
0
0
0
0
0
0
0
0
0
0
0
0
0
0
0
0
0
0
0
0
0
0
0
0
0
0
0
0
0
0
0
0
0
0
0
0
0
0
0
0
0
0
0
0
0
0
0
0
0
0
0
0
0
0
0
0
0
0
0
0
0
0
0
0
0
0
0
0
0
0
0
0
0
0
0
0
0
0
0
0
0
0
0
0
0
0
0
0
0
0
0
0
0
0
0
0
0
0
0
0
0
0
0
0
0
0
0
0
0
0
0
0
0
0
0
0
0
0
0
0
0
0
0
0
0
0
0
0
0
0
0
0
0
0
0
0
0
0
0
0
0
0
0
0
0
0
0
0
0
0
0
0
0
0
0
0
0
0
0
0
0
0
0
0
0
0
0
0
0
0
0
0
0
0
0
0
0
0
0
0
0
0
0
0
0
0
0
0
0
0
0
0
0
0
0
0
0
0
0
0
0
0
0
0
0
0
0
0
0
0
0
0
0
0
0
0
0
0
0
0
0
0
0
0
0
0
0
0
0
0
0
0
0
0
0
0
0
0
0
0
0
0
0
0
0
0
0
0
0
0
0
0
0
0
0
0
0
0
0
0
0
0
0
0
0
0
0
0
0
0
0
0
0
0
0
0
0
0
0
0
0
0
0
0
0
0
0
0
0
0
0
0
0
0
