0.270475
0.452665
0.600747
0.690971
0.709879
0.660601
0.562622
0.444731
0.334553
0.249437
0.183913
0.129835
0.0818752
0.0339966
-0.0188732
-0.0796459
-0.148521
-0.223191
-0.299717
-0.37378
-0.441948
-0.502699
-0.556359
-0.60493
-0.651457
-0.699308
-0.751638
-0.811172
-0.880262
-0.96091
-1.05491
-1.16411
-1.2916
-1.44205
-1.6196
-1.8158
-1.99646
-2.1138
-2.11866
-1.97631
-1.68197
-1.26996
-0.809794
-0.394307
-0.108321
0
-0.0547092
-0.228456
-0.697215
-0.398159
0.858944
2.80474
4.84887
6.26604
6.45129
5.17454
2.72982
-0.144027
-2.58812
-4.03207
-4.19112
-4.07548
-3.91447
-3.71499
-3.47792
-3.19951
-2.8875
-2.55688
-2.22149
-1.89792
-1.60854
-1.37382
-1.20823
-1.11589
-1.08891
-1.10968
-1.15684
-1.21236
-1.26628
-1.31709
-1.36547
-1.41018
-1.44641
-1.4659
-1.45948
-1.41816
-1.33343
-1.21901
-1.09672
-0.98665
-0.897912
-0.824916
-0.751293
-0.659385
-0.538991
-0.39662
-0.253148
-0.133507
-0.054361
-0.0156481
0
0.0382065
0.106791
0.220741
0.369362
0.539262
0.722621
0.91249
1.10293
1.28871
1.46158
1.60762
1.70987
1.74752
1.70287
1.5701
1.36106
1.10472
0.839779
0.603609
0.414776
0.266684
0.161013
0.0962044
0.0682485
0.0719086
0.10136
0.151328
0.215543
0.285349
0.351009
0.403769
0.437566
0.450361
0.44445
0.425513
0.400635
0.375993
0.354936
0.33728
0.321297
0.304642
0.285598
0.264079
0.241942
0.222468
0.209149
0.204004
0.207887
0.217333
0.224044
0.218375
0.192704
0.144474
0.0776895
0.00221405
-0.0690069
-0.123819
-0.155894
-0.164671
-0.153755
-0.130416
-0.103166
-0.0792013
-0.0624022
-0.0523169
-0.0441958
-0.0299034
0
0.0437834
0.126289
0.301551
0.707274
1.42277
2.2273
2.91626
3.34541
3.4166
3.09629
2.45179
1.66205
0.974324
0.633617
0.58218
0.637174
0.730653
0.844028
0.971082
1.09999
1.21384
1.29653
1.33597
1.32686
1.27189
1.18062
1.0665
0.943304
0.822565
0.710305
0.608753
0.520437
0.447624
0.392361
0.351181
0.317066
0.281991
0.239625
0.187848
0.129902
0.0734509
0.0277537
0
-0.0190852
-0.0233111
-0.0198614
-0.0176798
-0.0245247
-0.0444962
-0.0932387
-0.321646
0.215662
1.67314
3.73943
5.76219
7.04067
7.13729
6.05329
4.1832
2.0878
0.228666
-1.17772
-2.11208
-2.39543
-2.55406
-2.63288
-2.61636
-2.49887
-2.28308
-1.9795
-1.6077
-1.20092
-0.79356
-0.430565
-0.153227
0.0091876
0.0447823
-0.0394269
-0.218702
-0.453314
-0.693041
-0.885606
-1.00038
-1.03665
-1.00944
-0.93441
-0.821537
-0.682274
-0.530603
-0.380577
-0.244752
-0.13311
-0.0527866
-0.00816994
0
-0.0100485
-0.0490656
-0.10969
-0.181551
-0.24621
-0.28269
-0.271008
-0.195911
-0.0130139
0.321038
0.727285
1.09834
1.34011
1.40815
1.32348
1.16116
1.01704
0.968697
1.03443
1.16517
1.34778
1.53857
1.68335
1.73273
1.65303
1.43689
1.10969
0.726482
0.356755
0.0623021
-0.145198
-0.29371
-0.394423
-0.45073
-0.467711
-0.451074
-0.40316
-0.330918
-0.250336
-0.181224
-0.143249
-0.15157
-0.212709
-0.322269
-0.465437
-0.620169
-0.762056
-0.873333
-0.947904
-0.984633
-0.981422
-0.938841
-0.860146
-0.750797
-0.619622
-0.481971
-0.356493
-0.258827
-0.198459
-0.17638
-0.184689
-0.208735
-0.231223
-0.236645
-0.215148
-0.167646
-0.0963146
0
0.142087
0.334302
0.584495
0.852458
1.07555
1.19119
1.16681
1.01958
0.81389
0.63736
0.566755
0.614682
0.729874
0.884368
1.06565
1.26018
1.45569
1.64314
1.81748
1.97753
2.12491
2.26138
2.38541
2.49024
2.561
2.57668
2.51766
2.37391
2.15069
1.86943
1.56362
1.27139
1.01725
0.811298
0.663165
0.574797
0.541488
0.554301
0.603158
0.679646
0.778638
0.897826
1.03716
1.1963
1.37278
1.56158
1.75381
1.93842
2.10264
2.22867
2.29376
2.28103
2.17438
1.96114
1.63641
1.17746
0.61596
0
-0.688383
-0.0229393
1.64291
3.79633
5.82762
7.24028
7.75688
7.33386
6.14325
4.51123
2.79203
1.22806
-0.101679
-1.14883
-1.48476
-1.6186
-1.63724
-1.54655
-1.3738
-1.15146
-0.901118
-0.630128
-0.336268
0
0.374532
0.727206
0.983733
1.08452
1.00607
0.766126
0.417117
0.0348551
-0.295728
-0.513412
-0.621721
-0.543934
-0.204823
0.256379
0.655417
0.827667
0.692726
0.29324
-0.219291
-0.656449
-0.890501
-0.957697
-0.96485
-0.948794
-0.91796
-0.878012
-0.832867
-0.78662
-0.742769
-0.703194
-0.666583
-0.627369
-0.576459
-0.500048
-0.379075
-0.226335
-0.0761636
0.0286885
0.0557836
-0.00286884
-0.127872
-0.280764
-0.41858
-0.508288
-0.551645
-0.562476
-0.551742
-0.527631
-0.50075
-0.48568
-0.497431
-0.549269
-0.650642
-0.805544
-1.01185
-1.26192
-1.54435
-1.84727
-2.1616
-2.47242
-2.76
-2.99672
-3.13382
-3.11611
-2.91342
-2.54544
-2.08281
-1.62236
-1.24859
-0.975256
-0.758938
-0.574765
-0.418722
-0.290768
-0.190292
-0.118212
-0.07579
-0.0623065
-0.0731316
-0.0990184
-0.126966
-0.142369
-0.131707
-0.0887982
0
0.210676
0.521623
0.903245
1.2713
1.52533
1.57692
1.39463
1.03802
0.649088
0.39274
0.37514
0.508315
0.693004
0.90444
1.12352
1.33425
1.52696
1.69454
1.8336
1.94336
2.02493
2.08053
2.11296
2.12504
2.11911
2.09682
2.06015
2.01084
1.9505
1.88176
1.80896
1.73823
1.67706
1.63369
1.6212
1.66378
1.75749
1.85079
1.87136
1.75235
1.46145
1.0186
0.49296
-0.0200153
-0.430528
-0.705426
-0.703391
-0.391737
0.05298
0.450262
0.665471
0.634486
0.378038
0
-0.308415
-0.440148
-0.36601
-0.189253
0.0314404
0.277969
0.542758
0.821024
1.11212
1.42863
1.94822
2.78438
3.92627
5.34404
6.79531
7.79722
7.81187
6.56352
4.26841
1.59003
-0.686114
-1.97516
-2.07431
-2.12213
-2.11302
-2.03083
-1.8633
-1.60499
-1.2611
-0.850204
-0.403391
0.0409409
0.445147
0.79016
1.06106
1.25393
1.37477
1.43689
1.45737
1.45286
1.4359
1.41092
1.37507
1.32232
1.24708
1.14457
1.01512
0.865693
0.709622
0.564425
0.448274
0.381466
0.395288
0.492468
0.639144
0.79084
0.908189
0.968996
0.972308
0.934042
0.877312
0.822508
0.779157
0.746933
0.724575
0.712294
0.711832
0.725029
0.753636
0.798753
0.861269
0.93669
1.01698
1.09234
1.15288
1.19013
1.19774
1.17142
1.10849
1.00761
0.872284
0.707066
0.515158
0.3015
0.0754822
-0.147435
-0.344078
-0.49236
-0.574725
-0.581186
-0.51171
-0.377122
-0.197821
0
0.155978
0.283925
0.380821
0.453145
0.505957
0.547514
0.587138
0.636235
0.70621
0.783992
0.842041
0.851224
0.795789
0.682106
0.535655
0.387384
0.257146
0.142772
0.0275238
-0.102711
-0.257831
-0.438878
-0.637131
-0.837129
-1.02219
-1.18189
-1.31757
-1.43065
-1.52638
-1.61178
-1.69354
-1.77636
-1.86226
-1.95081
-2.03985
-2.12632
-2.2073
-2.27966
-2.33977
-2.3836
-2.407
-2.40618
-2.37848
-2.32345
-2.24327
-2.14254
-2.02797
-1.90774
-1.79037
-1.68346
-1.59266
-1.52111
-1.46934
-1.43564
-1.41676
-1.40875
-1.40769
-1.41032
-1.41444
-1.41897
-1.42397
-1.43036
-1.43963
-1.45319
-1.47188
-1.49571
-1.52378
-1.55466
-1.58693
-1.61983
-1.65329
-1.68784
-1.72347
-1.75836
-1.78823
-1.80688
-1.80767
-1.78542
-1.7379
-1.66935
-1.5838
-1.48395
-1.37197
-1.24903
-1.11512
-0.969234
-0.809874
-0.632742
-0.415506
0
0.796774
1.85613
3.10393
4.39711
5.46974
5.95328
5.51317
4.05196
1.84177
-0.540967
-2.48104
-3.58283
-3.81381
-3.89833
-3.86017
-3.74702
-3.54517
-3.19332
-2.66983
-2.04442
-1.42333
-0.909534
-0.525734
-0.230917
0.00895691
0.204201
0.35304
0.45455
0.512111
0.528519
0.506901
0.452204
0.372596
0.280019
0.189487
0.117143
0.0767143
0.0752174
0.135061
0.266065
0.432555
0.58726
0.687817
0.711886
0.665024
0.578458
0.497969
0.468276
0.513229
0.61582
0.756598
0.922614
1.10159
1.27906
1.44138
1.57736
1.67922
1.74289
1.76778
1.75624
1.713
1.64483
1.56019
1.4674
1.37459
1.28879
1.21593
1.15926
1.11589
1.07709
1.03217
0.972197
0.893195
0.797618
0.693594
0.592181
0.503763
0.433894
0.382419
0.347604
0.32563
0.312135
0.303378
0.296677
0.290134
0.281974
0.270128
0.252097
0.225043
0.186504
0.135071
0.0709602
-0.00373993
-0.0851898
-0.168284
-0.24771
-0.318912
-0.378613
-0.424829
-0.458051
-0.482704
-0.505578
-0.533043
-0.568659
-0.611397
-0.655106
-0.68951
-0.702408
-0.68243
-0.623765
-0.52545
-0.387679
-0.213587
0
0.231236
0.532439
0.859308
1.13656
1.27558
1.21573
0.963163
0.597896
0.239833
-0.00963059
-0.116099
-0.162372
-0.188058
-0.207908
-0.227438
-0.242223
-0.241879
-0.216861
-0.164785
-0.0957878
-0.0235504
0.039312
0.0811729
0.0936039
0.0723988
0.0174377
-0.0681152
-0.178662
-0.305188
-0.438851
-0.570324
-0.689489
-0.783715
-0.825311
-0.782448
-0.684743
-0.588643
-0.554644
-0.619604
-0.778692
-0.986778
-1.17859
-1.29686
-1.31757
-1.27822
-1.20523
-1.10774
-0.992209
-0.863493
-0.724728
-0.577766
-0.423874
-0.264085
-0.0935719
0
0.598467
2.13269
4.48964
6.93949
8.50761
8.54038
7.05768
4.66953
2.1751
0.155072
-1.19539
-1.96404
-1.9719
-1.85044
-1.66671
-1.36408
-0.846131
-0.223005
0.336934
0.677895
0.713299
0.459503
0.0329935
-0.386961
-0.615955
-0.52849
-0.260714
0.145346
0.667188
1.21609
1.6807
2.00217
2.15879
2.13397
1.91424
1.52638
1.07746
0.742368
0.675155
0.85219
1.10614
1.36583
1.59945
1.7871
1.92253
2.01028
2.05997
2.08083
2.08045
2.06233
2.02997
1.98913
1.94862
1.91939
1.91241
1.93464
1.98534
2.07178
2.21839
2.45137
2.7232
2.95589
3.06214
2.9838
2.72487
2.35609
1.98669
1.71916
1.60064
1.55979
1.57095
1.61691
1.67168
1.71273
1.72668
1.71265
1.68148
1.65045
1.63489
1.64721
1.66204
1.62786
1.48841
1.21103
0.80793
0.338705
-0.10898
-0.452714
-0.672463
-0.780996
-0.802216
-0.775622
-0.743002
-0.736927
-0.774707
-0.858758
-0.981681
-1.13288
-1.30224
-1.48255
-1.67037
-1.86459
-2.05954
-2.23865
-2.37605
-2.44128
-2.40693
-2.25685
-1.99245
-1.63503
-1.22337
-0.806756
-0.432155
-0.13775
0.0541132
0.140933
0.139508
0.0806253
0
-0.0703035
-0.115971
-0.139376
-0.148056
-0.145772
-0.133896
-0.109353
-0.0587761
0.0992916
0.539178
1.17491
1.77867
2.11848
2.08821
1.74573
1.25469
0.791472
0.482827
0.333671
0.247892
0.183177
0.123066
0.0565414
-0.0261488
-0.132249
-0.265449
-0.425378
-0.607763
-0.805814
-1.00971
-1.20763
-1.38555
-1.52804
-1.62435
-1.66684
-1.65192
-1.58122
-1.46232
-1.30838
-1.13614
-0.962598
-0.801263
-0.656774
-0.527145
-0.409184
-0.298849
-0.191181
0
0.585726
1.72471
3.47957
5.5637
7.34411
8.11454
7.49261
5.66618
3.30565
1.19382
-0.180275
-0.805744
-1.11161
-1.55197
-2.03482
-2.52426
-2.94091
-3.19458
-3.22871
-3.04683
-2.70851
-2.30281
-1.91716
-1.61002
-1.3674
-1.16325
-0.984072
-0.823626
-0.67795
-0.542965
-0.414938
-0.291285
-0.171573
-0.0599816
0.0332129
0.0942171
0.110725
0.0783059
0.00462933
-0.0910295
-0.183496
-0.250281
-0.278856
-0.276744
-0.252468
-0.211108
-0.155794
-0.0863593
0
0.104899
0.238268
0.391685
0.5405
0.655828
0.71697
0.720968
0.68427
0.635756
0.604825
0.610301
0.646032
0.69893
0.759891
0.819813
0.869136
0.899461
0.904871
0.882227
0.831321
0.754704
0.657142
0.544648
0.423215
0.297483
0.169828
0.0400882
-0.0938183
-0.234676
-0.384496
-0.543138
-0.707421
-0.871019
-1.02514
-1.15978
-1.26642
-1.33734
-1.36727
-1.35091
-1.28004
-1.13926
-0.908901
-0.601211
-0.284673
-0.0380262
0.0657567
-0.0166224
-0.277275
-0.651531
-1.03483
-1.31682
-1.432
-1.43429
-1.36444
-1.21572
-1.01747
-0.822973
-0.683173
-0.632918
-0.679997
-0.800937
-0.946329
-1.05526
-1.0748
-0.996018
-0.85186
-0.643638
-0.402588
-0.176113
-0.00697627
0.0796392
0.0841321
0.0326926
-0.0305589
-0.0568594
-0.00693188
0.204996
0.569705
0.969861
1.27131
1.37858
1.26984
1.00217
0.68797
0.450688
0.373282
0.40861
0.487601
0.579492
0.65289
0.683762
0.660983
0.587546
0.477262
0.34877
0.21976
0.102065
0
-0.109378
-0.194998
-0.253002
-0.281219
-0.273423
-0.230682
-0.16795
-0.103179
-0.0510895
-0.0179344
0
0.0147119
0.0364921
0.0724776
0.120565
0.175205
0.232178
0.288019
0.340508
0.383642
0.52297
1.20633
2.57015
4.58276
6.91233
8.95326
10.0219
9.64752
7.81539
5.01519
2.04332
-0.351516
-1.78701
-2.31758
-2.28994
-2.23133
-2.12013
-1.9373
-1.67083
-1.32124
-0.906828
-0.460799
-0.0289612
0.337893
0.597727
0.730388
0.747312
0.692896
0.634004
0.638595
0.750446
0.971008
1.25691
1.53717
1.74224
1.83165
1.80704
1.7051
1.57557
1.45698
1.36138
1.27689
1.19642
1.11733
1.04114
0.977396
0.942667
0.956256
1.03388
1.18194
1.39438
1.65351
1.9342
2.21012
2.4611
2.68218
2.8689
3.01603
3.12246
3.18925
3.21827
3.21221
3.17498
3.11189
3.02938
2.93413
2.83182
2.72609
2.61771
2.50478
2.38335
2.24835
2.09471
1.91867
1.71899
1.49801
1.2618
1.01978
0.787598
0.582244
0.418757
0.307183
0.250588
0.24463
0.278753
0.338555
0.408661
0.475592
0.529672
0.565053
0.579741
0.574973
0.554162
0.521626
0.481435
0.436351
0.387219
0.332938
0.271421
0.200506
0.119207
0.0286705
-0.0675545
-0.164124
-0.255228
-0.334716
-0.399421
-0.450702
-0.492331
-0.528005
-0.558931
-0.582643
-0.593588
-0.585145
-0.552129
-0.495419
-0.419066
-0.326483
-0.222371
-0.111946
0
0.111811
0.218169
0.316954
0.40704
0.488507
0.563003
0.633869
0.70615
0.786282
0.884015
1.02533
1.26219
1.57009
1.86512
2.03815
2.00588
1.75673
1.36289
0.949655
0.638496
0.495075
0.43674
0.412993
0.41179
0.421723
0.433344
0.439447
0.434459
0.413113
0.370402
0.301417
0.202347
0.07188
-0.0939552
-0.28808
-0.486854
-0.658685
-0.7738
-0.811731
-0.766464
-0.648151
-0.481105
-0.298416
-0.134198
-0.0118378
0.066223
0.106701
0.115828
0.0814911
0
0.549744
1.95091
4.08058
6.38246
8.04283
8.37134
7.16401
4.81337
2.0864
-0.283973
-1.9274
-2.88264
-3.30396
-3.61224
-3.73368
-3.62294
-3.28022
-2.76888
-2.19603
-1.66201
-1.20974
-0.821534
-0.478142
-0.174467
0.0789219
0.273944
0.406929
0.480303
0.502951
0.488887
0.454535
0.415559
0.384327
0.366827
0.364261
0.378154
0.40897
0.456522
0.520139
0.598691
0.690636
0.793659
0.906045
1.02625
1.1529
1.2847
1.42017
1.55764
1.69543
1.83223
1.96759
2.10227
2.23828
2.37861
2.52657
2.68509
2.85695
3.04456
3.24547
3.44354
3.61309
3.7271
3.76452
3.71626
3.5877
3.39678
3.16865
2.92931
2.69941
2.48754
2.29563
2.12423
1.97358
1.84315
1.73113
1.63463
1.54918
1.46864
1.38672
1.29801
1.19894
1.08849
0.968436
0.843088
0.718672
0.60229
0.500439
0.419086
0.362615
0.333264
0.332398
0.357897
0.404156
0.463303
0.52529
0.57757
0.608907
0.611623
0.583314
0.527866
0.455188
0.379215
0.314309
0.270979
0.256465
0.263176
0.275419
0.276221
0.254735
0.210837
0.154902
0.103188
0.0714066
0.0688865
0.0914019
0.133963
0.195155
0.273592
0.368317
0.478554
0.602987
0.738938
0.882042
1.02553
1.16013
1.27604
1.36436
1.41843
1.43461
1.41263
1.35543
1.26869
1.16009
1.03855
0.91295
0.790783
0.677936
0.578538
0.495498
0.431245
0.388014
0.368216
0.374943
0.41794
0.517365
0.688321
0.897694
1.0872
1.19524
1.17918
1.03171
0.784704
0.499091
0.245106
0.0803003
0.00176444
-0.0190195
0
0.0424757
0.110293
0.196194
0.293103
0.395328
0.498684
0.6007
0.700571
0.797576
0.90036
1.65551
3.30079
5.68588
8.20522
10.0224
10.4818
9.46514
7.44946
5.21641
3.41386
2.26052
1.5659
0.978679
0.441103
-0.0061183
-0.274623
-0.289102
-0.0174583
0.507167
1.18511
1.87205
2.42099
2.81748
3.12666
3.37243
3.55889
3.69435
3.79098
3.86319
3.92604
3.99365
4.0774
4.18435
4.31736
4.47687
4.64787
4.81063
4.94679
5.04482
5.10313
5.12968
5.13834
5.14359
5.15572
5.17659
5.2046
5.23599
5.26698
5.29604
5.32503
5.35906
5.40501
5.46935
5.55604
5.66363
5.78872
5.92444
6.06198
6.1913
6.29933
6.37181
6.3992
6.37472
6.29549
6.16379
5.98739
5.7783
5.55011
5.31517
5.08255
4.85618
4.63837
4.43133
4.23698
4.05721
3.89283
3.74403
3.61034
3.49077
3.38389
3.28791
3.20126
3.12146
3.04622
2.97391
2.90424
2.8385
2.77944
2.73042
2.69429
2.67158
2.66074
2.65775
2.65413
2.63862
2.60007
2.52993
2.42431
2.2851
2.11982
1.94042
1.76126
1.59629
1.45448
1.34148
1.26281
1.22446
1.23493
1.29734
1.39304
1.49044
1.55797
1.57287
1.52811
1.43504
1.32051
1.21946
1.16547
1.17293
1.25985
1.45862
1.75318
2.06604
2.31721
2.44422
2.41407
2.23083
1.93887
1.61657
1.35396
1.21508
1.17042
1.16281
1.15918
1.12732
1.04645
0.913771
0.744318
0.564167
0.40006
0.26854
0.164381
0.0808163
0.0129108
-0.0453888
-0.0995918
-0.153372
-0.207811
-0.261195
-0.309492
-0.347555
-0.369677
-0.370411
-0.342202
-0.281322
-0.196461
-0.106097
-0.0316811
0.00772705
0
-0.0606842
-0.165179
-0.300819
-0.452184
-0.604875
-0.749663
-0.855451
-0.41943
0.519906
1.96203
3.80806
5.71986
7.1585
7.59009
6.76017
4.8559
2.42463
0.095747
-1.70996
-2.89264
-3.2265
-3.29168
-3.22532
-3.01585
-2.69007
-2.30939
-1.95234
-1.68784
-1.51772
-1.4166
-1.36897
-1.34995
-1.33262
-1.2957
-1.23226
-1.14401
-1.0406
-0.935075
-0.8384
-0.755336
-0.683453
-0.615559
-0.544227
-0.465539
-0.386166
-0.320034
-0.280886
-0.274006
-0.291326
-0.312315
-0.310359
-0.262094
-0.162885
-0.0259941
0.145259
0.330888
0.508801
0.661512
0.781211
0.871323
0.943871
1.01363
1.09477
1.18532
1.26681
1.31482
1.31348
1.26619
1.19701
1.14229
1.13648
1.23225
1.40448
1.58539
1.69608
1.68187
1.53393
1.28796
1.00238
0.728924
0.49185
0.276442
0.0707958
-0.129262
-0.324202
-0.511934
-0.688019
-0.84639
-0.980575
-1.08443
-1.15291
-1.18237
-1.16686
-1.09244
-0.937082
-0.691143
-0.390555
-0.105953
0.0895641
0.136979
0.00534172
-0.296301
-0.711071
-1.1392
-1.46484
-1.61895
-1.6406
-1.583
-1.45834
-1.28234
-1.07109
-0.838942
-0.598177
-0.370425
-0.180345
-0.0517235
0
-0.0136135
-0.0843922
-0.177752
-0.253325
-0.27722
-0.23318
-0.112341
0.04244
0.172098
0.228226
0.19677
0.106784
0.0194019
0.00248032
0.103625
0.32009
0.689555
1.14893
1.58242
1.89231
2.01808
1.94503
1.70663
1.37755
1.0536
0.820823
0.69849
0.642082
0.616966
0.606274
0.600238
0.589776
0.567007
0.52587
0.46257
0.375932
0.267921
0.143491
0.00962906
-0.124671
-0.249286
-0.354243
-0.43103
-0.469186
-0.452713
-0.368446
-0.23906
-0.108471
-0.0198814
0
-0.0546268
-0.146007
-0.224321
-0.239231
-0.158591
-0.00255737
0.194471
0.413755
0.648316
0.730001
1.11744
2.29671
4.1379
5.96917
6.91853
6.42426
4.56248
1.976
-0.519808
-2.367
-3.34743
-3.59833
-3.79175
-3.90425
-3.92384
-3.85128
-3.69777
-3.48062
-3.2191
-2.93295
-2.64318
-2.36422
-2.10809
-1.88595
-1.70527
-1.56786
-1.46901
-1.39829
-1.34228
-1.28851
-1.22702
-1.16162
-1.11552
-1.11936
-1.19471
-1.33952
-1.52224
-1.68865
-1.7796
-1.7529
-1.62925
-1.43366
-1.19263
-0.93905
-0.704066
-0.507246
-0.358513
-0.256706
-0.192364
-0.152236
-0.123909
-0.0989021
-0.0737728
-0.0484234
-0.0238052
0
0.0369881
0.08046
0.13789
0.221069
0.360246
0.60878
0.953856
1.30359
1.54189
1.57209
1.3583
0.946312
0.450996
0.0115208
-0.267534
-0.424229
-0.528528
-0.605465
-0.666185
-0.720973
-0.777698
-0.84075
-0.910586
-0.983927
-1.05452
-1.11424
-1.15487
-1.16969
-1.15485
-1.11007
-1.03875
-0.947344
-0.844428
-0.73953
-0.642751
-0.564476
-0.512565
-0.492232
-0.505443
-0.550494
-0.621993
-0.711415
-0.808197
-0.901133
-0.980274
-1.03983
-1.07328
-1.07716
-1.05074
-0.996027
-0.91421
-0.813575
-0.703211
-0.590665
-0.479891
-0.370368
-0.257846
-0.136564
-0.00211449
0.145848
0.302546
0.461094
0.612525
0.74855
0.863838
0.957426
1.03286
1.09702
1.15783
1.22172
1.29286
1.36672
1.42684
1.45219
1.42557
1.34106
1.20701
1.04293
0.871734
0.711023
0.56518
0.430718
0.305082
0.186892
0.0782692
-0.0147163
-0.0837496
-0.111561
-0.0802799
-0.00826473
0.0703211
0.120074
0.120616
0.0757877
0.0111082
-0.0385813
-0.0443535
0
0
0.021637
0.0580873
0.102782
0.150163
0.196221
0.238614
0.276509
0.309929
0.336142
0.319456
0.706364
1.78112
3.46721
5.29238
6.55283
6.65835
5.45334
3.30525
0.896191
-1.14082
-2.5008
-3.07631
-3.36067
-3.4925
-3.44221
-3.20812
-2.82522
-2.36588
-1.9214
-1.56439
-1.29507
-1.08054
-0.89913
-0.741772
-0.605435
-0.485332
-0.374778
-0.265505
-0.148458
-0.0150909
0.141041
0.32602
0.546607
0.78842
1.02022
1.20863
1.32907
1.37371
1.35332
1.29273
1.22192
1.16641
1.13545
1.1246
1.12975
1.14315
1.15573
1.15971
1.15062
1.12852
1.09788
1.06624
1.04209
1.0323
1.03911
1.0628
1.09877
1.14018
1.18025
1.21449
1.24218
1.26654
1.29368
1.3306
1.38258
1.45087
1.53651
1.63285
1.72663
1.80317
1.85026
1.86086
1.83387
1.77286
1.6835
1.57127
1.44207
1.30148
1.15347
1.00209
0.853116
0.7147
0.596208
0.507054
0.455309
0.446443
0.482432
0.561328
0.677571
0.82751
0.999681
1.17327
1.32769
1.44717
1.52429
1.56187
1.57225
1.57373
1.58516
1.62013
1.68109
1.76508
1.85728
1.93978
1.99862
2.02928
2.03856
2.04202
2.05797
2.10056
2.1705
2.264
2.36939
2.472
2.55986
2.6285
2.68324
2.73796
2.81071
2.92177
3.10163
3.32995
3.56102
3.74259
3.83609
3.82772
3.72609
3.55086
3.32143
3.05349
2.76843
2.48039
2.20005
1.93859
1.70803
1.5221
1.3902
1.31726
1.30244
1.35359
1.45474
1.57894
1.69758
1.78594
1.82695
1.81238
1.74175
1.62039
1.45796
1.27211
1.07855
0.890826
0.7225
0.587309
0.516933
0.561883
0.694952
0.848128
0.943057
0.921912
0.76952
0.515661
0
0.195613
1.39179
3.37261
5.59424
7.39182
8.20581
7.76007
6.1513
3.82128
1.39032
-0.595905
-1.8776
-2.44112
-2.71412
-2.87532
-2.89195
-2.71243
-2.29894
-1.68357
-0.990473
-0.397466
-0.0120733
0.242941
0.442815
0.610365
0.74112
0.831796
0.877076
0.872186
0.816199
0.714838
0.581644
0.436918
0.304547
0.2068
0.157349
0.164891
0.229387
0.342587
0.490243
0.655441
0.822148
0.979768
1.12346
1.25121
1.36411
1.46532
1.55874
1.64778
1.7344
1.81877
1.89928
1.97295
2.03615
2.08584
2.12035
2.13987
2.14672
2.14512
2.14052
2.1386
2.14407
2.15966
2.1853
2.2159
2.24018
2.24159
2.20256
2.1083
1.95079
1.73198
1.465
1.17262
0.883164
0.624522
0.413846
0.253237
0.147597
0.095917
0.0883949
0.101943
0.110693
0.0939634
0.0401399
-0.0516218
-0.172217
-0.305868
-0.435002
-0.545186
-0.631887
-0.698661
-0.749111
-0.785834
-0.811794
-0.82968
-0.841649
-0.849404
-0.854339
-0.858154
-0.862767
-0.870231
-0.882567
-0.901641
-0.929154
-0.966681
-1.01556
-1.07648
-1.14848
-1.22942
-1.31366
-1.38896
-1.44064
-1.45515
-1.42382
-1.34538
-1.2261
-1.0777
-0.914029
-0.74785
-0.587243
-0.437972
-0.304103
-0.188915
-0.0957664
-0.0307402
0
0.0279645
0.0172546
-0.0285944
-0.100248
-0.182446
-0.25552
-0.293951
-0.233587
-0.0160343
0.29701
0.597091
0.778733
0.782702
0.613632
0.328304
0.00568719
-0.281635
-0.491698
-0.635607
-0.729385
-0.777872
-0.770372
-0.690832
-0.552534
-0.389649
-0.239739
-0.132698
-0.0819562
-0.0813499
-0.108493
-0.132998
-0.126533
-0.0799948
0
0.107255
0.232737
0.365335
0.493621
0.608329
0.704151
0.725145
0.701989
1.53573
3.25958
5.36854
7.01279
7.43039
6.3568
4.15841
1.60739
-0.545249
-1.9111
-2.32282
-2.51021
-2.46481
-2.20509
-1.75775
-1.17833
-0.57204
-0.0626269
0.308719
0.582567
0.801799
0.986857
1.14514
1.27937
1.3924
1.48829
1.57187
1.64834
1.72261
1.79854
1.87881
1.963
2.04371
2.10875
2.14555
2.14614
2.11132
2.05212
1.98808
1.94275
1.93811
1.98117
2.06754
2.1951
2.36689
2.5826
2.82719
3.06859
3.27218
3.40901
3.46154
3.42758
3.32134
3.17078
3.01167
2.87946
2.79535
2.75973
2.76314
2.79827
2.85924
2.93616
3.01193
3.06289
3.0654
2.9996
2.85402
2.62999
2.3437
2.02438
1.70818
1.42954
1.20336
1.02374
0.889949
0.797253
0.736454
0.697706
0.666397
0.625124
0.559391
0.460453
0.327884
0.166172
0
-0.141076
-0.220426
-0.213585
-0.050818
0.217235
0.50016
0.706125
0.778077
0.710303
0.53972
0.320633
0.0998447
-0.0963394
-0.269559
-0.422026
-0.549811
-0.649188
-0.717143
-0.752205
-0.755206
-0.729646
-0.681513
-0.617609
-0.546435
-0.477413
-0.417441
-0.369539
-0.332302
-0.300447
-0.266415
-0.222616
-0.163599
-0.0881969
0
0.110009
0.223742
0.335597
0.438912
0.528529
0.601476
0.657887
0.701541
0.739623
0.781385
0.836332
0.918081
1.02789
1.13706
1.20195
1.18045
1.04983
0.818094
0.523413
0.221343
-0.0351088
-0.224614
-0.366576
-0.466855
-0.53371
-0.576165
-0.600664
-0.609089
-0.598759
-0.56434
-0.498182
-0.385775
-0.238333
-0.0844196
0.0422606
0.115044
0.123438
0.0753325
-0.007757
-0.0991507
-0.175036
-0.226814
-0.255395
-0.261458
-0.225071
0
0.835675
2.07023
3.49657
4.86755
5.89953
6.33273
6.0231
5.0239
3.58735
2.06325
0.737398
-0.276446
-0.982285
-1.54697
-1.99939
-2.29191
-2.39791
-2.32325
-2.10765
-1.81258
-1.50025
-1.21414
-0.960545
-0.726641
-0.504295
-0.289735
-0.0812223
0.121463
0.317025
0.502886
0.675892
0.833035
0.97223
1.09285
1.19592
1.2839
1.36012
1.42807
1.49069
1.54974
1.60595
1.65926
1.7096
1.7579
1.8069
1.86132
1.92724
2.01085
2.11684
2.24658
2.39683
2.56333
2.73898
2.91508
3.08267
3.23339
3.35753
3.44455
3.48894
3.4875
3.44018
3.35112
3.2291
3.08659
2.93745
2.7938
2.66307
2.54607
2.4402
2.34044
2.24172
2.14079
2.03684
1.93086
1.82435
1.71789
1.61083
1.5019
1.38998
1.27499
1.15853
1.04405
0.93636
0.840642
0.760929
0.699643
0.657096
0.631463
0.618538
0.612155
0.605496
0.591925
0.565619
0.521952
0.457739
0.37149
0.2638
0.137941
0
-0.167008
-0.320918
-0.444208
-0.521582
-0.533911
-0.460588
-0.332406
-0.19694
-0.101181
-0.0747114
-0.120606
-0.217102
-0.328034
-0.416747
-0.460684
-0.46508
-0.439729
-0.391303
-0.325552
-0.248445
-0.165578
-0.0815981
0
0.0748798
0.142724
0.201351
0.249269
0.286159
0.313103
0.333341
0.352726
0.379515
0.424221
0.512952
0.689437
0.925454
1.14401
1.25146
1.18027
0.924106
0.544816
0.14501
-0.179529
-0.379291
-0.512467
-0.614509
-0.69307
-0.754439
-0.802696
-0.840023
-0.867818
-0.887233
-0.901384
-0.914967
-0.932165
-0.95445
-0.97891
-0.997914
-1.00037
-0.974133
-0.908686
-0.802207
-0.656046
-0.470955
-0.25019
0
0.254634
0.527336
0.8135
1.11048
1.39858
1.82163
2.66234
3.83853
4.95271
5.46972
5.02034
3.60903
1.59004
-0.543177
-2.35847
-3.39914
-4.14499
-4.49793
-4.48537
-4.20817
-3.79081
-3.33835
-2.90984
-2.52125
-2.17841
-1.88083
-1.62593
-1.41606
-1.25626
-1.14555
-1.07632
-1.03517
-1.00554
-0.970507
-0.908931
-0.819781
-0.729138
-0.675249
-0.690674
-0.786996
-0.948176
-1.13419
-1.29268
-1.37472
-1.3716
-1.3026
-1.18618
-1.03652
-0.866264
-0.690241
-0.522362
-0.373094
-0.248014
-0.147429
-0.0671168
0
0.0622147
0.124968
0.191441
0.25653
0.30806
0.332278
0.320336
0.273369
0.204285
0.135722
0.120549
0.362131
0.904194
1.53682
1.98765
2.02778
1.56622
0.700152
-0.308195
-1.12381
-1.47161
-1.57214
-1.60021
-1.58608
-1.54063
-1.47506
-1.3992
-1.32348
-1.25636
-1.20312
-1.16534
-1.14087
-1.12474
-1.11072
-1.09308
-1.06785
-1.03398
-0.99067
-0.937077
-0.871721
-0.792609
-0.69815
-0.588541
-0.465135
-0.336062
-0.213601
-0.110678
-0.0374609
0.00106072
0.00562038
-0.0185924
-0.0640732
-0.122797
-0.186035
-0.246889
-0.297121
-0.32676
-0.325676
-0.284956
-0.19921
-0.0684909
0.101002
0.297817
0.507527
0.71562
0.91143
1.08966
1.24619
1.37935
1.48977
1.57987
1.65293
1.71264
1.76269
1.80636
1.84589
1.88171
1.9115
1.93043
1.93213
1.91067
1.86289
1.79007
1.69817
1.59648
1.49524
1.4032
1.32404
1.25902
1.2086
1.17237
1.14965
1.13978
1.14196
1.1546
1.17574
1.20013
1.21915
1.22361
1.20622
1.16371
1.09787
1.01472
0.922326
0.827975
0.735817
0.646013
0.557112
0.46694
0.373554
0.276483
0.177015
0.0779449
0
0.525135
1.63459
3.23068
5.10794
6.91941
8.20701
8.5255
7.64805
5.73611
3.31625
1.03103
-0.684247
-1.76342
-2.34054
-2.77767
-2.99081
-2.88114
-2.38802
-1.58517
-0.696602
-0.0138828
0.266229
0.3563
0.392522
0.406694
0.403868
0.387432
0.360584
0.32696
0.291141
0.258677
0.235455
0.226533
0.234849
0.262629
0.306505
0.35922
0.413295
0.464008
0.511409
0.560513
0.619469
0.69626
0.797796
0.926919
1.06613
1.19052
1.27787
1.31823
1.31855
1.30045
1.29224
1.31883
1.38938
1.49214
1.61762
1.75723
1.89644
2.018
2.10678
2.15206
2.14903
2.09938
2.01072
1.89488
1.76515
1.63328
1.50625
1.38517
1.26791
1.15062
1.02848
0.897058
0.753714
0.598754
0.435928
0.272127
0.116268
-0.022069
-0.130273
-0.194465
-0.216568
-0.214663
-0.211658
-0.226435
-0.266483
-0.325148
-0.384713
-0.424003
-0.427269
-0.396039
-0.342591
-0.276006
-0.206835
-0.144448
-0.094988
-0.060536
-0.0395229
-0.0280351
-0.0214738
-0.0159671
-0.00973403
-0.00295186
0.00188415
0
-0.0214194
-0.0577068
-0.107502
-0.163429
-0.212242
-0.237084
-0.221478
-0.153931
-0.0331419
0.133919
0.333175
0.542743
0.7402
0.907344
1.03315
1.11424
1.15315
1.15568
1.12851
1.08011
1.01698
0.946427
0.877455
0.820447
0.78576
0.790688
0.851637
0.964885
1.09688
1.20368
1.24465
1.19391
1.04745
0.824995
0.566094
0.320289
0.133074
0.0177119
-0.0360373
-0.0290556
0.0105161
0.0482234
0.0545234
0.0146512
-0.0663046
-0.165265
-0.249858
-0.291131
-0.276416
-0.222934
-0.148345
-0.0727489
-0.0154486
0.0102333
0
-0.0416778
-0.102021
-0.16643
-0.0830162
0.548983
1.66691
3.19097
4.82055
6.08298
6.52254
5.91468
4.38244
2.3469
0.347545
-1.17419
-1.99403
-2.07802
-2.09135
-2.07209
-2.01088
-1.90167
-1.7434
-1.5414
-1.3016
-1.04668
-0.810451
-0.623198
-0.501499
-0.441827
-0.421078
-0.404483
-0.358059
-0.2606
-0.119244
0.0461348
0.221172
0.393591
0.55161
0.68712
0.796572
0.880851
0.944174
0.992375
1.03028
1.06068
1.08475
1.10112
1.10875
1.10991
1.1115
1.12377
1.15686
1.21678
1.3012
1.40046
1.5077
1.6162
1.72118
1.82073
1.91564
2.0081
2.10011
2.19199
2.28112
2.36251
2.43029
2.47935
2.50611
2.50809
2.48276
2.42644
2.33448
2.20228
2.02809
1.81561
1.57553
1.32497
1.08478
0.875323
0.71066
0.598376
0.537504
0.51949
0.53074
0.555846
0.580527
0.594638
0.590911
0.564788
0.513858
0.437361
0.336728
0.214856
0.0735237
-0.0812076
-0.234633
-0.367378
-0.460936
-0.502201
-0.48673
-0.419436
-0.312477
-0.181369
-0.0411601
0.0959209
0.222683
0.327863
0.399613
0.425779
0.394977
0.300345
0.142862
-0.081461
-0.339418
-0.580981
-0.755846
-0.824711
-0.765863
-0.576399
-0.269735
0.14138
0.655898
1.19373
1.65947
1.97379
2.09299
2.0186
1.79323
1.48693
1.1812
0.952983
0.823575
0.767549
0.758395
0.781911
0.827592
0.880235
0.924474
0.948229
0.945042
0.915256
0.86571
0.807921
0.755142
0.718964
0.704842
0.710767
0.734708
0.768108
0.797143
0.807876
0.789729
0.738109
0.655421
0.550173
0.434487
0.320962
0.219806
0.135284
0.0683628
0.0225538
0
0.0047657
0.0372094
0.100893
0.224347
0.561997
1.34426
2.33259
3.52206
4.86475
6.14435
6.98543
7.00385
6.02458
4.22737
2.1049
0.238887
-0.962714
-1.31728
-1.40834
-1.48807
-1.56012
-1.60576
-1.5821
-1.44037
-1.15515
-0.748899
-0.294875
0.108088
0.379906
0.536943
0.632643
0.698353
0.773357
0.938213
1.18576
1.42856
1.54852
1.46578
1.18855
0.816607
0.49624
0.351231
0.407735
0.548238
0.726811
0.925437
1.12711
1.31859
1.48942
1.63123
1.73885
1.81043
1.84686
1.852
1.83304
1.80048
1.76741
1.74809
1.75572
1.79956
1.88402
2.00721
2.16107
2.33264
2.50632
2.66671
2.80051
2.89787
2.95294
2.96355
2.93041
2.85627
2.74546
2.60488
2.4422
2.2656
2.08413
1.90732
1.74423
1.6035
1.49233
1.41096
1.35027
1.29627
1.23351
1.14874
1.03401
0.888392
0.718293
0.53634
0.359232
0.2027
0.0786514
0
-0.0103107
0.0944913
0.33358
0.676779
1.05154
1.37365
1.59416
1.68085
1.59834
1.32048
0.869257
0.342741
-0.106158
-0.343882
-0.393561
-0.36889
-0.316593
-0.251961
-0.185344
-0.120696
-0.0562335
0.0132328
0.0933135
0.186971
0.292387
0.406097
0.523674
0.638995
0.743719
0.829923
0.890927
0.922273
0.922496
0.893458
0.840089
0.769495
0.689681
0.608258
0.530883
0.460962
0.400777
0.351735
0.314316
0.288085
0.271702
0.26306
0.25802
0.249826
0.230981
0.194929
0.137901
0.0603692
-0.0324419
-0.131269
-0.224603
-0.301072
-0.353893
-0.378283
-0.373447
-0.342351
-0.290884
-0.226729
-0.158272
-0.0936205
-0.0406291
-0.00528259
0.00863285
0
-0.0480413
-0.112144
-0.185452
-0.260183
-0.309749
0.0326607
0.796038
1.90334
3.31297
4.81445
5.96603
6.21673
5.19889
3.02121
0.329726
-1.97565
-3.22434
-3.25987
-3.11247
-2.97751
-2.86258
-2.74884
-2.60387
-2.41807
-2.19541
-1.9613
-1.75144
-1.59496
-1.49359
-1.42371
-1.37693
-1.34387
-1.31653
-1.28914
-1.25797
-1.2199
-1.17191
-1.11143
-1.03437
-0.939782
-0.841196
-0.759197
-0.714468
-0.719337
-0.771795
-0.854891
-0.941919
-1.00533
-1.02589
-1.00874
-0.964989
-0.902166
-0.833017
-0.769307
-0.718543
-0.682032
-0.654844
-0.627718
-0.590305
-0.534719
-0.459092
-0.367869
-0.267391
-0.16851
-0.0821663
-0.0161915
0.0266342
0.0487778
0.056292
0.055769
0.0502678
0.0359791
0
-0.0634392
-0.190261
-0.397228
-0.690747
-1.0638
-1.49563
-1.9539
-2.39675
-2.77561
-3.04897
-3.19204
-3.2038
-3.10817
-2.94798
-2.77274
-2.62443
-2.52339
-2.47231
-2.45809
-2.46037
-2.46125
-2.45372
-2.44093
-2.43171
-2.43781
-2.46941
-2.53129
-2.62065
-2.72757
-2.8377
-2.93631
-3.01288
-3.06698
-3.10062
-3.11789
-3.12535
-3.1308
-3.14108
-3.16047
-3.18963
-3.22517
-3.25983
-3.28338
-3.28417
-3.25103
-3.17554
-3.05351
-2.88631
-2.68118
-2.44953
-2.20743
-1.9718
-1.7574
-1.57456
-1.42795
-1.3168
-1.23609
-1.1785
-1.13641
-1.10271
-1.07326
-1.0464
-1.02248
-1.00353
-0.992758
-0.993918
-1.01037
-1.04398
-1.09426
-1.15774
-1.22794
-1.29613
-1.35263
-1.38314
-1.37095
-1.32337
-1.25982
-1.20357
-1.17145
-1.16636
-1.17619
-1.17954
-1.15493
-1.09006
-0.995173
-0.880873
-0.754244
-0.622735
-0.493645
-0.37278
-0.263516
-0.166545
-0.0800136
0
0.0787765
0.16213
0.256375
0.381466
0.705943
1.48352
2.59291
4.0521
5.72442
7.22021
7.99465
7.63559
6.14898
4.00841
1.88856
0.265078
-0.799024
-1.43807
-1.94211
-2.17468
-2.00801
-1.41134
-0.52281
0.393686
1.08898
1.47009
1.72721
1.91902
2.04563
2.11072
2.12721
2.12128
2.13088
2.19665
2.34814
2.61469
2.9615
3.31464
3.59553
3.75244
3.77876
3.71127
3.61165
3.5411
3.53872
3.58728
3.66487
3.76105
3.86833
3.9811
4.09684
4.21643
4.34346
4.48298
4.63999
4.81753
5.01615
5.23569
5.47622
5.73819
6.01935
6.30411
6.56252
6.76048
6.86824
6.87026
6.77159
6.59692
6.38216
6.16246
5.96199
5.7835
5.62198
5.47445
5.33999
5.21817
5.10893
5.01218
4.92801
4.85694
4.7999
4.75811
4.73259
4.72606
4.74035
4.76968
4.803
4.82792
4.83451
4.81864
4.78317
4.73632
4.6879
4.64477
4.60698
4.57022
4.52706
4.47057
4.39807
4.31324
4.22577
4.1484
4.09259
4.06458
4.06041
4.07448
4.09864
4.12506
4.1488
4.16866
4.18668
4.20694
4.23374
4.2696
4.31483
4.36807
4.42695
4.48841
4.54926
4.60669
4.65828
4.70291
4.7409
4.77403
4.80545
4.83919
4.87916
4.92804
4.98628
5.05167
5.11994
5.18608
5.24604
5.29799
5.34281
5.38328
5.42251
5.46208
5.49547
5.50807
5.48263
5.40675
5.27878
5.1093
4.91772
4.7258
4.5512
4.3975
4.26059
4.13688
4.02292
3.91415
3.80473
3.68915
3.56385
3.42853
3.2868
3.14594
3.01548
2.9058
2.83813
2.81748
2.81892
2.8063
2.74856
2.63463
2.4799
2.3213
2.20422
2.16717
2.20858
2.30601
2.45126
2.65639
2.95737
3.42712
4.04183
4.77376
5.59359
6.3607
6.80641
6.6365
5.69824
4.10304
57
117
180
228
279
340
399
432
507
571
661
745
859
914
1040
1081
1130
1231
1249
1379
1419
1587
1755
1868
1923
1984
2088
2089
2252
2384
2419
2506
2549
2585
2687
2717
2754
2816
2921
3033
3084
3248
3339
3410
3487
3576
3208
3249
3298
3415
3467
3538
3575
3635
3526
3597
3691
0
0
0
0
0
0
0
0
0
0
0
0
0
0
0
0
0
0
0
0
0
0
0
0
0
0
0
0
0
0
0
0
0
0
0
0
0
0
0
0
0
0
0
0
0
0
0
0
0
0
0
0
0
0
0
0
0
0
0
0
0
0
0
0
0
0
0
0
0
0
0
0
0
0
0
0
0
0
0
0
0
0
0
0
0
0
0
0
0
0
0
0
0
0
0
0
0
0
0
0
0
0
0
0
0
0
0
0
0
0
0
0
0
0
0
0
0
0
0
0
0
0
0
0
0
0
0
0
0
0
0
0
0
0
0
0
0
0
0
0
0
0
0
0
0
0
0
0
0
0
0
0
0
0
0
0
0
0
0
0
0
0
0
0
0
0
0
0
0
0
0
0
0
0
0
0
0
0
0
0
0
0
0
0
0
0
0
0
0
0
0
0
0
0
0
0
0
0
0
0
0
0
0
0
0
0
0
0
0
0
0
0
0
0
0
0
0
0
0
0
0
0
0
0
0
0
0
0
0
0
0
0
0
0
0
0
0
0
0
0
0
0
0
0
0
0
0
0
0
0
0
0
0
0
0
0
0
0
0
0
0
0
0
0
0
0
0
0
0
0
0
0
0
0
0
0
0
0
0
0
0
0
0
0
0
0
0
0
0
0
0
0
0
0
0
0
0
0
0
0
0
0
0
0
0
0
0
0
0
0
0
0
0
0
0
0
0
0
0
0
0
0
0
0
0
0
0
0
0
0
0
0
0
0
0
0
0
0
0
0
0
0
0
0
0
0
0
0
0
0
0
0
0
0
0
0
0
0
0
0
0
0
0
0
0
0
0
0
0
0
0
0
0
0
0
0
0
0
0
0
0
0
0
0
0
0
0
0
0
0
0
0
0
0
0
0
0
0
0
0
0
0
0
0
0
0
0
0
0
0
0
0
0
0
0
0
0
0
0
0
0
0
0
0
0
0
0
0
0
0
0
0
0
0
0
0
0
0
0
0
0
0
0
0
0
0
0
0
0
0
0
0
0
0
0
0
0
0
0
0
0
0
0
0
0
0
0
0
0
0
0
0
0
0
0
0
0
0
0
0
0
0
0
0
0
0
0
0
0
0
0
0
0
0
0
0
0
0
0
0
0
0
0
0
0
0
0
0
0
0
0
0
0
0
0
0
0
0
0
0
0
0
0
0
0
0
0
0
0
0
0
0
0
0
0
0
0
0
0
0
0
0
0
0
0
0
0
0
0
0
0
0
0
0
0
0
0
0
0
0
0
0
0
0
0
0
0
0
0
0
0
0
0
0
0
0
0
0
0
0
0
0
0
0
0
0
0
0
0
0
0
0
0
0
0
0
0
0
0
0
0
0
0
0
0
0
0
0
0
0
0
0
0
0
0
0
0
0
0
0
0
0
0
0
0
0
0
0
0
0
0
0
0
0
0
0
0
0
0
0
0
0
0
0
0
0
0
0
0
0
0
0
0
0
0
0
0
0
0
0
0
0
0
0
0
0
0
0
0
0
0
0
0
0
0
0
0
0
0
0
0
0
0
0
0
0
0
0
0
0
0
0
0
0
0
0
0
0
0
0
0
0
0
0
0
0
0
0
0
0
0
0
0
0
0
0
0
0
0
0
0
0
0
0
0
0
0
0
0
0
0
0
0
0
0
0
0
0
0
0
0
0
0
0
0
0
0
0
0
0
0
0
0
0
0
0
0
0
0
0
0
0
0
0
0
0
0
0
0
0
0
0
0
0
0
0
0
0
0
0
0
0
0
0
0
0
0
0
0
0
0
0
0
0
0
0
0
0
0
0
0
0
0
0
0
0
0
0
0
0
0
0
0
0
0
0
0
0
0
0
0
0
0
0
0
0
0
0
0
0
0
0
0
0
0
0
0
0
0
0
0
0
0
0
0
0
0
0
0
0
0
0
0
0
0
0
0
0
0
0
0
0
0
0
0
0
0
0
0
0
0
0
0
0
0
0
0
0
0
0
0
0
0
0
0
0
0
0
0
0
0
0
0
0
0
0
0
0
0
0
0
0
0
0
0
0
0
0
0
0
0
0
0
0
0
0
0
0
0
0
0
0
0
0
0
0
0
0
0
0
0
0
0
0
0
0
0
0
0
0
0
0
0
0
0
0
0
0
0
0
0
0
0
0
0
0
0
0
0
0
0
0
0
0
0
0
0
0
0
0
0
0
0
0
0
0
0
0
0
0
0
0
0
0
0
0
0
0
0
0
0
0
0
0
0
0
0
0
0
0
0
0
0
0
0
0
0
0
0
0
0
0
0
0
0
0
0
0
0
0
0
0
0
0
0
0
0
0
0
0
0
0
0
0
0
0
0
0
0
0
0
0
0
0
0
0
0
0
0
0
0
0
0
0
0
0
0
0
0
0
0
0
0
0
0
0
0
0
0
0
0
0
0
0
0
0
0
0
0
0
0
0
0
0
0
0
0
0
0
0
0
0
0
0
0
0
0
0
0
0
0
0
0
0
0
0
0
0
0
0
0
0
0
0
0
0
0
0
0
0
0
0
0
0
0
0
0
0
0
0
0
0
0
0
0
0
0
0
0
0
0
0
0
0
0
0
0
0
0
0
0
0
0
0
0
0
0
0
0
0
0
0
0
0
0
0
0
0
0
0
0
0
0
0
0
0
0
0
0
0
0
0
0
0
0
0
0
0
0
0
0
0
0
0
0
0
0
0
0
0
0
0
0
0
0
0
0
0
0
0
0
0
0
0
0
0
0
0
0
0
0
0
0
0
0
0
0
0
0
0
0
0
0
0
0
0
0
0
0
0
0
0
0
0
0
0
0
0
0
0
0
0
0
0
0
0
0
0
0
0
0
0
0
0
0
0
0
0
0
0
0
0
0
0
0
0
0
0
0
0
0
0
0
0
0
0
0
0
0
0
0
0
0
0
0
0
0
0
0
0
0
0
0
0
0
0
0
0
0
0
0
0
0
0
0
0
0
0
0
0
0
0
0
0
0
0
0
0
0
0
0
0
0
0
0
0
0
0
0
0
0
0
0
0
0
0
0
0
0
0
0
0
0
0
0
0
0
0
0
0
0
0
0
0
0
0
0
0
0
0
0
0
0
0
0
0
0
0
0
0
0
0
0
0
0
0
0
0
0
0
0
0
0
0
0
0
0
0
0
0
0
0
0
0
0
0
0
0
0
0
0
0
0
0
0
0
0
0
0
0
0
0
0
0
0
0
0
0
0
0
0
0
0
0
0
0
0
0
0
0
0
0
0
0
0
0
0
0
0
0
0
0
0
0
0
0
0
0
0
0
0
0
0
0
0
0
0
0
0
0
0
0
0
0
0
0
0
0
0
0
0
0
0
0
0
0
0
0
0
0
0
0
0
0
0
0
0
0
0
0
0
0
0
0
0
0
0
0
0
0
0
0
0
0
0
0
0
0
0
0
0
0
0
0
0
0
0
0
0
0
0
0
0
0
0
0
0
0
0
0
0
0
0
0
0
0
0
0
0
0
0
0
0
0
0
0
0
0
0
0
0
0
0
0
0
0
0
0
0
0
0
0
0
0
0
0
0
0
0
0
0
0
0
0
0
0
0
0
0
0
0
0
0
0
0
0
0
0
0
0
0
0
0
0
0
0
0
0
0
0
0
0
0
0
0
0
0
0
0
0
0
0
0
0
0
0
0
0
0
0
0
0
0
0
0
0
0
0
0
0
0
0
0
0
0
0
0
0
0
0
0
0
0
0
0
0
0
0
0
0
0
0
0
0
0
0
0
0
0
0
0
0
0
0
0
0
0
0
0
0
0
0
0
0
0
0
0
0
0
0
0
0
0
0
0
0
0
0
0
0
0
0
0
0
0
0
0
0
0
0
0
0
0
0
0
0
0
0
0
0
0
0
0
0
0
0
0
0
0
0
0
0
0
0
0
0
0
0
0
0
0
0
0
0
0
0
0
0
0
0
0
0
0
0
0
0
0
0
0
0
0
0
0
0
0
0
0
0
0
0
0
0
0
0
0
0
0
0
0
0
0
0
0
0
0
0
0
0
0
0
0
0
0
0
0
0
0
0
0
0
0
0
0
0
0
0
0
0
0
0
0
0
0
0
0
0
0
0
0
0
0
0
0
0
0
0
0
0
0
0
0
0
0
0
0
0
0
0
0
0
0
0
0
0
0
0
0
0
0
0
0
0
0
0
0
0
0
0
0
0
0
0
0
0
0
0
0
0
0
0
0
0
0
0
0
0
0
0
0
0
0
0
0
0
0
0
0
0
0
0
0
0
0
0
0
0
0
0
0
0
0
0
0
0
0
0
0
0
0
0
0
0
0
0
0
0
0
0
0
0
0
0
0
0
0
0
0
0
0
0
0
0
0
0
0
0
0
0
0
0
0
0
0
0
0
0
0
0
0
0
0
0
0
0
0
0
0
0
0
0
0
0
0
0
0
0
0
0
0
0
0
0
0
0
0
0
0
0
0
0
0
0
0
0
0
0
0
0
0
0
0
0
0
0
0
0
0
0
0
0
0
0
0
0
0
0
0
0
0
0
0
0
0
0
0
0
0
0
0
0
0
0
0
0
0
0
0
0
0
0
0
0
0
0
0
0
0
0
0
0
0
0
0
0
0
0
0
0
0
0
0
0
0
0
0
0
0
0
0
0
0
0
0
0
0
0
0
0
0
0
0
0
0
0
0
0
0
0
0
0
0
0
0
0
0
0
0
0
0
0
0
0
0
0
0
0
0
0
0
0
0
0
0
0
0
0
0
0
0
0
0
0
0
0
0
0
0
0
0
0
0
0
0
0
0
0
0
0
0
0
0
0
0
0
0
0
0
0
0
0
0
0
0
0
0
0
0
0
0
0
0
0
0
0
0
0
0
0
0
0
0
0
0
0
0
0
0
0
0
0
0
0
0
0
0
0
0
0
0
0
0
0
0
0
0
0
0
0
0
0
0
0
0
0
0
0
0
0
0
0
0
0
0
0
0
0
0
0
0
0
0
0
0
0
0
0
0
0
0
0
0
0
0
0
0
0
0
0
0
0
0
0
0
0
0
0
0
0
0
0
0
0
0
0
0
0
0
0
0
0
0
0
0
0
0
0
0
0
0
0
0
0
0
0
0
0
0
0
0
0
0
0
0
0
0
0
0
0
0
0
0
0
0
0
0
0
0
0
0
0
0
0
0
0
0
0
0
0
0
0
0
0
0
0
0
0
0
0
0
0
0
0
0
0
0
0
0
0
0
0
0
0
0
0
0
0
0
0
0
0
0
0
0
0
0
0
0
0
0
0
0
0
0
0
0
0
0
0
0
0
0
0
0
0
0
0
0
0
0
0
0
0
0
0
0
0
0
0
0
0
0
0
0
0
0
0
0
0
0
0
0
0
0
0
0
0
0
0
0
0
0
0
0
0
0
0
0
0
0
0
0
0
0
0
0
0
0
0
0
0
0
0
0
0
0
0
0
0
0
0
0
0
0
0
0
0
0
0
0
0
0
0
0
0
0
0
0
0
0
0
0
0
0
0
0
0
0
0
0
0
0
0
0
0
0
0
0
0
0
0
0
0
0
0
0
0
0
0
0
0
0
0
0
0
0
0
0
0
0
0
0
0
0
0
0
0
0
0
0
0
0
0
0
0
0
0
0
0
0
0
0
0
0
0
0
0
0
0
0
0
0
0
0
0
0
0
0
0
0
0
0
0
0
0
0
0
0
0
0
0
0
0
0
0
0
0
0
0
0
0
0
0
0
0
0
0
0
0
0
0
0
0
0
0
0
0
0
0
0
0
0
0
0
0
0
0
0
0
0
0
0
0
0
0
0
0
0
0
0
0
0
0
0
0
0
0
0
0
0
0
0
0
0
0
0
0
0
0
0
0
0
0
0
0
0
0
0
0
0
0
0
0
0
0
0
0
0
0
0
0
0
0
0
0
0
0
0
0
0
0
0
0
0
0
0
0
0
0
0
0
0
0
0
0
0
0
0
0
0
0
0
0
0
0
0
0
0
0
0
0
0
0
0
0
0
0
0
0
0
0
0
0
0
0
0
0
0
0
0
0
0
0
0
0
0
0
0
0
0
0
0
0
0
0
0
0
0
0
0
0
0
0
0
0
0
0
0
0
0
0
0
0
0
0
0
0
0
0
0
0
0
0
0
0
0
0
0
0
0
0
0
0
0
0
0
0
0
0
0
0
0
0
0
0
0
0
0
0
0
0
0
0
0
0
0
0
0
0
0
0
0
0
0
0
0
0
0
0
0
0
0
0
0
0
0
0
0
0
0
0
0
0
0
0
0
0
0
0
0
0
0
0
0
0
0
0
0
0
0
0
0
0
0
0
0
0
0
0
0
0
0
0
0
0
0
0
0
0
0
0
0
0
0
0
0
0
0
0
0
0
0
0
0
0
0
0
0
0
0
0
0
0
0
0
0
0
0
0
0
0
0
0
0
0
0
0
0
0
0
0
0
0
0
0
0
0
0
0
0
0
0
0
0
0
0
0
0
0
0
0
0
0
0
0
0
0
0
0
0
0
0
0
0
0
0
0
0
0
0
0
0
0
0
0
0
0
0
0
0
0
0
0
0
0
0
0
0
0
0
0
0
0
0
0
0
0
0
0
0
0
0
0
0
0
0
0
0
0
0
0
0
0
0
0
0
0
0
0
0
0
0
0
0
0
0
0
0
0
0
0
0
0
0
0
0
0
0
0
0
0
0
0
0
0
0
0
0
0
0
0
0
0
0
0
0
0
0
0
0
0
0
0
0
0
0
0
0
0
0
0
0
0
0
0
0
0
0
0
0
0
0
0
0
0
0
0
0
0
0
0
0
0
0
0
0
0
0
0
0
0
0
0
0
0
0
0
0
0
0
0
0
0
0
0
0
0
0
0
0
0
0
0
0
0
0
0
0
0
0
0
0
0
0
0
0
0
0
0
0
0
0
0
0
0
0
0
0
0
0
0
0
0
0
0
0
0
0
0
0
0
0
0
0
0
0
0
0
0
0
0
0
0
0
0
0
0
0
0
0
0
0
0
0
0
0
0
0
0
0
0
0
0
0
0
0
0
0
0
0
0
0
0
0
0
0
0
0
0
0
0
0
0
0
0
0
0
0
0
0
0
0
0
0
0
0
0
0
0
0
0
0
0
0
0
0
0
0
0
0
0
0
0
0
0
0
0
0
0
0
0
0
0
0
0
0
0
0
0
0
0
0
0
0
0
0
0
0
0
0
0
0
0
0
0
0
0
0
0
0
0
0
0
0
0
0
0
0
0
0
0
0
0
0
0
0
0
0
0
0
0
0
0
0
0
0
0
0
0
0
0
0
0
0
0
0
0
0
0
0
0
0
0
0
0
0
0
0
0
0
0
0
0
0
0
0
0
0
0
0
0
0
0
0
0
0
0
0
0
0
0
0
0
0
0
0
0
0
0
0
0
0
0
0
0
0
0
0
0
0
0
0
0
0
0
0
0
0
0
0
0
0
0
0
0
0
0
0
0
0
0
0
0
0
0
0
0
0
0
0
0
0
0
0
0
0
0
0
0
0
0
0
0
0
0
0
0
0
0
0
0
0
0
0
0
0
0
0
0
0
0
0
0
0
0
0
0
0
0
0
0
0
0
0
0
0
0
0
0
0
0
0
0
0
0
0
0
0
0
0
0
0
0
0
0
0
0
0
0
0
0
0
0
0
0
0
0
0
0
0
0
0
0
0
0
0
0
0
0
0
0
0
0
0
0
0
0
0
0
0
0
0
0
0
0
0
0
0
0
0
0
0
0
0
0
0
0
0
0
0
0
0
0
0
0
0
0
0
0
0
0
0
0
0
0
0
0
0
0
0
0
0
0
0
0
0
0
0
0
0
0
0
0
0
0
0
0
0
0
0
0
0
0
0
0
0
0
0
0
0
0
0
0
0
0
0
0
0
0
0
0
0
0
0
0
0
0
0
0
0
0
0
0
0
0
0
0
0
0
0
0
0
0
0
0
0
0
0
0
0
0
0
0
0
0
0
0
0
0
0
0
0
0
0
0
0
0
0
0
0
0
0
0
0
0
0
0
0
0
0
0
0
0
0
0
0
0
0
0
0
0
0
0
0
0
0
0
0
0
0
0
0
0
0
0
0
0
0
0
0
0
0
0
0
0
0
0
0
0
0
0
0
0
0
0
0
0
0
0
0
0
0
0
0
0
0
0
0
0
0
0
0
0
0
0
0
0
0
0
0
0
0
0
0
0
0
0
0
0
0
0
0
0
0
0
0
0
0
0
0
0
0
0
0
0
0
0
0
0
0
0
0
0
0
0
0
0
0
0
0
0
0
0
0
0
0
0
0
0
0
0
0
0
0
0
0
0
