14.9963
12.5141
9.31857
6.21495
3.89172
2.55455
1.92415
1.58713
1.45245
1.32472
1.20529
1.09734
1.00313
0.923867
0.860107
0.811509
0.777201
0.756231
0.747852
0.751633
0.76737
0.794817
0.833382
0.882679
0.94118
1.00694
1.07855
1.1558
1.23992
1.33338
1.43905
1.55924
1.69472
1.84342
2.00233
2.16826
2.33814
2.5097
2.68186
2.85485
3.02983
3.20839
3.39195
3.58135
3.77665
3.97718
4.18182
4.38925
4.59824
4.8076
5.01552
5.21836
5.40881
5.57626
5.70887
5.79405
5.81896
5.77004
5.6336
5.39972
5.06904
4.65841
4.20051
3.73329
3.28298
2.85316
2.44326
2.0576
1.69972
1.37263
1.07879
0.820193
0.59829
0.412873
0.262608
0.145893
0.0598587
0.000930023
-0.0347504
-0.0512886
-0.0525063
-0.0425385
-0.0267197
-0.0101585
0.00280914
0.00917358
0.00762939
-0.00132446
-0.0155945
-0.0319344
-0.0465462
-0.0560097
-0.057795
-0.0502289
-0.0327141
-0.00596466
0.0284592
0.0679344
0.108575
0.14641
0.178093
0.201427
0.215602
0.221082
0.219193
0.211559
0.199588
0.184344
0.166203
0.145199
0.121326
0.094799
0.0662025
0.036512
0.00698318
-0.0210709
-0.0465286
-0.0685249
-0.0866508
-0.101071
-0.1125
-0.122189
-0.131978
-0.143736
-0.158763
-0.177342
-0.198546
-0.220427
-0.240587
-0.256878
-0.267457
-0.273261
-0.276987
-0.281954
-0.290672
-0.303748
-0.319613
-0.335191
-0.347203
-0.353592
-0.35452
-0.351664
-0.348219
-0.347131
-0.349593
-0.354111
-0.356513
-0.350916
-0.331244
-0.292709
-0.235915
-0.162682
-0.0736397
0.029895
0.146048
0.273166
0.409666
0.55416
0.705486
0.862774
1.0245
1.18528
1.3342
1.45719
1.53863
1.56428
1.52477
1.41858
1.25431
1.05148
0.838351
0.644569
0.48714
0.365562
0.271261
0.202506
0.15642
0.126462
0.104127
0.0806358
0.0480278
0
-0.0654602
-0.153432
-0.273241
-0.439529
-0.645239
-0.86786
-1.0911
-1.31
-0.804121
0.790788
3.5987
7.17453
10.7133
13.4959
15.1534
15.5823
14.758
12.7463
9.88004
6.7992
4.19439
2.45737
1.55907
1.21667
1.12432
1.03124
0.937818
0.845101
0.755666
0.674311
0.606316
0.55668
0.528801
0.523512
0.53885
0.570712
0.614214
0.665255
0.721685
0.782874
0.849727
0.924046
1.00734
1.10003
1.2014
1.30965
1.42222
1.53635
1.64975
1.76122
1.87101
1.98083
2.09361
2.21293
2.34241
2.48511
2.64311
2.81716
3.00699
3.21141
3.42847
3.65565
3.88992
4.12797
4.3656
4.59607
4.80853
4.99125
5.13467
5.23122
5.27591
5.26603
5.2001
5.07665
4.89352
4.64855
4.34883
4.00681
3.63283
3.23631
2.82764
2.41696
2.01414
1.62876
1.26933
0.942538
0.65276
0.401803
0.188904
0.0110092
-0.136605
-0.259533
-0.36339
-0.453043
-0.532052
-0.602287
-0.664294
-0.717524
-0.76088
-0.793274
-0.814043
-0.823175
-0.821308
-0.809612
-0.789629
-0.763197
-0.732115
-0.698403
-0.664558
-0.633052
-0.606041
-0.585044
-0.570679
-0.562582
-0.55956
-0.559924
-0.561903
-0.563986
-0.565143
-0.564648
-0.561871
-0.556042
-0.546095
-0.530672
-0.508372
-0.478156
-0.439055
-0.391392
-0.338313
-0.284496
-0.235449
-0.196635
-0.172682
-0.166753
-0.180123
-0.211929
-0.259079
-0.316409
-0.377192
-0.434047
-0.480138
-0.511205
-0.525706
-0.523886
-0.50835
-0.483487
-0.454633
-0.427153
-0.405467
-0.392902
-0.391057
-0.399678
-0.416685
-0.438968
-0.461163
-0.477582
-0.48334
-0.475295
-0.452528
-0.416168
-0.368625
-0.312512
-0.249696
-0.181546
-0.107765
-0.0272888
0.0610672
0.158128
0.2641
0.378513
0.500393
0.628352
0.760574
0.894632
1.0259
1.14522
1.24158
1.3027
1.31798
1.28184
1.19561
1.0668
0.90667
0.72799
0.545035
0.367971
0.20247
0.0539803
-0.0714317
-0.164486
-0.212354
-0.210602
-0.170124
-0.108022
-0.0442574
0
0.0145447
-0.0211266
-0.115376
-0.270697
-0.482878
-0.741533
-1.03223
-1.33901
-0.908413
0.575236
3.30675
6.99445
10.8692
14.0014
15.6827
15.6253
13.9637
11.1827
8.01261
5.21452
3.27424
2.21032
1.68889
1.38861
1.27481
1.16861
1.073
0.990115
0.921
0.865734
0.823786
0.794552
0.777106
0.770631
0.774686
0.789181
0.814259
0.850164
0.897096
0.955086
1.02388
1.10255
1.18983
1.28428
1.38428
1.48829
1.59523
1.70489
1.81818
1.93723
2.06513
2.20546
2.36171
2.53662
2.73162
2.94659
3.17978
3.428
3.68692
3.95162
4.21721
4.47935
4.73481
4.98146
5.21729
5.4391
5.64269
5.82405
5.97449
6.07877
6.12191
6.09561
5.99981
5.83838
5.61278
5.32
4.97079
4.58761
4.18504
3.77286
3.36064
2.95835
2.57565
2.22087
1.90024
1.61744
1.37359
1.16749
0.996201
0.855552
0.740794
0.647108
0.570056
0.505921
0.451923
0.406329
0.368361
0.337974
0.31559
0.301758
0.296836
0.300744
0.312835
0.331987
0.356511
0.38434
0.413284
0.441356
0.467163
0.490189
0.510917
0.530787
0.551931
0.576744
0.607348
0.645053
0.690295
0.742796
0.798878
0.851341
0.892543
0.916567
0.921036
0.907825
0.882308
0.851297
0.820593
0.793034
0.768034
0.744339
0.720381
0.695087
0.668197
0.640051
0.611052
0.581219
0.550186
0.517444
0.482877
0.447144
0.41176
0.378812
0.35046
0.328057
0.312128
0.303154
0.30112
0.305744
0.316632
0.333386
0.355675
0.383306
0.416302
0.454992
0.499987
0.552226
0.612941
0.683335
0.764242
0.856118
0.959499
1.07388
1.19327
1.30574
1.39822
1.4592
1.48104
1.46104
1.40121
1.30701
1.18601
1.04736
0.901946
0.7576
0.61992
0.493299
0.381416
0.28728
0.211853
0.153886
0.110492
0.0776981
0.051104
0.0264553
0
-0.023584
-0.0548599
-0.0973137
-0.166858
-0.313657
-0.545716
-0.849769
-1.19297
-0.947537
0.332167
2.80596
6.27158
10.1539
13.6092
15.7779
16.1226
14.6637
11.9495
8.78493
5.90418
3.75911
2.46177
1.83579
1.5486
1.35769
1.17906
1.01379
0.867081
0.743505
0.646706
0.577427
0.534733
0.516236
0.518423
0.537099
0.567942
0.607066
0.651548
0.699741
0.751384
0.807398
0.869526
0.93989
1.02036
1.11224
1.21662
1.33434
1.46586
1.61135
1.77079
1.94408
2.13107
2.33151
2.54485
2.77008
3.0055
3.24874
3.49689
3.74691
3.99616
4.24282
4.48612
4.72619
4.96347
5.19746
5.4249
5.63785
5.82421
5.97141
6.07016
6.11614
6.10863
6.0476
5.93105
5.75447
5.52421
5.24658
4.9252
4.56551
4.17809
3.77513
3.36689
2.96307
2.57312
2.20558
1.86747
1.56401
1.29833
1.07147
0.882506
0.729715
0.60994
0.517048
0.444385
0.385667
0.335863
0.292143
0.254514
0.225428
0.209307
0.211149
0.234807
0.281631
0.349808
0.434535
0.528894
0.625122
0.716367
0.798322
0.867098
0.920632
0.958394
0.981221
0.99111
0.991004
0.984561
0.975871
0.9691
0.968054
0.975238
0.992248
1.01937
1.05626
1.10055
1.14757
1.19248
1.2314
1.26215
1.28458
1.30016
1.31128
1.32047
1.3298
1.34043
1.35286
1.36695
1.38188
1.39621
1.40784
1.41473
1.41558
1.41049
1.40119
1.39068
1.38229
1.37865
1.38086
1.38793
1.39861
1.41138
1.42514
1.43951
1.45491
1.47228
1.49271
1.51711
1.54646
1.58162
1.6233
1.67221
1.72913
1.79506
1.87123
1.95929
2.06115
2.18195
2.34028
2.57424
2.87694
3.17889
3.40417
3.49853
3.45081
3.29709
3.09889
2.90592
2.73219
2.56506
2.40079
2.24038
2.08641
1.94246
1.81223
1.69881
1.605
1.5323
1.48024
1.44624
1.42515
1.40894
1.38865
1.35542
1.30145
1.20443
1.00625
0.720405
0.374663
0
0.171363
1.37373
3.88844
7.5649
11.7939
15.6814
18.3118
19.021
17.6382
14.6074
10.8567
7.40298
4.90781
3.48035
2.82836
2.57248
2.4394
2.31072
2.18535
2.06534
1.95292
1.85074
1.76228
1.69152
1.64138
1.61455
1.61304
1.63769
1.68765
1.76017
1.85079
1.95391
2.06387
2.17576
2.28674
2.39581
2.50323
2.61024
2.71854
2.8299
2.94581
3.06743
3.1957
3.33147
3.47571
3.62951
3.79407
3.97054
4.15969
4.36172
4.57591
4.8005
5.03247
5.26767
5.50092
5.72641
5.93802
6.13
6.29709
6.4346
6.53877
6.60648
6.6337
6.61499
6.5462
6.42326
6.24321
6.00548
5.71307
5.37308
4.99642
4.59669
4.18878
3.78549
3.39698
3.03093
2.69229
2.38367
2.10602
1.8593
1.64308
1.45698
1.3003
1.17201
1.07047
0.993342
0.937254
0.898302
0.872372
0.855021
0.842038
0.830256
0.817838
0.804333
0.790516
0.778021
0.768854
0.764878
0.767175
0.775823
0.790223
0.80911
0.830681
0.852766
0.873216
0.890339
0.903146
0.911443
0.91573
0.91694
0.916086
0.913921
0.910707
0.906095
0.899263
0.889152
0.874777
0.855519
0.831314
0.802698
0.770705
0.736665
0.701934
0.667615
0.634354
0.60233
0.57122
0.540287
0.508584
0.47522
0.439617
0.40172
0.362098
0.321945
0.282972
0.247221
0.216772
0.193548
0.178999
0.174171
0.179078
0.192492
0.211919
0.232798
0.248833
0.253917
0.243397
0.215205
0.170597
0.114334
0.0542393
0.000226974
-0.037019
-0.0505939
-0.037188
0.00671387
0.0832615
0.191968
0.329517
0.489844
0.664288
0.843755
1.01685
1.17327
1.3055
1.40975
1.48603
1.53724
1.56767
1.58117
1.57861
1.55817
1.51621
1.44808
1.35053
1.22392
1.07333
0.908236
0.740753
0.583147
0.443301
0.322713
0.223423
0.145015
0.0847725
0.0383534
0
-0.0410641
-0.0914749
-0.170428
-0.345425
-0.624769
-0.989779
-1.40096
-1.18575
0.0913075
2.54309
6.00604
10.0175
13.8247
16.5368
17.4556
16.407
13.8277
10.5352
7.3578
4.85333
3.21387
2.30878
1.81533
1.4322
1.15558
0.906442
0.698353
0.539975
0.433686
0.37569
0.357493
0.368258
0.397373
0.43586
0.478497
0.523399
0.570637
0.62147
0.677681
0.741056
0.812947
0.894238
0.985161
1.08533
1.19388
1.30979
1.43206
1.56002
1.69335
1.83204
1.97615
2.12555
2.27978
2.43803
2.59934
2.76297
2.92866
3.09681
3.26839
3.44453
3.62617
3.81357
4.00611
4.20234
4.40009
4.59489
4.77786
4.93872
5.0668
5.15106
5.1814
5.14952
5.04869
4.87306
4.61811
4.28324
3.88309
3.44115
2.98114
2.52214
2.07739
1.65717
1.27021
0.922288
0.616057
0.351464
0.126394
-0.0625855
-0.219558
-0.348141
-0.45145
-0.533744
-0.599064
-0.650901
-0.691951
-0.723908
-0.747425
-0.762314
-0.767957
-0.763836
-0.750315
-0.728297
-0.69915
-0.664653
-0.626659
-0.586826
-0.546423
-0.506375
-0.467482
-0.43037
-0.395267
-0.361849
-0.328954
-0.294505
-0.255842
-0.210473
-0.157036
-0.0961048
-0.0305344
0.0351601
0.0955746
0.145863
0.182949
0.206222
0.217493
0.220308
0.218861
0.216878
0.216646
0.2188
0.222971
0.227889
0.231725
0.232402
0.227799
0.216313
0.197021
0.169898
0.135927
0.0970406
0.0558666
0.0152996
-0.0219933
-0.0539028
-0.0792187
-0.0974987
-0.108763
-0.11312
-0.110515
-0.100739
-0.0837139
-0.0592831
-0.0281204
0.00547562
0.0344803
0.0518742
0.0532635
0.0391121
0.0156425
-0.00604515
-0.0124615
0.00892906
0.0618168
0.141912
0.246166
0.371659
0.513914
0.667699
0.827978
0.990051
1.14899
1.29896
1.43226
1.54083
1.61562
1.64661
1.62533
1.54775
1.41661
1.2425
1.04294
0.839798
0.652057
0.487045
0.346073
0.230481
0.141235
0.0770432
0.0349045
0.0107464
-2.59399e-005
-0.00210304
0
0.0173588
0.0298328
0.0250183
-0.0622604
-0.343087
-0.748991
-1.15488
-1.48737
-1.04713
0.41491
3.1266
6.93893
11.2126
14.9812
17.319
17.6911
16.1152
13.1193
9.55535
6.31056
3.98695
2.70119
2.15016
1.90978
1.82307
1.74355
1.67488
1.62128
1.58554
1.56901
1.57159
1.59198
1.62792
1.6767
1.7356
1.80236
1.87545
1.95447
2.04016
2.13393
2.23742
2.35184
2.47742
2.61311
2.75642
2.90422
3.0532
3.20065
3.34514
3.48693
3.62794
3.77158
3.92212
4.0842
4.26185
4.45851
4.67649
4.91669
5.17838
5.45919
5.75524
6.06144
6.37192
6.6805
6.98052
7.26567
7.52996
7.76578
7.96316
8.11608
8.2205
8.26974
8.25548
8.17009
8.00919
7.77313
7.46747
7.10264
6.7006
6.28236
5.86088
5.44586
5.04667
4.6719
4.32869
4.02218
3.75519
3.52828
3.34008
3.18796
3.06865
2.97879
2.91554
2.87799
2.86526
2.87332
2.89559
2.92456
2.95249
2.97231
2.97847
2.9672
2.93654
2.88594
2.81607
2.72867
2.62655
2.51317
2.39162
2.26463
2.13491
2.0051
1.87771
1.75514
1.63971
1.53364
1.43903
1.35768
1.29137
1.24091
1.204
1.17536
1.14807
1.11486
1.06939
1.00733
0.926857
0.828601
0.715145
0.59074
0.460692
0.33
0.203527
0.0863528
-0.0165423
-0.100428
-0.158727
-0.1816
-0.166712
-0.125638
-0.0740119
-0.0273309
0.0029093
0.0113659
-0.00123277
-0.0299855
-0.068504
-0.110925
-0.153831
-0.195701
-0.235541
-0.272193
-0.303395
-0.325219
-0.333738
-0.325331
-0.297978
-0.249166
-0.183241
-0.109221
-0.0372362
0.0244991
0.0719147
0.105621
0.129681
0.149375
0.169124
0.190963
0.215976
0.245471
0.281759
0.328764
0.392021
0.477979
0.592716
0.740427
0.919761
1.12677
1.35752
1.60458
1.85665
2.10025
2.31873
2.49674
2.62639
2.70389
2.7288
2.70365
2.63406
2.52862
2.39817
2.2545
2.10893
1.96873
1.83739
1.71754
1.61179
1.52212
1.44994
1.39616
1.36112
1.34466
1.34745
1.37001
1.40691
1.44737
1.47795
1.4752
1.28142
0.893322
0.372968
-0.200695
0
1.44074
4.26553
8.17487
12.5025
16.3786
18.9371
19.5794
18.2252
15.3807
11.9165
8.67218
6.15692
4.50928
3.62739
3.29352
3.20081
3.11572
3.03771
2.97282
2.92526
2.89672
2.88708
2.89314
2.9106
2.93537
2.96464
2.99748
3.03474
3.07837
3.13051
3.19245
3.26395
3.34432
3.43292
3.52912
3.63259
3.74345
3.8622
3.9896
4.12631
4.27277
4.42904
4.59486
4.76985
4.95364
5.14604
5.34695
5.55626
5.77356
5.99784
6.22739
6.45979
6.69212
6.92142
7.14516
7.36181
7.57093
7.77265
7.96803
8.16694
8.39915
8.65676
8.8864
9.02089
9.0051
8.81491
8.46704
8.01059
7.49883
6.96687
6.44284
5.93394
5.44092
4.96954
4.525
4.11075
3.72824
3.37713
3.05597
2.76733
2.51572
2.30173
2.12559
1.98856
1.89159
1.83407
1.81313
1.82375
1.85938
1.91289
1.97691
2.04592
2.11635
2.18619
2.25451
2.32055
2.38271
2.43785
2.48235
2.51226
2.52509
2.52151
2.50597
2.48562
2.46786
2.45763
2.45503
2.45762
2.46197
2.46523
2.46661
2.46788
2.4725
2.48398
2.50403
2.53089
2.56041
2.58839
2.61027
2.62188
2.62006
2.60292
2.57001
2.52219
2.46161
2.39188
2.31712
2.24166
2.16989
2.10571
2.05216
2.01111
1.98278
1.96616
1.95939
1.96007
1.96556
1.97294
1.97796
1.97588
1.96226
1.93401
1.89043
1.83379
1.7691
1.70299
1.64205
1.59081
1.55015
1.51951
1.4975
1.48184
1.46998
1.45961
1.44913
1.4379
1.42631
1.41575
1.40839
1.40687
1.41397
1.43215
1.4629
1.50732
1.56611
1.63944
1.72686
1.82726
1.93877
2.05944
2.1868
2.3126
2.42531
2.51364
2.56909
2.58775
2.57022
2.51989
2.44052
2.33456
2.20738
2.06464
1.9089
1.7428
1.57039
1.39683
1.22774
1.06821
0.922726
0.794474
0.685537
0.596801
0.52607
0.468749
0.419057
0.370773
0.317933
0.246777
0.0904223
-0.247743
-0.703797
-1.1683
-1.55216
-1.25411
0
2.44739
6.01397
10.1664
13.9751
16.4461
16.9428
15.4331
12.4437
8.81161
5.39049
2.79808
1.25197
0.557925
0.293763
0.131568
-0.026287
-0.177293
-0.319136
-0.450386
-0.570403
-0.67907
-0.77585
-0.859809
-0.93073
-0.988187
-1.0317
-1.06087
-1.07535
-1.07467
-1.05811
-1.02466
-0.974166
-0.906218
-0.821357
-0.721503
-0.609948
-0.490906
-0.368705
-0.24684
-0.127206
-0.00981455
0.107113
0.22665
0.352433
0.487911
0.635512
0.796498
0.971378
1.1598
1.36063
1.57211
1.79193
2.0173
2.24509
2.47189
2.69346
2.90455
3.0988
3.26773
3.4017
3.49379
3.53596
3.51925
3.43473
3.27504
3.03621
2.71974
2.33426
1.89884
1.44115
0.981162
0.531465
0.10247
-0.297628
-0.663575
-0.993099
-1.28644
-1.54549
-1.77274
-1.97041
-2.13987
-2.28153
-2.39525
-2.47928
-2.5286
-2.53797
-2.51132
-2.46546
-2.41857
-2.38524
-2.37234
-2.37718
-2.38889
-2.39274
-2.37583
-2.3317
-2.26653
-2.18965
-2.10706
-2.02299
-1.94086
-1.86313
-1.79227
-1.73011
-1.67723
-1.63369
-1.59871
-1.57034
-1.54558
-1.52095
-1.49354
-1.46184
-1.42655
-1.38953
-1.35264
-1.31769
-1.28622
-1.25924
-1.23734
-1.2207
-1.20896
-1.20137
-1.19677
-1.19355
-1.1897
-1.18307
-1.17173
-1.15439
-1.13085
-1.10153
-1.06817
-1.03298
-0.998042
-0.964696
-0.933277
-0.903146
-0.873045
-0.841607
-0.807829
-0.771344
-0.732221
-0.690751
-0.647113
-0.601116
-0.552113
-0.499105
-0.440941
-0.376505
-0.305117
-0.225949
-0.137952
-0.0398466
0.0698872
0.192874
0.330566
0.483881
0.653228
0.84114
1.05097
1.27906
1.51019
1.72191
1.89154
2.00409
2.04938
2.02032
1.91479
1.74097
1.52132
1.28999
1.08255
0.916208
0.780091
0.662243
0.558388
0.466746
0.385486
0.312924
0.247623
0.188048
0.132365
0.078343
0.0233358
-0.0366259
-0.115016
-0.278857
-0.598089
-1.01666
-1.42222
-1.72701
-1.3289
0
2.44023
5.88316
9.79682
13.3084
15.526
15.9264
14.5515
11.9161
8.75069
5.75702
3.44103
2.00597
1.32511
1.05701
0.951853
0.857971
0.770753
0.691942
0.622556
0.563144
0.514695
0.47828
0.455221
0.447417
0.457138
0.486658
0.537833
0.611706
0.708213
0.826011
0.961834
1.11145
1.27084
1.43611
1.60377
1.77126
1.93719
2.10152
2.26544
2.43109
2.60123
2.77878
2.96649
3.16652
3.38021
3.60784
3.84853
4.10026
4.35997
4.62383
4.88757
5.14691
5.39797
5.63776
5.86427
6.07639
6.27382
6.45654
6.62391
6.7743
6.90326
6.99795
7.0351
6.9871
6.83057
6.55459
6.16608
5.69066
5.16834
4.64462
4.14077
3.66097
3.21256
2.80147
2.43123
2.10317
1.8168
1.57034
1.36106
1.18574
1.0408
0.922272
0.825996
0.747772
0.68356
0.629764
0.583563
0.543196
0.508246
0.479572
0.458751
0.447631
0.44756
0.459797
0.484798
0.517615
0.551576
0.580459
0.600494
0.61153
0.616857
0.621756
0.63137
0.648801
0.672941
0.701939
0.733031
0.763467
0.791311
0.815749
0.836879
0.855206
0.871165
0.884968
0.896661
0.906453
0.914912
0.922873
0.931038
0.939504
0.946876
0.950502
0.947404
0.935564
0.914979
0.887984
0.85873
0.832073
0.812142
0.800318
0.796806
0.801443
0.813445
0.831434
0.85355
0.877196
0.899689
0.918611
0.932167
0.939496
0.940835
0.93749
0.931599
0.925723
0.92227
0.923054
0.92907
0.94029
0.95604
0.974823
0.995084
1.01579
1.03687
1.05947
1.08576
1.11857
1.16083
1.21496
1.28213
1.36295
1.45774
1.56657
1.68944
1.8264
1.97966
2.15592
2.36456
2.60592
2.85003
3.05594
3.1903
3.23203
3.17491
3.02847
2.81482
2.56385
2.31084
2.08866
1.90457
1.75265
1.62704
1.52437
1.44399
1.38381
1.34053
1.30992
1.28716
1.26678
1.24229
1.20698
1.15434
1.06174
0.872586
0.593474
0.248682
-0.129363
0
1.08953
3.50854
7.21819
11.613
15.6762
18.3831
19.0975
17.7577
14.8396
11.1794
7.70878
5.13918
3.71462
3.1938
3.09626
2.94282
2.78476
2.62974
2.4817
2.34433
2.22074
2.11325
2.02383
1.95382
1.90378
1.87407
1.86502
1.87691
1.90983
1.96352
2.03714
2.12915
2.23722
2.35818
2.48857
2.62485
2.76371
2.90217
3.03798
3.16987
3.29771
3.42242
3.54587
3.67064
3.79978
3.93664
4.08465
4.24727
4.42763
4.62812
4.84993
5.09265
5.35396
5.62966
5.91395
6.20016
6.47948
6.74259
6.9803
7.18174
7.33502
7.43406
7.47567
7.45436
7.36246
7.19238
6.93988
6.60726
6.20496
5.75122
5.27305
4.79317
4.32387
3.87458
3.45329
3.06559
2.71444
2.40026
2.12132
1.87433
1.65523
1.46002
1.28562
1.13075
0.994659
0.877822
0.78135
0.706366
0.653393
0.621903
0.61009
0.614985
0.633758
0.662065
0.692175
0.715813
0.726569
0.72126
0.700647
0.669114
0.63327
0.599921
0.574135
0.556828
0.546154
0.540386
0.537878
0.536991
0.536392
0.535198
0.532975
0.529607
0.525133
0.51956
0.512752
0.50435
0.493758
0.480208
0.462813
0.4408
0.413985
0.382925
0.349073
0.314705
0.28258
0.255345
0.236213
0.227294
0.225631
0.226117
0.223612
0.215058
0.200479
0.182355
0.163787
0.146552
0.13019
0.112808
0.0926487
0.0696503
0.0460169
0.0254267
0.0113132
0.00517006
0.00452423
0.00694485
0.00962448
0.010355
0.0083416
0.00446663
0.000902939
0.00024128
0.0044754
0.0153217
0.0314142
0.0501692
0.069455
0.0892017
0.112159
0.143427
0.18899
0.253951
0.3395
0.44198
0.559434
0.690381
0.833466
0.988904
1.1578
1.33841
1.52203
1.69217
1.829
1.9154
1.93796
1.88725
1.76009
1.56395
1.32036
1.06315
0.830393
0.642925
0.492663
0.368123
0.26578
0.184518
0.122277
0.0762465
0.043363
0.0197781
0
-0.0217571
-0.055797
-0.111075
-0.198247
-0.358832
-0.592531
-0.884866
-1.20967
-1.0373
0.162195
2.57543
6.06035
10.1088
13.8833
16.418
16.9952
15.5047
12.5185
9.00032
5.85413
3.60005
2.30947
1.73124
1.49021
1.37154
1.27287
1.18568
1.11265
1.05329
1.00532
0.965697
0.931875
0.902745
0.879111
0.863548
0.859761
0.870305
0.89667
0.940487
1.00256
1.08254
1.17908
1.29003
1.41264
1.54382
1.68056
1.81995
1.95941
2.0969
2.23116
2.36197
2.49033
2.61869
2.75077
2.89113
3.0445
3.21503
3.4054
3.61625
3.84586
4.09001
4.34309
4.59882
4.85066
5.09122
5.31211
5.50766
5.67544
5.8142
5.91754
5.97621
5.98472
5.935
5.81849
5.62967
5.36947
5.04663
4.67624
4.27643
3.86672
3.45951
3.06166
2.67973
2.3196
1.98615
1.68296
1.41244
1.17398
0.96452
0.779376
0.613289
0.461614
0.323152
0.199873
0.095278
0.0151655
-0.0349918
-0.0525938
-0.0395086
-0.00221272
0.0495068
0.104803
0.154351
0.193064
0.218418
0.230799
0.232707
0.227761
0.21984
0.212504
0.208332
0.209597
0.218124
0.235146
0.261119
0.295747
0.337689
0.384942
0.435221
0.486349
0.536531
0.584447
0.629172
0.670023
0.706468
0.738122
0.764901
0.787219
0.806126
0.823286
0.840748
0.860544
0.88419
0.912415
0.94504
0.979582
1.01175
1.03695
1.05158
1.05404
1.04523
1.02817
1.00718
0.986599
0.969583
0.957408
0.9505
0.949083
0.953187
0.962918
0.978542
1.00037
1.02852
1.06261
1.10162
1.14415
1.18851
1.23328
1.27784
1.32273
1.36968
1.42139
1.48097
1.55128
1.63398
1.72929
1.83611
1.9521
2.0739
2.1964
2.31176
2.412
2.48993
2.5399
2.55827
2.54374
2.49734
2.42218
2.32309
2.20648
2.08057
1.95271
1.82887
1.71371
1.61121
1.52491
1.4561
1.40277
1.36086
1.3251
1.28984
1.2499
1.20098
1.13974
1.06366
0.961688
0.800045
0.577733
0.303833
0
0.163898
1.35112
3.7816
7.267
11.1961
14.6669
16.774
16.9805
15.369
12.5797
9.46233
6.69755
4.63273
3.3437
2.74766
2.64883
2.54208
2.43211
2.32028
2.20819
2.09974
2.00047
1.91657
1.8537
1.81602
1.80547
1.82141
1.86066
1.92022
1.99386
2.07141
2.14404
2.2065
2.25852
2.30481
2.35338
2.41281
2.48947
2.5834
2.69075
2.80866
2.93514
3.06908
3.21076
3.36202
3.52598
3.70635
3.90644
4.12823
4.37172
4.63457
4.91237
5.19924
5.48877
5.77506
6.05353
6.321
6.57439
6.81061
7.02858
7.22801
7.40359
7.54372
7.63057
7.64347
7.56387
7.38103
7.09652
6.72428
6.28704
5.81298
5.33609
4.87083
4.42388
4.00377
3.61724
3.26876
2.96018
2.69085
2.45807
2.2578
2.08541
1.93639
1.80682
1.69359
1.59448
1.50811
1.43383
1.37177
1.32273
1.28811
1.27139
1.28571
1.35639
1.47753
1.61434
1.72202
1.76467
1.73135
1.64036
1.53073
1.44653
1.4203
1.44113
1.48781
1.54821
1.61555
1.68364
1.74654
1.79949
1.8394
1.86485
1.87596
1.87405
1.8612
1.83985
1.8125
1.78174
1.74984
1.7188
1.69035
1.66599
1.64704
1.63398
1.62559
1.61969
1.61367
1.60529
1.59333
1.578
1.56086
1.54439
1.53127
1.52336
1.52148
1.52553
1.53489
1.54838
1.5644
1.58132
1.59766
1.61223
1.62415
1.63283
1.63791
1.63934
1.63738
1.63283
1.62713
1.62255
1.6223
1.6304
1.65192
1.69198
1.7552
1.84502
1.96299
2.10969
2.28569
2.48698
2.70664
2.92948
3.12993
3.29114
3.39675
3.42791
3.37082
3.22683
3.01604
2.77329
2.53981
2.34553
2.18676
2.05237
1.93578
1.83491
1.74666
1.66782
1.59576
1.5289
1.46672
1.4092
1.35597
1.3056
1.25391
1.19423
1.1145
0.957576
0.708935
0.37844
0
0.00654612
1.12652
3.6746
7.48041
11.8861
15.9379
18.6746
19.4298
18.0822
15.1294
11.4881
8.09154
5.52688
3.93033
3.13349
2.86275
2.78398
2.6456
2.50483
2.36577
2.23403
2.1162
2.01918
1.94861
1.90849
1.9007
1.92467
1.97728
2.05294
2.14409
2.24227
2.3396
2.43075
2.51429
2.59155
2.66565
2.74105
2.82247
2.91395
3.01715
3.13301
3.2623
3.40533
3.56214
3.73243
3.9154
4.10958
4.31269
4.52189
4.7341
4.94664
5.15773
5.36672
5.57418
5.78163
5.99114
6.20542
6.43099
6.68993
7.02194
7.41379
7.79406
8.06493
8.15721
8.07115
7.85843
7.57002
7.22562
6.81768
6.35429
5.8675
5.38077
4.90473
4.44504
4.00916
3.60441
3.23656
2.90929
2.62397
2.37978
2.17402
2.0028
1.86175
1.74664
1.65379
1.58015
1.5232
1.4811
1.45236
1.43442
1.42368
1.41666
1.41057
1.40386
1.39638
1.38925
1.38423
1.38311
1.3869
1.39565
1.40922
1.42719
1.44909
1.4746
1.50355
1.53584
1.57118
1.60883
1.64744
1.68456
1.71687
1.74097
1.75414
1.75514
1.74479
1.72603
1.70344
1.68225
1.66711
1.6607
1.66315
1.67301
1.68784
1.70452
1.71987
1.73135
1.73698
1.73556
1.72676
1.71098
1.68932
1.66356
1.63594
1.60888
1.58458
1.56459
1.54978
1.54031
1.53469
1.53076
1.5266
1.52117
1.51469
1.50842
1.50411
1.50323
1.50636
1.51254
1.52049
1.52864
1.53556
1.54027
1.5425
1.54277
1.54228
1.54284
1.54662
1.55602
1.57362
1.60194
1.64332
1.69968
1.77235
1.86192
1.96813
2.0898
2.22486
2.37067
2.52463
2.68115
2.82997
2.95943
3.05855
3.11889
3.13598
3.10966
3.04341
2.94312
2.81585
2.66959
2.51399
2.35634
2.20155
2.05345
1.91514
1.78872
1.67542
1.57568
1.48933
1.41579
1.35397
1.3021
1.25787
1.21688
1.17227
1.11574
1.03101
0.872424
0.635869
0.335601
0
0.323299
1.90565
4.999
9.27288
13.8272
17.5285
19.4574
19.2241
17.0494
13.649
9.97523
6.87232
4.77338
3.61431
3.0287
2.69139
2.5536
2.42124
2.29698
2.183
2.08082
1.99139
1.91513
1.85191
1.80136
1.76308
1.73687
1.72281
1.72176
1.73463
1.76255
1.80661
1.86745
1.94497
2.03806
2.14459
2.26157
2.38534
2.51227
2.63935
2.76437
2.88654
3.00674
3.12748
3.25258
3.38659
3.53415
3.69927
3.88497
4.09269
4.32249
4.57435
4.84783
5.14207
5.45564
5.79324
6.16476
6.55485
6.91763
7.207
7.39225
7.46519
7.43735
7.33077
7.16655
6.95476
6.69018
6.373
6.01431
5.62707
5.22095
4.80417
4.38535
3.9732
3.57605
3.20098
2.8531
2.53521
2.24789
1.98988
1.75873
1.55151
1.36549
1.19878
1.05059
0.92131
0.812215
0.725661
0.668231
0.652439
0.682826
0.740393
0.800235
0.838985
0.842135
0.808353
0.749304
0.68511
0.637001
0.61872
0.626425
0.650667
0.683504
0.719303
0.753088
0.781095
0.80132
0.813664
0.819706
0.822178
0.824264
0.828842
0.837838
0.852312
0.871659
0.892061
0.908425
0.915993
0.911797
0.895526
0.869486
0.837692
0.804445
0.772978
0.744237
0.717799
0.692988
0.669127
0.646109
0.624744
0.60679
0.594639
0.590731
0.597521
0.61784
0.651271
0.691806
0.729971
0.75588
0.761876
0.744674
0.706375
0.654011
0.59773
0.548143
0.513356
0.495866
0.493089
0.501605
0.519011
0.542613
0.56945
0.596461
0.619925
0.635917
0.64108
0.633025
0.610957
0.576138
0.531951
0.483483
0.436762
0.397929
0.371022
0.359236
0.366073
0.394553
0.447207
0.525846
0.631487
0.76392
0.923496
1.11919
1.35652
1.61136
1.84814
2.03721
2.16176
2.21825
2.21022
2.14044
2.0085
1.81685
1.58624
1.34333
1.11671
0.931815
0.788739
0.671811
0.576453
0.497367
0.428683
0.365343
0.303988
0.243137
0.182624
0.122575
0.0623384
0
-0.0675583
-0.144754
-0.241214
-0.377615
-0.560517
-0.777725
-1.01348
-1.25596
-0.808114
0.587249
3.19027
6.81926
10.7866
14.1444
16.0694
16.1506
14.4864
11.6219
8.36323
5.4899
3.46019
2.28549
1.67117
1.30469
1.14534
0.99361
0.854451
0.733
0.63282
0.555844
0.502176
0.471426
0.461602
0.467536
0.48299
0.50228
0.521344
0.53849
0.554635
0.572962
0.598048
0.63464
0.685728
0.752197
0.834292
0.929941
1.03629
1.15084
1.27248
1.40179
1.54072
1.69162
1.85615
2.03438
2.22362
2.42128
2.62485
2.83215
3.04173
3.2529
3.46549
3.67941
3.89423
4.10899
4.32221
4.53213
4.73713
4.93557
5.12524
5.30339
5.46776
5.61063
5.70844
5.72622
5.62997
5.40039
5.0419
4.58319
4.06974
3.55253
3.06181
2.59703
2.16206
1.76311
1.40403
1.08635
0.809436
0.570942
0.367413
0.194844
0.0491819
-0.0733257
-0.17563
-0.260743
-0.331148
-0.388751
-0.434371
-0.468705
-0.491926
-0.503949
-0.504785
-0.494882
-0.475352
-0.447998
-0.415152
-0.379403
-0.343196
-0.308526
-0.276921
-0.249461
-0.226905
-0.210046
-0.200019
-0.197425
-0.202624
-0.215412
-0.234696
-0.258359
-0.283416
-0.306453
-0.324221
-0.334384
-0.335861
-0.328351
-0.312498
-0.289667
-0.261828
-0.231083
-0.199728
-0.170263
-0.145094
-0.126298
-0.11535
-0.112878
-0.118521
-0.13096
-0.148112
-0.167456
-0.186441
-0.202934
-0.215544
-0.223578
-0.22681
-0.226004
-0.222419
-0.217538
-0.212836
-0.209663
-0.209244
-0.212733
-0.221222
-0.235597
-0.256243
-0.282665
-0.313215
-0.345074
-0.374623
-0.398138
-0.412651
-0.416151
-0.407814
-0.390336
-0.368324
-0.346245
-0.32694
-0.310881
-0.296408
-0.280828
-0.2617
-0.237786
-0.210575
-0.182575
-0.155072
-0.126146
-0.0900717
-0.0386074
0.0362459
0.139169
0.267495
0.411883
0.564783
0.718263
0.862443
0.987253
1.08466
1.14932
1.17787
1.16889
1.12308
1.04343
0.93527
0.805903
0.663811
0.517873
0.375507
0.241299
0.118845
0.0117283
-0.0770901
-0.145323
-0.19037
-0.206464
-0.184577
-0.12386
-0.0502254
0
-0.000371552
-0.0918366
-0.288164
-0.583577
-0.954754
-1.36651
-1.13439
0.158913
2.65941
6.22687
10.3912
14.3503
17.1363
17.9819
16.6944
13.7485
10.0151
6.33752
3.25223
0.956632
-0.584367
-1.53362
-1.69637
-1.84885
-1.98397
-2.09588
-2.18166
-2.24088
-2.27498
-2.28651
-2.2785
-2.2542
-2.21579
-2.16553
-2.10926
-2.05625
-2.01559
-1.9939
-1.99297
-2.00864
-2.0313
-2.04799
-2.04534
-2.01503
-1.95825
-1.87619
-1.76832
-1.63565
-1.48031
-1.30532
-1.11384
-0.908365
-0.69074
-0.461968
-0.222269
0.0286808
0.291308
0.565604
0.85061
1.14405
1.44219
1.74007
2.03123
2.30828
2.56375
2.79053
2.98131
3.12886
3.23075
3.28563
3.29185
3.24778
3.15246
3.00653
2.81279
2.57634
2.30433
2.00965
1.70332
1.39225
1.08227
0.778955
0.487594
0.213193
-0.0395348
-0.264354
-0.455647
-0.610476
-0.727594
-0.807835
-0.854231
-0.871741
-0.866602
-0.845439
-0.814339
-0.778427
-0.740831
-0.703201
-0.66613
-0.629653
-0.593781
-0.558995
-0.526516
-0.497904
-0.474405
-0.456118
-0.441469
-0.427314
-0.40971
-0.385107
-0.35147
-0.309491
-0.261287
-0.209543
-0.157107
-0.106198
-0.0581758
-0.0135821
0.027621
0.0657225
0.100999
0.133549
0.163322
0.190228
0.214236
0.235415
0.253902
0.269817
0.283103
0.293681
0.301451
0.306431
0.308875
0.309299
0.308411
0.306968
0.305678
0.305183
0.306182
0.309583
0.316556
0.328408
0.346331
0.372318
0.405937
0.443432
0.479643
0.509725
0.530889
0.543347
0.550019
0.555181
0.562756
0.574538
0.590178
0.60892
0.629706
0.651381
0.672931
0.693548
0.712573
0.729435
0.743695
0.754974
0.763136
0.768424
0.771551
0.77376
0.776828
0.783014
0.795093
0.816225
0.849801
0.899164
0.96721
1.0559
1.16576
1.29549
1.44181
1.59956
1.76238
1.92186
2.06891
2.19569
2.29637
2.36739
2.40727
2.41607
2.39479
2.34502
2.26884
2.17054
2.05531
1.92798
1.79392
1.65897
1.52874
1.40763
1.29876
1.20336
1.12073
1.04845
0.983042
0.920783
0.858
0.791551
0.719659
0.64093
0.551474
0.439826
0.229556
-0.100158
-0.436618
-0.652824
0
1.76079
4.73412
8.67087
12.9217
16.5517
18.6543
18.7173
16.8186
13.5503
9.76747
6.31567
3.81089
2.47997
2.11432
2.20715
2.05317
1.90175
1.75644
1.62099
1.49909
1.3942
1.30951
1.24766
1.20949
1.19451
1.20121
1.22718
1.26942
1.32475
1.39027
1.46387
1.54456
1.632
1.72644
1.82875
1.93974
2.05964
2.18789
2.32331
2.46443
2.60997
2.75943
2.91336
3.07354
3.24271
3.42419
3.62129
3.83664
4.07181
4.32698
4.60092
4.89118
5.19436
5.50635
5.82301
6.13888
6.44258
6.72223
6.96734
7.17049
7.31835
7.40499
7.4313
7.392
7.27521
7.06856
6.76781
6.38224
5.93404
5.453
4.97028
4.49848
4.04272
3.60967
3.20465
2.83154
2.49277
2.18945
1.92147
1.68769
1.48674
1.31681
1.17499
1.05845
0.966043
0.896982
0.849664
0.822667
0.814153
0.821992
0.842992
0.871456
0.901539
0.928467
0.949436
0.963824
0.972654
0.977651
0.980341
0.981761
0.982327
0.98233
0.982348
0.983416
0.986942
0.994367
1.00665
1.02421
1.04673
1.07234
1.09884
1.12448
1.14863
1.17192
1.19576
1.22146
1.24954
1.27813
1.30328
1.32002
1.32398
1.31278
1.28683
1.24935
1.20558
1.16177
1.12372
1.09551
1.07918
1.07581
1.08563
1.10833
1.14203
1.1809
1.2181
1.24717
1.26338
1.26455
1.2511
1.22549
1.19126
1.15209
1.11141
1.07149
1.03403
1.00044
0.971843
0.949051
0.932413
0.921987
0.91728
0.917472
0.921684
0.92924
0.939854
0.953723
0.971479
0.994073
1.02261
1.05795
1.10097
1.15244
1.21285
1.28246
1.36113
1.44834
1.54306
1.64366
1.7479
1.85292
1.95491
2.0495
2.13216
2.19824
2.24307
2.26289
2.255
2.21791
2.15167
2.05818
1.94144
1.80744
1.6637
1.51838
1.37899
1.25087
1.13746
1.0407
0.960788
0.896672
0.846465
0.807852
0.777808
0.752703
0.727553
0.695588
0.647733
0.539502
0.31487
-0.0160887
-0.40394
-0.652156
0
1.82802
4.8955
8.82919
12.8036
15.8001
17.0308
16.2605
13.848
10.544
7.20198
4.51327
2.81447
2.02377
1.76714
1.65839
1.57931
1.50344
1.43203
1.36602
1.30602
1.25253
1.20629
1.16841
1.14
1.12247
1.11724
1.12553
1.14812
1.18521
1.23643
1.3008
1.37659
1.46135
1.55283
1.64881
1.74725
1.84665
1.94647
2.04735
2.15123
2.26116
2.38087
2.51423
2.6646
2.83424
3.02404
3.2334
3.4602
3.70106
3.95161
4.2069
4.46179
4.71128
4.95087
5.17632
5.38354
5.56959
5.73228
5.86853
5.97323
6.04092
6.06713
6.04512
5.96681
5.82453
5.61336
5.33337
4.99084
4.59828
4.17456
3.73986
3.30833
2.88986
2.49264
2.12256
1.78305
1.47522
1.1982
0.949579
0.726111
0.524396
0.343514
0.186323
0.0545286
-0.0491379
-0.121093
-0.158905
-0.163089
-0.13806
-0.0918977
-0.035025
0.0217519
0.0702036
0.104626
0.122491
0.124402
0.113479
0.0943749
0.0721663
0.0512943
0.0346336
0.0238263
0.0195582
0.0218789
0.0308718
0.0467479
0.0700937
0.101924
0.143536
0.1962
0.260961
0.338948
0.430779
0.535637
0.647303
0.751718
0.832659
0.875406
0.870045
0.814378
0.715406
0.588386
0.453172
0.328841
0.225252
0.141097
0.0721179
0.0161004
-0.0283947
-0.0630076
-0.0892822
-0.108531
-0.121824
-0.13014
-0.134193
-0.134559
-0.131662
-0.125771
-0.117041
-0.105613
-0.0917488
-0.0759787
-0.0591826
-0.0426404
-0.0280142
-0.0170234
-0.0111491
-0.0113283
-0.0177279
-0.0296582
-0.0456467
-0.0636422
-0.0812896
-0.0962379
-0.106486
-0.11023
-0.105976
-0.0925876
-0.0692869
-0.035627
0.00857735
0.0633725
0.128822
0.205159
0.292786
0.393104
0.513572
0.678815
0.915551
1.18564
1.425
1.56879
1.5855
1.49184
1.33313
1.14747
0.948425
0.742754
0.544071
0.359735
0.195553
0.0559839
-0.0576318
-0.140602
-0.184572
-0.182972
-0.142123
-0.0837442
-0.0314424
-0.00569172
-0.0202683
-0.080965
-0.186418
2
200
395
581
771
965
1159
1363
1567
1759
1957
2157
2349
2540
2740
2948
3152
3360
3562
2606
2764
2921
3077
3235
3394
3716
0
0
0
0
0
0
0
0
0
0
0
0
0
0
0
0
0
0
0
0
0
0
0
0
0
0
0
0
0
0
0
0
0
0
0
0
0
0
0
0
0
0
0
0
0
0
0
0
0
0
0
0
0
0
0
0
0
0
0
0
0
0
0
0
0
0
0
0
0
0
0
0
0
0
0
0
0
0
0
0
0
0
0
0
0
0
0
0
0
0
0
0
0
0
0
0
0
0
0
0
0
0
0
0
0
0
0
0
0
0
0
0
0
0
0
0
0
0
0
0
0
0
0
0
0
0
0
0
0
0
0
0
0
0
0
0
0
0
0
0
0
0
0
0
0
0
0
0
0
0
0
0
0
0
0
0
0
0
0
0
0
0
0
0
0
0
0
0
0
0
0
0
0
0
0
0
0
0
0
0
0
0
0
0
0
0
0
0
0
0
0
0
0
0
0
0
0
0
0
0
0
0
0
0
0
0
0
0
0
0
0
0
0
0
0
0
0
0
0
0
0
0
0
0
0
0
0
0
0
0
0
0
0
0
0
0
0
0
0
0
0
0
0
0
0
0
0
0
0
0
0
0
0
0
0
0
0
0
0
0
0
0
0
0
0
0
0
0
0
0
0
0
0
0
0
0
0
0
0
0
0
0
0
0
0
0
0
0
0
0
0
0
0
0
0
0
0
0
0
0
0
0
0
0
0
0
0
0
0
0
0
0
0
0
0
0
0
0
0
0
0
0
0
0
0
0
0
0
0
0
0
0
0
0
0
0
0
0
0
0
0
0
0
0
0
0
0
0
0
0
0
0
0
0
0
0
0
0
0
0
0
0
0
0
0
0
0
0
0
0
0
0
0
0
0
0
0
0
0
0
0
0
0
0
0
0
0
0
0
0
0
0
0
0
0
0
0
0
0
0
0
0
0
0
0
0
0
0
0
0
0
0
0
0
0
0
0
0
0
0
0
0
0
0
0
0
0
0
0
0
0
0
0
0
0
0
0
0
0
0
0
0
0
0
0
0
0
0
0
0
0
0
0
0
0
0
0
0
0
0
0
0
0
0
0
0
0
0
0
0
0
0
0
0
0
0
0
0
0
0
0
0
0
0
0
0
0
0
0
0
0
0
0
0
0
0
0
0
0
0
0
0
0
0
0
0
0
0
0
0
0
0
0
0
0
0
0
0
0
0
0
0
0
0
0
0
0
0
0
0
0
0
0
0
0
0
0
0
0
0
0
0
0
0
0
0
0
0
0
0
0
0
0
0
0
0
0
0
0
0
0
0
0
0
0
0
0
0
0
0
0
0
0
0
0
0
0
0
0
0
0
0
0
0
0
0
0
0
0
0
0
0
0
0
0
0
0
0
0
0
0
0
0
0
0
0
0
0
0
0
0
0
0
0
0
0
0
0
0
0
0
0
0
0
0
0
0
0
0
0
0
0
0
0
0
0
0
0
0
0
0
0
0
0
0
0
0
0
0
0
0
0
0
0
0
0
0
0
0
0
0
0
0
0
0
0
0
0
0
0
0
0
0
0
0
0
0
0
0
0
0
0
0
0
0
0
0
0
0
0
0
0
0
0
0
0
0
0
0
0
0
0
0
0
0
0
0
0
0
0
0
0
0
0
0
0
0
0
0
0
0
0
0
0
0
0
0
0
0
0
0
0
0
0
0
0
0
0
0
0
0
0
0
0
0
0
0
0
0
0
0
0
0
0
0
0
0
0
0
0
0
0
0
0
0
0
0
0
0
0
0
0
0
0
0
0
0
0
0
0
0
0
0
0
0
0
0
0
0
0
0
0
0
0
0
0
0
0
0
0
0
0
0
0
0
0
0
0
0
0
0
0
0
0
0
0
0
0
0
0
0
0
0
0
0
0
0
0
0
0
0
0
0
0
0
0
0
0
0
0
0
0
0
0
0
0
0
0
0
0
0
0
0
0
0
0
0
0
0
0
0
0
0
0
0
0
0
0
0
0
0
0
0
0
0
0
0
0
0
0
0
0
0
0
0
0
0
0
0
0
0
0
0
0
0
0
0
0
0
0
0
0
0
0
0
0
0
0
0
0
0
0
0
0
0
0
0
0
0
0
0
0
0
0
0
0
0
0
0
0
0
0
0
0
0
0
0
0
0
0
0
0
0
0
0
0
0
0
0
0
0
0
0
0
0
0
0
0
0
0
0
0
0
0
0
0
0
0
0
0
0
0
0
0
0
0
0
0
0
0
0
0
0
0
0
0
0
0
0
0
0
0
0
0
0
0
0
0
0
0
0
0
0
0
0
0
0
0
0
0
0
0
0
0
0
0
0
0
0
0
0
0
0
0
0
0
0
0
0
0
0
0
0
0
0
0
0
0
0
0
0
0
0
0
0
0
0
0
0
0
0
0
0
0
0
0
0
0
0
0
0
0
0
0
0
0
0
0
0
0
0
0
0
0
0
0
0
0
0
0
0
0
0
0
0
0
0
0
0
0
0
0
0
0
0
0
0
0
0
0
0
0
0
0
0
0
0
0
0
0
0
0
0
0
0
0
0
0
0
0
0
0
0
0
0
0
0
0
0
0
0
0
0
0
0
0
0
0
0
0
0
0
0
0
0
0
0
0
0
0
0
0
0
0
0
0
0
0
0
0
0
0
0
0
0
0
0
0
0
0
0
0
0
0
0
0
0
0
0
0
0
0
0
0
0
0
0
0
0
0
0
0
0
0
0
0
0
0
0
0
0
0
0
0
0
0
0
0
0
0
0
0
0
0
0
0
0
0
0
0
0
0
0
0
0
0
0
0
0
0
0
0
0
0
0
0
0
0
0
0
0
0
0
0
0
0
0
0
0
0
0
0
0
0
0
0
0
0
0
0
0
0
0
0
0
0
0
0
0
0
0
0
0
0
0
0
0
0
0
0
0
0
0
0
0
0
0
0
0
0
0
0
0
0
0
0
0
0
0
0
0
0
0
0
0
0
0
0
0
0
0
0
0
0
0
0
0
0
0
0
0
0
0
0
0
0
0
0
0
0
0
0
0
0
0
0
0
0
0
0
0
0
0
0
0
0
0
0
0
0
0
0
0
0
0
0
0
0
0
0
0
0
0
0
0
0
0
0
0
0
0
0
0
0
0
0
0
0
0
0
0
0
0
0
0
0
0
0
0
0
0
0
0
0
0
0
0
0
0
0
0
0
0
0
0
0
0
0
0
0
0
0
0
0
0
0
0
0
0
0
0
0
0
0
0
0
0
0
0
0
0
0
0
0
0
0
0
0
0
0
0
0
0
0
0
0
0
0
0
0
0
0
0
0
0
0
0
0
0
0
0
0
0
0
0
0
0
0
0
0
0
0
0
0
0
0
0
0
0
0
0
0
0
0
0
0
0
0
0
0
0
0
0
0
0
0
0
0
0
0
0
0
0
0
0
0
0
0
0
0
0
0
0
0
0
0
0
0
0
0
0
0
0
0
0
0
0
0
0
0
0
0
0
0
0
0
0
0
0
0
0
0
0
0
0
0
0
0
0
0
0
0
0
0
0
0
0
0
0
0
0
0
0
0
0
0
0
0
0
0
0
0
0
0
0
0
0
0
0
0
0
0
0
0
0
0
0
0
0
0
0
0
0
0
0
0
0
0
0
0
0
0
0
0
0
0
0
0
0
0
0
0
0
0
0
0
0
0
0
0
0
0
0
0
0
0
0
0
0
0
0
0
0
0
0
0
0
0
0
0
0
0
0
0
0
0
0
0
0
0
0
0
0
0
0
0
0
0
0
0
0
0
0
0
0
0
0
0
0
0
0
0
0
0
0
0
0
0
0
0
0
0
0
0
0
0
0
0
0
0
0
0
0
0
0
0
0
0
0
0
0
0
0
0
0
0
0
0
0
0
0
0
0
0
0
0
0
0
0
0
0
0
0
0
0
0
0
0
0
0
0
0
0
0
0
0
0
0
0
0
0
0
0
0
0
0
0
0
0
0
0
0
0
0
0
0
0
0
0
0
0
0
0
0
0
0
0
0
0
0
0
0
0
0
0
0
0
0
0
0
0
0
0
0
0
0
0
0
0
0
0
0
0
0
0
0
0
0
0
0
0
0
0
0
0
0
0
0
0
0
0
0
0
0
0
0
0
0
0
0
0
0
0
0
0
0
0
0
0
0
0
0
0
0
0
0
0
0
0
0
0
0
0
0
0
0
0
0
0
0
0
0
0
0
0
0
0
0
0
0
0
0
0
0
0
0
0
0
0
0
0
0
0
0
0
0
0
0
0
0
0
0
0
0
0
0
0
0
0
0
0
0
0
0
0
0
0
0
0
0
0
0
0
0
0
0
0
0
0
0
0
0
0
0
0
0
0
0
0
0
0
0
0
0
0
0
0
0
0
0
0
0
0
0
0
0
0
0
0
0
0
0
0
0
0
0
0
0
0
0
0
0
0
0
0
0
0
0
0
0
0
0
0
0
0
0
0
0
0
0
0
0
0
0
0
0
0
0
0
0
0
0
0
0
0
0
0
0
0
0
0
0
0
0
0
0
0
0
0
0
0
0
0
0
0
0
0
0
0
0
0
0
0
0
0
0
0
0
0
0
0
0
0
0
0
0
0
0
0
0
0
0
0
0
0
0
0
0
0
0
0
0
0
0
0
0
0
0
0
0
0
0
0
0
0
0
0
0
0
0
0
0
0
0
0
0
0
0
0
0
0
0
0
0
0
0
0
0
0
0
0
0
0
0
0
0
0
0
0
0
0
0
0
0
0
0
0
0
0
0
0
0
0
0
0
0
0
0
0
0
0
0
0
0
0
0
0
0
0
0
0
0
0
0
0
0
0
0
0
0
0
0
0
0
0
0
0
0
0
0
0
0
0
0
0
0
0
0
0
0
0
0
0
0
0
0
0
0
0
0
0
0
0
0
0
0
0
0
0
0
0
0
0
0
0
0
0
0
0
0
0
0
0
0
0
0
0
0
0
0
0
0
0
0
0
0
0
0
0
0
0
0
0
0
0
0
0
0
0
0
0
0
0
0
0
0
0
0
0
0
0
0
0
0
0
0
0
0
0
0
0
0
0
0
0
0
0
0
0
0
0
0
0
0
0
0
0
0
0
0
0
0
0
0
0
0
0
0
0
0
0
0
0
0
0
0
0
0
0
0
0
0
0
0
0
0
0
0
0
0
0
0
0
0
0
0
0
0
0
0
0
0
0
0
0
0
0
0
0
0
0
0
0
0
0
0
0
0
0
0
0
0
0
0
0
0
0
0
0
0
0
0
0
0
0
0
0
0
0
0
0
0
0
0
0
0
0
0
0
0
0
0
0
0
0
0
0
0
0
0
0
0
0
0
0
0
0
0
0
0
0
0
0
0
0
0
0
0
0
0
0
0
0
0
0
0
0
0
0
0
0
0
0
0
0
0
0
0
0
0
0
0
0
0
0
0
0
0
0
0
0
0
0
0
0
0
0
0
0
0
0
0
0
0
0
0
0
0
0
0
0
0
0
0
0
0
0
0
0
0
0
0
0
0
0
0
0
0
0
0
0
0
0
0
0
0
0
0
0
0
0
0
0
0
0
0
0
0
0
0
0
0
0
0
0
0
0
0
0
0
0
0
0
0
0
0
0
0
0
0
0
0
0
0
0
0
0
0
0
0
0
0
0
0
0
0
0
0
0
0
0
0
0
0
0
0
0
0
0
0
0
0
0
0
0
0
0
0
0
0
0
0
0
0
0
0
0
0
0
0
0
0
0
0
0
0
0
0
0
0
0
0
0
0
0
0
0
0
0
0
0
0
0
0
0
0
0
0
0
0
0
0
0
0
0
0
0
0
0
0
0
0
0
0
0
0
0
0
0
0
0
0
0
0
0
0
0
0
0
0
0
0
0
0
0
0
0
0
0
0
0
0
0
0
0
0
0
0
0
0
0
0
0
0
0
0
0
0
0
0
0
0
0
0
0
0
0
0
0
0
0
0
0
0
0
0
0
0
0
0
0
0
0
0
0
0
0
0
0
0
0
0
0
0
0
0
0
0
0
0
0
0
0
0
0
0
0
0
0
0
0
0
0
0
0
0
0
0
0
0
0
0
0
0
0
0
0
0
0
0
0
0
0
0
0
0
0
0
0
0
0
0
0
0
0
0
0
0
0
0
0
0
0
0
0
0
0
0
0
0
0
0
0
0
0
0
0
0
0
0
0
0
0
0
0
0
0
0
0
0
0
0
0
0
0
0
0
0
0
0
0
0
0
0
0
0
0
0
0
0
0
0
0
0
0
0
0
0
0
0
0
0
0
0
0
0
0
0
0
0
0
0
0
0
0
0
0
0
0
0
0
0
0
0
0
0
0
0
0
0
0
0
0
0
0
0
0
0
0
0
0
0
0
0
0
0
0
0
0
0
0
0
0
0
0
0
0
0
0
0
0
0
0
0
0
0
0
0
0
0
0
0
0
0
0
0
0
0
0
0
0
0
0
0
0
0
0
0
0
0
0
0
0
0
0
0
0
0
0
0
0
0
0
0
0
0
0
0
0
0
0
0
0
0
0
0
0
0
0
0
0
0
0
0
0
0
0
0
0
0
0
0
0
0
0
0
0
0
0
0
0
0
0
0
0
0
0
0
0
0
0
0
0
0
0
0
0
0
0
0
0
0
0
0
0
0
0
0
0
0
0
0
0
0
0
0
0
0
0
0
0
0
0
0
0
0
0
0
0
0
0
0
0
0
0
0
0
0
0
0
0
0
0
0
0
0
0
0
0
0
0
0
0
0
0
0
0
0
0
0
0
0
0
0
0
0
0
0
0
0
0
0
0
0
0
0
0
0
0
0
0
0
0
0
0
0
0
0
0
0
0
0
0
0
0
0
0
0
0
0
0
0
0
0
0
0
0
0
0
0
0
0
0
0
0
0
0
0
0
0
0
0
0
0
0
0
0
0
0
0
0
0
0
0
0
0
0
0
0
0
0
0
0
0
0
0
0
0
0
0
0
0
0
0
0
0
0
0
0
0
0
0
0
0
0
0
0
0
0
0
0
0
0
0
0
0
0
0
0
0
0
0
0
0
0
0
0
0
0
0
0
0
0
0
0
0
0
0
0
0
0
0
0
0
0
0
0
0
0
0
0
0
0
0
0
0
0
0
0
0
0
0
0
0
0
0
0
0
0
0
0
0
0
0
0
0
0
0
0
0
0
0
0
0
0
0
0
0
0
0
0
0
0
0
0
0
0
0
0
0
0
0
0
0
0
0
0
0
0
0
0
0
0
0
0
0
0
0
0
0
0
0
0
0
0
0
0
0
0
0
0
0
0
0
0
0
0
0
0
0
0
0
0
0
0
0
0
0
0
0
0
0
0
0
0
0
0
0
0
0
0
0
0
0
0
0
0
0
0
0
0
0
0
0
0
0
0
0
0
0
0
0
0
0
0
0
0
0
0
0
0
0
0
0
0
0
0
0
0
0
0
0
0
0
0
0
0
0
0
0
0
0
0
0
0
0
0
0
0
0
0
0
0
0
0
0
0
0
0
0
0
0
0
0
0
0
0
0
0
0
0
0
0
0
0
0
0
0
0
0
0
0
0
0
0
0
0
0
0
0
0
0
0
0
0
0
0
0
0
0
0
0
0
0
0
0
0
0
0
0
0
0
0
0
0
0
0
0
0
0
0
0
0
0
0
0
0
0
0
0
0
0
0
0
0
0
0
0
0
0
0
0
0
0
0
0
0
0
0
0
0
0
0
0
0
0
0
0
0
0
0
0
0
0
0
0
0
0
0
0
0
0
0
0
0
0
0
0
0
0
0
0
0
0
0
0
0
0
0
0
0
0
0
0
0
0
0
0
0
0
0
0
0
0
0
0
0
0
0
0
0
0
0
0
0
0
0
0
0
0
0
0
0
0
0
0
0
0
0
0
0
0
0
0
0
0
0
0
0
0
0
0
0
0
0
0
0
0
0
0
0
0
0
0
0
0
0
0
0
0
0
0
0
0
0
0
0
0
0
0
0
0
0
0
0
0
0
0
0
0
0
0
0
0
0
0
0
0
0
0
0
0
0
0
0
0
0
0
0
0
0
0
0
0
0
0
0
0
0
0
0
0
0
0
0
0
0
0
0
0
0
0
0
0
0
0
0
0
0
0
0
0
0
0
0
0
0
0
0
0
0
0
0
0
0
0
0
0
0
0
0
0
0
0
0
0
0
0
0
0
0
0
0
0
0
0
0
0
0
0
0
0
0
0
0
0
0
0
0
0
0
0
0
0
0
0
0
0
0
0
0
0
0
0
0
0
0
0
0
0
0
0
0
0
0
0
0
0
0
0
0
0
0
0
0
0
0
0
0
0
0
0
0
0
0
0
0
0
0
0
0
0
0
0
0
0
0
0
0
0
0
0
0
0
0
0
0
0
0
0
0
0
0
0
0
0
0
0
0
0
0
0
0
0
0
0
0
