1.29573
1.27857
1.2549
1.22612
1.19367
1.15938
1.12565
1.09561
1.07266
1.06003
1.06006
1.07364
1.1016
1.14181
1.1871
1.22888
1.259
1.27127
1.26244
1.23248
1.1842
1.12269
1.05478
0.987792
0.928467
0.882931
0.855965
0.850335
0.866372
0.901935
0.952776
1.01319
1.07678
1.13734
1.18908
1.2274
1.24904
1.25225
1.23679
1.20381
1.15559
1.09528
1.02667
0.954077
0.882623
0.819485
0.771849
0.745907
0.745517
0.771262
0.820437
0.888145
0.969115
1.05949
1.15678
1.25979
1.36839
1.48262
1.6017
1.72376
1.84523
1.96103
2.06566
2.15423
2.22311
2.2702
2.29464
2.29623
2.27467
2.22954
2.16033
2.06719
1.95164
1.81728
1.66979
1.51646
1.36516
1.22245
1.09315
0.981239
0.889284
0.818597
0.769678
0.744853
0.749922
0.787489
0.839598
0.876888
0.86713
0.783893
0.614261
0.362259
0.0470694
-0.302026
0
1.30773
3.7865
7.33358
11.4795
15.3742
18.0029
18.6123
17.0961
14.0487
10.4435
7.1757
4.76054
3.28525
2.53447
2.1694
2.0474
1.94102
1.84504
1.7618
1.69129
1.63188
1.58113
1.53676
1.49746
1.46336
1.43603
1.41805
1.41227
1.42104
1.44564
1.48597
1.54064
1.60739
1.68354
1.76623
1.85307
1.94244
2.03342
2.12547
2.21893
2.31518
2.41679
2.52725
2.65051
2.7902
2.94896
3.12801
3.3251
3.53858
3.76705
4.00904
4.26317
4.52811
4.80233
5.08385
5.37071
5.65935
5.93975
6.19705
6.41722
6.58863
6.70367
6.75851
6.75102
6.67893
6.53904
6.32816
6.04497
5.69229
5.27922
4.82941
4.3671
3.9071
3.45964
3.03461
2.64047
2.28361
1.96785
1.69426
1.4613
1.26524
1.10091
0.962472
0.844244
0.741386
0.650315
0.568876
0.49635
0.43305
0.379636
0.336778
0.304735
0.283122
0.270899
0.266561
0.268434
0.274986
0.284999
0.297714
0.312734
0.329832
0.348718
0.3687
0.388626
0.406865
0.421311
0.429347
0.428873
0.418551
0.398323
0.369826
0.33654
0.30356
0.276946
0.262714
0.273168
0.324658
0.412097
0.508846
0.582627
0.607232
0.571853
0.48485
0.371002
0.263206
0.19106
0.160922
0.16038
0.177902
0.207176
0.243977
0.284661
0.326614
0.368296
0.408913
0.447684
0.4835
0.514715
0.53926
0.555337
0.562208
0.560714
0.553306
0.543544
0.535261
0.531284
0.53287
0.540313
0.553053
0.569769
0.588759
0.608262
0.626788
0.643347
0.657568
0.669677
0.680442
0.691014
0.702771
0.717164
0.735589
0.759293
0.789333
0.826585
0.87175
0.925388
0.987998
1.05981
1.14056
1.22923
1.32393
1.42162
1.51726
1.60483
1.67834
1.7327
1.76437
1.77144
1.75349
1.71114
1.64573
1.55949
1.45648
1.34152
1.21939
1.09589
0.977349
0.869805
0.777805
0.705422
0.655041
0.624842
0.608396
0.596972
0.581305
0.552965
0.505333
0.426593
0.265919
-0.0423374
-0.429564
-0.826724
-1.20191
-1.02843
0
2.20547
5.5612
9.52555
13.1787
15.5865
16.1629
14.8548
12.1247
8.77626
5.66474
3.37368
2.02344
1.35228
1.00824
0.969646
0.943445
0.91965
0.896781
0.873327
0.848423
0.822343
0.796634
0.773828
0.756857
0.748176
0.749005
0.759945
0.780576
0.809677
0.845538
0.886191
0.929621
0.974137
1.01803
1.05985
1.09901
1.13627
1.17423
1.2174
1.2719
1.34454
1.44166
1.56797
1.72341
1.90578
2.1129
2.34208
2.59013
2.85376
3.12968
3.41464
3.70524
3.99795
4.28915
4.57535
4.85328
5.11849
5.36245
5.57473
5.7519
5.8889
5.9795
6.01735
5.99622
5.90881
5.74602
5.49885
5.16707
4.77394
4.33632
3.8725
3.40438
2.95031
2.51903
2.11985
1.75898
1.43952
1.1618
0.924075
0.723157
0.555111
0.415707
0.300857
0.207019
0.130454
0.0678018
0.0163294
-0.0259857
-0.0604867
-0.0880201
-0.109238
-0.124288
-0.133984
-0.140032
-0.14399
-0.146605
-0.147344
-0.144445
-0.135569
-0.11882
-0.0937376
-0.0624536
-0.0278057
0.00636873
0.0360827
0.0583224
0.0718086
0.0773354
0.0776113
0.0766297
0.0787024
0.0873663
0.104368
0.129884
0.160959
0.192873
0.220349
0.23883
0.245417
0.239252
0.221362
0.194194
0.161143
0.126244
0.0930408
0.065135
0.0458909
0.0381086
0.0436055
0.0628289
0.0946177
0.136206
0.184063
0.232799
0.276385
0.309766
0.329773
0.335603
0.328714
0.312174
0.28968
0.2646
0.239401
0.215358
0.193249
0.173778
0.15777
0.146224
0.140172
0.140407
0.147223
0.160555
0.179768
0.203638
0.23119
0.262143
0.29711
0.33748
0.385045
0.44155
0.508377
0.585908
0.674086
0.77354
0.885333
1.0117
1.1705
1.43202
1.83434
2.27674
2.62623
2.78618
2.74347
2.55904
2.31718
2.08027
1.87783
1.70736
1.55953
1.42995
1.31727
1.22126
1.14301
1.08393
1.0421
1.01248
0.988999
0.965796
0.93807
0.902352
0.856068
0.796709
0.721083
0.623448
0.473072
0.265112
0.00630932
-0.282566
0
1.46182
4.22127
7.98437
12.0795
15.5836
17.586
17.5509
15.5833
12.3824
8.89117
5.88824
3.7708
2.57486
2.10571
2.05682
1.94159
1.82581
1.71037
1.59813
1.4948
1.40728
1.34214
1.30361
1.29234
1.30536
1.33734
1.3825
1.43645
1.49632
1.56129
1.63172
1.70873
1.79177
1.875
1.95082
2.01312
2.06053
2.09794
2.1357
2.18663
2.26239
2.36726
2.49609
2.64579
2.81472
3.00092
3.20233
3.41702
3.64323
3.87918
4.12287
4.37188
4.62336
4.87416
5.12113
5.36116
5.58984
5.80038
5.98724
6.14727
6.27572
6.36342
6.40128
6.37914
6.28732
6.11893
5.87276
5.5557
5.18321
4.77692
4.36059
3.95073
3.55306
3.17263
2.81282
2.47545
2.16124
1.87041
1.60308
1.3595
1.14015
0.945666
0.776618
0.633244
0.515247
0.423248
0.358627
0.317247
0.291994
0.275561
0.261958
0.247801
0.232913
0.22001
0.213554
0.218153
0.235304
0.267125
0.313707
0.370224
0.425711
0.467939
0.487348
0.480114
0.449835
0.407112
0.366879
0.3442
0.349918
0.381848
0.431444
0.493374
0.562777
0.633992
0.701681
0.761515
0.810605
0.847684
0.873042
0.888275
0.895901
0.898939
0.900325
0.90249
0.907026
0.914701
0.924916
0.936091
0.94617
0.953234
0.95606
0.954506
0.949596
0.943274
0.937879
0.935307
0.937055
0.943044
0.951097
0.957738
0.959223
0.952767
0.937603
0.915494
0.890506
0.868054
0.853493
0.850422
0.859354
0.87914
0.906739
0.937196
0.965502
0.987882
1.0027
1.01081
1.01528
1.02071
1.03234
1.0547
1.09054
1.14159
1.20899
1.29315
1.39362
1.509
1.63805
1.77887
1.9255
2.06765
2.19426
2.2955
2.36417
2.39617
2.39016
2.347
2.2694
2.16221
2.03452
1.89632
1.75614
1.62176
1.49903
1.38903
1.29069
1.20263
1.12233
1.0467
0.972754
0.898031
0.820742
0.739689
0.654018
0.562722
0.462926
0.34365
0.18541
-0.0128782
-0.240012
-0.47954
0
1.65443
4.61517
8.50517
12.566
15.9168
17.8027
17.8028
15.9847
12.9197
9.47372
6.44818
4.28879
3.0296
2.43443
2.18447
2.01195
1.84823
1.7005
1.57414
1.47219
1.3955
1.34247
1.31005
1.29475
1.29354
1.3045
1.32706
1.36175
1.4095
1.47082
1.54526
1.63094
1.725
1.82375
1.9236
2.02198
2.11786
2.21201
2.30663
2.40479
2.50963
2.62363
2.74778
2.88232
3.02689
3.18085
3.3437
3.51558
3.69748
3.89134
4.09979
4.32564
4.5713
4.83805
5.12545
5.43324
5.76281
6.10634
6.43504
6.71766
6.93211
7.06863
7.12776
7.11428
7.02994
6.86928
6.62189
6.2879
5.88531
5.43319
4.95303
4.46839
3.99374
3.53638
3.10417
2.70321
2.33784
2.01073
1.72313
1.47501
1.26529
1.09193
0.952102
0.842287
0.758461
0.696332
0.651697
0.62054
0.599184
0.584598
0.574521
0.567478
0.562721
0.56006
0.559642
0.561679
0.566197
0.57303
0.5815
0.590534
0.599047
0.606296
0.612166
0.617252
0.622694
0.629819
0.63969
0.652613
0.668162
0.685216
0.702082
0.71675
0.727088
0.731132
0.727597
0.716043
0.69711
0.672641
0.645568
0.619854
0.599788
0.589269
0.591117
0.606582
0.635144
0.674602
0.721686
0.772361
0.820107
0.858578
0.882932
0.890861
0.883179
0.863613
0.837747
0.811436
0.789291
0.772848
0.761641
0.755158
0.7523
0.751687
0.751912
0.751574
0.749553
0.745216
0.738635
0.730727
0.723231
0.718487
0.719088
0.727367
0.744791
0.772561
0.811884
0.863985
0.930112
1.01155
1.10945
1.22457
1.35683
1.50859
1.68287
1.8701
2.05147
2.20717
2.32098
2.38348
2.39232
2.35026
2.26237
2.13406
1.97307
1.78842
1.58894
1.38332
1.1794
0.983837
0.802124
0.639064
0.498442
0.38246
0.291624
0.224599
0.177823
0.143709
0.110892
0.0674557
0.0025053
-0.0953302
-0.254475
-0.471194
-0.731637
-1.01537
-0.91196
0
2.08057
5.34546
9.30878
13.0763
15.6939
16.5157
15.4079
12.7584
9.33805
6.04531
3.58187
2.2018
1.70109
1.65258
1.56191
1.43542
1.30656
1.18068
1.06497
0.96694
0.893097
0.847687
0.831946
0.843988
0.879337
0.931863
0.994736
1.06145
1.12765
1.19062
1.24975
1.30656
1.36445
1.42795
1.50172
1.58944
1.69299
1.81191
1.94396
2.08686
2.23887
2.39967
2.5706
2.75429
2.95356
3.17022
3.40411
3.65228
3.91005
4.17303
4.43738
4.70052
4.96155
5.22109
5.4808
5.74382
6.01268
6.27946
6.52234
6.71697
6.84501
6.8974
6.87276
6.77304
6.59911
6.34868
6.01822
5.62063
5.17986
4.71657
4.24569
3.7778
3.32177
2.88613
2.47827
2.1041
1.76774
1.47159
1.21645
1.00181
0.826094
0.686936
0.581308
0.50565
0.45591
0.427581
0.41586
0.415947
0.422483
0.42924
0.430564
0.422161
0.401774
0.369603
0.328287
0.28235
0.237215
0.198023
0.167902
0.148729
0.140607
0.142178
0.151167
0.164959
0.181058
0.19734
0.212119
0.224165
0.232684
0.237144
0.237376
0.233612
0.226504
0.217127
0.206889
0.197445
0.190616
0.188243
0.192059
0.20349
0.223433
0.252583
0.291262
0.336201
0.380059
0.414417
0.43191
0.428336
0.404008
0.36385
0.31619
0.270665
0.234929
0.211521
0.200601
0.202647
0.21656
0.237181
0.256508
0.267194
0.264474
0.247326
0.218444
0.183059
0.147153
0.115937
0.0922009
0.0770611
0.0738487
0.0884747
0.126632
0.194554
0.297357
0.437088
0.611209
0.820735
1.05273
1.27737
1.46613
1.59885
1.66723
1.67418
1.62989
1.54683
1.43577
1.3055
1.1654
1.02137
0.87765
0.738728
0.609478
0.494574
0.398454
0.325402
0.279932
0.266058
0.280046
0.305017
0.321695
0.312959
0.26765
0.182454
0.0613308
-0.0870632
-0.264039
-0.473362
-0.71344
-0.980815
-1.26223
-1.06839
0
2.25363
5.69523
9.85618
13.8261
16.5729
17.3927
16.1938
13.46
9.98702
6.59671
3.92068
2.24892
1.46774
1.17344
1.00108
0.908898
0.840133
0.823438
0.881281
0.985091
1.08761
1.14165
1.11858
1.02
0.878627
0.746971
0.676249
0.688219
0.756799
0.85814
0.960308
1.03585
1.07226
1.07565
1.06607
1.06722
1.09591
1.15239
1.22509
1.30787
1.39915
1.49897
1.60923
1.73338
1.87558
2.03958
2.22745
2.43919
2.67261
2.92394
3.18855
3.46142
3.73787
4.01395
4.28625
4.55004
4.79798
5.0214
5.21162
5.35793
5.45019
5.48102
5.44643
5.34456
5.17395
4.93307
4.62323
4.25818
3.85763
3.439
3.01497
2.59523
2.1881
1.80058
1.43779
1.10284
0.796993
0.520086
0.271094
0.0486946
-0.148274
-0.318948
-0.462482
-0.579
-0.668906
-0.733417
-0.774928
-0.797064
-0.804453
-0.802253
-0.79561
-0.789131
-0.786298
-0.789482
-0.799735
-0.81689
-0.839998
-0.864894
-0.885972
-0.89764
-0.895607
-0.877789
-0.844518
-0.798017
-0.74142
-0.677736
-0.609966
-0.539742
-0.467854
-0.395248
-0.32375
-0.256542
-0.198335
-0.154571
-0.129736
-0.126203
-0.143032
-0.175492
-0.215625
-0.253868
-0.281377
-0.292331
-0.287376
-0.269746
-0.244072
-0.21656
-0.192783
-0.176268
-0.167854
-0.165965
-0.167637
-0.169843
-0.170596
-0.169467
-0.167035
-0.16413
-0.160959
-0.15658
-0.14902
-0.135942
-0.115597
-0.08759
-0.053994
-0.0172722
0.0202087
0.0560715
0.0882607
0.115185
0.135645
0.148566
0.153123
0.148679
0.134903
0.1121
0.081411
0.0446419
0.0070816
-0.0237556
-0.0395203
-0.0322243
0.00472565
0.0758896
0.183516
0.327448
0.504961
0.710152
0.945018
1.19329
1.42288
1.60259
1.71057
1.73974
1.69805
1.60386
1.47849
1.3394
1.19726
1.05641
0.918422
0.784734
0.657343
0.538596
0.431498
0.339368
0.262891
0.201407
0.153191
0.115938
0.0871567
0.0642281
0.0441078
0.022818
-0.00486145
-0.0454269
-0.117838
-0.308179
-0.625179
-1.04335
-1.51474
-1.31873
0
2.5703
6.22483
10.465
14.509
17.4358
18.4936
17.4422
14.6795
11.0446
7.44558
4.55364
2.67514
1.76069
1.4875
1.39013
1.25537
1.13162
1.03011
0.958213
0.918116
0.906618
0.916308
0.93784
0.962626
0.98529
1.00435
1.02118
1.03912
1.06221
1.09396
1.13553
1.18661
1.247
1.31624
1.39373
1.47895
1.57166
1.6719
1.78001
1.89649
2.02192
2.15681
2.30159
2.45662
2.62227
2.79914
2.98819
3.19074
3.40845
3.64292
3.89529
4.16567
4.45255
4.75266
5.06299
5.37244
5.65893
5.9002
6.07906
6.18667
6.22234
6.19036
6.0957
5.94103
5.72638
5.46215
5.15834
4.81888
4.44892
4.05626
3.65141
3.24218
2.83497
2.43597
2.05099
1.68542
1.34489
1.03762
0.769707
0.543707
0.360295
0.21805
0.113501
0.0414856
-0.00418816
-0.0299217
-0.0415062
-0.0442158
-0.0414219
-0.0347542
-0.0249767
-0.0124863
0.00222511
0.0182587
0.0338486
0.046323
0.0528839
0.0514172
0.0412613
0.0236031
0.00133171
-0.0216516
-0.0414488
-0.0551907
-0.0622755
-0.0638407
-0.0615332
-0.057564
-0.0540695
-0.0525019
-0.0532026
-0.0552435
-0.0565563
-0.0543173
-0.0454954
-0.0276766
0.000636673
0.0396267
0.0879654
0.143425
0.200972
0.253761
0.295285
0.320733
0.327942
0.317671
0.293178
0.259322
0.221564
0.185147
0.154005
0.131757
0.1218
0.127122
0.149974
0.191347
0.251126
0.328861
0.418831
0.510242
0.590766
0.649881
0.681122
0.683265
0.66024
0.61996
0.57246
0.527827
0.494013
0.474669
0.470234
0.479911
0.502504
0.536818
0.581466
0.634976
0.695854
0.762608
0.833794
0.908123
0.984723
1.06334
1.14452
1.22961
1.32058
1.41968
1.52886
1.64918
1.78064
1.92404
2.07465
2.21858
2.33993
2.42471
2.46417
2.45617
2.40436
2.31594
2.19917
2.06265
1.91648
1.7676
1.62131
1.48236
1.3551
1.24316
1.14886
1.07285
1.01401
0.969487
0.934897
0.904804
0.872205
0.828891
0.767016
0.680118
0.555143
0.39326
0.202614
-0.00263126
0
0.925804
2.98217
6.12055
9.95701
13.77
16.6498
17.8306
17.0456
14.6502
11.42
8.18548
5.54723
3.77726
2.84971
2.52185
2.45146
2.37631
2.30477
2.24035
2.18587
2.14319
2.11297
2.09571
2.08948
2.09152
2.09898
2.10965
2.12233
2.13692
2.1542
2.17534
2.20159
2.2335
2.27169
2.31708
2.37082
2.43442
2.50971
2.5987
2.70324
2.82467
2.96346
3.11901
3.28961
3.47267
3.66513
3.86397
4.06673
4.2718
4.47857
4.68727
4.89868
5.1138
5.33362
5.5589
5.7902
6.02896
6.28087
6.55864
6.86825
7.17611
7.42966
7.58348
7.61539
7.52766
7.34006
7.07936
6.76456
6.39389
5.97135
5.519
5.055
4.5896
4.13065
3.68664
3.26628
2.87763
2.52722
2.21945
1.95627
1.73724
1.55991
1.42063
1.31455
1.23641
1.18187
1.14653
1.12529
1.11365
1.10797
1.10554
1.10466
1.10452
1.10492
1.10606
1.10822
1.11167
1.11672
1.12379
1.13345
1.14645
1.1637
1.18598
1.21372
1.24716
1.28587
1.32695
1.36659
1.40137
1.42941
1.45096
1.46815
1.48403
1.50142
1.52193
1.54508
1.56979
1.5947
1.61817
1.63825
1.6528
1.65986
1.65777
1.64553
1.6232
1.59222
1.55549
1.51719
1.48221
1.45509
1.43953
1.441
1.46043
1.49279
1.53037
1.56486
1.5895
1.60055
1.59793
1.5848
1.56657
1.5493
1.53749
1.53403
1.54005
1.55451
1.57544
1.60038
1.62688
1.65313
1.67831
1.70258
1.72681
1.75207
1.77905
1.80786
1.83786
1.86727
1.89409
1.91729
1.93785
1.95929
1.9874
2.02908
2.09057
2.17558
2.28196
2.40415
2.53713
2.67506
2.81054
2.93423
3.03665
3.11033
3.14933
3.14964
3.10994
3.03251
2.92366
2.79318
2.65283
2.51416
2.38543
2.26911
2.16541
2.07468
1.99628
1.92907
1.87186
1.82355
1.7832
1.74981
1.72188
1.69711
1.67243
1.64293
1.58199
1.33976
0.927054
0.444109
0.0454273
0
0.968005
3.00628
6.09963
9.95244
13.9244
17.1244
18.7211
18.3166
16.1239
12.8372
9.32173
6.32169
4.27902
3.25908
2.98432
2.99025
2.87078
2.75297
2.64048
2.537
2.44542
2.36786
2.30546
2.25847
2.22646
2.20893
2.20512
2.21458
2.23718
2.27297
2.32187
2.38348
2.45687
2.54064
2.63301
2.73169
2.83487
2.94114
3.04946
3.1594
3.27123
3.38601
3.50566
3.63279
3.77047
3.92175
4.08919
4.27436
4.47754
4.69764
4.93243
5.17893
5.43394
5.69445
5.95794
6.22239
6.48613
6.74701
7.00173
7.24511
7.46832
7.65818
7.80488
7.89896
7.92636
7.86929
7.71125
7.44382
7.07214
6.6168
6.11043
5.59217
5.08087
4.58145
4.09847
3.63696
3.20151
2.79657
2.42799
2.10517
1.832
1.61072
1.44115
1.3203
1.2424
1.19947
1.18233
1.18171
1.18928
1.19835
1.2046
1.2054
1.19952
1.18688
1.16833
1.14548
1.12022
1.09461
1.07058
1.04965
1.0329
1.02043
1.01159
1.00529
1.00033
0.995709
0.990812
0.985495
0.980076
0.975337
0.972492
0.973182
0.979334
0.992853
1.0154
1.04937
1.09514
1.14817
1.20037
1.24273
1.26759
1.27068
1.25222
1.21675
1.1716
1.12455
1.08131
1.0438
1.0105
0.978797
0.946164
0.910932
0.872979
0.83383
0.796227
0.76335
0.737171
0.719148
0.710337
0.71093
0.720291
0.737088
0.759475
0.785322
0.812523
0.839164
0.86378
0.885473
0.903915
0.919249
0.9318
0.942248
0.95135
0.959871
0.968512
0.977786
0.987824
0.998183
1.00741
1.01323
1.01323
1.00577
0.990914
0.970797
0.949426
0.931853
0.923099
0.926793
0.943476
0.973554
1.01717
1.07381
1.14242
1.22181
1.31079
1.40814
1.51317
1.6256
1.74536
1.87329
2.01135
2.15732
2.30058
2.42653
2.52036
2.57095
2.57341
2.52947
2.44614
2.33353
2.20275
2.06501
1.92768
1.79477
1.66809
1.54873
1.43789
1.33698
1.24734
1.1703
1.10777
1.06098
1.02759
1.00136
0.973723
0.935091
0.876429
0.790755
0.652903
0.443474
0.181276
-0.110781
-0.414669
0
1.43265
4.15527
8.01112
12.3124
16.0544
18.3261
18.6472
17.0747
14.1171
10.5533
7.19786
4.641
3.07221
2.3135
2.03761
1.96221
1.88502
1.80545
1.72337
1.64008
1.55822
1.48201
1.41787
1.37135
1.34658
1.34549
1.36721
1.40814
1.46272
1.52481
1.58928
1.65324
1.71669
1.78089
1.84773
1.91911
1.99645
2.08043
2.17121
2.26868
2.37285
2.48417
2.60381
2.73373
2.87658
3.03538
3.21309
3.41212
3.63388
3.87849
4.14467
4.42983
4.73044
5.0424
5.36141
5.68325
6.00361
6.31624
6.6112
6.87408
7.09213
7.25563
7.35622
7.38671
7.34037
7.21047
6.99146
6.68209
6.28963
5.83967
5.36202
4.88032
4.40919
3.95657
3.53062
3.13741
2.78076
2.46236
2.18199
1.93794
1.72749
1.54736
1.39414
1.2646
1.15586
1.06542
0.991014
0.930607
0.882395
0.844835
0.816726
0.797563
0.787053
0.785022
0.791285
0.805371
0.826342
0.852831
0.883226
0.916036
0.950292
0.985773
1.02295
1.06263
1.10557
1.1521
1.2005
1.24691
1.28663
1.31562
1.33177
1.33566
1.33021
1.31962
1.30796
1.29803
1.29077
1.28611
1.28385
1.28395
1.28672
1.2927
1.30225
1.31522
1.33062
1.34708
1.36313
1.37766
1.39029
1.40153
1.41254
1.42473
1.43923
1.45638
1.47593
1.49698
1.51825
1.53835
1.55603
1.57045
1.58129
1.58867
1.59308
1.59516
1.59551
1.59454
1.59238
1.58889
1.58376
1.57661
1.56709
1.55493
1.53998
1.52223
1.5021
1.48059
1.45964
1.44252
1.43308
1.4349
1.45004
1.47824
1.51673
1.56104
1.60626
1.64852
1.68602
1.71922
1.75046
1.78304
1.82047
1.86505
1.91821
1.98165
2.05661
2.14377
2.24305
2.35447
2.4771
2.60794
2.74181
2.87014
2.9795
3.05752
3.09221
3.07361
2.99688
2.8656
2.69312
2.50051
2.3113
2.14293
1.99557
1.8646
1.74966
1.6493
1.56182
1.48602
1.42159
1.36889
1.32829
1.30136
1.28709
1.2759
1.25386
1.20519
1.10615
0.884321
0.554485
0.154122
-0.277829
0
1.295
3.83331
7.41417
11.374
14.8051
16.9028
17.2203
15.7502
12.8983
9.39012
6.07369
3.61916
2.26501
1.80415
1.81316
1.74956
1.68624
1.62424
1.56526
1.5115
1.46531
1.42859
1.40226
1.38594
1.37835
1.3775
1.37931
1.37901
1.37309
1.3604
1.34262
1.32413
1.31094
1.30919
1.32373
1.35583
1.40349
1.46578
1.54275
1.63484
1.74294
1.86812
2.01113
2.17177
2.34826
2.53805
2.73812
2.94546
3.15779
3.37398
3.59414
3.81921
4.05023
4.28751
4.53003
4.77514
5.01871
5.25544
5.47768
5.67327
5.83129
5.94596
6.01231
6.02522
5.97895
5.86714
5.68353
5.42358
5.08681
4.68696
4.2435
3.77326
3.2929
2.81788
2.36067
1.93191
1.54026
1.19144
0.885845
0.620679
0.393489
0.205702
0.0598077
-0.0480345
-0.118445
-0.149164
-0.138206
-0.0869462
-0.00157928
0.107809
0.230048
0.356003
0.480639
0.602577
0.720976
0.833933
0.938743
1.03242
1.11198
1.17539
1.22243
1.25487
1.27608
1.29006
1.30038
1.30952
1.31864
1.32799
1.33743
1.34671
1.35564
1.36395
1.37104
1.37587
1.37704
1.37309
1.36288
1.34592
1.32248
1.29339
1.25979
1.22288
1.18404
1.14458
1.10603
1.07046
1.04038
1.01821
1.00573
1.00354
1.01142
1.02687
1.04638
1.06638
1.08385
1.09665
1.10311
1.09894
1.0805
1.04324
0.983368
0.900263
0.798438
0.687626
0.580729
0.490332
0.425271
0.38392
0.365077
0.364851
0.378179
0.39967
0.424791
0.450566
0.47335
0.489551
0.495939
0.490494
0.473432
0.447755
0.418821
0.392934
0.375439
0.368445
0.370502
0.379974
0.394706
0.413272
0.436008
0.465449
0.506015
0.563039
0.641426
0.742825
0.867564
1.01844
1.19693
1.39844
1.6025
1.78242
1.91675
1.98926
1.98972
1.91561
1.77277
1.57504
1.34356
1.10518
0.884644
0.692188
0.527581
0.387445
0.271091
0.178955
0.109887
0.0615179
0.0305239
0.0129093
0.00448475
0
-0.0031065
-0.0153435
-0.0434845
-0.0937429
-0.199295
-0.388635
-0.647731
-0.952116
-1.27703
-0.643445
1.10164
3.96803
7.65572
11.5653
14.8729
16.7557
16.7253
14.8641
11.7794
8.31096
5.20369
2.92062
1.59765
1.07602
0.992221
0.858744
0.729227
0.607532
0.497036
0.400444
0.319635
0.255601
0.208515
0.178313
0.164129
0.164704
0.178613
0.20431
0.240142
0.284375
0.335295
0.391377
0.451487
0.514946
0.581788
0.652742
0.729076
0.812417
0.90453
1.00707
1.12135
1.24826
1.38824
1.5414
1.70785
1.88792
2.08241
2.29265
2.52028
2.76686
3.03338
3.31971
3.62432
3.94422
4.27513
4.61267
4.95047
5.274
5.56391
5.80417
5.97996
6.08048
6.10162
6.04614
5.92033
5.7288
5.47032
5.14422
4.76179
4.34194
3.90187
3.45434
3.01104
2.58418
2.18544
1.82468
1.50877
1.24105
1.02113
0.845438
0.708854
0.6047
0.523631
0.456809
0.396899
0.338739
0.279561
0.218718
0.156958
0.095455
0.0348639
-0.0253479
-0.0871334
-0.153146
-0.227394
-0.313059
-0.399229
-0.466574
-0.494014
-0.467007
-0.383191
-0.252628
-0.0928747
0.0780319
0.246807
0.407607
0.551502
0.671221
0.75717
0.800219
0.79699
0.754195
0.689052
0.625038
0.584607
0.577404
0.595354
0.631101
0.680141
0.736654
0.794722
0.849092
0.89631
0.935101
0.96628
0.992263
1.01632
1.04173
1.07108
1.10568
1.14499
1.18751
1.23099
1.27221
1.30653
1.32918
1.33603
1.32432
1.29345
1.24548
1.18518
1.11932
1.05554
1.00094
0.958963
0.931976
0.921064
0.925839
0.944886
0.976213
1.01756
1.06625
1.11989
1.17571
1.23006
1.27899
1.31896
1.34744
1.36334
1.36718
1.36065
1.34605
1.32564
1.30126
1.2743
1.24556
1.21577
1.18591
1.15735
1.13185
1.11126
1.09731
1.09209
1.0972
1.11379
1.14343
1.18852
1.25224
1.33786
1.44757
1.58119
1.73524
1.90248
2.07369
2.23737
2.38252
2.50025
2.58471
2.63319
2.64549
2.62322
2.56918
2.48704
2.38273
2.26277
2.13283
1.99887
1.86659
1.74085
1.62576
1.52288
1.43223
1.35314
1.28498
1.2275
1.18039
1.14325
1.11342
1.08014
1.02801
0.940306
0.791051
0.575404
0.303734
0
0.158718
1.3808
3.7959
7.20382
11.1153
14.8115
17.4705
18.419
17.4347
14.8802
11.538
8.25419
5.6316
3.9168
3.04955
2.76784
2.69233
2.57423
2.45712
2.34432
2.23842
2.14125
2.0539
1.97541
1.90427
1.83938
1.7826
1.73703
1.7081
1.70193
1.72308
1.77269
1.84774
1.94181
2.04682
2.15522
2.26251
2.36709
2.46918
2.57055
2.67388
2.78211
2.8978
3.02276
3.15784
3.30326
3.45879
3.62402
3.79855
3.98203
4.17414
4.37452
4.58266
4.79773
5.01857
5.24359
5.47075
5.69771
5.92169
6.13965
6.34855
6.5443
6.71936
6.86356
6.97219
7.03174
7.02016
6.91308
6.69255
6.35397
5.90966
5.38923
4.83659
4.2956
3.77988
3.29575
2.85203
2.45408
2.10377
1.8
1.53966
1.31898
1.13511
0.983993
0.862163
0.766457
0.693593
0.641151
0.604489
0.578667
0.559053
0.541984
0.525214
0.507995
0.490791
0.474737
0.46104
0.450327
0.442763
0.438164
0.436024
0.43568
0.436444
0.437654
0.438645
0.438662
0.436715
0.431598
0.422432
0.408929
0.391811
0.373015
0.355525
0.342773
0.3389
0.347991
0.369361
0.394156
0.410065
0.405268
0.372244
0.310102
0.224841
0.127719
0.0325005
-0.0478703
-0.108082
-0.148592
-0.170716
-0.175283
-0.16455
-0.141927
-0.111251
-0.0775352
-0.0451439
-0.0171318
0.00507393
0.0215595
0.0334187
0.0420197
0.0483097
0.0523464
0.0533352
0.0499432
0.0408615
0.0253078
0.00331001
-0.024308
-0.0561432
-0.0904915
-0.12552
-0.159648
-0.191427
-0.219536
-0.242846
-0.260493
-0.272084
-0.277467
-0.276711
-0.270045
-0.257749
-0.239939
-0.216452
-0.186732
-0.14978
-0.104148
-0.0480305
0.0205578
0.103507
0.202261
0.317431
0.448423
0.59319
0.748672
0.910428
1.06925
1.21154
1.32456
1.39872
1.42948
1.41781
1.36909
1.29087
1.19062
1.07461
0.950241
0.822843
0.696221
0.574445
0.461698
0.361701
0.277282
0.20986
0.158286
0.119532
0.0892445
0.0624512
0.0342049
0
-0.0344025
-0.0819954
-0.145458
-0.229771
-0.350639
-0.50645
-0.690201
-0.889495
-0.791819
0.232032
2.38611
5.52753
9.18659
12.6446
15.0897
15.8887
14.8707
12.4232
9.30222
6.29027
3.93278
2.45768
1.81354
1.74356
1.77225
1.74012
1.70174
1.65869
1.61362
1.5706
1.5344
1.50957
1.49981
1.50747
1.53333
1.57678
1.63625
1.70986
1.79601
1.89311
1.99996
2.11557
2.23866
2.36771
2.50066
2.63486
2.76784
2.89814
3.02602
3.15363
3.28479
3.42426
3.57682
3.74638
3.9349
4.14255
4.36891
4.61299
4.87348
5.14896
5.43789
5.73835
6.04755
6.36141
6.67398
6.97267
7.24345
7.47364
7.65517
7.78626
7.87055
7.91398
7.92075
7.8903
7.82206
7.70858
7.54236
7.31873
7.03781
6.70509
6.33091
5.93342
5.52747
5.12403
4.73327
4.364
4.02309
3.71522
3.44277
3.20609
3.00386
2.8336
2.69217
2.57611
2.48265
2.40937
2.3517
2.30506
2.26529
2.22909
2.19451
2.16112
2.12981
2.10231
2.08038
2.06482
2.0564
2.05435
2.05677
2.06119
2.0652
2.06688
2.06513
2.05968
2.05095
2.03987
2.0278
2.01611
2.00623
1.99952
1.99718
2.0001
2.00797
2.01955
2.03289
2.04573
2.05603
2.06226
2.06365
2.06001
2.05152
2.03855
2.02124
1.9995
1.97313
1.94201
1.90628
1.86663
1.82441
1.78164
1.74078
1.70443
1.67496
1.65445
1.64474
1.64572
1.65591
1.67301
1.6943
1.71693
1.73804
1.75434
1.76292
1.7616
1.74964
1.72847
1.70166
1.67555
1.65732
1.65305
1.6661
1.69633
1.74041
1.79302
1.84843
1.90203
1.95165
1.9962
2.03539
2.06967
2.09999
2.1277
2.15451
2.18259
2.21465
2.25409
2.30468
2.37012
2.45343
2.55787
2.69046
2.85083
3.02484
3.19073
3.32731
3.41888
3.45762
3.44341
3.38145
3.27942
3.14521
2.98683
2.81491
2.63913
2.46601
2.30063
2.14748
2.01004
1.89037
1.78856
1.70315
1.63202
1.57301
1.52312
1.4798
1.44091
1.40499
1.36937
1.29984
1.05848
0.671167
0.275498
0
0.522651
2.11998
4.90227
8.56412
12.4315
15.6828
17.6026
17.7656
16.1551
13.2128
9.74014
6.59618
4.32619
2.98318
2.27676
1.89636
1.79343
1.69538
1.60549
1.52644
1.4601
1.40746
1.36865
1.34306
1.32951
1.32653
1.33241
1.3455
1.3644
1.38818
1.41649
1.44965
1.48868
1.53517
1.59107
1.65829
1.73837
1.83205
1.93904
2.05794
2.18646
2.32187
2.46163
2.60405
2.74874
2.89685
3.05084
3.2141
3.39022
3.58225
3.792
4.0198
4.26436
4.52297
4.79201
5.06745
5.34553
5.62295
5.89642
6.16101
6.40964
6.63568
6.82646
6.96354
7.02921
7.01188
6.90581
6.70724
6.41253
6.02244
5.56879
5.08429
4.5917
4.10609
3.63751
3.19579
2.78869
2.42136
2.09615
1.81282
1.56898
1.36087
1.18412
1.0345
0.908529
0.803732
0.718688
0.652709
0.605717
0.579261
0.573838
0.585185
0.607438
0.634007
0.658728
0.676888
0.685819
0.684922
0.675225
0.658735
0.638015
0.615028
0.591145
0.567264
0.543878
0.521173
0.499057
0.477166
0.454892
0.431439
0.406076
0.378421
0.348744
0.318155
0.288572
0.262437
0.242221
0.230095
0.227683
0.234855
0.250457
0.272783
0.300071
0.330788
0.363612
0.397186
0.42967
0.458605
0.481186
0.494844
0.497998
0.490648
0.474588
0.45313
0.430399
0.410381
0.395796
0.387651
0.386016
0.39016
0.398389
0.408661
0.419041
0.42805
0.434846
0.439214
0.441409
0.441905
0.441154
0.439377
0.43646
0.431978
0.425278
0.415659
0.402711
0.386554
0.368036
0.348793
0.331107
0.317564
0.310616
0.312403
0.324881
0.34853
0.383458
0.429995
0.489118
0.562521
0.652214
0.7598
0.885663
1.02836
1.18322
1.34648
1.51204
1.66864
1.80452
1.90947
1.97621
2.0014
1.98587
1.93397
1.85231
1.74848
1.63125
1.50943
1.38911
1.27486
1.17072
1.08018
1.00536
0.946814
0.903578
0.873084
0.851415
0.834075
0.816544
0.794704
0.764978
0.72019
0.633628
0.426182
0.114962
-0.229003
-0.510699
-0.698374
0
1.75046
4.73134
8.71973
12.9983
16.5571
18.507
18.4374
16.5216
13.3841
9.8597
6.73106
4.48949
3.19573
2.54939
2.15851
1.97455
1.79949
1.64014
1.50155
1.3866
1.29597
1.22856
1.18221
1.15439
1.14229
1.14353
1.15631
1.1793
1.21152
1.25217
1.30056
1.35604
1.41799
1.48595
1.55976
1.63948
1.72534
1.81778
1.91736
2.02467
2.14028
2.26466
2.39812
2.54082
2.69292
2.85462
3.02633
3.20869
3.4025
3.60856
3.82743
4.05921
4.30338
4.55879
4.82371
5.09598
5.37369
5.65488
5.9358
6.20653
6.45091
6.65009
6.78442
6.83947
6.81072
6.70241
6.52167
6.27335
5.96047
5.6017
5.2183
4.82458
4.43073
4.04401
3.67126
3.31933
2.99423
2.70073
2.4419
2.21897
2.03142
1.87667
1.75085
1.64933
1.56738
1.50071
1.44612
1.40155
1.36602
1.33952
1.32285
1.31709
1.32321
1.3417
1.37226
1.41367
1.46373
1.51948
1.5774
1.63376
1.68495
1.72787
1.76014
1.78026
1.78755
1.78213
1.76479
1.73688
1.70034
1.65771
1.61157
1.56473
1.52013
1.48065
1.44883
1.42699
1.41649
1.41754
1.42911
1.44925
1.47491
1.50214
1.52707
1.54648
1.55831
1.56177
1.55721
1.54577
1.52908
1.50935
1.48869
1.4695
1.45456
1.44676
1.44861
1.46194
1.48901
1.52937
1.5755
1.61737
1.6461
1.65682
1.65001
1.63055
1.60513
1.5791
1.55447
1.5299
1.50356
1.4744
1.44335
1.41366
1.39021
1.37796
1.38028
1.39774
1.42885
1.47066
1.5202
1.57587
1.63818
1.70941
1.79253
1.88963
2.00041
2.12109
2.24715
2.37369
2.49461
2.60291
2.69212
2.75688
2.79318
2.7982
2.77063
2.71108
2.62249
2.51024
2.38187
2.24628
2.11264
1.98846
1.8778
1.78361
1.70783
1.65092
1.61223
1.58999
1.58116
1.58201
1.58867
1.5971
1.60325
1.60287
1.56726
1.32598
0.8501
0.242682
-0.341586
0
1.59183
4.43844
8.14333
12.0216
15.2356
17.0023
16.884
15.0162
12.0656
8.90002
6.2005
4.27353
3.10826
2.52777
2.32057
2.20648
2.09491
1.98593
1.87949
1.77574
1.67533
1.57987
1.49251
1.41826
1.36266
1.33098
1.32651
1.34917
1.39494
1.45659
1.52548
1.59392
1.65733
1.71589
1.77191
1.82808
1.88748
1.95304
2.02677
2.11023
2.20483
2.31183
2.43253
2.56824
2.72014
2.88912
3.07552
3.27895
3.49828
3.73172
3.977
4.23164
4.49317
4.75923
5.02769
5.29644
5.563
5.82251
6.06608
6.28229
6.45982
6.58786
6.65786
6.66417
6.60336
6.47299
6.27073
5.99495
5.64718
5.23959
4.79352
4.32979
3.86362
3.40651
2.96886
2.55948
2.1848
1.84865
1.55224
1.29455
1.07316
0.88507
0.728062
0.600985
0.501445
0.426866
0.375278
0.344874
0.333602
0.338906
0.357726
0.386692
0.42246
0.46179
0.502404
0.542919
0.58256
0.620988
0.658064
0.693494
0.726384
0.755
0.777335
0.791457
0.79637
0.79267
0.782663
0.769783
0.757509
0.74823
0.742297
0.738586
0.735327
0.73066
0.723319
0.713002
0.700359
0.686626
0.673159
0.661003
0.650628
0.642231
0.635876
0.631553
0.629237
0.628885
0.630379
0.633416
0.637451
0.641699
0.645169
0.646742
0.645505
0.640966
0.633255
0.623201
0.612242
0.602139
0.594581
0.590778
0.591106
0.595234
0.602246
0.610924
0.620048
0.628605
0.63587
0.641317
0.644689
0.645985
0.64559
0.644455
0.644247
0.647356
0.656744
0.675634
0.707064
0.753281
0.815635
0.894675
0.990212
1.10088
1.22406
1.3569
1.49299
1.62173
1.73232
1.81577
1.8665
1.88288
1.86669
1.82181
1.7527
1.66337
1.55981
1.44625
1.32541
1.20002
1.07331
0.948818
0.829988
0.719871
0.620632
0.533171
0.457114
0.390417
0.328978
0.267533
0.200084
0.114511
-0.0273266
-0.282644
-0.60836
-0.949126
-1.26552
-1.09337
0
2.18473
5.39629
9.25008
13.0696
15.9978
17.2527
16.4833
13.9993
10.6488
7.38314
4.82662
3.13852
2.17209
1.69265
1.53181
1.45566
1.40443
1.38832
1.41234
1.47452
1.56596
1.67336
1.7831
1.8851
1.97816
2.065
2.14786
2.22855
2.30882
2.3902
2.47379
2.56018
2.64944
2.74123
2.83498
2.92997
3.02561
3.12147
3.21746
3.31395
3.41179
3.51239
3.61764
3.72977
3.85116
3.9841
4.13065
4.29231
4.47004
4.66402
4.87339
5.09604
5.32848
5.56586
5.80227
6.03127
6.24658
6.44281
6.61571
6.76139
6.87403
6.94398
6.9647
6.92918
6.8287
6.65486
6.40244
6.07197
5.67143
5.21618
4.72733
4.23078
3.74362
3.27996
2.85108
2.4646
2.12426
1.83012
1.5792
1.36639
1.18551
1.03038
0.895721
0.777742
0.674453
0.585336
0.510851
0.452119
0.410647
0.387501
0.380926
0.383579
0.387383
0.385867
0.376096
0.359417
0.34074
0.326618
0.322842
0.332312
0.352078
0.378546
0.408481
0.438441
0.465652
0.488656
0.507652
0.524465
0.542178
0.564481
0.594873
0.635491
0.686945
0.748505
0.818275
0.891384
0.960923
1.02037
1.06501
1.09278
1.10427
1.10194
1.08888
1.06766
1.03993
1.00667
0.967653
0.92289
0.873051
0.819942
0.766772
0.717447
0.675865
0.645202
0.627382
0.622813
0.630403
0.647805
0.671521
0.697972
0.72386
0.746223
0.762779
0.772099
0.773206
0.766194
0.751996
0.732275
0.709207
0.685138
0.662155
0.641929
0.624861
0.609585
0.593701
0.574763
0.551381
0.524016
0.495165
0.468891
0.449912
0.442507
0.449117
0.470447
0.507368
0.560948
0.632037
0.721263
0.828891
0.954588
1.09997
1.27021
1.47044
1.69104
1.90052
2.06437
2.15261
2.14755
2.04906
1.87321
1.64439
1.3876
1.1277
0.884954
0.66382
0.464473
0.287684
0.134869
0.00665512
104
308
507
709
904
1095
1296
1498
1700
1914
2126
2335
2552
2759
2964
3169
3369
3566
3599
2606
2764
2921
3077
3235
3394
3716
0
0
0
0
0
0
0
0
0
0
0
0
0
0
0
0
0
0
0
0
0
0
0
0
0
0
0
0
0
0
0
0
0
0
0
0
0
0
0
0
0
0
0
0
0
0
0
0
0
0
0
0
0
0
0
0
0
0
0
0
0
0
0
0
0
0
0
0
0
0
0
0
0
0
0
0
0
0
0
0
0
0
0
0
0
0
0
0
0
0
0
0
0
0
0
0
0
0
0
0
0
0
0
0
0
0
0
0
0
0
0
0
0
0
0
0
0
0
0
0
0
0
0
0
0
0
0
0
0
0
0
0
0
0
0
0
0
0
0
0
0
0
0
0
0
0
0
0
0
0
0
0
0
0
0
0
0
0
0
0
0
0
0
0
0
0
0
0
0
0
0
0
0
0
0
0
0
0
0
0
0
0
0
0
0
0
0
0
0
0
0
0
0
0
0
0
0
0
0
0
0
0
0
0
0
0
0
0
0
0
0
0
0
0
0
0
0
0
0
0
0
0
0
0
0
0
0
0
0
0
0
0
0
0
0
0
0
0
0
0
0
0
0
0
0
0
0
0
0
0
0
0
0
0
0
0
0
0
0
0
0
0
0
0
0
0
0
0
0
0
0
0
0
0
0
0
0
0
0
0
0
0
0
0
0
0
0
0
0
0
0
0
0
0
0
0
0
0
0
0
0
0
0
0
0
0
0
0
0
0
0
0
0
0
0
0
0
0
0
0
0
0
0
0
0
0
0
0
0
0
0
0
0
0
0
0
0
0
0
0
0
0
0
0
0
0
0
0
0
0
0
0
0
0
0
0
0
0
0
0
0
0
0
0
0
0
0
0
0
0
0
0
0
0
0
0
0
0
0
0
0
0
0
0
0
0
0
0
0
0
0
0
0
0
0
0
0
0
0
0
0
0
0
0
0
0
0
0
0
0
0
0
0
0
0
0
0
0
0
0
0
0
0
0
0
0
0
0
0
0
0
0
0
0
0
0
0
0
0
0
0
0
0
0
0
0
0
0
0
0
0
0
0
0
0
0
0
0
0
0
0
0
0
0
0
0
0
0
0
0
0
0
0
0
0
0
0
0
0
0
0
0
0
0
0
0
0
0
0
0
0
0
0
0
0
0
0
0
0
0
0
0
0
0
0
0
0
0
0
0
0
0
0
0
0
0
0
0
0
0
0
0
0
0
0
0
0
0
0
0
0
0
0
0
0
0
0
0
0
0
0
0
0
0
0
0
0
0
0
0
0
0
0
0
0
0
0
0
0
0
0
0
0
0
0
0
0
0
0
0
0
0
0
0
0
0
0
0
0
0
0
0
0
0
0
0
0
0
0
0
0
0
0
0
0
0
0
0
0
0
0
0
0
0
0
0
0
0
0
0
0
0
0
0
0
0
0
0
0
0
0
0
0
0
0
0
0
0
0
0
0
0
0
0
0
0
0
0
0
0
0
0
0
0
0
0
0
0
0
0
0
0
0
0
0
0
0
0
0
0
0
0
0
0
0
0
0
0
0
0
0
0
0
0
0
0
0
0
0
0
0
0
0
0
0
0
0
0
0
0
0
0
0
0
0
0
0
0
0
0
0
0
0
0
0
0
0
0
0
0
0
0
0
0
0
0
0
0
0
0
0
0
0
0
0
0
0
0
0
0
0
0
0
0
0
0
0
0
0
0
0
0
0
0
0
0
0
0
0
0
0
0
0
0
0
0
0
0
0
0
0
0
0
0
0
0
0
0
0
0
0
0
0
0
0
0
0
0
0
0
0
0
0
0
0
0
0
0
0
0
0
0
0
0
0
0
0
0
0
0
0
0
0
0
0
0
0
0
0
0
0
0
0
0
0
0
0
0
0
0
0
0
0
0
0
0
0
0
0
0
0
0
0
0
0
0
0
0
0
0
0
0
0
0
0
0
0
0
0
0
0
0
0
0
0
0
0
0
0
0
0
0
0
0
0
0
0
0
0
0
0
0
0
0
0
0
0
0
0
0
0
0
0
0
0
0
0
0
0
0
0
0
0
0
0
0
0
0
0
0
0
0
0
0
0
0
0
0
0
0
0
0
0
0
0
0
0
0
0
0
0
0
0
0
0
0
0
0
0
0
0
0
0
0
0
0
0
0
0
0
0
0
0
0
0
0
0
0
0
0
0
0
0
0
0
0
0
0
0
0
0
0
0
0
0
0
0
0
0
0
0
0
0
0
0
0
0
0
0
0
0
0
0
0
0
0
0
0
0
0
0
0
0
0
0
0
0
0
0
0
0
0
0
0
0
0
0
0
0
0
0
0
0
0
0
0
0
0
0
0
0
0
0
0
0
0
0
0
0
0
0
0
0
0
0
0
0
0
0
0
0
0
0
0
0
0
0
0
0
0
0
0
0
0
0
0
0
0
0
0
0
0
0
0
0
0
0
0
0
0
0
0
0
0
0
0
0
0
0
0
0
0
0
0
0
0
0
0
0
0
0
0
0
0
0
0
0
0
0
0
0
0
0
0
0
0
0
0
0
0
0
0
0
0
0
0
0
0
0
0
0
0
0
0
0
0
0
0
0
0
0
0
0
0
0
0
0
0
0
0
0
0
0
0
0
0
0
0
0
0
0
0
0
0
0
0
0
0
0
0
0
0
0
0
0
0
0
0
0
0
0
0
0
0
0
0
0
0
0
0
0
0
0
0
0
0
0
0
0
0
0
0
0
0
0
0
0
0
0
0
0
0
0
0
0
0
0
0
0
0
0
0
0
0
0
0
0
0
0
0
0
0
0
0
0
0
0
0
0
0
0
0
0
0
0
0
0
0
0
0
0
0
0
0
0
0
0
0
0
0
0
0
0
0
0
0
0
0
0
0
0
0
0
0
0
0
0
0
0
0
0
0
0
0
0
0
0
0
0
0
0
0
0
0
0
0
0
0
0
0
0
0
0
0
0
0
0
0
0
0
0
0
0
0
0
0
0
0
0
0
0
0
0
0
0
0
0
0
0
0
0
0
0
0
0
0
0
0
0
0
0
0
0
0
0
0
0
0
0
0
0
0
0
0
0
0
0
0
0
0
0
0
0
0
0
0
0
0
0
0
0
0
0
0
0
0
0
0
0
0
0
0
0
0
0
0
0
0
0
0
0
0
0
0
0
0
0
0
0
0
0
0
0
0
0
0
0
0
0
0
0
0
0
0
0
0
0
0
0
0
0
0
0
0
0
0
0
0
0
0
0
0
0
0
0
0
0
0
0
0
0
0
0
0
0
0
0
0
0
0
0
0
0
0
0
0
0
0
0
0
0
0
0
0
0
0
0
0
0
0
0
0
0
0
0
0
0
0
0
0
0
0
0
0
0
0
0
0
0
0
0
0
0
0
0
0
0
0
0
0
0
0
0
0
0
0
0
0
0
0
0
0
0
0
0
0
0
0
0
0
0
0
0
0
0
0
0
0
0
0
0
0
0
0
0
0
0
0
0
0
0
0
0
0
0
0
0
0
0
0
0
0
0
0
0
0
0
0
0
0
0
0
0
0
0
0
0
0
0
0
0
0
0
0
0
0
0
0
0
0
0
0
0
0
0
0
0
0
0
0
0
0
0
0
0
0
0
0
0
0
0
0
0
0
0
0
0
0
0
0
0
0
0
0
0
0
0
0
0
0
0
0
0
0
0
0
0
0
0
0
0
0
0
0
0
0
0
0
0
0
0
0
0
0
0
0
0
0
0
0
0
0
0
0
0
0
0
0
0
0
0
0
0
0
0
0
0
0
0
0
0
0
0
0
0
0
0
0
0
0
0
0
0
0
0
0
0
0
0
0
0
0
0
0
0
0
0
0
0
0
0
0
0
0
0
0
0
0
0
0
0
0
0
0
0
0
0
0
0
0
0
0
0
0
0
0
0
0
0
0
0
0
0
0
0
0
0
0
0
0
0
0
0
0
0
0
0
0
0
0
0
0
0
0
0
0
0
0
0
0
0
0
0
0
0
0
0
0
0
0
0
0
0
0
0
0
0
0
0
0
0
0
0
0
0
0
0
0
0
0
0
0
0
0
0
0
0
0
0
0
0
0
0
0
0
0
0
0
0
0
0
0
0
0
0
0
0
0
0
0
0
0
0
0
0
0
0
0
0
0
0
0
0
0
0
0
0
0
0
0
0
0
0
0
0
0
0
0
0
0
0
0
0
0
0
0
0
0
0
0
0
0
0
0
0
0
0
0
0
0
0
0
0
0
0
0
0
0
0
0
0
0
0
0
0
0
0
0
0
0
0
0
0
0
0
0
0
0
0
0
0
0
0
0
0
0
0
0
0
0
0
0
0
0
0
0
0
0
0
0
0
0
0
0
0
0
0
0
0
0
0
0
0
0
0
0
0
0
0
0
0
0
0
0
0
0
0
0
0
0
0
0
0
0
0
0
0
0
0
0
0
0
0
0
0
0
0
0
0
0
0
0
0
0
0
0
0
0
0
0
0
0
0
0
0
0
0
0
0
0
0
0
0
0
0
0
0
0
0
0
0
0
0
0
0
0
0
0
0
0
0
0
0
0
0
0
0
0
0
0
0
0
0
0
0
0
0
0
0
0
0
0
0
0
0
0
0
0
0
0
0
0
0
0
0
0
0
0
0
0
0
0
0
0
0
0
0
0
0
0
0
0
0
0
0
0
0
0
0
0
0
0
0
0
0
0
0
0
0
0
0
0
0
0
0
0
0
0
0
0
0
0
0
0
0
0
0
0
0
0
0
0
0
0
0
0
0
0
0
0
0
0
0
0
0
0
0
0
0
0
0
0
0
0
0
0
0
0
0
0
0
0
0
0
0
0
0
0
0
0
0
0
0
0
0
0
0
0
0
0
0
0
0
0
0
0
0
0
0
0
0
0
0
0
0
0
0
0
0
0
0
0
0
0
0
0
0
0
0
0
0
0
0
0
0
0
0
0
0
0
0
0
0
0
0
0
0
0
0
0
0
0
0
0
0
0
0
0
0
0
0
0
0
0
0
0
0
0
0
0
0
0
0
0
0
0
0
0
0
0
0
0
0
0
0
0
0
0
0
0
0
0
0
0
0
0
0
0
0
0
0
0
0
0
0
0
0
0
0
0
0
0
0
0
0
0
0
0
0
0
0
0
0
0
0
0
0
0
0
0
0
0
0
0
0
0
0
0
0
0
0
0
0
0
0
0
0
0
0
0
0
0
0
0
0
0
0
0
0
0
0
0
0
0
0
0
0
0
0
0
0
0
0
0
0
0
0
0
0
0
0
0
0
0
0
0
0
0
0
0
0
0
0
0
0
0
0
0
0
0
0
0
0
0
0
0
0
0
0
0
0
0
0
0
0
0
0
0
0
0
0
0
0
0
0
0
0
0
0
0
0
0
0
0
0
0
0
0
0
0
0
0
0
0
0
0
0
0
0
0
0
0
0
0
0
0
0
0
0
0
0
0
0
0
0
0
0
0
0
0
0
0
0
0
0
0
0
0
0
0
0
0
0
0
0
0
0
0
0
0
0
0
0
0
0
0
0
0
0
0
0
0
0
0
0
0
0
0
0
0
0
0
0
0
0
0
0
0
0
0
0
0
0
0
0
0
0
0
0
0
0
0
0
0
0
0
0
0
0
0
0
0
0
0
0
0
0
0
0
0
0
0
0
0
0
0
0
0
0
0
0
0
0
0
0
0
0
0
0
0
0
0
0
0
0
0
0
0
0
0
0
0
0
0
0
0
0
0
0
0
0
0
0
0
0
0
0
0
0
0
0
0
0
0
0
0
0
0
0
0
0
0
0
0
0
0
0
0
0
0
0
0
0
0
0
0
0
0
0
0
0
0
0
0
0
0
0
0
0
0
0
0
0
0
0
0
0
0
0
0
0
0
0
0
0
0
0
0
0
0
0
0
0
0
0
0
0
0
0
0
0
0
0
0
0
0
0
0
0
0
0
0
0
0
0
0
0
0
0
0
0
0
0
0
0
0
0
0
0
0
0
0
0
0
0
0
0
0
0
0
0
0
0
0
0
0
0
0
0
0
0
0
0
0
0
0
0
0
0
0
0
0
0
0
0
0
0
0
0
0
0
0
0
0
0
0
0
0
0
0
0
0
0
0
0
0
0
0
0
0
0
0
0
0
0
0
0
0
0
0
0
0
0
0
0
0
0
0
0
0
0
0
0
0
0
0
0
0
0
0
0
0
0
0
0
0
0
0
0
0
0
0
0
0
0
0
0
0
0
0
0
0
0
0
0
0
0
0
0
0
0
0
0
0
0
0
0
0
0
0
0
0
0
0
0
0
0
0
0
0
0
0
0
0
0
0
0
0
0
0
0
0
0
0
0
0
0
0
0
0
0
0
0
0
0
0
0
0
0
0
0
0
0
0
0
0
0
0
0
0
0
0
0
0
0
0
0
0
0
0
0
0
0
0
0
0
0
0
0
0
0
0
0
0
0
0
0
0
0
0
0
0
0
0
0
0
0
0
0
0
0
0
0
0
0
0
0
0
0
0
0
0
0
0
0
0
0
0
0
0
0
0
0
0
0
0
0
0
0
0
0
0
0
0
0
0
0
0
0
0
0
0
0
0
0
0
0
0
0
0
0
0
0
0
0
0
0
0
0
0
0
0
0
0
0
0
0
0
0
0
0
0
0
0
0
0
0
0
0
0
0
0
0
0
0
0
0
0
0
0
0
0
0
0
0
0
0
0
0
0
0
0
0
0
0
0
0
0
0
0
0
0
0
0
0
0
0
0
0
0
0
0
0
0
0
0
0
0
0
0
0
0
0
0
0
0
0
0
0
0
0
0
0
0
0
0
0
0
0
0
0
0
0
0
0
0
0
0
0
0
0
0
0
0
0
0
0
0
0
0
0
0
0
0
0
0
0
0
0
0
0
0
0
0
0
0
0
0
0
0
0
0
0
0
0
0
0
0
0
0
0
0
0
0
0
0
0
0
0
0
0
0
0
0
0
0
0
0
0
0
0
0
0
0
0
0
0
0
0
0
0
0
0
0
0
0
0
0
0
0
0
0
0
0
0
0
0
0
0
0
0
0
0
0
0
0
0
0
0
0
0
0
0
0
0
0
0
0
0
0
0
0
0
0
0
0
0
0
0
0
0
0
0
0
0
0
0
0
0
0
0
0
0
0
0
0
0
0
0
0
0
0
0
0
0
0
0
0
0
0
0
0
0
0
0
0
0
0
0
0
0
0
0
0
0
0
0
0
0
0
0
0
0
0
0
0
0
0
0
0
0
0
0
0
0
0
0
0
0
0
0
0
0
0
0
0
0
0
0
0
0
0
0
0
0
0
0
0
0
0
0
0
0
0
0
0
0
0
0
0
0
0
0
0
0
0
0
0
0
0
0
0
0
0
0
0
0
0
0
0
0
0
0
0
0
0
0
0
0
0
0
0
0
0
0
0
0
0
0
0
0
0
0
0
0
0
0
0
0
0
0
0
0
0
0
0
0
0
0
0
0
0
0
0
0
0
0
0
0
0
0
0
0
0
0
0
0
0
0
0
0
0
0
0
0
0
0
0
0
0
0
0
0
0
0
0
0
0
0
0
0
0
0
0
0
0
0
0
0
0
0
0
0
0
0
0
0
0
0
0
0
0
0
0
0
0
0
0
0
0
0
0
0
0
0
0
0
0
0
0
0
0
0
0
0
0
0
0
0
0
0
0
0
0
0
0
0
0
0
0
0
0
0
0
0
0
0
0
0
0
0
0
0
0
0
0
0
0
0
0
0
0
0
0
0
0
0
0
0
0
0
0
0
0
0
0
0
0
0
0
0
0
0
0
0
0
0
0
0
0
0
0
0
0
0
0
0
0
0
0
0
0
0
0
0
0
0
0
0
0
0
0
0
0
0
0
0
0
0
0
0
0
0
0
0
0
0
0
0
0
0
0
0
0
0
0
0
0
0
0
0
0
0
0
0
0
0
0
0
0
0
0
0
0
0
0
0
0
0
0
0
0
0
0
0
0
0
0
0
0
0
0
0
0
0
0
0
0
0
0
0
0
0
0
0
0
0
0
0
0
0
0
0
0
0
0
0
0
0
0
0
0
0
0
0
0
0
0
0
0
0
0
0
0
0
0
0
0
0
0
0
0
0
0
0
0
0
0
0
0
0
0
0
0
0
0
0
0
0
0
0
0
0
0
0
0
0
0
0
0
0
0
0
0
0
0
0
0
0
0
0
0
0
0
0
0
0
0
0
0
0
0
0
0
0
0
0
0
0
0
0
0
0
0
0
0
0
0
0
0
0
0
0
0
0
0
0
0
0
0
0
0
0
0
0
0
0
0
0
0
0
0
0
0
0
0
0
0
0
0
0
0
0
0
0
0
0
0
0
0
0
0
0
0
0
0
0
0
0
0
0
0
0
0
0
0
0
0
0
0
0
0
0
0
0
0
0
0
0
0
0
0
0
0
0
0
0
