0.303227
0.325622
0.348433
0.370537
0.391042
0.409257
0.424592
0.436454
0.444238
0.447394
0.445537
0.438655
0.427277
0.412544
0.396119
0.379915
0.365703
0.354785
0.34792
0.344257
0.341282
0.336022
0.326156
0.310967
0.291758
0.271554
0.254164
0.242937
0.23914
0.24211
0.25034
0.260946
0.270652
0.276525
0.276496
0.26957
0.255803
0.236206
0.212735
0.188462
0.168105
0.158656
0.167702
0.201757
0.263977
0.352386
0.459495
0.573696
0.682059
0.773508
0.844034
0.891623
0.917762
0.92611
0.920865
0.906089
0.884331
0.856064
0.820461
0.776116
0.72159
0.65596
0.578478
0.487835
0.386247
0.281968
0.184751
0.102871
0.041118
0
0.0696002
0.394329
0.907642
1.63949
2.55931
3.55302
4.43375
4.97837
4.98669
4.35028
3.111
1.48043
-0.201861
-1.56837
-2.34617
-2.44941
-1.99908
-1.25708
-0.513509
0.0227279
0.27574
0.26903
0.241605
0.215624
0.193539
0.177974
0.171004
0.173293
0.184695
0.204431
0.231222
0.262764
0.296034
0.327898
0.355546
0.376891
0.390828
0.397373
0.397664
0.393862
0.388976
0.386445
0.389855
0.402527
0.427055
0.464901
0.516132
0.579404
0.652216
0.731401
0.813759
0.896738
0.978958
1.06041
1.14241
1.2272
1.31734
1.41489
1.52066
1.6338
1.75214
1.87018
1.98091
2.07767
2.15569
2.21306
2.25094
2.27289
2.28378
2.28835
2.29017
2.29069
2.28923
2.28327
2.26883
2.24108
2.19516
2.12689
2.03344
1.91394
1.76972
1.6044
1.4236
1.23474
1.04536
0.862079
0.690565
0.535249
0.399715
0.285018
0.188941
0.10786
0.0377854
-0.0247032
-0.0818638
-0.134684
-0.183192
-0.22698
-0.265884
-0.299853
-0.329114
-0.353992
-0.374684
-0.391118
-0.402938
-0.409604
-0.410636
-0.405844
-0.394988
-0.37818
-0.35549
-0.327222
-0.296739
-0.2704
-0.254821
-0.254293
-0.268315
-0.290565
-0.31013
-0.314829
-0.29544
-0.252495
-0.193512
-0.123276
-0.0505191
0.015655
0.0676353
0.100599
0.113006
0.10632
0.0842105
0.0515548
0.013559
-0.0249905
-0.0607747
-0.0917419
-0.116666
-0.134409
-0.144899
-0.150945
-0.156141
-0.163733
-0.175485
-0.190997
-0.207781
-0.222095
-0.230232
-0.229769
-0.221677
-0.207549
-0.188949
-0.167715
-0.145499
-0.123347
-0.101591
-0.0798826
-0.0573707
-0.0329696
-0.00565085
0.0253038
0.0601409
0.0985709
0.1398
0.182608
0.225473
0.266666
0.304267
0.336168
0.360359
0.375209
0.37949
0.372563
0.354545
0.326394
0.289882
0.247436
0.201905
0.156267
0.113278
0.0753847
0.0444069
0.0214386
0.00678625
0
-0.000586462
0.00411322
0.0125505
0.026996
0.112417
0.423311
1.00111
1.81885
2.78884
3.764
4.52329
4.78839
4.3217
3.08045
1.31731
-0.478482
-1.79667
-2.35137
-2.19257
-1.63984
-1.04904
-0.650332
-0.480369
-0.405651
-0.27608
-0.147745
-0.0249176
0.0886542
0.188978
0.273073
0.339406
0.388111
0.420975
0.441232
0.45324
0.462106
0.472974
0.490507
0.518178
0.558102
0.611702
0.675164
0.741415
0.802527
0.851763
0.885299
0.903222
0.909642
0.911961
0.919466
0.941176
0.983918
1.05046
1.13814
1.24143
1.3551
1.47438
1.5942
1.71091
1.823
1.9313
2.03846
2.14797
2.26328
2.3898
2.52307
2.64867
2.74937
2.81224
2.83376
2.82056
2.78603
2.74474
2.70729
2.67534
2.64628
2.61715
2.58396
2.54194
2.48616
2.4122
2.31684
2.19869
2.05852
1.89939
1.72631
1.54565
1.36429
1.18839
1.02309
0.872093
0.737548
0.620188
0.519702
0.435551
0.366563
0.311381
0.268629
0.237238
0.215659
0.202285
0.195556
0.19408
0.196702
0.20249
0.210707
0.220589
0.231346
0.242253
0.252768
0.262629
0.271832
0.280506
0.288711
0.296287
0.302857
0.308004
0.31158
0.314014
0.316478
0.320809
0.329161
0.343464
0.365684
0.39718
0.435541
0.473325
0.501517
0.512044
0.500185
0.466101
0.415073
0.356437
0.301559
0.261225
0.239752
0.2364
0.24993
0.281111
0.329602
0.389055
0.448413
0.497057
0.527268
0.535854
0.524334
0.497614
0.461709
0.421559
0.380028
0.338272
0.297011
0.25756
0.222266
0.194388
0.177494
0.174543
0.190063
0.227252
0.283216
0.344692
0.39562
0.422579
0.418345
0.383847
0.328039
0.265596
0.21299
0.184154
0.181123
0.197799
0.229291
0.273128
0.327096
0.388376
0.454489
0.523559
0.594554
0.666759
0.736879
0.794762
0.823285
0.803791
0.725695
0.594661
0.433826
0.276482
0.15369
0.075759
0.0263244
0.00279007
0
0.00964823
0.0285062
0.0517724
0.0787979
0.146137
0.393823
0.91659
1.75718
2.84713
3.99047
4.8983
5.26394
4.86776
3.68101
1.91927
0.00238314
-1.58792
-2.49754
-2.63685
-2.19389
-1.50601
-0.890519
-0.5178
-0.390086
-0.340681
-0.258553
-0.175082
-0.0946141
-0.0212321
0.0417992
0.0929733
0.133128
0.165372
0.194281
0.224583
0.259804
0.300841
0.346286
0.394191
0.442227
0.488101
0.530077
0.567563
0.601356
0.633492
0.666851
0.704568
0.74933
0.802722
0.864807
0.934588
1.0091
1.08491
1.15927
1.23093
1.30064
1.37077
1.44448
1.52447
1.61186
1.70633
1.80481
1.90124
1.99002
2.06831
2.13752
2.20315
2.27305
2.35469
2.46201
2.59205
2.72261
2.82602
2.88099
2.88036
2.8316
2.75098
2.65473
2.55167
2.44232
2.3251
2.1986
2.06166
1.91409
1.75757
1.59567
1.43334
1.27609
1.12921
0.997536
0.883494
0.785827
0.701248
0.625704
0.555671
0.489089
0.425672
0.366582
0.313689
0.268332
0.230636
0.200584
0.177434
0.159835
0.146117
0.134561
0.123644
0.112306
0.100125
0.0874008
0.0751503
0.0649956
0.0588829
0.0587288
0.0660282
0.0815116
0.104927
0.135012
0.169658
0.206032
0.240856
0.270767
0.293128
0.306336
0.310052
0.305253
0.294092
0.27957
0.265037
0.253649
0.247811
0.248495
0.255576
0.268399
0.285894
0.306613
0.328904
0.351009
0.371049
0.386851
0.395768
0.395294
0.383447
0.359171
0.322902
0.276959
0.225495
0.17428
0.129682
0.0975287
0.0820031
0.0848338
0.105218
0.14245
0.190326
0.238348
0.276523
0.297473
0.297816
0.278527
0.244208
0.201534
0.157392
0.117149
0.0829857
0.055284
0.0342613
0.0204471
0.0147461
0.018415
0.0328585
0.0593939
0.0987771
0.150829
0.216208
0.292619
0.371533
0.442443
0.496169
0.52729
0.535431
0.524945
0.503085
0.47737
0.453076
0.431336
0.410516
0.388268
0.361855
0.328949
0.288342
0.240356
0.185876
0.129257
0.0769142
0.0351893
0.00884686
0
0.00716372
0.0274466
0.0557719
0.0950919
0.198955
0.561307
1.28169
2.32841
3.52589
4.60091
5.26882
5.31972
4.67917
3.43145
1.80692
0.136362
-1.22886
-2.01914
-2.1364
-1.69837
-0.973744
-0.274139
0.17678
0.309283
0.319282
0.366958
0.423738
0.488721
0.560199
0.63283
0.69982
0.754773
0.793328
0.814223
0.819496
0.813856
0.803467
0.794584
0.791937
0.797931
0.813348
0.838155
0.871941
0.913973
0.963143
1.01807
1.07738
1.13953
1.20314
1.26735
1.33212
1.39825
1.46732
1.54132
1.62216
1.71128
1.80902
1.91493
2.02802
2.1467
2.26893
2.39235
2.51441
2.63248
2.74399
2.8466
2.93847
3.01837
3.08582
3.14101
3.18464
3.21751
3.24023
3.2529
3.25491
3.24488
3.22081
3.18036
3.12138
3.04237
2.94299
2.82434
2.68904
2.5411
2.38561
2.22809
2.07382
1.9276
1.79338
1.67395
1.57087
1.48445
1.41384
1.35694
1.31059
1.27084
1.23378
1.19598
1.15507
1.10991
1.06072
1.00883
0.956402
0.905922
0.859699
0.819742
0.787564
0.764112
0.749808
0.744624
0.748165
0.759719
0.778231
0.802449
0.831092
0.860946
0.886781
0.903365
0.907012
0.897091
0.876765
0.852442
0.832009
0.822482
0.827025
0.843314
0.870614
0.905374
0.93998
0.965965
0.976566
0.96834
0.942139
0.903115
0.859566
0.820845
0.794946
0.784218
0.78589
0.797127
0.816453
0.841045
0.867735
0.893768
0.917143
0.936641
0.951598
0.961221
0.964277
0.959526
0.945606
0.921668
0.888051
0.846608
0.800485
0.753368
0.708482
0.667349
0.629876
0.595474
0.563009
0.531296
0.499576
0.467805
0.436701
0.407541
0.381803
0.360726
0.34501
0.334789
0.329626
0.328704
0.331075
0.335865
0.342424
0.350292
0.359073
0.368266
0.377069
0.384273
0.388411
0.388019
0.381987
0.369907
0.35227
0.330441
0.30638
0.28217
0.259462
0.239
0.22058
0.202782
0.183442
0.16025
0.131395
0.0960817
0.0547941
0
-0.00453701
0.266405
0.908029
1.9087
3.11542
4.25825
5.02804
5.1714
4.57104
3.2918
1.58238
-0.174846
-1.5706
-2.30785
-2.31429
-1.76639
-0.989303
-0.299657
0.128458
0.290225
0.304086
0.328777
0.35779
0.391512
0.431179
0.475502
0.518749
0.553865
0.574959
0.57958
0.569747
0.551214
0.531279
0.5162
0.508852
0.507584
0.510936
0.517921
0.527792
0.540395
0.556277
0.576524
0.602238
0.634238
0.672909
0.71843
0.769156
0.821636
0.872479
0.919678
0.963649
1.00757
1.05677
1.1173
1.19405
1.28868
1.3978
1.51615
1.63841
1.75862
1.87106
1.97131
2.05685
2.12725
2.18397
2.22977
2.26794
2.30142
2.33163
2.35792
2.37704
2.38329
2.37027
2.33283
2.26858
2.17853
2.06651
1.93786
1.79772
1.65116
1.50061
1.34673
1.18981
1.0303
0.86926
0.708607
0.551027
0.399675
0.257706
0.127627
0.0109944
-0.0916911
-0.180826
-0.257378
-0.322505
-0.377251
-0.42238
-0.458309
-0.485298
-0.503558
-0.513407
-0.515395
-0.510375
-0.499518
-0.484291
-0.466385
-0.447609
-0.429826
-0.414689
-0.403412
-0.39654
-0.393804
-0.394103
-0.395677
-0.396449
-0.39449
-0.38834
-0.376983
-0.361021
-0.341907
-0.321092
-0.299228
-0.27564
-0.248357
-0.214714
-0.168583
-0.104297
-0.0298075
0.0383048
0.0815354
0.0869597
0.0527501
-0.0106707
-0.0842201
-0.146869
-0.18266
-0.194128
-0.18972
-0.17448
-0.151163
-0.122811
-0.0924253
-0.0627332
-0.0362753
-0.0157908
-0.00408249
-0.00358448
-0.0162725
-0.0431333
-0.0866491
-0.147588
-0.2154
-0.274114
-0.307542
-0.303862
-0.259049
-0.178044
-0.0734174
0.0379234
0.138985
0.22036
0.276029
0.305901
0.315424
0.313884
0.311813
0.318141
0.336738
0.366601
0.405634
0.447799
0.485777
0.512738
0.523835
0.517144
0.493876
0.457882
0.414571
0.369488
0.326629
0.287543
0.251771
0.217815
0.184013
0.148741
0.111166
0.0715643
0.0309616
0
0.270446
0.788038
1.48782
2.30045
3.16368
3.99364
4.63626
4.86555
4.46717
3.37637
1.77778
0.0774678
-1.26035
-1.92275
-1.87726
-1.35474
-0.686968
-0.140671
0.183156
0.328579
0.412748
0.480689
0.540319
0.590156
0.628107
0.653391
0.666958
0.671694
0.672283
0.674656
0.685026
0.708556
0.748096
0.803194
0.871684
0.949541
1.03054
1.10875
1.17995
1.2424
1.29686
1.34569
1.3917
1.43699
1.48243
1.52776
1.57249
1.61703
1.66334
1.71482
1.77532
1.84796
1.93406
2.0308
2.13529
2.24511
2.35787
2.47145
2.58413
2.69458
2.80182
2.90503
3.00359
3.09708
3.18526
3.26801
3.34474
3.41405
3.47398
3.52213
3.55493
3.5681
3.55731
3.5188
3.44984
3.34917
3.21735
3.05847
2.87972
2.68774
2.48848
2.28748
2.0896
1.89884
1.71838
1.55057
1.39706
1.25904
1.13725
1.0322
0.944577
0.874679
0.820708
0.780275
0.75078
0.729816
0.715413
0.70602
0.700455
0.697316
0.694278
0.688692
0.678203
0.661561
0.63925
0.613627
0.588471
0.568052
0.555549
0.551681
0.556327
0.56922
0.587899
0.608459
0.626974
0.640426
0.647372
0.648175
0.644756
0.639992
0.636961
0.637976
0.644084
0.655609
0.672351
0.693357
0.716967
0.740831
0.761731
0.775557
0.778298
0.766422
0.737594
0.691403
0.629863
0.557518
0.480985
0.408114
0.346648
0.302675
0.279469
0.276909
0.291641
0.317948
0.349102
0.378827
0.402686
0.418358
0.425678
0.426137
0.422112
0.416089
0.410072
0.405128
0.401664
0.399467
0.397775
0.395253
0.390455
0.382299
0.37052
0.355971
0.340642
0.327335
0.319079
0.318464
0.326382
0.342929
0.36767
0.399575
0.437399
0.479929
0.52634
0.576212
0.62942
0.685951
0.744163
0.797273
0.834607
0.844574
0.818889
0.756432
0.6648
0.558528
0.454493
0.366289
0.294634
0.233906
0.18165
0.133411
0.08423
0.0297761
-0.0335465
-0.106309
-0.186672
-0.271113
-0.355614
0
0.726704
1.72636
2.8377
3.89312
4.74342
5.25289
5.29321
4.76976
3.68256
2.18365
0.576254
-0.77443
-1.58679
-1.77089
-1.49455
-1.00449
-0.540199
-0.223263
-0.0575448
0.0332247
0.119182
0.203379
0.2857
0.365459
0.441782
0.513803
0.580956
0.643124
0.70064
0.75412
0.803891
0.849677
0.890504
0.924711
0.950191
0.965353
0.970094
0.96636
0.958045
0.950237
0.948054
0.955036
0.971923
0.997947
1.03187
1.07223
1.11756
1.16672
1.21921
1.27541
1.33647
1.40418
1.48058
1.56759
1.66652
1.77766
1.90003
2.03121
2.16761
2.30457
2.43655
2.55868
2.66761
2.76215
2.84333
2.91392
2.97719
3.03621
3.09319
3.14681
3.19009
3.2122
3.20153
3.14914
3.05137
2.91104
2.73673
2.5407
2.33643
2.1358
1.94405
1.76436
1.60054
1.45536
1.33065
1.22739
1.14475
1.07896
1.02416
0.974453
0.925223
0.874129
0.821549
0.770232
0.724283
0.687762
0.664498
0.656517
0.66011
0.668956
0.676268
0.677006
0.669353
0.65502
0.638345
0.624621
0.618146
0.620106
0.629529
0.64477
0.664301
0.686604
0.710623
0.735983
0.762963
0.792232
0.824461
0.859852
0.898093
0.938031
0.976985
1.01098
1.0357
1.04739
1.04371
1.02443
0.991746
0.950023
0.905055
0.862914
0.828083
0.802428
0.786719
0.780307
0.780772
0.784973
0.789838
0.793002
0.793122
0.789848
0.783551
0.774957
0.764937
0.754092
0.742774
0.731152
0.719268
0.707148
0.694915
0.682913
0.67175
0.662246
0.655248
0.651462
0.651451
0.654508
0.659067
0.663182
0.665009
0.663156
0.656723
0.645099
0.627719
0.604033
0.574078
0.538322
0.498234
0.456762
0.417816
0.385513
0.363298
0.353245
0.355745
0.369666
0.392833
0.42262
0.456251
0.491747
0.527839
0.563727
0.598904
0.632944
0.665277
0.694916
0.720035
0.737399
0.742658
0.731534
0.700263
0.646795
0.571872
0.479591
0.37716
0.273766
0.178831
0.0995088
0.0403848
0.00253805
-0.0162047
-0.0203034
-0.0151912
-0.00603887
0.00293655
0
0.266533
0.931339
1.99124
3.28174
4.51445
5.36195
5.54925
4.93462
3.56955
1.71901
-0.189791
-1.70373
-2.51763
-2.59054
-2.13802
-1.48391
-0.902044
-0.519864
-0.336785
-0.291476
-0.243707
-0.190885
-0.132745
-0.0683535
0.00262586
0.0794054
0.160133
0.242177
0.322534
0.398306
0.467141
0.527536
0.578978
0.621915
0.657592
0.687828
0.71478
0.74071
0.767801
0.797991
0.832842
0.873444
0.920359
0.973631
1.03285
1.09728
1.16598
1.23795
1.31215
1.38766
1.46371
1.53982
1.61596
1.69272
1.77137
1.85384
1.94261
2.04029
2.14929
2.27132
2.41118
2.58035
2.77598
2.9682
3.12223
3.21067
3.22395
3.17383
3.08806
2.99882
2.92966
2.88173
2.84118
2.79919
2.74857
2.68265
2.59649
2.48772
2.35686
2.20722
2.04421
1.87458
1.70504
1.54089
1.38663
1.24563
1.12007
1.01091
0.918011
0.840206
0.775516
0.721426
0.675013
0.633171
0.593198
0.553193
0.512318
0.470861
0.430102
0.391911
0.358243
0.330658
0.309967
0.296115
0.288266
0.28504
0.284814
0.285943
0.287064
0.287111
0.285353
0.281418
0.275334
0.267552
0.258919
0.250768
0.244732
0.242421
0.245091
0.25335
0.266972
0.284895
0.305382
0.326313
0.345533
0.361315
0.372296
0.37758
0.376824
0.370236
0.35853
0.342823
0.324472
0.304859
0.285124
0.265949
0.247395
0.228825
0.209109
0.186977
0.161456
0.132252
0.0999767
0.0661309
0.0328719
0.00261639
-0.0225126
-0.0409004
-0.0516068
-0.0544551
-0.0499555
-0.0391599
-0.0235305
-0.00470488
0.0153946
0.0346514
0.0508397
0.0618408
0.0660505
0.0626346
0.0517881
0.0348461
0.0141659
-0.00723783
-0.0262418
-0.0402057
-0.0475862
-0.0479694
-0.0416855
-0.0295826
-0.0125364
0.00891622
0.0347264
0.0654582
0.10179
0.145098
0.196844
0.253615
0.307711
0.351036
0.37852
0.390559
0.393057
0.394828
0.403542
0.422211
0.446903
0.471812
0.489943
0.495333
0.484551
0.457113
0.414972
0.361503
0.301098
0.23726
0.172076
0.106743
0.0418837
-0.022176
-0.0852202
-0.147002
-0.20659
-0.243995
0
0.524473
1.28588
2.20817
3.20129
4.13863
4.82152
4.99893
4.46803
3.2086
1.45636
-0.354602
-1.76398
-2.47735
-2.47066
-1.95672
-1.24823
-0.613071
-0.189567
0.0125688
0.0819115
0.151743
0.217424
0.277039
0.328111
0.369464
0.401715
0.427247
0.449507
0.471814
0.496165
0.522589
0.549371
0.574316
0.595817
0.613777
0.62986
0.64699
0.668368
0.696448
0.731236
0.77203
0.818229
0.869085
0.924119
0.983352
1.04727
1.11661
1.19198
1.27363
1.36131
1.45423
1.55155
1.65243
1.7561
1.86179
1.96852
2.07482
2.17845
2.27679
2.36741
2.44871
2.52051
2.58419
2.64233
2.6976
2.7525
2.80741
2.85786
2.89597
2.91354
2.905
2.86903
2.80813
2.72672
2.62888
2.51775
2.39657
2.26738
2.1313
1.98929
1.84275
1.69359
1.54412
1.39673
1.25374
1.11719
0.988754
0.869769
0.761185
0.663557
0.576998
0.501127
0.435088
0.377652
0.32741
0.283123
0.244046
0.210175
0.182295
0.161848
0.15191
0.158933
0.186078
0.222365
0.250798
0.254234
0.222285
0.155968
0.0680501
-0.0208006
-0.0881865
-0.121167
-0.12574
-0.103062
-0.0553085
0.0176051
0.105749
0.194122
0.269176
0.322306
0.351792
0.362448
0.363111
0.363001
0.368392
0.379458
0.393894
0.408737
0.420504
0.426387
0.425137
0.417525
0.406283
0.395482
0.389482
0.394903
0.416454
0.444672
0.463194
0.456181
0.416598
0.35083
0.27674
0.215816
0.183425
0.176333
0.182277
0.194901
0.207436
0.214448
0.212944
0.202653
0.185568
0.165082
0.145038
0.128444
0.117314
0.113248
0.117041
0.128634
0.147137
0.17097
0.198123
0.226508
0.254358
0.280575
0.304861
0.327688
0.350096
0.373341
0.398478
0.426069
0.456014
0.487068
0.516735
0.542094
0.560625
0.5709
0.572942
0.568113
0.558561
0.546421
0.533062
0.518717
0.502643
0.483394
0.45928
0.428747
0.390646
0.344342
0.289707
0.227091
0.157398
0.0815298
0.000611877
-0.0837228
-0.170502
-0.22725
0
0.604336
1.56691
2.73659
3.89011
4.79974
5.27171
5.16044
4.39867
3.05562
1.37848
-0.248459
-1.44125
-1.98211
-1.89749
-1.45413
-0.929026
-0.522655
-0.284301
-0.144361
-0.00999966
0.12204
0.252562
0.381479
0.508322
0.631792
0.749153
0.855957
0.947469
1.01854
1.06505
1.0854
1.08168
1.05993
1.02941
1.00093
0.984603
0.985401
1.00314
1.03479
1.07661
1.12521
1.17713
1.22956
1.28094
1.33121
1.38165
1.43448
1.49237
1.55789
1.63287
1.71868
1.81623
1.92562
2.04604
2.17556
2.31108
2.44855
2.58272
2.70806
2.81985
2.91501
2.99276
3.05475
3.10481
3.14825
3.191
3.24014
3.30802
3.40969
3.5368
3.65877
3.74021
3.75184
3.67895
3.52509
3.3101
3.06393
2.81775
2.58858
2.3737
2.16841
1.97108
1.78191
1.60166
1.43189
1.2749
1.13346
1.0115
0.915174
0.848741
0.806342
0.778404
0.754492
0.726344
0.690138
0.64723
0.60319
0.565605
0.541455
0.531984
0.535062
0.549641
0.573444
0.602123
0.629965
0.651465
0.66227
0.659825
0.643719
0.615701
0.579359
0.539517
0.501438
0.469627
0.446791
0.434087
0.432148
0.440656
0.458472
0.483927
0.51508
0.549817
0.586239
0.622145
0.655064
0.682595
0.702628
0.713705
0.715401
0.708564
0.695287
0.678571
0.661745
0.647785
0.638631
0.634888
0.636224
0.641975
0.651191
0.662865
0.676014
0.68963
0.702284
0.712111
0.717021
0.715159
0.705489
0.68826
0.66511
0.638727
0.612153
0.587998
0.567471
0.55086
0.537776
0.527392
0.518822
0.511383
0.504608
0.498041
0.490797
0.481217
0.467145
0.446719
0.419444
0.387059
0.353741
0.325479
0.30881
0.309332
0.326845
0.362902
0.424586
0.515873
0.618775
0.709453
0.766538
0.778961
0.751466
0.704329
0.666247
0.663019
0.707073
0.794967
0.902603
0.997923
1.05325
1.05498
1.00713
0.927836
0.840557
0.763533
0.700292
0.641816
0.581352
0.514035
0.435804
0.344272
0.239641
0.124696
0
-0.0236248
0.274886
0.946744
1.97362
3.22617
4.46521
5.38483
5.69668
5.23787
4.05628
2.42036
0.729565
-0.63954
-1.47102
-1.75507
-1.6413
-1.32375
-0.937703
-0.551696
-0.189255
0.104475
0.238861
0.301818
0.345627
0.383598
0.420272
0.459102
0.502228
0.55053
0.601281
0.649483
0.690182
0.720542
0.741156
0.756029
0.771248
0.792831
0.82462
0.865891
0.913168
0.963026
1.01231
1.05831
1.09932
1.13491
1.16598
1.19451
1.22326
1.25531
1.29375
1.34129
1.39999
1.47103
1.55459
1.6497
1.75462
1.86701
1.98412
2.10305
2.2211
2.33593
2.4459
2.55006
2.64811
2.74015
2.82594
2.90418
2.97327
3.03096
3.07431
3.10029
3.10634
3.09061
3.05183
2.98907
2.90147
2.7906
2.65898
2.50876
2.34243
2.16373
1.97784
1.79093
1.60946
1.4394
1.28602
1.15422
1.04602
0.95669
0.878718
0.803957
0.725907
0.641506
0.551924
0.462133
0.379451
0.311543
0.261782
0.235103
0.236174
0.26902
0.331537
0.405687
0.468955
0.502025
0.493327
0.443618
0.367884
0.291752
0.242444
0.23793
0.268477
0.316159
0.371469
0.429016
0.483909
0.532307
0.57166
0.600414
0.618048
0.625216
0.623235
0.613931
0.59952
0.582427
0.565051
0.549474
0.537223
0.529079
0.525251
0.525423
0.52886
0.534476
0.540935
0.546219
0.54806
0.54433
0.533517
0.515123
0.489812
0.45923
0.425584
0.391184
0.357997
0.327404
0.300684
0.27912
0.263934
0.256249
0.257453
0.268788
0.289396
0.314924
0.339234
0.355998
0.360273
0.349783
0.325528
0.291537
0.253862
0.2191
0.192289
0.175676
0.169461
0.173286
0.18687
0.209852
0.242103
0.286432
0.352359
0.444219
0.544038
0.622149
0.649414
0.612825
0.524438
0.417865
0.333907
0.302624
0.316108
0.350436
0.395923
0.447804
0.502429
0.558031
0.614973
0.676855
0.758902
0.89962
1.09028
1.27727
1.39275
1.38259
1.2275
0.951904
0.618748
0.312912
0.115686
0
-0.0507581
-0.0434934
0.0067375
0.0813401
0.163721
0.243122
0.305239
0.414115
0.786683
1.5052
2.52205
3.66277
4.68261
5.33986
5.4477
4.90805
3.74601
2.14379
0.434314
-0.987656
-1.81983
-1.98584
-1.6569
-1.12167
-0.61929
-0.235157
0.0705559
0.313239
0.407406
0.46319
0.504251
0.536619
0.563913
0.58976
0.616886
0.646478
0.677995
0.710366
0.742367
0.772893
0.801387
0.828169
0.854482
0.882371
0.91436
0.952967
1.00011
1.05782
1.12833
1.20686
1.28321
1.34696
1.39159
1.41738
1.43177
1.44693
1.47525
1.52486
1.59309
1.67263
1.75903
1.8477
1.93538
2.02104
2.10606
2.19355
2.28712
2.38948
2.50116
2.6196
2.741
2.86071
2.97308
3.0729
3.15595
3.21944
3.26195
3.2832
3.28347
3.26312
3.22214
3.16011
3.07711
2.97284
2.84671
2.6989
2.53083
2.34541
2.14728
1.94232
1.73738
1.5396
1.35562
1.19086
1.049
0.931248
0.836308
0.760783
0.699723
0.647843
0.600463
0.554243
0.507593
0.460706
0.415241
0.37376
0.339047
0.313459
0.298432
0.294195
0.299749
0.313499
0.332879
0.354596
0.375677
0.393883
0.407845
0.416918
0.420832
0.419245
0.411689
0.397651
0.377038
0.35078
0.321266
0.292555
0.27027
0.260016
0.265867
0.289117
0.327742
0.376774
0.429443
0.478705
0.518904
0.54623
0.559081
0.557851
0.54443
0.521811
0.493819
0.463493
0.433657
0.406855
0.3852
0.369858
0.361356
0.359827
0.365383
0.376736
0.389259
0.397231
0.39546
0.380911
0.353845
0.317953
0.279328
0.244625
0.21913
0.203306
0.195953
0.195949
0.201434
0.210369
0.220928
0.231926
0.24276
0.253278
0.263611
0.274005
0.284701
0.295878
0.307655
0.320113
0.333287
0.3471
0.361281
0.375211
0.387799
0.39775
0.403971
0.40609
0.404896
0.402465
0.401884
0.406576
0.419416
0.441662
0.473708
0.513742
0.556661
0.595548
0.623891
0.637051
0.633153
0.613195
0.580379
0.538894
0.492515
0.443566
0.392617
0.339089
0.281974
0.219952
0.151587
0.0768439
-0.0029966
-0.0858792
-0.171514
0
0.453928
1.19304
2.1506
3.19339
4.14253
4.80038
4.97857
4.54188
3.46953
1.9079
0.16852
-1.35996
-2.35378
-2.66924
-2.38215
-1.70348
-0.892242
-0.177873
0.267463
0.242207
0.129088
0.014545
-0.073401
-0.112164
-0.0940717
-0.0447082
0.0160988
0.0804051
0.14281
0.199172
0.247201
0.286533
0.318513
0.345738
0.371446
0.398865
0.430611
0.468245
0.512021
0.560924
0.613208
0.666864
0.720002
0.771237
0.819972
0.866495
0.911925
0.958005
1.00681
1.06044
1.12067
1.18877
1.26531
1.35016
1.44256
1.54127
1.64475
1.75129
1.85909
1.96631
2.07107
2.17149
2.26573
2.35205
2.4289
2.49484
2.54845
2.58835
2.61316
2.62125
2.6107
2.57951
2.52592
2.44884
2.34839
2.22616
2.08531
1.93029
1.76627
1.59846
1.43135
1.26826
1.11135
0.961812
0.820196
0.686893
0.562478
0.447892
0.344413
0.253472
0.176386
0.114106
0.0670176
0.0348166
0.0165905
0.0113348
0.0177464
0.0323902
0.0490594
0.0614901
0.0647334
0.0564544
0.0377449
0.0130583
-0.0108548
-0.0267786
-0.0291039
-0.0176426
0.00810767
0.0445558
0.0838427
0.117702
0.139902
0.14801
0.143944
0.133161
0.122786
0.119277
0.12565
0.141256
0.164473
0.190457
0.213947
0.231106
0.240779
0.244722
0.246709
0.250915
0.260204
0.274535
0.291954
0.308986
0.32138
0.325298
0.318249
0.299637
0.270852
0.234921
0.195822
0.157642
0.123777
0.0960589
0.0744863
0.0584041
0.0472739
0.0404969
0.0375571
0.0381591
0.0422568
0.0499757
0.0614695
0.0767597
0.0955579
0.117189
0.140552
0.164115
0.186216
0.205373
0.220592
0.231587
0.238867
0.243668
0.247742
0.253051
0.26138
0.274031
0.291686
0.314319
0.341179
0.370922
0.401754
0.431688
0.458852
0.481718
0.499253
0.510963
0.516867
0.517405
0.513328
0.505584
0.495147
0.482868
0.469296
0.454421
0.437553
0.417357
0.392017
0.35965
0.318791
0.268831
0.209838
0.143565
0.0727805
0
0.0747051
0.45206
1.14775
2.07955
3.06626
3.91106
4.46667
4.64164
4.36935
3.60475
2.37853
0.863809
-0.622914
-1.72459
-2.19563
-2.03755
-1.44827
-0.729888
-0.1404
0.18565
0.21339
0.210972
0.214845
0.227686
0.252279
0.288817
0.334149
0.384468
0.436155
0.48599
0.531778
0.572645
0.608966
0.641997
0.673349
0.704488
0.736367
0.76942
0.803626
0.838828
0.87509
0.912969
0.953601
0.998578
1.04963
1.10823
1.17521
1.25033
1.33254
1.42024
1.51141
1.60399
1.69626
1.78715
1.87626
1.96393
2.05092
2.13814
2.22629
2.31558
2.40558
2.49521
2.58289
2.66676
2.74489
2.81554
2.87719
2.92853
2.96862
2.9969
3.01283
3.01579
3.00487
2.9788
2.93588
2.87409
2.79135
2.68609
2.55802
2.40823
2.2394
2.05607
1.86454
1.67229
1.4871
1.31623
1.16667
1.0433
0.945849
0.871059
0.813755
0.768062
0.728473
0.690562
0.651281
0.608951
0.563137
0.514408
0.463559
0.411505
0.359229
0.307734
0.258067
0.211456
0.169593
0.134596
0.10983
0.112338
0.209788
0.466954
0.791691
1.06628
1.19784
1.15237
0.960696
0.698597
0.458857
0.33155
0.33309
0.384297
0.450349
0.520577
0.588698
0.649124
0.697557
0.731322
0.749391
0.752138
0.740961
0.717876
0.68547
0.646448
0.603468
0.559328
0.517183
0.48116
0.45535
0.44327
0.447135
0.467098
0.502783
0.549042
0.597467
0.639398
0.668037
0.679907
0.675212
0.657136
0.630554
0.600712
0.572051
0.546981
0.527082
0.513406
0.506739
0.506439
0.510273
0.515383
0.518952
0.51889
0.514331
0.505779
0.494882
0.483894
0.474961
0.469391
0.467958
0.470821
0.477409
0.486976
0.499004
0.513447
0.530728
0.551513
0.576362
0.605414
0.638006
0.673054
0.709367
0.745519
0.779748
0.809802
0.833502
0.848713
0.853626
0.847123
0.829053
0.800309
0.7626
0.717963
0.6682
0.614637
0.557616
0.496689
0.430744
0.357636
0.275802
0.186531
0.0929955
0
0.0591007
0.444045
1.09422
1.96705
2.99305
4.05841
4.98153
5.52653
5.46988
4.70176
3.30765
1.57431
-0.0972294
-1.33683
-1.93777
-1.90529
-1.43908
-0.79385
-0.203744
0.189311
0.329642
0.337004
0.33843
0.339758
0.342802
0.349634
0.362545
0.383819
0.415323
0.457976
0.511254
0.573801
0.64149
0.708145
0.767427
0.814211
0.845642
0.861555
0.864248
0.85779
0.847169
0.837424
0.832303
0.834674
0.846803
0.86998
0.904426
0.949355
1.00357
1.06507
1.13199
1.20306
1.27782
1.3565
1.43965
1.52758
1.6199
1.71531
1.81177
1.90713
1.99953
2.08783
2.17185
2.25234
2.33072
2.40864
2.48771
2.56916
2.65304
2.73599
2.80999
2.86478
2.89012
2.87849
2.82723
2.73924
2.62179
2.48383
2.33307
2.17566
2.01517
1.8533
1.69105
1.52943
1.36955
1.21265
1.05999
0.912954
0.773071
0.64237
0.523937
0.42112
0.336719
0.272879
0.230425
0.20837
0.204498
0.21482
0.233237
0.253776
0.271684
0.284143
0.290427
0.291548
0.289591
0.287015
0.285993
0.287978
0.294121
0.305111
0.321141
0.341886
0.366494
0.393544
0.421397
0.448197
0.471892
0.490701
0.503396
0.509435
0.50904
0.503149
0.493224
0.480959
0.467951
0.455443
0.444148
0.434387
0.426397
0.420473
0.417127
0.417169
0.421667
0.431766
0.448341
0.472186
0.504432
0.545217
0.589195
0.626943
0.648483
0.646397
0.618402
0.568248
0.504498
0.437799
0.377911
0.329195
0.290931
0.262529
0.243901
0.234747
0.234185
0.239109
0.244833
0.246963
0.242587
0.231205
0.214974
0.198057
0.185239
0.18031
0.184011
0.194424
0.209499
0.226347
0.242064
0.25442
0.262287
0.26574
0.265851
0.264303
0.262974
0.263631
0.267809
0.276892
0.292201
0.314997
0.346323
0.386666
0.435545
0.491849
0.55228
0.611717
0.664482
0.70535
0.730438
0.73777
0.727416
0.701292
0.662714
0.615955
0.565449
0.514864
0.466707
0.422147
0.381215
0.342874
0.305089
0.265458
0.221848
0.172657
0.118019
0.0596392
0
0.0576018
0.424232
1.07368
1.96424
2.99901
4.02463
4.83771
5.21393
4.97432
4.07148
2.64895
1.02156
-0.43652
-1.44089
-1.89194
-1.87249
-1.56467
-1.12358
-0.667077
-0.276433
-0.0284866
0.0542792
0.105599
0.151887
0.196884
0.241537
0.286165
0.330665
0.374577
0.417204
0.457762
0.495542
0.530051
0.561154
0.589246
0.615325
0.640965
0.668195
0.699223
0.736035
0.779922
0.831065
0.889154
0.95165
1.01427
1.07282
1.12456
1.16913
1.20889
1.2483
1.29278
1.34729
1.4143
1.49335
1.58308
1.6817
1.7869
1.8961
2.00684
2.11694
2.22455
2.32807
2.42612
2.51743
2.6009
2.67558
2.74059
2.79511
2.83855
2.87023
2.88919
2.89398
2.88262
2.85226
2.80048
2.7255
2.62675
2.50546
2.36484
2.2099
2.04677
1.88173
1.72011
1.56556
1.42021
1.28479
1.15904
1.04238
0.934398
0.835098
0.744875
0.664273
0.59398
0.53417
0.483787
0.441202
0.404583
0.372294
0.343156
0.316494
0.29198
0.269497
0.248835
0.229827
0.212565
0.19764
0.18623
0.179902
0.180166
0.187919
0.202778
0.223457
0.247944
0.273912
0.299322
0.32293
0.344505
0.364755
0.384956
0.406448
0.430124
0.456323
0.484329
0.512686
0.539521
0.562838
0.580696
0.590527
0.590389
0.578999
0.556141
0.523357
0.484431
0.445331
0.413645
0.407173
0.452309
0.5405
0.639711
0.712156
0.730782
0.688843
0.600085
0.491707
0.39401
0.33032
0.297585
0.284101
0.282529
0.289028
0.301213
0.316968
0.334483
0.352286
0.36907
0.383815
0.395819
0.404774
0.410821
0.41451
0.416616
0.417857
0.418614
0.418868
0.418334
0.416893
0.415074
0.414352
0.417076
0.425989
0.443476
0.470398
0.505658
0.547628
0.593622
0.639981
0.683087
0.719997
0.748808
0.768666
0.779475
0.781457
0.774742
0.75931
0.73512
0.702493
0.662496
0.617103
0.568973
0.520877
0.474922
0.432094
0.391399
0.350308
0.305643
0.254739
0.196464
0.131718
0.0620162
0
0.237386
0.790546
1.62911
2.65106
3.69365
4.54461
4.97073
4.77867
3.90348
2.47869
0.826207
-0.654836
-1.64997
-2.04626
-1.94518
-1.55578
-1.0822
-0.649795
-0.302822
-0.0431057
0.113752
0.197008
0.254586
0.298823
0.333754
0.360788
0.381893
0.399348
0.415373
0.431818
0.449906
0.470229
0.492839
0.51735
0.543006
0.568407
0.592167
0.61351
0.632787
0.651743
0.673351
0.701196
0.738578
0.787627
0.847369
0.915692
0.990554
1.06959
1.15038
1.23089
1.30983
1.38674
1.46211
1.53707
1.61321
1.69214
1.77518
1.863
1.95551
2.05179
2.15018
2.2485
2.34422
2.43453
2.51632
2.58675
2.64356
2.68479
2.70877
2.71407
2.69966
2.66501
2.61023
2.53615
2.4445
2.33739
2.2169
2.08499
1.94377
1.79548
1.64199
1.48555
1.32911
1.17632
1.0312
0.897713
0.77967
0.680429
0.600805
0.538619
0.490238
0.451499
0.418571
0.388494
0.359309
0.329889
0.299682
0.268617
0.237046
0.205821
0.176517
0.151242
0.132241
0.121302
0.119205
0.125452
0.1384
0.155784
0.175405
0.195726
0.216196
0.237137
0.259402
0.283919
0.311247
0.341358
0.373919
0.408317
0.443682
0.47882
0.511797
0.540185
0.561554
0.574004
0.576885
0.571304
0.560125
0.547369
0.537177
0.532716
0.534608
0.541747
0.552728
0.56574
0.578765
0.589908
0.597679
0.601228
0.600348
0.595385
0.587055
0.576195
0.563527
0.549404
0.533905
0.517026
0.499037
0.480922
0.464614
0.452836
0.449252
0.461375
0.491015
0.529011
0.561091
0.573731
0.560029
0.522602
0.47234
0.423954
0.390482
0.374857
0.372571
0.380309
0.395506
0.415343
0.437502
0.460683
0.484744
0.510474
0.539114
0.571821
0.609093
0.650562
0.695537
0.742999
0.791476
0.838376
0.879439
0.909856
0.924758
0.920241
0.894333
0.847482
0.782286
0.702592
0.612411
0.515743
0.41402
0.309113
0.206551
0.115121
0.0442978
0
-0.0205509
0.224456
0.732705
1.41603
2.24688
3.17337
4.09033
4.82013
5.13971
4.85721
3.90975
2.42966
0.730807
-0.789879
-1.79395
-2.11632
-1.83135
-1.17069
-0.441934
0.0969997
0.311506
0.279144
0.272463
0.272233
0.278827
0.292152
0.310679
0.332469
0.356092
0.381269
0.408911
0.440595
0.479496
0.524034
0.566881
0.598659
0.612894
0.610265
0.599632
0.59512
0.610608
0.654313
0.718995
0.795305
0.877543
0.960979
1.04135
1.1154
1.18131
1.23874
1.28879
1.3337
1.37656
1.42089
1.47039
1.52861
1.59865
1.68288
1.78266
1.89802
2.02881
2.17682
2.33409
2.48258
2.60415
2.68628
2.72626
2.73208
2.71954
2.70648
2.70681
2.72361
2.75592
2.79575
2.82896
2.84051
2.81784
2.75343
2.64624
2.50175
2.33058
2.14582
1.96011
1.78124
1.61143
1.45216
1.30554
1.1732
1.0562
0.95498
0.86927
0.797977
0.739235
0.690474
0.648773
0.611496
0.576751
0.543675
0.512437
0.48396
0.459424
0.440242
0.427047
0.418351
0.41152
0.403596
0.392264
0.376615
0.357432
0.336946
0.318224
0.304328
0.296962
0.296821
0.304142
0.318526
0.339274
0.364838
0.392792
0.420868
0.447452
0.471886
0.494476
0.516195
0.538174
0.561185
0.585257
0.609682
0.633394
0.655128
0.673606
0.687769
0.696852
0.700376
0.698097
0.689947
0.676017
0.656581
0.632164
0.603615
0.572168
0.539303
0.506615
0.475574
0.447339
0.422495
0.400638
0.380514
0.360447
0.338825
0.314556
0.287369
0.257898
0.227572
0.198386
0.172523
0.152011
0.138849
0.135033
0.143287
0.169335
0.221427
0.29666
0.376702
0.438994
0.464525
0.445129
0.386979
0.308879
0.23633
0.19371
0.18993
0.215783
0.262379
0.32556
0.402686
0.490352
0.584286
0.677141
0.757449
0.813173
0.832036
0.804357
0.727368
0.608626
0.466074
0.324
0.206241
0.121632
0.0619446
0.0223284
0.00255241
0
0.00794678
0.0164635
0.016022
-0.000914478
-0.0386179
-0.0973867
-0.173565
-0.272293
-0.318266
-0.0686532
0.553814
1.54214
2.7815
4.04494
5.01363
5.3496
4.82115
3.43279
1.48062
-0.526914
-2.06484
-2.80788
-2.74835
-2.16117
-1.42418
-0.841941
-0.540426
-0.484589
-0.44232
-0.393819
-0.343204
-0.292802
-0.246587
-0.208345
-0.179815
-0.159491
-0.142772
-0.123515
-0.0963653
-0.0588067
-0.0133757
0.0357395
0.085194
0.131894
0.173353
0.208008
0.235138
0.255098
0.268962
0.278335
0.285227
0.291979
0.3012
0.315673
0.338197
0.371231
0.416512
0.475174
0.547579
0.633055
0.729882
0.835616
0.94706
1.06086
1.1739
1.28351
1.38731
1.48186
1.56498
1.63534
1.69227
1.73606
1.76806
1.79043
1.80543
1.81453
1.81787
1.81416
1.80105
1.7759
1.73639
1.68093
1.6086
1.51903
1.41341
1.29394
1.16259
1.02126
0.872347
0.718775
0.563935
0.411343
0.264229
0.125138
-0.00436516
-0.123786
-0.233591
-0.334893
-0.429021
-0.517084
-0.599614
-0.676322
-0.74614
-0.80769
-0.859572
-0.900815
-0.93121
-0.951444
-0.962989
-0.967799
-0.967899
-0.965019
-0.960274
-0.954135
81
268
460
658
852
1041
1238
1442
1647
1845
2048
2254
2456
2651
2851
3056
3255
3451
3651
3021
3173
3325
3486
3637
3739
3623
3533
3665
0
0
0
0
0
0
0
0
0
0
0
0
0
0
0
0
0
0
0
0
0
0
0
0
0
0
0
0
0
0
0
0
0
0
0
0
0
0
0
0
0
0
0
0
0
0
0
0
0
0
0
0
0
0
0
0
0
0
0
0
0
0
0
0
0
0
0
0
0
0
0
0
0
0
0
0
0
0
0
0
0
0
0
0
0
0
0
0
0
0
0
0
0
0
0
0
0
0
0
0
0
0
0
0
0
0
0
0
0
0
0
0
0
0
0
0
0
0
0
0
0
0
0
0
0
0
0
0
0
0
0
0
0
0
0
0
0
0
0
0
0
0
0
0
0
0
0
0
0
0
0
0
0
0
0
0
0
0
0
0
0
0
0
0
0
0
0
0
0
0
0
0
0
0
0
0
0
0
0
0
0
0
0
0
0
0
0
0
0
0
0
0
0
0
0
0
0
0
0
0
0
0
0
0
0
0
0
0
0
0
0
0
0
0
0
0
0
0
0
0
0
0
0
0
0
0
0
0
0
0
0
0
0
0
0
0
0
0
0
0
0
0
0
0
0
0
0
0
0
0
0
0
0
0
0
0
0
0
0
0
0
0
0
0
0
0
0
0
0
0
0
0
0
0
0
0
0
0
0
0
0
0
0
0
0
0
0
0
0
0
0
0
0
0
0
0
0
0
0
0
0
0
0
0
0
0
0
0
0
0
0
0
0
0
0
0
0
0
0
0
0
0
0
0
0
0
0
0
0
0
0
0
0
0
0
0
0
0
0
0
0
0
0
0
0
0
0
0
0
0
0
0
0
0
0
0
0
0
0
0
0
0
0
0
0
0
0
0
0
0
0
0
0
0
0
0
0
0
0
0
0
0
0
0
0
0
0
0
0
0
0
0
0
0
0
0
0
0
0
0
0
0
0
0
0
0
0
0
0
0
0
0
0
0
0
0
0
0
0
0
0
0
0
0
0
0
0
0
0
0
0
0
0
0
0
0
0
0
0
0
0
0
0
0
0
0
0
0
0
0
0
0
0
0
0
0
0
0
0
0
0
0
0
0
0
0
0
0
0
0
0
0
0
0
0
0
0
0
0
0
0
0
0
0
0
0
0
0
0
0
0
0
0
0
0
0
0
0
0
0
0
0
0
0
0
0
0
0
0
0
0
0
0
0
0
0
0
0
0
0
0
0
0
0
0
0
0
0
0
0
0
0
0
0
0
0
0
0
0
0
0
0
0
0
0
0
0
0
0
0
0
0
0
0
0
0
0
0
0
0
0
0
0
0
0
0
0
0
0
0
0
0
0
0
0
0
0
0
0
0
0
0
0
0
0
0
0
0
0
0
0
0
0
0
0
0
0
0
0
0
0
0
0
0
0
0
0
0
0
0
0
0
0
0
0
0
0
0
0
0
0
0
0
0
0
0
0
0
0
0
0
0
0
0
0
0
0
0
0
0
0
0
0
0
0
0
0
0
0
0
0
0
0
0
0
0
0
0
0
0
0
0
0
0
0
0
0
0
0
0
0
0
0
0
0
0
0
0
0
0
0
0
0
0
0
0
0
0
0
0
0
0
0
0
0
0
0
0
0
0
0
0
0
0
0
0
0
0
0
0
0
0
0
0
0
0
0
0
0
0
0
0
0
0
0
0
0
0
0
0
0
0
0
0
0
0
0
0
0
0
0
0
0
0
0
0
0
0
0
0
0
0
0
0
0
0
0
0
0
0
0
0
0
0
0
0
0
0
0
0
0
0
0
0
0
0
0
0
0
0
0
0
0
0
0
0
0
0
0
0
0
0
0
0
0
0
0
0
0
0
0
0
0
0
0
0
0
0
0
0
0
0
0
0
0
0
0
0
0
0
0
0
0
0
0
0
0
0
0
0
0
0
0
0
0
0
0
0
0
0
0
0
0
0
0
0
0
0
0
0
0
0
0
0
0
0
0
0
0
0
0
0
0
0
0
0
0
0
0
0
0
0
0
0
0
0
0
0
0
0
0
0
0
0
0
0
0
0
0
0
0
0
0
0
0
0
0
0
0
0
0
0
0
0
0
0
0
0
0
0
0
0
0
0
0
0
0
0
0
0
0
0
0
0
0
0
0
0
0
0
0
0
0
0
0
0
0
0
0
0
0
0
0
0
0
0
0
0
0
0
0
0
0
0
0
0
0
0
0
0
0
0
0
0
0
0
0
0
0
0
0
0
0
0
0
0
0
0
0
0
0
0
0
0
0
0
0
0
0
0
0
0
0
0
0
0
0
0
0
0
0
0
0
0
0
0
0
0
0
0
0
0
0
0
0
0
0
0
0
0
0
0
0
0
0
0
0
0
0
0
0
0
0
0
0
0
0
0
0
0
0
0
0
0
0
0
0
0
0
0
0
0
0
0
0
0
0
0
0
0
0
0
0
0
0
0
0
0
0
0
0
0
0
0
0
0
0
0
0
0
0
0
0
0
0
0
0
0
0
0
0
0
0
0
0
0
0
0
0
0
0
0
0
0
0
0
0
0
0
0
0
0
0
0
0
0
0
0
0
0
0
0
0
0
0
0
0
0
0
0
0
0
0
0
0
0
0
0
0
0
0
0
0
0
0
0
0
0
0
0
0
0
0
0
0
0
0
0
0
0
0
0
0
0
0
0
0
0
0
0
0
0
0
0
0
0
0
0
0
0
0
0
0
0
0
0
0
0
0
0
0
0
0
0
0
0
0
0
0
0
0
0
0
0
0
0
0
0
0
0
0
0
0
0
0
0
0
0
0
0
0
0
0
0
0
0
0
0
0
0
0
0
0
0
0
0
0
0
0
0
0
0
0
0
0
0
0
0
0
0
0
0
0
0
0
0
0
0
0
0
0
0
0
0
0
0
0
0
0
0
0
0
0
0
0
0
0
0
0
0
0
0
0
0
0
0
0
0
0
0
0
0
0
0
0
0
0
0
0
0
0
0
0
0
0
0
0
0
0
0
0
0
0
0
0
0
0
0
0
0
0
0
0
0
0
0
0
0
0
0
0
0
0
0
0
0
0
0
0
0
0
0
0
0
0
0
0
0
0
0
0
0
0
0
0
0
0
0
0
0
0
0
0
0
0
0
0
0
0
0
0
0
0
0
0
0
0
0
0
0
0
0
0
0
0
0
0
0
0
0
0
0
0
0
0
0
0
0
0
0
0
0
0
0
0
0
0
0
0
0
0
0
0
0
0
0
0
0
0
0
0
0
0
0
0
0
0
0
0
0
0
0
0
0
0
0
0
0
0
0
0
0
0
0
0
0
0
0
0
0
0
0
0
0
0
0
0
0
0
0
0
0
0
0
0
0
0
0
0
0
0
0
0
0
0
0
0
0
0
0
0
0
0
0
0
0
0
0
0
0
0
0
0
0
0
0
0
0
0
0
0
0
0
0
0
0
0
0
0
0
0
0
0
0
0
0
0
0
0
0
0
0
0
0
0
0
0
0
0
0
0
0
0
0
0
0
0
0
0
0
0
0
0
0
0
0
0
0
0
0
0
0
0
0
0
0
0
0
0
0
0
0
0
0
0
0
0
0
0
0
0
0
0
0
0
0
0
0
0
0
0
0
0
0
0
0
0
0
0
0
0
0
0
0
0
0
0
0
0
0
0
0
0
0
0
0
0
0
0
0
0
0
0
0
0
0
0
0
0
0
0
0
0
0
0
0
0
0
0
0
0
0
0
0
0
0
0
0
0
0
0
0
0
0
0
0
0
0
0
0
0
0
0
0
0
0
0
0
0
0
0
0
0
0
0
0
0
0
0
0
0
0
0
0
0
0
0
0
0
0
0
0
0
0
0
0
0
0
0
0
0
0
0
0
0
0
0
0
0
0
0
0
0
0
0
0
0
0
0
0
0
0
0
0
0
0
0
0
0
0
0
0
0
0
0
0
0
0
0
0
0
0
0
0
0
0
0
0
0
0
0
0
0
0
0
0
0
0
0
0
0
0
0
0
0
0
0
0
0
0
0
0
0
0
0
0
0
0
0
0
0
0
0
0
0
0
0
0
0
0
0
0
0
0
0
0
0
0
0
0
0
0
0
0
0
0
0
0
0
0
0
0
0
0
0
0
0
0
0
0
0
0
0
0
0
0
0
0
0
0
0
0
0
0
0
0
0
0
0
0
0
0
0
0
0
0
0
0
0
0
0
0
0
0
0
0
0
0
0
0
0
0
0
0
0
0
0
0
0
0
0
0
0
0
0
0
0
0
0
0
0
0
0
0
0
0
0
0
0
0
0
0
0
0
0
0
0
0
0
0
0
0
0
0
0
0
0
0
0
0
0
0
0
0
0
0
0
0
0
0
0
0
0
0
0
0
0
0
0
0
0
0
0
0
0
0
0
0
0
0
0
0
0
0
0
0
0
0
0
0
0
0
0
0
0
0
0
0
0
0
0
0
0
0
0
0
0
0
0
0
0
0
0
0
0
0
0
0
0
0
0
0
0
0
0
0
0
0
0
0
0
0
0
0
0
0
0
0
0
0
0
0
0
0
0
0
0
0
0
0
0
0
0
0
0
0
0
0
0
0
0
0
0
0
0
0
0
0
0
0
0
0
0
0
0
0
0
0
0
0
0
0
0
0
0
0
0
0
0
0
0
0
0
0
0
0
0
0
0
0
0
0
0
0
0
0
0
0
0
0
0
0
0
0
0
0
0
0
0
0
0
0
0
0
0
0
0
0
0
0
0
0
0
0
0
0
0
0
0
0
0
0
0
0
0
0
0
0
0
0
0
0
0
0
0
0
0
0
0
0
0
0
0
0
0
0
0
0
0
0
0
0
0
0
0
0
0
0
0
0
0
0
0
0
0
0
0
0
0
0
0
0
0
0
0
0
0
0
0
0
0
0
0
0
0
0
0
0
0
0
0
0
0
0
0
0
0
0
0
0
0
0
0
0
0
0
0
0
0
0
0
0
0
0
0
0
0
0
0
0
0
0
0
0
0
0
0
0
0
0
0
0
0
0
0
0
0
0
0
0
0
0
0
0
0
0
0
0
0
0
0
0
0
0
0
0
0
0
0
0
0
0
0
0
0
0
0
0
0
0
0
0
0
0
0
0
0
0
0
0
0
0
0
0
0
0
0
0
0
0
0
0
0
0
0
0
0
0
0
0
0
0
0
0
0
0
0
0
0
0
0
0
0
0
0
0
0
0
0
0
0
0
0
0
0
0
0
0
0
0
0
0
0
0
0
0
0
0
0
0
0
0
0
0
0
0
0
0
0
0
0
0
0
0
0
0
0
0
0
0
0
0
0
0
0
0
0
0
0
0
0
0
0
0
0
0
0
0
0
0
0
0
0
0
0
0
0
0
0
0
0
0
0
0
0
0
0
0
0
0
0
0
0
0
0
0
0
0
0
0
0
0
0
0
0
0
0
0
0
0
0
0
0
0
0
0
0
0
0
0
0
0
0
0
0
0
0
0
0
0
0
0
0
0
0
0
0
0
0
0
0
0
0
0
0
0
0
0
0
0
0
0
0
0
0
0
0
0
0
0
0
0
0
0
0
0
0
0
0
0
0
0
0
0
0
0
0
0
0
0
0
0
0
0
0
0
0
0
0
0
0
0
0
0
0
0
0
0
0
0
0
0
0
0
0
0
0
0
0
0
0
0
0
0
0
0
0
0
0
0
0
0
0
0
0
0
0
0
0
0
0
0
0
0
0
0
0
0
0
0
0
0
0
0
0
0
0
0
0
0
0
0
0
0
0
0
0
0
0
0
0
0
0
0
0
0
0
0
0
0
0
0
0
0
0
0
0
0
0
0
0
0
0
0
0
0
0
0
0
0
0
0
0
0
0
0
0
0
0
0
0
0
0
0
0
0
0
0
0
0
0
0
0
0
0
0
0
0
0
0
0
0
0
0
0
0
0
0
0
0
0
0
0
0
0
0
0
0
0
0
0
0
0
0
0
0
0
0
0
0
0
0
0
0
0
0
0
0
0
0
0
0
0
0
0
0
0
0
0
0
0
0
0
0
0
0
0
0
0
0
0
0
0
0
0
0
0
0
0
0
0
0
0
0
0
0
0
0
0
0
0
0
0
0
0
0
0
0
0
0
0
0
0
0
0
0
0
0
0
0
0
0
0
0
0
0
0
0
0
0
0
0
0
0
0
0
0
0
0
0
0
0
0
0
0
0
0
0
0
0
0
0
0
0
0
0
0
0
0
0
0
0
0
0
0
0
0
0
0
0
0
0
0
0
0
0
0
0
0
0
0
0
0
0
0
0
0
0
0
0
0
0
0
0
0
0
0
0
0
0
0
0
0
0
0
0
0
0
0
0
0
0
0
0
0
0
0
0
0
0
0
0
0
0
0
0
0
0
0
0
0
0
0
0
0
0
0
0
0
0
0
0
0
0
0
0
0
0
0
0
0
0
0
0
0
0
0
0
0
0
0
0
0
0
0
0
0
0
0
0
0
0
0
0
0
0
0
0
0
0
0
0
0
0
0
0
0
0
0
0
0
0
0
0
0
0
0
0
0
0
0
0
0
0
0
0
0
0
0
0
0
0
0
0
0
0
0
0
0
0
0
0
0
0
0
0
0
0
0
0
0
0
0
0
0
0
0
0
0
0
0
0
0
0
0
0
0
0
0
0
0
0
0
0
0
0
0
0
0
0
0
0
0
0
0
0
0
0
0
0
0
0
0
0
0
0
0
0
0
0
0
0
0
0
0
0
0
0
0
0
0
0
0
0
0
0
0
0
0
0
0
0
0
0
0
0
0
0
0
0
0
0
0
0
0
0
0
0
0
0
0
0
0
0
0
0
0
0
0
0
0
0
0
0
0
0
0
0
0
0
0
0
0
0
0
0
0
0
0
0
0
0
0
0
0
0
0
0
0
0
0
0
0
0
0
0
0
0
0
0
0
0
0
0
0
0
0
0
0
0
0
0
0
0
0
0
0
0
0
0
0
0
0
0
0
0
0
0
0
0
0
0
0
0
0
0
0
0
0
0
0
0
0
0
0
0
0
0
0
0
0
0
0
0
0
0
0
0
0
0
0
0
0
0
0
0
0
0
0
0
0
0
0
0
0
0
0
0
0
0
0
0
0
0
0
0
0
0
0
0
0
0
0
0
0
0
0
0
0
0
0
0
0
0
0
0
0
0
0
0
0
0
0
0
0
0
0
0
0
0
0
0
0
0
0
0
0
0
0
0
0
0
0
0
0
0
0
0
0
0
0
0
0
0
0
0
0
0
0
0
0
0
0
0
0
0
0
0
0
0
0
0
0
0
0
0
0
0
0
0
0
0
0
0
0
0
0
0
0
0
0
0
0
0
0
0
0
0
0
0
0
0
0
0
0
0
0
0
0
0
0
0
0
0
0
0
0
0
0
0
0
0
0
0
0
0
0
0
0
0
0
0
0
0
0
0
0
0
0
0
0
0
0
0
0
0
0
0
0
0
0
0
0
0
0
0
0
0
0
0
0
0
0
0
0
0
0
0
0
0
0
0
0
0
0
0
0
0
0
0
0
0
0
0
0
0
0
0
0
0
0
0
0
0
0
0
0
0
0
0
0
0
0
0
0
0
0
0
0
0
0
0
0
0
0
0
0
0
0
0
0
0
0
0
0
0
0
0
0
0
0
0
0
0
0
0
0
0
0
0
0
0
0
0
0
0
0
0
0
0
0
0
0
0
0
0
0
0
0
0
0
0
0
0
0
0
0
0
0
0
0
0
0
0
0
0
0
0
0
0
0
0
0
0
0
0
0
0
0
0
0
0
0
0
0
0
0
0
0
0
0
0
0
0
0
0
0
0
0
0
0
0
0
0
0
0
0
0
0
0
0
0
0
0
0
0
0
0
0
0
0
0
0
0
0
0
0
0
0
0
0
0
0
0
0
0
0
0
0
0
0
0
0
0
0
0
0
0
0
0
0
0
0
0
0
0
0
0
0
0
0
0
0
0
0
0
0
0
0
0
0
0
0
0
0
0
0
0
0
0
0
0
0
0
0
0
0
0
0
0
0
0
0
0
0
0
0
0
0
0
0
0
0
0
0
0
0
0
0
0
0
0
0
0
0
0
0
0
0
0
0
0
0
0
0
0
0
0
0
0
0
0
0
0
0
0
0
0
0
0
0
0
0
0
0
0
0
0
0
0
0
0
0
0
0
0
0
0
0
0
0
0
0
0
0
0
0
0
0
0
0
0
0
0
0
0
0
0
0
0
0
0
0
0
0
0
0
0
0
0
0
0
0
0
0
0
0
0
0
0
0
0
0
0
0
0
0
0
0
0
0
0
0
0
0
0
0
0
0
0
0
0
0
0
0
0
0
0
0
0
0
0
0
0
0
0
0
0
0
0
0
0
0
0
0
0
0
0
0
0
0
0
0
0
0
0
0
0
0
0
0
0
0
0
0
0
0
0
0
0
0
0
0
0
0
