7.58959
7.53071
7.47491
7.42274
7.37434
7.32948
7.28761
7.24817
7.21084
7.17584
7.14397
7.11652
7.09504
7.08107
7.07587
7.08038
7.09522
7.12089
7.15781
7.20588
7.26486
7.33438
7.41346
7.50045
7.59334
7.69014
7.78949
7.89116
7.99651
8.10861
8.23183
8.37104
8.53061
8.71321
8.91897
9.14781
9.39656
9.65295
9.90012
10.1199
10.2937
10.4106
10.4664
10.4592
10.3879
10.2529
10.0562
9.80209
9.49618
9.14423
8.75938
8.35613
7.94303
7.52613
7.11246
6.70971
6.32558
5.96707
5.63973
5.34724
5.09109
4.8707
4.68357
4.52576
4.39231
4.27781
4.17699
4.08527
3.99928
3.91713
3.83847
3.7642
3.696
3.63595
3.58608
3.54714
3.51818
3.49734
3.48247
3.47172
3.46392
3.45851
3.45513
3.45311
3.45111
3.44697
3.43811
3.42209
3.39731
3.36342
3.32135
3.27295
3.22036
3.16539
3.10915
3.05201
2.99393
2.93491
2.87541
2.81656
2.76011
2.70816
2.66273
2.62525
2.59636
2.5756
2.56143
2.55149
2.54289
2.5328
2.51877
2.49912
2.4731
2.44093
2.40363
2.36262
2.31929
2.27443
2.22772
2.17734
2.1206
2.0548
1.97875
1.89402
1.80486
1.72043
1.65102
1.60479
1.5855
1.59077
1.61223
1.63911
1.66174
1.67429
1.67567
1.66864
1.65768
1.64665
1.6368
1.62716
1.61542
1.59798
1.57032
1.52812
1.46772
1.3868
1.28479
1.16301
1.02449
0.873459
0.714613
0.552186
0.390526
0.234482
0.0892125
-0.0412675
-0.153172
-0.242889
-0.310733
-0.359887
0
0.756684
1.99381
3.72419
5.7556
7.6706
8.95387
9.21297
8.36101
6.6521
4.56192
2.59654
1.12791
0.306341
0.0575834
0.114676
0.138427
0.157993
0.173488
0.185581
0.195462
0.204722
0.215219
0.228832
0.247485
0.273133
0.307558
0.352216
0.407993
0.474979
0.552316
0.638223
0.730394
0.825991
0.922433
1.0179
1.11168
1.20424
1.29709
1.39247
1.49303
1.60155
1.72051
1.85248
1.99994
2.16509
2.34947
2.55361
2.77654
3.01559
3.26629
3.52259
3.77731
4.02143
4.24664
4.44608
4.61476
4.74955
4.84742
4.90397
4.91741
4.88526
4.80461
4.67295
4.48934
4.2553
3.9754
3.65717
3.31328
2.9563
2.59542
2.23933
1.89602
1.57244
1.27426
1.00576
0.769826
0.567966
0.40036
0.265936
0.16247
0.0868191
0.0350739
0.00254574
-0.0158401
-0.0250742
-0.029702
-0.0334932
-0.0391769
-0.0482708
-0.0610342
-0.0765738
-0.093116
-0.108341
-0.1199
-0.125866
-0.124976
-0.11689
-0.102025
-0.0813007
-0.0558649
-0.0269178
0.00430927
0.0364723
0.0678284
0.0960773
0.118686
0.13329
0.13824
0.133069
0.118684
0.0972055
0.0715006
0.044574
0.0189758
-0.00369759
-0.0225124
-0.0368916
-0.0465817
-0.0515286
-0.051825
-0.0477257
-0.0397121
-0.0285301
-0.0152084
-0.00101662
0.0126198
0.0242405
0.0324451
0.0361328
0.034618
0.0277252
0.0158043
-0.000372314
-0.0197994
-0.0415203
-0.0647095
-0.0886539
-0.112649
-0.135682
-0.155867
-0.170658
-0.17705
-0.172195
-0.154075
-0.121878
-0.0759438
-0.0173061
0.052927
0.133434
0.224898
0.331072
0.458492
0.61066
0.771032
0.907937
0.985369
0.972236
0.852639
0.634887
0.35551
0.0742104
-0.143272
-0.279653
-0.366233
-0.419874
-0.447124
-0.456473
-0.45632
-0.453175
-0.450624
-0.44932
-0.447903
-0.436036
0
0.812392
2.13683
3.98173
6.09222
7.94146
8.92283
8.65328
7.19592
5.04725
2.88732
1.25601
0.354641
0.0621754
0.0988155
0.0548183
0.0081707
-0.0410011
-0.0905914
-0.135371
-0.168219
-0.181765
-0.170193
-0.130627
-0.0637486
0.026408
0.133319
0.249081
0.366123
0.479543
0.586321
0.685683
0.779229
0.870609
0.964768
1.06689
1.1813
1.31055
1.45431
1.61063
1.77706
1.95093
2.13012
2.31362
2.50174
2.6958
2.89741
3.10759
3.32589
3.5499
3.77541
3.99634
4.20637
4.40046
4.57587
4.73247
4.86883
4.98161
5.0702
5.13079
5.15201
5.11925
5.02047
4.85022
4.61057
4.30958
3.95926
3.58022
3.19095
2.80211
2.42232
2.0601
1.72325
1.41819
1.14935
0.919193
0.728596
0.575397
0.453511
0.355746
0.275098
0.205892
0.144515
0.0897221
0.0420193
0.00297718
-0.0257689
-0.0433594
-0.0501509
-0.0476656
-0.0381388
-0.0238731
-0.00673943
0.0121473
0.0324509
0.0541521
0.0771397
0.100871
0.124101
0.14489
0.160932
0.170108
0.170984
0.163238
0.147866
0.12714
0.104313
0.0831278
0.0672169
0.0593411
0.0608057
0.0715958
0.0909491
0.116598
0.144981
0.171748
0.192618
0.20433
0.205209
0.195482
0.177257
0.154167
0.13074
0.111655
0.101011
0.101274
0.112984
0.135783
0.168843
0.210815
0.259616
0.312089
0.364139
0.410888
0.447259
0.469246
0.474384
0.462337
0.435231
0.397611
0.355955
0.317809
0.290668
0.280249
0.28923
0.326546
0.404907
0.531943
0.689064
0.837327
0.938098
0.960099
0.88697
0.724017
0.500099
0.260755
0.0526665
-0.101358
-0.217454
-0.312612
-0.392884
-0.459325
-0.513595
-0.557111
-0.591156
-0.617085
-0.632884
-0.432601
0
0.76077
1.98893
3.69437
5.63384
7.30677
8.12823
7.71021
6.08695
3.73784
1.3798
-0.36062
-1.21004
-1.3073
-1.16167
-1.08115
-1.01136
-0.951672
-0.900576
-0.854621
-0.811923
-0.770653
-0.72892
-0.684825
-0.636632
-0.583081
-0.523775
-0.459168
-0.391203
-0.32373
-0.260842
-0.205508
-0.158387
-0.117288
-0.0774783
-0.0327421
0.0231971
0.0950851
0.184168
0.29033
0.413481
0.553519
0.710257
0.883445
1.07252
1.27616
1.49178
1.71532
1.94143
2.16363
2.37545
2.57142
2.74777
2.90266
3.03315
3.13713
3.21511
3.26715
3.29141
3.2843
3.24124
3.1576
3.02984
2.8564
2.63842
2.38212
2.09646
1.79134
1.47675
1.16161
0.853662
0.559525
0.28419
0.0308228
-0.199205
-0.406065
-0.591084
-0.75629
-0.90397
-1.03627
-1.15489
-1.26085
-1.35414
-1.43402
-1.49978
-1.55071
-1.58655
-1.60774
-1.61557
-1.61205
-1.59957
-1.58041
-1.55639
-1.52871
-1.49784
-1.46383
-1.42678
-1.38706
-1.346
-1.30643
-1.27183
-1.24561
-1.23034
-1.22729
-1.23633
-1.25622
-1.28502
-1.32024
-1.35882
-1.39822
-1.43559
-1.46808
-1.49322
-1.50938
-1.51608
-1.5142
-1.50575
-1.49345
-1.48021
-1.46861
-1.46042
-1.45691
-1.45863
-1.46541
-1.47637
-1.49008
-1.50397
-1.51483
-1.51945
-1.51516
-1.50028
-1.4744
-1.43822
-1.39331
-1.34164
-1.2855
-1.22671
-1.16642
-1.10546
-1.04446
-0.983976
-0.924896
-0.868931
-0.819005
-0.778666
-0.751772
-0.741527
-0.749497
-0.775039
-0.815406
-0.866512
-0.924032
-0.984304
-1.04474
-1.1038
-1.15963
-1.20906
-1.2478
-1.27078
-1.27309
-1.25146
-1.20572
-1.13953
-1.048
-0.627353
0
0.981835
2.43366
4.27266
6.1249
7.41666
7.63969
6.63348
4.69482
2.43824
0.497432
-0.745208
-1.26055
-1.28348
-1.24223
-1.19962
-1.15413
-1.10384
-1.04682
-0.98209
-0.90992
-0.832385
-0.753288
-0.677531
-0.609972
-0.55353
-0.510515
-0.481346
-0.464283
-0.455411
-0.448889
-0.437473
-0.413387
-0.369236
-0.299002
-0.199517
-0.0712306
0.0838028
0.262554
0.460704
0.673042
0.894712
1.12147
1.3499
1.57757
1.80295
2.0252
2.2438
2.45814
2.66711
2.86881
3.05972
3.23504
3.3903
3.52125
3.62442
3.69734
3.73839
3.74631
3.71969
3.65668
3.5568
3.41825
3.23985
3.02185
2.76644
2.47797
2.16307
1.83115
1.49107
1.15218
0.823986
0.515518
0.234834
-0.0118787
-0.220697
-0.39025
-0.52169
-0.61843
-0.685503
-0.728786
-0.754517
-0.769088
-0.778193
-0.785964
-0.79472
-0.804973
-0.815698
-0.824836
-0.829947
-0.828869
-0.820393
-0.804492
-0.781825
-0.753758
-0.722011
-0.688322
-0.654121
-0.62042
-0.587858
-0.556795
-0.527458
-0.500089
-0.475044
-0.45287
-0.43435
-0.42049
-0.412563
-0.411915
-0.419507
-0.435716
-0.459996
-0.490633
-0.524714
-0.558406
-0.587548
-0.607928
-0.613942
-0.602857
-0.580898
-0.557557
-0.541701
-0.537772
-0.543844
-0.552508
-0.554247
-0.541773
-0.514132
-0.477803
-0.438194
-0.401243
-0.371522
-0.350867
-0.337954
-0.328901
-0.318604
-0.302316
-0.277637
-0.244553
-0.204135
-0.157784
-0.107174
-0.0537682
0.00147142
0.0580543
0.11574
0.173735
0.228951
0.275358
0.304826
0.309139
0.282539
0.223801
0.137023
0.0308573
-0.0835029
-0.194792
-0.295639
-0.382686
-0.450849
-0.497255
-0.521417
-0.524196
-0.507906
-0.476523
-0.425275
0
0.674521
1.71792
3.22333
5.09918
6.9942
8.37673
8.75229
7.90266
6.01061
3.59976
1.31889
-0.318027
-1.10756
-1.17297
-1.01178
-0.86241
-0.733378
-0.629147
-0.548953
-0.487345
-0.435843
-0.385255
-0.327999
-0.260924
-0.184482
-0.100237
-0.0111849
0.0793465
0.168728
0.255755
0.340874
0.425898
0.513351
0.605702
0.704719
0.810932
0.92427
1.04453
1.17173
1.3065
1.45029
1.60516
1.77337
1.9567
2.15567
2.36904
2.59356
2.82425
3.05509
3.27987
3.49357
3.6932
3.87832
4.05038
4.21114
4.36406
4.5142
4.66035
4.78927
4.88101
4.91669
4.88417
4.77983
4.60659
4.37001
4.07579
3.73588
3.37082
2.9964
2.62246
2.25686
1.90719
1.58003
1.28028
1.01089
0.772862
0.565737
0.389491
0.243451
0.125834
0.0351418
-0.0299984
-0.0711824
-0.0906054
-0.0913025
-0.0771564
-0.0526581
-0.0225044
0.00898304
0.0383757
0.0633434
0.0827499
0.0965435
0.105475
0.110734
0.113625
0.115274
0.116493
0.117833
0.119699
0.122479
0.126637
0.132739
0.141399
0.153134
0.168178
0.186348
0.206918
0.2285
0.249084
0.266499
0.278937
0.285423
0.286103
0.282211
0.275693
0.268553
0.262138
0.256724
0.250809
0.241766
0.227041
0.205469
0.178133
0.148358
0.120784
0.0998583
0.0883799
0.0869671
0.0936451
0.105295
0.119283
0.134798
0.15334
0.178212
0.213288
0.261609
0.322574
0.393915
0.473709
0.559187
0.645852
0.72688
0.794829
0.842447
0.863466
0.85348
0.810761
0.736796
0.63641
0.517412
0.389764
0.264096
0.148468
0.0496294
-0.0280916
-0.0833069
-0.117535
-0.134581
-0.139475
-0.137268
-0.132067
-0.126323
-0.241709
0
0.939101
2.72076
5.12525
7.55407
9.24707
9.61918
8.5275
6.32906
3.71743
1.43309
-0.0166767
-0.516252
-0.320372
-0.167996
-0.0987339
-0.0804081
-0.111509
-0.176128
-0.249112
-0.304029
-0.322543
-0.31172
-0.277415
-0.222758
-0.152788
-0.0731201
0.0113659
0.0973774
0.183678
0.27057
0.359274
0.451241
0.547583
0.648643
0.754584
0.865723
0.983001
1.10851
1.24566
1.39893
1.57313
1.77244
1.99928
2.25458
2.55178
2.89155
3.22626
3.50351
3.68328
3.75059
3.71947
3.62729
3.52284
3.57825
4.06165
4.7328
5.32088
5.6157
5.55818
5.24491
4.8466
4.50113
4.25422
4.04277
3.80857
3.55751
3.29418
3.02041
2.7377
2.44803
2.15421
1.86002
1.57004
1.28945
1.02372
0.778325
0.559242
0.370727
0.215446
0.0941055
0.0064064
-0.0501965
-0.080965
-0.0918442
-0.0885014
-0.0755917
-0.0564388
-0.033173
-0.00720329
0.0202518
0.0475319
0.07243
0.0923904
0.104961
0.108326
0.101741
0.0857471
0.0620853
0.0333508
0.0025116
-0.0279343
-0.0563309
-0.0819679
-0.105059
-0.126449
-0.1471
-0.167513
-0.187249
-0.20472
-0.217338
-0.222008
-0.215393
-0.19251
-0.149161
-0.0892162
-0.0255749
0.0266102
0.0545448
0.0517635
0.0201538
-0.030547
-0.0855392
-0.12916
-0.150968
-0.15109
-0.133879
-0.102405
-0.0599716
-0.0102856
0.0436947
0.100518
0.160482
0.225262
0.297062
0.377544
0.466886
0.563599
0.663666
0.761292
0.849931
0.923161
0.974728
0.998759
0.991626
0.951247
0.877513
0.772868
0.642727
0.495386
0.34115
0.190745
0.0526459
-0.0674629
-0.167432
-0.248709
-0.31545
-0.373112
-0.426986
-0.481088
-0.542487
-0.492588
0
1.13453
2.96159
5.25992
7.51171
9.0425
9.30733
8.17155
6.00173
3.48908
1.31275
-0.14156
-0.854749
-1.04729
-0.956313
-0.871856
-0.790961
-0.715122
-0.644719
-0.578358
-0.513325
-0.446335
-0.373805
-0.290976
-0.189437
-0.0679573
0.0563801
0.160122
0.223024
0.237136
0.211063
0.167241
0.133392
0.132141
0.168867
0.230616
0.30767
0.395503
0.491397
0.59372
0.702164
0.81763
0.941904
1.07725
1.22579
1.3895
1.5699
1.76763
1.98213
2.21137
2.45166
2.69784
2.94359
3.18158
3.40422
3.60388
3.77234
3.90079
3.98242
4.01262
3.98635
3.89836
3.74437
3.52276
3.23625
2.89304
2.50687
2.09747
1.68433
1.28146
0.900771
0.551704
0.240595
-0.0294155
-0.25804
-0.44717
-0.60008
-0.720679
-0.812976
-0.880793
-0.927697
-0.957067
-0.972292
-0.977616
-0.979443
-0.985159
-1.00106
-1.0309
-1.07477
-1.12873
-1.18547
-1.23597
-1.27165
-1.28671
-1.27895
-1.25019
-1.20557
-1.15211
-1.0971
-1.04598
-1.00216
-0.967499
-0.94212
-0.924721
-0.91306
-0.904601
-0.897161
-0.88947
-0.881457
-0.874435
-0.8708
-0.873243
-0.88387
-0.903428
-0.930883
-0.963416
-0.99685
-1.02634
-1.04736
-1.05713
-1.05399
-1.03684
-1.00587
-0.962525
-0.909306
-0.849088
-0.785756
-0.722953
-0.663187
-0.607287
-0.554277
-0.501742
-0.44663
-0.386287
-0.318534
-0.2437
-0.166353
-0.0936802
-0.0336636
0.00668564
0.0226997
0.0127857
-0.0215115
-0.0760189
-0.14493
-0.221991
-0.302197
-0.38268
-0.46299
-0.544088
-0.627407
-0.715023
-0.806823
-0.897236
-0.978213
-1.04288
-1.08915
-1.11447
-0.684137
0
1.02256
2.43342
4.13233
5.81151
7.01386
7.30499
6.48744
4.73952
2.57401
0.613059
-0.695236
-1.25014
-1.26326
-1.23273
-1.20131
-1.16763
-1.12935
-1.08383
-1.02922
-0.96573
-0.896106
-0.825633
-0.760727
-0.707113
-0.668112
-0.64363
-0.630162
-0.621718
-0.611281
-0.592434
-0.561724
-0.517788
-0.459801
-0.387228
-0.299897
-0.197739
-0.0805595
0.05205
0.200625
0.365601
0.54702
0.744222
0.955628
1.17865
1.40976
1.64469
1.87875
2.10724
2.32577
2.53069
2.71924
2.88966
3.0407
3.17032
3.27579
3.35572
3.40854
3.43154
3.42094
3.37234
3.2813
3.14404
2.95828
2.72412
2.44797
2.13932
1.8081
1.46494
1.12121
0.788498
0.477604
0.19755
-0.0452297
-0.246959
-0.407094
-0.527936
-0.613978
-0.671259
-0.705884
-0.723552
-0.731865
-0.738211
-0.747926
-0.763573
-0.78456
-0.807329
-0.826227
-0.834946
-0.828203
-0.804273
-0.763474
-0.706121
-0.639027
-0.572561
-0.515897
-0.474467
-0.448805
-0.435206
-0.427956
-0.422162
-0.415947
-0.410995
-0.411213
-0.420432
-0.440088
-0.467896
-0.498014
-0.522556
-0.533808
-0.529388
-0.510193
-0.477718
-0.433971
-0.381919
-0.32515
-0.26704
-0.210198
-0.156157
-0.105379
-0.0574997
-0.0117371
0.0327019
0.0763359
0.119301
0.161449
0.202567
0.24265
0.282127
0.32199
0.363748
0.40921
0.460131
0.517767
0.582451
0.65331
0.7284
0.804272
0.876719
0.941418
0.994526
1.03306
1.05503
1.05932
1.04543
1.01321
0.963289
0.896166
0.812013
0.709699
0.586394
0.436493
0.253783
0.0429966
-0.171959
-0.359045
-0.486421
-0.533099
-0.500102
-0.416419
0
0.777401
2.07466
3.88626
5.94682
7.75662
8.76036
8.60172
7.31222
5.31336
3.21762
1.54544
0.521444
0.0563152
-0.112048
-0.249829
-0.368893
-0.449838
-0.475232
-0.435677
-0.336174
-0.198005
-0.0532459
0.0668221
0.144464
0.194616
0.228084
0.252713
0.276349
0.305218
0.342061
0.387771
0.443679
0.510982
0.590976
0.685032
0.794408
0.920013
1.06135
1.218
1.38928
1.57408
1.77105
1.97875
2.19587
2.42138
2.65473
2.89582
3.14493
3.40249
3.66877
3.94415
4.23121
4.53064
4.82672
5.0887
5.28508
5.39308
5.40517
5.33003
5.18726
4.9979
4.7756
4.52421
4.24979
3.95932
3.65811
3.35045
3.04068
2.73345
2.43383
2.14673
1.87642
1.62602
1.39734
1.19086
1.00618
0.843188
0.702741
0.586111
0.493331
0.424705
0.380376
0.35945
0.359322
0.375465
0.401797
0.431494
0.458022
0.47688
0.485236
0.481899
0.46768
0.44533
0.419237
0.394868
0.377925
0.373286
0.388334
0.431204
0.490076
0.546421
0.582462
0.588929
0.569303
0.538233
0.514675
0.513014
0.535934
0.574286
0.611248
0.629217
0.616917
0.573623
0.50909
0.439594
0.381866
0.34683
0.331492
0.328891
0.33418
0.342772
0.35038
0.353901
0.351954
0.344989
0.334986
0.324846
0.317663
0.315905
0.320832
0.332625
0.350633
0.373674
0.399925
0.42755
0.455632
0.484674
0.516762
0.555271
0.604154
0.667049
0.752236
0.867644
1.00644
1.14269
1.24808
1.30051
1.28969
1.21877
1.10247
0.962346
0.820445
0.692931
0.581849
0.482095
0.389173
0.30021
0.213523
0.128183
0.044623
-0.0349097
-0.107111
-0.168826
-0.218407
-0.256619
-0.282259
0
0.502307
1.37447
2.74397
4.56675
6.51598
8.03753
8.58004
7.87293
6.0776
3.71972
1.44835
-0.235492
-1.14183
-1.38468
-1.24565
-1.14149
-1.05727
-1.00174
-0.980247
-0.993328
-1.03613
-1.09875
-1.16753
-1.2272
-1.26412
-1.27186
-1.25142
-1.20739
-1.14411
-1.06616
-0.983005
-0.903687
-0.834691
-0.778575
-0.733667
-0.694891
-0.655328
-0.607924
-0.546909
-0.470485
-0.378005
-0.268432
-0.141284
0.00321565
0.164066
0.339383
0.52638
0.721473
0.92066
1.1199
1.31557
1.50495
1.68648
1.85994
2.02615
2.1861
2.34248
2.50445
2.67081
2.81543
2.89762
2.88144
2.75022
2.50864
2.17511
1.77416
1.33449
0.891553
0.461416
0.0490752
-0.341296
-0.703441
-1.03208
-1.32275
-1.57349
-1.78429
-1.95704
-2.09501
-2.20314
-2.28709
-2.35247
-2.40429
-2.44653
-2.48197
-2.51237
-2.53883
-2.56215
-2.58315
-2.6033
-2.62435
-2.6476
-2.67329
-2.70002
-2.72483
-2.74373
-2.75266
-2.74865
-2.73177
-2.70429
-2.66913
-2.62988
-2.59097
-2.55681
-2.53092
-2.5155
-2.5112
-2.51731
-2.53204
-2.55299
-2.57753
-2.60309
-2.6274
-2.64851
-2.66468
-2.67447
-2.6769
-2.67157
-2.65883
-2.63959
-2.61539
-2.58819
-2.55973
-2.53109
-2.50257
-2.47374
-2.44385
-2.41234
-2.37921
-2.34526
-2.31187
-2.28063
-2.25299
-2.22979
-2.21101
-2.19571
-2.18209
-2.16783
-2.15037
-2.12731
-2.09664
-2.05695
-2.00748
-1.948
-1.8787
-1.80005
-1.71262
-1.61709
-1.51415
-1.40464
-1.28956
-1.17024
-1.04836
-0.925975
-0.805452
-0.689351
-0.580378
-0.48064
-0.391496
-0.313344
-0.245637
-0.187114
-0.136238
-0.0916893
-0.0528503
-0.0197857
0.00681534
0.0260311
0.0372059
0.0403568
0.0363647
0.0268879
0.0140457
0
-0.0240093
-0.0463039
-0.0664558
-0.0846352
-0.100088
0.0856667
0.694888
1.89984
3.7051
5.8702
7.92142
9.27982
9.4868
8.42573
6.40597
4.04279
1.99185
0.688747
0.226472
0.400809
0.620715
0.761354
0.860388
0.918141
0.946647
0.965984
0.997498
1.0564
1.1434
1.24695
1.35909
1.47305
1.58367
1.68903
1.79125
1.89608
2.01155
2.14607
2.3062
2.4929
2.70376
2.93367
3.17601
3.41971
3.65281
3.8667
4.0584
4.23151
4.3955
4.56341
4.74859
4.96121
5.20257
5.46786
5.75646
6.0527
6.32986
6.56318
6.73624
6.84421
6.89277
6.89358
6.85832
6.79362
6.70438
6.59124
6.44923
6.27379
6.06228
5.81485
5.53466
5.22748
4.90215
4.56756
4.23103
3.89947
3.57901
3.2747
2.99032
2.72821
2.48933
2.27345
2.07953
1.90627
1.75263
1.61939
1.50722
1.41663
1.34782
1.30116
1.2766
1.26826
1.2684
1.26901
1.26355
1.24831
1.22281
1.18946
1.15239
1.11609
1.08395
1.05768
1.03804
1.02543
1.02001
1.0219
1.03126
1.04877
1.07634
1.11216
1.14736
1.17018
1.16965
1.13977
1.08203
1.00504
0.921597
0.844655
0.78203
0.733298
0.696888
0.671922
0.657093
0.650451
0.649712
0.652504
0.656553
0.659773
0.660291
0.656805
0.64866
0.635922
0.619347
0.600188
0.579842
0.559416
0.539392
0.519383
0.498396
0.475488
0.450539
0.424794
0.400921
0.382491
0.373047
0.375007
0.387971
0.410553
0.440681
0.475587
0.51268
0.550248
0.587891
0.626576
0.668279
0.715815
0.773269
0.844528
0.923737
0.991631
1.02395
0.999784
0.909979
0.762322
0.58079
0.398608
0.247762
0.140611
0.0653679
0.0190926
0
0.0194328
0.058844
0.11377
0.179836
0.253561
0.335309
0.526035
0.931544
1.72055
3.01521
4.7425
6.57732
8.0173
8.57477
8.00001
6.41996
4.30675
2.27452
0.802193
0.0399605
-0.188218
-0.205263
-0.209152
-0.206842
-0.196049
-0.175185
-0.144933
-0.108848
-0.0717445
-0.0383774
-0.0120644
0.00638199
0.0190697
0.0306984
0.0475319
0.0759659
0.120226
0.181583
0.258997
0.350229
0.452701
0.563579
0.680123
0.800241
0.922842
1.04802
1.1771
1.31254
1.45759
1.61587
1.79066
1.98419
2.19692
2.42715
2.67095
2.9227
3.17597
3.42468
3.66431
3.89275
4.1098
4.31578
4.51394
4.71547
4.91858
5.09765
5.21505
5.23716
5.14537
4.9389
4.63198
4.24989
3.82493
3.39354
2.97085
2.56114
2.16882
1.79875
1.45509
1.14132
0.860192
0.613531
0.402002
0.224884
0.0801029
-0.035606
-0.126341
-0.196587
-0.250747
-0.292741
-0.325717
-0.351903
-0.372576
-0.388194
-0.398631
-0.403508
-0.402537
-0.395741
-0.38378
-0.368204
-0.351131
-0.334854
-0.321412
-0.312221
-0.30784
-0.307911
-0.311269
-0.316136
-0.320419
-0.322104
-0.31942
-0.311037
-0.296127
-0.274513
-0.247404
-0.21737
-0.187444
-0.160427
-0.138244
-0.121544
-0.109669
-0.10098
-0.0934193
-0.0851326
-0.0750473
-0.0628204
-0.0485592
-0.0326855
-0.0156422
0.002388
0.0216499
0.042799
0.0666851
0.09403
0.125183
0.15955
0.194947
0.228024
0.255492
0.275341
0.287815
0.295752
0.304111
0.318764
0.344956
0.385284
0.43885
0.504169
0.57827
0.657497
0.738289
0.818014
0.894936
0.967976
1.03616
1.09742
1.14773
1.18245
1.19586
1.1827
1.13989
1.06805
0.971963
0.859844
0.741544
0.626225
0.518719
0.421284
0.334443
0.257811
0.191073
0.13234
0.0801502
0.0353458
0
0.0249399
0.600727
1.60944
3.0797
4.93789
6.92247
8.58499
9.43275
9.15819
7.8115
5.79755
3.68927
1.96861
0.85085
0.282739
0.195823
0.307476
0.426136
0.543563
0.650564
0.739437
0.806353
0.853124
0.887383
0.92086
0.966222
1.03347
1.12248
1.23107
1.35829
1.49354
1.62191
1.7303
1.81128
1.8655
1.90189
1.93527
1.98218
2.05602
2.15966
2.28677
2.43036
2.58618
2.75031
2.92017
3.09505
3.27602
3.46514
3.66441
3.87483
4.0957
4.32467
4.5591
4.79664
5.03587
5.27796
5.54074
5.82438
6.0823
6.24111
6.24783
6.10513
5.86855
5.60606
5.34726
5.06568
4.75481
4.42591
4.08412
3.73356
3.38077
3.03444
2.7043
2.39977
2.12866
1.8977
1.71612
1.59021
1.509
1.45778
1.42175
1.38943
1.35484
1.31778
1.28229
1.25409
1.23788
1.23299
1.23767
1.25033
1.26864
1.29016
1.31274
1.33496
1.35605
1.37588
1.39486
1.41376
1.43364
1.45559
1.48055
1.50894
1.54043
1.57373
1.60553
1.63021
1.64149
1.63407
1.60556
1.55793
1.49787
1.43587
1.38391
1.36203
1.39232
1.46119
1.53812
1.58978
1.59468
1.55125
1.47677
1.39858
1.34225
1.31836
1.31579
1.32421
1.33829
1.35264
1.36279
1.36581
1.36038
1.34627
1.32369
1.29269
1.25354
1.20662
1.15208
1.09103
1.02578
0.96021
0.899544
0.849235
0.813959
0.796666
0.797978
0.816049
0.846921
0.885911
0.926906
0.964597
0.995671
1.01953
1.03843
1.05699
1.08117
1.12038
1.19098
1.30202
1.43133
1.54487
1.60937
1.60278
1.51989
1.37252
1.18546
0.989794
0.81536
0.672151
0.55392
0.453796
0.368028
0.294179
0.229114
0.169741
0.113114
0.0569616
0
-0.0646139
0.12289
0.692603
1.72794
3.23348
5.07244
6.92353
8.322
8.81171
8.15349
6.46832
4.21071
1.97449
0.243999
-0.770405
-1.14199
-1.13729
-1.15266
-1.17012
-1.18533
-1.19183
-1.18241
-1.15121
-1.09586
-1.01856
-0.925828
-0.826999
-0.732175
-0.647891
-0.579506
-0.530173
-0.500417
-0.488142
-0.488996
-0.4971
-0.50602
-0.509775
-0.503615
-0.485926
-0.456587
-0.415453
-0.362674
-0.298863
-0.22496
-0.142101
-0.0514627
0.0459384
0.149472
0.259063
0.375258
0.499154
0.632197
0.775894
0.931535
1.09997
1.28162
1.48014
1.70862
1.99111
2.32555
2.65336
2.90904
3.0423
3.0337
2.89474
2.65455
2.3431
1.9804
1.57781
1.1589
0.743588
0.340918
-0.044874
-0.40832
-0.74102
-1.03592
-1.28811
-1.49518
-1.6575
-1.77786
-1.86106
-1.91322
-1.94116
-1.95158
-1.95048
-1.9427
-1.93181
-1.92005
-1.90865
-1.89829
-1.88942
-1.88219
-1.8764
-1.87134
-1.86569
-1.85756
-1.84498
-1.82652
-1.80171
-1.77192
-1.74069
-1.71254
-1.69164
-1.68059
-1.67961
-1.68647
-1.697
-1.70594
-1.70859
-1.70183
-1.6835
-1.65241
-1.60886
-1.55454
-1.4924
-1.42585
-1.35872
-1.29521
-1.23985
-1.19609
-1.16581
-1.14917
-1.14436
-1.1476
-1.15357
-1.15614
-1.14939
-1.12858
-1.09212
-1.04052
-0.974148
-0.893679
-0.800272
-0.695321
-0.58032
-0.456946
-0.32706
-0.192605
-0.0554234
0.0829845
0.221634
0.36007
0.498174
0.635669
0.771106
0.899961
1.01517
1.10823
1.17251
1.20647
1.21561
1.21187
1.21082
1.22778
1.29486
1.4405
1.63183
1.81136
1.92579
1.94058
1.84749
1.66678
1.44291
1.23141
1.07673
0.968948
0.879786
0.79502
0.706814
0.602237
0.46704
0.308912
0.157789
0.0466896
0
0.058914
0.188093
0.371622
0.591088
1.07837
1.87628
3.14568
4.92227
6.98616
8.8517
9.93558
9.83316
8.53888
6.46624
4.25259
2.46841
1.39975
1.0062
1.05477
1.1163
1.17772
1.23846
1.29868
1.35931
1.42182
1.48773
1.55814
1.6335
1.7128
1.79405
1.87476
1.95258
2.02591
2.09423
2.15822
2.21961
2.28086
2.34462
2.4133
2.48896
2.57318
2.66687
2.77026
2.8833
3.00579
3.13753
3.27861
3.4295
3.59113
3.76488
3.95222
4.15424
4.3713
4.60583
4.85635
5.11034
5.34895
5.55376
5.7113
5.81573
5.86871
5.87659
5.84612
5.78035
5.67847
5.54028
5.36733
5.16097
4.92118
4.64865
4.3468
4.02164
3.68126
3.33475
2.99145
2.66006
2.34804
2.06127
1.80389
1.57843
1.38587
1.22584
1.09679
0.996705
0.922902
0.870309
0.83348
0.80724
0.787312
0.770691
0.755664
0.741474
0.727803
0.714275
0.700299
0.68527
0.669038
0.652374
0.637151
0.626059
0.621892
0.626574
0.64177
0.665988
0.695149
0.724418
0.749882
0.769886
0.785482
0.799801
0.816555
0.838258
0.865012
0.893562
0.91824
0.932724
0.932149
0.914834
0.883049
0.842554
0.801119
0.766364
0.742457
0.730764
0.731398
0.742375
0.760143
0.780317
0.798419
0.810517
0.813635
0.80594
0.78683
0.756409
0.715328
0.664509
0.605096
0.538252
0.465142
0.387261
0.306606
0.225785
0.148116
0.07761
0.018354
-0.0260452
-0.0527664
-0.0600449
-0.0473
-0.0151146
0.0348907
0.100215
0.177657
0.263401
0.353285
0.442941
0.527814
0.603023
0.663136
0.702853
0.716991
0.700774
0.650417
0.56386
0.441555
0.287087
0.107449
-0.0892738
-0.288999
-0.472015
-0.620847
-0.72384
-0.777333
-0.785695
-0.759209
-0.710584
-0.651366
-0.589713
-0.529598
-0.438275
0
0.956114
2.51243
4.51912
6.57068
8.10098
8.59655
7.82674
5.96806
3.54703
1.22388
-0.477681
-1.36166
-1.57572
-1.45436
-1.33552
-1.22014
-1.11307
-1.02126
-0.952624
-0.913499
-0.904514
-0.917308
-0.934351
-0.932937
-0.892307
-0.801121
-0.673953
-0.528223
-0.374078
-0.221729
-0.0809891
0.0408409
0.140076
0.217048
0.275737
0.32284
0.366468
0.414837
0.475011
0.551582
0.647125
0.763276
0.901058
1.06077
1.2421
1.44422
1.6659
1.90561
2.1616
2.43213
2.71556
3.01038
3.31788
3.64514
4.00138
4.37066
4.70302
4.95135
5.08394
5.0895
4.97727
4.77048
4.49316
4.15575
3.75242
3.30511
2.8492
2.40505
1.98232
1.58744
1.22841
0.912051
0.641844
0.418356
0.239718
0.102686
0.00209579
-0.068
-0.111073
-0.131043
-0.136758
-0.138515
-0.145349
-0.16369
-0.196449
-0.243006
-0.300165
-0.363641
-0.42939
-0.494299
-0.556436
-0.613721
-0.663185
-0.701612
-0.725746
-0.733117
-0.722948
-0.696795
-0.658623
-0.614167
-0.570041
-0.532238
-0.504915
-0.489652
-0.48539
-0.489006
-0.496365
-0.503529
-0.507763
-0.507617
-0.504832
-0.503951
-0.509798
-0.52524
-0.549654
-0.578777
-0.606077
-0.625199
-0.632497
-0.629554
-0.620775
-0.612127
-0.609866
-0.618853
-0.641496
-0.677621
-0.72512
-0.780922
-0.841766
-0.9042
-0.965362
-1.02201
-1.07027
-1.106
-1.12525
-1.12497
-1.1037
-1.06193
-1.00193
-0.927336
-0.842377
-0.751525
-0.658458
-0.565957
-0.476316
-0.391611
-0.313228
-0.241961
-0.177923
-0.120604
-0.0692207
-0.0248936
0.00876694
0.0263271
0.0186157
-0.0238091
-0.105729
-0.223299
-0.363255
-0.505993
-0.631292
-0.725542
-0.788416
-0.820665
-0.827551
-0.816443
-0.794363
-0.766858
-0.736548
-0.703795
-0.539508
0
1.03464
2.58396
4.46918
6.31081
7.62134
7.98243
7.23635
5.58733
3.53555
1.65619
0.341478
-0.339475
-0.586361
-0.673613
-0.740391
-0.794867
-0.831288
-0.845317
-0.834731
-0.799713
-0.742595
-0.667114
-0.577383
-0.47751
-0.370614
-0.258551
-0.142366
-0.0227627
0.0994503
0.22311
0.346739
0.468759
0.587807
0.703055
0.814448
0.922773
1.0296
1.1371
1.24789
1.36492
1.49139
1.6308
1.78681
1.96301
2.16246
2.38709
2.63705
2.91033
3.2027
3.50813
3.8197
4.1304
4.43312
4.7187
4.97419
5.18986
5.36527
5.49118
5.55093
5.52846
5.41606
5.21761
4.94718
4.62475
4.27175
3.91129
3.55534
3.20895
2.87677
2.56409
2.27556
2.01483
1.78424
1.585
1.41622
1.2752
1.15826
1.06137
0.980774
0.913342
0.856782
0.809577
0.77085
0.740169
0.717524
0.703405
0.698352
0.702972
0.717722
0.742671
0.777376
0.820902
0.871997
0.929336
0.991632
1.05778
1.12696
1.19721
1.26359
1.31897
1.35561
1.36765
1.35354
1.31715
1.26728
1.21547
1.17314
1.14631
1.13476
1.13707
1.15205
1.17707
1.20859
1.24267
1.27544
1.30345
1.32351
1.33299
1.32998
1.31327
1.28249
1.23821
1.18206
1.11653
1.04469
0.969693
0.894233
0.820013
0.747708
0.676982
0.606693
0.535292
0.461304
0.383784
0.302668
0.218927
0.134507
0.0520786
-0.0252804
-0.0944515
-0.152734
-0.198111
-0.229315
-0.245794
-0.247604
-0.235267
-0.209662
-0.172004
-0.12346
-0.0650894
0.000857544
0.0669952
0.1201
0.144821
0.127045
0.0580864
-0.0618278
-0.222308
-0.404599
-0.586024
-0.745763
-0.878995
-0.988372
-1.07225
-1.13127
-1.16768
-1.18462
-1.18545
-1.17339
-1.15172
-1.12336
-1.0835
-0.667156
0
1.02672
2.54262
4.46501
6.38926
7.69128
7.83233
6.66993
4.55831
2.17198
0.173465
-1.07058
-1.57821
-1.63602
-1.67378
-1.70684
-1.73037
-1.73972
-1.731
-1.70182
-1.65201
-1.58407
-1.50306
-1.41593
-1.33034
-1.25225
-1.18638
-1.13554
-1.10016
-1.07833
-1.06607
-1.0578
-1.04695
-1.02696
-0.991864
-0.936345
-0.856612
-0.750974
-0.620129
-0.467344
-0.29735
-0.115303
0.0740467
0.267377
0.463382
0.662803
0.86791
1.08163
1.30659
1.54432
1.79476
2.05661
2.32929
2.61282
2.90414
3.19185
3.45438
3.66331
3.7885
3.80725
3.71144
3.51106
3.23279
2.91179
2.57742
2.24115
1.90457
1.57007
1.24013
0.918179
0.608899
0.317221
0.0476177
-0.196495
-0.413118
-0.602074
-0.764516
-0.902346
-1.01605
-1.10651
-1.17509
-1.2231
-1.24956
-1.25447
-1.24598
-1.23396
-1.22726
-1.23086
-1.24423
-1.26173
-1.27487
-1.27564
-1.26053
-1.23286
-1.19505
-1.15254
-1.11285
-1.08316
-1.06864
-1.07135
-1.08981
-1.1193
-1.15292
-1.18318
-1.20387
-1.21233
-1.20848
-1.1958
-1.18046
-1.16894
-1.16594
-1.17287
-1.18745
-1.20452
-1.21772
-1.22139
-1.214
-1.19637
-1.17013
-1.13784
-1.10314
-1.07015
-1.04259
-1.02323
-1.01364
-1.01415
-1.02406
-1.04204
-1.06647
-1.09561
-1.12783
-1.16165
-1.19558
-1.22802
-1.25726
-1.2816
-1.2996
-1.31029
-1.31342
-1.30953
-1.29958
-1.28521
-1.26862
-1.25144
-1.23413
-1.21581
-1.19445
-1.16757
-1.1331
-1.09026
-1.03994
-0.984722
-0.92761
-0.871408
-0.817911
-0.767509
-0.719318
-0.671764
-0.623328
-0.573339
-0.522709
-0.474846
-0.436848
-0.417427
-0.425428
-0.468029
-0.548498
-0.66409
-0.804967
-0.954987
-1.09462
-1.20542
-1.27545
-1.30047
-1.28495
-1.23978
-1.17833
-1.11228
-1.04836
-0.987742
-0.939873
-0.669438
0
1.18675
2.8847
4.87997
6.73858
7.91737
7.98643
6.85598
4.86016
2.61891
0.744739
-0.423416
-0.900376
-0.93418
-0.87477
-0.817318
-0.76165
-0.707985
-0.656279
-0.606251
-0.557925
-0.511595
-0.467505
-0.425509
-0.38471
-0.343378
-0.299098
-0.248928
-0.18985
-0.11932
-0.0357922
0.0609393
0.169687
0.288145
0.413457
0.542867
0.674399
0.807311
0.942218
1.08085
1.22552
1.37848
1.54133
1.71468
1.89802
2.09006
2.28908
2.49339
2.70172
2.91333
3.128
3.34568
3.56613
3.78872
4.01102
4.22638
4.42571
4.59936
4.73886
4.83468
4.87833
4.86341
4.78145
4.62292
4.38122
4.05831
3.66916
3.24185
2.81221
2.41004
2.04131
1.70831
1.41423
1.15872
0.939157
0.752228
0.595223
0.466683
0.366313
0.294639
0.258035
0.263948
0.308953
0.373881
0.436936
0.479462
0.490647
0.46979
0.425736
0.373891
0.331698
0.313255
0.320787
0.349174
0.392473
0.445588
0.503626
0.561606
0.615122
0.660776
0.696325
0.720579
0.733096
0.734116
0.7244
0.705224
0.678453
0.646551
0.612456
0.579256
0.549766
0.526094
0.509241
0.499339
0.495735
0.497326
0.502917
0.511524
0.522498
0.535463
0.550148
0.566187
0.582934
0.599359
0.614098
0.625591
0.632266
0.632749
0.626066
0.611837
0.590423
0.563026
0.531719
0.499054
0.467883
0.440842
0.420122
0.406909
0.401131
0.401945
0.408324
0.419683
0.436353
0.459741
0.492156
0.537169
0.605642
0.72708
0.935131
1.18712
1.4169
1.55434
1.55369
1.41555
1.18552
0.929125
0.700015
0.519517
0.362988
0.216727
0.0770179
-0.0545785
-0.174262
-0.277884
-0.360567
-0.418138
-0.44854
-0.452659
-0.434349
-0.399802
-0.355665
-0.297819
0
0.782155
2.16373
4.03284
5.98219
7.41844
7.82165
7.01272
5.25623
3.12723
1.23036
-0.0540409
-0.66465
-0.7799
-0.678936
-0.585822
-0.498725
-0.419459
-0.348874
-0.286547
-0.231536
-0.182354
-0.137267
-0.0945511
-0.0526525
-0.0102365
0.0338747
0.0808483
0.131923
0.188424
0.251701
0.322991
0.403218
0.492955
0.592359
0.701225
0.819151
0.94578
1.08106
1.22546
1.38003
1.54632
1.72605
1.92076
2.13122
2.35703
2.59627
2.84544
3.09962
3.35285
3.59876
3.83087
4.04299
4.23094
4.39225
4.526
4.63242
4.7121
4.76516
4.78973
4.78259
4.73936
4.65484
4.52435
4.34521
4.11806
3.84767
3.54286
3.21564
2.88021
2.54921
2.2335
1.94152
1.67882
1.44806
1.24948
1.08155
0.941661
0.826739
0.73363
0.659276
0.600744
0.555352
0.520512
0.493364
0.471411
0.452824
0.436723
0.423276
0.413538
0.409032
0.41118
0.421048
0.4383
0.461408
0.48792
0.514944
0.539681
0.55986
0.573962
0.58125
0.581657
0.575784
0.564299
0.547928
0.527456
0.503736
0.477699
0.450302
0.422549
0.395457
0.369963
0.346803
0.326394
0.308757
0.293503
0.279913
0.267107
0.25428
0.240961
0.227212
0.213676
0.201432
0.191644
0.185305
0.182791
0.182045
0.178331
0.166256
0.14209
0.106034
0.0622551
0.0236965
0.00610237
0.0225307
0.0783512
0.168837
0.280343
0.394555
0.493989
0.570604
0.619532
0.640327
0.635579
0.608984
0.564338
0.506726
0.439184
0.363438
0.281376
0.195213
0.107305
0.0198002
-0.0657299
-0.148466
-0.228221
-0.305425
-0.381081
-0.456398
-0.532151
-0.608543
-0.685654
-0.533242
0
1.10834
2.84534
4.96666
6.9516
8.18763
8.24254
7.07596
5.06465
2.82244
0.922001
-0.319896
-0.891215
-0.982493
-0.906059
-0.838317
-0.777757
-0.726315
-0.68494
-0.65286
-0.62936
-0.6134
-0.603592
-0.598244
-0.595345
-0.592526
-0.587062
-0.575928
-0.555947
-0.524198
-0.478253
-0.416259
-0.337305
-0.241655
-0.130743
-0.0069397
0.126862
0.267809
0.413591
0.562786
0.714963
0.87056
1.03059
1.19629
1.36886
1.54926
1.73812
1.93573
2.14198
2.35634
2.57782
2.80499
3.03613
3.26932
3.50158
3.72663
3.93301
4.10836
4.23673
4.30093
4.2884
4.19568
4.0282
3.79543
3.50563
3.16523
2.79452
2.41286
2.03193
1.6594
1.30199
0.965652
0.654449
0.370474
0.115107
-0.109073
-0.298714
-0.452814
-0.572975
-0.657535
-0.703503
-0.709542
-0.678603
-0.619052
-0.543779
-0.467514
-0.403045
-0.355394
-0.323141
-0.304538
-0.297043
-0.29706
-0.300748
-0.304657
-0.306329
-0.304146
-0.297057
-0.284526
-0.266398
-0.242792
-0.214018
-0.180537
-0.142969
-0.102152
-0.0592533
-0.0158257
0.0258026
0.0627525
0.0920795
0.111335
0.119183
0.115846
0.103236
0.0846901
0.0643787
0.0465099
0.0342827
0.0293343
0.0325657
0.0434212
0.0591331
0.0746773
0.0842316
0.0828899
0.0679565
0.0398312
0.00221596
-0.0384544
-0.0742313
-0.0971737
-0.101008
-0.0840525
-0.0478077
0.00614357
0.0762924
0.159913
0.253748
0.353321
0.452394
0.54471
0.624655
0.687719
0.730609
0.747867
0.737765
0.699237
0.632116
0.537792
0.419922
0.284751
0.140731
-0.00254936
-0.135879
-0.253657
-0.351073
-0.425492
-0.476318
-0.504638
-0.512811
-0.504152
-0.482811
-0.417964
0
0.814398
2.14916
3.96925
5.98931
7.71665
8.63755
8.44905
7.19771
5.25109
3.13221
1.31292
0.0599136
-0.610454
-0.862715
-0.852193
-0.831438
-0.792865
-0.732341
-0.650326
-0.552076
-0.446726
-0.344084
-0.251075
170
343
511
676
843
1007
1169
1328
1488
1656
1835
2007
2176
2354
2531
2707
2879
3053
3235
3407
3570
3732
3476
3628
0
0
0
0
0
0
0
0
0
0
0
0
0
0
0
0
0
0
0
0
0
0
0
0
0
0
0
0
0
0
0
0
0
0
0
0
0
0
0
0
0
0
0
0
0
0
0
0
0
0
0
0
0
0
0
0
0
0
0
0
0
0
0
0
0
0
0
0
0
0
0
0
0
0
0
0
0
0
0
0
0
0
0
0
0
0
0
0
0
0
0
0
0
0
0
0
0
0
0
0
0
0
0
0
0
0
0
0
0
0
0
0
0
0
0
0
0
0
0
0
0
0
0
0
0
0
0
0
0
0
0
0
0
0
0
0
0
0
0
0
0
0
0
0
0
0
0
0
0
0
0
0
0
0
0
0
0
0
0
0
0
0
0
0
0
0
0
0
0
0
0
0
0
0
0
0
0
0
0
0
0
0
0
0
0
0
0
0
0
0
0
0
0
0
0
0
0
0
0
0
0
0
0
0
0
0
0
0
0
0
0
0
0
0
0
0
0
0
0
0
0
0
0
0
0
0
0
0
0
0
0
0
0
0
0
0
0
0
0
0
0
0
0
0
0
0
0
0
0
0
0
0
0
0
0
0
0
0
0
0
0
0
0
0
0
0
0
0
0
0
0
0
0
0
0
0
0
0
0
0
0
0
0
0
0
0
0
0
0
0
0
0
0
0
0
0
0
0
0
0
0
0
0
0
0
0
0
0
0
0
0
0
0
0
0
0
0
0
0
0
0
0
0
0
0
0
0
0
0
0
0
0
0
0
0
0
0
0
0
0
0
0
0
0
0
0
0
0
0
0
0
0
0
0
0
0
0
0
0
0
0
0
0
0
0
0
0
0
0
0
0
0
0
0
0
0
0
0
0
0
0
0
0
0
0
0
0
0
0
0
0
0
0
0
0
0
0
0
0
0
0
0
0
0
0
0
0
0
0
0
0
0
0
0
0
0
0
0
0
0
0
0
0
0
0
0
0
0
0
0
0
0
0
0
0
0
0
0
0
0
0
0
0
0
0
0
0
0
0
0
0
0
0
0
0
0
0
0
0
0
0
0
0
0
0
0
0
0
0
0
0
0
0
0
0
0
0
0
0
0
0
0
0
0
0
0
0
0
0
0
0
0
0
0
0
0
0
0
0
0
0
0
0
0
0
0
0
0
0
0
0
0
0
0
0
0
0
0
0
0
0
0
0
0
0
0
0
0
0
0
0
0
0
0
0
0
0
0
0
0
0
0
0
0
0
0
0
0
0
0
0
0
0
0
0
0
0
0
0
0
0
0
0
0
0
0
0
0
0
0
0
0
0
0
0
0
0
0
0
0
0
0
0
0
0
0
0
0
0
0
0
0
0
0
0
0
0
0
0
0
0
0
0
0
0
0
0
0
0
0
0
0
0
0
0
0
0
0
0
0
0
0
0
0
0
0
0
0
0
0
0
0
0
0
0
0
0
0
0
0
0
0
0
0
0
0
0
0
0
0
0
0
0
0
0
0
0
0
0
0
0
0
0
0
0
0
0
0
0
0
0
0
0
0
0
0
0
0
0
0
0
0
0
0
0
0
0
0
0
0
0
0
0
0
0
0
0
0
0
0
0
0
0
0
0
0
0
0
0
0
0
0
0
0
0
0
0
0
0
0
0
0
0
0
0
0
0
0
0
0
0
0
0
0
0
0
0
0
0
0
0
0
0
0
0
0
0
0
0
0
0
0
0
0
0
0
0
0
0
0
0
0
0
0
0
0
0
0
0
0
0
0
0
0
0
0
0
0
0
0
0
0
0
0
0
0
0
0
0
0
0
0
0
0
0
0
0
0
0
0
0
0
0
0
0
0
0
0
0
0
0
0
0
0
0
0
0
0
0
0
0
0
0
0
0
0
0
0
0
0
0
0
0
0
0
0
0
0
0
0
0
0
0
0
0
0
0
0
0
0
0
0
0
0
0
0
0
0
0
0
0
0
0
0
0
0
0
0
0
0
0
0
0
0
0
0
0
0
0
0
0
0
0
0
0
0
0
0
0
0
0
0
0
0
0
0
0
0
0
0
0
0
0
0
0
0
0
0
0
0
0
0
0
0
0
0
0
0
0
0
0
0
0
0
0
0
0
0
0
0
0
0
0
0
0
0
0
0
0
0
0
0
0
0
0
0
0
0
0
0
0
0
0
0
0
0
0
0
0
0
0
0
0
0
0
0
0
0
0
0
0
0
0
0
0
0
0
0
0
0
0
0
0
0
0
0
0
0
0
0
0
0
0
0
0
0
0
0
0
0
0
0
0
0
0
0
0
0
0
0
0
0
0
0
0
0
0
0
0
0
0
0
0
0
0
0
0
0
0
0
0
0
0
0
0
0
0
0
0
0
0
0
0
0
0
0
0
0
0
0
0
0
0
0
0
0
0
0
0
0
0
0
0
0
0
0
0
0
0
0
0
0
0
0
0
0
0
0
0
0
0
0
0
0
0
0
0
0
0
0
0
0
0
0
0
0
0
0
0
0
0
0
0
0
0
0
0
0
0
0
0
0
0
0
0
0
0
0
0
0
0
0
0
0
0
0
0
0
0
0
0
0
0
0
0
0
0
0
0
0
0
0
0
0
0
0
0
0
0
0
0
0
0
0
0
0
0
0
0
0
0
0
0
0
0
0
0
0
0
0
0
0
0
0
0
0
0
0
0
0
0
0
0
0
0
0
0
0
0
0
0
0
0
0
0
0
0
0
0
0
0
0
0
0
0
0
0
0
0
0
0
0
0
0
0
0
0
0
0
0
0
0
0
0
0
0
0
0
0
0
0
0
0
0
0
0
0
0
0
0
0
0
0
0
0
0
0
0
0
0
0
0
0
0
0
0
0
0
0
0
0
0
0
0
0
0
0
0
0
0
0
0
0
0
0
0
0
0
0
0
0
0
0
0
0
0
0
0
0
0
0
0
0
0
0
0
0
0
0
0
0
0
0
0
0
0
0
0
0
0
0
0
0
0
0
0
0
0
0
0
0
0
0
0
0
0
0
0
0
0
0
0
0
0
0
0
0
0
0
0
0
0
0
0
0
0
0
0
0
0
0
0
0
0
0
0
0
0
0
0
0
0
0
0
0
0
0
0
0
0
0
0
0
0
0
0
0
0
0
0
0
0
0
0
0
0
0
0
0
0
0
0
0
0
0
0
0
0
0
0
0
0
0
0
0
0
0
0
0
0
0
0
0
0
0
0
0
0
0
0
0
0
0
0
0
0
0
0
0
0
0
0
0
0
0
0
0
0
0
0
0
0
0
0
0
0
0
0
0
0
0
0
0
0
0
0
0
0
0
0
0
0
0
0
0
0
0
0
0
0
0
0
0
0
0
0
0
0
0
0
0
0
0
0
0
0
0
0
0
0
0
0
0
0
0
0
0
0
0
0
0
0
0
0
0
0
0
0
0
0
0
0
0
0
0
0
0
0
0
0
0
0
0
0
0
0
0
0
0
0
0
0
0
0
0
0
0
0
0
0
0
0
0
0
0
0
0
0
0
0
0
0
0
0
0
0
0
0
0
0
0
0
0
0
0
0
0
0
0
0
0
0
0
0
0
0
0
0
0
0
0
0
0
0
0
0
0
0
0
0
0
0
0
0
0
0
0
0
0
0
0
0
0
0
0
0
0
0
0
0
0
0
0
0
0
0
0
0
0
0
0
0
0
0
0
0
0
0
0
0
0
0
0
0
0
0
0
0
0
0
0
0
0
0
0
0
0
0
0
0
0
0
0
0
0
0
0
0
0
0
0
0
0
0
0
0
0
0
0
0
0
0
0
0
0
0
0
0
0
0
0
0
0
0
0
0
0
0
0
0
0
0
0
0
0
0
0
0
0
0
0
0
0
0
0
0
0
0
0
0
0
0
0
0
0
0
0
0
0
0
0
0
0
0
0
0
0
0
0
0
0
0
0
0
0
0
0
0
0
0
0
0
0
0
0
0
0
0
0
0
0
0
0
0
0
0
0
0
0
0
0
0
0
0
0
0
0
0
0
0
0
0
0
0
0
0
0
0
0
0
0
0
0
0
0
0
0
0
0
0
0
0
0
0
0
0
0
0
0
0
0
0
0
0
0
0
0
0
0
0
0
0
0
0
0
0
0
0
0
0
0
0
0
0
0
0
0
0
0
0
0
0
0
0
0
0
0
0
0
0
0
0
0
0
0
0
0
0
0
0
0
0
0
0
0
0
0
0
0
0
0
0
0
0
0
0
0
0
0
0
0
0
0
0
0
0
0
0
0
0
0
0
0
0
0
0
0
0
0
0
0
0
0
0
0
0
0
0
0
0
0
0
0
0
0
0
0
0
0
0
0
0
0
0
0
0
0
0
0
0
0
0
0
0
0
0
0
0
0
0
0
0
0
0
0
0
0
0
0
0
0
0
0
0
0
0
0
0
0
0
0
0
0
0
0
0
0
0
0
0
0
0
0
0
0
0
0
0
0
0
0
0
0
0
0
0
0
0
0
0
0
0
0
0
0
0
0
0
0
0
0
0
0
0
0
0
0
0
0
0
0
0
0
0
0
0
0
0
0
0
0
0
0
0
0
0
0
0
0
0
0
0
0
0
0
0
0
0
0
0
0
0
0
0
0
0
0
0
0
0
0
0
0
0
0
0
0
0
0
0
0
0
0
0
0
0
0
0
0
0
0
0
0
0
0
0
0
0
0
0
0
0
0
0
0
0
0
0
0
0
0
0
0
0
0
0
0
0
0
0
0
0
0
0
0
0
0
0
0
0
0
0
0
0
0
0
0
0
0
0
0
0
0
0
0
0
0
0
0
0
0
0
0
0
0
0
0
0
0
0
0
0
0
0
0
0
0
0
0
0
0
0
0
0
0
0
0
0
0
0
0
0
0
0
0
0
0
0
0
0
0
0
0
0
0
0
0
0
0
0
0
0
0
0
0
0
0
0
0
0
0
0
0
0
0
0
0
0
0
0
0
0
0
0
0
0
0
0
0
0
0
0
0
0
0
0
0
0
0
0
0
0
0
0
0
0
0
0
0
0
0
0
0
0
0
0
0
0
0
0
0
0
0
0
0
0
0
0
0
0
0
0
0
0
0
0
0
0
0
0
0
0
0
0
0
0
0
0
0
0
0
0
0
0
0
0
0
0
0
0
0
0
0
0
0
0
0
0
0
0
0
0
0
0
0
0
0
0
0
0
0
0
0
0
0
0
0
0
0
0
0
0
0
0
0
0
0
0
0
0
0
0
0
0
0
0
0
0
0
0
0
0
0
0
0
0
0
0
0
0
0
0
0
0
0
0
0
0
0
0
0
0
0
0
0
0
0
0
0
0
0
0
0
0
0
0
0
0
0
0
0
0
0
0
0
0
0
0
0
0
0
0
0
0
0
0
0
0
0
0
0
0
0
0
0
0
0
0
0
0
0
0
0
0
0
0
0
0
0
0
0
0
0
0
0
0
0
0
0
0
0
0
0
0
0
0
0
0
0
0
0
0
0
0
0
0
0
0
0
0
0
0
0
0
0
0
0
0
0
0
0
0
0
0
0
0
0
0
0
0
0
0
0
0
0
0
0
0
0
0
0
0
0
0
0
0
0
0
0
0
0
0
0
0
0
0
0
0
0
0
0
0
0
0
0
0
0
0
0
0
0
0
0
0
0
0
0
0
0
0
0
0
0
0
0
0
0
0
0
0
0
0
0
0
0
0
0
0
0
0
0
0
0
0
0
0
0
0
0
0
0
0
0
0
0
0
0
0
0
0
0
0
0
0
0
0
0
0
0
0
0
0
0
0
0
0
0
0
0
0
0
0
0
0
0
0
0
0
0
0
0
0
0
0
0
0
0
0
0
0
0
0
0
0
0
0
0
0
0
0
0
0
0
0
0
0
0
0
0
0
0
0
0
0
0
0
0
0
0
0
0
0
0
0
0
0
0
0
0
0
0
0
0
0
0
0
0
0
0
0
0
0
0
0
0
0
0
0
0
0
0
0
0
0
0
0
0
0
0
0
0
0
0
0
0
0
0
0
0
0
0
0
0
0
0
0
0
0
0
0
0
0
0
0
0
0
0
0
0
0
0
0
0
0
0
0
0
0
0
0
0
0
0
0
0
0
0
0
0
0
0
0
0
0
0
0
0
0
0
0
0
0
0
0
0
0
0
0
0
0
0
0
0
0
0
0
0
0
0
0
0
0
0
0
0
0
0
0
0
0
0
0
0
0
0
0
0
0
0
0
0
0
0
0
0
0
0
0
0
0
0
0
0
0
0
0
0
0
0
0
0
0
0
0
0
0
0
0
0
0
0
0
0
0
0
0
0
0
0
0
0
0
0
0
0
0
0
0
0
0
0
0
0
0
0
0
0
0
0
0
0
0
0
0
0
0
0
0
0
0
0
0
0
0
0
0
0
0
0
0
0
0
0
0
0
0
0
0
0
0
0
0
0
0
0
0
0
0
0
0
0
0
0
0
0
0
0
0
0
0
0
0
0
0
0
0
0
0
0
0
0
0
0
0
0
0
0
0
0
0
0
0
0
0
0
0
0
0
0
0
0
0
0
0
0
0
0
0
0
0
0
0
0
0
0
0
0
0
0
0
0
0
0
0
0
0
0
0
0
0
0
0
0
0
0
0
0
0
0
0
0
0
0
0
0
0
0
0
0
0
0
0
0
0
0
0
0
0
0
0
0
0
0
0
0
0
0
0
0
0
0
0
0
0
0
0
0
0
0
0
0
0
0
0
0
0
0
0
0
0
0
0
0
0
0
0
0
0
0
0
0
0
0
0
0
0
0
0
0
0
0
0
0
0
0
0
0
0
0
0
0
0
0
0
0
0
0
0
0
0
0
0
0
0
0
0
0
0
0
0
0
0
0
0
0
0
0
0
0
0
0
0
0
0
0
0
0
0
0
0
0
0
0
0
0
0
0
0
0
0
0
0
0
0
0
0
0
0
0
0
0
0
0
0
0
0
0
0
0
0
0
0
0
0
0
0
0
0
0
0
0
0
0
0
0
0
0
0
0
0
0
0
0
0
0
0
0
0
0
0
0
0
0
0
0
0
0
0
0
0
0
0
0
0
0
0
0
0
0
0
0
0
0
0
0
0
0
0
0
0
0
0
0
0
0
0
0
0
0
0
0
0
0
0
0
0
0
0
0
0
0
0
0
0
0
0
0
0
0
0
0
0
0
0
0
0
0
0
0
0
0
0
0
0
0
0
0
0
0
0
0
0
0
0
0
0
0
0
0
0
0
0
0
0
0
0
0
0
0
0
0
0
0
0
0
0
0
0
0
0
0
0
0
0
0
0
0
0
0
0
0
0
0
0
0
0
0
0
0
0
0
0
0
0
0
0
0
0
0
0
0
0
0
0
0
0
0
0
0
0
0
0
0
0
0
0
0
0
0
0
0
0
0
0
0
0
0
0
0
0
0
0
0
0
0
0
0
0
0
0
0
0
0
0
0
0
0
0
0
0
0
0
0
0
0
0
0
0
0
0
0
0
0
0
0
0
0
0
0
0
0
0
0
0
0
0
0
0
0
0
0
0
0
0
0
0
0
0
0
0
0
0
0
0
0
0
0
0
0
0
0
0
0
0
0
0
0
0
0
0
0
0
0
0
0
0
0
0
0
0
0
0
0
0
0
0
0
0
0
0
0
0
0
0
0
0
0
0
0
0
0
0
0
0
0
0
0
0
0
0
0
0
0
0
0
0
0
0
0
0
0
0
0
0
0
0
0
0
0
0
0
0
0
0
0
0
0
0
0
0
0
0
0
0
0
0
0
0
0
0
0
0
0
0
0
0
0
0
0
0
0
0
0
0
0
0
0
0
0
0
0
0
0
0
0
0
0
0
0
0
0
0
0
0
0
0
0
0
0
0
0
0
0
0
0
0
0
0
0
0
0
0
0
0
0
0
0
0
0
0
0
0
0
0
0
0
0
0
0
0
0
0
0
0
0
0
0
0
0
0
0
0
0
0
0
0
0
0
0
0
0
0
0
0
0
0
0
0
0
0
0
0
0
0
0
0
0
0
0
0
0
0
0
0
0
0
0
0
0
0
0
0
0
0
0
0
0
0
0
0
0
0
0
0
0
0
0
0
0
0
0
0
0
0
0
0
0
0
0
0
0
0
0
0
0
0
0
0
0
0
0
0
0
0
0
0
0
0
0
0
0
0
0
0
0
0
0
0
0
0
0
0
0
0
0
0
0
0
0
0
0
0
0
0
0
0
0
0
0
0
0
0
0
0
0
0
0
0
0
0
0
0
0
0
0
0
0
0
0
0
0
0
0
0
0
0
0
0
0
0
0
0
0
0
0
0
0
0
0
0
0
0
0
0
0
0
0
0
0
0
0
0
0
0
0
0
0
0
0
0
0
0
0
0
0
0
0
0
0
0
0
0
0
0
0
0
0
0
0
0
0
0
0
0
0
0
0
0
0
