0.700568
0.854675
1.00259
1.10574
1.13657
1.09209
0.994731
0.880368
0.781574
0.716548
0.674938
0.647532
0.632618
0.629718
0.638669
0.659335
0.691184
0.732591
0.781452
0.835514
0.892457
0.950262
1.00751
1.06344
1.11793
1.17135
1.22448
1.27841
1.33451
1.39434
1.4595
1.53178
1.61369
1.70619
1.80071
1.88057
1.92656
1.92327
1.86489
1.758
1.62019
1.47515
1.34609
1.24293
1.16207
1.10234
1.06127
1.0264
0.981194
0.9087
0.795252
0.629035
0.411744
0.154697
-0.123255
0
0.954421
2.90617
5.78451
9.24675
12.7083
15.4445
16.7803
16.3317
14.1967
10.9628
7.48167
4.51895
2.47854
1.3517
0.879694
0.87091
0.881317
0.891576
0.899181
0.902645
0.902107
0.899537
0.898513
0.903615
0.919615
0.950253
0.997294
1.06126
1.1415
1.23575
1.34066
1.45182
1.56293
1.66562
1.75294
1.82096
1.86996
1.90475
1.93371
1.96665
2.01225
2.07588
2.15712
2.25124
2.35473
2.46507
2.58024
2.69883
2.81997
2.94287
3.06636
3.18862
3.30688
3.41703
3.51463
3.59583
3.65767
3.69859
3.71837
3.71785
3.69836
3.66116
3.60712
3.53789
3.454
3.3558
3.24394
3.1194
2.98343
2.83738
2.68299
2.52153
2.35419
2.18232
2.00752
1.83179
1.65759
1.48794
1.32642
1.1771
1.04429
0.932284
0.848324
0.806971
0.817801
0.860237
0.905254
0.925241
0.904219
0.84345
0.759584
0.676304
0.613951
0.580547
0.56654
0.564907
0.573209
0.589483
0.612547
0.64178
0.67658
0.715817
0.757434
0.799037
0.838101
0.872395
0.900389
0.921449
0.935803
0.944323
0.948251
0.94902
0.948022
0.946657
0.94646
0.949233
0.957135
0.972676
0.998563
1.03931
1.10738
1.22346
1.36392
1.48227
1.52479
1.45738
1.29038
1.08417
0.927266
0.895527
1.01437
1.2285
1.47698
1.69593
1.84262
1.90478
1.8931
1.825
1.71193
1.55754
1.37728
1.18238
0.981311
0.785683
0.608259
0.456622
0.336556
0.24848
0.187409
0.144557
0.11013
0.076314
0.0393091
0
-0.13394
0.569657
2.47494
5.55624
9.32481
12.9405
15.4869
16.3027
15.228
12.6487
9.32244
6.07509
3.51746
1.90192
1.14746
0.973087
0.949377
0.925313
0.902602
0.884095
0.873553
0.874735
0.890241
0.920582
0.963829
1.01602
1.07219
1.1278
1.18032
1.22944
1.27677
1.32559
1.3801
1.44451
1.52195
1.61372
1.71871
1.83414
1.95648
2.08184
2.20627
2.32717
2.44416
2.55914
2.67579
2.79848
2.93084
3.07448
3.22809
3.38712
3.54568
3.69736
3.83654
3.95961
4.06575
4.15697
4.23768
4.31364
4.39093
4.47652
4.5782
4.69648
4.80988
4.88601
4.89172
4.80494
4.625
4.37635
4.10163
3.845
3.63355
3.45151
3.2839
3.12306
2.96247
2.79883
2.63269
2.46785
2.30965
2.16215
2.0266
1.90428
1.7953
1.6988
1.61282
1.53559
1.46619
1.40513
1.35382
1.31429
1.28824
1.27727
1.2808
1.29486
1.31399
1.3327
1.34679
1.35408
1.3544
1.34887
1.33889
1.32561
1.3094
1.28967
1.26534
1.235
1.19716
1.15035
1.09387
1.02824
0.955763
0.880581
0.810308
0.753761
0.718812
0.719456
0.755882
0.814715
0.877858
0.93005
0.964527
0.983852
0.995852
1.00732
1.01935
1.02716
1.02419
1.00751
0.981751
0.959274
0.956012
0.984956
1.0607
1.16926
1.2825
1.37011
1.41203
1.40578
1.36565
1.31464
1.27318
1.24872
1.23195
1.21046
1.17001
1.10047
1.00031
0.8776
0.746831
0.622938
0.515268
0.422682
0.339124
0.255228
0.162344
0.0556576
-0.0646193
-0.193853
-0.324555
0
0.896952
2.57225
5.17169
8.50871
11.9932
14.7957
16.177
15.7963
13.833
10.8764
7.66423
4.81416
2.66808
1.28366
0.534808
0.341669
0.345427
0.354774
0.366933
0.379902
0.39277
0.405721
0.41978
0.436428
0.457347
0.483932
0.517322
0.558426
0.607886
0.66588
0.731837
0.805327
0.883536
0.963497
1.04346
1.12412
1.20896
1.30346
1.41317
1.54147
1.68696
1.84321
2.00423
2.16035
2.30201
2.42249
2.51944
2.59518
2.65573
2.70899
2.76278
2.82338
2.89401
2.97543
3.0689
3.17835
3.32161
3.54595
3.87915
4.24874
4.55711
4.7326
4.75441
4.64414
4.44166
4.18586
3.90713
3.62723
3.35615
3.096
2.84605
2.60514
2.37257
2.14817
1.93192
1.72388
1.52469
1.33608
1.16102
1.00353
0.868736
0.767191
0.715691
0.717376
0.751801
0.791567
0.811816
0.798822
0.75399
0.691905
0.63369
0.598689
0.593521
0.610722
0.642523
0.683718
0.729033
0.773081
0.811108
0.839476
0.855949
0.859794
0.851767
0.83397
0.809608
0.782603
0.75704
0.736555
0.723753
0.720789
0.728061
0.743612
0.764861
0.789668
0.817062
0.847274
0.881045
0.91971
0.960827
0.998199
1.02425
1.03336
1.02464
1.00252
0.974825
0.949622
0.932437
0.922969
0.919667
0.921664
0.928037
0.938208
0.952153
0.970494
0.994262
1.0252
1.06574
1.12045
1.20178
1.33354
1.52137
1.72515
1.88833
1.95946
1.91098
1.74768
1.50393
1.23292
0.990829
0.806826
0.663644
0.541612
0.43074
0.324388
0.216058
0.0978543
-0.0332106
-0.163795
-0.271679
-0.333792
-0.33446
-0.270843
-0.15415
0
0.590452
1.75125
3.81312
6.86166
10.5414
14.0622
16.4639
17.0241
15.5837
12.6
8.91235
5.37786
2.58533
0.762575
-0.152882
-0.360895
-0.160566
0.0214684
0.165624
0.25831
0.295536
0.284985
0.244749
0.198313
0.167376
0.165436
0.187595
0.224166
0.269176
0.317147
0.362513
0.399799
0.425777
0.439739
0.443835
0.443157
0.44535
0.459601
0.495056
0.558988
0.653236
0.773546
0.916089
1.0759
1.24668
1.42189
1.59576
1.76386
1.9234
2.07334
2.21412
2.34718
2.47451
2.59812
2.71969
2.84025
2.96009
3.07853
3.19375
3.30217
3.39807
3.47464
3.52481
3.54164
3.5193
3.45398
3.34464
3.19349
3.00616
2.79151
2.56212
2.32996
2.10414
1.89155
1.69806
1.52708
1.37973
1.25514
1.15099
1.06414
0.991419
0.930155
0.877687
0.832244
0.793022
0.760166
0.734348
0.716368
0.706649
0.704839
0.709702
0.719311
0.731472
0.744181
0.75592
0.765687
0.77278
0.776464
0.775897
0.769722
0.756079
0.733565
0.701631
0.661173
0.614929
0.567436
0.524922
0.494014
0.480381
0.487467
0.517245
0.567621
0.632569
0.701894
0.762539
0.802938
0.815227
0.796615
0.750083
0.684171
0.611541
0.546256
0.500349
0.478566
0.477374
0.491319
0.516504
0.548625
0.584118
0.62098
0.659092
0.700009
0.746327
0.800752
0.865217
0.942872
1.03533
1.13661
1.23513
1.31773
1.37251
1.39095
1.36901
1.30712
1.20977
1.0849
0.944489
0.799804
0.659497
0.529822
0.41345
0.309667
0.217668
0.136559
0.0650856
0.00223618
-0.0521774
-0.097256
-0.131323
-0.152646
-0.159557
-0.151007
-0.127056
0
0.724691
1.97836
3.90917
6.53694
9.58905
12.4469
14.314
14.5605
13.0522
10.2479
6.99118
4.11839
2.1176
1.02025
0.544106
0.42023
0.406352
0.401057
0.40568
0.419683
0.438118
0.453001
0.456602
0.444294
0.416635
0.379772
0.343818
0.319759
0.316085
0.334244
0.36954
0.419572
0.481241
0.551816
0.629489
0.713302
0.802584
0.896271
0.992624
1.08897
1.18261
1.27168
1.35598
1.43707
1.51793
1.60211
1.69289
1.79235
1.90097
2.01908
2.14635
2.28171
2.4232
2.56807
2.712
2.84949
2.97459
3.08162
3.16575
3.22323
3.25034
3.24586
3.2098
3.14348
3.04963
2.93222
2.79599
2.64556
2.48456
2.31566
2.13999
1.95762
1.76893
1.57526
1.37931
1.1849
0.996225
0.81737
0.650867
0.497711
0.357774
0.230656
0.116587
0.0169885
-0.0655659
-0.127975
-0.168025
-0.184365
-0.176154
-0.144469
-0.0940751
-0.0366594
0.0127981
0.0413254
0.0405752
0.00837727
-0.0512465
-0.129678
-0.216336
-0.301292
-0.377662
-0.443406
-0.496098
-0.533288
-0.552902
-0.553402
-0.534139
-0.495699
-0.440107
-0.370847
-0.292723
-0.211373
-0.134777
-0.0719683
-0.0316588
-0.0208466
-0.0431487
-0.0972703
-0.17614
-0.268092
-0.355009
-0.417187
-0.438762
-0.412102
-0.340174
-0.235738
-0.117317
-0.0032095
0.0942036
0.173993
0.240088
0.300577
0.364224
0.43863
0.519124
0.588888
0.626415
0.614031
0.544622
0.42446
0.271703
0.111485
-0.0306742
-0.141548
-0.22297
-0.279853
-0.314162
-0.328297
-0.327131
-0.321632
-0.327852
-0.361941
-0.437105
-0.560599
-0.731555
-0.940392
-1.17019
-1.07831
0
2.29065
5.63872
9.50655
13.0875
15.5342
16.2303
15.0049
12.1994
8.549
4.91861
2.01728
0.211267
-0.505286
-0.395469
0.00556383
0.33634
0.534091
0.567221
0.453181
0.258326
0.0744035
-0.0195007
0.00449104
0.0804623
0.174088
0.274347
0.373979
0.468191
0.554958
0.634707
0.709618
0.782821
0.857604
0.93678
1.02263
1.11662
1.21921
1.32977
1.4467
1.56775
1.69052
1.81308
1.93442
2.05457
2.17442
2.29504
2.41702
2.54001
2.66173
2.77853
2.8866
2.9833
3.06795
3.14174
3.20689
3.26436
3.31446
3.35526
3.38322
3.39438
3.38525
3.35312
3.29565
3.2105
3.09606
2.95674
2.7943
2.6114
2.4128
2.20486
1.99456
1.78805
1.58977
1.40256
1.22748
1.06415
0.91127
0.767273
0.630749
0.500726
0.376699
0.258521
0.146232
0.0399525
-0.0601377
-0.153731
-0.240306
-0.31911
-0.389241
-0.449867
-0.500515
-0.541384
-0.573574
-0.599131
-0.62098
-0.642885
-0.668851
-0.702435
-0.746188
-0.801295
-0.867539
-0.943581
-1.02751
-1.1174
-1.21164
-1.3092
-1.40935
-1.51124
-1.61349
-1.71389
-1.80954
-1.89729
-1.97419
-2.03788
-2.08603
-2.11545
-2.12553
-2.11625
-2.08851
-2.04431
-1.98683
-1.9199
-1.84702
-1.77026
-1.68981
-1.60398
-1.50969
-1.40356
-1.28291
-1.14785
-0.999764
-0.839291
-0.668804
-0.501267
-0.354562
-0.244482
-0.178617
-0.151785
-0.145572
-0.132067
-0.0384768
0.143417
0.351085
0.488983
0.488443
0.347516
0.126004
-0.0970676
-0.271868
-0.402251
-0.525876
-0.654601
-0.797897
-0.958843
-1.13481
-1.31874
-1.03365
0
2.02369
5.08691
8.85893
12.6249
15.4768
16.6498
15.8384
13.3298
9.88438
6.42793
3.70483
2.04744
1.34322
1.19112
1.08414
0.999199
0.92697
0.874506
0.84593
0.841495
0.857822
0.889226
0.929602
0.974186
1.02029
1.06752
1.1168
1.16961
1.22745
1.29144
1.36195
1.43852
1.52007
1.60513
1.69236
1.78123
1.87231
1.96731
2.06871
2.17912
2.30056
2.43391
2.57843
2.73222
2.89259
3.05641
3.22033
3.38099
3.53449
3.67683
3.80499
3.917
4.01246
4.09285
4.16131
4.2219
4.27837
4.33323
4.38652
4.43438
4.46947
4.48297
4.46654
4.41417
4.32319
4.19448
4.03188
3.8411
3.62859
3.40195
3.16807
2.93178
2.69684
2.46708
2.24651
2.03926
1.84918
1.67946
1.53321
1.41614
1.33008
1.26641
1.21408
1.16273
1.10571
1.0418
0.974849
0.911607
0.858797
0.81906
0.790269
0.771048
0.759623
0.753794
0.751376
0.750416
0.749184
0.745833
0.738227
0.724347
0.702526
0.672001
0.63335
0.588527
0.540349
0.491555
0.443776
0.396844
0.349036
0.297803
0.241077
0.178705
0.113115
0.0518129
0.00598698
-0.01278
0.0039073
0.058361
0.145715
0.255085
0.372581
0.485026
0.585057
0.668886
0.735436
0.785663
0.819442
0.838457
0.843986
0.837776
0.82333
0.806803
0.799746
0.858957
1.10083
1.46263
1.79301
1.93795
1.82017
1.47362
1.02156
0.620297
0.403431
0.358874
0.376064
0.435625
0.529813
0.630823
0.706696
0.729085
0.680025
0.556955
0.373252
0.15295
-0.07814
-0.299605
0
0.98424
2.69931
5.20769
8.39395
11.8503
14.8726
16.6456
16.5761
14.6011
11.2799
7.58563
4.48854
2.55954
1.80082
1.77493
1.74936
1.6229
1.49627
1.37815
1.27646
1.19745
1.14484
1.12019
1.12651
1.16531
1.2249
1.28428
1.32493
1.33646
1.32021
1.28897
1.26222
1.25874
1.29021
1.35261
1.43457
1.53202
1.64207
1.76209
1.8896
2.02195
2.15619
2.28938
2.41915
2.54423
2.66473
2.78203
2.89807
3.01448
3.13181
3.24915
3.36461
3.47595
3.58142
3.68057
3.77477
3.8671
3.96272
4.07414
4.22403
4.40046
4.56042
4.64967
4.62879
4.49393
4.27979
4.04171
3.82595
3.6465
3.47728
3.30539
3.12584
2.93538
2.73386
2.52429
2.31233
2.10505
1.90944
1.732
1.57802
1.44981
1.34745
1.26937
1.21314
1.17614
1.15611
1.15127
1.16031
1.18205
1.2155
1.26043
1.31595
1.37231
1.41097
1.41171
1.36074
1.25948
1.12833
1.00142
0.913147
0.883133
0.894893
0.932238
0.981159
1.03005
1.07331
1.11164
1.14923
1.19062
1.23294
1.26548
1.27534
1.25532
1.2092
1.15145
1.10209
1.07913
1.08711
1.12775
1.19665
1.27138
1.32593
1.33878
1.30006
1.21558
1.10607
1.00128
0.930581
0.909647
0.928917
0.975524
1.04329
1.1274
1.22287
1.32568
1.43191
1.53274
1.61677
1.6718
1.68868
1.66514
1.60667
1.52335
1.42501
1.31822
1.20803
1.09727
0.98824
0.883542
0.785472
0.695768
0.6133
0.533916
0.451557
0.359941
0.254484
0.133749
0
-0.140401
0.255477
1.48782
3.73117
6.88755
10.5109
13.8585
16.0859
16.5456
15.0721
12.0983
8.5067
5.25743
2.98328
1.78247
1.31388
1.11488
1.03847
0.990127
0.987129
1.03732
1.13669
1.27604
1.42703
1.55953
1.65067
1.69122
1.68717
1.65644
1.62238
1.60668
1.61952
1.65785
1.71702
1.79364
1.88427
1.9848
2.09086
2.19834
2.30376
2.40483
2.50088
2.59301
2.68412
2.77847
2.88102
2.99645
3.12821
3.27739
3.44234
3.61928
3.80294
3.98556
4.15955
4.31874
4.45936
4.58017
4.68205
4.76528
4.83281
4.88734
4.931
4.96515
4.99015
5.00479
5.00185
4.97238
4.90425
4.78533
4.6083
4.37518
4.0995
3.80482
3.51976
3.27102
3.09339
2.99937
2.96634
2.95758
2.93747
2.88323
2.78923
2.66368
2.52137
2.37651
2.23726
2.10514
1.98047
1.86418
1.75714
1.66052
1.57648
1.50869
1.46095
1.43616
1.43665
1.4631
1.51364
1.5835
1.66539
1.7507
1.83087
1.89979
1.95384
1.9902
2.00765
2.00652
1.98855
1.95672
1.91498
1.86786
1.81984
1.77465
1.73431
1.69947
1.66985
1.6434
1.61697
1.5876
1.55366
1.51572
1.47678
1.44254
1.41965
1.41406
1.42941
1.46615
1.52156
1.59048
1.66644
1.74256
1.81294
1.86988
1.90514
1.91189
1.8844
1.8194
1.71763
1.58472
1.4309
1.26934
1.11343
0.971957
0.848273
0.745639
0.662607
0.595055
0.537442
0.484088
0.430177
0.372311
0.308639
0.238694
0.162876
0.0826504
0
-0.128057
0.408595
2.10542
5.12988
9.13169
13.266
16.4534
17.7865
16.9024
14.1368
10.3709
6.64527
3.7504
1.98999
1.19922
0.951011
0.757116
0.603253
0.471427
0.372531
0.312893
0.292787
0.306762
0.345779
0.400369
0.463547
0.53152
0.604264
0.683293
0.770026
0.864386
0.964104
1.06633
1.16787
1.26563
1.35724
1.4415
1.51862
1.59014
1.65886
1.7285
1.80335
1.88782
1.98582
2.10012
2.2317
2.37963
2.54348
2.71586
2.88443
3.03796
3.16977
3.27972
3.37375
3.46126
3.55121
3.64874
3.75236
3.85756
3.95866
4.04884
4.11989
4.16444
4.17724
4.15437
4.09315
3.99231
3.85209
3.67459
3.46393
3.22647
2.97214
2.7116
2.45409
2.20864
1.98419
1.79458
1.66041
1.57628
1.51644
1.44821
1.34332
1.18783
0.975212
0.738178
0.521015
0.362437
0.284486
0.291464
0.376793
0.531864
0.751127
1.02457
1.33516
1.67749
2.0535
2.42545
2.73813
2.94191
3.01085
2.95663
2.8301
2.70431
2.6431
2.67211
2.74748
2.8347
2.92043
2.99361
3.04647
3.07456
3.07641
3.0528
3.00639
2.94151
2.86391
2.78029
2.69752
2.62184
2.55718
2.50517
2.46865
2.45106
2.46613
2.54821
2.69873
2.86743
2.9805
2.97247
2.82032
2.55885
2.26779
2.03748
1.93038
1.90123
1.90543
1.93381
1.97724
2.02551
2.06726
2.09261
2.09418
2.06762
2.01198
1.92987
1.827
1.71103
1.58975
1.46909
1.35119
1.23499
1.11797
0.995878
0.86053
0.700511
0.513844
0.321303
0.15502
0.043162
0
0.0240176
0.0894976
0.691649
1.84356
3.68593
6.26426
9.4012
12.6198
15.1953
16.3809
15.7348
13.3656
9.93092
6.36372
3.48003
1.68652
0.927815
0.856424
0.862636
0.861105
0.845667
0.813529
0.765875
0.707473
0.645399
0.587264
0.539092
0.505006
0.486289
0.482067
0.490457
0.509872
0.539994
0.582048
0.638285
0.710845
0.800407
0.904935
1.02219
1.14305
1.2563
1.35188
1.42349
1.47027
1.49694
1.51269
1.52912
1.55796
1.60569
1.67471
1.76654
1.8806
2.01353
2.16023
2.31344
2.46509
2.60828
2.73848
2.85414
2.95652
3.04868
3.13259
3.20847
3.27173
3.3103
3.30747
3.24791
3.12374
2.93801
2.7044
2.44335
2.17594
1.91612
1.66703
1.43
1.20539
0.99255
0.790826
0.600298
0.422035
0.258146
0.113103
-0.010152
-0.113093
-0.199326
-0.273194
-0.337924
-0.394198
-0.439836
-0.470737
-0.482649
-0.475151
-0.45036
-0.409493
-0.356241
-0.297893
-0.243521
-0.200427
-0.172364
-0.158644
-0.154493
-0.152687
-0.146053
-0.130006
-0.104464
-0.0734685
-0.0423617
-0.0166788
-0.000291657
0.00575016
0.00333769
-0.00354254
-0.0101892
-0.0126977
-0.00929077
0.00030303
0.0156971
0.036101
0.0604007
0.0874284
0.116082
0.145406
0.174595
0.202957
0.229891
0.254819
0.277451
0.298165
0.318271
0.340272
0.367885
0.405691
0.458416
0.529975
0.622548
0.734978
0.864481
1.00781
1.15983
1.3134
1.46114
1.59573
1.70767
1.78489
1.81968
1.80464
1.73497
1.61211
1.44646
1.2573
1.06863
0.902387
0.768853
0.659087
0.568599
0.492667
0.425792
0.363137
0.301474
0.23944
0.17727
0.115956
0.0563025
0
0.6673
2.03618
4.3
7.42692
11.0201
14.334
16.4986
16.868
15.3157
12.3137
8.73894
5.51059
3.24643
2.09934
1.82026
1.91427
1.83275
1.75038
1.67283
1.60598
1.55518
1.52438
1.51552
1.52839
1.56119
1.61142
1.67664
1.75342
1.83931
1.93269
2.03123
2.13106
2.22776
2.3171
2.39607
2.46316
2.52026
2.57228
2.62667
2.69235
2.77824
2.89137
3.03534
3.20931
3.40714
3.61914
3.83718
4.05368
4.26244
4.45926
4.64185
4.8093
4.96178
5.09994
5.22453
5.33615
5.43378
5.51404
5.57489
5.61413
5.62963
5.62045
5.58757
5.53368
5.46204
5.37483
5.2721
5.15476
5.02177
4.87181
4.70506
4.52348
4.33037
4.12951
3.92437
3.71757
3.5109
3.30618
3.10593
2.91373
2.73409
2.57224
2.43587
2.33029
2.25408
2.20192
2.1658
2.13701
2.10795
2.07354
2.0319
1.98424
1.93438
1.88677
1.84562
1.81408
1.79456
1.78616
1.78616
1.79128
1.799
1.80848
1.82055
1.83692
1.8589
1.88628
1.91663
1.94657
1.97211
1.98956
1.9962
1.99068
1.9728
1.9433
1.90352
1.85579
1.80288
1.74787
1.69479
1.64826
1.6125
1.59049
1.58477
1.59412
1.61572
1.6466
1.685
1.73102
1.78637
1.85314
1.93218
2.02249
2.11951
2.2132
2.29168
2.34433
2.36422
2.34929
2.30204
2.22795
2.13356
2.02488
1.90765
1.78631
1.66406
1.54372
1.42822
1.32036
1.22231
1.13511
1.05809
0.988181
0.919735
0.845879
0.759736
0.654094
0.522242
0.365059
0.18798
0
0.404105
1.66725
3.88232
6.89356
10.2842
13.4179
15.565
16.1263
14.892
12.189
8.78755
5.57791
3.19486
1.80953
1.19355
0.997591
0.966068
0.940443
0.922509
0.9132
0.912431
0.91918
0.93174
0.948097
0.966283
0.984873
1.00317
1.02131
1.04028
1.06178
1.0879
1.12084
1.16247
1.21414
1.27618
1.34842
1.43026
1.52059
1.61795
1.72062
1.82683
1.93498
2.04386
2.15279
2.26175
2.37123
2.48204
2.59497
2.71044
2.82829
2.94769
3.06732
3.1856
3.3011
3.41277
3.52009
3.62291
3.72134
3.81562
3.9055
3.98941
4.0629
4.11753
4.14443
4.13418
4.07994
3.98044
3.8413
3.67339
3.48881
3.29611
3.09843
2.89611
2.68817
2.47428
2.25617
2.03794
1.82554
1.62574
1.44361
1.28395
1.14997
1.04252
0.960649
0.902084
0.863684
0.841904
0.833145
0.834039
0.841685
0.853823
0.869036
0.886718
0.906932
0.930071
0.956537
0.986366
1.01745
1.04462
1.06151
1.06273
1.04616
1.01443
0.974713
0.936858
0.910608
0.902628
0.911508
0.93317
0.964488
1.00133
1.03804
1.06895
1.08981
1.09857
1.09573
1.08436
1.06958
1.05773
1.0553
1.0674
1.09586
1.14089
1.20161
1.27658
1.36259
1.4524
1.5386
1.61554
1.68066
1.73487
1.78177
1.82564
1.87012
1.91399
1.94974
1.96655
1.95493
1.91054
1.83558
1.73755
1.62643
1.51191
1.40068
1.29529
1.19678
1.10536
1.02028
0.939601
0.860072
0.777724
0.688471
0.586317
0.464665
0.32385
0.167266
0
-0.168677
0.206988
1.22556
3.19519
6.25103
10.0923
13.9006
16.5857
17.2694
15.7251
12.4964
8.62535
5.16771
2.78236
1.58041
1.24331
1.23011
1.01464
0.806853
0.619623
0.464191
0.349255
0.279564
0.255764
0.277837
0.336678
0.415774
0.495294
0.558473
0.59486
0.601737
0.584123
0.553469
0.52513
0.514937
0.535571
0.590329
0.673352
0.77733
0.896858
1.02722
1.16385
1.30287
1.44137
1.57747
1.71023
1.83947
1.96557
2.08928
2.2116
2.33361
2.45627
2.58028
2.70589
2.83281
2.96012
3.0863
3.20915
3.32544
3.43085
3.52029
3.5884
3.62951
3.63816
3.60981
3.54177
3.43407
3.28995
3.11574
2.92011
2.71269
2.50213
2.29432
2.09221
1.89719
1.70954
1.52932
1.35725
1.1951
1.04565
0.912112
0.797907
0.705426
0.634166
0.581403
0.542594
0.512123
0.4842
0.453719
0.416975
0.37218
0.319825
0.262106
0.20344
0.14957
0.106301
0.078389
0.0687047
0.0778595
0.104321
0.144878
0.195219
0.25016
0.304769
0.353842
0.392157
0.414424
0.416089
0.393979
0.347056
0.277199
0.187423
0.0852597
-0.0118797
-0.0859728
-0.12335
-0.118721
-0.0765288
-0.00892658
0.0687761
0.143183
0.207607
0.260516
0.302081
0.33251
0.35287
0.363863
0.366851
0.365166
0.364606
0.37248
0.395469
0.437349
0.496837
0.570724
0.654913
0.746904
0.847465
0.960578
1.09753
1.28025
1.49372
1.70223
1.86469
1.95322
1.96264
1.90657
1.80554
1.67585
1.52617
1.3634
1.19057
1.00899
0.820279
0.625701
0.432931
0.257323
0.11635
0.0241862
-0.0132345
0
0.0569704
0.139452
0.237175
0.344474
0.603459
1.45556
2.99748
5.28637
8.24163
11.5421
14.5604
16.4738
16.587
14.7144
11.3623
7.54537
4.31871
2.30533
1.50191
1.44322
1.40386
1.36442
1.32546
1.28766
1.25187
1.21892
1.18986
1.16637
1.15138
1.14936
1.16511
1.20314
1.26621
1.35398
1.46421
1.58959
1.71697
1.83317
1.92836
1.99832
2.04517
2.07612
2.10125
2.13101
2.17328
2.23146
2.30726
2.40239
2.51811
2.65479
2.81171
2.9869
3.17698
3.37718
3.58175
3.78452
3.97962
4.16215
4.3291
4.47959
4.61476
4.73732
4.85019
4.95476
5.04983
5.12897
5.17857
5.18177
5.12533
5.00564
4.83096
4.61882
4.39015
4.163
3.94519
3.73731
3.54086
3.35656
3.18431
3.02337
2.87229
2.72886
2.59053
2.45501
2.32078
2.18763
2.05691
1.93138
1.81478
1.71096
1.62348
1.55512
1.50742
1.48083
1.47684
1.49688
1.53284
1.57011
1.59438
1.59577
1.57203
1.52914
1.47862
1.43281
1.40039
1.38095
1.37111
1.36852
1.37048
1.37471
1.37948
1.38334
1.38485
1.38247
1.37467
1.36037
1.3393
1.3121
1.28005
1.24462
1.20699
1.16799
1.12824
1.08864
1.05091
1.01769
0.992194
0.977519
0.975821
0.987811
1.01275
1.04891
1.09435
1.14732
1.20649
1.27165
1.34288
1.42008
1.50262
1.58922
1.678
1.76635
1.85056
1.92527
1.98473
2.02319
2.03551
2.01798
1.96926
1.89093
1.78761
1.66638
1.5357
1.40398
1.2768
1.15745
1.04733
0.94479
0.846021
0.745989
0.639114
0.518092
0.375711
0.213015
0.0371386
-0.144713
-0.327737
0
1.06516
3.13495
6.23676
10.0028
13.6765
16.3164
17.1535
15.9405
13.0877
9.47673
6.0502
3.42833
1.77433
0.925416
0.636797
0.696459
0.754928
0.809934
0.859793
0.903503
0.940658
0.971256
0.995505
1.01371
1.02635
1.03433
1.03937
1.04438
1.05361
1.07314
1.1094
1.16823
1.25343
1.37169
1.52802
1.70245
1.86932
2.00618
2.10146
2.15772
2.18917
2.21523
2.25357
2.31227
2.3881
2.47875
2.58279
2.69801
2.82154
2.95016
3.08047
3.20912
3.333
3.44954
3.55669
3.65308
3.73792
3.81076
3.87116
3.9184
3.95148
3.96928
3.97043
3.95338
3.91669
3.85919
3.78015
3.67936
3.55722
3.415
3.25497
3.07961
2.89154
2.69387
2.49022
2.28465
2.08179
1.88668
1.70465
1.5409
1.40046
1.29039
1.21961
1.189
1.18388
1.18526
1.17538
1.14323
1.08785
1.01819
0.949388
0.896883
0.869664
0.863688
0.875138
0.897716
0.924669
0.951003
0.974646
0.996155
1.01722
1.03876
1.0588
1.07175
1.07069
1.05087
1.01302
0.964595
0.918154
0.887513
0.883022
0.903291
0.946331
1.00344
1.0628
1.11236
1.14241
1.14723
1.12563
1.08074
1.01927
0.950719
0.884983
0.831281
0.79716
0.787296
0.802845
0.841574
0.898748
0.968407
1.04454
1.12163
1.19515
1.26002
1.31123
1.34349
1.35162
1.33148
1.28092
1.2004
1.09319
0.964863
0.822598
0.674111
0.525541
0.381144
0.244194
0.117051
0.000873947
-0.104032
-0.197565
-0.279397
-0.349695
-0.409965
-0.461984
-0.507974
-0.549773
0
1.17924
3.10482
5.73535
8.78218
11.6905
13.7571
14.3835
13.345
10.9167
7.76701
4.67496
2.23074
0.672891
-0.0903351
-0.304746
-0.362568
-0.41724
-0.467653
-0.512265
-0.549253
-0.576589
-0.592349
-0.59502
-0.583727
-0.558339
-0.519478
-0.468504
-0.407586
-0.33872
-0.265599
-0.195595
-0.137466
-0.0987316
-0.0829744
-0.0876369
-0.103423
-0.115921
-0.109111
-0.0695936
0.0055788
0.109223
0.235969
0.381168
0.538948
0.702814
0.866919
1.02586
1.17441
1.3092
1.42864
1.53317
1.62537
1.7097
1.79193
1.87824
1.97488
2.0897
2.23286
2.41725
2.64456
2.88493
3.09675
3.22649
3.22044
3.0537
2.75295
2.39111
2.0513
1.78095
1.54995
1.33174
1.11929
0.911839
0.710748
0.518589
0.338643
0.174187
0.0278368
-0.0990097
-0.206297
-0.295032
-0.367103
-0.424445
-0.467436
-0.495868
-0.509737
-0.508731
-0.493137
-0.464646
-0.426661
-0.383928
-0.341604
-0.304084
-0.273857
-0.251536
-0.23595
-0.224819
-0.215577
-0.206086
-0.195099
-0.18194
-0.166381
-0.148447
-0.128267
-0.106025
-0.0819416
-0.0562992
-0.0296862
-0.00272846
0.024131
0.0507648
0.0772972
0.103812
0.129848
0.153741
0.172899
0.184854
0.188639
0.185695
0.1797
0.175333
0.176613
0.185718
0.201275
0.222335
0.248727
0.281082
0.321073
0.371228
0.434404
0.514532
0.618677
0.754578
0.923458
1.11169
1.28925
1.42239
1.47878
1.4299
1.2586
0.972413
0.613622
0.252979
-0.0380264
-0.239039
-0.38926
-0.51288
-0.606991
-0.675263
-0.719286
-0.73979
-0.738598
-0.719878
-0.689784
-0.654632
-0.618829
-0.583854
-0.692005
0
1.84439
4.81626
8.45922
12.0066
14.6229
15.6802
14.9642
12.7364
9.62038
6.36372
3.57818
1.57106
0.339923
-0.296094
-0.304413
-0.207126
-0.0952236
0.0134138
0.0984377
0.144125
0.145883
0.112661
0.0635504
0.020118
-0.00132484
0.00287056
0.025248
0.0648924
0.121806
0.196424
0.288876
0.400708
0.529802
0.662152
0.780828
0.872361
0.932506
0.968358
0.995717
1.03306
1.09503
1.18407
1.29252
1.41474
1.5466
1.68384
1.82237
1.95868
2.09011
2.21514
2.3335
2.44627
2.55568
2.66475
2.77693
2.89639
3.027
3.16862
3.31192
3.43836
3.52702
3.55905
3.52131
3.40948
3.23025
3.00173
2.75029
2.5035
2.27755
2.07041
1.8746
1.68495
1.49652
1.3051
1.10868
0.908053
0.708648
0.520993
0.357125
0.227176
0.136542
0.0845556
0.0650101
0.068206
0.083716
0.102772
0.120542
0.135357
0.147657
0.159301
0.17263
0.189479
0.211325
0.237789
0.264268
0.28436
0.292108
0.284137
0.260737
0.225323
0.182425
0.13518
0.0836145
0.0257948
-0.0415361
-0.120159
-0.208423
-0.300388
-0.386551
-0.456053
-0.499698
-0.498295
-0.454445
-0.389893
-0.332479
-0.305708
-0.321033
-0.375743
-0.456289
-0.544423
-0.622906
-0.683795
-0.726395
-0.749944
-0.752529
-0.732508
-0.689076
-0.622415
-0.533844
-0.425925
-0.302387
-0.167444
-0.0267353
0.110818
0.232652
0.327327
0.385754
0.402795
0.378244
0.316697
0.226239
0.11651
-0.00294552
-0.123349
-0.239098
-0.346818
-0.443369
-0.525064
-0.588265
-0.634953
-0.674248
-0.71834
-0.779431
-0.866515
-0.983121
-1.12664
-1.28913
-1.45901
-1.0954
0
1.89519
4.56605
7.80131
11.1716
14.0512
15.7514
15.7566
13.9663
10.8005
7.08025
3.71362
1.34733
0.155973
-0.130851
-0.0657324
-0.0291348
0.0081356
0.0499617
0.100015
0.16167
0.238334
0.334069
0.454182
0.605382
0.792419
1.01961
1.2911
1.60775
1.96555
2.35595
2.76892
3.19317
3.61747
4.03162
4.4254
4.78802
5.1099
5.3841
5.60546
5.77177
5.87597
5.90724
5.85913
5.7391
5.57478
5.41122
5.29676
5.26258
5.28866
5.34006
5.40216
5.46163
5.50858
5.53826
5.55088
5.54992
5.53969
5.52305
5.50072
5.47049
5.42824
5.36898
5.28785
5.181
5.04637
4.88405
4.69649
4.48914
4.26844
4.04076
3.81226
3.58848
3.37386
3.17148
2.98303
2.80902
2.64906
2.50222
2.36734
2.24329
2.12906
2.02389
1.92724
1.83883
1.7586
1.68664
1.62314
1.56832
1.52243
1.4855
1.45729
1.43735
1.42506
1.41963
1.42003
1.42499
1.43263
1.44026
1.4446
1.44205
1.42914
1.40301
1.3619
1.30559
1.23558
1.15517
1.06924
0.983836
0.90515
0.83878
0.789094
0.762784
0.765139
0.787874
0.818822
0.846233
0.862971
0.868779
0.869595
0.87431
0.890596
0.921324
0.961994
1.00853
1.05813
1.10855
1.15874
1.20894
1.26031
1.31434
1.37232
1.43466
1.49943
1.56018
1.60712
1.62978
1.61982
1.57375
1.49445
1.39077
1.27516
1.15985
1.05284
0.954331
0.860888
0.76889
0.674266
0.573695
0.464739
0.34739
0.224638
0.101436
-0.0180991
-0.132022
-0.240781
0
0.789364
2.43803
5.13475
8.71901
12.5663
15.7128
17.2171
16.5864
14.0258
10.3596
6.66335
3.81225
2.1768
1.59297
1.57174
1.3633
1.14013
0.923569
0.726748
0.563162
0.44388
0.374928
0.355569
0.381152
0.442308
0.516598
0.582763
0.62622
0.642311
0.636269
0.620118
0.608011
0.612041
0.636476
0.678838
0.738355
0.815344
0.909552
1.02016
1.14567
1.28369
1.43072
1.58267
1.73492
1.8824
2.02002
2.14394
2.25195
2.34376
2.4209
2.48632
2.5436
2.59617
2.64669
2.69683
2.74748
2.79923
2.8528
2.90923
2.97012
3.03827
3.11578
3.19417
3.25606
3.28103
3.2532
3.16679
3.02636
2.84172
2.62142
2.36968
2.09727
1.81323
1.5229
1.23213
0.948409
0.680241
0.436659
0.224918
0.0496763
-0.0873622
-0.187443
-0.254317
-0.293524
-0.311606
-0.31539
-0.311322
-0.305264
-0.302937
-0.308603
-0.324624
-0.351183
-0.386235
-0.425863
-0.465039
-0.498614
-0.522211
-0.533705
-0.532501
-0.517909
-0.490011
-0.445327
-0.379512
-0.304443
-0.241566
-0.213933
-0.235481
-0.301868
-0.389341
-0.4637
-0.495162
-0.470961
-0.415928
-0.347007
-0.272825
-0.201281
-0.138394
-0.0881167
-0.0532694
-0.0336339
-0.0275631
-0.0322485
-0.0437581
-0.0570615
-0.0662545
-0.0650564
-0.0474723
-0.00969305
0.0493567
0.131483
0.246325
0.420065
0.668963
0.946202
1.18885
1.33903
1.36567
1.2742
1.10029
0.893266
0.698452
0.543519
0.420985
0.319403
0.233035
0.161192
0.103597
0.0598253
0.029042
0.00979223
0
0.00157652
0.00773172
0.0164319
0.026175
0.0353973
0.586461
1.83616
3.92056
6.81882
10.2336
13.526
15.8277
16.3635
14.8454
11.6923
7.89388
4.56133
2.41994
1.54973
1.50083
1.53813
1.31943
1.08722
0.860208
0.663742
0.522608
0.452842
0.456587
0.52257
0.631342
0.762222
0.899008
1.03367
1.16563
1.29664
1.42907
1.56556
1.70875
1.86102
2.02423
2.19944
2.387
2.58664
2.79781
3.01991
3.25253
3.49542
3.74853
4.01189
4.28556
4.56956
4.86381
5.16797
5.48226
5.80967
6.14171
6.44983
6.69822
6.85712
6.91561
6.88599
6.79701
6.68082
6.56184
6.45204
6.35231
6.26259
6.18404
6.11817
6.06756
6.03195
5.99691
5.94015
5.83768
5.67166
5.43756
5.14718
4.82589
4.50481
4.21111
3.94684
3.71509
3.51551
3.34504
3.20023
3.07893
2.98063
2.91763
2.90274
2.91537
2.91839
2.87162
2.75119
2.56336
2.344
2.14375
2.00668
1.93292
1.89385
1.8846
1.89748
1.92369
1.95495
1.98467
2.00845
2.02399
2.03056
2.02823
2.01723
1.99756
1.96928
1.93255
1.88824
1.83814
1.78471
1.73048
1.67729
1.62519
1.57199
1.51428
1.44938
1.37718
1.30126
1.22935
1.17165
1.13849
1.1379
1.17371
1.24461
1.34444
1.4633
1.58932
1.71126
1.82095
1.91356
1.98532
2.03415
2.05922
2.06038
2.03797
1.99313
1.92768
1.84475
1.74895
1.64618
1.543
1.44576
1.35893
1.2853
1.22565
1.1787
1.14111
1.10663
1.06733
1.01511
0.941649
0.828875
0.668718
0.468346
0.240466
0
0.397042
1.57488
3.68253
6.66622
10.1508
13.4611
15.8067
16.5742
15.5829
13.1637
10.0119
6.89267
4.36247
2.64428
1.67762
1.26753
1.22137
1.1761
1.13258
1.09271
1.05896
1.03462
1.02602
1.03812
1.06233
1.08468
1.09214
1.0798
1.0551
1.03594
1.0599
1.15651
1.29067
1.38763
1.38067
1.25886
1.08187
0.949974
0.945859
1.08463
1.26746
1.45368
1.60897
1.7173
1.78468
1.83345
1.89059
1.97593
2.09
2.22026
2.35941
2.50217
2.64382
2.78066
2.91024
3.03106
3.14213
3.2423
3.32957
3.40026
3.44916
3.47134
3.46199
3.41763
3.33719
3.22229
3.07677
2.90544
2.71283
2.50292
2.28074
2.05018
1.81517
1.5814
1.35609
1.14721
0.962257
0.808781
0.688877
0.600684
0.538981
0.496428
0.465042
0.437513
0.408123
0.373246
0.331515
0.283618
0.23168
0.17881
0.128407
0.08345
0.0457492
0.0158504
-0.00657709
-0.0226947
-0.0338674
-0.0411059
-0.0446911
-0.0441144
-0.0383622
-0.0264694
-0.00785654
0.0170634
0.0453743
0.0711042
0.0873139
0.0884255
0.0723787
0.0419394
0.00452965
-0.0295944
-0.0503673
-0.0511451
-0.0253926
0.01865
0.067066
0.106474
0.129354
0.135691
0.130353
0.118269
0.100904
0.0767176
0.0453824
0.0130642
-0.00521817
0.0114744
0.0825147
0.217258
0.397584
0.607013
0.828774
1.04474
1.23938
1.39709
1.50541
1.56066
1.56356
1.51854
1.43346
1.31949
1.19031
1.06031
0.942027
0.842662
0.760941
0.695883
0.644643
0.603066
0.566583
0.530862
0.492139
0.447342
0.394282
0.332176
0.260049
0.178883
0.0910324
0
0.184056
1.061
2.91468
5.82138
9.48414
13.2039
16.0428
17.1578
16.1626
13.329
9.50209
5.75793
2.97326
1.52432
1.23614
1.55152
1.35618
1.15612
0.951627
0.752978
0.576717
0.439543
0.351753
0.313691
0.316692
0.347499
0.393593
0.446124
0.501512
0.559613
0.621683
0.689493
0.764789
0.848843
0.941965
1.0434
1.15149
1.2634
1.37457
1.47903
1.57119
1.64707
1.70537
1.74802
1.78008
1.8088
1.84236
1.88832
1.95172
2.03377
2.13382
2.25065
2.38226
2.52581
2.67798
2.83518
2.99385
3.15052
3.30201
3.44524
3.57657
3.69046
3.77935
3.83622
3.8527
3.81987
3.73009
3.57931
3.36912
3.10796
2.81081
2.49733
2.18806
1.89661
1.63439
1.4109
1.22845
1.08498
0.975521
0.893926
0.834182
0.791069
0.760135
0.737516
0.718925
0.699862
0.675884
0.643201
0.599352
0.543758
0.478024
0.405929
0.333126
0.265469
0.208557
0.169642
0.160342
0.190093
0.24574
0.305329
0.34628
0.353843
0.326378
0.274847
0.216704
0.167261
0.133042
0.107436
0.0845454
0.0603646
0.0335175
0.00624094
-0.0161521
-0.0271131
-0.0202145
0.0127092
0.0666979
0.125425
0.169436
0.183364
0.16159
0.110411
0.0464322
-0.00764008
-0.0281173
-0.0044548
0.0605956
0.164042
0.318126
0.561668
0.898313
1.25883
1.56915
1.77586
1.86086
1.83931
1.74376
1.60467
1.43956
1.25943
1.07785
0.904918
0.74851
0.615649
0.511934
0.445706
0.41568
0.410831
0.415577
0.413233
0.389405
0.334506
0.245008
0.123493
-0.0222057
-0.180245
0
1.0437
3.16339
6.20358
9.63331
12.731
14.8402
15.5668
14.8435
12.8849
10.0999
7.00408
4.13258
1.93644
0.668915
0.31434
0.517196
0.704598
0.869732
1.00754
1.11775
1.20378
1.27042
1.32009
1.35561
1.3776
1.38654
1.38524
1.3803
1.3817
65
220
379
544
708
865
1023
1181
1341
1496
1658
1820
1980
2138
2303
2465
2623
2781
2942
3098
3255
3411
3571
3727
0
0
0
0
0
0
0
0
0
0
0
0
0
0
0
0
0
0
0
0
0
0
0
0
0
0
0
0
0
0
0
0
0
0
0
0
0
0
0
0
0
0
0
0
0
0
0
0
0
0
0
0
0
0
0
0
0
0
0
0
0
0
0
0
0
0
0
0
0
0
0
0
0
0
0
0
0
0
0
0
0
0
0
0
0
0
0
0
0
0
0
0
0
0
0
0
0
0
0
0
0
0
0
0
0
0
0
0
0
0
0
0
0
0
0
0
0
0
0
0
0
0
0
0
0
0
0
0
0
0
0
0
0
0
0
0
0
0
0
0
0
0
0
0
0
0
0
0
0
0
0
0
0
0
0
0
0
0
0
0
0
0
0
0
0
0
0
0
0
0
0
0
0
0
0
0
0
0
0
0
0
0
0
0
0
0
0
0
0
0
0
0
0
0
0
0
0
0
0
0
0
0
0
0
0
0
0
0
0
0
0
0
0
0
0
0
0
0
0
0
0
0
0
0
0
0
0
0
0
0
0
0
0
0
0
0
0
0
0
0
0
0
0
0
0
0
0
0
0
0
0
0
0
0
0
0
0
0
0
0
0
0
0
0
0
0
0
0
0
0
0
0
0
0
0
0
0
0
0
0
0
0
0
0
0
0
0
0
0
0
0
0
0
0
0
0
0
0
0
0
0
0
0
0
0
0
0
0
0
0
0
0
0
0
0
0
0
0
0
0
0
0
0
0
0
0
0
0
0
0
0
0
0
0
0
0
0
0
0
0
0
0
0
0
0
0
0
0
0
0
0
0
0
0
0
0
0
0
0
0
0
0
0
0
0
0
0
0
0
0
0
0
0
0
0
0
0
0
0
0
0
0
0
0
0
0
0
0
0
0
0
0
0
0
0
0
0
0
0
0
0
0
0
0
0
0
0
0
0
0
0
0
0
0
0
0
0
0
0
0
0
0
0
0
0
0
0
0
0
0
0
0
0
0
0
0
0
0
0
0
0
0
0
0
0
0
0
0
0
0
0
0
0
0
0
0
0
0
0
0
0
0
0
0
0
0
0
0
0
0
0
0
0
0
0
0
0
0
0
0
0
0
0
0
0
0
0
0
0
0
0
0
0
0
0
0
0
0
0
0
0
0
0
0
0
0
0
0
0
0
0
0
0
0
0
0
0
0
0
0
0
0
0
0
0
0
0
0
0
0
0
0
0
0
0
0
0
0
0
0
0
0
0
0
0
0
0
0
0
0
0
0
0
0
0
0
0
0
0
0
0
0
0
0
0
0
0
0
0
0
0
0
0
0
0
0
0
0
0
0
0
0
0
0
0
0
0
0
0
0
0
0
0
0
0
0
0
0
0
0
0
0
0
0
0
0
0
0
0
0
0
0
0
0
0
0
0
0
0
0
0
0
0
0
0
0
0
0
0
0
0
0
0
0
0
0
0
0
0
0
0
0
0
0
0
0
0
0
0
0
0
0
0
0
0
0
0
0
0
0
0
0
0
0
0
0
0
0
0
0
0
0
0
0
0
0
0
0
0
0
0
0
0
0
0
0
0
0
0
0
0
0
0
0
0
0
0
0
0
0
0
0
0
0
0
0
0
0
0
0
0
0
0
0
0
0
0
0
0
0
0
0
0
0
0
0
0
0
0
0
0
0
0
0
0
0
0
0
0
0
0
0
0
0
0
0
0
0
0
0
0
0
0
0
0
0
0
0
0
0
0
0
0
0
0
0
0
0
0
0
0
0
0
0
0
0
0
0
0
0
0
0
0
0
0
0
0
0
0
0
0
0
0
0
0
0
0
0
0
0
0
0
0
0
0
0
0
0
0
0
0
0
0
0
0
0
0
0
0
0
0
0
0
0
0
0
0
0
0
0
0
0
0
0
0
0
0
0
0
0
0
0
0
0
0
0
0
0
0
0
0
0
0
0
0
0
0
0
0
0
0
0
0
0
0
0
0
0
0
0
0
0
0
0
0
0
0
0
0
0
0
0
0
0
0
0
0
0
0
0
0
0
0
0
0
0
0
0
0
0
0
0
0
0
0
0
0
0
0
0
0
0
0
0
0
0
0
0
0
0
0
0
0
0
0
0
0
0
0
0
0
0
0
0
0
0
0
0
0
0
0
0
0
0
0
0
0
0
0
0
0
0
0
0
0
0
0
0
0
0
0
0
0
0
0
0
0
0
0
0
0
0
0
0
0
0
0
0
0
0
0
0
0
0
0
0
0
0
0
0
0
0
0
0
0
0
0
0
0
0
0
0
0
0
0
0
0
0
0
0
0
0
0
0
0
0
0
0
0
0
0
0
0
0
0
0
0
0
0
0
0
0
0
0
0
0
0
0
0
0
0
0
0
0
0
0
0
0
0
0
0
0
0
0
0
0
0
0
0
0
0
0
0
0
0
0
0
0
0
0
0
0
0
0
0
0
0
0
0
0
0
0
0
0
0
0
0
0
0
0
0
0
0
0
0
0
0
0
0
0
0
0
0
0
0
0
0
0
0
0
0
0
0
0
0
0
0
0
0
0
0
0
0
0
0
0
0
0
0
0
0
0
0
0
0
0
0
0
0
0
0
0
0
0
0
0
0
0
0
0
0
0
0
0
0
0
0
0
0
0
0
0
0
0
0
0
0
0
0
0
0
0
0
0
0
0
0
0
0
0
0
0
0
0
0
0
0
0
0
0
0
0
0
0
0
0
0
0
0
0
0
0
0
0
0
0
0
0
0
0
0
0
0
0
0
0
0
0
0
0
0
0
0
0
0
0
0
0
0
0
0
0
0
0
0
0
0
0
0
0
0
0
0
0
0
0
0
0
0
0
0
0
0
0
0
0
0
0
0
0
0
0
0
0
0
0
0
0
0
0
0
0
0
0
0
0
0
0
0
0
0
0
0
0
0
0
0
0
0
0
0
0
0
0
0
0
0
0
0
0
0
0
0
0
0
0
0
0
0
0
0
0
0
0
0
0
0
0
0
0
0
0
0
0
0
0
0
0
0
0
0
0
0
0
0
0
0
0
0
0
0
0
0
0
0
0
0
0
0
0
0
0
0
0
0
0
0
0
0
0
0
0
0
0
0
0
0
0
0
0
0
0
0
0
0
0
0
0
0
0
0
0
0
0
0
0
0
0
0
0
0
0
0
0
0
0
0
0
0
0
0
0
0
0
0
0
0
0
0
0
0
0
0
0
0
0
0
0
0
0
0
0
0
0
0
0
0
0
0
0
0
0
0
0
0
0
0
0
0
0
0
0
0
0
0
0
0
0
0
0
0
0
0
0
0
0
0
0
0
0
0
0
0
0
0
0
0
0
0
0
0
0
0
0
0
0
0
0
0
0
0
0
0
0
0
0
0
0
0
0
0
0
0
0
0
0
0
0
0
0
0
0
0
0
0
0
0
0
0
0
0
0
0
0
0
0
0
0
0
0
0
0
0
0
0
0
0
0
0
0
0
0
0
0
0
0
0
0
0
0
0
0
0
0
0
0
0
0
0
0
0
0
0
0
0
0
0
0
0
0
0
0
0
0
0
0
0
0
0
0
0
0
0
0
0
0
0
0
0
0
0
0
0
0
0
0
0
0
0
0
0
0
0
0
0
0
0
0
0
0
0
0
0
0
0
0
0
0
0
0
0
0
0
0
0
0
0
0
0
0
0
0
0
0
0
0
0
0
0
0
0
0
0
0
0
0
0
0
0
0
0
0
0
0
0
0
0
0
0
0
0
0
0
0
0
0
0
0
0
0
0
0
0
0
0
0
0
0
0
0
0
0
0
0
0
0
0
0
0
0
0
0
0
0
0
0
0
0
0
0
0
0
0
0
0
0
0
0
0
0
0
0
0
0
0
0
0
0
0
0
0
0
0
0
0
0
0
0
0
0
0
0
0
0
0
0
0
0
0
0
0
0
0
0
0
0
0
0
0
0
0
0
0
0
0
0
0
0
0
0
0
0
0
0
0
0
0
0
0
0
0
0
0
0
0
0
0
0
0
0
0
0
0
0
0
0
0
0
0
0
0
0
0
0
0
0
0
0
0
0
0
0
0
0
0
0
0
0
0
0
0
0
0
0
0
0
0
0
0
0
0
0
0
0
0
0
0
0
0
0
0
0
0
0
0
0
0
0
0
0
0
0
0
0
0
0
0
0
0
0
0
0
0
0
0
0
0
0
0
0
0
0
0
0
0
0
0
0
0
0
0
0
0
0
0
0
0
0
0
0
0
0
0
0
0
0
0
0
0
0
0
0
0
0
0
0
0
0
0
0
0
0
0
0
0
0
0
0
0
0
0
0
0
0
0
0
0
0
0
0
0
0
0
0
0
0
0
0
0
0
0
0
0
0
0
0
0
0
0
0
0
0
0
0
0
0
0
0
0
0
0
0
0
0
0
0
0
0
0
0
0
0
0
0
0
0
0
0
0
0
0
0
0
0
0
0
0
0
0
0
0
0
0
0
0
0
0
0
0
0
0
0
0
0
0
0
0
0
0
0
0
0
0
0
0
0
0
0
0
0
0
0
0
0
0
0
0
0
0
0
0
0
0
0
0
0
0
0
0
0
0
0
0
0
0
0
0
0
0
0
0
0
0
0
0
0
0
0
0
0
0
0
0
0
0
0
0
0
0
0
0
0
0
0
0
0
0
0
0
0
0
0
0
0
0
0
0
0
0
0
0
0
0
0
0
0
0
0
0
0
0
0
0
0
0
0
0
0
0
0
0
0
0
0
0
0
0
0
0
0
0
0
0
0
0
0
0
0
0
0
0
0
0
0
0
0
0
0
0
0
0
0
0
0
0
0
0
0
0
0
0
0
0
0
0
0
0
0
0
0
0
0
0
0
0
0
0
0
0
0
0
0
0
0
0
0
0
0
0
0
0
0
0
0
0
0
0
0
0
0
0
0
0
0
0
0
0
0
0
0
0
0
0
0
0
0
0
0
0
0
0
0
0
0
0
0
0
0
0
0
0
0
0
0
0
0
0
0
0
0
0
0
0
0
0
0
0
0
0
0
0
0
0
0
0
0
0
0
0
0
0
0
0
0
0
0
0
0
0
0
0
0
0
0
0
0
0
0
0
0
0
0
0
0
0
0
0
0
0
0
0
0
0
0
0
0
0
0
0
0
0
0
0
0
0
0
0
0
0
0
0
0
0
0
0
0
0
0
0
0
0
0
0
0
0
0
0
0
0
0
0
0
0
0
0
0
0
0
0
0
0
0
0
0
0
0
0
0
0
0
0
0
0
0
0
0
0
0
0
0
0
0
0
0
0
0
0
0
0
0
0
0
0
0
0
0
0
0
0
0
0
0
0
0
0
0
0
0
0
0
0
0
0
0
0
0
0
0
0
0
0
0
0
0
0
0
0
0
0
0
0
0
0
0
0
0
0
0
0
0
0
0
0
0
0
0
0
0
0
0
0
0
0
0
0
0
0
0
0
0
0
0
0
0
0
0
0
0
0
0
0
0
0
0
0
0
0
0
0
0
0
0
0
0
0
0
0
0
0
0
0
0
0
0
0
0
0
0
0
0
0
0
0
0
0
0
0
0
0
0
0
0
0
0
0
0
0
0
0
0
0
0
0
0
0
0
0
0
0
0
0
0
0
0
0
0
0
0
0
0
0
0
0
0
0
0
0
0
0
0
0
0
0
0
0
0
0
0
0
0
0
0
0
0
0
0
0
0
0
0
0
0
0
0
0
0
0
0
0
0
0
0
0
0
0
0
0
0
0
0
0
0
0
0
0
0
0
0
0
0
0
0
0
0
0
0
0
0
0
0
0
0
0
0
0
0
0
0
0
0
0
0
0
0
0
0
0
0
0
0
0
0
0
0
0
0
0
0
0
0
0
0
0
0
0
0
0
0
0
0
0
0
0
0
0
0
0
0
0
0
0
0
0
0
0
0
0
0
0
0
0
0
0
0
0
0
0
0
0
0
0
0
0
0
0
0
0
0
0
0
0
0
0
0
0
0
0
0
0
0
0
0
0
0
0
0
0
0
0
0
0
0
0
0
0
0
0
0
0
0
0
0
0
0
0
0
0
0
0
0
0
0
0
0
0
0
0
0
0
0
0
0
0
0
0
0
0
0
0
0
0
0
0
0
0
0
0
0
0
0
0
0
0
0
0
0
0
0
0
0
0
0
0
0
0
0
0
0
0
0
0
0
0
0
0
0
0
0
0
0
0
0
0
0
0
0
0
0
0
0
0
0
0
0
0
0
0
0
0
0
0
0
0
0
0
0
0
0
0
0
0
0
0
0
0
0
0
0
0
0
0
0
0
0
0
0
0
0
0
0
0
0
0
0
0
0
0
0
0
0
0
0
0
0
0
0
0
0
0
0
0
0
0
0
0
0
0
0
0
0
0
0
0
0
0
0
0
0
0
0
0
0
0
0
0
0
0
0
0
0
0
0
0
0
0
0
0
0
0
0
0
0
0
0
0
0
0
0
0
0
0
0
0
0
0
0
0
0
0
0
0
0
0
0
0
0
0
0
0
0
0
0
0
0
0
0
0
0
0
0
0
0
0
0
0
0
0
0
0
0
0
0
0
0
0
0
0
0
0
0
0
0
0
0
0
0
0
0
0
0
0
0
0
0
0
0
0
0
0
0
0
0
0
0
0
0
0
0
0
0
0
0
0
0
0
0
0
0
0
0
0
0
0
0
0
0
0
0
0
0
0
0
0
0
0
0
0
0
0
0
0
0
0
0
0
0
0
0
0
0
0
0
0
0
0
0
0
0
0
0
0
0
0
0
0
0
0
0
0
0
0
0
0
0
0
0
0
0
0
0
0
0
0
0
0
0
0
0
0
0
0
0
0
0
0
0
0
0
0
0
0
0
0
0
0
0
0
0
0
0
0
0
0
0
0
0
0
0
0
0
0
0
0
0
0
0
0
0
0
0
0
0
0
0
0
0
0
0
0
0
0
0
0
0
0
0
0
0
0
0
0
0
0
0
0
0
0
0
0
0
0
0
0
0
0
0
0
0
0
0
0
0
0
0
0
0
0
0
0
0
0
0
0
0
0
0
0
0
0
0
0
0
0
0
0
0
0
0
0
0
0
0
0
0
0
0
0
0
0
0
0
0
0
0
0
0
0
0
0
0
0
0
0
0
0
0
0
0
0
0
0
0
0
0
0
0
0
0
0
0
0
0
0
0
0
0
0
0
0
0
0
0
0
0
0
0
0
0
0
0
0
0
0
0
0
0
0
0
0
0
0
0
0
0
0
0
0
0
0
0
0
0
0
0
0
0
0
0
0
0
0
0
0
0
0
0
0
0
0
0
0
0
0
0
0
0
0
0
0
0
0
0
0
0
0
0
0
0
0
0
0
0
0
0
0
0
0
0
0
0
0
0
0
0
0
0
0
0
0
0
0
0
0
0
0
0
0
0
0
0
0
0
0
0
0
0
0
0
0
0
0
0
0
0
0
0
0
0
0
0
0
0
0
0
0
0
0
0
0
0
0
0
0
0
0
0
0
0
0
0
0
0
0
0
0
0
0
0
0
0
0
0
0
0
0
0
0
0
0
0
0
0
0
0
0
0
0
0
0
0
0
0
0
0
0
0
0
0
0
0
0
0
0
0
0
0
0
0
0
0
0
0
0
0
0
0
0
0
0
0
0
0
0
0
0
0
0
0
0
0
0
0
0
0
0
0
0
0
0
0
0
0
0
0
0
0
0
0
0
0
0
0
0
0
0
0
0
0
0
0
0
0
0
0
0
0
0
0
0
0
0
0
0
0
0
0
0
0
0
0
0
0
0
0
0
0
0
0
0
0
0
0
0
0
0
0
0
0
0
0
0
0
0
0
0
0
0
0
0
0
0
0
0
0
0
0
0
0
0
0
0
0
0
0
0
0
0
0
0
0
0
0
0
0
0
0
0
0
0
0
0
0
0
0
0
0
0
0
0
0
0
0
0
0
0
0
0
0
0
0
0
0
0
0
0
0
0
0
0
0
0
0
0
0
0
0
0
0
0
0
0
0
0
0
0
0
0
0
0
0
0
0
0
0
0
0
0
0
0
0
0
0
0
0
0
0
0
0
0
0
0
0
0
0
0
0
0
0
0
0
0
0
0
0
0
0
0
0
0
0
0
0
0
0
0
0
0
0
0
0
0
0
0
0
0
0
0
0
0
0
0
0
0
0
0
0
0
0
0
0
0
0
0
0
0
0
0
0
0
0
0
0
0
0
0
0
0
0
0
0
0
0
0
0
0
0
0
0
0
0
0
0
0
0
0
0
0
0
0
0
0
0
0
0
0
0
0
0
0
0
0
0
0
0
0
0
0
0
0
0
0
0
0
0
0
0
0
0
0
0
0
0
0
0
0
0
0
0
0
0
0
0
0
0
0
0
0
0
0
0
0
0
0
0
0
0
0
0
0
0
0
0
0
0
0
0
0
0
0
