0.425652
0.447896
0.508289
0.599207
0.69479
0.767257
0.794859
0.768538
0.694873
0.593722
0.491077
0.40991
0.359438
0.33066
0.314223
0.304574
0.296122
0.283216
0.26115
0.226836
0.179237
0.119523
0.0504226
-0.0228814
-0.0941431
-0.156854
-0.204814
-0.232076
-0.234991
-0.211824
-0.162948
-0.0908768
0
0.102476
0.212352
0.324888
0.437445
0.549929
0.663968
0.78244
0.91038
1.05726
1.24672
1.53704
1.89084
2.34461
2.92076
3.51754
3.91346
3.86816
3.24915
2.10839
0.674283
-0.724053
-1.67616
-2.04471
-2.09335
-1.87588
-1.55899
-1.28033
-1.06603
-0.849599
-0.633962
-0.437191
-0.266651
-0.128103
-0.025456
0.0409136
0.0759322
0.0887538
0.0907528
0.0931881
0.104313
0.127449
0.165963
0.222921
0.294594
0.364436
0.413274
0.42536
0.394661
0.328919
0.24913
0.183811
0.159997
0.19446
0.272386
0.379227
0.509563
0.656728
0.813968
0.975141
1.12843
1.26042
1.35825
1.41278
1.42265
1.39644
1.35102
1.30645
1.27986
1.27847
1.29674
1.33038
1.37787
1.43825
1.51104
1.59688
1.69887
1.82402
1.9772
2.14075
2.28194
2.36419
2.35999
2.26213
2.08718
1.86878
1.64326
1.43444
1.2401
1.0516
0.865032
0.679383
0.495825
0.317974
0.151616
0.00553036
-0.0990854
-0.124653
-0.0722594
0.0203369
0.104108
0.138532
0.105395
0.0107622
-0.123051
-0.268466
-0.400092
-0.506466
-0.587857
-0.644952
-0.677478
-0.685126
-0.666091
-0.622509
-0.564634
-0.506216
-0.459929
-0.434422
-0.432418
-0.450438
-0.480199
-0.511257
-0.534076
-0.543954
-0.541695
-0.528968
-0.509348
-0.487563
-0.467942
-0.453331
-0.44459
-0.440806
-0.4401
-0.440663
-0.441589
-0.443131
-0.446258
-0.451692
-0.458855
-0.465222
-0.466407
-0.457064
-0.432329
-0.385185
-0.31233
-0.221814
-0.129062
-0.0515687
-0.00493526
0
-0.0395208
-0.12221
-0.237241
-0.366169
-0.485206
-0.571125
-0.607252
-0.574294
-0.429084
-0.216223
-0.00386667
0.144323
0.1938
0.149282
0.0470554
-0.065389
-0.15154
-0.202179
-0.235966
-0.263308
-0.288891
-0.31554
-0.343407
-0.369945
-0.390585
-0.399885
-0.393992
-0.368327
-0.314096
-0.227334
-0.124712
-0.0308874
0.030512
0.0449903
0.0125532
-0.0520619
-0.124609
-0.179819
-0.199409
-0.186502
-0.151271
-0.100138
-0.0368714
0.034763
0.111294
0.188114
0.259978
0.322309
0.371977
0.408026
0.431941
0.447184
0.458006
0.467928
0.478449
0.488495
0.494863
0.493218
0.479412
0.450668
0.406328
0.348105
0.279927
0.207575
0.137963
0.078281
0.0357912
0.0170002
0.0267039
0.0696084
0.160304
0.297559
0.449883
0.58052
0.659194
0.67174
0.623664
0.536143
0.436217
0.345655
0.271963
0.20879
0.150798
0.0958445
0.0440826
-0.00127196
-0.034262
-0.0479344
-0.0370254
0
0.0604867
0.139144
0.230596
0.332106
0.44344
0.567851
0.710457
0.884668
1.12768
1.50756
2.00869
2.47568
2.9
3.30759
3.65556
3.82288
3.66701
3.11638
2.23497
1.20918
0.276953
-0.309042
-0.665818
-0.919371
-1.05295
-1.06514
-0.969312
-0.792204
-0.570054
-0.340445
-0.132632
0.045534
0.199027
0.327962
0.428366
0.497811
0.537032
0.551223
0.550009
0.545561
0.549238
0.567995
0.600631
0.641425
0.682867
0.717167
0.738833
0.74644
0.743053
0.735305
0.731541
0.73967
0.763134
0.802055
0.855533
0.921672
0.997586
1.07957
1.16394
1.24768
1.32879
1.4063
1.48005
1.55029
1.61718
1.68055
1.73984
1.79432
1.84348
1.88746
1.92723
1.96465
2.00218
2.0423
2.08696
2.13701
2.19233
2.25055
2.30722
2.35688
2.39386
2.41285
2.40926
2.37928
2.31992
2.22919
2.10792
1.95919
1.78688
1.59751
1.39993
1.2045
1.0212
0.858411
0.727257
0.64148
0.60147
0.58835
0.578146
0.549358
0.489528
0.398563
0.287787
0.175307
0.0795795
0.00973897
-0.0376733
-0.0661312
-0.0780636
-0.0777491
-0.0701295
-0.0597419
-0.0498851
-0.0420974
-0.0359941
-0.0294816
-0.0193279
-0.00200839
0.0253124
0.0647816
0.117942
0.179647
0.24012
0.28906
0.318889
0.326982
0.315945
0.291912
0.261788
0.230846
0.201548
0.174597
0.150836
0.13181
0.119958
0.118057
0.128176
0.150602
0.182442
0.220041
0.258886
0.294601
0.323953
0.345502
0.359752
0.368829
0.37585
0.384092
0.39611
0.413541
0.437091
0.466102
0.496521
0.521035
0.532125
0.52464
0.497924
0.456491
0.408733
0.364011
0.329282
0.307054
0.294357
0.285113
0.273619
0.257769
0.240591
0.229512
0.233722
0.260731
0.308945
0.376654
0.460596
0.548826
0.628235
0.68827
0.723783
0.735995
0.731253
0.718142
0.704199
0.693419
0.685482
0.678994
0.671988
0.662789
0.650531
0.635134
0.61686
0.595747
0.571385
0.542907
0.509295
0.470061
0.425776
0.378338
0.330871
0.287297
0.251687
0.226879
0.214704
0.216525
0.2333
0.26403
0.303621
0.344315
0.37765
0.395877
0.39335
0.36763
0.32009
0.25591
0.183424
0.112832
0.0538274
0.0143377
0
0.0157875
0.063607
0.144502
0.258544
0.405111
0.57993
0.782222
1.01542
1.28191
1.58249
1.90614
2.20095
2.52274
2.90916
3.28191
3.4736
3.31301
2.7195
1.75356
0.605984
-0.425026
-1.02877
-1.41959
-1.56204
-1.49896
-1.31348
-1.0823
-0.85136
-0.641956
-0.455269
-0.286113
-0.13107
0.0115043
0.142469
0.262095
0.368573
0.460715
0.537538
0.59853
0.64391
0.674733
0.692768
0.700219
0.699405
0.692563
0.682093
0.670266
0.659766
0.653934
0.656917
0.672965
0.705868
0.758123
0.830212
0.920228
1.02398
1.13561
1.24858
1.35687
1.45628
1.54427
1.62029
1.68569
1.74325
1.79668
1.85007
1.9074
1.97233
2.04829
2.13988
2.25656
2.41202
2.59438
2.76527
2.87793
2.8967
2.81811
2.67955
2.54666
2.48343
2.52112
2.64213
2.79119
2.89872
2.90842
2.79563
2.57109
2.27195
1.94659
1.6405
1.37256
1.13722
0.92966
0.752018
0.608969
0.508841
0.457944
0.446622
0.455624
0.463953
0.453679
0.413853
0.342263
0.244718
0.132412
0.0184876
-0.086331
-0.17717
-0.252212
-0.309833
-0.348053
-0.365779
-0.362886
-0.340014
-0.29873
-0.241698
-0.17275
-0.0967631
-0.0193043
0.0538717
0.117406
0.166743
0.198438
0.210297
0.201404
0.172148
0.124366
0.0590042
-0.0208219
-0.106461
-0.185591
-0.245918
-0.27756
-0.275114
-0.238751
-0.174026
-0.0904909
0.000486469
0.0881982
0.166027
0.231503
0.28376
0.322039
0.346324
0.356042
0.351073
0.332004
0.300041
0.257548
0.208042
0.156784
0.109452
0.0709133
0.0441765
0.0299562
0.0270117
0.0330473
0.0457103
0.0628051
0.083192
0.106038
0.130324
0.154566
0.176904
0.195279
0.207797
0.213076
0.210467
0.200097
0.182768
0.159816
0.132928
0.10392
0.0746339
0.0469408
0.0226485
0.00344219
-0.00913343
-0.0136361
-0.00863533
0.00738702
0.0360726
0.0790799
0.138288
0.219324
0.330117
0.468315
0.614102
0.742743
0.831615
0.866392
0.843916
0.771514
0.66428
0.541962
0.425654
0.329573
0.258898
0.213663
0.190836
0.18657
0.197566
0.219593
0.248044
0.278334
0.305714
0.325447
0.333695
0.327898
0.307308
0.2733
0.229207
0.179592
0.12921
0.0820457
0.0400091
0.00418463
-0.0245808
-0.0455926
-0.0580393
-0.0608963
-0.0529684
-0.0330681
0
0.0462572
0.108961
0.190252
0.292489
0.417876
0.567891
0.744572
0.9521
1.19421
1.47573
1.78755
2.08173
2.45059
2.90972
3.34288
3.55045
3.3534
2.69401
1.67669
0.53079
-0.438266
-0.918917
-1.23178
-1.41263
-1.46295
-1.40415
-1.26705
-1.08425
-0.886758
-0.700575
-0.536673
-0.393749
-0.266126
-0.148464
-0.0366787
0.072414
0.181302
0.291383
0.40044
0.500983
0.582896
0.637159
0.659349
0.651425
0.621173
0.579835
0.539227
0.50854
0.49119
0.488949
0.50416
0.53799
0.590666
0.664453
0.755682
0.851889
0.939491
1.0079
1.0531
1.07916
1.09691
1.12026
1.16153
1.22576
1.30827
1.40325
1.50549
1.60912
1.70807
1.79672
1.87105
1.92933
1.97189
2.0008
2.01932
2.03114
2.03953
2.04656
2.05251
2.05555
2.05206
2.03763
2.00813
1.96063
1.894
1.80896
1.70777
1.59408
1.47225
1.34578
1.21719
1.0882
0.959834
0.832559
0.706609
0.582443
0.461188
0.344918
0.236654
0.140079
0.0593072
-0.00200458
-0.0417657
-0.0595154
-0.0561029
-0.0358622
-0.0116209
0
-0.0170611
-0.0697493
-0.157012
-0.267081
-0.37932
-0.469062
-0.490935
-0.378197
-0.178198
0.0165456
0.116245
0.0782288
-0.0729088
-0.258756
-0.388449
-0.408129
-0.352452
-0.279562
-0.21287
-0.17037
-0.159677
-0.176873
-0.209228
-0.240288
-0.255046
-0.248164
-0.221541
-0.174597
-0.100223
0.017842
0.18942
0.379269
0.534052
0.596552
0.529705
0.337667
0.0709476
-0.18985
-0.366507
-0.427527
-0.429658
-0.403024
-0.357321
-0.301999
-0.244755
-0.190379
-0.141713
-0.100584
-0.0672426
-0.041076
-0.0207256
-0.00417576
0.0109665
0.0268897
0.0448956
0.0645186
0.0823653
0.0930857
0.0911015
0.0727773
0.0382457
-0.00784016
-0.0570107
-0.0990313
-0.124786
-0.130657
-0.115317
-0.082955
-0.0413191
0.000464439
0.0342416
0.0546278
0.0598561
0.0517079
0.0348516
0.0160151
0.00219603
0
0.0295038
0.143873
0.382612
0.679652
0.930791
1.04262
0.977512
0.77103
0.515782
0.322303
0.2711
0.325423
0.422561
0.520384
0.575461
0.558838
0.467581
0.326023
0.17534
0.0559577
-0.00905819
-0.0407192
-0.0548983
-0.0610628
-0.0680421
-0.0814985
-0.102386
-0.126815
-0.14735
-0.155361
-0.143738
-0.104033
-0.0353176
0.0488795
0.129909
0.189801
0.216357
0.206111
0.164804
0.105828
0.047297
0.00805497
0
0.0262496
0.0851009
0.197947
0.432205
0.873361
1.40976
1.95811
2.47687
2.91314
3.1924
3.22268
2.9089
2.18587
1.06754
-0.310541
-1.68721
-2.7679
-3.32149
-3.29295
-2.83191
-2.21371
-1.68987
-1.36253
-1.15354
-0.950531
-0.786759
-0.652652
-0.545587
-0.465944
-0.413528
-0.384861
-0.374031
-0.37397
-0.377716
-0.379478
-0.375549
-0.363134
-0.340032
-0.304715
-0.256409
-0.195299
-0.121641
-0.0377409
0.0512943
0.138991
0.218274
0.282206
0.32642
0.349486
0.353254
0.342683
0.325135
0.309177
0.303063
0.31321
0.3426
0.388942
0.448326
0.51729
0.592252
0.669799
0.747169
0.822813
0.896595
0.969717
1.04438
1.12327
1.20891
1.30313
1.40662
1.5192
1.63932
1.76409
1.88925
2.00829
2.10989
2.17841
2.19721
2.14886
2.0205
1.81052
1.53366
1.22084
0.912568
0.647859
0.438633
0.271523
0.146393
0.0619974
0.0146251
0
0.0186779
0.0709615
0.138842
0.191274
0.195209
0.12526
-0.0256181
-0.240272
-0.480513
-0.699189
-0.856215
-0.949374
-0.976815
-0.948271
-0.879723
-0.787829
-0.687033
-0.586872
-0.493782
-0.414712
-0.356768
-0.326308
-0.328055
-0.363269
-0.428123
-0.513037
-0.603928
-0.682734
-0.733066
-0.744609
-0.715987
-0.654942
-0.5757
-0.494532
-0.425243
-0.371789
-0.335708
-0.316562
-0.31185
-0.318005
-0.330667
-0.346417
-0.362552
-0.376881
-0.387733
-0.393937
-0.394903
-0.39039
-0.380475
-0.365536
-0.346169
-0.323111
-0.297171
-0.269181
-0.240004
-0.210577
-0.182007
-0.155671
-0.133121
-0.115682
-0.10411
-0.0981502
-0.0962533
-0.0956121
-0.0926102
-0.0836235
-0.0646058
-0.0328531
0.00863686
0.05165
0.0856905
0.100814
0.0902787
0.0523049
-0.00939856
-0.0862975
-0.166674
-0.238426
-0.293034
-0.326345
-0.337892
-0.327937
-0.298697
-0.253958
-0.198229
-0.136044
-0.0713468
-0.00694809
0.0550659
0.11303
0.165401
0.210725
0.247782
0.275611
0.293738
0.302413
0.302754
0.296775
0.287272
0.277587
0.271223
0.271317
0.280453
0.300341
0.332481
0.376013
0.426031
0.475002
0.514774
0.538248
0.540766
0.520859
0.48023
0.423058
0.354961
0.28202
0.20956
0.141367
0.0797974
0.0263731
-0.0177017
-0.051589
-0.0750495
-0.0883104
-0.0920644
-0.0875021
-0.0759237
-0.0591732
-0.0404535
-0.0232871
-0.0104692
-0.00313072
0
-0.0141005
-0.0224586
-0.0179758
0.00602636
0.0527082
0.121824
0.219442
0.388359
0.804542
1.42022
2.12472
2.8409
3.47328
3.91371
4.05362
3.7973
3.08776
1.94491
0.499664
-1.0101
-2.30419
-3.15464
-3.46243
-3.27357
-2.73515
-2.03017
-1.32853
-0.760297
-0.413855
-0.285294
-0.217155
-0.171127
-0.144154
-0.138734
-0.155299
-0.19166
-0.242829
-0.301394
-0.3585
-0.405292
-0.435415
-0.445175
-0.426091
-0.37962
-0.325042
-0.285503
-0.279502
-0.313013
-0.375617
-0.442871
-0.484698
-0.476838
-0.416367
-0.299067
-0.159005
-0.0389771
0.0282026
0.0343531
0
-0.0334705
-0.0211687
0.0969452
0.359748
0.679887
0.936993
1.03964
0.966806
0.772672
0.556549
0.414709
0.397785
0.450849
0.527597
0.612909
0.699358
0.781086
0.853563
0.913161
0.956453
0.979282
0.976373
0.94304
0.874699
0.768178
0.62321
0.443577
0.237441
0.0166225
-0.205123
-0.414488
-0.603132
-0.764394
-0.895395
-0.997764
-1.07671
-1.13918
-1.19234
-1.24229
-1.29336
-1.34784
-1.40612
-1.46712
-1.52866
-1.58804
-1.64237
-1.68831
-1.72294
-1.74412
-1.75094
-1.74391
-1.7242
-1.69681
-1.6682
-1.64471
-1.63129
-1.63045
-1.64202
-1.66337
-1.69013
-1.71701
-1.73902
-1.75185
-1.7518
-1.73636
-1.70474
-1.6561
-1.5932
-1.52343
-1.45584
-1.39895
-1.35884
-1.33772
-1.33353
-1.34052
-1.35072
-1.35598
-1.3504
-1.33182
-1.30094
-1.26002
-1.21317
-1.16468
-1.11791
-1.07467
-1.0354
-1.00026
-0.970319
-0.947494
-0.935007
-0.935855
-0.951042
-0.978634
-1.01422
-1.05246
-1.08886
-1.12109
-1.14894
-1.1715
-1.18761
-1.19566
-1.19373
-1.18
-1.15325
-1.11321
-1.06061
-0.997059
-0.924757
-0.846766
-0.765825
-0.68487
-0.607108
-0.535759
-0.473824
-0.423813
-0.387506
-0.365882
-0.358727
-0.364668
-0.381177
-0.404708
-0.431053
-0.455911
-0.475607
-0.487286
-0.489557
-0.483964
-0.473463
-0.461199
-0.449348
-0.438489
-0.427725
-0.415449
-0.400354
-0.382378
-0.36289
-0.343904
-0.328043
-0.318094
-0.316576
-0.325356
-0.345269
-0.375636
-0.415031
-0.459836
-0.50224
-0.532835
-0.542897
-0.526675
-0.483146
-0.416576
-0.335621
-0.251197
-0.173747
-0.108998
-0.0596666
-0.0247919
0
0.0234581
0.0510824
0.0900093
0.163683
0.370863
0.845136
1.45415
2.08256
2.6434
3.04443
3.18197
2.96167
2.34997
1.42556
0.376885
-0.559558
-1.18034
-1.61963
-1.86521
-1.94328
-1.8524
-1.57172
-1.11369
-0.564659
-0.083256
0.174165
0.274471
0.328965
0.370669
0.407623
0.444755
0.485328
0.529433
0.572335
0.606816
0.626078
0.626458
0.609018
0.579442
0.546325
0.518636
0.503472
0.502685
0.515346
0.542228
0.58396
0.641206
0.714321
0.804264
0.913513
1.0334
1.14984
1.24975
1.32683
1.38485
1.4366
1.49837
1.58239
1.69095
1.81142
1.93199
2.03981
2.12465
2.18155
2.21154
2.22078
2.21859
2.21529
2.21927
2.23564
2.2699
2.3324
2.44046
2.60992
2.8254
3.03873
3.19981
3.26839
3.22257
3.06374
2.81634
2.52018
2.21694
1.93517
1.67723
1.43635
1.20885
0.994818
0.795875
0.613923
0.451238
0.310437
0.194846
0.115196
0.104716
0.20058
0.36315
0.527733
0.627849
0.623467
0.517806
0.353366
0.19027
0.0787361
0.0322829
0.0183689
0.0188019
0.0278439
0.0413262
0.0574692
0.0767158
0.100682
0.130658
0.166359
0.205149
0.242557
0.273579
0.294307
0.303247
0.301855
0.294168
0.285734
0.282223
0.287156
0.302095
0.327508
0.363028
0.40693
0.4558
0.505139
0.550037
0.585582
0.60683
0.610331
0.5942
0.558548
0.505768
0.44057
0.369615
0.300755
0.241918
0.199794
0.176998
0.174479
0.193516
0.233618
0.286312
0.339764
0.383474
0.411007
0.421502
0.419399
0.412396
0.408399
0.412581
0.424321
0.440609
0.457128
0.468947
0.471924
0.463804
0.444812
0.417647
0.386976
0.358612
0.338615
0.33192
0.341476
0.368945
0.415896
0.487288
0.594837
0.740746
0.896217
1.02433
1.09274
1.08768
1.02103
0.925153
0.836865
0.779646
0.750071
0.729355
0.708408
0.680625
0.643352
0.598585
0.55217
0.511892
0.484225
0.471776
0.48116
0.510439
0.543865
0.561862
0.547916
0.494917
0.408395
0.305173
0.207994
0.138425
0.104733
0.0996772
0.123979
0.182969
0.282503
0.411806
0.538453
0.626179
0.643495
0.575799
0.434867
0.258964
0.101237
0.0104392
0
0.0372937
0.123818
0.366166
0.832552
1.46476
2.2659
3.13901
3.88967
4.30057
4.22594
3.65233
2.69879
1.5627
0.44582
-0.500223
-1.11132
-1.41982
-1.52357
-1.40025
-1.09789
-0.712073
-0.35384
-0.112476
0.0291243
0.12824
0.208888
0.278514
0.339803
0.394682
0.4455
0.494933
0.545701
0.600338
0.661171
0.729142
0.800147
0.864515
0.91141
0.933103
0.928696
0.905547
0.877455
0.860072
0.865375
0.895908
0.943011
0.99841
1.05637
1.11174
1.16064
1.201
1.23267
1.25722
1.27755
1.29737
1.32065
1.35118
1.3921
1.44546
1.51175
1.58975
1.67687
1.76914
1.8614
1.9484
2.02573
2.09058
2.14208
2.18128
2.21075
2.23374
2.25337
2.27172
2.28917
2.30382
2.31152
2.30652
2.28255
2.23402
2.15723
2.05123
1.91833
1.76403
1.5964
1.42522
1.25979
1.10724
0.9728
0.860244
0.772552
0.71035
0.667616
0.63627
0.6085
0.57857
0.54386
0.504865
0.464206
0.425116
0.390012
0.35919
0.332234
0.308125
0.285952
0.265449
0.247119
0.231936
0.220799
0.213879
0.210507
0.209617
0.209856
0.210078
0.209778
0.209306
0.209797
0.212823
0.21986
0.231735
0.248382
0.268383
0.288933
0.306373
0.317242
0.319215
0.311837
0.296827
0.277878
0.259935
0.248156
0.24676
0.257479
0.279337
0.310289
0.34742
0.386234
0.421617
0.449014
0.4651
0.468113
0.457832
0.435257
0.40219
0.360895
0.314123
0.265087
0.217167
0.174319
0.141079
0.124359
0.138354
0.210813
0.369263
0.58572
0.795237
0.933877
0.955741
0.845771
0.628337
0.3659
0.14067
0.0196525
-0.0111641
-0.00264091
0.0219916
0.0558154
0.0946723
0.138006
0.18844
0.250244
0.328359
0.430749
0.553846
0.67857
0.781445
0.843187
0.855786
0.825554
0.771277
0.71807
0.68881
0.69315
0.722502
0.769007
0.818768
0.857086
0.872884
0.861563
0.825366
0.771406
0.708513
0.644382
0.5833
0.526577
0.475044
0.429602
0.391255
0.361271
0.341149
0.33247
0.336784
0.355464
0.389693
0.440394
0.506562
0.579642
0.642877
0.678215
0.67123
0.616016
0.518081
0.393664
0.265287
0.155173
0.07738
0.0278605
0.00239344
0
0.0180563
0.055088
0.108011
0.174691
0.253824
0.347658
0.485133
0.84883
1.51423
2.34062
3.12309
3.69858
4.01891
4.10963
3.96074
3.47503
2.5461
1.20499
-0.299518
-1.53741
-2.09072
-2.16882
-1.80223
-1.23092
-0.710606
-0.386972
-0.252666
-0.143319
-0.0413282
0.0525327
0.13404
0.198784
0.244006
0.270364
0.282878
0.29057
0.304773
0.336575
0.393175
0.473868
0.583496
0.721447
0.871367
1.00902
1.1119
1.16444
1.16125
1.10764
1.01795
0.912508
0.813825
0.739943
0.69677
0.683119
0.696135
0.734052
0.792772
0.866584
0.949284
1.0353
1.12051
1.20254
1.28054
1.35449
1.42459
1.49077
1.55257
1.6093
1.66058
1.70688
1.74986
1.79234
1.83796
1.89107
1.95814
2.04641
2.15243
2.25758
2.33774
2.37084
2.34316
2.25198
2.10409
1.91201
1.6907
1.45797
1.22935
1.01403
0.819096
0.652368
0.519515
0.428354
0.388776
0.391959
0.418241
0.446329
0.45901
0.447205
0.411108
0.358389
0.300526
0.248732
0.208442
0.179374
0.159695
0.147631
0.13891
0.127081
0.105863
0.0707162
0.0201419
-0.0436812
-0.115175
-0.186506
-0.249277
-0.296509
-0.323487
-0.328506
-0.312793
-0.279897
-0.234946
-0.183721
-0.131252
-0.081676
-0.0379345
-0.00198851
0.0251712
0.0436171
0.0544533
0.0596931
0.0619958
0.0642425
0.0689855
0.0778723
0.0915564
0.108824
0.126359
0.139872
0.145149
0.139043
0.120142
0.0890124
0.0480893
0.00136175
-0.0459903
-0.0881798
-0.119328
-0.134346
-0.129909
-0.105293
-0.0627501
-0.00720472
0.0547178
0.116014
0.170661
0.215499
0.24781
0.2656
0.267414
0.251983
0.218152
0.165146
0.0912213
-0.00788269
-0.133316
-0.27097
-0.395463
-0.480944
-0.508345
-0.471161
-0.377609
-0.248121
-0.109003
0.015256
0.112513
0.185873
0.240078
0.276883
0.296625
0.3
0.287965
0.261847
0.223487
0.17473
0.120052
0.0682951
0.0299905
0.015132
0.0310153
0.0805906
0.161888
0.268644
0.391777
0.521069
0.64584
0.751986
0.826084
0.85604
0.831663
0.748301
0.611411
0.439315
0.261608
0.112469
0.0207695
-0.0148889
-0.00469341
0.0488879
0.131029
0.2204
0.296777
0.34491
0.356587
0.330854
0.27285
0.191923
0.099602
0.0078145
-0.0737442
-0.139501
-0.186951
-0.21338
-0.217845
-0.201446
-0.167162
-0.118882
-0.061656
0
0.0600515
0.12077
0.183544
0.251341
0.327663
0.415404
0.515661
0.627676
0.752704
0.899412
1.08421
1.45731
2.09691
2.9229
3.69053
4.07113
3.80449
2.84392
1.40798
-0.1017
-1.27651
-1.71853
-1.73067
-1.64066
-1.48424
-1.30853
-1.13849
-0.970501
-0.800624
-0.634623
-0.478882
-0.341214
-0.229897
-0.15074
-0.105189
-0.0894329
-0.0949686
-0.110502
-0.124596
-0.128192
-0.118227
-0.095993
-0.0634943
-0.0228706
0.0233677
0.0726919
0.1229
0.172294
0.219714
0.264459
0.306146
0.344562
0.379514
0.410919
0.438856
0.463653
0.485996
0.506952
0.527886
0.550261
0.575406
0.604334
0.637622
0.675565
0.71845
0.766669
0.82079
0.881476
0.949252
1.0242
1.10573
1.19253
1.28254
1.37333
1.46237
1.54725
1.6255
1.69342
1.74574
1.77708
1.78128
1.75207
1.68455
1.57673
1.43051
1.25174
1.04933
0.833861
0.616323
0.404503
0.204272
0.0209843
-0.141058
-0.279178
-0.392057
-0.47974
-0.543577
-0.586081
-0.610706
-0.621613
-0.623475
-0.621288
-0.620553
-0.627557
-0.648175
-0.687187
-0.747344
-0.828502
-0.929444
-1.04373
-1.15856
-1.25997
-1.33602
-1.3792
-1.38749
-1.36402
-1.31544
-1.24987
-1.17494
-1.09692
-1.01954
-0.944847
-0.874509
-0.810277
-0.753888
-0.707122
-0.671607
-0.648555
-0.638493
-0.641077
-0.655014
-0.678119
-0.707436
-0.739629
-0.771307
-0.799337
-0.821203
-0.835408
-0.841436
-0.839521
-0.830597
-0.816236
-0.799048
-0.782213
-0.76847
-0.759546
-0.755795
-0.756242
-0.758994
-0.761919
-0.763314
-0.762433
-0.759539
-0.75542
-0.751343
-0.748875
-0.749751
-0.755848
-0.768833
-0.789889
-0.819264
-0.855849
-0.896927
-0.938267
-0.97433
-0.999197
-1.00746
-0.99496
-0.959251
-0.899683
-0.809146
-0.668546
-0.469694
-0.253397
-0.0776266
0
-0.0267603
-0.153442
-0.309366
-0.416534
-0.436856
-0.407439
-0.374945
-0.363474
-0.385231
-0.436015
-0.497965
-0.548252
-0.569633
-0.561268
-0.531272
-0.495841
-0.472465
-0.472839
-0.498203
-0.5388
-0.5775
-0.596062
-0.582181
-0.53988
-0.478195
-0.402409
-0.318943
-0.234673
-0.156638
-0.0915611
-0.0434322
-0.0136444
-0.000742149
-0.000374889
-0.00568542
-0.00832033
0
0.0263259
0.0720172
0.134071
0.210108
0.296425
0.388919
0.483891
0.578944
0.671532
0.782405
1.19935
1.95433
2.89016
3.68923
4.01055
3.66833
2.7337
1.48645
0.254495
-0.727958
-1.22419
-1.50124
-1.58358
-1.45447
-1.1535
-0.769955
-0.415632
-0.176005
-0.0238828
0.098511
0.210747
0.316509
0.416554
0.509416
0.592113
0.662373
0.720553
0.770395
0.818263
0.871212
0.934694
1.00973
1.09323
1.18216
1.27173
1.35534
1.42736
1.48462
1.5271
1.5578
1.58171
1.60397
1.62807
1.65475
1.68189
1.70609
1.72496
1.73921
1.75356
1.77603
1.81609
1.88212
1.97405
2.08901
2.22462
2.37872
2.54622
2.71858
2.88526
3.03466
3.15608
3.2434
3.29467
3.31256
3.30426
3.28066
3.25435
3.23666
3.23697
3.2555
3.27837
3.28459
3.25399
3.17443
3.045
2.87471
2.67834
2.47238
2.27056
2.07851
1.90033
1.74038
1.60233
1.48625
1.38956
1.30826
1.23782
1.1742
1.11438
1.05658
0.999948
0.944251
0.889456
0.835808
0.784005
0.735337
0.691758
0.655702
0.629628
0.616037
0.617608
0.634609
0.661656
0.690507
0.712867
0.722833
0.718594
0.702758
0.681187
0.660805
0.647213
0.642061
0.644388
0.652231
0.663132
0.675378
0.688813
0.704922
0.726114
0.754497
0.79064
0.83273
0.876871
0.917793
0.950139
0.969758
0.974589
0.964904
0.942975
0.91239
0.877368
0.842138
0.810021
0.783973
0.7662
0.757909
0.759676
0.770799
0.787691
0.805796
0.820705
0.829284
0.830399
0.824982
0.815453
0.804721
0.795155
0.787663
0.781948
0.777067
0.771639
0.764262
0.753899
0.740141
0.723342
0.704621
0.685775
0.669125
0.657333
0.653012
0.658391
0.674937
0.703018
0.741682
0.788678
0.840787
0.893578
0.94221
0.982451
1.0114
1.02801
1.03321
1.02975
1.02161
1.01319
1.00842
1.00971
1.01788
1.03207
1.04888
1.06279
1.06766
1.05804
1.03034
0.983495
0.919227
0.841616
0.756356
0.669813
0.587878
0.514649
0.452919
0.404996
0.371997
0.353744
0.349636
0.357057
0.371907
0.389452
0.404824
0.413464
0.411412
0.395081
0.36261
0.313896
0.251128
0.177067
0.101559
0.0380422
0
-0.0213032
-0.00241232
0.0548674
0.143899
0.256041
0.383578
0.519579
0.663158
0.821125
1.03761
1.40458
1.87099
2.44729
3.09608
3.64432
3.80756
3.3367
2.19748
0.646749
-0.867621
-1.90997
-2.07713
-2.11998
-2.10354
-2.03979
-1.93562
-1.78541
-1.58539
-1.35228
-1.08597
-0.802295
-0.545286
-0.360099
-0.280867
-0.320397
-0.461436
-0.654203
-0.82737
-0.914006
-0.883967
-0.791953
-0.680155
-0.568004
-0.473071
-0.407658
-0.376843
-0.378365
-0.404259
-0.443752
-0.486596
-0.526056
-0.56017
-0.590753
-0.62171
-0.65633
-0.694667
-0.732077
-0.759616
-0.766314
-0.742585
-0.684542
-0.599496
-0.493649
-0.375583
-0.256952
-0.150372
-0.0663673
-0.0119543
0.00990238
0
-0.0346537
-0.091778
-0.164862
-0.246965
-0.331071
-0.411453
-0.47736
-0.461775
-0.122169
0.45376
1.04723
1.41724
1.43856
1.16354
0.762224
0.391529
0.096736
-0.168024
-0.401228
-0.605546
-0.784518
-0.938957
-1.07029
-1.17921
-1.26821
-1.34098
-1.40176
-1.45484
-1.50412
-1.55282
-1.60318
-1.65627
-1.71197
-1.76886
-1.82382
-1.87213
-1.90883
-1.92976
-1.93267
-1.91781
-1.88798
-1.84784
-1.80291
-1.75835
-1.71783
-1.68281
-1.65366
-1.63001
-1.61079
-1.59439
-1.57895
-1.56243
-1.54279
-1.51826
-1.4876
-1.45033
-1.40671
-1.35903
-1.31139
-1.26819
-1.23302
-1.20766
-1.19176
-1.18317
-1.17882
-1.17574
-1.172
-1.16702
-1.16107
-1.15495
-1.14964
-1.14611
-1.14523
-1.1478
-1.15476
-1.16723
-1.18652
-1.21378
-1.24948
-1.29326
-1.34347
-1.39128
-1.42259
-1.42214
-1.37811
-1.26965
-1.09876
-0.905586
-0.738231
-0.632911
-0.600151
-0.623267
-0.669033
-0.704415
-0.710753
-0.69671
-0.674776
-0.651463
-0.632589
-0.622098
-0.621446
-0.629601
-0.643431
-0.658244
-0.668979
-0.670332
-0.657614
-0.627431
-0.578374
-0.511419
-0.429883
-0.338858
-0.244249
-0.151687
-0.065136
0.0130901
0.0818501
0.141146
0.191682
0.234399
0.270026
0.298748
0.320216
0.333607
0.33785
0.33199
0.3156
0.289184
0.254461
0.214448
0.173244
0.135681
0.106508
0.0896741
0.0884098
0.103001
0.130801
0.167261
0.206199
0.240014
0.261947
0.267491
0.255196
0.226895
0.187232
0.142516
0.0991673
0.0622296
0.03392
0.013885
0.00174427
-0.00296187
0
0.0110391
0.033139
0.0685811
0.118974
0.183895
0.261565
0.349615
0.444928
0.545665
0.654322
0.97376
1.67859
2.61557
3.5191
4.15322
4.41629
4.32479
3.92477
3.23197
2.26041
1.09403
-0.0775159
-0.920463
-1.39561
-1.59108
-1.51084
-1.23668
-0.866902
-0.483009
-0.15698
0.0660138
0.212758
0.314774
0.387197
0.432146
0.4547
0.462155
0.462718
0.463917
0.470941
0.485373
0.507247
0.533792
0.560583
0.583339
0.599317
0.608154
0.61193
0.614504
0.620414
0.633743
0.656443
0.688535
0.729541
0.778568
0.834091
0.894221
0.956879
1.02006
1.082
1.14136
1.19721
1.24908
1.29684
1.34068
1.38113
1.41907
1.45584
1.49325
1.53347
1.57885
1.6315
1.69295
1.76378
1.84345
1.93049
2.02258
2.11669
2.20951
2.29758
2.37686
2.44152
2.48376
2.49691
2.47408
2.40953
2.30039
2.14817
1.95936
1.74488
1.51839
1.29407
1.08157
0.886819
0.715401
0.571059
0.455712
0.369656
0.31217
0.281651
0.275168
0.288265
0.314861
0.34636
0.371551
0.379684
0.362412
0.315425
0.239588
0.141097
0.0304245
-0.0797431
-0.176977
-0.253809
-0.307466
-0.335457
-0.337995
-0.317744
-0.279406
-0.229135
-0.173801
-0.120158
-0.074023
-0.0388156
-0.0159108
-0.00562954
-0.00661311
-0.015992
-0.0296739
-0.0429172
-0.0509327
-0.0496737
-0.0359508
-0.00585809
0.0383936
0.0872971
0.129802
0.157244
0.166395
0.160261
0.146295
0.132947
0.126332
0.127515
0.134668
0.146794
0.163497
0.18557
0.214712
0.255577
0.311261
0.369887
0.410497
0.410258
0.354278
0.242999
0.0933614
-0.0667544
-0.207964
-0.310469
-0.380256
-0.423366
-0.440124
-0.432265
-0.402426
-0.354361
-0.292487
-0.220845
-0.143999
-0.0673067
0.00404778
0.0655935
0.113993
0.147225
0.164523
0.166191
0.153443
0.128533
0.0944688
0.0552504
0.0159066
-0.0178349
-0.0402095
-0.0462026
-0.0323453
0.00266094
0.0576185
0.128879
0.211614
0.298315
0.380453
0.450288
0.501961
0.532213
0.540625
0.529398
0.502774
0.466205
0.425618
0.385619
0.349072
0.317626
0.290159
0.262686
0.229887
0.186826
0.130729
0.0622866
-0.0139564
-0.0902898
-0.15746
-0.207801
-0.238021
-0.2387
-0.206205
-0.154117
-0.10012
-0.0595918
-0.0402346
-0.0400182
-0.0492755
-0.0557687
-0.0500852
-0.0299006
0
0.0382751
0.0820414
0.13101
0.186367
0.250333
0.325318
0.412775
0.516019
0.650215
0.876597
1.27809
1.8499
2.52886
3.19116
3.66383
3.76278
3.35857
2.45253
1.2156
-0.0584008
-1.05287
-1.42858
-1.62477
-1.61849
-1.46585
-1.22924
-0.947822
-0.659155
-0.418974
-0.244251
-0.119218
-0.0245304
0.0531308
0.120943
0.182689
0.241142
0.297985
0.353453
0.40591
0.451956
0.487904
0.511071
0.521106
0.520661
0.515043
0.51088
0.514261
0.529096
0.555271
0.590112
0.632155
0.680254
0.734219
0.795008
0.864378
0.944138
1.03526
1.13737
1.24906
1.36504
1.47593
1.57154
1.64367
1.68828
1.70699
1.70727
1.70134
1.70393
1.72946
1.78755
1.8904
2.0705
2.33497
2.62431
2.87197
3.02663
3.06272
2.98366
2.81774
2.60746
2.39658
2.21943
2.07848
1.9602
1.8548
1.75676
1.66244
1.56919
1.47522
1.37985
1.28345
1.18704
1.09167
0.997806
0.904819
0.810945
0.713738
0.610805
0.500626
0.383211
0.260412
0.13586
0.0147831
-0.0955031
-0.185413
-0.247167
-0.275415
-0.268116
-0.227493
-0.160316
-0.0771357
0.00959854
0.0881285
0.149841
0.191014
0.212172
0.217093
0.21104
0.199316
0.18679
0.176965
0.173254
0.179065
0.197426
0.230274
0.277792
0.339697
0.409839
0.47999
0.541798
0.58873
0.617313
0.627337
0.621175
0.602739
0.576947
0.548817
0.522461
0.502124
0.492197
0.496883
0.522979
0.5836
0.689168
0.821728
0.950085
1.04225
1.07599
1.04528
0.960566
0.843679
0.720589
0.614965
0.535801
0.481249
0.448744
0.436809
0.444596
0.471428
0.51638
0.578539
0.659026
0.763886
0.906964
1.09513
1.29609
1.46157
1.54229
1.50852
1.36602
1.15822
0.951445
0.807963
0.75296
0.744876
0.755305
0.774909
0.796222
0.814141
0.826377
0.833031
0.835546
0.835487
0.833709
0.829972
0.823201
0.812027
0.795362
0.772839
0.745051
0.713579
0.680915
0.650242
0.624901
0.608338
0.605034
0.625183
0.682399
0.756839
0.812691
0.809993
0.722961
0.55573
0.345833
0.151427
0.0271151
0
0.0451431
0.133653
0.225592
0.290222
0.322711
0.33878
0.328447
0.538404
1.14072
1.9679
2.87109
3.70329
4.31601
4.56138
4.32483
3.58373
2.45189
1.16654
0.0101511
-0.794591
-1.05334
-1.16579
-1.23451
-1.25651
-1.21587
-1.08314
-0.831736
-0.463954
-0.0287736
0.384996
0.683282
0.855022
0.936969
0.942323
0.89316
0.8118
0.714713
0.612927
0.511923
0.417304
0.336923
0.280291
0.256829
0.272965
0.330397
0.436501
0.570092
0.69952
0.795486
0.84028
0.832717
0.787197
0.727612
0.678676
0.65825
0.665491
0.69283
0.735802
0.792863
0.863471
0.948133
1.04825
1.16949
1.32857
1.54033
1.77288
1.97669
2.10373
2.12684
2.0517
1.9161
1.77733
1.69257
1.70039
1.81568
2.05911
2.34987
2.59657
2.72908
2.7173
2.57444
2.34616
2.09042
1.85511
1.65812
1.48516
1.32557
1.1756
1.03466
0.903344
0.782223
0.671447
0.570108
0.474182
0.377442
0.273789
0.159377
0.034367
-0.0964784
-0.224732
-0.340561
-0.43558
-0.50367
-0.545275
-0.566424
-0.575847
-0.581806
-0.589394
-0.599171
-0.607438
-0.60785
-0.593747
-0.557492
-0.487731
-0.393293
-0.304337
-0.256059
-0.275405
-0.369261
-0.51941
-0.687673
-0.830194
-0.91454
-0.947262
-0.951365
-0.932857
-0.897055
-0.847904
-0.788333
-0.718701
-0.638295
-0.545273
-0.440514
-0.330631
-0.22787
-0.146201
-0.0977496
-0.0900286
-0.124268
-0.194984
-0.290754
-0.396118
-0.494265
-0.571124
-0.620745
-0.643934
-0.642861
-0.61794
-0.570901
-0.504914
-0.423667
-0.331686
-0.235787
-0.145969
-0.0721256
-0.0220483
0
-0.00232906
-0.0293161
-0.0758746
-0.137896
-0.214438
-0.306955
-0.434564
-0.650241
-0.928954
-1.19466
-1.35217
-1.33813
-1.15567
-0.871582
-0.580726
-0.361516
-0.241473
-0.16583
-0.110165
-0.0687325
-0.0388994
-0.0187779
-0.00725603
-0.00348911
-0.00644751
-0.0145102
-0.0251355
-0.0348251
-0.0393932
-0.0349936
-0.0188899
0.0115866
0.0529608
0.0979247
0.137847
0.165252
0.175737
0.16858
0.145929
0.111053
0.0665438
0.0143666
-0.0447213
-0.110697
-0.18299
-0.260388
-0.33709
-0.404251
-0.452789
-0.476191
-0.472587
-0.445183
-0.400858
-0.347589
-0.291868
-0.237058
-0.183984
-0.132765
-0.0841965
-0.0414867
-0.0107594
0
-0.0166009
-0.0624751
-0.133558
-0.219304
-0.304959
-0.375234
-0.418992
-0.379328
0.0484693
0.734168
1.44175
2.16248
2.90182
3.57415
3.98253
3.91404
3.28203
2.19515
0.89739
-0.365528
-1.44172
-2.25699
-2.79765
-2.98236
-2.75152
-2.1332
-1.29013
-0.481539
0.0105531
0.0528347
0.0284219
0.010477
0.0288978
0.157332
0.374029
0.600212
0.736694
0.712273
0.519822
0.222422
-0.0731273
-0.264046
-0.299895
-0.270568
-0.219803
-0.157073
-0.088856
-0.017361
0.0596701
0.148633
0.274402
0.475467
0.722916
0.953959
1.10233
1.12927
1.03874
0.872917
0.694909
0.567946
0.531674
0.556979
0.614942
0.691708
0.780511
0.87526
0.971674
1.06779
1.16368
1.26043
1.35881
1.45815
1.55518
1.64413
1.71805
1.77063
1.79761
1.79751
1.77124
1.72121
1.65013
1.56072
1.45647
1.34053
1.21564
1.085
0.952751
0.823514
0.701702
0.590741
0.492409
0.406
0.328265
0.254258
0.178373
0.0955505
0.00237045
-0.10219
-0.216467
-0.336327
-0.455827
-0.568286
-0.667151
-0.746791
-0.803064
-0.833555
-0.837519
-0.81564
-0.765979
-0.681531
-0.552393
-0.387495
-0.221906
-0.0974068
-0.0506934
-0.100085
-0.237817
-0.431928
-0.636366
-0.804231
-0.909994
-0.965141
-0.983504
-0.969299
-0.923482
-0.840668
-0.711351
-0.540929
-0.362957
-0.214438
-0.127072
-0.118854
-0.189624
-0.322455
-0.489599
-0.65953
-0.802914
-0.909873
-0.982859
-1.02121
-1.02263
-0.988129
-0.921935
-0.831096
-0.723012
-0.608058
-0.500397
-0.414113
-0.360671
-0.347944
-0.378974
-0.45079
-0.553865
-0.672856
-0.788937
-0.883392
-0.946324
-0.978381
-0.978932
-0.950202
-0.897627
-0.828775
-0.752109
-0.675804
-0.606698
-0.550043
-0.509156
-0.485381
-0.478217
-0.48564
-0.504577
-0.531442
-0.562606
-0.594646
-0.624414
-0.649066
-0.664899
-0.667489
-0.652666
-0.616959
-0.55869
-0.473897
-0.365067
-0.246841
-0.13719
-0.0528671
-0.00553989
0
-0.0139832
-0.0627642
-0.139098
-0.234328
-0.338965
-0.445656
-0.548037
-0.63927
-0.699114
-0.642357
-0.345333
0.0899292
0.49553
0.717946
0.688113
0.44516
0.104399
-0.206033
-0.402112
-0.496477
-0.545939
-0.570688
-0.573694
-0.551822
-0.488083
-0.348713
-0.145794
0.0703073
0.240156
0.319994
0.300352
0.208393
0.0933602
0.00332823
-0.0345998
-0.0379225
-0.0247492
0
0.0347358
0.0811065
0.144019
0.230558
0.349714
0.576167
1.10389
1.88159
2.61771
3.1422
3.46863
3.68407
3.8379
3.88826
3.72687
3.25975
2.48308
1.50125
0.480509
-0.420909
-1.10032
-1.50763
-1.61491
-1.40365
-0.894589
-0.190821
0.520608
1.00962
1.15892
1.20228
1.22869
1.25109
1.27296
1.29693
1.32481
1.35768
1.39627
1.44106
1.49227
1.5498
1.61307
1.681
1.75187
1.82326
1.89245
1.95715
2.01598
2.06896
2.11749
2.16414
2.21192
2.26355
2.32058
2.38297
2.44949
2.51733
2.58318
2.64414
2.69872
2.74737
2.7927
2.83904
2.89168
2.95568
3.03425
3.12816
3.2361
3.35588
3.4811
3.60398
3.71747
3.81681
3.90028
3.96905
4.02603
4.07432
4.11513
4.14691
4.16574
4.16612
4.14332
4.09549
4.0246
3.93589
3.83595
3.73047
3.62276
3.51363
3.40259
3.28915
3.17381
3.05854
2.94685
2.84315
2.75188
2.67581
2.61743
2.57786
2.55671
2.5526
2.56407
2.58723
2.61241
2.62757
2.62185
2.58866
2.52827
2.44867
2.36396
2.29064
2.24265
2.23571
2.26762
2.31811
2.36133
2.3766
2.35635
2.30791
2.24901
2.19983
2.17527
2.1735
2.18722
2.21181
2.24406
2.28074
2.3188
2.35538
2.38773
2.41354
2.43103
2.43909
2.43743
2.42664
2.40798
2.38313
2.35384
2.32175
2.28839
2.25529
2.22437
2.19819
2.1799
2.17342
2.18681
2.23773
2.33695
2.45185
2.5319
2.52659
2.40751
2.18364
1.90122
1.6269
1.42258
1.3227
1.50736
1.91557
2.35211
2.64923
2.69907
2.48057
2.07364
1.64143
1.37247
1.38875
1.52185
1.67306
1.76388
51
196
290
507
731
834
917
955
1041
1183
1234
1396
1610
1834
2063
2231
2275
2496
2562
2719
2944
3149
3299
3369
3556
3595
3713
0
0
0
0
0
0
0
0
0
0
0
0
0
0
0
0
0
0
0
0
0
0
0
0
0
0
0
0
0
0
0
0
0
0
0
0
0
0
0
0
0
0
0
0
0
0
0
0
0
0
0
0
0
0
0
0
0
0
0
0
0
0
0
0
0
0
0
0
0
0
0
0
0
0
0
0
0
0
0
0
0
0
0
0
0
0
0
0
0
0
0
0
0
0
0
0
0
0
0
0
0
0
0
0
0
0
0
0
0
0
0
0
0
0
0
0
0
0
0
0
0
0
0
0
0
0
0
0
0
0
0
0
0
0
0
0
0
0
0
0
0
0
0
0
0
0
0
0
0
0
0
0
0
0
0
0
0
0
0
0
0
0
0
0
0
0
0
0
0
0
0
0
0
0
0
0
0
0
0
0
0
0
0
0
0
0
0
0
0
0
0
0
0
0
0
0
0
0
0
0
0
0
0
0
0
0
0
0
0
0
0
0
0
0
0
0
0
0
0
0
0
0
0
0
0
0
0
0
0
0
0
0
0
0
0
0
0
0
0
0
0
0
0
0
0
0
0
0
0
0
0
0
0
0
0
0
0
0
0
0
0
0
0
0
0
0
0
0
0
0
0
0
0
0
0
0
0
0
0
0
0
0
0
0
0
0
0
0
0
0
0
0
0
0
0
0
0
0
0
0
0
0
0
0
0
0
0
0
0
0
0
0
0
0
0
0
0
0
0
0
0
0
0
0
0
0
0
0
0
0
0
0
0
0
0
0
0
0
0
0
0
0
0
0
0
0
0
0
0
0
0
0
0
0
0
0
0
0
0
0
0
0
0
0
0
0
0
0
0
0
0
0
0
0
0
0
0
0
0
0
0
0
0
0
0
0
0
0
0
0
0
0
0
0
0
0
0
0
0
0
0
0
0
0
0
0
0
0
0
0
0
0
0
0
0
0
0
0
0
0
0
0
0
0
0
0
0
0
0
0
0
0
0
0
0
0
0
0
0
0
0
0
0
0
0
0
0
0
0
0
0
0
0
0
0
0
0
0
0
0
0
0
0
0
0
0
0
0
0
0
0
0
0
0
0
0
0
0
0
0
0
0
0
0
0
0
0
0
0
0
0
0
0
0
0
0
0
0
0
0
0
0
0
0
0
0
0
0
0
0
0
0
0
0
0
0
0
0
0
0
0
0
0
0
0
0
0
0
0
0
0
0
0
0
0
0
0
0
0
0
0
0
0
0
0
0
0
0
0
0
0
0
0
0
0
0
0
0
0
0
0
0
0
0
0
0
0
0
0
0
0
0
0
0
0
0
0
0
0
0
0
0
0
0
0
0
0
0
0
0
0
0
0
0
0
0
0
0
0
0
0
0
0
0
0
0
0
0
0
0
0
0
0
0
0
0
0
0
0
0
0
0
0
0
0
0
0
0
0
0
0
0
0
0
0
0
0
0
0
0
0
0
0
0
0
0
0
0
0
0
0
0
0
0
0
0
0
0
0
0
0
0
0
0
0
0
0
0
0
0
0
0
0
0
0
0
0
0
0
0
0
0
0
0
0
0
0
0
0
0
0
0
0
0
0
0
0
0
0
0
0
0
0
0
0
0
0
0
0
0
0
0
0
0
0
0
0
0
0
0
0
0
0
0
0
0
0
0
0
0
0
0
0
0
0
0
0
0
0
0
0
0
0
0
0
0
0
0
0
0
0
0
0
0
0
0
0
0
0
0
0
0
0
0
0
0
0
0
0
0
0
0
0
0
0
0
0
0
0
0
0
0
0
0
0
0
0
0
0
0
0
0
0
0
0
0
0
0
0
0
0
0
0
0
0
0
0
0
0
0
0
0
0
0
0
0
0
0
0
0
0
0
0
0
0
0
0
0
0
0
0
0
0
0
0
0
0
0
0
0
0
0
0
0
0
0
0
0
0
0
0
0
0
0
0
0
0
0
0
0
0
0
0
0
0
0
0
0
0
0
0
0
0
0
0
0
0
0
0
0
0
0
0
0
0
0
0
0
0
0
0
0
0
0
0
0
0
0
0
0
0
0
0
0
0
0
0
0
0
0
0
0
0
0
0
0
0
0
0
0
0
0
0
0
0
0
0
0
0
0
0
0
0
0
0
0
0
0
0
0
0
0
0
0
0
0
0
0
0
0
0
0
0
0
0
0
0
0
0
0
0
0
0
0
0
0
0
0
0
0
0
0
0
0
0
0
0
0
0
0
0
0
0
0
0
0
0
0
0
0
0
0
0
0
0
0
0
0
0
0
0
0
0
0
0
0
0
0
0
0
0
0
0
0
0
0
0
0
0
0
0
0
0
0
0
0
0
0
0
0
0
0
0
0
0
0
0
0
0
0
0
0
0
0
0
0
0
0
0
0
0
0
0
0
0
0
0
0
0
0
0
0
0
0
0
0
0
0
0
0
0
0
0
0
0
0
0
0
0
0
0
0
0
0
0
0
0
0
0
0
0
0
0
0
0
0
0
0
0
0
0
0
0
0
0
0
0
0
0
0
0
0
0
0
0
0
0
0
0
0
0
0
0
0
0
0
0
0
0
0
0
0
0
0
0
0
0
0
0
0
0
0
0
0
0
0
0
0
0
0
0
0
0
0
0
0
0
0
0
0
0
0
0
0
0
0
0
0
0
0
0
0
0
0
0
0
0
0
0
0
0
0
0
0
0
0
0
0
0
0
0
0
0
0
0
0
0
0
0
0
0
0
0
0
0
0
0
0
0
0
0
0
0
0
0
0
0
0
0
0
0
0
0
0
0
0
0
0
0
0
0
0
0
0
0
0
0
0
0
0
0
0
0
0
0
0
0
0
0
0
0
0
0
0
0
0
0
0
0
0
0
0
0
0
0
0
0
0
0
0
0
0
0
0
0
0
0
0
0
0
0
0
0
0
0
0
0
0
0
0
0
0
0
0
0
0
0
0
0
0
0
0
0
0
0
0
0
0
0
0
0
0
0
0
0
0
0
0
0
0
0
0
0
0
0
0
0
0
0
0
0
0
0
0
0
0
0
0
0
0
0
0
0
0
0
0
0
0
0
0
0
0
0
0
0
0
0
0
0
0
0
0
0
0
0
0
0
0
0
0
0
0
0
0
0
0
0
0
0
0
0
0
0
0
0
0
0
0
0
0
0
0
0
0
0
0
0
0
0
0
0
0
0
0
0
0
0
0
0
0
0
0
0
0
0
0
0
0
0
0
0
0
0
0
0
0
0
0
0
0
0
0
0
0
0
0
0
0
0
0
0
0
0
0
0
0
0
0
0
0
0
0
0
0
0
0
0
0
0
0
0
0
0
0
0
0
0
0
0
0
0
0
0
0
0
0
0
0
0
0
0
0
0
0
0
0
0
0
0
0
0
0
0
0
0
0
0
0
0
0
0
0
0
0
0
0
0
0
0
0
0
0
0
0
0
0
0
0
0
0
0
0
0
0
0
0
0
0
0
0
0
0
0
0
0
0
0
0
0
0
0
0
0
0
0
0
0
0
0
0
0
0
0
0
0
0
0
0
0
0
0
0
0
0
0
0
0
0
0
0
0
0
0
0
0
0
0
0
0
0
0
0
0
0
0
0
0
0
0
0
0
0
0
0
0
0
0
0
0
0
0
0
0
0
0
0
0
0
0
0
0
0
0
0
0
0
0
0
0
0
0
0
0
0
0
0
0
0
0
0
0
0
0
0
0
0
0
0
0
0
0
0
0
0
0
0
0
0
0
0
0
0
0
0
0
0
0
0
0
0
0
0
0
0
0
0
0
0
0
0
0
0
0
0
0
0
0
0
0
0
0
0
0
0
0
0
0
0
0
0
0
0
0
0
0
0
0
0
0
0
0
0
0
0
0
0
0
0
0
0
0
0
0
0
0
0
0
0
0
0
0
0
0
0
0
0
0
0
0
0
0
0
0
0
0
0
0
0
0
0
0
0
0
0
0
0
0
0
0
0
0
0
0
0
0
0
0
0
0
0
0
0
0
0
0
0
0
0
0
0
0
0
0
0
0
0
0
0
0
0
0
0
0
0
0
0
0
0
0
0
0
0
0
0
0
0
0
0
0
0
0
0
0
0
0
0
0
0
0
0
0
0
0
0
0
0
0
0
0
0
0
0
0
0
0
0
0
0
0
0
0
0
0
0
0
0
0
0
0
0
0
0
0
0
0
0
0
0
0
0
0
0
0
0
0
0
0
0
0
0
0
0
0
0
0
0
0
0
0
0
0
0
0
0
0
0
0
0
0
0
0
0
0
0
0
0
0
0
0
0
0
0
0
0
0
0
0
0
0
0
0
0
0
0
0
0
0
0
0
0
0
0
0
0
0
0
0
0
0
0
0
0
0
0
0
0
0
0
0
0
0
0
0
0
0
0
0
0
0
0
0
0
0
0
0
0
0
0
0
0
0
0
0
0
0
0
0
0
0
0
0
0
0
0
0
0
0
0
0
0
0
0
0
0
0
0
0
0
0
0
0
0
0
0
0
0
0
0
0
0
0
0
0
0
0
0
0
0
0
0
0
0
0
0
0
0
0
0
0
0
0
0
0
0
0
0
0
0
0
0
0
0
0
0
0
0
0
0
0
0
0
0
0
0
0
0
0
0
0
0
0
0
0
0
0
0
0
0
0
0
0
0
0
0
0
0
0
0
0
0
0
0
0
0
0
0
0
0
0
0
0
0
0
0
0
0
0
0
0
0
0
0
0
0
0
0
0
0
0
0
0
0
0
0
0
0
0
0
0
0
0
0
0
0
0
0
0
0
0
0
0
0
0
0
0
0
0
0
0
0
0
0
0
0
0
0
0
0
0
0
0
0
0
0
0
0
0
0
0
0
0
0
0
0
0
0
0
0
0
0
0
0
0
0
0
0
0
0
0
0
0
0
0
0
0
0
0
0
0
0
0
0
0
0
0
0
0
0
0
0
0
0
0
0
0
0
0
0
0
0
0
0
0
0
0
0
0
0
0
0
0
0
0
0
0
0
0
0
0
0
0
0
0
0
0
0
0
0
0
0
0
0
0
0
0
0
0
0
0
0
0
0
0
0
0
0
0
0
0
0
0
0
0
0
0
0
0
0
0
0
0
0
0
0
0
0
0
0
0
0
0
0
0
0
0
0
0
0
0
0
0
0
0
0
0
0
0
0
0
0
0
0
0
0
0
0
0
0
0
0
0
0
0
0
0
0
0
0
0
0
0
0
0
0
0
0
0
0
0
0
0
0
0
0
0
0
0
0
0
0
0
0
0
0
0
0
0
0
0
0
0
0
0
0
0
0
0
0
0
0
0
0
0
0
0
0
0
0
0
0
0
0
0
0
0
0
0
0
0
0
0
0
0
0
0
0
0
0
0
0
0
0
0
0
0
0
0
0
0
0
0
0
0
0
0
0
0
0
0
0
0
0
0
0
0
0
0
0
0
0
0
0
0
0
0
0
0
0
0
0
0
0
0
0
0
0
0
0
0
0
0
0
0
0
0
0
0
0
0
0
0
0
0
0
0
0
0
0
0
0
0
0
0
0
0
0
0
0
0
0
0
0
0
0
0
0
0
0
0
0
0
0
0
0
0
0
0
0
0
0
0
0
0
0
0
0
0
0
0
0
0
0
0
0
0
0
0
0
0
0
0
0
0
0
0
0
0
0
0
0
0
0
0
0
0
0
0
0
0
0
0
0
0
0
0
0
0
0
0
0
0
0
0
0
0
0
0
0
0
0
0
0
0
0
0
0
0
0
0
0
0
0
0
0
0
0
0
0
0
0
0
0
0
0
0
0
0
0
0
0
0
0
0
0
0
0
0
0
0
0
0
0
0
0
0
0
0
0
0
0
0
0
0
0
0
0
0
0
0
0
0
0
0
0
0
0
0
0
0
0
0
0
0
0
0
0
0
0
0
0
0
0
0
0
0
0
0
0
0
0
0
0
0
0
0
0
0
0
0
0
0
0
0
0
0
0
0
0
0
0
0
0
0
0
0
0
0
0
0
0
0
0
0
0
0
0
0
0
0
0
0
0
0
0
0
0
0
0
0
0
0
0
0
0
0
0
0
0
0
0
0
0
0
0
0
0
0
0
0
0
0
0
0
0
0
0
0
0
0
0
0
0
0
0
0
0
0
0
0
0
0
0
0
0
0
0
0
0
0
0
0
0
0
0
0
0
0
0
0
0
0
0
0
0
0
0
0
0
0
0
0
0
0
0
0
0
0
0
0
0
0
0
0
0
0
0
0
0
0
0
0
0
0
0
0
0
0
0
0
0
0
0
0
0
0
0
0
0
0
0
0
0
0
0
0
0
0
0
0
0
0
0
0
0
0
0
0
0
0
0
0
0
0
0
0
0
0
0
0
0
0
0
0
0
0
0
0
0
0
0
0
0
0
0
0
0
0
0
0
0
0
0
0
0
0
0
0
0
0
0
0
0
0
0
0
0
0
0
0
0
0
0
0
0
0
0
0
0
0
0
0
0
0
0
0
0
0
0
0
0
0
0
0
0
0
0
0
0
0
0
0
0
0
0
0
0
0
0
0
0
0
0
0
0
0
0
0
0
0
0
0
0
0
0
0
0
0
0
0
0
0
0
0
0
0
0
0
0
0
0
0
0
0
0
0
0
0
0
0
0
0
0
0
0
0
0
0
0
0
0
0
0
0
0
0
0
0
0
0
0
0
0
0
0
0
0
0
0
0
0
0
0
0
0
0
0
0
0
0
0
0
0
0
0
0
0
0
0
0
0
0
0
0
0
0
0
0
0
0
0
0
0
0
0
0
0
0
0
0
0
0
0
0
0
0
0
0
0
0
0
0
0
0
0
0
0
0
0
0
0
0
0
0
0
0
0
0
0
0
0
0
0
0
0
0
0
0
0
0
0
0
0
0
0
0
0
0
0
0
0
0
0
0
0
0
0
0
0
0
0
0
0
0
0
0
0
0
0
0
0
0
0
0
0
0
0
0
0
0
0
0
0
0
0
0
0
0
0
0
0
0
0
0
0
0
0
0
0
0
0
0
0
0
0
0
0
0
0
0
0
0
0
0
0
0
0
0
0
0
0
0
0
0
0
0
0
0
0
0
0
0
0
0
0
0
0
0
0
0
0
0
0
0
0
0
0
0
0
0
0
0
0
0
0
0
0
0
0
0
0
0
0
0
0
0
0
0
0
0
0
0
0
0
0
0
0
0
0
0
0
0
0
0
0
0
0
0
0
0
0
0
0
0
0
0
0
0
0
0
0
0
0
0
0
0
0
0
0
0
0
0
0
0
0
0
0
0
0
0
0
0
0
0
0
0
0
0
0
0
0
0
0
0
0
0
0
0
0
0
0
0
0
0
0
0
0
0
0
0
0
0
0
0
0
0
0
0
0
0
0
0
0
0
0
0
0
0
0
0
0
0
0
0
0
0
0
0
0
0
0
0
0
0
0
0
0
0
0
0
0
0
0
0
0
0
0
0
0
0
0
0
0
0
0
0
0
0
0
0
0
0
0
0
0
0
0
0
0
0
0
0
0
0
0
0
0
0
0
0
0
0
0
0
0
0
0
0
0
0
0
0
0
0
0
0
0
0
0
0
0
0
0
0
0
0
0
0
0
0
0
0
0
0
0
0
0
0
0
0
0
0
0
0
0
0
0
0
0
0
0
0
0
0
0
0
0
0
0
0
0
0
0
0
0
0
0
0
0
0
0
0
0
0
0
0
0
0
0
0
0
0
0
0
0
0
0
0
0
0
0
0
0
0
0
0
0
0
0
0
0
0
0
0
0
0
0
0
0
0
0
0
0
0
0
0
0
0
0
0
0
0
0
0
0
0
0
0
0
0
0
0
0
0
0
0
0
0
0
0
0
0
0
0
0
0
0
0
0
0
0
0
0
0
0
0
0
0
0
0
0
0
0
0
0
0
0
0
0
0
0
0
0
0
0
0
0
0
0
0
0
0
0
0
0
0
0
0
0
0
0
0
0
0
0
0
0
0
0
0
0
0
0
0
0
0
0
0
0
0
0
0
0
0
0
0
0
0
0
0
0
0
0
0
0
0
0
0
0
0
0
0
0
0
0
0
0
0
0
0
0
0
0
0
0
0
0
0
0
0
0
0
0
0
0
0
0
0
0
0
0
0
0
0
0
0
0
0
0
0
0
0
0
0
0
0
0
0
0
0
0
0
0
0
0
0
0
0
0
0
0
0
0
0
0
0
0
0
0
0
0
0
0
0
0
0
0
0
0
0
0
0
0
0
0
0
0
0
0
0
0
0
0
0
0
0
0
0
0
0
0
0
0
0
0
0
0
0
0
0
0
0
0
0
0
0
0
0
0
0
0
0
0
0
0
0
0
0
0
0
0
0
0
0
0
0
0
0
0
0
0
0
0
0
0
0
0
0
0
0
0
0
0
0
0
0
0
0
0
0
0
0
0
0
0
0
0
