0.552842
0.461659
0.385498
0.322049
0.269486
0.227043
0.195513
0.177408
0.175881
0.194403
0.235928
0.301981
0.392004
0.50314
0.630546
0.768164
0.909772
1.05013
1.18603
1.31562
1.43836
1.55476
1.66594
1.77323
1.87792
1.98131
2.08466
2.18935
2.29676
2.40806
2.52384
2.64361
2.76564
2.8863
3.00046
3.10239
3.18653
3.2481
3.28332
3.28937
3.26417
3.2063
3.11545
2.99213
2.83834
2.65774
2.45562
2.2385
2.01413
1.78977
1.57213
1.3687
1.18817
1.03616
0.916267
0.829585
0.774473
0.746921
0.741479
0.75248
0.775158
0.805931
0.842702
0.884969
0.931174
0.977152
1.01771
1.04851
1.06798
1.07802
1.0829
1.08672
1.09108
1.09393
1.09057
1.07616
1.04832
1.00853
0.961621
0.913761
0.870268
0.833292
0.802276
0.777431
0.758994
0.747321
0.742771
0.745344
0.754284
0.767913
0.783379
0.797285
0.806342
0.808013
0.800972
0.785295
0.762442
0.735113
0.70707
0.682544
0.666146
0.662498
0.679467
0.736304
0.848855
0.991635
1.12525
1.21113
1.22675
1.17426
1.0794
0.981377
0.917695
0.906977
0.938436
0.98836
1.0215
1.00437
0.919175
0.772217
0.592337
0.419396
0.288025
0.203721
0.145918
0.107356
0.0823774
0.0647413
0.0484943
0.0284018
0
-0.0320644
-0.0794462
-0.156203
-0.294966
-0.490515
-0.71809
-0.952374
-1.18224
-0.633301
0.704929
2.92315
5.92505
9.37596
12.7074
15.2128
16.25
15.4938
13.1124
9.74842
6.27606
3.44889
1.62947
0.737026
0.414094
0.231909
0.0551601
-0.112054
-0.264684
-0.398416
-0.509571
-0.595296
-0.653652
-0.683595
-0.684679
-0.65755
-0.603824
-0.526308
-0.429184
-0.317991
-0.199265
-0.079792
0.0343805
0.139446
0.233565
0.317433
0.394123
0.468551
0.546701
0.634747
0.737841
0.859859
1.00327
1.16872
1.35465
1.55738
1.77123
1.98913
2.2033
2.40619
2.59141
2.75437
2.89263
3.00574
3.09461
3.16109
3.20754
3.23602
3.2479
3.2438
3.22364
3.18689
3.13286
3.06097
2.97098
2.86341
2.73955
2.60149
2.45224
2.29577
2.13696
1.98132
1.83461
1.70217
1.5885
1.49791
1.43482
1.39979
1.38437
1.37785
1.37005
1.35393
1.32712
1.29194
1.25402
1.21989
1.19471
1.17897
1.17102
1.16945
1.17228
1.17768
1.18445
1.1921
1.20083
1.21109
1.22325
1.2373
1.25281
1.26894
1.28457
1.29838
1.30889
1.31432
1.31272
1.30246
1.2825
1.25294
1.21544
1.17319
1.13131
1.09568
1.0718
1.06369
1.07319
1.09971
1.14048
1.19116
1.24647
1.30121
1.35022
1.38961
1.41724
1.43302
1.43889
1.43847
1.43617
1.43612
1.44105
1.45125
1.46519
1.47953
1.48993
1.49191
1.48181
1.4574
1.4182
1.36546
1.30168
1.23012
1.15386
1.07523
0.995514
0.914891
0.83278
0.748149
0.659865
0.566871
0.468002
0.362521
0.254086
0.152471
0.0696813
0.0166897
0
0.0248368
0.0784949
0.148207
0.434681
1.22479
2.88493
5.56922
9.04534
12.6764
15.5919
16.9935
16.4758
14.2114
10.892
7.435
4.60285
2.73823
1.7458
1.28904
1.07815
0.907619
0.742728
0.586816
0.444622
0.321801
0.223115
0.152888
0.114851
0.111397
0.142822
0.206775
0.298152
0.409602
0.532722
0.659499
0.78477
0.90665
1.02568
1.14345
1.26235
1.3849
1.51317
1.64836
1.79088
1.94091
2.09851
2.2638
2.43699
2.61825
2.8076
3.00466
3.20873
3.41914
3.63487
3.85209
4.0594
4.24047
4.37626
4.44993
4.45363
4.39381
4.29103
4.1728
4.06179
3.96559
3.87373
3.77803
3.67407
3.55797
3.42788
3.28411
3.12897
2.96627
2.8011
2.63833
2.48294
2.33977
2.21311
2.10637
2.0219
1.96018
1.91975
1.89761
1.88942
1.88958
1.89237
1.89316
1.88908
1.87936
1.86531
1.85002
1.83775
1.83311
1.83987
1.85985
1.89347
1.94071
2.00074
2.0692
2.13806
2.19897
2.24495
2.27173
2.27841
2.26721
2.24246
2.20918
2.17174
2.13315
2.09466
2.05672
2.01958
1.98377
1.95038
1.92115
1.89815
1.88343
1.87841
1.88429
1.90042
1.92416
1.95174
1.97904
2.00228
2.01864
2.02669
2.0266
2.02018
2.01082
2.00276
2.00071
2.00916
2.03155
2.07055
2.12654
2.19687
2.27723
2.36134
2.43846
2.49593
2.52181
2.50604
2.44293
2.3338
2.18806
2.02146
1.85186
1.69451
1.55354
1.42673
1.31431
1.21695
1.13475
1.06764
1.01551
0.974937
0.938912
0.898272
0.83684
0.679714
0.395321
0.0410381
-0.3097
-0.628731
0
1.54722
4.04212
7.29648
10.8527
14.0195
16.0374
16.3555
14.8875
12.0857
8.75753
5.71189
3.44037
2.00942
1.1871
0.694768
0.485965
0.282765
0.0892027
-0.0908336
-0.253668
-0.395922
-0.514677
-0.607418
-0.670818
-0.700321
-0.691781
-0.646123
-0.575948
-0.501955
-0.443342
-0.413164
-0.414935
-0.441412
-0.476131
-0.497621
-0.485178
-0.427978
-0.33258
-0.209083
-0.063647
0.0997233
0.276848
0.463286
0.654549
0.846165
1.03294
1.20798
1.36519
1.49927
1.60634
1.68453
1.73431
1.75828
1.76054
1.74578
1.71836
1.68239
1.63981
1.59037
1.53168
1.46043
1.37277
1.26541
1.13671
0.987578
0.821788
0.645636
0.466963
0.293586
0.131281
-0.0155506
-0.144748
-0.256438
-0.352695
-0.436883
-0.512855
-0.584104
-0.653045
-0.720513
-0.785314
-0.844387
-0.893618
-0.928943
-0.947463
-0.948148
-0.931956
-0.90145
-0.860155
-0.811977
-0.760848
-0.710909
-0.666801
-0.632993
-0.613205
-0.609606
-0.622146
-0.648387
-0.683955
-0.723424
-0.761344
-0.793967
-0.819193
-0.835436
-0.841649
-0.837392
-0.822911
-0.799829
-0.771429
-0.741891
-0.715489
-0.695877
-0.685455
-0.684947
-0.693302
-0.707891
-0.724961
-0.740217
-0.749525
-0.749426
-0.737505
-0.712228
-0.672348
-0.61748
-0.548365
-0.467002
-0.376114
-0.279844
-0.1838
-0.0935213
-0.0131374
0.0555222
0.113265
0.163159
0.209462
0.256182
0.306337
0.354034
0.384062
0.377463
0.319623
0.207653
0.0536932
-0.117607
-0.276581
-0.397948
-0.483336
-0.540489
-0.571119
-0.579658
-0.572238
-0.55578
-0.537333
-0.524057
-0.522805
-0.53984
-0.582042
-0.683165
-0.876024
-1.14049
-1.44667
-1.76928
-1.34788
0
2.41389
5.75897
9.56085
13.0757
15.4875
16.1895
15.0295
12.3893
9.03164
5.77883
3.19704
1.45541
0.405219
-0.214242
-0.403536
-0.578723
-0.73629
-0.86876
-0.9719
-1.04418
-1.0867
-1.10281
-1.09749
-1.0765
-1.04555
-1.00951
-0.971948
-0.934725
-0.898355
-0.86252
-0.826277
-0.788248
-0.746793
-0.700153
-0.646599
-0.584569
-0.512799
-0.430439
-0.337124
-0.233002
-0.118722
0.00460491
0.135451
0.271902
0.411676
0.552126
0.690276
0.822763
0.945628
1.05544
1.14936
1.22535
1.28229
1.31979
1.3378
1.33613
1.31357
1.26933
1.20279
1.11422
1.00555
0.880735
0.745539
0.606757
0.471054
0.343163
0.22576
0.119851
0.024519
-0.062711
-0.145331
-0.227237
-0.312116
-0.402806
-0.500722
-0.606781
-0.718825
-0.82792
-0.922956
-0.993818
-1.03439
-1.04414
-1.02775
-0.992929
-0.947656
-0.898154
-0.848023
-0.798764
-0.751704
-0.708785
-0.673127
-0.648901
-0.640466
-0.651219
-0.682287
-0.731554
-0.793371
-0.85918
-0.919052
-0.963838
-0.988114
-0.99208
-0.977475
-0.948771
-0.911731
-0.871795
-0.832759
-0.796382
-0.762785
-0.731141
-0.700512
-0.670512
-0.641585
-0.614918
-0.592157
-0.575434
-0.566401
-0.565489
-0.57176
-0.582735
-0.594511
-0.602251
-0.60102
-0.586792
-0.557325
-0.513717
-0.458796
-0.395222
-0.32596
-0.25364
-0.179912
-0.105367
-0.0296661
0.0482704
0.129758
0.213851
0.29294
0.353602
0.3805
0.361434
0.292207
0.179613
0.0413176
-0.0978748
-0.212715
-0.290044
-0.330205
-0.329043
-0.303609
-0.276855
-0.269629
-0.293927
-0.35003
-0.428492
-0.515763
-0.600565
-0.678573
-0.752125
-0.82379
-0.894995
-0.966483
-1.03814
-0.875237
0
1.82234
4.6322
8.15786
11.8222
14.8447
16.4603
16.1984
14.1041
10.7656
7.09892
3.97618
1.88996
0.83384
0.445793
0.300378
0.216207
0.133909
0.0542101
-0.0231633
-0.099239
-0.174983
-0.250263
-0.32257
-0.385935
-0.431719
-0.450255
-0.433191
-0.375617
-0.27729
-0.142675
0.0200968
0.200913
0.388431
0.575088
0.755873
0.927571
1.08898
1.2409
1.38582
1.52747
1.67015
1.818
1.9743
2.14108
2.31883
2.50671
2.70287
2.905
3.11092
3.31901
3.52877
3.7422
3.97621
4.28776
4.64878
4.97484
5.16568
5.15
4.92113
4.54499
4.13486
3.80462
3.61653
3.47451
3.33882
3.20367
3.06847
2.93413
2.8027
2.67692
2.5596
2.45299
2.35831
2.27552
2.20342
2.13993
2.08253
2.02872
1.97641
1.92426
1.8719
1.82001
1.7704
1.72581
1.6894
1.66421
1.65249
1.65511
1.67216
1.70266
1.74118
1.77858
1.80623
1.81844
1.81432
1.79836
1.77948
1.76868
1.77592
1.8066
1.85735
1.92204
1.99536
2.07119
2.14294
2.20492
2.25322
2.28613
2.30399
2.30875
2.30323
2.29035
2.27261
2.2519
2.22943
2.20619
2.18337
2.16255
2.14577
2.13512
2.13269
2.14087
2.15939
2.18164
2.19803
2.19928
2.17971
2.13941
2.0846
2.02574
1.97438
1.93969
1.92228
1.91821
1.92545
1.93918
1.95189
1.95548
1.94304
1.90996
1.85476
1.7792
1.68783
1.5868
1.48246
1.3798
1.28109
1.18663
1.096
1.00827
0.922274
0.836921
0.751378
0.665286
0.578648
0.49145
0.403213
0.312317
0.215656
0.111442
0
-0.105904
0.099617
1.00023
2.84505
5.64542
9.10895
12.6746
15.6284
17.2825
17.1871
15.3163
12.131
8.44548
5.12218
2.74261
1.42941
0.90914
0.752541
0.67296
0.599402
0.536167
0.486239
0.45108
0.430798
0.424597
0.431314
0.449835
0.479123
0.518467
0.567142
0.624282
0.688923
0.760234
0.837851
0.921993
1.01368
1.11443
1.22578
1.3488
1.48362
1.62926
1.78412
1.94618
2.11337
2.28385
2.45617
2.62915
2.80164
2.97222
3.13896
3.29935
3.45023
3.58831
3.71048
3.81409
3.89702
3.95769
3.9949
4.00766
3.99514
3.95678
3.89265
3.80361
3.69168
3.56008
3.41309
3.25549
3.09209
2.92701
2.76327
2.60272
2.44613
2.29349
2.14441
1.99853
1.85594
1.71741
1.58448
1.4594
1.34483
1.24366
1.15842
1.09094
1.04223
1.01237
1.00047
1.00589
1.02943
1.06768
1.10904
1.14097
1.15368
1.14382
1.1163
1.08293
1.05788
1.0519
1.06608
1.09589
1.13173
1.1629
1.18166
1.1856
1.17773
1.16443
1.1525
1.14586
1.14425
1.14593
1.1486
1.14913
1.14438
1.1319
1.11055
1.08088
1.04515
1.00693
0.970468
0.939837
0.917955
0.906922
0.907184
0.917609
0.936403
0.961887
0.993114
1.03014
1.07382
1.12525
1.18556
1.25593
1.33308
1.40938
1.47597
1.52532
1.55354
1.56133
1.55346
1.53676
1.51762
1.49961
1.48267
1.4649
1.44358
1.41578
1.37917
1.33266
1.27674
1.21339
1.14567
1.07709
1.01081
0.949071
0.893117
0.842915
0.797168
0.753452
0.708491
0.658144
0.595281
0.503397
0.363854
0.182909
-0.025671
-0.24681
0
0.950311
2.79519
5.53275
8.8699
12.222
14.8389
16.0452
15.5013
13.3613
10.2284
6.9149
4.12669
2.23484
1.23434
0.874014
0.794466
0.704187
0.610913
0.51598
0.421903
0.332054
0.250097
0.179618
0.123584
0.0830805
0.0563147
0.0397785
0.0299549
0.0248074
0.0248455
0.033359
0.0556608
0.0974892
0.163005
0.255698
0.379041
0.517757
0.651867
0.763232
0.841416
0.886615
0.908745
0.923498
0.947172
0.990587
1.05341
1.13337
1.22882
1.33752
1.45642
1.58215
1.71116
1.83922
1.96089
2.06966
2.15862
2.22118
2.25125
2.24419
2.19781
2.11314
1.99472
1.84999
1.68804
1.518
1.34697
1.17854
1.0141
0.854439
0.699892
0.550857
0.408186
0.273371
0.148475
0.0358416
-0.0623486
-0.14455
-0.210167
-0.259472
-0.293561
-0.315131
-0.327929
-0.335381
-0.339915
-0.342594
-0.343173
-0.340579
-0.33362
-0.321664
-0.305259
-0.286211
-0.267303
-0.251847
-0.242901
-0.24265
-0.251983
-0.270336
-0.29579
-0.32538
-0.35555
-0.38266
-0.403611
-0.416649
-0.421127
-0.416731
-0.403786
-0.384211
-0.361589
-0.340117
-0.323991
-0.316749
-0.320698
-0.336528
-0.36316
-0.39783
-0.436395
-0.473899
-0.505434
-0.526433
-0.532881
-0.521723
-0.491068
-0.440331
-0.370326
-0.283351
-0.183581
-0.0741474
0.037627
0.143173
0.23529
0.309753
0.366113
0.407306
0.438162
0.463438
0.486182
0.507261
0.525763
0.539791
0.547153
0.545804
0.534098
0.510922
0.475858
0.429667
0.373641
0.310065
0.242088
0.173385
0.10768
0.0478964
-0.00400772
-0.0466478
-0.0795832
-0.103416
-0.119873
-0.131756
-0.143294
-0.160402
-0.19005
-0.249578
-0.40236
-0.655144
-0.990964
-1.37317
-1.20876
0
2.41788
5.86022
9.81423
13.5575
16.3212
17.4822
16.7577
14.3379
10.8642
7.21572
4.1756
2.14598
1.06818
0.582223
0.338571
0.218633
0.107548
0.00894051
-0.0749277
-0.143591
-0.197854
-0.239246
-0.269399
-0.289566
-0.300401
-0.302014
-0.294205
-0.276996
-0.250578
-0.214922
-0.169948
-0.115439
-0.0509794
0.0241461
0.110832
0.210062
0.32283
0.450127
0.592974
0.752436
0.929556
1.12513
1.33935
1.57143
1.82398
2.09649
2.3749
2.63612
2.85554
3.01608
3.10982
3.13701
3.10438
3.02434
2.91434
2.7948
2.68458
2.59547
2.52486
2.46321
2.404
2.34232
2.27357
2.19392
2.10048
1.99123
1.86542
1.72364
1.56661
1.3957
1.21347
1.02384
0.831784
0.644715
0.471009
0.318376
0.19272
0.0973042
0.0324778
-0.00402584
-0.0163851
-0.00983677
0.0100929
0.0375109
0.0679035
0.0979446
0.125087
0.147603
0.164565
0.175705
0.181196
0.181388
0.176604
0.167074
0.153006
0.134778
0.113123
0.0892395
0.0647553
0.0415594
0.0215794
0.0064827
-0.00248871
-0.00437431
0.00128841
0.0143637
0.0347086
0.0611353
0.0901964
0.11739
0.138583
0.151238
0.155277
0.153166
0.149108
0.147632
0.15215
0.163412
0.180178
0.201176
0.225239
0.251774
0.281161
0.314767
0.354606
0.402748
0.460666
0.52852
0.605335
0.689232
0.777617
0.867453
0.955471
1.03805
1.11114
1.17069
1.21313
1.23501
1.23332
1.20596
1.15232
1.07376
0.973875
0.858473
0.73514
0.612098
0.496514
0.393637
0.307409
0.24009
0.191544
0.159553
0.140464
0.129239
0.118771
0.100618
0.0670273
0.0120804
-0.0673044
-0.170766
-0.294559
-0.432348
-0.601478
0
1.69046
4.59693
8.44232
12.5423
15.9768
17.8881
17.7919
15.7686
12.4405
8.72818
5.49153
3.22862
1.97192
1.41152
1.14037
0.937176
0.741999
0.561569
0.401129
0.264044
0.151768
0.0641689
6.73294e-005
-0.0413839
-0.0610373
-0.0604198
-0.0410402
-0.00483494
0.0456261
0.107675
0.175751
0.244249
0.30891
0.368078
0.423352
0.479391
0.542934
0.621335
0.720063
0.840438
0.982567
1.14539
1.32585
1.51919
1.71962
1.9211
2.11812
2.30644
2.48346
2.64821
2.80086
2.9422
3.07268
3.19219
3.30001
3.39461
3.47391
3.53548
3.57592
3.59251
3.58304
3.5457
3.47933
3.38374
3.26002
3.11072
2.93987
2.75278
2.55626
2.35696
2.16102
1.97429
1.80198
1.64822
1.51575
1.40581
1.31812
1.25108
1.20214
1.16825
1.1463
1.13338
1.12702
1.12523
1.12645
1.12947
1.13343
1.13773
1.14222
1.14719
1.15339
1.16192
1.17397
1.19042
1.2116
1.23713
1.26538
1.29382
1.31977
1.34106
1.35654
1.36621
1.37097
1.3721
1.37062
1.36688
1.36047
1.35058
1.33654
1.31853
1.29793
1.27739
1.26037
1.25036
1.2499
1.26083
1.28298
1.31316
1.34564
1.37367
1.39132
1.39492
1.38402
1.36165
1.33371
1.30763
1.29029
1.29021
1.30842
1.32943
1.33018
1.28945
1.19711
1.05906
0.895775
0.735578
0.628192
0.741328
1.07546
1.46458
1.75861
1.85217
1.70955
1.37299
0.941992
0.532054
0.243827
0.0771618
-0.0332621
-0.115478
-0.16029
-0.127883
0.0211676
0.234559
0.438737
0.562608
0.561234
0.426326
0.179153
-0.145126
-0.50938
-0.881332
-1.24822
-1.60916
-1.24521
0
2.27166
5.45462
9.12622
12.617
15.1575
16.1082
15.2093
12.7256
9.3736
6.03454
3.39886
1.74346
0.944005
0.667814
0.514958
0.353668
0.192777
0.0408474
-0.0897392
-0.185825
-0.237844
-0.243548
-0.209267
-0.147942
-0.0746433
-0.00152874
0.0663795
0.130598
0.193589
0.257598
0.324675
0.396218
0.472703
0.553827
0.63878
0.726669
0.816954
0.909786
1.00614
1.10771
1.21656
1.33469
1.46343
1.60309
1.75265
1.90977
2.07101
2.23222
2.38902
2.53709
2.67155
2.78676
2.87962
2.9483
2.99212
3.01158
3.00827
2.98455
2.94313
2.88655
2.81688
2.73674
2.64782
2.55089
2.44642
2.33478
2.21618
2.09063
1.9581
1.81869
1.67302
1.52251
1.36957
1.21751
1.07021
0.931717
0.805499
0.694192
0.599929
0.524612
0.468502
0.431406
0.412704
0.411191
0.424811
0.450468
0.484304
0.521554
0.556247
0.582981
0.597921
0.599535
0.588923
0.569643
0.547062
0.527346
0.516306
0.517213
0.530784
0.557227
0.596468
0.645138
0.695474
0.7388
0.767967
0.77916
0.772816
0.753263
0.727159
0.701263
0.680374
0.66547
0.654999
0.647405
0.641022
0.634796
0.628653
0.623451
0.620601
0.621541
0.626996
0.637049
0.651462
0.669716
0.691148
0.715138
0.741222
0.769069
0.798363
0.828571
0.858589
0.886359
0.908871
0.922748
0.924816
0.912842
0.886085
0.845482
0.793394
0.732999
0.667586
0.600056
0.532495
0.46619
0.402117
0.341174
0.284217
0.231991
0.184996
0.143249
0.106081
0.0721453
0.0395239
0.00594926
-0.0309134
-0.073177
-0.122503
-0.180986
-0.249197
-0.326042
-0.409366
-0.498888
0
1.42397
3.91095
7.27506
11.0012
14.352
16.5545
17.0378
15.6524
12.7658
9.15364
5.70766
3.09955
1.57532
0.966546
0.877374
0.760012
0.646129
0.539138
0.442445
0.359106
0.291436
0.241449
0.210002
0.195536
0.194241
0.201978
0.215457
0.233172
0.255809
0.28601
0.327631
0.38474
0.460238
0.554547
0.66677
0.795523
0.938607
1.09283
1.25421
1.41843
1.58052
1.73589
1.88137
2.01583
2.14045
2.25849
2.37441
2.49282
2.61733
2.74943
2.88865
3.03342
3.18003
3.32095
3.44491
3.54128
3.60048
3.61563
3.58405
3.50809
3.39454
3.25278
3.09225
2.92144
2.74617
2.56905
2.39125
2.21364
2.03719
1.86327
1.69377
1.5311
1.3781
1.23771
1.11257
1.00473
0.91528
0.84374
0.788369
0.746447
0.714716
0.689849
0.668876
0.649467
0.630075
0.609936
0.588985
0.56768
0.546844
0.527544
0.511016
0.498678
0.492155
0.493079
0.503116
0.523861
0.556647
0.602292
0.660833
0.731275
0.811495
0.899201
0.989288
1.07432
1.14707
1.20202
1.23652
1.25128
1.24985
1.2374
1.21904
1.19853
1.17753
1.15601
1.13315
1.10789
1.07935
1.04729
1.01212
0.975479
0.94074
0.912331
0.894871
0.892276
0.906916
0.939009
0.986433
1.04501
1.10921
1.17322
1.23243
1.28404
1.32644
1.3594
1.38362
1.40004
1.40905
1.41002
1.40123
1.37995
1.34323
1.28871
1.21545
1.12443
1.01875
0.903253
0.783885
0.66646
0.555678
0.455174
0.366861
0.291014
0.226524
0.171265
0.122455
0.0769247
0.0312735
-0.0179873
-0.0741678
-0.141476
-0.227651
-0.332657
-0.451881
-0.577351
-0.677424
0
1.64175
4.30298
7.7386
11.414
14.5932
16.5156
16.648
14.9233
11.8253
8.21994
4.98935
2.66882
1.30568
0.599433
0.202798
0.0863962
-0.0258991
-0.131676
-0.229529
-0.319233
-0.401634
-0.478311
-0.551105
-0.621618
-0.690769
-0.758433
-0.822928
-0.880566
-0.926212
-0.954264
-0.959587
-0.938699
-0.890695
-0.817634
-0.724174
-0.616482
-0.500668
-0.381448
-0.260789
-0.138392
-0.0124857
0.119488
0.260098
0.411158
0.573107
0.744675
0.922887
1.10339
1.28099
1.45035
1.60635
1.74452
1.86201
1.95728
2.02987
2.08012
2.10866
2.11543
2.10055
2.06446
2.0078
1.93174
1.83834
1.7304
1.61114
1.48352
1.34958
1.21031
1.06541
0.91404
0.755661
0.590831
0.421667
0.251845
0.0860977
-0.0705786
-0.214417
-0.342254
-0.452077
-0.543328
-0.61647
-0.672584
-0.71299
-0.738975
-0.751677
-0.752203
-0.741641
-0.720093
-0.688924
-0.653894
-0.622152
-0.600011
-0.59084
-0.593643
-0.603102
-0.611247
-0.610194
-0.594884
-0.567218
-0.531659
-0.49212
-0.452992
-0.418363
-0.391264
-0.373257
-0.364404
-0.363562
-0.368868
-0.378254
-0.389799
-0.402102
-0.414291
-0.425902
-0.436712
-0.446525
-0.454963
-0.461259
-0.464153
-0.461947
-0.452757
-0.43495
-0.407664
-0.369713
-0.32202
-0.270053
-0.220706
-0.179914
-0.150564
-0.13134
-0.116993
-0.0999773
-0.0728729
-0.0306934
0.0254817
0.0917763
0.16443
0.238896
0.309788
0.370723
0.414937
0.43762
0.435473
0.407223
0.354161
0.280469
0.193045
0.100699
0.0128078
-0.0626943
-0.122558
-0.165851
-0.190883
-0.197509
-0.190547
-0.179178
-0.172861
-0.17935
-0.203186
-0.245059
-0.302231
-0.369851
-0.442721
-0.516805
-0.590344
-0.66304
0
1.53236
4.08743
7.51867
11.3251
14.7296
16.8934
17.2204
15.6236
12.6017
9.04521
5.85861
3.59871
2.32708
1.7262
1.36932
1.06559
0.777856
0.519844
0.302015
0.130654
0.00769749
-0.0686512
-0.102719
-0.0999089
-0.0653975
-0.00457926
0.0777093
0.178735
0.296854
0.430328
0.576501
0.731816
0.89227
1.05361
1.21173
1.36329
1.50617
1.63983
1.76529
1.88501
2.00241
2.12142
2.24587
2.37899
2.52293
2.67838
2.84435
3.01819
3.19573
3.37169
3.54013
3.6954
3.83283
3.9491
4.04219
4.11108
4.15389
4.16904
4.15535
4.11144
4.03635
3.93032
3.79553
3.63633
3.45905
3.27132
3.08127
2.8957
2.72029
2.55948
2.41628
2.29226
2.18761
2.10121
2.03081
1.97328
1.92494
1.882
1.84116
1.80009
1.75773
1.71436
1.67138
1.6309
1.59528
1.56655
1.5462
1.53489
1.53244
1.53793
1.54987
1.56636
1.58519
1.60417
1.6214
1.63546
1.64549
1.65119
1.65272
1.65057
1.64538
1.63793
1.629
1.61936
1.60973
1.60065
1.59234
1.58442
1.57575
1.56434
1.54746
1.5219
1.48471
1.43379
1.36862
1.29076
1.20258
1.11062
1.02412
0.952061
0.901198
0.874763
0.872263
0.890335
0.924264
0.969457
1.02147
1.07765
1.13628
1.19395
1.24508
1.28284
1.30087
1.29556
1.26778
1.22327
1.17125
1.12169
1.0822
1.05362
1.03449
1.01991
1.00316
0.977721
0.939049
0.885626
0.818956
0.742644
0.660947
0.577486
0.494034
0.410882
0.327507
0.242911
0.155836
0.0653183
-0.0286068
-0.125327
-0.224653
-0.328634
-0.449354
-0.601995
-0.792406
-1.00819
-0.9242
0
2.05915
5.15053
8.73579
11.986
14.0653
14.4298
13.0249
10.302
7.0397
4.03715
1.82152
0.507695
-0.132294
-0.466106
-0.78105
-1.08426
-1.36323
-1.60861
-1.81415
-1.97716
-2.09845
-2.18163
-2.23206
-2.25568
-2.25812
-2.2449
-2.21879
-2.18283
-2.14268
-2.104
-2.07124
-2.04622
-2.02709
-2.00842
-1.98244
-1.94104
-1.87928
-1.79791
-1.69826
-1.58142
-1.44913
-1.30342
-1.14616
-0.978749
-0.800977
-0.607476
-0.395516
-0.18552
-0.00943737
0.101085
0.130394
0.0879969
0.0045826
-0.0833401
-0.151302
-0.199382
-0.244032
-0.294061
-0.357131
-0.439348
-0.544505
-0.673882
-0.82646
-0.998899
-1.18519
-1.37994
-1.57812
-1.7745
-1.96393
-2.14178
-2.30438
-2.44925
-2.57527
-2.68259
-2.77234
-2.84638
-2.90688
-2.95608
-2.99619
-3.02926
-3.05723
-3.08187
-3.10472
-3.12692
-3.14908
-3.17106
-3.19193
-3.21003
-3.22323
-3.2293
-3.22596
-3.21121
-3.18481
-3.1503
-3.11445
-3.08493
-3.06834
-3.06859
-3.08576
-3.11591
-3.15181
-3.1846
-3.20613
-3.2122
-3.20269
-3.17632
-3.13764
-3.09273
-3.04713
-3.00422
-2.96468
-2.9272
-2.89006
-2.85261
-2.81606
-2.78295
-2.75615
-2.73743
-2.72658
-2.72122
-2.71759
-2.71178
-2.70103
-2.6841
-2.661
-2.63224
-2.59782
-2.55654
-2.50609
-2.4438
-2.3679
-2.27867
-2.17981
-2.07647
-1.97347
-1.87554
-1.78691
-1.71093
-1.64957
-1.60371
-1.57341
-1.55824
-1.55751
-1.5703
-1.59547
-1.63133
-1.67545
-1.72441
-1.77403
-1.81949
-1.85588
-1.87843
-1.88042
-1.85402
-1.80074
-1.73606
-1.6788
-1.64528
-1.64445
-1.67587
-1.73099
-1.79685
-1.8608
-1.91541
-1.96124
-2.00115
-2.03757
-1.41501
0
2.39325
5.67662
9.41501
12.8644
15.1711
15.6863
14.2565
11.3235
7.75229
4.46625
2.08313
0.742863
0.184949
-0.0132813
-0.239056
-0.45557
-0.652513
-0.821712
-0.957135
-1.0555
-1.11649
-1.14248
-1.13778
-1.10773
-1.05789
-0.994577
-0.923461
-0.848277
-0.773582
-0.703219
-0.639546
-0.582684
-0.530105
-0.476847
-0.4164
-0.342059
-0.248373
-0.134646
-0.00243416
0.145991
0.3071
0.476165
0.64789
0.817083
0.979284
1.13123
1.27106
1.39811
1.51188
1.61164
1.69652
1.76538
1.81598
1.84478
1.84774
1.82121
1.76267
1.67109
1.54713
1.39303
1.21355
1.01512
0.804259
0.586911
0.368463
0.154213
-0.0507744
-0.242026
-0.416035
-0.570537
-0.704397
-0.817767
-0.912611
-0.99174
-1.05826
-1.1151
-1.16466
-1.20874
-1.24867
-1.28548
-1.32022
-1.354
-1.38789
-1.42276
-1.4591
-1.49684
-1.53534
-1.57337
-1.60935
-1.64148
-1.66779
-1.68644
-1.6959
-1.6952
-1.68408
-1.66307
-1.63405
-1.60135
-1.57059
-1.5467
-1.53266
-1.5289
-1.53347
-1.54298
-1.55403
-1.5645
-1.57416
-1.58393
-1.59487
-1.60735
-1.62035
-1.63122
-1.63608
-1.63064
-1.61178
-1.57861
-1.5316
-1.47269
-1.40512
-1.33365
-1.26388
-1.20108
-1.14913
-1.11006
-1.08388
-1.0689
-1.06231
-1.06095
-1.06205
-1.06369
-1.06489
-1.06519
-1.06413
-1.06056
-1.05232
-1.03622
-1.00849
-0.964863
-0.896486
-0.79373
-0.655027
-0.496464
-0.348191
-0.238562
-0.189266
-0.21348
-0.312803
-0.473114
-0.663502
-0.843181
-0.976995
-1.06399
-1.12665
-1.17895
-1.22862
-1.28208
-1.34315
-1.41263
-1.48893
-1.5692
-1.65062
-1.73145
-1.81076
-1.88797
-1.96265
-2.03452
-2.10289
-2.16716
-2.22116
-1.55813
0
2.61886
6.17366
10.1638
13.7882
16.1563
16.5931
14.9302
11.6286
7.62697
3.95466
1.3064
-0.178295
-0.816281
-1.06863
-1.17238
-1.27312
-1.36827
-1.45606
-1.53569
-1.60732
-1.67191
-1.73087
-1.78561
-1.83718
-1.88587
-1.93106
-1.97125
-2.0041
-2.02688
-2.03691
-2.03192
-2.01043
-1.97183
-1.91644
-1.84535
-1.76046
-1.66377
-1.55715
-1.44233
-1.32088
-1.19404
-1.06302
-0.928978
-0.793072
-0.656334
-0.51964
-0.383745
-0.249419
-0.117678
0.00996819
0.13125
0.243083
0.341901
0.42427
0.487178
0.528373
0.546492
0.540974
0.511808
0.459279
0.383828
0.28615
0.167859
0.0314091
-0.119933
-0.281838
-0.448858
-0.614796
-0.77328
-0.918622
-1.04653
-1.15448
-1.24164
-1.30955
-1.36145
-1.40127
-1.43291
-1.45956
-1.48335
-1.50528
-1.52532
-1.54261
-1.55584
-1.56349
-1.56393
-1.55573
-1.538
-1.51073
-1.47419
-1.4303
-1.38345
-1.33913
-1.30244
-1.27683
-1.26316
-1.25928
-1.26044
-1.26036
-1.25269
-1.23301
-1.19988
-1.15462
-1.10047
-1.04135
-0.981288
-0.92378
-0.87115
-0.824245
-0.782515
-0.744403
-0.707926
-0.671235
-0.633047
-0.592776
-0.550519
-0.50686
-0.462631
-0.418745
-0.376203
-0.336461
-0.301805
-0.274473
-0.256616
-0.24946
-0.252383
-0.26245
-0.274751
-0.283561
-0.28391
-0.272936
-0.252152
-0.224203
-0.191269
-0.155244
-0.117421
-0.0781494
-0.0367952
0.00800323
0.0578712
0.114303
0.178563
0.251026
0.329453
0.406914
0.47341
0.51898
0.536103
0.521642
0.477807
0.411776
0.333944
0.255254
0.184394
0.124087
0.0724476
0.0266218
-0.0158916
-0.0574894
-0.100089
-0.144678
-0.191132
-0.238189
-0.283677
-0.325135
-0.360449
-0.38842
-0.409128
-0.424008
-0.435614
0
1.11403
3.25948
6.52106
10.5256
14.4314
17.1782
17.9205
16.4272
13.21
9.28684
5.71167
3.14148
1.67565
1.00257
0.697516
0.433621
0.173781
-0.0768204
-0.311373
-0.52204
-0.70129
-0.843856
-0.94607
-1.00649
-1.0264
-1.01009
-0.964721
-0.89957
-0.824651
-0.748817
-0.677417
-0.611058
-0.547516
-0.483502
-0.414802
-0.33679
-0.24523
-0.137022
-0.0107367
0.133208
0.292609
0.463851
0.642498
0.823955
1.00406
1.17948
1.34776
1.5072
1.65644
1.7932
1.91433
2.01746
2.10021
2.16073
2.19833
2.2136
2.20821
2.18419
2.14317
2.08586
2.01276
1.92341
1.81689
1.69336
1.55465
1.40459
1.24866
1.09318
0.944139
0.806156
0.681806
0.571281
0.472783
0.383293
0.299503
0.218677
0.139214
0.060845
-0.0155233
-0.0882752
-0.15558
-0.215644
-0.266973
-0.308454
-0.339282
-0.358812
-0.366451
-0.361662
-0.344093
-0.31376
-0.271389
-0.218653
-0.158122
-0.0932996
-0.0286555
0.0313276
0.0829373
0.123859
0.15354
0.1732
0.185458
0.193677
0.201147
0.210314
0.222603
0.237394
0.251855
0.262266
0.265382
0.259662
0.245946
0.227345
0.208389
0.193751
0.186787
0.188302
0.197376
0.2126
0.232257
0.254649
0.278458
0.302852
0.327344
0.35153
0.374834
0.39655
0.416073
0.433319
0.44909
0.465164
0.48403
0.508318
0.540122
0.580166
0.627591
0.680876
0.737874
0.795708
0.850691
0.897964
0.931599
0.946242
0.936962
0.900087
0.834212
0.741085
0.626044
0.497747
0.367135
0.245644
0.141084
0.0594381
0.00385599
-0.0262006
-0.0343036
-0.0265948
-0.0123247
-0.00084219
0
-0.021695
-0.061163
-0.117173
-0.185858
-0.265729
0.181429
1.47601
3.79382
6.98077
10.5196
13.6501
15.6081
15.8893
14.4356
11.6619
8.30495
5.15132
2.767
1.34838
0.748242
0.633502
0.538054
0.443125
0.349525
0.258808
0.173387
0.0962248
0.0302101
-0.0223707
-0.0602882
-0.0819826
-0.0880293
-0.0803915
-0.0606213
-0.0289919
0.0158432
0.0764711
0.155712
0.255342
0.375027
0.51063
0.656628
0.807936
0.959744
1.10813
1.25066
1.38661
1.51687
1.64355
1.76943
1.89736
2.02968
2.16776
2.31164
2.45988
2.60962
2.75668
2.89554
3.02063
3.12681
3.20997
3.26719
3.29672
3.29767
3.26959
3.21232
3.12648
3.01306
2.87348
2.71036
2.52762
2.33043
2.12489
1.91744
1.71385
1.51925
1.33774
1.17227
1.02457
0.895276
0.784227
0.690771
0.614143
0.553582
0.508467
0.478298
0.462496
0.460137
0.470439
0.492491
0.522915
0.554441
0.579693
0.593022
0.592072
0.578407
0.556836
0.533613
0.514257
0.501864
0.495328
0.49264
0.492388
0.49355
0.49603
0.500843
0.509926
0.525623
0.55047
0.58858
0.642727
0.705194
0.761104
0.794869
0.796022
0.763582
0.706841
0.641929
0.585492
0.548286
0.527411
0.516209
0.509692
0.503313
0.494835
0.485307
0.478851
0.481324
0.498349
0.533163
0.585497
0.654045
0.73149
0.804767
0.860482
0.888773
0.885814
0.855023
0.806673
0.755755
0.718446
0.708152
0.728462
0.773658
0.848922
0.956712
1.08328
1.19969
1.2761
1.28714
1.2197
1.0793
0.890148
0.686932
0.502394
0.353597
0.232762
0.131459
0.0504662
-0.00932465
-0.0477947
-0.06604
-0.0667934
-0.0544811
-0.0347153
-0.014764
-0.00147476
0
-0.016993
-0.0479763
-0.0900738
-0.162111
0.260887
1.53114
3.85902
7.14999
10.925
14.3908
16.6651
17.0935
15.524
12.3948
8.57487
5.02225
2.4254
1.00254
0.531399
0.556924
0.433443
0.311172
0.191759
0.0770992
-0.0306469
-0.129167
-0.216106
-0.287452
-0.338161
-0.365039
-0.365038
-0.335948
-0.277348
-0.191427
-0.0832466
0.039817
0.169366
0.29769
0.420409
0.53576
0.643313
0.74437
0.841587
0.938436
1.03861
1.14551
1.26176
1.38893
1.5274
1.67623
1.8333
1.9954
2.15851
2.31808
2.46918
2.60683
2.72693
2.8263
2.90289
2.9557
2.98456
2.98986
2.97223
2.9323
2.87065
2.78826
2.68623
2.56575
2.42823
2.27536
2.10892
1.93068
1.74216
1.54491
1.34082
1.13267
0.924328
0.721914
0.532782
0.364383
0.222879
0.111916
0.0320084
-0.0192886
-0.0465096
-0.055019
-0.0498356
-0.0356838
-0.01525
0.0101177
0.0396576
0.0725067
0.106473
0.137359
0.16002
0.169666
0.163347
0.141058
0.106058
0.0642624
0.0229389
-0.0108501
-0.0329601
-0.0425564
-0.0399727
-0.0259476
-0.00214691
0.029221
0.0648251
0.100627
0.13297
0.159117
0.177555
0.187984
0.190982
0.187481
0.178287
0.163955
0.144778
0.12131
0.0949139
0.0681095
0.044677
0.0290188
0.0252369
0.0361389
0.0625072
0.102865
0.153777
0.210543
0.268053
0.321661
0.367092
0.401806
0.424965
0.43758
0.442546
0.444493
0.449326
0.463781
0.50277
0.591832
0.735261
0.895564
1.02425
1.08027
1.04311
0.917529
0.730828
0.525209
0.346846
0.223383
0.14439
0.0931438
0.060006
0.0408962
0.0314907
0.027145
0.0232738
0.0155426
0
-0.0233334
-0.0611805
-0.121238
-0.232813
-0.44497
-0.735202
-1.06859
-1.41639
-1.18726
-0.0911926
2.09295
5.31703
9.18854
13.0018
15.901
17.1496
16.416
13.9353
10.4369
6.84486
3.9043
1.93513
0.833292
0.268312
-0.0402821
-0.227575
-0.394822
-0.531622
-0.630737
-0.689159
-0.708398
-0.6939
-0.65372
-0.596788
-0.531191
-0.463091
-0.395547
-0.329352
-0.264184
-0.199136
-0.132938
-0.0641296
0.00881157
0.0873852
0.173022
0.26705
0.370653
0.484826
0.610331
0.747672
0.897066
1.05842
1.23127
1.4146
1.6067
1.80487
2.0054
2.20239
2.38665
2.54889
2.68107
2.77813
2.83899
2.86645
2.866
2.844
2.80597
2.75673
2.69921
2.6342
2.56139
2.48025
2.3903
2.29121
2.18283
2.06504
1.93775
1.80091
1.65471
1.49973
1.33719
1.16916
0.99862
0.829461
0.666179
0.513672
0.376359
0.25775
0.160695
0.0863552
0.0342072
0.00287285
-0.00933991
-0.0040596
0.0172367
0.052998
0.101223
0.159185
0.223291
0.289358
0.353206
0.411271
0.461073
0.501387
0.532091
0.553808
0.56749
0.574339
0.575128
0.570493
0.561072
0.547692
0.531561
0.514393
0.498379
0.486145
0.480361
0.483354
0.496669
0.52078
0.554875
0.596757
0.643215
0.690046
0.731485
0.761052
0.773253
0.764238
0.732795
0.681125
0.615005
0.543077
0.475325
0.421141
0.385964
0.373537
0.384818
0.418648
0.472763
0.544738
0.631198
0.72935
0.837463
0.954845
1.08028
1.21049
1.33799
1.45131
1.53821
1.58743
1.59085
1.54544
1.45469
1.32891
1.18411
1.03939
0.91129
0.806434
0.7243
0.664558
0.62674
0.607568
0.600686
0.597041
0.587399
0.564051
0.522113
0.460342
0.375324
0.274532
0.171554
0.0782154
0
-0.0417988
0.827384
2.43918
4.89872
8.11555
11.7205
15.0669
17.3683
17.9672
16.6317
13.7176
10.0671
6.6591
4.19281
2.83868
2.29004
2.04957
1.79846
1.55367
1.32062
1.10416
0.911404
0.75428
0.64015
0.570122
0.550511
0.589177
0.688145
0.837979
1.01817
1.20366
1.37388
1.52458
1.6635
1.79584
1.92485
2.05372
2.1852
2.32127
2.46303
2.61075
2.76417
2.92279
3.08608
3.25354
3.42467
3.59888
3.77541
3.95332
4.13154
4.30894
4.48411
4.65461
4.81665
4.96559
5.09579
5.20091
5.27492
5.31309
5.31278
5.27406
5.19989
5.09608
4.97146
4.83498
4.69439
4.55489
4.4185
4.28532
4.15447
4.02428
3.89289
3.75879
3.62116
3.48001
3.3361
3.19085
3.04625
2.90477
2.76951
2.64413
2.53325
2.44137
2.37266
2.33348
2.33675
2.38936
2.47579
2.57391
2.66123
2.72041
2.74241
2.72672
2.67952
2.61101
2.53298
2.45653
2.38786
2.32989
2.28364
2.249
2.22549
2.21191
2.2068
2.20873
2.21637
2.22829
2.2428
2.25673
2.2652
2.26245
2.24298
2.20308
2.14203
2.06267
1.97094
1.87464
1.78165
1.69714
1.62384
1.5637
1.51739
1.48505
1.46774
1.46673
1.4828
1.51679
1.56871
1.63832
1.72339
1.81516
1.90316
1.97756
2.03139
2.0616
2.06864
2.05481
2.02226
1.9723
1.90663
1.8259
1.73004
1.6196
1.49669
1.36525
1.23057
1.09844
0.974599
0.863821
0.766959
0.681831
0.604142
0.528881
0.451679
0.369692
0.281818
0.1883
0.0898521
-0.0145954
-0.13145
-0.291647
-0.531668
-0.81081
-1.06273
-1.25369
-0.964523
0
1.88775
4.78642
8.45754
12.2627
15.2927
16.6973
16.0687
13.6505
10.2295
6.76203
3.96366
2.09717
1.04038
0.514359
0.369292
0.321466
0.277948
0.238015
0.201965
0.171572
0.149866
0.140946
0.148911
0.176759
0.225621
0.294544
0.380791
0.480506
0.589323
0.70303
0.819113
0.936545
1.05552
1.17738
1.30439
1.4394
1.58541
1.74514
1.92056
2.11236
2.32048
2.5438
2.77988
3.02498
3.27423
3.5219
3.76188
3.98848
4.19704
4.38422
4.5469
4.67997
4.78003
4.84702
4.88138
4.88475
4.86098
4.81676
4.76106
4.70366
4.65282
4.61195
4.58138
4.55675
4.52978
4.49074
4.43093
4.34493
4.23186
4.09548
3.94315
3.78409
3.62731
3.47869
3.34275
3.22328
3.12399
3.04759
2.99498
2.96633
2.96095
2.97706
3.01167
3.06064
3.11905
3.18183
3.24443
3.30361
3.35746
3.40551
3.44855
3.48821
3.52653
3.5655
3.60664
3.65087
3.69858
3.7498
3.80435
3.86189
3.92198
3.98412
4.04773
4.11211
4.17646
4.24
4.30196
4.36167
4.41863
4.47244
4.5226
4.56832
4.60824
4.63965
4.65876
4.66168
4.64476
4.60569
4.53827
4.43793
4.3254
4.22811
4.1714
4.17013
4.22451
4.32187
4.443
4.56984
4.69106
4.80562
4.91491
5.01936
5.11931
5.21488
5.30595
5.39224
5.47353
149
308
469
631
795
959
1123
1289
1453
1619
1783
1949
2115
2280
2449
2620
2791
2956
3123
3288
3454
3618
3174
3315
3456
3596
3736
0
0
0
0
0
0
0
0
0
0
0
0
0
0
0
0
0
0
0
0
0
0
0
0
0
0
0
0
0
0
0
0
0
0
0
0
0
0
0
0
0
0
0
0
0
0
0
0
0
0
0
0
0
0
0
0
0
0
0
0
0
0
0
0
0
0
0
0
0
0
0
0
0
0
0
0
0
0
0
0
0
0
0
0
0
0
0
0
0
0
0
0
0
0
0
0
0
0
0
0
0
0
0
0
0
0
0
0
0
0
0
0
0
0
0
0
0
0
0
0
0
0
0
0
0
0
0
0
0
0
0
0
0
0
0
0
0
0
0
0
0
0
0
0
0
0
0
0
0
0
0
0
0
0
0
0
0
0
0
0
0
0
0
0
0
0
0
0
0
0
0
0
0
0
0
0
0
0
0
0
0
0
0
0
0
0
0
0
0
0
0
0
0
0
0
0
0
0
0
0
0
0
0
0
0
0
0
0
0
0
0
0
0
0
0
0
0
0
0
0
0
0
0
0
0
0
0
0
0
0
0
0
0
0
0
0
0
0
0
0
0
0
0
0
0
0
0
0
0
0
0
0
0
0
0
0
0
0
0
0
0
0
0
0
0
0
0
0
0
0
0
0
0
0
0
0
0
0
0
0
0
0
0
0
0
0
0
0
0
0
0
0
0
0
0
0
0
0
0
0
0
0
0
0
0
0
0
0
0
0
0
0
0
0
0
0
0
0
0
0
0
0
0
0
0
0
0
0
0
0
0
0
0
0
0
0
0
0
0
0
0
0
0
0
0
0
0
0
0
0
0
0
0
0
0
0
0
0
0
0
0
0
0
0
0
0
0
0
0
0
0
0
0
0
0
0
0
0
0
0
0
0
0
0
0
0
0
0
0
0
0
0
0
0
0
0
0
0
0
0
0
0
0
0
0
0
0
0
0
0
0
0
0
0
0
0
0
0
0
0
0
0
0
0
0
0
0
0
0
0
0
0
0
0
0
0
0
0
0
0
0
0
0
0
0
0
0
0
0
0
0
0
0
0
0
0
0
0
0
0
0
0
0
0
0
0
0
0
0
0
0
0
0
0
0
0
0
0
0
0
0
0
0
0
0
0
0
0
0
0
0
0
0
0
0
0
0
0
0
0
0
0
0
0
0
0
0
0
0
0
0
0
0
0
0
0
0
0
0
0
0
0
0
0
0
0
0
0
0
0
0
0
0
0
0
0
0
0
0
0
0
0
0
0
0
0
0
0
0
0
0
0
0
0
0
0
0
0
0
0
0
0
0
0
0
0
0
0
0
0
0
0
0
0
0
0
0
0
0
0
0
0
0
0
0
0
0
0
0
0
0
0
0
0
0
0
0
0
0
0
0
0
0
0
0
0
0
0
0
0
0
0
0
0
0
0
0
0
0
0
0
0
0
0
0
0
0
0
0
0
0
0
0
0
0
0
0
0
0
0
0
0
0
0
0
0
0
0
0
0
0
0
0
0
0
0
0
0
0
0
0
0
0
0
0
0
0
0
0
0
0
0
0
0
0
0
0
0
0
0
0
0
0
0
0
0
0
0
0
0
0
0
0
0
0
0
0
0
0
0
0
0
0
0
0
0
0
0
0
0
0
0
0
0
0
0
0
0
0
0
0
0
0
0
0
0
0
0
0
0
0
0
0
0
0
0
0
0
0
0
0
0
0
0
0
0
0
0
0
0
0
0
0
0
0
0
0
0
0
0
0
0
0
0
0
0
0
0
0
0
0
0
0
0
0
0
0
0
0
0
0
0
0
0
0
0
0
0
0
0
0
0
0
0
0
0
0
0
0
0
0
0
0
0
0
0
0
0
0
0
0
0
0
0
0
0
0
0
0
0
0
0
0
0
0
0
0
0
0
0
0
0
0
0
0
0
0
0
0
0
0
0
0
0
0
0
0
0
0
0
0
0
0
0
0
0
0
0
0
0
0
0
0
0
0
0
0
0
0
0
0
0
0
0
0
0
0
0
0
0
0
0
0
0
0
0
0
0
0
0
0
0
0
0
0
0
0
0
0
0
0
0
0
0
0
0
0
0
0
0
0
0
0
0
0
0
0
0
0
0
0
0
0
0
0
0
0
0
0
0
0
0
0
0
0
0
0
0
0
0
0
0
0
0
0
0
0
0
0
0
0
0
0
0
0
0
0
0
0
0
0
0
0
0
0
0
0
0
0
0
0
0
0
0
0
0
0
0
0
0
0
0
0
0
0
0
0
0
0
0
0
0
0
0
0
0
0
0
0
0
0
0
0
0
0
0
0
0
0
0
0
0
0
0
0
0
0
0
0
0
0
0
0
0
0
0
0
0
0
0
0
0
0
0
0
0
0
0
0
0
0
0
0
0
0
0
0
0
0
0
0
0
0
0
0
0
0
0
0
0
0
0
0
0
0
0
0
0
0
0
0
0
0
0
0
0
0
0
0
0
0
0
0
0
0
0
0
0
0
0
0
0
0
0
0
0
0
0
0
0
0
0
0
0
0
0
0
0
0
0
0
0
0
0
0
0
0
0
0
0
0
0
0
0
0
0
0
0
0
0
0
0
0
0
0
0
0
0
0
0
0
0
0
0
0
0
0
0
0
0
0
0
0
0
0
0
0
0
0
0
0
0
0
0
0
0
0
0
0
0
0
0
0
0
0
0
0
0
0
0
0
0
0
0
0
0
0
0
0
0
0
0
0
0
0
0
0
0
0
0
0
0
0
0
0
0
0
0
0
0
0
0
0
0
0
0
0
0
0
0
0
0
0
0
0
0
0
0
0
0
0
0
0
0
0
0
0
0
0
0
0
0
0
0
0
0
0
0
0
0
0
0
0
0
0
0
0
0
0
0
0
0
0
0
0
0
0
0
0
0
0
0
0
0
0
0
0
0
0
0
0
0
0
0
0
0
0
0
0
0
0
0
0
0
0
0
0
0
0
0
0
0
0
0
0
0
0
0
0
0
0
0
0
0
0
0
0
0
0
0
0
0
0
0
0
0
0
0
0
0
0
0
0
0
0
0
0
0
0
0
0
0
0
0
0
0
0
0
0
0
0
0
0
0
0
0
0
0
0
0
0
0
0
0
0
0
0
0
0
0
0
0
0
0
0
0
0
0
0
0
0
0
0
0
0
0
0
0
0
0
0
0
0
0
0
0
0
0
0
0
0
0
0
0
0
0
0
0
0
0
0
0
0
0
0
0
0
0
0
0
0
0
0
0
0
0
0
0
0
0
0
0
0
0
0
0
0
0
0
0
0
0
0
0
0
0
0
0
0
0
0
0
0
0
0
0
0
0
0
0
0
0
0
0
0
0
0
0
0
0
0
0
0
0
0
0
0
0
0
0
0
0
0
0
0
0
0
0
0
0
0
0
0
0
0
0
0
0
0
0
0
0
0
0
0
0
0
0
0
0
0
0
0
0
0
0
0
0
0
0
0
0
0
0
0
0
0
0
0
0
0
0
0
0
0
0
0
0
0
0
0
0
0
0
0
0
0
0
0
0
0
0
0
0
0
0
0
0
0
0
0
0
0
0
0
0
0
0
0
0
0
0
0
0
0
0
0
0
0
0
0
0
0
0
0
0
0
0
0
0
0
0
0
0
0
0
0
0
0
0
0
0
0
0
0
0
0
0
0
0
0
0
0
0
0
0
0
0
0
0
0
0
0
0
0
0
0
0
0
0
0
0
0
0
0
0
0
0
0
0
0
0
0
0
0
0
0
0
0
0
0
0
0
0
0
0
0
0
0
0
0
0
0
0
0
0
0
0
0
0
0
0
0
0
0
0
0
0
0
0
0
0
0
0
0
0
0
0
0
0
0
0
0
0
0
0
0
0
0
0
0
0
0
0
0
0
0
0
0
0
0
0
0
0
0
0
0
0
0
0
0
0
0
0
0
0
0
0
0
0
0
0
0
0
0
0
0
0
0
0
0
0
0
0
0
0
0
0
0
0
0
0
0
0
0
0
0
0
0
0
0
0
0
0
0
0
0
0
0
0
0
0
0
0
0
0
0
0
0
0
0
0
0
0
0
0
0
0
0
0
0
0
0
0
0
0
0
0
0
0
0
0
0
0
0
0
0
0
0
0
0
0
0
0
0
0
0
0
0
0
0
0
0
0
0
0
0
0
0
0
0
0
0
0
0
0
0
0
0
0
0
0
0
0
0
0
0
0
0
0
0
0
0
0
0
0
0
0
0
0
0
0
0
0
0
0
0
0
0
0
0
0
0
0
0
0
0
0
0
0
0
0
0
0
0
0
0
0
0
0
0
0
0
0
0
0
0
0
0
0
0
0
0
0
0
0
0
0
0
0
0
0
0
0
0
0
0
0
0
0
0
0
0
0
0
0
0
0
0
0
0
0
0
0
0
0
0
0
0
0
0
0
0
0
0
0
0
0
0
0
0
0
0
0
0
0
0
0
0
0
0
0
0
0
0
0
0
0
0
0
0
0
0
0
0
0
0
0
0
0
0
0
0
0
0
0
0
0
0
0
0
0
0
0
0
0
0
0
0
0
0
0
0
0
0
0
0
0
0
0
0
0
0
0
0
0
0
0
0
0
0
0
0
0
0
0
0
0
0
0
0
0
0
0
0
0
0
0
0
0
0
0
0
0
0
0
0
0
0
0
0
0
0
0
0
0
0
0
0
0
0
0
0
0
0
0
0
0
0
0
0
0
0
0
0
0
0
0
0
0
0
0
0
0
0
0
0
0
0
0
0
0
0
0
0
0
0
0
0
0
0
0
0
0
0
0
0
0
0
0
0
0
0
0
0
0
0
0
0
0
0
0
0
0
0
0
0
0
0
0
0
0
0
0
0
0
0
0
0
0
0
0
0
0
0
0
0
0
0
0
0
0
0
0
0
0
0
0
0
0
0
0
0
0
0
0
0
0
0
0
0
0
0
0
0
0
0
0
0
0
0
0
0
0
0
0
0
0
0
0
0
0
0
0
0
0
0
0
0
0
0
0
0
0
0
0
0
0
0
0
0
0
0
0
0
0
0
0
0
0
0
0
0
0
0
0
0
0
0
0
0
0
0
0
0
0
0
0
0
0
0
0
0
0
0
0
0
0
0
0
0
0
0
0
0
0
0
0
0
0
0
0
0
0
0
0
0
0
0
0
0
0
0
0
0
0
0
0
0
0
0
0
0
0
0
0
0
0
0
0
0
0
0
0
0
0
0
0
0
0
0
0
0
0
0
0
0
0
0
0
0
0
0
0
0
0
0
0
0
0
0
0
0
0
0
0
0
0
0
0
0
0
0
0
0
0
0
0
0
0
0
0
0
0
0
0
0
0
0
0
0
0
0
0
0
0
0
0
0
0
0
0
0
0
0
0
0
0
0
0
0
0
0
0
0
0
0
0
0
0
0
0
0
0
0
0
0
0
0
0
0
0
0
0
0
0
0
0
0
0
0
0
0
0
0
0
0
0
0
0
0
0
0
0
0
0
0
0
0
0
0
0
0
0
0
0
0
0
0
0
0
0
0
0
0
0
0
0
0
0
0
0
0
0
0
0
0
0
0
0
0
0
0
0
0
0
0
0
0
0
0
0
0
0
0
0
0
0
0
0
0
0
0
0
0
0
0
0
0
0
0
0
0
0
0
0
0
0
0
0
0
0
0
0
0
0
0
0
0
0
0
0
0
0
0
0
0
0
0
0
0
0
0
0
0
0
0
0
0
0
0
0
0
0
0
0
0
0
0
0
0
0
0
0
0
0
0
0
0
0
0
0
0
0
0
0
0
0
0
0
0
0
0
0
0
0
0
0
0
0
0
0
0
0
0
0
0
0
0
0
0
0
0
0
0
0
0
0
0
0
0
0
0
0
0
0
0
0
0
0
0
0
0
0
0
0
0
0
0
0
0
0
0
0
0
0
0
0
0
0
0
0
0
0
0
0
0
0
0
0
0
0
0
0
0
0
0
0
0
0
0
0
0
0
0
0
0
0
0
0
0
0
0
0
0
0
0
0
0
0
0
0
0
0
0
0
0
0
0
0
0
0
0
0
0
0
0
0
0
0
0
0
0
0
0
0
0
0
0
0
0
0
0
0
0
0
0
0
0
0
0
0
0
0
0
0
0
0
0
0
0
0
0
0
0
0
0
0
0
0
0
0
0
0
0
0
0
0
0
0
0
0
0
0
0
0
0
0
0
0
0
0
0
0
0
0
0
0
0
0
0
0
0
0
0
0
0
0
0
0
0
0
0
0
0
0
0
0
0
0
0
0
0
0
0
0
0
0
0
0
0
0
0
0
0
0
0
0
0
0
0
0
0
0
0
0
0
0
0
0
0
0
0
0
0
0
0
0
0
0
0
0
0
0
0
0
0
0
0
0
0
0
0
0
0
0
0
0
0
0
0
0
0
0
0
0
0
0
0
0
0
0
0
0
0
0
0
0
0
0
0
0
0
0
0
0
0
0
0
0
0
0
0
0
0
0
0
0
0
0
0
0
0
0
0
0
0
0
0
0
0
0
0
0
0
0
0
0
0
0
0
0
0
0
0
0
0
0
0
0
0
0
0
0
0
0
0
0
0
0
0
0
0
0
0
0
0
0
0
0
0
0
0
0
0
0
0
0
0
0
0
0
0
0
0
0
0
0
0
0
0
0
0
0
0
0
0
0
0
0
0
0
0
0
0
0
0
0
0
0
0
0
0
0
0
0
0
0
0
0
0
0
0
0
0
0
0
0
0
0
0
0
0
0
0
0
0
0
0
0
0
0
0
0
0
0
0
0
0
0
0
0
0
0
0
0
0
0
0
0
0
0
0
0
0
0
0
0
0
0
0
0
0
0
0
0
0
0
0
0
0
0
0
0
0
0
0
0
0
0
0
0
0
0
0
0
0
0
0
0
0
0
0
0
0
0
0
0
0
0
0
0
0
0
0
0
0
0
0
0
0
0
0
0
0
0
0
0
0
0
0
0
0
0
0
0
0
0
0
0
0
0
0
0
0
0
0
0
0
0
0
0
0
0
0
0
0
0
0
0
0
0
0
0
0
0
0
0
0
0
0
0
0
0
0
0
0
0
0
0
0
0
0
0
0
0
0
0
0
0
0
0
0
0
0
0
0
0
0
0
0
0
0
0
0
0
0
0
0
0
0
0
0
0
0
0
0
0
0
0
0
0
0
0
0
0
0
0
0
0
0
0
0
0
0
0
0
0
0
0
0
0
0
0
0
0
0
0
0
0
0
0
0
0
0
0
0
0
0
0
0
0
0
0
0
0
0
0
0
0
0
0
0
0
0
0
0
0
0
0
0
0
0
0
0
0
0
0
0
0
0
0
0
0
0
0
0
0
0
0
0
0
0
0
0
0
0
0
0
0
0
0
0
0
0
0
0
0
0
0
0
0
0
0
0
0
0
0
0
0
0
0
0
0
0
0
0
0
0
0
0
0
0
0
0
0
0
0
0
0
0
0
0
0
0
0
0
0
0
0
0
0
0
0
0
0
0
0
0
0
0
0
0
0
0
0
0
0
0
0
0
0
0
0
0
0
0
0
0
0
0
0
0
0
0
0
0
0
0
0
0
0
0
0
0
0
0
0
0
0
0
0
0
0
0
0
0
0
0
0
0
0
0
0
0
0
0
0
0
0
0
0
0
0
0
0
0
0
0
0
0
0
0
0
0
0
0
0
0
0
0
0
0
0
0
0
0
0
0
0
0
0
0
0
0
0
0
0
0
0
0
0
0
0
0
0
0
0
0
0
0
0
0
0
0
0
0
0
0
0
0
0
0
0
0
0
0
0
0
0
0
0
0
0
0
0
0
0
0
0
0
0
0
0
0
0
0
0
0
0
0
0
0
0
0
0
0
0
0
0
0
0
0
0
0
0
0
0
0
0
0
0
0
0
0
0
0
0
0
0
0
0
0
0
0
0
0
0
0
0
0
0
0
0
0
0
0
0
0
0
0
0
0
0
0
0
0
0
0
0
0
0
0
0
0
0
0
0
0
0
0
0
0
0
0
0
0
0
0
0
0
0
0
0
0
0
0
0
0
0
0
0
0
0
0
0
0
0
0
0
0
0
0
0
0
0
0
0
0
0
0
0
0
0
0
0
0
0
0
0
0
0
0
0
0
0
0
0
0
0
0
0
0
0
0
0
0
0
0
0
0
0
0
0
0
0
0
0
0
0
0
0
0
0
0
0
0
0
0
0
0
0
0
0
0
0
0
0
0
0
0
0
0
0
0
0
0
0
0
0
0
0
0
0
0
0
0
0
0
0
0
0
0
0
0
0
0
0
0
0
0
0
0
0
0
0
0
0
0
0
0
0
0
0
0
0
0
0
0
0
0
0
0
0
0
0
0
0
0
0
0
0
0
0
0
0
0
0
0
0
0
0
0
0
0
0
0
0
0
0
0
0
0
0
0
0
0
0
0
0
0
0
0
0
0
0
