-0.788575
-0.751734
-0.719317
-0.690715
-0.664551
-0.639033
-0.612368
-0.58321
-0.550931
-0.515492
-0.477499
-0.43855
-0.400965
-0.367278
-0.339853
-0.320545
-0.31043
-0.309613
-0.317123
-0.330881
-0.347719
-0.363925
-0.375535
-0.378921
-0.371424
-0.351991
-0.321742
-0.282683
-0.237923
-0.190952
-0.145664
-0.105066
-0.0706097
-0.041939
-0.017016
0.00739727
0.0350351
0.0693951
0.113182
0.167251
0.231312
0.305561
0.392248
0.497959
0.630946
0.783112
0.928822
1.0371
1.08369
1.06027
0.975961
0.852018
0.714131
0.586229
0.480688
0.395286
0.325034
0.26641
0.217106
0.175446
0.139689
0.108066
0.0790009
0.0512617
0.0240145
-0.00320358
-0.0305635
-0.0580402
-0.085495
-0.111785
0
0.38191
1.06382
1.93906
2.78126
3.32907
3.3928
2.93438
2.08585
1.10265
0.270402
-0.20038
-0.245904
-0.0251797
0.130167
0.220854
0.229887
0.163248
0.0494431
-0.0717625
-0.165123
-0.211798
-0.23126
-0.235619
-0.227247
-0.208092
-0.180272
-0.145761
-0.106239
-0.063269
-0.0181046
0.0285507
0.0767225
0.127193
0.181291
0.240448
0.306112
0.380278
0.461006
0.539681
0.605858
0.651072
0.672299
0.673578
0.665134
0.660476
0.672764
0.709994
0.769856
0.849178
0.946791
1.06164
1.19182
1.33463
1.48669
1.64421
1.80327
1.96023
2.11206
2.2564
2.39087
2.51154
2.61281
2.69144
2.74265
2.76087
2.74211
2.68612
2.59701
2.48205
2.34948
2.20657
2.05989
1.91264
1.76654
1.62297
1.48317
1.34817
1.21877
1.09555
0.978827
0.868634
0.764805
0.667005
0.57478
0.487837
0.407212
0.33545
0.274899
0.228735
0.199883
0.189783
0.19756
0.220003
0.252344
0.289441
0.326843
0.361997
0.393661
0.421108
0.444259
0.463604
0.48012
0.495082
0.509772
0.525108
0.541363
0.556956
0.568625
0.572833
0.567546
0.553683
0.535505
0.519629
0.512994
0.520559
0.543872
0.581914
0.626678
0.666654
0.691192
0.693434
0.672023
0.631308
0.580035
0.528886
0.487555
0.460901
0.447437
0.443703
0.44692
0.454804
0.465137
0.475923
0.485534
0.492706
0.496426
0.495759
0.489756
0.477427
0.457801
0.430112
0.394053
0.350054
0.299496
0.244792
0.189365
0.138207
0.0968075
0.0702831
0.062476
0.0751516
0.112515
0.175736
0.252329
0.324508
0.375926
0.396088
0.382816
0.342014
0.284886
0.22366
0.167394
0.117996
0.0730715
0.0303413
-0.0115807
-0.0530912
-0.0923561
-0.124496
-0.142682
-0.140444
-0.114296
-0.0587133
0.0154245
0.0915192
0.153226
0.190421
0.202533
0.197925
0.189989
0.191947
0.212536
0.248259
0.294687
0.349632
0.410927
0.474544
0.533487
0.579815
0.605823
0.605415
0.575689
0.518136
0.438843
0.347386
0.254621
0.169668
0.096205
0.0338663
-0.0178398
-0.0598032
-0.0932844
-0.119352
-0.138526
-0.150707
-0.155353
-0.151803
-0.140079
-0.120205
-0.0924871
0
0.480741
1.29316
2.29836
3.23257
3.81482
3.87584
3.43504
2.68423
1.8908
1.27851
0.95182
0.903266
0.938725
0.951219
0.950067
0.931866
0.896189
0.84579
0.786194
0.724791
0.669632
0.626818
0.601134
0.596062
0.613021
0.651296
0.708171
0.779232
0.858827
0.940605
1.01829
1.08636
1.141
1.18064
1.20614
1.22062
1.22883
1.2364
1.24899
1.27098
1.30495
1.35294
1.41637
1.49575
1.59059
1.69957
1.8207
1.95169
2.09021
2.2343
2.38254
2.5341
2.68859
2.84568
3.00469
3.16415
3.32082
3.46764
3.59664
3.70068
3.77602
3.82401
3.8509
3.86566
3.87579
3.88575
3.8904
3.87723
3.83301
3.75038
3.63098
3.48406
3.32217
3.15664
2.99425
2.83676
2.68544
2.54198
2.40797
2.28493
2.17431
2.07695
1.99333
1.92367
1.86808
1.8265
1.79861
1.78566
1.78932
1.80584
1.82614
1.84012
1.83948
1.82027
1.78409
1.73753
1.68993
1.65047
1.62424
1.61056
1.60696
1.6111
1.62085
1.63407
1.64895
1.66424
1.67922
1.69356
1.70702
1.71904
1.72863
1.73452
1.73534
1.73019
1.71896
1.70254
1.68273
1.66185
1.64232
1.62605
1.61408
1.60693
1.60469
1.60692
1.61238
1.61859
1.62203
1.61888
1.60565
1.57999
1.54137
1.49158
1.43473
1.37681
1.32464
1.28417
1.25976
1.25301
1.26243
1.28383
1.3115
1.33973
1.36431
1.38406
1.39932
1.41221
1.42601
1.44481
1.47579
1.53338
1.62577
1.72734
1.79867
1.79975
1.70756
1.53071
1.31261
1.11802
1.00607
0.982442
0.996767
1.03526
1.08456
1.13204
1.16842
1.19329
1.20681
1.20991
1.2047
1.19392
1.18055
1.16717
1.15603
1.14894
1.14721
1.15165
1.16246
1.17943
1.20196
1.22917
1.26003
1.29355
1.32884
1.36521
1.40214
1.4393
1.47638
1.51301
1.54851
1.5818
1.61119
1.63431
1.64818
1.65014
1.63795
1.61024
1.56695
1.50961
1.44126
1.36615
1.28913
1.2149
1.14662
1.08552
1.03171
0.98441
0.941465
0.899048
0.85216
0.795476
0.724121
0.631924
0.508102
0.355663
0.182689
0
0.00434246
0.419095
1.19876
2.18031
3.10187
3.70801
3.84739
3.51462
2.83287
2.00176
1.23371
0.690431
0.433037
0.431376
0.493688
0.551596
0.600889
0.634762
0.647426
0.634773
0.59567
0.532948
0.453519
0.367357
0.28552
0.217901
0.16814
0.137543
0.127211
0.136726
0.164666
0.208467
0.26485
0.331503
0.406107
0.486118
0.568643
0.650607
0.728231
0.797864
0.856418
0.90195
0.934142
0.954492
0.966158
0.973544
0.981757
0.995797
1.01942
1.05631
1.10983
1.18256
1.276
1.3903
1.52385
1.67365
1.83564
2.00495
2.17654
2.34559
2.50817
2.66131
2.80174
2.92353
3.01811
3.08041
3.10103
3.06834
2.97324
2.81434
2.60114
2.3533
2.09627
1.85412
1.63328
1.43258
1.25421
1.09822
0.962843
0.845268
0.742291
0.650906
0.568617
0.493515
0.424188
0.359517
0.298451
0.240058
0.183606
0.128691
0.0753063
0.0237911
-0.0253326
-0.0714279
-0.114248
-0.153942
-0.190797
-0.224912
-0.255925
-0.282943
-0.30475
-0.320207
-0.328684
-0.330554
-0.326744
-0.318759
-0.308388
-0.297423
-0.287401
-0.279629
-0.274967
-0.273811
-0.276057
-0.281119
-0.288072
-0.295949
-0.304144
-0.312781
-0.322984
-0.336644
-0.355749
-0.381472
-0.413346
-0.448922
-0.484087
-0.514028
-0.534532
-0.543176
-0.538682
-0.524437
-0.505903
-0.488841
-0.477482
-0.473229
-0.474238
-0.475897
-0.47196
-0.454241
-0.400611
-0.284144
-0.13022
0.0151386
0.104652
0.108007
0.024852
-0.112877
-0.2515
-0.33666
-0.338157
-0.295804
-0.240104
-0.182215
-0.130577
-0.0912699
-0.0671862
-0.0580547
-0.0611937
-0.072654
-0.0883171
-0.104537
-0.118918
-0.129737
-0.135377
-0.134401
-0.125374
-0.106193
-0.074914
-0.0335018
0.00942726
0.0427118
0.0558056
0.0421913
0.00194111
-0.0575302
-0.122855
-0.177858
-0.207424
-0.207286
-0.181309
-0.128718
-0.0511013
0.0477976
0.162446
0.287252
0.413297
0.529688
0.626835
0.697999
0.740209
0.75411
0.742828
0.710417
0.660647
0.59852
0.528497
0.453107
0.374997
0.297335
0.223621
0.157139
0.10027
0.0549158
0.0229887
0.00609798
0
-0.00169067
-0.0143824
-0.0483162
-0.109742
-0.199412
-0.312615
-0.440516
-0.573942
-0.417227
0.118624
0.903083
1.75818
2.4761
2.90479
2.99064
2.76175
2.28718
1.65753
0.991267
0.427337
0.0854509
0.0690235
0.207148
0.346206
0.467502
0.551578
0.583796
0.560681
0.493565
0.406698
0.329289
0.284531
0.275607
0.288153
0.313697
0.349508
0.393854
0.446304
0.507353
0.577567
0.656625
0.743718
0.834878
0.922259
0.996919
1.05157
1.08261
1.09136
1.08415
1.07123
1.06459
1.07515
1.1089
1.1635
1.23358
1.3147
1.40314
1.49534
1.58835
1.68034
1.77087
1.86084
1.95209
2.04686
2.14717
2.25421
2.36797
2.48716
2.60924
2.7304
2.84528
2.94693
3.02886
3.08573
3.11309
3.10755
3.06695
2.99055
2.87923
2.73555
2.56382
2.37177
2.16771
1.9584
1.74935
1.5455
1.35114
1.16968
1.00356
0.854263
0.722501
0.608738
0.514201
0.438744
0.381633
0.34174
0.317401
0.306372
0.305956
0.313309
0.325817
0.341412
0.358598
0.376628
0.395083
0.41358
0.431506
0.447795
0.460813
0.468637
0.46937
0.4616
0.444895
0.420204
0.390044
0.358389
0.330232
0.311419
0.314944
0.363181
0.451167
0.549047
0.619978
0.636063
0.590877
0.502469
0.405493
0.33654
0.319647
0.339098
0.375777
0.422752
0.473898
0.522038
0.560829
0.585615
0.593936
0.58571
0.563116
0.530212
0.492357
0.45549
0.424795
0.404327
0.396923
0.403587
0.423376
0.453674
0.4908
0.530813
0.570223
0.60661
0.638234
0.663258
0.679832
0.686567
0.682329
0.666922
0.64179
0.610324
0.577463
0.548646
0.528447
0.5182
0.517743
0.5253
0.537671
0.550957
0.561293
0.565416
0.561001
0.546773
0.52248
0.48897
0.447956
0.401309
0.351184
0.299885
0.249704
0.202761
0.161521
0.128829
0.107056
0.0982795
0.104188
0.125806
0.163255
0.215658
0.281219
0.357415
0.441204
0.52883
0.616949
0.701502
0.77826
0.843151
0.892635
0.924073
0.935991
0.928178
0.901648
0.858502
0.801847
0.735893
0.664397
0.590403
0.516245
0.443419
0.372608
0.304128
0.238273
0.176182
0.119765
0.0714031
0.0336649
0.00835428
-0.00430794
-0.00599871
0
0.0123855
0.0240671
0.00144529
0.140446
0.624968
1.4198
2.33006
3.0879
3.47449
3.40454
2.93704
2.22485
1.44633
0.755675
0.260073
0.0189654
0.0958929
0.18159
0.256794
0.310082
0.334484
0.329838
0.302894
0.264992
0.228308
0.202275
0.188495
0.184349
0.188498
0.200002
0.217681
0.240279
0.266743
0.295593
0.32493
0.353103
0.379196
0.403466
0.42749
0.453861
0.485487
0.524722
0.57265
0.628125
0.689126
0.753811
0.820699
0.888933
0.958505
1.03019
1.10525
1.18496
1.27017
1.361
1.45683
1.55654
1.65878
1.76245
1.86703
1.97265
2.07987
2.18931
2.30134
2.41528
2.52734
2.63124
2.71957
2.7851
2.82187
2.82553
2.79327
2.72363
2.61667
2.47693
2.31135
2.12638
1.92907
1.72743
1.52894
1.33893
1.16177
1.00029
0.855767
0.728164
0.6166
0.519767
0.436248
0.364668
0.304022
0.25328
0.210075
0.171004
0.132664
0.0925162
0.049754
0.00580115
-0.0358348
-0.0704123
-0.093307
-0.0990691
-0.0823598
-0.0499642
-0.0129853
0.0175158
0.0348574
0.0391418
0.0367898
0.0376168
0.0508955
0.0808839
0.123422
0.176731
0.237852
0.298713
0.349426
0.381595
0.390325
0.375546
0.341984
0.297511
0.25041
0.206793
0.168522
0.134526
0.104174
0.0778563
0.056964
0.0435508
0.0400599
0.0486855
0.0705524
0.106708
0.156036
0.211869
0.265613
0.309544
0.338986
0.353539
0.356914
0.355439
0.355728
0.362348
0.376456
0.39529
0.413649
0.426178
0.429635
0.42423
0.413516
0.402978
0.397973
0.401504
0.412458
0.428608
0.447846
0.467976
0.486809
0.502421
0.513287
0.518296
0.5167
0.508069
0.492284
0.46955
0.440458
0.406025
0.367686
0.327218
0.286603
0.247854
0.212846
0.183205
0.16018
0.144378
0.135813
0.134207
0.139061
0.149253
0.164067
0.183654
0.209247
0.242949
0.287062
0.345833
0.425632
0.517033
0.60483
0.674043
0.716664
0.735593
0.743725
0.758703
0.803661
0.897308
1.0177
1.12638
1.18784
1.1837
1.11717
1.00877
0.886907
0.776843
0.68902
0.616371
0.551511
0.490589
0.431632
0.373509
0.31569
0.258331
0.202173
0.148279
0.097841
0.0520811
0.0118152
-0.0226289
-0.0511307
-0.0730812
0
0.390377
1.08298
1.97266
2.84597
3.47886
3.73412
3.59504
3.1348
2.46899
1.73043
1.05969
0.580204
0.360006
0.365265
0.367472
0.367624
0.365669
0.361594
0.356069
0.350384
0.346254
0.345586
0.350098
0.36139
0.380837
0.40947
0.449032
0.503578
0.576928
0.659331
0.732114
0.775279
0.775825
0.735015
0.670318
0.609978
0.582074
0.603283
0.658037
0.729227
0.810048
0.895262
0.98061
1.06351
1.14287
1.21889
1.29263
1.36551
1.43901
1.51446
1.59305
1.67593
1.76433
1.85964
1.96327
2.0764
2.19964
2.33278
2.47598
2.62703
2.77822
2.91895
3.03885
3.12973
3.18669
3.20842
3.19667
3.15524
3.08861
3.0005
2.89284
2.76551
2.61912
2.45734
2.28457
2.10443
1.92207
1.74383
1.57625
1.42545
1.29528
1.18713
1.10002
1.03115
0.976724
0.932757
0.895764
0.863117
0.833115
0.804903
0.778256
0.753296
0.730271
0.709438
0.691026
0.675317
0.662761
0.654142
0.650508
0.653035
0.662805
0.680463
0.705878
0.738523
0.776443
0.81575
0.85174
0.880055
0.897571
0.902988
0.896956
0.881759
0.860661
0.837158
0.81431
0.794086
0.77749
0.764971
0.756589
0.752058
0.750736
0.751337
0.752141
0.751376
0.747525
0.73961
0.727351
0.711168
0.692058
0.671405
0.650804
0.631751
0.615718
0.604114
0.59807
0.598285
0.604838
0.617296
0.63447
0.654094
0.673585
0.690468
0.702715
0.708904
0.708186
0.700175
0.684872
0.662877
0.635318
0.603995
0.571468
0.540791
0.514965
0.496269
0.486217
0.48442
0.488407
0.494779
0.500216
0.502364
0.500294
0.494447
0.486165
0.477077
0.468563
0.461449
0.456338
0.453779
0.45442
0.459034
0.468306
0.482617
0.501934
0.525511
0.551329
0.576867
0.599695
0.618067
0.631297
0.63981
0.644906
0.648392
0.652247
0.658249
0.668216
0.684077
0.70786
0.741549
0.790161
0.863703
0.967344
1.08462
1.19184
1.26592
1.29194
1.267
1.19897
1.10194
0.991216
0.880344
0.777925
0.686917
0.608389
0.543117
0.492327
0.458827
0.443527
0.439692
0.436505
0.422778
0.390007
0.334739
0.259328
0.170804
0.0783063
0
0.51213
1.4179
2.48048
3.38772
3.89397
3.93647
3.63374
3.17854
2.71632
2.29669
1.9134
1.58357
1.42294
1.35297
1.3063
1.26882
1.23686
1.2089
1.18408
1.1624
1.1448
1.13293
1.12865
1.13354
1.14832
1.17347
1.20769
1.2473
1.28774
1.32459
1.35447
1.37579
1.38909
1.39691
1.4034
1.41356
1.43196
1.46187
1.50491
1.56084
1.62772
1.70263
1.78236
1.86362
1.94368
2.02082
2.09459
2.16593
2.23693
2.31057
2.39025
2.47921
2.58006
2.69434
2.8222
2.9623
3.11232
3.26883
3.42691
3.57985
3.71903
3.83587
3.92452
3.98033
3.99985
3.98119
3.92457
3.8329
3.71189
3.56956
3.41552
3.25835
3.1029
2.95096
2.80284
2.65796
2.5149
2.3719
2.22731
2.08007
1.92994
1.77763
1.62469
1.47336
1.32635
1.1867
1.05845
0.945979
0.852279
0.77945
0.728307
0.698176
0.686963
0.691515
0.708152
0.733197
0.763117
0.794925
0.82617
0.853942
0.875124
0.886506
0.885153
0.868991
0.837398
0.791593
0.734688
0.671372
0.607288
0.547828
0.497445
0.45963
0.43635
0.427884
0.432914
0.448821
0.472151
0.499116
0.526083
0.549825
0.568012
0.579371
0.583698
0.581728
0.574861
0.564824
0.553321
0.541792
0.531263
0.522442
0.516018
0.51274
0.513474
0.519134
0.530501
0.547908
0.571147
0.599525
0.631054
0.661184
0.683703
0.692494
0.683213
0.654874
0.610789
0.558395
0.507833
0.469602
0.45131
0.453946
0.480462
0.528179
0.589575
0.652478
0.703025
0.730031
0.726587
0.69127
0.629035
0.551189
0.47367
0.413376
0.383399
0.382182
0.416779
0.472554
0.528895
0.566787
0.575528
0.555831
0.518219
0.477758
0.447805
0.434334
0.432855
0.439209
0.451398
0.468164
0.488749
0.513029
0.541433
0.574701
0.613532
0.658256
0.708628
0.763906
0.822468
0.880481
0.93234
0.972217
0.995189
0.998222
0.980703
0.944361
0.892675
0.830045
0.761033
0.690112
0.620156
0.553054
0.49023
0.432705
0.380503
0.332759
0.288149
0.245311
0.203281
0.161786
0.121316
0.0829569
0.0480762
0.0178629
0
0.164122
0.646972
1.35032
2.10311
2.68515
2.92625
2.7742
2.30369
1.67608
1.07404
0.633403
0.398348
0.286705
0.181481
0.0824469
-0.0104758
-0.0955431
-0.171098
-0.236213
-0.290711
-0.335029
-0.369976
-0.39645
-0.415242
-0.427094
-0.432166
-0.430618
-0.42312
-0.411173
-0.397504
-0.387187
-0.3877
-0.406293
-0.448215
-0.514233
-0.598564
-0.688371
-0.765662
-0.811567
-0.811762
-0.762955
-0.645058
-0.491069
-0.344681
-0.243082
-0.203579
-0.218835
-0.261594
-0.296515
-0.294468
-0.245799
-0.171454
-0.0867772
0
0.0858413
0.162226
0.226066
0.276439
0.314384
0.342473
0.364279
0.383903
0.405732
0.438783
0.515557
0.702936
0.964959
1.2208
1.37757
1.36267
1.14989
0.768736
0.297292
-0.150614
-0.440984
-0.626883
-0.778408
-0.911633
-1.02957
-1.13558
-1.23267
-1.32296
-1.40712
-1.4843
-1.55286
-1.61067
-1.65595
-1.68779
-1.7065
-1.71344
-1.7107
-1.70065
-1.6857
-1.66777
-1.64826
-1.62824
-1.60844
-1.58924
-1.57074
-1.55287
-1.53549
-1.5187
-1.50306
-1.48944
-1.4787
-1.47113
-1.46576
-1.46012
-1.45049
-1.43279
-1.40343
-1.35657
-1.29601
-1.23173
-1.17513
-1.1345
-1.11185
-1.10272
-1.09895
-1.09277
-1.0804
-1.06423
-1.04772
-1.03505
-1.02948
-1.03237
-1.04296
-1.05893
-1.07705
-1.09369
-1.10608
-1.11157
-1.10734
-1.09095
-1.05792
-1.00345
-0.927765
-0.841117
-0.758884
-0.695781
-0.661881
-0.660289
-0.687
-0.732705
-0.785764
-0.83523
-0.874381
-0.902355
-0.920383
-0.929419
-0.93001
-0.922957
-0.909895
-0.893101
-0.874773
-0.856575
-0.839248
-0.822433
-0.804795
-0.784447
-0.759592
-0.729223
-0.692636
-0.651554
-0.609981
-0.572467
-0.5427
-0.522367
-0.510721
-0.504913
-0.500915
-0.494572
-0.48283
-0.464514
-0.438914
-0.405262
-0.363214
-0.312869
-0.254793
-0.190021
-0.120057
-0.0464186
0.0294741
0.106489
0.183846
0.261007
0.33743
0.412134
0.483659
0.550351
0.610847
0.664714
0.712782
0.756932
0.799303
0.841152
0.881434
0.915623
0.936795
0.93789
0.91411
0.86439
0.791417
0.700395
0.597263
0.488033
0.376706
0.265712
0.158263
0.0584709
-0.0282209
-0.0946453
-0.13525
-0.146196
-0.126461
-0.0786112
0
0.469463
1.2734
2.20291
3.006
3.47574
3.54634
3.2974
2.87949
2.43018
2.03512
1.73979
1.58105
1.47612
1.36488
1.25098
1.13717
1.02691
0.924809
0.835804
0.764129
0.712457
0.681472
0.670004
0.675643
0.695503
0.726847
0.76645
0.812428
0.862898
0.915779
0.968809
1.0198
1.06695
1.10919
1.14645
1.1796
1.21031
1.24064
1.2727
1.30824
1.34876
1.39554
1.44958
1.5118
1.58316
1.66443
1.75594
1.85718
1.96658
2.08167
2.19901
2.31501
2.42676
2.53252
2.63196
2.72601
2.81628
2.90445
2.99172
3.07836
3.16364
3.24555
3.32053
3.38405
3.43166
3.45916
3.46307
3.44113
3.39246
3.3178
3.21942
3.10099
2.96807
2.82653
2.68074
2.53374
2.38756
2.2434
2.10184
1.96329
1.82855
1.69908
1.57716
1.46548
1.36752
1.28668
1.22365
1.17768
1.14717
1.13045
1.12641
1.1347
1.15678
1.19776
1.25993
1.3333
1.40082
1.44482
1.45281
1.42157
1.35836
1.27924
1.20482
1.15453
1.13413
1.13701
1.15652
1.18872
1.22651
1.26294
1.29303
1.31482
1.32955
1.34067
1.35224
1.36726
1.38631
1.40767
1.42665
1.43633
1.42981
1.40213
1.35203
1.28308
1.20364
1.12616
1.06408
1.02825
1.02387
1.04897
1.0952
1.15043
1.20245
1.24319
1.27169
1.28693
1.28992
1.28301
1.26913
1.25124
1.23147
1.21118
1.19102
1.1712
1.15172
1.1326
1.11409
1.09664
1.08086
1.06731
1.05635
1.04796
1.04154
1.03619
1.03104
1.02566
1.02032
1.01602
1.01439
1.01733
1.02658
1.04294
1.06733
1.09991
1.13859
1.17719
1.20754
1.2222
1.21669
1.19116
1.15083
1.10473
1.063
1.03369
1.01863
1.01386
1.0159
1.02153
1.02774
1.03254
1.03537
1.03713
1.03976
1.04547
1.05596
1.07173
1.09203
1.11527
1.13913
1.16122
1.17952
1.19276
1.20048
1.20288
1.20049
1.19417
1.18484
1.17354
1.16141
1.1496
1.13903
1.13043
1.123
1.11407
1.0998
1.07635
1.04104
0.993051
0.933359
0.864084
0.787581
0.706488
0.622532
0.536285
0.448289
0.359513
0.272263
0.190496
0.118582
0.0601585
0.0168097
0
0.264048
0.779349
1.45646
2.16614
2.74655
3.0608
3.04277
2.71099
2.15388
1.50033
0.884589
0.409571
0.137253
0.0838125
0.0545687
0.0304781
0.00972614
-0.00784492
-0.0217304
-0.0306179
-0.0325047
-0.0237053
0.00585213
0.0695644
0.154209
0.233978
0.280517
0.275486
0.219319
0.131277
0.0408674
-0.0243759
-0.0480152
-0.0435715
-0.0225416
0.0110056
0.0555193
0.109724
0.17239
0.242219
0.317699
0.397052
0.478287
0.559398
0.638627
0.714743
0.787253
0.856508
0.923661
0.990494
1.05914
1.13174
1.21018
1.29579
1.38926
1.49058
1.59919
1.71396
1.83338
1.95574
2.07847
2.19665
2.30346
2.39179
2.45501
2.4881
2.48841
2.45576
2.39196
2.30022
2.18466
2.05146
1.90711
1.75702
1.60548
1.4557
1.30996
1.16993
1.03656
0.910286
0.791245
0.679664
0.57613
0.481984
0.398634
0.327443
0.269596
0.226725
0.197346
0.178107
0.164833
0.153365
0.140265
0.123196
0.100988
0.073551
0.0418318
0.00809803
-0.0247352
-0.0521485
-0.0691643
-0.071555
-0.0571836
-0.0269362
0.0151737
0.0628326
0.108901
0.147215
0.173917
0.187301
0.188092
0.179036
0.164233
0.148407
0.135681
0.129353
0.131464
0.142274
0.160356
0.183813
0.210104
0.23601
0.256608
0.267035
0.263163
0.242602
0.205753
0.156535
0.102378
0.0584146
0.114609
0.323952
0.601901
0.812392
0.848246
0.689177
0.408683
0.131445
-0.0297286
-0.028594
0.0208212
0.077967
0.135078
0.188531
0.237128
0.282059
0.326244
0.37395
0.43171
0.502514
0.576469
0.637189
0.668253
0.659663
0.611905
0.536353
0.45189
0.378818
0.332222
0.310294
0.30455
0.308993
0.320356
0.335966
0.353465
0.370934
0.386775
0.399687
0.408574
0.4125
0.410781
0.403174
0.390083
0.372696
0.352996
0.333608
0.317401
0.306967
0.304506
0.312878
0.334271
0.363953
0.390536
0.401929
0.390258
0.356059
0.309688
0.26874
0.252005
0.27228
0.324295
0.395028
0.476811
0.560998
0.640063
0.710011
0.76932
0.819161
0.862517
0.902903
0.943088
0.983876
1.02001
1.04189
1.03934
1.00597
0.942157
0.855705
0.759622
0.668064
0.591905
0.530348
0.479259
0.436745
0.399483
0.363751
0.326253
0.284657
0.237527
0.185937
0.133614
0.0850923
0.0443253
0.0136504
0
0.2392
0.766591
1.50661
2.32408
3.0158
3.39998
3.38947
3.0132
2.39466
1.71271
1.15226
0.83842
0.773529
0.701481
0.631827
0.567123
0.510811
0.471162
0.4604
0.476248
0.505059
0.5284
0.530056
0.502134
0.447594
0.378675
0.312496
0.265838
0.24315
0.241349
0.257761
0.29148
0.340121
0.400221
0.467758
0.538624
0.609431
0.677731
0.742317
0.803286
0.861851
0.919947
0.979716
1.04302
1.11108
1.18431
1.26261
1.34569
1.43337
1.52577
1.62333
1.7267
1.83648
1.95296
2.07591
2.20468
2.33825
2.47527
2.61414
2.75309
2.89018
3.02341
3.1509
3.27096
3.38162
3.47944
3.55746
3.60651
3.61729
3.57845
3.48015
3.31896
3.10173
2.84657
2.57966
2.32908
2.10938
1.91771
1.75689
1.62741
1.52685
1.45138
1.39583
1.35215
1.31284
1.27201
1.22612
1.1742
1.11759
1.05919
1.00263
0.951358
0.907837
0.873985
0.851124
0.840211
0.841935
0.860212
0.902357
0.965014
1.03309
1.08761
1.11243
1.10038
1.05569
0.991568
0.925084
0.871795
0.836933
0.817399
0.810453
0.816811
0.835066
0.859566
0.882939
0.897888
0.898777
0.882973
0.851583
0.809338
0.763607
0.722728
0.692944
0.679748
0.689318
0.715885
0.747037
0.768866
0.770759
0.748986
0.707869
0.658262
0.614013
0.587689
0.5821
0.593634
0.618504
0.654131
0.697035
0.743229
0.788676
0.829397
0.862127
0.884608
0.895647
0.895152
0.884068
0.864209
0.837993
0.808101
0.777148
0.747363
0.720339
0.697248
0.678953
0.665952
0.658391
0.656136
0.658591
0.664335
0.671316
0.677434
0.68097
0.680927
0.677161
0.670241
0.661114
0.650735
0.639809
0.628698
0.617548
0.606477
0.59572
0.585701
0.577018
0.570375
0.5665
0.566038
0.569428
0.576728
0.587854
0.60176
0.615199
0.624266
0.625694
0.6183
0.603965
0.58758
0.575889
0.575617
0.591489
0.622026
0.665784
0.721491
0.787438
0.861898
0.944138
1.03606
1.14392
1.27735
1.4294
1.57208
1.67017
1.69479
1.63566
1.50626
1.33943
1.17487
1.04462
0.950238
0.875917
0.812515
0.756161
0.704128
0.653385
0.600758
0.543244
0.478057
0.401217
0.311417
0.211275
0.10549
0
0.267007
0.918302
1.81635
2.71124
3.37089
3.68373
3.66176
3.36705
2.84541
2.12962
1.29873
0.517085
-0.00531445
-0.0575016
0.192495
0.424205
0.622675
0.773949
0.872444
0.926631
0.945086
0.939286
0.920698
0.898716
0.878686
0.862669
0.851804
0.846592
0.846884
0.852078
0.861102
0.872344
0.883851
0.893892
0.901444
0.906598
0.910773
0.916624
0.927636
0.947464
0.979183
1.02415
1.08199
1.1514
1.23068
1.31772
1.41037
1.50684
1.60582
1.70645
1.80819
1.91057
2.0131
2.11518
2.21603
2.31479
2.41054
2.50238
2.58944
2.67112
2.74709
2.81737
2.88221
2.94167
2.99521
3.04153
3.0784
3.10252
3.10971
3.09556
3.05617
2.98862
2.89104
2.76264
2.60368
2.41727
2.20935
1.98634
1.75408
1.51874
1.28727
1.06707
0.866754
0.696528
0.561967
0.466112
0.409084
0.400934
0.451444
0.534429
0.618803
0.677802
0.697522
0.680548
0.642597
0.603842
0.579469
0.572255
0.573676
0.578869
0.584576
0.588232
0.588342
0.584477
0.577039
0.56699
0.555765
0.544835
0.535884
0.530757
0.53135
0.53945
0.556432
0.583033
0.620218
0.670635
0.739608
0.827416
0.917174
0.985503
1.00906
0.973527
0.880502
0.748515
0.607323
0.488464
0.413374
0.372778
0.35613
0.363297
0.402686
0.484961
0.601275
0.725547
0.831103
0.897777
0.916319
0.888006
0.820697
0.725055
0.613656
0.501884
0.400895
0.316257
0.249887
0.199914
0.164555
0.14074
0.125531
0.117437
0.117071
0.126888
0.150668
0.197045
0.273027
0.377078
0.491853
0.590751
0.650841
0.654333
0.591166
0.46535
0.300775
0.138976
0.0252729
-0.013884
-0.00461369
0.0259325
0.0689903
0.119047
0.171437
0.222857
0.271092
0.314265
0.350558
0.378382
0.396455
0.403994
0.401388
0.390733
0.375901
0.361989
0.354251
0.356829
0.370968
0.395008
0.426844
0.463998
0.503963
0.544941
0.586361
0.629157
0.677967
0.756813
0.935156
1.18565
1.43057
1.57695
1.55968
1.37288
1.07247
0.750548
0.500542
0.387413
0.338903
0.312078
0.297058
0.289759
0.285066
0.277884
0.264012
0.240793
0.207561
0.165754
0.118676
0.0709551
0.0278414
0
0.199971
0.806128
1.57737
2.31179
2.82408
2.99812
2.81366
2.34531
1.7462
1.20898
0.901861
0.876236
0.816219
0.725323
0.616693
0.478662
0.32341
0.173415
0.0520977
-0.0247315
-0.0535388
-0.0422039
-0.00500364
0.0433577
0.0917583
0.135724
0.174489
0.20696
0.23278
0.252394
0.26717
0.279436
0.292326
0.309415
0.334221
0.369399
0.416027
0.474454
0.544402
0.624906
0.715108
0.813099
0.912107
1.00123
1.0699
1.11103
1.12399
1.11639
1.10344
1.10487
1.14022
1.22324
1.34665
1.49951
1.6754
1.869
2.07465
2.28522
2.49154
2.68221
2.84332
2.96557
3.04493
3.08072
3.07555
3.03531
2.96851
2.88465
2.79195
2.6955
2.5969
2.49572
2.39085
2.28071
2.16388
2.03955
1.90788
1.77027
1.62935
1.4889
1.35333
1.22737
1.11516
1.01952
0.941609
0.880988
0.835773
0.803629
0.781814
0.766585
0.754855
0.744612
0.735096
0.726674
0.720435
0.717616
0.71907
0.724912
0.734651
0.747462
0.76259
0.779621
0.798465
0.819049
0.840997
0.862827
0.881979
0.895397
0.900351
0.89523
0.879946
0.855879
0.825431
0.791448
0.756798
0.723481
0.693044
0.666755
0.645626
0.630478
0.622024
0.620901
0.627633
0.642486
0.666004
0.699094
0.739754
0.781101
0.814822
0.833323
0.831973
0.810555
0.773401
0.728248
0.684318
0.64998
0.628403
0.619689
0.628892
0.657413
0.694477
0.72611
0.739377
0.72662
0.687977
0.631095
0.568323
0.512961
0.475921
0.457827
0.456449
0.471811
0.504083
0.552054
0.616365
0.691679
0.769457
0.840832
0.898353
0.937256
0.955866
0.955189
0.938049
0.908257
0.871297
0.831059
0.791024
0.754413
0.723929
0.701507
0.687879
0.683245
0.687175
0.698851
0.717034
0.740371
0.767766
0.798136
0.830356
0.863337
0.896146
0.928216
0.959535
0.990711
1.02286
1.05745
1.09666
1.14246
1.19074
1.23121
1.25109
1.23987
1.1937
1.1175
1.02376
0.92871
0.847296
0.783981
0.734854
0.698479
0.671037
0.6461
0.616709
0.57685
0.522684
0.453253
0.370497
0.277854
0.181372
0.0871277
0
-0.0483648
0.288192
0.903034
1.66577
2.37982
2.85106
2.97007
2.74418
2.26943
1.6777
1.09617
0.633305
0.388047
0.446253
0.514627
0.556947
0.546571
0.467329
0.320397
0.125733
-0.0835725
-0.272133
-0.413487
-0.506311
-0.551617
-0.557029
-0.532314
-0.486347
-0.428674
-0.366573
-0.304601
-0.247295
-0.198913
-0.162688
-0.140051
-0.130181
-0.130064
-0.135072
-0.139879
-0.139432
-0.130617
-0.112188
-0.0836305
-0.0451363
0.0022418
0.0571368
0.117914
0.182973
0.251648
0.324556
0.403593
0.491478
0.590915
0.703597
0.829344
0.965396
1.1072
1.24898
1.3845
1.508
1.61487
1.7007
1.76077
1.793
1.79702
1.77267
1.7201
1.64024
1.53548
1.41003
1.2699
1.12238
0.974939
0.832798
0.699498
0.578081
0.468974
0.36792
0.268834
0.165637
0.0540243
-0.0674391
-0.197244
-0.331841
-0.467112
-0.599957
-0.729383
-0.854856
-0.976071
-1.09273
-1.20355
-1.30481
-1.39014
-1.45248
-1.48564
-1.48646
-1.45655
-1.40274
-1.33593
-1.26837
-1.2101
-1.16474
-1.12903
-1.10063
-1.07676
-1.05579
-1.03745
-1.02383
-1.01797
-1.02157
-1.03324
-1.04788
-1.05779
-1.05483
-1.03284
-0.986596
-0.910967
-0.818731
-0.734108
-0.680298
-0.672253
-0.71188
-0.786819
-0.873788
-0.94631
-0.984456
-0.988664
-0.973718
-0.950208
-0.92374
-0.898786
-0.878669
-0.865149
-0.858331
-0.856819
-0.858072
-0.858884
-0.855994
-0.845588
-0.821463
-0.780746
-0.735105
-0.701718
-0.695961
-0.723273
-0.774273
-0.826189
-0.850703
-0.824931
-0.746303
-0.638749
-0.516217
-0.386025
-0.258665
-0.145678
-0.0558409
0.00547905
0.0365383
0.0390095
0.0175293
-0.0209003
-0.067609
-0.1131
-0.148984
-0.170142
-0.172568
-0.154055
-0.11503
-0.0585213
0.0105114
0.085614
0.159543
0.224955
0.275729
0.308733
0.323703
0.323305
0.312952
0.300342
0.294506
0.304373
0.337013
0.394883
0.474234
0.569241
0.674957
0.785367
0.894489
0.997644
1.09211
1.1772
1.25321
1.319
1.37256
1.41033
1.42406
1.40404
1.34409
1.24563
1.11908
0.981544
0.851667
0.742816
0.652566
0.579591
0.519695
0.466413
0.413031
0.354443
0.287709
0.213695
0.137196
0.0642601
0
-0.0413479
0.318054
0.955201
1.74614
2.56987
3.25543
3.63601
3.62393
3.25358
2.65883
2.00327
1.41367
0.955664
0.663756
0.574674
0.515319
0.465512
0.425004
0.395501
0.377983
0.373089
0.380906
0.400792
0.431369
0.470721
0.516713
0.567303
0.620547
0.674771
0.728125
0.777992
0.821557
0.856402
0.881479
0.8979
0.909085
0.920081
0.936243
0.961784
0.997447
1.04169
1.09282
1.14917
1.20905
1.27108
1.3344
1.39878
1.46464
1.53292
1.60508
1.68292
1.76852
1.86402
1.97125
2.09139
2.22459
2.36959
2.52443
2.68572
2.84523
2.99197
3.1157
3.20876
3.26731
3.29144
3.28441
3.25109
3.19636
3.12381
3.03704
2.93833
2.82859
2.70804
2.57666
2.43468
2.28278
2.12226
1.95522
1.78461
1.61416
1.44826
1.29157
1.14852
1.02276
0.917706
0.837074
0.781123
0.740614
0.703896
0.660006
0.601839
0.528423
0.444349
0.362673
0.299105
0.267087
0.273595
0.317067
0.387988
0.471778
0.552819
0.618953
0.662864
0.683063
0.683339
0.671197
0.655781
0.64559
0.645534
0.656682
0.681496
0.717641
0.755623
0.784374
0.794665
0.782037
0.748139
0.699927
0.647124
0.599135
0.562089
0.535818
0.51941
0.513012
0.517056
0.533897
0.558795
0.580574
0.586287
0.565994
0.517591
0.448849
0.37516
0.313863
0.277939
0.263334
0.264882
0.279509
0.303006
0.331114
0.360307
0.388726
0.415869
0.442534
0.470594
0.502583
0.542091
0.595991
0.672527
0.763508
0.845154
0.888601
0.870737
0.784387
0.643416
0.479932
0.333789
0.23842
0.189349
0.182909
0.21297
0.269586
0.342241
0.422153
0.502896
0.581796
0.657516
0.729153
0.796186
0.8585
0.916332
0.970208
1.02087
1.0692
1.11621
1.16299
1.2106
1.26008
1.31233
1.36784
1.42541
1.47997
1.52298
1.54469
1.53689
1.49567
1.42329
1.32811
1.22258
1.11973
1.02881
0.950108
0.880256
0.816721
0.756252
0.695025
0.629269
0.555622
0.469736
0.368274
0.253249
0.129038
0
0.0604261
0.47064
1.19514
2.11883
3.03888
3.72261
3.98492
3.75764
3.11847
2.26136
1.41624
0.756037
0.343734
0.153832
0.194312
0.247582
0.300661
0.349508
0.390627
0.422286
0.445248
0.462625
0.478772
0.497549
0.521986
0.5494
0.573493
0.58768
0.588612
0.577901
0.561156
0.545032
0.534112
0.52869
0.526593
0.526533
0.527839
0.530935
0.537166
0.548129
0.564891
0.586954
0.612991
0.641911
0.672652
0.704541
0.737469
0.771833
0.80829
0.847448
0.889598
0.934565
0.981874
1.031
1.08156
1.13356
1.18751
1.24442
1.30573
1.37312
1.44828
1.53384
1.63652
1.77126
1.95367
2.16388
2.35696
2.49095
2.53712
2.48598
2.34587
2.13388
1.86501
1.55016
1.21499
0.889984
0.586553
0.306506
0.0506569
-0.177292
-0.374544
-0.540016
-0.674172
-0.777589
-0.845222
-0.858362
-0.794711
-0.682495
-0.568327
-0.500673
-0.512616
-0.607644
-0.757673
-0.915802
-1.03783
-1.10101
-1.13106
-1.14695
-1.15395
-1.15367
-1.14639
-1.13131
-1.10719
-1.07324
-1.0278
-0.972301
-0.913567
-0.858925
-0.812988
-0.775394
-0.740756
-0.701038
-0.649374
-0.58352
-0.508701
-0.432022
-0.360371
-0.299744
-0.253801
-0.22326
-0.206186
-0.19887
-0.196885
-0.195844
-0.192592
-0.184779
-0.170951
-0.150664
-0.124574
-0.0941212
-0.0621994
-0.0323338
-0.0081768
0.00695114
0.0103539
0
-0.0441902
-0.103671
-0.177797
-0.264709
-0.361175
-0.46471
-0.562855
-0.407389
-0.00499229
0.451699
0.707052
0.600655
0.169805
-0.369356
-0.73836
-0.713352
-0.380335
-0.0489883
0.250268
0.491759
0.660968
0.7576
0.794643
0.793616
0.777822
0.766052
0.766038
0.776208
0.794328
0.818047
0.844329
0.869829
0.891257
0.905668
0.910792
0.905008
0.887343
0.857458
0.81566
0.762906
0.700805
0.631554
0.5578
0.482386
0.408001
0.336931
0.270834
0.210651
0.15668
0.108927
0.0670887
0.0308434
0
-0.0200958
0.0103184
0.299199
0.817963
1.53311
2.3297
3.02752
3.43296
3.40681
2.9223
2.09022
1.13823
0.341197
-0.0772339
-0.0157192
0.405017
0.789112
1.08723
1.25819
1.29019
1.20961
1.06899
0.922729
0.80659
0.724738
0.661326
0.609732
0.571478
0.547846
0.540019
0.548318
0.571496
0.606788
0.649501
0.694498
0.737662
0.777224
0.814498
0.853742
0.901183
0.969169
1.09534
1.29892
1.52677
1.71035
1.79506
1.76199
1.63603
1.47679
1.35455
1.32085
1.36099
1.43203
1.51718
1.61129
1.71211
1.81841
1.92975
2.04654
2.17
2.30037
2.43337
2.55871
2.66358
2.73603
2.76751
2.75415
2.69681
2.59987
2.46923
2.31009
2.12704
1.92536
1.71018
1.48534
1.25354
1.0179
0.782643
0.552673
0.332969
0.127831
-0.0592506
-0.226615
-0.375491
-0.508786
-0.630162
-0.742976
-0.849391
-0.94991
-1.04341
-1.12765
-1.20049
-1.25972
-1.30374
-1.33176
-1.34372
-1.33996
-1.3211
-1.28804
-1.242
-1.18306
-1.11179
-1.03406
-0.958438
-0.893327
-0.844716
-0.81458
-0.800736
-0.7983
-0.802143
-0.809264
-0.819471
-0.834127
-0.855628
-0.885604
-0.926105
-0.974217
-1.01961
-1.04999
-1.05542
-1.03193
-0.982804
-0.917134
-0.846352
-0.780406
-0.723438
-0.674258
-0.632537
-0.597481
-0.568176
-0.543777
-0.524078
-0.509235
-0.499594
-0.495463
-0.496891
-0.503468
-0.514167
-0.527546
-0.540782
-0.549452
-0.548847
-0.534936
-0.505246
-0.459268
-0.398161
-0.323865
-0.23806
-0.141495
-0.0270855
0.118835
0.2832
0.434311
0.532707
0.551287
0.490086
0.376013
0.249023
0.144739
0.08097
0.0413742
0.0147079
-0.00289421
-0.0132431
-0.0185127
-0.0206753
-0.0212456
-0.0211239
-0.0206009
-0.019516
-0.0175404
-0.014465
-0.0104561
-0.0060955
-0.00224724
0
-0.00711784
0.0466576
0.411664
1.10512
1.95951
2.68885
3.03467
2.89274
2.34582
1.59712
0.863539
0.296316
-0.0389013
-0.0494623
0.0806707
0.237092
0.407368
0.563839
0.675643
0.720512
0.693821
0.610926
0.501445
0.397296
0.319933
0.266224
0.226166
0.196356
0.180874
0.184435
0.213613
0.274848
0.371976
0.504192
0.665205
0.849707
1.03793
1.2062
1.33569
1.41643
1.4488
1.44274
1.41485
1.38441
1.36926
1.37831
1.40957
1.45923
1.52496
1.60505
1.69771
1.80114
1.91392
2.03534
2.16545
2.30487
2.45432
2.61565
2.79317
2.98575
3.17889
3.35362
3.49314
3.58715
3.63275
3.63218
3.58935
3.50767
3.39051
3.24812
3.09177
2.9308
2.77295
2.62346
2.48367
2.35266
2.22864
2.10829
1.9875
79
290
507
720
933
1149
1365
1578
1642
1795
2017
2242
2465
2683
2895
3109
3312
3452
3502
3677
3648
3667
3395
3599
3434
3646
0
0
0
0
0
0
0
0
0
0
0
0
0
0
0
0
0
0
0
0
0
0
0
0
0
0
0
0
0
0
0
0
0
0
0
0
0
0
0
0
0
0
0
0
0
0
0
0
0
0
0
0
0
0
0
0
0
0
0
0
0
0
0
0
0
0
0
0
0
0
0
0
0
0
0
0
0
0
0
0
0
0
0
0
0
0
0
0
0
0
0
0
0
0
0
0
0
0
0
0
0
0
0
0
0
0
0
0
0
0
0
0
0
0
0
0
0
0
0
0
0
0
0
0
0
0
0
0
0
0
0
0
0
0
0
0
0
0
0
0
0
0
0
0
0
0
0
0
0
0
0
0
0
0
0
0
0
0
0
0
0
0
0
0
0
0
0
0
0
0
0
0
0
0
0
0
0
0
0
0
0
0
0
0
0
0
0
0
0
0
0
0
0
0
0
0
0
0
0
0
0
0
0
0
0
0
0
0
0
0
0
0
0
0
0
0
0
0
0
0
0
0
0
0
0
0
0
0
0
0
0
0
0
0
0
0
0
0
0
0
0
0
0
0
0
0
0
0
0
0
0
0
0
0
0
0
0
0
0
0
0
0
0
0
0
0
0
0
0
0
0
0
0
0
0
0
0
0
0
0
0
0
0
0
0
0
0
0
0
0
0
0
0
0
0
0
0
0
0
0
0
0
0
0
0
0
0
0
0
0
0
0
0
0
0
0
0
0
0
0
0
0
0
0
0
0
0
0
0
0
0
0
0
0
0
0
0
0
0
0
0
0
0
0
0
0
0
0
0
0
0
0
0
0
0
0
0
0
0
0
0
0
0
0
0
0
0
0
0
0
0
0
0
0
0
0
0
0
0
0
0
0
0
0
0
0
0
0
0
0
0
0
0
0
0
0
0
0
0
0
0
0
0
0
0
0
0
0
0
0
0
0
0
0
0
0
0
0
0
0
0
0
0
0
0
0
0
0
0
0
0
0
0
0
0
0
0
0
0
0
0
0
0
0
0
0
0
0
0
0
0
0
0
0
0
0
0
0
0
0
0
0
0
0
0
0
0
0
0
0
0
0
0
0
0
0
0
0
0
0
0
0
0
0
0
0
0
0
0
0
0
0
0
0
0
0
0
0
0
0
0
0
0
0
0
0
0
0
0
0
0
0
0
0
0
0
0
0
0
0
0
0
0
0
0
0
0
0
0
0
0
0
0
0
0
0
0
0
0
0
0
0
0
0
0
0
0
0
0
0
0
0
0
0
0
0
0
0
0
0
0
0
0
0
0
0
0
0
0
0
0
0
0
0
0
0
0
0
0
0
0
0
0
0
0
0
0
0
0
0
0
0
0
0
0
0
0
0
0
0
0
0
0
0
0
0
0
0
0
0
0
0
0
0
0
0
0
0
0
0
0
0
0
0
0
0
0
0
0
0
0
0
0
0
0
0
0
0
0
0
0
0
0
0
0
0
0
0
0
0
0
0
0
0
0
0
0
0
0
0
0
0
0
0
0
0
0
0
0
0
0
0
0
0
0
0
0
0
0
0
0
0
0
0
0
0
0
0
0
0
0
0
0
0
0
0
0
0
0
0
0
0
0
0
0
0
0
0
0
0
0
0
0
0
0
0
0
0
0
0
0
0
0
0
0
0
0
0
0
0
0
0
0
0
0
0
0
0
0
0
0
0
0
0
0
0
0
0
0
0
0
0
0
0
0
0
0
0
0
0
0
0
0
0
0
0
0
0
0
0
0
0
0
0
0
0
0
0
0
0
0
0
0
0
0
0
0
0
0
0
0
0
0
0
0
0
0
0
0
0
0
0
0
0
0
0
0
0
0
0
0
0
0
0
0
0
0
0
0
0
0
0
0
0
0
0
0
0
0
0
0
0
0
0
0
0
0
0
0
0
0
0
0
0
0
0
0
0
0
0
0
0
0
0
0
0
0
0
0
0
0
0
0
0
0
0
0
0
0
0
0
0
0
0
0
0
0
0
0
0
0
0
0
0
0
0
0
0
0
0
0
0
0
0
0
0
0
0
0
0
0
0
0
0
0
0
0
0
0
0
0
0
0
0
0
0
0
0
0
0
0
0
0
0
0
0
0
0
0
0
0
0
0
0
0
0
0
0
0
0
0
0
0
0
0
0
0
0
0
0
0
0
0
0
0
0
0
0
0
0
0
0
0
0
0
0
0
0
0
0
0
0
0
0
0
0
0
0
0
0
0
0
0
0
0
0
0
0
0
0
0
0
0
0
0
0
0
0
0
0
0
0
0
0
0
0
0
0
0
0
0
0
0
0
0
0
0
0
0
0
0
0
0
0
0
0
0
0
0
0
0
0
0
0
0
0
0
0
0
0
0
0
0
0
0
0
0
0
0
0
0
0
0
0
0
0
0
0
0
0
0
0
0
0
0
0
0
0
0
0
0
0
0
0
0
0
0
0
0
0
0
0
0
0
0
0
0
0
0
0
0
0
0
0
0
0
0
0
0
0
0
0
0
0
0
0
0
0
0
0
0
0
0
0
0
0
0
0
0
0
0
0
0
0
0
0
0
0
0
0
0
0
0
0
0
0
0
0
0
0
0
0
0
0
0
0
0
0
0
0
0
0
0
0
0
0
0
0
0
0
0
0
0
0
0
0
0
0
0
0
0
0
0
0
0
0
0
0
0
0
0
0
0
0
0
0
0
0
0
0
0
0
0
0
0
0
0
0
0
0
0
0
0
0
0
0
0
0
0
0
0
0
0
0
0
0
0
0
0
0
0
0
0
0
0
0
0
0
0
0
0
0
0
0
0
0
0
0
0
0
0
0
0
0
0
0
0
0
0
0
0
0
0
0
0
0
0
0
0
0
0
0
0
0
0
0
0
0
0
0
0
0
0
0
0
0
0
0
0
0
0
0
0
0
0
0
0
0
0
0
0
0
0
0
0
0
0
0
0
0
0
0
0
0
0
0
0
0
0
0
0
0
0
0
0
0
0
0
0
0
0
0
0
0
0
0
0
0
0
0
0
0
0
0
0
0
0
0
0
0
0
0
0
0
0
0
0
0
0
0
0
0
0
0
0
0
0
0
0
0
0
0
0
0
0
0
0
0
0
0
0
0
0
0
0
0
0
0
0
0
0
0
0
0
0
0
0
0
0
0
0
0
0
0
0
0
0
0
0
0
0
0
0
0
0
0
0
0
0
0
0
0
0
0
0
0
0
0
0
0
0
0
0
0
0
0
0
0
0
0
0
0
0
0
0
0
0
0
0
0
0
0
0
0
0
0
0
0
0
0
0
0
0
0
0
0
0
0
0
0
0
0
0
0
0
0
0
0
0
0
0
0
0
0
0
0
0
0
0
0
0
0
0
0
0
0
0
0
0
0
0
0
0
0
0
0
0
0
0
0
0
0
0
0
0
0
0
0
0
0
0
0
0
0
0
0
0
0
0
0
0
0
0
0
0
0
0
0
0
0
0
0
0
0
0
0
0
0
0
0
0
0
0
0
0
0
0
0
0
0
0
0
0
0
0
0
0
0
0
0
0
0
0
0
0
0
0
0
0
0
0
0
0
0
0
0
0
0
0
0
0
0
0
0
0
0
0
0
0
0
0
0
0
0
0
0
0
0
0
0
0
0
0
0
0
0
0
0
0
0
0
0
0
0
0
0
0
0
0
0
0
0
0
0
0
0
0
0
0
0
0
0
0
0
0
0
0
0
0
0
0
0
0
0
0
0
0
0
0
0
0
0
0
0
0
0
0
0
0
0
0
0
0
0
0
0
0
0
0
0
0
0
0
0
0
0
0
0
0
0
0
0
0
0
0
0
0
0
0
0
0
0
0
0
0
0
0
0
0
0
0
0
0
0
0
0
0
0
0
0
0
0
0
0
0
0
0
0
0
0
0
0
0
0
0
0
0
0
0
0
0
0
0
0
0
0
0
0
0
0
0
0
0
0
0
0
0
0
0
0
0
0
0
0
0
0
0
0
0
0
0
0
0
0
0
0
0
0
0
0
0
0
0
0
0
0
0
0
0
0
0
0
0
0
0
0
0
0
0
0
0
0
0
0
0
0
0
0
0
0
0
0
0
0
0
0
0
0
0
0
0
0
0
0
0
0
0
0
0
0
0
0
0
0
0
0
0
0
0
0
0
0
0
0
0
0
0
0
0
0
0
0
0
0
0
0
0
0
0
0
0
0
0
0
0
0
0
0
0
0
0
0
0
0
0
0
0
0
0
0
0
0
0
0
0
0
0
0
0
0
0
0
0
0
0
0
0
0
0
0
0
0
0
0
0
0
0
0
0
0
0
0
0
0
0
0
0
0
0
0
0
0
0
0
0
0
0
0
0
0
0
0
0
0
0
0
0
0
0
0
0
0
0
0
0
0
0
0
0
0
0
0
0
0
0
0
0
0
0
0
0
0
0
0
0
0
0
0
0
0
0
0
0
0
0
0
0
0
0
0
0
0
0
0
0
0
0
0
0
0
0
0
0
0
0
0
0
0
0
0
0
0
0
0
0
0
0
0
0
0
0
0
0
0
0
0
0
0
0
0
0
0
0
0
0
0
0
0
0
0
0
0
0
0
0
0
0
0
0
0
0
0
0
0
0
0
0
0
0
0
0
0
0
0
0
0
0
0
0
0
0
0
0
0
0
0
0
0
0
0
0
0
0
0
0
0
0
0
0
0
0
0
0
0
0
0
0
0
0
0
0
0
0
0
0
0
0
0
0
0
0
0
0
0
0
0
0
0
0
0
0
0
0
0
0
0
0
0
0
0
0
0
0
0
0
0
0
0
0
0
0
0
0
0
0
0
0
0
0
0
0
0
0
0
0
0
0
0
0
0
0
0
0
0
0
0
0
0
0
0
0
0
0
0
0
0
0
0
0
0
0
0
0
0
0
0
0
0
0
0
0
0
0
0
0
0
0
0
0
0
0
0
0
0
0
0
0
0
0
0
0
0
0
0
0
0
0
0
0
0
0
0
0
0
0
0
0
0
0
0
0
0
0
0
0
0
0
0
0
0
0
0
0
0
0
0
0
0
0
0
0
0
0
0
0
0
0
0
0
0
0
0
0
0
0
0
0
0
0
0
0
0
0
0
0
0
0
0
0
0
0
0
0
0
0
0
0
0
0
0
0
0
0
0
0
0
0
0
0
0
0
0
0
0
0
0
0
0
0
0
0
0
0
0
0
0
0
0
0
0
0
0
0
0
0
0
0
0
0
0
0
0
0
0
0
0
0
0
0
0
0
0
0
0
0
0
0
0
0
0
0
0
0
0
0
0
0
0
0
0
0
0
0
0
0
0
0
0
0
0
0
0
0
0
0
0
0
0
0
0
0
0
0
0
0
0
0
0
0
0
0
0
0
0
0
0
0
0
0
0
0
0
0
0
0
0
0
0
0
0
0
0
0
0
0
0
0
0
0
0
0
0
0
0
0
0
0
0
0
0
0
0
0
0
0
0
0
0
0
0
0
0
0
0
0
0
0
0
0
0
0
0
0
0
0
0
0
0
0
0
0
0
0
0
0
0
0
0
0
0
0
0
0
0
0
0
0
0
0
0
0
0
0
0
0
0
0
0
0
0
0
0
0
0
0
0
0
0
0
0
0
0
0
0
0
0
0
0
0
0
0
0
0
0
0
0
0
0
0
0
0
0
0
0
0
0
0
0
0
0
0
0
0
0
0
0
0
0
0
0
0
0
0
0
0
0
0
0
0
0
0
0
0
0
0
0
0
0
0
0
0
0
0
0
0
0
0
0
0
0
0
0
0
0
0
0
0
0
0
0
0
0
0
0
0
0
0
0
0
0
0
0
0
0
0
0
0
0
0
0
0
0
0
0
0
0
0
0
0
0
0
0
0
0
0
0
0
0
0
0
0
0
0
0
0
0
0
0
0
0
0
0
0
0
0
0
0
0
0
0
0
0
0
0
0
0
0
0
0
0
0
0
0
0
0
0
0
0
0
0
0
0
0
0
0
0
0
0
0
0
0
0
0
0
0
0
0
0
0
0
0
0
0
0
0
0
0
0
0
0
0
0
0
0
0
0
0
0
0
0
0
0
0
0
0
0
0
0
0
0
0
0
0
0
0
0
0
0
0
0
0
0
0
0
0
0
0
0
0
0
0
0
0
0
0
0
0
0
0
0
0
0
0
0
0
0
0
0
0
0
0
0
0
0
0
0
0
0
0
0
0
0
0
0
0
0
0
0
0
0
0
0
0
0
0
0
0
0
0
0
0
0
0
0
0
0
0
0
0
0
0
0
0
0
0
0
0
0
0
0
0
0
0
0
0
0
0
0
0
0
0
0
0
0
0
0
0
0
0
0
0
0
0
0
0
0
0
0
0
0
0
0
0
0
0
0
0
0
0
0
0
0
0
0
0
0
0
0
0
0
0
0
0
0
0
0
0
0
0
0
0
0
0
0
0
0
0
0
0
0
0
0
0
0
0
0
0
0
0
0
0
0
0
0
0
0
0
0
0
0
0
0
0
0
0
0
0
0
0
0
0
0
0
0
0
0
0
0
0
0
0
0
0
0
0
0
0
0
0
0
0
0
0
0
0
0
0
0
0
0
0
0
0
0
0
0
0
0
0
0
0
0
0
0
0
0
0
0
0
0
0
0
0
0
0
0
0
0
0
0
0
0
0
0
0
0
0
0
0
0
0
0
0
0
0
0
0
0
0
0
0
0
0
0
0
0
0
0
0
0
0
0
0
0
0
0
0
0
0
0
0
0
0
0
0
0
0
0
0
0
0
0
0
0
0
0
0
0
0
0
0
0
0
0
0
0
0
0
0
0
0
0
0
0
0
0
0
0
0
0
0
0
0
0
0
0
0
0
0
0
0
0
0
0
0
0
0
0
0
0
0
0
0
0
0
0
0
0
0
0
0
0
0
0
0
0
0
0
0
0
0
0
0
0
0
0
0
0
0
0
0
0
0
0
0
0
0
0
0
0
0
0
0
0
0
0
0
0
0
0
0
0
0
0
0
0
0
0
0
0
0
0
0
0
0
0
0
0
0
0
0
0
0
0
0
0
0
0
0
0
0
0
0
0
0
0
0
0
0
0
0
0
0
0
0
0
0
0
0
0
0
0
0
0
0
0
0
0
0
0
0
0
0
0
0
0
0
0
0
0
0
0
0
0
0
0
0
0
0
0
0
0
0
0
0
0
0
0
0
0
0
0
0
0
0
0
0
0
0
0
0
0
0
0
0
0
0
0
0
0
0
0
0
0
0
0
0
0
0
0
0
0
0
0
0
0
0
0
0
0
0
0
0
0
0
0
0
0
0
0
0
0
0
0
0
0
0
0
0
0
0
0
0
0
0
0
0
0
0
0
0
0
0
0
0
0
0
0
0
0
0
0
0
0
0
0
0
0
0
0
0
0
0
0
0
0
0
0
0
0
0
0
0
0
0
0
0
0
0
0
0
0
0
0
0
0
0
0
0
0
0
0
0
0
0
0
0
0
0
0
0
0
0
0
0
0
0
0
0
0
0
0
0
0
0
0
0
0
0
0
0
0
0
0
0
0
0
0
0
0
0
0
0
0
0
0
0
0
0
0
0
0
0
0
0
0
0
0
0
0
0
0
0
0
0
0
0
0
0
0
0
0
0
0
0
0
0
0
0
0
0
0
0
0
0
0
0
0
0
0
0
0
0
0
0
0
0
0
0
0
0
0
0
0
0
0
0
0
0
0
0
0
0
0
0
0
0
0
0
0
0
0
0
0
0
0
0
0
0
0
0
0
0
0
0
0
0
0
0
0
0
0
0
0
0
0
0
0
0
0
0
0
0
0
0
0
0
0
0
0
0
0
0
0
0
0
0
0
0
0
0
0
0
0
0
0
0
0
0
0
0
0
0
0
0
0
0
0
0
0
0
0
0
0
0
0
0
0
0
0
0
0
0
0
0
0
0
0
0
0
0
0
0
0
0
0
0
0
0
0
0
0
0
0
0
0
0
0
0
0
0
0
0
0
0
0
0
0
0
0
0
0
0
0
0
0
0
0
0
0
0
0
0
0
0
0
0
0
0
0
0
0
0
0
0
0
0
0
0
0
0
0
0
0
0
0
0
0
0
0
0
0
0
0
0
0
0
0
0
0
0
0
0
0
0
0
0
0
0
0
0
0
0
0
0
0
0
0
0
0
0
0
0
0
0
0
0
0
0
0
0
0
0
0
0
0
0
0
0
0
0
0
0
0
0
0
0
0
0
0
0
0
0
0
0
0
0
0
0
0
0
0
0
0
0
0
0
0
0
0
0
0
0
0
0
0
0
0
0
0
0
0
0
0
0
0
0
0
0
0
0
0
0
0
0
0
0
0
0
0
0
0
0
0
0
0
0
0
0
0
0
0
0
0
0
0
0
0
0
0
0
0
0
0
0
0
0
0
0
0
0
0
0
0
0
0
0
