-2.06163
-1.94586
-1.81478
-1.67032
-1.51597
-1.35674
-1.19824
-1.04596
-0.904353
-0.776067
-0.66166
-0.559714
-0.467422
-0.381406
-0.298663
-0.217235
-0.136789
-0.059433
0.0102898
0.0661118
0.10153
0.110708
0.0893547
0.0353203
-0.0511566
-0.167594
-0.30979
-0.472582
-0.65056
-0.837934
-1.02987
-1.22309
-1.41486
-1.60255
-1.78357
-1.9555
-2.11622
-2.2636
-2.39612
-2.51326
-2.6151
-2.70214
-2.77501
-2.83262
-2.87306
-2.89469
-2.89469
-2.86957
-2.80468
-2.64257
-2.37263
-2.0746
-1.84766
-1.76768
-1.84971
-2.03671
-2.22636
-2.32498
-2.296
-2.20995
-2.10969
-2.00646
-1.90565
-1.81087
-1.72404
-1.6457
-1.57548
-1.51275
-1.45705
-1.40827
-1.36654
-1.33194
-1.30433
-1.28304
-1.26674
-1.25351
-1.24122
-1.22795
-1.21248
-1.19447
-1.17452
-1.15383
-1.13366
-1.1149
-1.09777
-1.08192
-1.06678
-1.0521
-1.03842
-1.02727
-1.02055
-1.01938
-1.02272
-1.02659
-1.02422
-1.00723
-0.967802
-0.900927
-0.808688
-0.696095
-0.569384
-0.437257
-0.310062
-0.198192
-0.108677
-0.0445313
-0.00453568
0.0163406
0.025988
0.033757
0.0487366
0.0792442
0.138116
0.221639
0.308872
0.374414
0.399205
0.378852
0.325816
0.264642
0.222469
0.218888
0.248824
0.314203
0.396656
0.465952
0.492031
0.453677
0.344631
0.175066
-0.0769058
0
1.00837
3.17715
6.26486
9.55059
12.0918
13.1377
12.4685
10.4559
7.82162
5.26861
3.22205
1.79747
0.928524
0.49885
0.463992
0.437288
0.411515
0.386828
0.364144
0.345292
0.332775
0.329213
0.338087
0.363261
0.404532
0.453282
0.497362
0.525172
0.529339
0.509245
0.471584
0.428839
0.396125
0.387296
0.406931
0.451693
0.516612
0.597385
0.690063
0.790757
0.896195
1.00445
1.11524
1.22981
1.35043
1.47958
1.61916
1.76978
1.93038
2.09847
2.27021
2.44077
2.60416
2.75185
2.87371
2.96438
3.02034
3.04078
3.02891
2.99252
2.94286
2.89156
2.84654
2.80832
2.7704
2.72226
2.65224
2.55141
2.41645
2.25059
2.06241
1.86319
1.66381
1.4701
1.28445
1.10824
0.941177
0.781652
0.627226
0.47527
0.323567
0.170831
0.0170166
-0.13629
-0.285248
-0.422868
-0.540829
-0.632193
-0.692113
-0.718965
-0.714934
-0.685834
-0.640126
-0.587262
-0.535722
-0.490455
-0.451919
-0.418553
-0.387815
-0.35576
-0.314274
-0.234413
-0.0587349
0.180937
0.404956
0.520144
0.467902
0.260499
-0.0175507
-0.247326
-0.333971
-0.277016
-0.173834
-0.0577072
0.0623222
0.177786
0.277827
0.35006
0.386688
0.380432
0.326463
0.226386
0.0916313
-0.0565994
-0.191986
-0.290827
-0.34598
-0.36369
-0.34916
-0.312152
-0.264262
-0.21637
-0.175209
-0.145299
-0.128728
-0.125155
-0.131987
-0.144779
-0.157926
-0.165592
-0.16277
-0.146299
-0.116635
-0.0757607
-0.0258537
0.0305099
0.0907021
0.152584
0.21483
0.277065
0.339767
0.404041
0.47133
0.543416
0.62241
0.707568
0.787929
0.844836
0.857369
0.809535
0.697302
0.532354
0.340482
0.154791
0.00607605
-0.10008
-0.175172
-0.221452
-0.241796
-0.241097
-0.225383
-0.201077
-0.174585
-0.152811
-0.144569
-0.157626
-0.198515
-0.270979
-0.37424
-0.501995
-0.642909
-0.718328
0
1.75327
4.50336
7.73722
10.638
12.4088
12.6089
11.3163
9.04382
6.48726
4.25491
2.6921
1.83855
1.49671
1.36404
1.12483
0.898493
0.687316
0.497814
0.334575
0.199527
0.0963184
0.0218945
-0.0326508
-0.0770802
-0.119523
-0.164717
-0.213528
-0.263776
-0.311843
-0.354305
-0.389775
-0.418534
-0.440477
-0.4555
-0.463398
-0.463773
-0.456116
-0.439952
-0.415157
-0.381933
-0.340525
-0.291405
-0.23535
-0.173502
-0.107418
-0.0390327
0.0295479
0.096302
0.159925
0.220366
0.279186
0.339595
0.406108
0.483856
0.586329
0.75374
1.02732
1.33508
1.58639
1.70758
1.66006
1.45259
1.14431
0.829092
0.595534
0.47068
0.367328
0.250656
0.101223
-0.0899147
-0.318283
-0.567812
-0.816892
-1.0461
-1.25058
-1.43098
-1.58889
-1.72788
-1.85139
-1.96124
-2.05725
-2.13791
-2.2016
-2.24948
-2.2837
-2.3065
-2.32102
-2.33077
-2.33908
-2.34843
-2.36039
-2.37567
-2.39408
-2.41459
-2.43546
-2.45425
-2.46791
-2.47296
-2.46567
-2.44245
-2.40035
-2.33764
-2.25433
-2.15263
-2.03567
-1.90911
-1.7851
-1.67745
-1.59738
-1.55087
-1.53725
-1.5495
-1.57637
-1.60552
-1.62695
-1.63515
-1.62874
-1.61526
-1.60413
-1.60133
-1.60597
-1.61075
-1.60598
-1.5851
-1.54863
-1.50605
-1.46528
-1.43289
-1.41271
-1.40464
-1.40473
-1.40622
-1.40128
-1.38421
-1.35179
-1.30169
-1.23361
-1.14901
-1.0509
-0.942798
-0.828718
-0.712913
-0.601717
-0.503096
-0.424831
-0.373134
-0.35076
-0.355654
-0.380858
-0.415882
-0.449053
-0.470007
-0.475264
-0.464389
-0.437131
-0.39408
-0.336778
-0.267244
-0.187514
-0.0992867
-0.0037323
0.0985121
0.207481
0.324679
0.452599
0.588456
0.71642
0.814121
0.859951
0.840616
0.755964
0.619324
0.453791
0.28627
0.141268
0.0277229
-0.0579533
-0.120832
-0.16427
-0.186722
-0.18021
-0.133562
-0.064296
-0.00670204
0
-0.0926437
-0.266983
-0.495734
-0.734359
-0.877826
0.068972
1.94223
4.53312
7.37044
9.83131
11.3242
11.498
10.3885
8.41321
6.19556
4.29923
3.0132
2.30098
1.92158
1.6399
1.45274
1.27814
1.1169
0.972856
0.848943
0.747545
0.671219
0.621299
0.598705
0.603656
0.635242
0.691037
0.766962
0.857533
0.956425
1.05722
1.15457
1.24429
1.32346
1.39037
1.44437
1.48556
1.51474
1.53331
1.54315
1.54657
1.54621
1.54493
1.54559
1.55093
1.56339
1.58507
1.61772
1.66274
1.72111
1.79315
1.87836
1.97521
2.08107
2.19236
2.30488
2.41425
2.51631
2.60794
2.68779
2.75646
2.81661
2.87228
2.92988
3.01221
3.12113
3.21274
3.21011
3.04148
2.68546
2.19484
1.68148
1.26687
1.02512
0.849485
0.717018
0.615458
0.531526
0.452988
0.369985
0.275706
0.166685
0.0431068
-0.0936584
-0.233971
-0.358079
-0.444411
-0.476595
-0.449802
-0.373137
-0.266476
-0.15282
-0.0496986
0.0402817
0.12178
0.198163
0.273573
0.351452
0.433279
0.518532
0.605518
0.690875
0.768809
0.833384
0.879332
0.903181
0.904151
0.884567
0.84958
0.806153
0.761526
0.721377
0.687714
0.661284
0.638876
0.613158
0.576052
0.521697
0.448839
0.361729
0.269001
0.180904
0.105935
0.0460464
0.000152588
-0.0352646
-0.0652954
-0.0947998
-0.126911
-0.1623
-0.199333
-0.234917
-0.265642
-0.289271
-0.305406
-0.314583
-0.317587
-0.315861
-0.312228
-0.310167
-0.312138
-0.318529
-0.327042
-0.332944
-0.330288
-0.313801
-0.280727
-0.232599
-0.174562
-0.111323
-0.0478233
0.0117844
0.0647247
0.109663
0.146404
0.175496
0.198038
0.215298
0.228754
0.239941
0.250175
0.260159
0.269637
0.277203
0.280598
0.277368
0.265702
0.245167
0.217055
0.184225
0.150454
0.11951
0.0941467
0.07519
0.0617752
0.0522255
0.0440514
0.0344254
0.0205765
0
-0.0157303
-0.0424332
-0.0820381
-0.143188
-0.254414
-0.439828
-0.680431
-0.947063
-1.21837
-0.813746
0.426353
2.56186
5.31642
8.07701
10.1069
10.884
10.3513
8.90634
7.1386
5.51241
4.20806
3.18232
2.34163
1.67028
1.49208
1.42792
1.37637
1.33128
1.2868
1.23943
1.18942
1.14124
1.10336
1.10739
1.21579
1.40389
1.59761
1.7117
1.69494
1.55666
1.36123
1.19555
1.12759
1.15616
1.22208
1.30298
1.39222
1.48492
1.57756
1.66806
1.75522
1.8374
1.91269
1.97921
2.03508
2.08016
2.11768
2.15453
2.19972
2.26149
2.34456
2.44555
2.55752
2.67608
2.79672
2.91514
3.02693
3.12765
3.21398
3.28301
3.332
3.35844
3.36029
3.33605
3.2848
3.20605
3.09961
2.96744
2.8124
2.63769
2.44719
2.24571
2.03931
1.83473
1.63871
1.45934
1.30289
1.16616
1.04128
0.918999
0.792665
0.660969
0.528504
0.403898
0.296517
0.209409
0.141111
0.091452
0.0583382
0.038501
0.0283707
0.0248726
0.026001
0.0311188
0.0413063
0.0591385
0.0875801
0.129395
0.186131
0.257323
0.34139
0.432831
0.524819
0.61086
0.686214
0.748672
0.798441
0.837367
0.867935
0.89249
0.913335
0.931691
0.948272
0.963005
0.974226
0.977124
0.96461
0.92819
0.860859
0.760469
0.63221
0.489095
0.350392
0.29449
0.492353
0.862495
1.22483
1.41051
1.3501
1.10205
0.811044
0.624073
0.609154
0.668967
0.738171
0.803231
0.855717
0.890646
0.906447
0.904272
0.887063
0.85918
0.825227
0.788196
0.749902
0.711185
0.671827
0.630841
0.586844
0.538501
0.485069
0.426859
0.3654
0.304192
0.2509
0.214724
0.204195
0.224562
0.275754
0.351834
0.442403
0.53564
0.621847
0.697233
0.761944
0.81898
0.872416
0.925148
0.977143
1.02435
1.05868
1.07004
1.04865
0.98761
0.885165
0.746111
0.581882
0.409033
0.246212
0.108904
0.00107231
-0.0714275
-0.100586
-0.0912376
-0.0598156
-0.0243725
0
-0.00493546
-0.0322376
-0.0785702
-0.137553
-0.202289
-0.266881
0.0745697
0.959161
2.51083
4.71104
7.27369
9.66883
11.2867
11.6835
10.7812
8.90307
6.61344
4.45788
2.75933
1.57291
0.786547
0.339118
0.234858
0.140607
0.057885
-0.0134769
-0.076741
-0.136609
-0.197837
-0.263675
-0.334634
-0.407964
-0.477988
-0.537221
-0.578069
-0.587012
-0.534723
-0.412901
-0.263661
-0.139078
-0.0816597
-0.10917
-0.208817
-0.342815
-0.463124
-0.529492
-0.53577
-0.507751
-0.461573
-0.404176
-0.339645
-0.271139
-0.200492
-0.128221
-0.0539158
0.0231121
0.103139
0.18551
0.268472
0.349414
0.425441
0.494158
0.554405
0.606718
0.653427
0.698341
0.746979
0.811458
0.921022
1.10234
1.31464
1.49675
1.58785
1.54782
1.37073
1.08446
0.737395
0.382268
0.0651485
-0.210395
-0.459562
-0.690502
-0.90518
-1.10499
-1.29256
-1.47133
-1.64493
-1.81652
-1.98808
-2.15991
-2.33044
-2.49627
-2.65228
-2.79322
-2.91452
-3.01332
-3.08676
-3.13555
-3.16428
-3.17826
-3.18184
-3.17706
-3.16332
-3.1379
-3.09738
-3.03911
-2.96327
-2.87282
-2.7712
-2.66148
-2.54668
-2.42932
-2.31141
-2.19502
-2.08384
-1.98306
-1.89933
-1.83943
-1.80842
-1.8079
-1.83546
-1.88504
-1.94809
-2.01477
-2.07605
-2.12597
-2.16009
-2.17509
-2.16944
-2.14359
-2.10016
-2.04367
-1.9798
-1.91509
-1.85622
-1.80844
-1.77482
-1.75597
-1.75022
-1.75425
-1.76385
-1.77486
-1.78371
-1.78811
-1.78689
-1.77935
-1.76543
-1.74572
-1.72049
-1.69151
-1.66128
-1.63169
-1.60313
-1.57402
-1.54114
-1.50079
-1.45017
-1.38873
-1.31968
-1.24724
-1.17537
-1.10832
-1.05024
-1.00325
-0.967536
-0.94129
-0.92103
-0.902197
-0.879946
-0.849995
-0.809336
-0.756703
-0.693366
-0.621188
-0.542051
-0.458062
-0.371426
-0.284406
-0.199357
-0.118842
-0.0453331
0.0189491
0.0722786
0.113569
0.14233
0.158447
0.16067
0.14771
0.119239
0.0754257
0.0178757
-0.0495186
-0.120241
-0.185683
-0.236579
-0.25138
-0.204186
-0.117611
-0.0347557
0
-0.0471397
-0.166125
-0.329963
-0.500002
-0.540779
0.326061
2.06477
4.64415
7.72372
10.6642
12.7155
13.3148
12.341
10.1771
7.538
5.16021
3.52015
2.71442
2.53179
2.62747
2.50702
2.38362
2.25831
2.13501
2.02025
1.92159
1.84586
1.79795
1.78053
1.79405
1.83689
1.90442
1.98886
2.08379
2.1827
2.28038
2.37428
2.46514
2.55463
2.64486
2.73814
2.83652
2.9413
3.0532
3.17237
3.29824
3.42953
3.56428
3.70003
3.83403
3.96393
4.0883
4.207
4.32114
4.43266
4.54355
4.65506
4.76711
4.87809
4.98514
5.08481
5.17426
5.2521
5.31897
5.37759
5.43219
5.4879
5.5536
5.63275
5.71136
5.76533
5.77022
5.71098
5.58677
5.40956
5.19812
4.97065
4.73989
4.51006
4.28158
4.05424
3.82782
3.60229
3.37799
3.15577
2.93705
2.72389
2.51907
2.32615
2.15084
1.99822
1.87329
1.78118
1.73733
1.75992
1.86198
2.03767
2.23637
2.41032
2.52837
2.55171
2.44288
2.20118
1.88919
1.61933
1.4991
1.54045
1.63908
1.75197
1.86727
1.9758
2.06822
2.13878
2.18532
2.20898
2.21399
2.20711
2.19654
2.19032
2.19802
2.225
2.25954
2.28129
2.27076
2.21857
2.1298
2.02106
1.9126
1.82033
1.74662
1.68572
1.63549
1.59508
1.56333
1.53929
1.52136
1.50682
1.49273
1.4765
1.45657
1.43302
1.40773
1.38405
1.36613
1.35786
1.36101
1.37556
1.40088
1.43548
1.47563
1.51699
1.55547
1.58788
1.6123
1.62806
1.63538
1.63493
1.62746
1.61397
1.59509
1.57158
1.54466
1.51611
1.48834
1.46429
1.447
1.43936
1.44431
1.46552
1.50861
1.58027
1.67902
1.7856
1.87506
1.92366
1.91504
1.84429
1.71907
1.55748
1.38366
1.22197
1.08418
0.968588
0.871023
0.789191
0.72068
0.661948
0.608916
0.55756
0.504417
0.446735
0.382048
0.308241
0.226868
0.144202
0.0669266
0
-0.0320824
0.435505
1.42242
2.90632
4.83717
7.01858
9.07783
10.5326
10.9645
10.2205
8.52008
6.38538
4.4162
3.02655
2.28876
1.97381
1.74895
1.5742
1.41287
1.27113
1.15381
1.06243
0.994949
0.947004
0.913211
0.888573
0.869733
0.856301
0.850679
0.857395
0.881632
0.927348
0.995995
1.08625
1.19478
1.31754
1.45098
1.59191
1.74119
1.89724
2.04944
2.18102
2.27409
2.31732
2.31189
2.27244
2.22262
2.1876
2.18608
2.21512
2.26662
2.33576
2.41974
2.51575
2.62072
2.7316
2.84547
2.95949
3.07065
3.17547
3.26956
3.34783
3.40605
3.44099
3.45146
3.43918
3.40879
3.36693
3.32016
3.27228
3.22118
3.15704
3.06577
2.93504
2.75988
2.54541
2.30524
2.05669
1.8153
1.58457
1.36678
1.16357
0.975437
0.802474
0.644897
0.503396
0.37921
0.273886
0.188951
0.125609
0.0843956
0.0647652
0.0652542
0.0839035
0.118341
0.165958
0.224479
0.292151
0.367691
0.450327
0.539555
0.633415
0.726848
0.81164
0.878217
0.917828
0.925126
0.900304
0.850002
0.786498
0.725208
0.68112
0.662666
0.66853
0.697753
0.748037
0.815596
0.89365
0.970156
1.03249
1.07038
1.07763
1.05344
1.0027
0.934731
0.860683
0.790431
0.728432
0.673761
0.625008
0.580454
0.537725
0.494348
0.448273
0.398328
0.344485
0.287943
0.230957
0.17645
0.127462
0.0866707
0.0562382
0.0370571
0.028104
0.0274185
0.0328106
0.0425503
0.0558235
0.0728176
0.0944595
0.12195
0.156096
0.196984
0.24436
0.297278
0.354137
0.412877
0.470341
0.522809
0.566688
0.599203
0.619062
0.626822
0.62473
0.615996
0.603687
0.589635
0.57375
0.554074
0.527446
0.490576
0.441202
0.378993
0.305899
0.225932
0.144493
0.0672459
-0.00144005
-0.0575218
-0.0978893
-0.120435
-0.124645
-0.111615
-0.0835613
-0.0442272
0
0.0646675
0.116601
0.0806107
-0.182194
-0.644082
-1.20735
-1.37953
-0.576459
1.42606
4.39547
7.67696
10.4378
11.9966
12.0705
10.8305
8.76918
6.47761
4.44527
2.94553
2.01463
1.5071
1.20636
1.08494
0.986121
0.906124
0.856556
0.844169
0.861269
0.895703
0.935689
0.974076
1.01025
1.04887
1.09611
1.15546
1.22492
1.29726
1.36304
1.41463
1.44924
1.46961
1.48235
1.49513
1.51407
1.54052
1.57436
1.61622
1.66676
1.72664
1.79653
1.87696
1.96792
2.06909
2.17955
2.29788
2.42238
2.55113
2.68244
2.815
2.94794
3.08067
3.21253
3.34236
3.46783
3.58571
3.69201
3.78254
3.85346
3.90163
3.92467
3.9208
3.88874
3.82781
3.74045
3.63029
3.50073
3.35596
3.20097
3.04079
2.87983
2.72126
2.56673
2.41659
2.27041
2.12748
1.98715
1.8489
1.71221
1.57641
1.4408
1.30494
1.16902
1.03437
0.903683
0.780948
0.671112
0.578973
0.508429
0.464564
0.450475
0.461267
0.489248
0.525713
0.562765
0.59466
0.618354
0.633275
0.640576
0.642214
0.640556
0.63717
0.632961
0.628452
0.623945
0.619636
0.615676
0.612126
0.60882
0.605168
0.599906
0.591082
0.576246
0.552859
0.518851
0.473181
0.416283
0.350296
0.279045
0.207785
0.142348
0.0911963
0.0811409
0.184875
0.391981
0.630821
0.804019
0.835379
0.709369
0.477027
0.226128
0.037718
-0.0444424
-0.0767963
-0.0876389
-0.0818275
-0.0601807
-0.0217144
0.0344944
0.109649
0.20437
0.317815
0.447104
0.587333
0.731997
0.874092
1.0073
1.12694
1.23048
1.31742
1.38871
1.44596
1.49072
1.52416
1.54679
1.55886
1.56071
1.5531
1.53734
1.5152
1.48852
1.45894
1.42744
1.39417
1.35849
1.31908
1.27407
1.22125
1.15818
1.08238
0.983548
0.813889
0.509562
0.137375
-0.188831
-0.36912
-0.379913
-0.286745
-0.192462
-0.161703
-0.186036
0
0.966971
2.96398
5.83409
9.01141
11.7083
13.2097
13.1489
11.6474
9.25234
6.69574
4.59213
3.2267
2.53202
2.23704
2.08442
1.95598
1.83375
1.72063
1.619
1.53058
1.45648
1.39731
1.3534
1.32495
1.31206
1.31525
1.33683
1.37977
1.44004
1.50474
1.55877
1.58908
1.58878
1.5597
1.51208
1.46181
1.42602
1.41594
1.44528
1.53199
1.64642
1.74261
1.77483
1.71723
1.57938
1.40924
1.27894
1.25593
1.35927
1.52901
1.74529
1.98253
2.21712
2.43598
2.64135
2.83364
3.0135
3.18114
3.3364
3.47658
3.59423
3.67938
3.72325
3.72083
3.67135
3.57709
3.44156
3.26821
3.0646
2.83895
2.59753
2.34534
2.08681
1.82617
1.56756
1.31492
1.0716
0.840024
0.621366
0.415562
0.221162
0.0358063
-0.143165
-0.317859
-0.488447
-0.652464
-0.804568
-0.937109
-1.04234
-1.11446
-1.15078
-1.15185
-1.12089
-1.06314
-0.985843
-0.89839
-0.808659
-0.725586
-0.656696
-0.606532
-0.575661
-0.560845
-0.556464
-0.556663
-0.557353
-0.557366
-0.557321
-0.558508
-0.561491
-0.564953
-0.565286
-0.557181
-0.535145
-0.495431
-0.435738
-0.358713
-0.275496
-0.199578
-0.142613
-0.111119
-0.105351
-0.120485
-0.149231
-0.18449
-0.220841
-0.25586
-0.288222
-0.317191
-0.342554
-0.364098
-0.382391
-0.398901
-0.41497
-0.43106
-0.446215
-0.458123
-0.463912
-0.459734
-0.444027
-0.421698
-0.399949
-0.38399
-0.37314
-0.359786
-0.332134
-0.279624
-0.198306
-0.0979908
0.0103794
0.117785
0.216249
0.300973
0.371489
0.431543
0.487732
0.549213
0.629662
0.723729
0.809493
0.859941
0.856652
0.799473
0.708028
0.614624
0.551372
0.536725
0.554692
0.588743
0.626944
0.658066
0.674396
0.672664
0.652867
0.615809
0.560911
0.486381
0.389417
0.269318
0.129623
-0.0214237
0
0.973423
3.19381
6.45842
10.0758
13.0907
14.6709
14.4641
12.7292
10.1675
7.56759
5.47463
4.06027
3.20921
2.70377
2.373
2.16212
1.9794
1.84671
1.78062
1.78712
1.85685
1.96462
2.07566
2.15796
2.2028
2.22428
2.23438
2.23894
2.24115
2.24337
2.24719
2.25336
2.26237
2.27519
2.29371
2.32083
2.35994
2.41406
2.48486
2.57203
2.67232
2.78166
2.89608
3.01213
3.12752
3.2415
3.35471
3.46866
3.58495
3.70454
3.82732
3.95215
4.07702
4.19982
4.31896
4.43365
4.54378
4.6486
4.74513
4.82879
4.89235
4.92756
4.92794
4.89104
4.81897
4.71724
4.59254
4.45043
4.29619
4.13186
3.95695
3.76959
3.56747
3.34867
3.11214
2.858
2.58805
2.3059
2.01648
1.72634
1.44572
1.18839
0.964639
0.781686
0.642947
0.547865
0.492408
0.470311
0.474905
0.501049
0.545541
0.605807
0.681078
0.77163
0.877416
0.997017
1.12926
1.26933
1.40444
1.52122
1.60963
1.6659
1.69316
1.69958
1.69478
1.68615
1.67674
1.66593
1.65155
1.63129
1.60364
1.56839
1.52637
1.47889
1.42704
1.37147
1.31182
1.24726
1.17715
1.10168
1.02242
0.942439
0.867496
0.804595
0.760416
0.739635
0.743636
0.770081
0.813556
0.86713
0.924372
0.981281
1.03705
1.09296
1.15613
1.26038
1.44681
1.67076
1.8442
1.88345
1.75133
1.47336
1.12415
0.797239
0.576677
0.464671
0.405368
0.392163
0.434274
0.502837
0.560651
0.573408
0.522576
0.414035
0.276772
0.150162
0.0646561
0.0240387
0
-0.0283546
-0.0973347
-0.226794
-0.42135
-0.670157
-0.951452
-1.23859
-1.07521
-0.0675148
1.80219
4.41316
7.31619
9.80927
11.2022
11.146
9.81217
7.79067
5.7632
4.16926
3.0733
2.28237
1.5865
1.0564
0.926154
0.822799
0.743518
0.683483
0.63527
0.591915
0.549599
0.508495
0.471429
0.441403
0.419547
0.403069
0.390362
0.380164
0.372245
0.367704
0.368749
0.378139
0.397821
0.428375
0.470573
0.524453
0.58915
0.662984
0.743675
0.828638
0.915557
1.00274
1.08952
1.17666
1.2662
1.36104
1.46419
1.5778
1.70237
1.83671
1.97715
2.1172
2.25016
2.37088
2.47711
2.56981
2.65233
2.72873
2.80211
2.8733
2.93868
2.99093
3.02127
3.02181
2.98722
2.9154
2.8072
2.66575
2.49549
2.30338
2.096
1.87809
1.65267
1.42185
1.18774
0.953177
0.721995
0.499154
0.290703
0.102861
-0.0589157
-0.189969
-0.284297
-0.340587
-0.366022
-0.370329
-0.363388
-0.352973
-0.343254
-0.334408
-0.32329
-0.304867
-0.274325
-0.229866
-0.171701
-0.100364
-0.0172432
0.0726635
0.16365
0.250547
0.329725
0.399569
0.46036
0.513686
0.561652
0.606364
0.649157
0.690371
0.729407
0.764736
0.794452
0.816593
0.829707
0.83329
0.827922
0.815044
0.796476
0.773944
0.749051
0.72301
0.69682
0.671677
0.648961
0.630023
0.616019
0.607522
0.603437
0.601595
0.599638
0.596068
0.59108
0.586826
0.586912
0.595267
0.614772
0.648681
0.69421
0.745876
0.797556
0.844675
0.885489
0.920959
0.953465
0.985167
1.0169
1.04815
1.07784
1.10506
1.12952
1.15155
1.17165
1.19001
1.20647
1.22011
1.22946
1.23265
1.22747
1.21173
1.18372
1.14286
1.0903
1.0293
0.965143
0.904536
0.854638
0.820738
0.806661
0.818603
0.868391
0.975662
1.14947
1.35753
1.55213
1.68725
1.7276
1.65444
1.46697
1.18031
0.820744
0.4177
0
0.101668
1.02568
2.97434
5.82069
9.05172
11.9041
13.6523
13.9072
12.7605
10.6922
8.30891
6.08311
4.24156
2.82167
1.79682
1.15573
1.19405
1.23515
1.27794
1.32027
1.3594
1.39375
1.42468
1.45704
1.49841
1.55698
1.63984
1.76217
1.92529
2.10354
2.26517
2.38287
2.44086
2.43767
2.38492
2.30355
2.21862
2.15325
2.11555
2.10054
2.10099
2.11239
2.12956
2.14666
2.15896
2.16442
2.16415
2.16588
2.18504
2.23926
2.34258
2.50006
2.70495
2.93963
3.18011
3.40246
3.59512
3.75198
3.8704
3.95194
4.00037
4.01986
4.01568
3.99229
3.95081
3.89197
3.81627
3.72395
3.61503
3.48952
3.34795
3.19078
3.01962
2.83775
2.65017
2.46309
2.28304
2.11649
1.96913
1.84057
1.72526
1.61478
1.50064
1.3768
1.23731
1.09334
0.968023
0.885967
0.863756
0.903907
0.994268
1.11264
1.23452
1.34088
1.42881
1.50306
1.56598
1.62132
1.67315
1.725
1.7792
1.83715
1.89987
1.96808
2.04226
2.12275
2.20983
2.3028
2.39737
2.48573
2.55939
2.61175
2.64024
2.64695
2.63744
2.61808
2.5931
2.56328
2.52755
2.48399
2.43031
2.36528
2.28901
2.20277
2.10845
2.00831
1.90447
1.79855
1.69236
1.58818
1.48891
1.39791
1.31847
1.25346
1.20594
1.17829
1.16562
1.15706
1.1408
1.10783
1.05498
0.986254
0.911898
0.845519
0.800367
0.780874
0.785976
0.82119
0.897377
1.03257
1.22461
1.43069
1.60026
1.68379
1.65177
1.51122
1.30509
1.09155
0.915891
0.78576
0.676004
0.574528
0.477563
0.3835
0.291663
0.202398
0.116973
0.0372517
-0.0347969
-0.0974255
-0.149379
-0.19117
-0.225929
-0.258031
-0.292023
-0.331449
-0.377905
-0.430661
-0.486948
-0.542843
-0.569566
0
1.18543
3.02548
5.36423
7.80776
9.7972
10.7949
10.5145
9.06839
6.93393
4.73841
2.98129
1.85537
1.25817
0.956559
0.900481
0.841846
0.778486
0.706382
0.622509
0.526114
0.419679
0.308616
0.20345
0.116204
0.0575146
0.0345562
0.0606277
0.131364
0.224101
0.313931
0.382103
0.421568
0.438121
0.447103
0.467032
0.512565
0.586242
0.679044
0.782499
0.891259
1.00064
1.10719
1.20913
1.3063
1.39967
1.49084
1.58153
1.67308
1.76639
1.8619
1.95952
2.05867
2.15827
2.25678
2.35224
2.44246
2.52513
2.59786
2.65803
2.70212
2.72656
2.728
2.70304
2.64866
2.56273
2.44451
2.29499
2.11702
1.9151
1.6959
1.46617
1.23153
0.997122
0.767247
0.545099
0.332601
0.130304
-0.0626476
-0.248389
-0.430208
-0.612257
-0.798635
-0.992387
-1.19546
-1.40911
-1.61927
-1.80373
-1.94021
-2.01434
-2.02479
-1.98342
-1.91051
-1.82765
-1.75086
-1.68301
-1.62281
-1.56786
-1.51458
-1.45957
-1.40064
-1.33737
-1.27065
-1.20226
-1.13418
-1.06793
-1.0043
-0.943402
-0.884925
-0.828549
-0.774105
-0.721756
-0.672027
-0.625659
-0.583589
-0.546865
-0.516641
-0.494191
-0.480891
-0.477866
-0.485786
-0.50457
-0.53321
-0.569752
-0.611506
-0.655458
-0.698758
-0.73912
-0.775142
-0.806275
-0.83255
-0.854127
-0.87087
-0.882049
-0.886269
-0.881638
-0.866307
-0.838982
-0.797773
-0.739767
-0.662799
-0.573179
-0.485899
-0.417403
-0.381039
-0.38303
-0.420547
-0.482669
-0.553665
-0.617107
-0.661433
-0.685017
-0.689237
-0.67456
-0.640663
-0.588198
-0.518851
-0.435235
-0.340733
-0.239218
-0.134817
-0.0317978
0.0658478
0.154461
0.229847
0.287357
0.324448
0.339304
0.331063
0.300085
0.248104
0.178085
0.0938553
-0.000371552
-0.100276
-0.20153
-0.300766
-0.394682
-0.480005
-0.553732
-0.61292
-0.655055
-0.679863
-0.690411
-0.69183
-0.690227
-0.691548
-0.700567
-0.720178
-0.751114
-0.792042
-0.839941
-0.890573
-0.72375
0
1.48241
3.71539
6.38328
8.91676
10.6935
11.2782
10.5768
8.83843
6.53078
4.16921
2.17263
0.780493
0.0349907
-0.181312
-0.0969147
-0.0128906
0.0716469
0.160645
0.260287
0.374558
0.503483
0.646
0.797381
0.949864
1.09293
1.21499
1.30749
1.36609
1.39166
1.39041
1.37304
1.35257
1.34116
1.34682
1.37011
1.40527
1.44841
1.49614
1.54672
1.60062
1.66007
1.7279
1.80634
1.89532
1.993
2.09818
2.21015
2.32863
2.45399
2.58711
2.7289
2.87973
3.03905
3.20592
3.37391
3.53115
3.66478
3.76423
3.82366
3.84277
3.82553
3.77762
3.70374
3.60743
3.49248
3.35997
3.20895
3.03815
2.84713
2.63661
2.4086
2.16626
1.91361
1.65514
1.3953
1.13796
0.885983
0.641074
0.403888
0.174458
-0.0472
-0.260473
-0.463745
-0.654253
-0.828249
-0.981592
-1.11037
-1.2115
-1.28325
-1.32528
-1.33868
-1.32595
-1.28776
-1.22336
-1.13904
-1.05135
-0.976432
-0.9256
-0.901452
-0.896447
-0.895253
-0.880432
-0.839252
-0.770589
-0.684319
-0.591237
-0.504108
-0.434329
-0.389368
-0.37149
-0.377769
-0.401136
-0.432098
-0.460964
-0.480721
-0.488477
-0.481796
-0.465876
-0.448927
-0.43885
-0.439912
-0.450797
-0.46488
-0.472586
-0.464797
-0.436768
-0.392622
-0.335429
-0.268446
-0.19716
-0.130889
-0.0801643
-0.054113
-0.0585701
-0.093837
-0.153092
-0.222727
-0.285358
-0.324965
-0.332275
-0.308876
-0.263969
-0.21115
-0.162579
-0.124266
-0.0946472
-0.0669754
-0.0340691
0.00751648
0.0540451
0.0962578
0.12351
0.128494
0.110339
0.0749565
0.0327423
-0.00524292
-0.0316933
-0.0464325
-0.0523483
-0.0519508
-0.0482376
-0.0434486
-0.0380516
-0.030233
-0.0160347
0.00989075
0.0531105
0.117646
0.21601
0.364163
0.556203
0.755908
0.924234
1.03115
1.06066
1.01096
0.892728
0.727407
0.545212
0.380137
0.253036
0.16274
0.0985504
0.0514778
0.0170631
-0.00931244
-0.032753
-0.058371
-0.0908936
-0.134361
-0.191872
-0.265607
-0.360427
-0.474321
-0.602693
-0.738818
-0.727641
0
1.73476
4.44802
7.67417
10.6389
12.5598
12.9735
11.9082
9.81597
7.32757
4.98963
3.11852
1.80118
0.975806
0.516528
0.408965
0.343856
0.289928
0.249751
0.22554
0.218906
0.227615
0.243973
0.259805
0.268858
0.268727
0.261549
0.253081
0.250394
0.259077
0.280724
0.311958
0.348478
0.385432
0.41937
0.44958
0.478297
0.509755
0.548505
0.597731
0.657056
0.723975
0.796184
0.87149
0.948026
1.02483
1.10195
1.1802
1.26064
1.34415
1.43143
1.5212
1.61173
1.70205
1.7929
1.88679
1.98704
2.09602
2.21476
2.33878
2.45999
2.56871
2.6559
2.71297
2.73542
2.72097
2.66872
2.57875
2.45213
2.29103
2.09879
1.8798
1.63986
1.38854
1.13328
0.879849
0.634087
0.401502
0.186709
-0.00713577
-0.178957
-0.32962
-0.461514
-0.577853
-0.681864
-0.776088
-0.861971
-0.939825
-1.00916
-1.06921
-1.11907
-1.1582
-1.18766
-1.21049
-1.23006
-1.24909
-1.26875
-1.28832
-1.30551
-1.31738
-1.32145
-1.31701
-1.30543
-1.28941
-1.27291
-1.26028
-1.25546
-1.26125
-1.27891
-1.30803
-1.34677
-1.39214
-1.4406
-1.48858
-1.53306
-1.57213
-1.60515
-1.63243
-1.65489
-1.67419
-1.69252
-1.71185
-1.73346
-1.75758
-1.78322
-1.80827
-1.82994
-1.84527
-1.8517
-1.84761
-1.83237
-1.80651
-1.77161
-1.72975
-1.68391
-1.63877
-1.59939
-1.57027
-1.55452
-1.55313
-1.56454
-1.58463
-1.60734
-1.62564
-1.63326
-1.62637
-1.60337
-1.56464
-1.5122
-1.44911
-1.37884
-1.30494
-1.23069
-1.15881
-1.09166
-1.03161
-0.980428
-0.93883
-0.90655
-0.881854
-0.861153
-0.839042
-0.808977
-0.764539
-0.701006
-0.617713
-0.5157
-0.397358
-0.276687
-0.169509
-0.0891121
-0.042746
-0.0301685
-0.0445747
-0.0753342
-0.111208
-0.142837
-0.16629
-0.180539
-0.18416
-0.176652
-0.158595
-0.131652
-0.0981785
-0.0636608
-0.0354675
-0.0206505
-0.0240978
-0.0469826
-0.0860947
-0.134343
0
0.8534
2.65364
5.30539
8.30412
10.8568
12.1993
11.9553
10.3183
7.93413
5.55415
3.67972
2.40952
1.54548
0.83659
0.502732
0.263312
0.0516701
-0.125848
-0.267303
-0.375674
-0.456786
-0.517947
-0.566555
-0.608999
-0.649994
-0.692387
-0.737296
-0.784386
-0.832127
-0.878176
-0.919539
-0.952609
-0.973505
-0.97845
-0.960151
-0.900662
-0.775099
-0.597606
-0.417467
-0.287124
-0.2444
-0.299122
-0.428597
-0.583967
-0.705776
-0.744632
-0.706421
-0.626169
-0.523341
-0.406229
-0.279455
-0.146397
-0.00917091
0.131322
0.275006
0.422073
0.572582
0.725599
0.8783
1.02488
1.15558
1.25996
1.32918
1.35658
1.33881
1.27663
1.17473
1.04055
0.882051
0.705558
0.516722
0.319298
0.115015
-0.0955711
-0.311916
-0.532843
-0.756416
-0.979939
-1.20009
-1.41317
-1.61546
-1.80369
-1.97494
-2.12658
-2.25857
-2.37202
-2.46863
-2.54744
-2.60964
-2.65558
-2.68505
-2.69777
-2.69365
-2.67253
-2.63356
-2.57487
-2.49444
-2.39229
-2.2675
-2.12077
-1.9516
-1.7713
-1.5994
-1.45487
-1.35073
-1.29065
-1.26859
-1.27107
-1.28139
-1.28393
-1.26932
-1.23711
-1.18974
-1.12953
-1.05907
-0.981551
-0.900377
-0.818851
-0.739913
-0.666067
-0.599252
-0.540502
-0.490087
-0.447604
-0.412192
-0.382846
-0.358916
-0.340691
-0.328777
-0.324224
-0.32803
-0.340357
-0.359897
-0.383713
-0.407666
-0.427366
-0.439341
-0.442171
-0.435613
-0.423233
-0.410952
-0.404699
-0.408442
-0.42279
-0.444624
-0.467865
-0.48512
-0.489644
-0.478332
-0.452084
-0.412752
-0.361662
-0.300592
-0.231372
-0.15554
-0.0742535
0.011491
0.100621
0.191763
0.283131
0.372563
0.457573
0.535445
0.60355
0.659609
0.701612
0.727779
0.736518
0.726423
0.696386
0.645842
0.575167
0.486218
0.382736
0.269691
0.154863
0.0498089
-0.0334167
-0.08279
-0.0541233
0.0648472
0.226619
0.368815
0.441161
0.424734
0.334569
0.206355
0.0764687
-0.0329235
-0.124992
-0.208433
-0.286973
-0.36264
-0.431252
0
1.21806
3.34468
6.14483
9.00323
11.1121
11.8198
10.9536
8.9093
6.4351
4.24988
2.7379
1.88802
1.4548
1.18316
1.03491
0.901485
0.780314
0.67501
0.587998
0.519842
0.4689
0.432489
0.407605
0.391578
0.3825
0.379404
0.382202
0.391481
0.408133
0.43323
0.467863
0.512809
0.568269
0.633636
0.707381
0.7871
0.869761
0.952439
1.03271
1.10915
1.18178
1.25214
1.32305
1.3981
1.48083
1.57387
1.67819
1.79464
1.92027
2.04694
2.16606
2.27139
2.36089
2.43713
2.50583
2.57336
2.64414
2.71881
2.79452
2.86443
2.92012
2.95403
2.9613
2.94068
2.8944
2.82725
2.74504
2.6529
2.55409
2.45
2.34054
2.22471
2.10095
1.96786
1.82471
1.67168
1.50993
1.34148
1.16886
0.994606
0.820752
0.648424
0.477802
0.308171
0.13624
-0.0396988
-0.203953
-0.326174
-0.375807
-0.33913
-0.227406
-0.0714813
0.0922829
0.234806
0.34806
0.440686
0.514959
0.571146
0.611166
0.638407
0.6571
0.67128
0.683329
0.693705
0.700442
0.700982
0.694441
0.683077
0.672099
0.667881
0.675497
0.695947
0.725196
0.75992
0.797431
0.835092
0.870656
0.902349
0.928658
0.948139
0.959308
0.960569
0.950289
0.927164
0.890682
0.841534
0.781826
0.714951
0.645144
0.576741
0.513393
0.458405
0.412761
0.374811
0.34186
0.311584
0.283232
0.258101
0.239058
0.229279
0.230715
0.243705
0.264756
0.287685
0.305796
0.314042
0.310658
0.297687
0.280322
0.265381
0.259486
0.265743
0.284504
0.315337
0.357171
0.408165
0.465965
0.528058
0.592064
0.655914
0.71792
0.776734
0.831222
0.880249
0.922363
0.95533
0.97579
0.980073
0.964945
0.927999
0.8686
0.788622
0.692643
0.587442
0.480865
0.380378
0.290824
0.214365
0.151717
0.101629
0.0613289
0.0270691
-0.00535851
-0.0402344
-0.0815067
-0.132389
-0.195889
-0.273174
-0.363127
-0.462847
-0.569922
0
1.48364
3.92722
6.97096
9.93555
12.078
12.8962
12.3126
10.6524
8.45545
6.24875
4.39093
3.02742
2.13014
1.57586
1.38598
1.24759
1.1201
1.00486
0.902338
0.812474
0.735824
0.672574
0.622485
0.585242
0.560167
0.54599
0.540819
0.542348
0.54823
0.55643
0.565401
0.574117
0.58185
0.588069
0.592437
0.594991
0.596414
0.598234
0.602813
0.613069
0.632024
0.662248
0.70482
0.760411
0.829677
0.913102
1.0112
1.12457
1.25366
1.39828
1.55701
1.72838
1.9077
2.08399
2.24493
2.3794
2.47952
2.54173
2.56637
2.55646
2.5162
2.45119
2.36729
2.26686
2.15169
2.02305
1.8817
1.72884
1.56569
1.39298
1.21143
1.02215
0.826684
0.626912
0.424969
0.223159
0.0239178
-0.170216
-0.356685
-0.533073
-0.696751
-0.845561
-0.979837
-1.1015
-1.2138
-1.32083
-1.42689
-1.53596
-1.65127
-1.77814
-1.92644
-2.09474
-2.25835
-2.38115
-2.42937
-2.38831
-2.27174
-2.11746
-1.97114
-1.86713
-1.80285
-1.75847
-1.72487
-1.69861
-1.6768
-1.65759
-1.64032
-1.62547
-1.61418
-1.60764
-1.60651
-1.6105
-1.61833
-1.62798
-1.63722
-1.6441
-1.6474
-1.64688
-1.64286
-1.63581
-1.62639
-1.61529
-1.60335
-1.59155
-1.58112
-1.57342
-1.56972
-1.57086
-1.57702
-1.58765
-1.6015
-1.61692
-1.6322
-1.64579
-1.65645
-1.66306
-1.66426
-1.65827
-1.6428
-1.61517
-1.57272
-1.51341
-1.43643
-1.34265
-1.23463
-1.11599
-0.991382
-0.865255
-0.741129
-0.621477
-0.509834
-0.411031
-0.3285
-0.268884
-0.240009
-0.246462
-0.285446
-0.345285
-0.40739
-0.450842
-0.458196
-0.43171
-0.378945
-0.305558
-0.21451
-0.115868
-0.0216162
0.0573499
0.113115
0.141719
0.14305
0.119905
0.0766715
0.0181592
-0.0498748
-0.123231
-0.199072
0
0.939067
2.86112
5.59063
8.55827
11.0081
12.3077
12.1965
10.8545
8.77614
6.54093
4.60429
3.19303
2.31856
1.86209
1.68397
1.66417
1.64624
1.62907
1.61263
1.59721
1.58348
1.57242
1.56529
1.56373
1.56976
1.58568
1.61399
1.65714
1.71706
1.79468
1.88944
1.99895
2.11897
2.24393
2.3677
2.48432
2.58894
2.67843
2.75153
2.80869
2.85164
2.88287
2.90523
2.92182
2.93594
2.95132
2.97216
3.00306
3.04856
3.11253
3.19728
3.30276
3.42645
3.56412
3.70942
3.85371
3.98954
4.11236
4.22155
4.31869
4.40683
4.50491
4.61559
4.7117
4.75222
4.70618
4.56755
4.35484
4.10036
3.83766
3.59128
3.36124
3.1405
2.92467
2.71128
2.49917
2.28842
2.08104
1.88092
1.69309
1.52262
1.37348
1.2476
1.14462
1.06215
0.996523
0.943665
0.899382
0.860762
0.826182
0.794939
0.766949
0.742477
0.721888
0.705479
0.693402
0.685693
0.682405
0.683754
0.690261
0.702853
0.722865
0.751925
0.79169
0.843529
0.91148
1.00267
1.11045
1.21043
1.27448
1.28165
1.22744
1.12659
1.00732
0.899743
0.823944
0.775991
0.741527
0.712627
0.683641
0.649689
0.607441
0.555524
0.494609
0.427248
0.357555
0.290726
0.232389
0.187648
0.160069
0.15298
0.17043
0.202238
0.232843
0.246978
0.234596
0.193864
0.131171
0.0584534
-0.0106758
-0.0643509
-0.0997215
-0.117734
-0.11834
-0.101478
-0.0684227
-0.0218201
0.0346413
0.0962463
0.156788
0.21046
0.25288
0.28185
0.297585
0.302321
0.299409
0.292162
0.282571
0.270693
0.253916
0.227505
0.185956
0.124544
0.0406403
-0.0654533
-0.190253
-0.327373
-0.468282
-0.603728
-0.724265
-0.802948
-0.778939
-0.605502
-0.3561
-0.134225
-0.00382462
0
-0.144668
-0.444428
-0.867616
-1.33541
-1.78029
-1.52336
-0.264228
2.09435
5.20591
8.31951
10.5574
11.3016
10.4669
8.49891
6.10755
3.91614
2.23729
1.07128
0.265399
-0.314301
-0.46963
-0.600187
-0.720802
-0.830821
-0.93204
-1.0286
-1.12477
-1.2232
-1.3236
-1.42187
-1.51004
-1.57798
-1.60914
-1.54721
-1.38596
-1.19207
-1.04642
-1.00695
-1.08691
-1.25476
-1.4511
-1.61343
-1.70005
-1.73035
-1.73389
-1.72358
-1.70364
-1.67655
-1.64285
-1.60128
-1.54958
-1.48553
-1.40792
140
323
514
703
898
1096
1290
1481
1664
1845
2012
2196
2376
2570
2769
2960
3155
3347
3525
3708
3700
2185
2381
2587
2647
2743
2803
2915
3016
3080
3173
3204
3237
3301
3400
3604
3659
3723
3614
3699
3176
3208
3259
3311
3379
3434
3601
0
0
0
0
0
0
0
0
0
0
0
0
0
0
0
0
0
0
0
0
0
0
0
0
0
0
0
0
0
0
0
0
0
0
0
0
0
0
0
0
0
0
0
0
0
0
0
0
0
0
0
0
0
0
0
0
0
0
0
0
0
0
0
0
0
0
0
0
0
0
0
0
0
0
0
0
0
0
0
0
0
0
0
0
0
0
0
0
0
0
0
0
0
0
0
0
0
0
0
0
0
0
0
0
0
0
0
0
0
0
0
0
0
0
0
0
0
0
0
0
0
0
0
0
0
0
0
0
0
0
0
0
0
0
0
0
0
0
0
0
0
0
0
0
0
0
0
0
0
0
0
0
0
0
0
0
0
0
0
0
0
0
0
0
0
0
0
0
0
0
0
0
0
0
0
0
0
0
0
0
0
0
0
0
0
0
0
0
0
0
0
0
0
0
0
0
0
0
0
0
0
0
0
0
0
0
0
0
0
0
0
0
0
0
0
0
0
0
0
0
0
0
0
0
0
0
0
0
0
0
0
0
0
0
0
0
0
0
0
0
0
0
0
0
0
0
0
0
0
0
0
0
0
0
0
0
0
0
0
0
0
0
0
0
0
0
0
0
0
0
0
0
0
0
0
0
0
0
0
0
0
0
0
0
0
0
0
0
0
0
0
0
0
0
0
0
0
0
0
0
0
0
0
0
0
0
0
0
0
0
0
0
0
0
0
0
0
0
0
0
0
0
0
0
0
0
0
0
0
0
0
0
0
0
0
0
0
0
0
0
0
0
0
0
0
0
0
0
0
0
0
0
0
0
0
0
0
0
0
0
0
0
0
0
0
0
0
0
0
0
0
0
0
0
0
0
0
0
0
0
0
0
0
0
0
0
0
0
0
0
0
0
0
0
0
0
0
0
0
0
0
0
0
0
0
0
0
0
0
0
0
0
0
0
0
0
0
0
0
0
0
0
0
0
0
0
0
0
0
0
0
0
0
0
0
0
0
0
0
0
0
0
0
0
0
0
0
0
0
0
0
0
0
0
0
0
0
0
0
0
0
0
0
0
0
0
0
0
0
0
0
0
0
0
0
0
0
0
0
0
0
0
0
0
0
0
0
0
0
0
0
0
0
0
0
0
0
0
0
0
0
0
0
0
0
0
0
0
0
0
0
0
0
0
0
0
0
0
0
0
0
0
0
0
0
0
0
0
0
0
0
0
0
0
0
0
0
0
0
0
0
0
0
0
0
0
0
0
0
0
0
0
0
0
0
0
0
0
0
0
0
0
0
0
0
0
0
0
0
0
0
0
0
0
0
0
0
0
0
0
0
0
0
0
0
0
0
0
0
0
0
0
0
0
0
0
0
0
0
0
0
0
0
0
0
0
0
0
0
0
0
0
0
0
0
0
0
0
0
0
0
0
0
0
0
0
0
0
0
0
0
0
0
0
0
0
0
0
0
0
0
0
0
0
0
0
0
0
0
0
0
0
0
0
0
0
0
0
0
0
0
0
0
0
0
0
0
0
0
0
0
0
0
0
0
0
0
0
0
0
0
0
0
0
0
0
0
0
0
0
0
0
0
0
0
0
0
0
0
0
0
0
0
0
0
0
0
0
0
0
0
0
0
0
0
0
0
0
0
0
0
0
0
0
0
0
0
0
0
0
0
0
0
0
0
0
0
0
0
0
0
0
0
0
0
0
0
0
0
0
0
0
0
0
0
0
0
0
0
0
0
0
0
0
0
0
0
0
0
0
0
0
0
0
0
0
0
0
0
0
0
0
0
0
0
0
0
0
0
0
0
0
0
0
0
0
0
0
0
0
0
0
0
0
0
0
0
0
0
0
0
0
0
0
0
0
0
0
0
0
0
0
0
0
0
0
0
0
0
0
0
0
0
0
0
0
0
0
0
0
0
0
0
0
0
0
0
0
0
0
0
0
0
0
0
0
0
0
0
0
0
0
0
0
0
0
0
0
0
0
0
0
0
0
0
0
0
0
0
0
0
0
0
0
0
0
0
0
0
0
0
0
0
0
0
0
0
0
0
0
0
0
0
0
0
0
0
0
0
0
0
0
0
0
0
0
0
0
0
0
0
0
0
0
0
0
0
0
0
0
0
0
0
0
0
0
0
0
0
0
0
0
0
0
0
0
0
0
0
0
0
0
0
0
0
0
0
0
0
0
0
0
0
0
0
0
0
0
0
0
0
0
0
0
0
0
0
0
0
0
0
0
0
0
0
0
0
0
0
0
0
0
0
0
0
0
0
0
0
0
0
0
0
0
0
0
0
0
0
0
0
0
0
0
0
0
0
0
0
0
0
0
0
0
0
0
0
0
0
0
0
0
0
0
0
0
0
0
0
0
0
0
0
0
0
0
0
0
0
0
0
0
0
0
0
0
0
0
0
0
0
0
0
0
0
0
0
0
0
0
0
0
0
0
0
0
0
0
0
0
0
0
0
0
0
0
0
0
0
0
0
0
0
0
0
0
0
0
0
0
0
0
0
0
0
0
0
0
0
0
0
0
0
0
0
0
0
0
0
0
0
0
0
0
0
0
0
0
0
0
0
0
0
0
0
0
0
0
0
0
0
0
0
0
0
0
0
0
0
0
0
0
0
0
0
0
0
0
0
0
0
0
0
0
0
0
0
0
0
0
0
0
0
0
0
0
0
0
0
0
0
0
0
0
0
0
0
0
0
0
0
0
0
0
0
0
0
0
0
0
0
0
0
0
0
0
0
0
0
0
0
0
0
0
0
0
0
0
0
0
0
0
0
0
0
0
0
0
0
0
0
0
0
0
0
0
0
0
0
0
0
0
0
0
0
0
0
0
0
0
0
0
0
0
0
0
0
0
0
0
0
0
0
0
0
0
0
0
0
0
0
0
0
0
0
0
0
0
0
0
0
0
0
0
0
0
0
0
0
0
0
0
0
0
0
0
0
0
0
0
0
0
0
0
0
0
0
0
0
0
0
0
0
0
0
0
0
0
0
0
0
0
0
0
0
0
0
0
0
0
0
0
0
0
0
0
0
0
0
0
0
0
0
0
0
0
0
0
0
0
0
0
0
0
0
0
0
0
0
0
0
0
0
0
0
0
0
0
0
0
0
0
0
0
0
0
0
0
0
0
0
0
0
0
0
0
0
0
0
0
0
0
0
0
0
0
0
0
0
0
0
0
0
0
0
0
0
0
0
0
0
0
0
0
0
0
0
0
0
0
0
0
0
0
0
0
0
0
0
0
0
0
0
0
0
0
0
0
0
0
0
0
0
0
0
0
0
0
0
0
0
0
0
0
0
0
0
0
0
0
0
0
0
0
0
0
0
0
0
0
0
0
0
0
0
0
0
0
0
0
0
0
0
0
0
0
0
0
0
0
0
0
0
0
0
0
0
0
0
0
0
0
0
0
0
0
0
0
0
0
0
0
0
0
0
0
0
0
0
0
0
0
0
0
0
0
0
0
0
0
0
0
0
0
0
0
0
0
0
0
0
0
0
0
0
0
0
0
0
0
0
0
0
0
0
0
0
0
0
0
0
0
0
0
0
0
0
0
0
0
0
0
0
0
0
0
0
0
0
0
0
0
0
0
0
0
0
0
0
0
0
0
0
0
0
0
0
0
0
0
0
0
0
0
0
0
0
0
0
0
0
0
0
0
0
0
0
0
0
0
0
0
0
0
0
0
0
0
0
0
0
0
0
0
0
0
0
0
0
0
0
0
0
0
0
0
0
0
0
0
0
0
0
0
0
0
0
0
0
0
0
0
0
0
0
0
0
0
0
0
0
0
0
0
0
0
0
0
0
0
0
0
0
0
0
0
0
0
0
0
0
0
0
0
0
0
0
0
0
0
0
0
0
0
0
0
0
0
0
0
0
0
0
0
0
0
0
0
0
0
0
0
0
0
0
0
0
0
0
0
0
0
0
0
0
0
0
0
0
0
0
0
0
0
0
0
0
0
0
0
0
0
0
0
0
0
0
0
0
0
0
0
0
0
0
0
0
0
0
0
0
0
0
0
0
0
0
0
0
0
0
0
0
0
0
0
0
0
0
0
0
0
0
0
0
0
0
0
0
0
0
0
0
0
0
0
0
0
0
0
0
0
0
0
0
0
0
0
0
0
0
0
0
0
0
0
0
0
0
0
0
0
0
0
0
0
0
0
0
0
0
0
0
0
0
0
0
0
0
0
0
0
0
0
0
0
0
0
0
0
0
0
0
0
0
0
0
0
0
0
0
0
0
0
0
0
0
0
0
0
0
0
0
0
0
0
0
0
0
0
0
0
0
0
0
0
0
0
0
0
0
0
0
0
0
0
0
0
0
0
0
0
0
0
0
0
0
0
0
0
0
0
0
0
0
0
0
0
0
0
0
0
0
0
0
0
0
0
0
0
0
0
0
0
0
0
0
0
0
0
0
0
0
0
0
0
0
0
0
0
0
0
0
0
0
0
0
0
0
0
0
0
0
0
0
0
0
0
0
0
0
0
0
0
0
0
0
0
0
0
0
0
0
0
0
0
0
0
0
0
0
0
0
0
0
0
0
0
0
0
0
0
0
0
0
0
0
0
0
0
0
0
0
0
0
0
0
0
0
0
0
0
0
0
0
0
0
0
0
0
0
0
0
0
0
0
0
0
0
0
0
0
0
0
0
0
0
0
0
0
0
0
0
0
0
0
0
0
0
0
0
0
0
0
0
0
0
0
0
0
0
0
0
0
0
0
0
0
0
0
0
0
0
0
0
0
0
0
0
0
0
0
0
0
0
0
0
0
0
0
0
0
0
0
0
0
0
0
0
0
0
0
0
0
0
0
0
0
0
0
0
0
0
0
0
0
0
0
0
0
0
0
0
0
0
0
0
0
0
0
0
0
0
0
0
0
0
0
0
0
0
0
0
0
0
0
0
0
0
0
0
0
0
0
0
0
0
0
0
0
0
0
0
0
0
0
0
0
0
0
0
0
0
0
0
0
0
0
0
0
0
0
0
0
0
0
0
0
0
0
0
0
0
0
0
0
0
0
0
0
0
0
0
0
0
0
0
0
0
0
0
0
0
0
0
0
0
0
0
0
0
0
0
0
0
0
0
0
0
0
0
0
0
0
0
0
0
0
0
0
0
0
0
0
0
0
0
0
0
0
0
0
0
0
0
0
0
0
0
0
0
0
0
0
0
0
0
0
0
0
0
0
0
0
0
0
0
0
0
0
0
0
0
0
0
0
0
0
0
0
0
0
0
0
0
0
0
0
0
0
0
0
0
0
0
0
0
0
0
0
0
0
0
0
0
0
0
0
0
0
0
0
0
0
0
0
0
0
0
0
0
0
0
0
0
0
0
0
0
0
0
0
0
0
0
0
0
0
0
0
0
0
0
0
0
0
0
0
0
0
0
0
0
0
0
0
0
0
0
0
0
0
0
0
0
0
0
0
0
0
0
0
0
0
0
0
0
0
0
0
0
0
0
0
0
0
0
0
0
0
0
0
0
0
0
0
0
0
0
0
0
0
0
0
0
0
0
0
0
0
0
0
0
0
0
0
0
0
0
0
0
0
0
0
0
0
0
0
0
0
0
0
0
0
0
0
0
0
0
0
0
0
0
0
0
0
0
0
0
0
0
0
0
0
0
0
0
0
0
0
0
0
0
0
0
0
0
0
0
0
0
0
0
0
0
0
0
0
0
0
0
0
0
0
0
0
0
0
0
0
0
0
0
0
0
0
0
0
0
0
0
0
0
0
0
0
0
0
0
0
0
0
0
0
0
0
0
0
0
0
0
0
0
0
0
0
0
0
0
0
0
0
0
0
0
0
0
0
0
0
0
0
0
0
0
0
0
0
0
0
0
0
0
0
0
0
0
0
0
0
0
0
0
0
0
0
0
0
0
0
0
0
0
0
0
0
0
0
0
0
0
0
0
0
0
0
0
0
0
0
0
0
0
0
0
0
0
0
0
0
0
0
0
0
0
0
0
0
0
0
0
0
0
0
0
0
0
0
0
0
0
0
0
0
0
0
0
0
0
0
0
0
0
0
0
0
0
0
0
0
0
0
0
0
0
0
0
0
0
0
0
0
0
0
0
0
0
0
0
0
0
0
0
0
0
0
0
0
0
0
0
0
0
0
0
0
0
0
0
0
0
0
0
0
0
0
0
0
0
0
0
0
0
0
0
0
0
0
0
0
0
0
0
0
0
0
0
0
0
0
0
0
0
0
0
0
0
0
0
0
0
0
0
0
0
0
0
0
0
0
0
0
0
0
0
0
0
0
0
0
0
0
0
0
0
0
0
0
0
0
0
0
0
0
0
0
0
0
0
0
0
0
0
0
0
0
0
0
0
0
0
0
0
0
0
0
0
0
0
0
0
0
0
0
0
0
0
0
0
0
0
0
0
0
0
0
0
0
0
0
0
0
0
0
0
0
0
0
0
0
0
0
0
0
0
0
0
0
0
0
0
0
0
0
0
0
0
0
0
0
0
0
0
0
0
0
0
0
0
0
0
0
0
0
0
0
0
0
0
0
0
0
0
0
0
0
0
0
0
0
0
0
0
0
0
0
0
0
0
0
0
0
0
0
0
0
0
0
0
0
0
0
0
0
0
0
0
0
0
0
0
0
0
0
0
0
0
0
0
0
0
0
0
0
0
0
0
0
0
0
0
0
0
0
0
0
0
0
0
0
0
0
0
0
0
0
0
0
0
0
0
0
0
0
0
0
0
0
0
0
0
0
0
0
0
0
0
0
0
0
0
0
0
0
0
0
0
0
0
0
0
0
0
0
0
0
0
0
0
0
0
0
0
0
0
0
0
0
0
0
0
0
0
0
0
0
0
0
0
0
0
0
0
0
0
0
0
0
0
0
0
0
0
0
0
0
0
0
0
0
0
0
0
0
0
0
0
0
0
0
0
0
0
0
0
0
0
0
0
0
0
0
0
0
0
0
0
0
0
0
0
0
0
0
0
0
0
0
0
0
0
0
0
0
0
0
0
0
0
0
0
0
0
0
0
0
0
0
0
0
0
0
0
0
0
0
0
0
0
0
0
0
0
0
0
0
0
0
0
0
0
0
0
0
0
0
0
0
0
0
0
0
0
0
0
0
0
0
0
0
0
0
0
0
0
0
0
0
0
0
0
0
0
0
0
0
0
0
0
0
0
0
0
0
0
0
0
0
0
0
0
0
0
0
0
0
0
0
0
0
0
0
0
0
0
0
0
0
0
0
0
0
0
0
0
0
0
0
0
0
0
0
0
0
0
0
0
0
0
0
0
0
0
0
0
0
0
0
0
0
0
0
0
0
0
0
0
0
0
0
0
0
0
0
0
0
0
0
0
0
0
0
0
0
0
0
0
0
0
0
0
0
0
0
0
0
0
0
0
0
0
0
0
0
0
0
0
0
0
0
0
0
0
0
0
0
0
0
0
0
0
0
0
0
0
0
0
0
0
0
0
0
0
0
0
0
0
0
0
0
0
0
0
0
0
0
0
0
0
0
0
0
0
0
0
0
0
0
0
0
0
0
0
0
0
0
0
0
0
0
0
0
0
0
0
0
0
0
0
0
0
0
0
0
0
0
0
0
0
0
0
0
0
0
0
0
0
0
0
0
0
0
0
0
0
0
0
0
0
0
0
0
0
0
0
0
0
0
0
0
0
0
0
0
0
0
0
0
0
0
0
0
0
0
0
0
0
0
0
0
0
0
0
0
0
0
0
0
0
0
0
0
0
0
0
0
0
0
0
0
0
0
0
0
0
0
0
0
0
0
0
0
0
0
0
0
0
0
0
0
0
0
0
0
0
0
0
0
0
0
0
0
0
0
0
0
0
0
0
0
0
0
0
0
0
0
0
0
0
0
0
0
0
0
0
0
0
0
0
0
0
0
0
0
0
0
0
0
0
0
0
0
0
0
0
0
0
0
0
0
0
0
0
0
0
0
0
0
0
0
0
0
0
0
0
0
0
0
0
0
0
0
0
0
0
0
0
0
0
0
0
0
0
0
0
0
0
0
0
0
0
0
0
0
0
0
0
0
0
0
0
0
0
0
0
0
0
0
0
0
0
0
0
0
0
0
0
0
0
0
0
0
0
0
0
0
0
0
0
0
0
0
0
0
0
0
0
0
0
0
0
0
0
0
0
0
0
0
0
0
0
0
0
0
0
0
0
0
0
0
0
0
0
0
0
0
0
0
0
0
0
0
0
0
0
0
0
0
0
0
0
0
0
0
0
0
0
0
0
0
0
0
0
0
0
0
0
0
0
0
0
0
0
0
0
0
0
0
0
0
0
0
0
0
0
0
0
0
0
0
0
0
0
0
0
0
0
0
0
0
0
0
0
0
0
0
0
0
0
0
0
0
0
0
0
0
0
0
0
0
0
0
0
0
0
0
