0.516602
0.521908
0.524922
0.525951
0.525843
0.525873
0.52748
0.531916
0.540037
0.552059
0.567169
0.584134
0.601861
0.619918
0.638794
0.659785
0.684531
0.714509
0.751
0.793275
0.83506
0.865218
0.871583
0.844705
0.781426
0.68706
0.575087
0.464033
0.372307
0.309207
0.286007
0.299373
0.326292
0.338871
0.314709
0.245229
0.138942
0.0183139
-0.088663
-0.158852
-0.193774
-0.204864
-0.196209
-0.173758
-0.122845
0
0.345223
0.971632
1.79539
2.60258
3.13093
3.17416
2.66041
1.67612
0.436916
-0.779009
-1.71405
-2.17956
-2.17963
-1.87133
-1.3902
-0.912224
-0.571537
-0.474401
-0.467608
-0.473444
-0.482757
-0.493691
-0.504825
-0.515008
-0.523231
-0.52848
-0.529703
-0.525894
-0.516289
-0.500583
-0.479227
-0.453254
-0.423956
-0.392917
-0.361818
-0.332391
-0.306021
-0.283493
-0.264752
-0.248714
-0.23322
-0.215181
-0.190955
-0.156891
-0.110132
-0.0496499
0.0244309
0.110956
0.207512
0.310552
0.415896
0.518574
0.613849
0.698058
0.769086
0.826537
0.871548
0.906303
0.933374
0.95507
0.972999
0.987958
0.999708
1.0073
1.00937
1.0046
0.991907
0.970691
0.941001
0.903506
0.859306
0.809553
0.754937
0.695249
0.62866
0.551652
0.460127
0.350103
0.21906
0.0671676
-0.102009
-0.281607
-0.462356
-0.634049
-0.788987
-0.920736
-1.02495
-1.10001
-1.14525
-1.15801
-1.14007
-1.10297
-1.06142
-1.02836
-1.01255
-1.01709
-1.03934
-1.07251
-1.10822
-1.13927
-1.16228
-1.17759
-1.18571
-1.18656
-1.17961
-1.16369
-1.13741
-1.09988
-1.05153
-0.99488
-0.933823
-0.87226
-0.814049
-0.762241
-0.718519
-0.682963
-0.654196
-0.629812
-0.606966
-0.582986
-0.555839
-0.524211
-0.487461
-0.445406
-0.397932
-0.34472
-0.285089
-0.217902
-0.139453
-0.0414199
0.07901
0.203163
0.304159
0.357622
0.353086
0.300088
0.225357
0.161818
0.134139
0.142535
0.170423
0.200343
0.213512
0.196615
0.146717
0.0724807
-0.00874786
-0.0769413
-0.116314
-0.129248
-0.123645
-0.102087
-0.0725136
-0.0443611
-0.0258557
-0.0223186
-0.0353974
-0.0633632
-0.102263
-0.147429
-0.194758
-0.241382
-0.285883
-0.32728
-0.364141
-0.395032
-0.418497
-0.433378
-0.439184
-0.436326
-0.426109
-0.410401
-0.391144
-0.369775
-0.346838
-0.321928
-0.294021
-0.260659
-0.219627
-0.175956
-0.138856
-0.117935
-0.118281
-0.137167
-0.164515
-0.187219
-0.195142
-0.185575
-0.16755
-0.14701
-0.129512
-0.118923
-0.116667
-0.122051
-0.133329
-0.148876
-0.167605
-0.189264
-0.214279
-0.243048
-0.27568
-0.3119
-0.351116
-0.392516
-0.434999
-0.47728
-0.517372
-0.551931
-0.576878
-0.587602
-0.579804
-0.550485
-0.498783
-0.426375
-0.334686
-0.204372
0
0.293308
0.770644
1.45011
2.21631
2.83841
3.06376
2.73521
1.86864
0.655082
-0.606459
-1.61493
-2.16541
-2.18786
-1.89929
-1.45905
-1.06155
-0.807142
-0.658615
-0.48748
-0.314531
-0.156493
-0.0430263
-0.00347145
-0.0482584
-0.157977
-0.288294
-0.388229
-0.420827
-0.394656
-0.339872
-0.269129
-0.186708
-0.0953785
0.00253898
0.105073
0.209853
0.31254
0.405486
0.480179
0.528843
0.54753
0.539104
0.514566
0.491458
0.489185
0.522704
0.594189
0.690307
0.799326
0.91437
1.03045
1.14412
1.25406
1.36106
1.46752
1.57663
1.69134
1.81457
1.94969
2.09364
2.23449
2.35841
2.45353
2.51238
2.53208
2.51306
2.45745
2.36849
2.25107
2.11472
1.96814
1.81864
1.67186
1.52991
1.39167
1.25555
1.12002
0.983914
0.847104
0.7108
0.57752
0.450659
0.333656
0.22958
0.140768
0.0681094
0.0101032
-0.0363436
-0.0752456
-0.11085
-0.146988
-0.186552
-0.231133
-0.280813
-0.334639
-0.389215
-0.438161
-0.474384
-0.491857
-0.487387
-0.461777
-0.419921
-0.369711
-0.320067
-0.278703
-0.247838
-0.228465
-0.219233
-0.21672
-0.216281
-0.213124
-0.203549
-0.185805
-0.159627
-0.126198
-0.0899881
-0.0561701
-0.0291261
-0.0112973
-0.00274491
-0.0015101
-0.00454202
-0.00876918
-0.0119662
-0.0132871
-0.0124963
-0.00960579
-0.00478668
0.00177259
0.0099081
0.0194306
0.0300498
0.0413194
0.0523426
0.0619961
0.0693172
0.0738207
0.0755885
0.074982
0.0719018
0.0644165
0.0489285
0.0205031
-0.024816
-0.0872087
-0.162203
-0.237238
-0.296151
-0.32386
-0.31083
-0.255638
-0.164944
-0.0451379
0.0856812
0.20208
0.283619
0.317116
0.298269
0.232788
0.135715
0.0278562
-0.0698374
-0.141529
-0.187537
-0.214269
-0.225066
-0.219795
-0.192806
-0.129109
-0.00745707
0.165568
0.344213
0.480978
0.540444
0.50737
0.390265
0.221227
0.0506096
-0.0656375
-0.0965133
-0.0700267
-0.0104853
0.0781825
0.173691
0.251002
0.289587
0.279309
0.223901
0.140241
0.0526071
-0.0164883
-0.0544552
-0.0695545
-0.072352
-0.0666193
-0.0533834
-0.0319428
0.00782251
0.0972303
0.237393
0.386188
0.478397
0.461307
0.328492
0.131413
-0.0401872
-0.102532
-0.0241846
0.104309
0.244803
0.387012
0.523128
0.648591
0.760448
0.853483
0.923532
0.968497
0.982736
0.959291
0.894026
0.789415
0.655964
0.510477
0.371764
0.253726
0.1569
0.07999
0.0229761
-0.0157904
-0.0388464
-0.0489965
-0.0493708
-0.0423889
-0.029895
-0.0153872
-0.00312881
0.00291615
0
-0.0133101
-0.0368017
-0.165368
-0.0774696
0.390483
1.25593
2.39676
3.56983
4.45745
4.74732
4.2456
2.98976
1.28586
-0.387955
-1.58429
-2.08406
-1.9438
-1.48908
-0.964347
-0.530954
-0.230199
-0.0987757
-0.0311358
0.0255287
0.0781431
0.12863
0.178464
0.228532
0.279095
0.329954
0.380759
0.431331
0.481856
0.5329
0.585251
0.639676
0.696688
0.756314
0.818313
0.882208
0.947355
1.01305
1.07861
1.14343
1.20701
1.26903
1.3293
1.38781
1.44464
1.5
1.55415
1.60742
1.66026
1.71333
1.76756
1.8242
1.88476
1.95089
2.02422
2.10614
2.19758
2.29881
2.40942
2.52861
2.65632
2.78997
2.92019
3.03472
3.12168
3.1725
3.18376
3.15711
3.0974
3.0103
2.90073
2.77534
2.63959
2.49668
2.34862
2.1969
2.04273
1.88692
1.73007
1.5729
1.41652
1.26268
1.11391
0.973899
0.846349
0.734653
0.641207
0.567128
0.511673
0.472383
0.445798
0.428193
0.416257
0.407523
0.400505
0.394565
0.389639
0.385921
0.38372
0.383465
0.385678
0.391019
0.40026
0.414147
0.433228
0.458228
0.488862
0.518781
0.536452
0.528759
0.485436
0.392984
0.257835
0.115883
0.00977173
-0.0288088
0.00820217
0.103706
0.224943
0.338149
0.420621
0.480428
0.52666
0.561042
0.584818
0.599038
0.604356
0.601094
0.589348
0.569255
0.541262
0.506293
0.465798
0.421666
0.376053
0.33117
0.289047
0.251551
0.220235
0.196249
0.180372
0.173001
0.174141
0.183402
0.200019
0.222906
0.250728
0.281979
0.315032
0.348184
0.379531
0.406586
0.426001
0.434805
0.430444
0.411532
0.378622
0.333486
0.281978
0.232655
0.19418
0.173212
0.172895
0.192414
0.227681
0.272749
0.321345
0.368337
0.410921
0.446708
0.474351
0.493377
0.504165
0.507919
0.506585
0.502681
0.499016
0.498355
0.50302
0.51436
0.532885
0.558547
0.590614
0.627778
0.668121
0.709101
0.748029
0.78241
0.810236
0.830223
0.841937
0.845833
0.843205
0.836049
0.826894
0.818348
0.812849
0.812347
0.818
0.830081
0.847792
0.8695
0.893067
0.916109
0.936275
0.952015
0.962885
0.969735
0.974675
0.980812
0.991767
1.01108
1.04163
1.08456
1.13951
1.20816
1.2951
1.41101
1.57075
1.76763
1.96282
2.10667
2.15245
2.07272
1.87348
1.59991
1.32741
1.13569
1.03817
0.983751
0.946631
0.919694
0.899082
0.880695
0.86038
0.834124
0.798269
0.749761
0.686411
0.60715
0.512184
0.403023
0.282331
0.152133
0
0.051671
0.417985
1.13403
2.14665
3.31688
4.43095
5.22135
5.41819
4.84652
3.5347
1.75906
-0.0311882
-1.39044
-2.05701
-2.03048
-1.51838
-0.789324
-0.0596201
0.548483
0.967586
1.06415
1.11443
1.15709
1.19462
1.22864
1.26053
1.29141
1.32217
1.35379
1.38755
1.42519
1.46873
1.52012
1.58078
1.65079
1.72898
1.81354
1.90209
1.9919
2.08023
2.16458
2.24332
2.31617
2.38422
2.4499
2.5166
2.58818
2.66832
2.75989
2.86438
2.98144
3.10921
3.24548
3.38792
3.53433
3.68298
3.83281
3.98336
4.13469
4.28718
4.44133
4.59773
4.75713
4.92067
5.09021
5.26885
5.45958
5.65711
5.84218
5.98301
6.03887
5.97466
5.782
5.49441
5.18421
4.93497
4.77262
4.645
4.52769
4.41483
4.30428
4.19532
4.08878
3.98685
3.89255
3.80893
3.73854
3.68284
3.64197
3.61449
3.5974
3.58675
3.57835
3.56836
3.55384
3.53312
3.50595
3.47356
3.4384
3.40383
3.37381
3.35199
3.34105
3.34221
3.35532
3.37843
3.40867
3.44297
3.47875
3.51439
3.5492
3.58309
3.61604
3.64741
3.67571
3.69805
3.71021
3.70759
3.68571
3.64108
3.57215
3.47988
3.36803
3.24274
3.11153
2.98193
2.85936
2.7477
2.64806
2.5593
2.47884
2.40373
2.33163
2.2615
2.19367
2.12952
2.0706
2.01795
1.97242
1.93373
1.90073
1.87166
1.84449
1.81724
1.78817
1.75587
1.71934
1.67801
1.63193
1.58168
1.52861
1.47484
1.42319
1.37678
1.33859
1.31118
1.29651
1.29511
1.30516
1.32271
1.34276
1.36012
1.37043
1.37098
1.3613
1.34336
1.32152
1.30197
1.29191
1.31362
1.42403
1.64378
1.90247
2.12288
2.25641
2.29176
2.24064
2.1203
1.95162
1.77119
1.63069
1.55063
1.51511
1.50155
1.49701
1.49644
1.49567
1.49149
1.48205
1.46702
1.44764
1.42672
1.40776
1.3947
1.3912
1.39986
1.42244
1.45817
1.50431
1.55615
1.60607
1.64526
1.66589
1.66212
1.63074
1.57151
1.48704
1.38189
1.26138
1.13046
0.994117
0.855496
0.716483
0.578868
0.44472
0.316447
0.19693
0.0895633
-0.00255146
-0.0772755
-0.133437
-0.171051
-0.191382
-0.19686
-0.190834
-0.174991
-0.136249
0
0.350635
1.00491
1.92564
2.91751
3.6797
3.92099
3.48047
2.40007
0.92359
-0.574977
-1.71567
-2.2511
-2.14154
-1.64781
-1.04132
-0.574631
-0.355309
-0.323544
-0.278398
-0.225768
-0.167033
-0.101555
-0.0298923
0.0462381
0.124226
0.201165
0.274652
0.343388
0.407537
0.468736
0.529786
0.594133
0.665249
0.745864
0.839539
0.953434
1.09839
1.27772
1.46837
1.63523
1.74627
1.77886
1.72609
1.60275
1.44811
1.32064
1.2806
1.33971
1.45563
1.59794
1.7542
1.91853
2.08636
2.25404
2.41889
2.57897
2.73273
2.87834
3.01338
3.13466
3.23842
3.32212
3.38478
3.42732
3.4528
3.46635
3.47444
3.48384
3.50309
3.54105
3.58553
3.61088
3.58704
3.49146
3.3186
3.08283
2.8139
2.54719
2.30975
2.09861
1.90973
1.74495
1.60432
1.48628
1.38819
1.30686
1.23906
1.18188
1.13295
1.09058
1.05364
1.02143
0.993429
0.969076
0.947591
0.927894
0.908454
0.887368
0.862835
0.833624
0.799517
0.761564
0.722015
0.683899
0.650332
0.623742
0.605125
0.594483
0.589922
0.588647
0.587742
0.584922
0.579027
0.570175
0.559588
0.549175
0.540938
0.536299
0.536046
0.540533
0.54924
0.559959
0.569699
0.575538
0.575382
0.568514
0.555747
0.539149
0.521462
0.505397
0.49272
0.484084
0.479509
0.478503
0.480068
0.482761
0.484952
0.485136
0.482167
0.475422
0.464887
0.451132
0.435215
0.418525
0.402603
0.388918
0.378749
0.373105
0.372672
0.377702
0.387682
0.401145
0.415661
0.4278
0.433585
0.429525
0.413282
0.384294
0.344128
0.296427
0.246438
0.20022
0.163726
0.140803
0.132394
0.139955
0.163523
0.201648
0.251248
0.308922
0.370046
0.429566
0.483256
0.528455
0.564446
0.592351
0.614522
0.633571
0.651035
0.666531
0.676255
0.674431
0.656305
0.62108
0.573417
0.522764
0.480787
0.45802
0.458084
0.476799
0.51381
0.567624
0.636143
0.71635
0.806113
0.904773
1.01226
1.12833
1.24916
1.36306
1.45416
1.50619
1.50724
1.45469
1.35785
1.23627
1.1137
1.01007
0.930332
0.867209
0.814774
0.770345
0.732899
0.701647
0.675833
0.654675
0.636875
0.619341
0.597097
0.56437
0.515831
0.448001
0.360404
0.256046
0.128533
0
0.189215
0.802446
1.79815
2.9591
3.94765
4.42678
4.19329
3.25801
1.84053
0.289268
-1.03775
-1.88299
-2.14455
-1.88901
-1.40448
-0.845055
-0.385872
-0.197219
-0.207405
-0.230026
-0.24548
-0.239657
-0.202788
-0.132771
-0.0313638
0.0817915
0.182738
0.252038
0.281682
0.277165
0.254137
0.231484
0.223907
0.233219
0.254631
0.282546
0.308399
0.323844
0.322964
0.303692
0.268174
0.222186
0.173893
0.132385
0.104758
0.0941113
0.101683
0.128496
0.174776
0.239148
0.318808
0.409884
0.507977
0.608741
0.708491
0.804567
0.895475
0.980876
1.06141
1.13839
1.21348
1.28833
1.36447
1.44311
1.52335
1.59853
1.65707
1.68509
1.67011
1.60473
1.48934
1.33302
1.15242
0.968527
0.799723
0.651567
0.52233
0.412993
0.322798
0.245526
0.172799
0.0962864
0.00977068
-0.0892948
-0.199152
-0.314218
-0.42654
-0.527833
-0.613438
-0.676365
-0.713243
-0.72904
-0.734495
-0.740739
-0.755765
-0.78197
-0.815419
-0.847061
-0.865586
-0.861073
-0.830426
-0.778777
-0.713003
-0.6383
-0.559544
-0.48133
-0.407261
-0.339705
-0.279732
-0.227316
-0.181684
-0.141694
-0.10616
-0.0740528
-0.044482
-0.016716
0.00989361
0.0359673
0.0620842
0.0887049
0.116014
0.143723
0.170897
0.19574
0.215802
0.229086
0.234767
0.23401
0.230395
0.229688
0.238861
0.264491
0.324754
0.429189
0.552463
0.658072
0.713975
0.705604
0.640242
0.541716
0.43896
0.354309
0.291839
0.242543
0.200848
0.164483
0.132539
0.105038
0.0827919
0.0672997
0.060272
0.0630844
0.0762869
0.0992931
0.130319
0.16673
0.205117
0.241747
0.273547
0.29873
0.317179
0.330456
0.341434
0.353548
0.369855
0.392666
0.423395
0.457822
0.489385
0.511688
0.521036
0.517906
0.506776
0.494457
0.487752
0.49116
0.503782
0.523749
0.54957
0.579427
0.611044
0.641608
0.667793
0.686328
0.694188
0.688869
0.668711
0.633147
0.582822
0.51957
0.446304
0.366369
0.28456
0.211354
0.160014
0.144309
0.174964
0.255293
0.378092
0.525836
0.674838
0.801824
0.895408
0.961461
0.99725
1.00186
0.975396
0.918598
0.835334
0.728855
0.603526
0.465791
0.323966
0.187432
0.0648928
-0.0339283
-0.0931913
-0.10605
-0.0848108
-0.0479858
-0.014662
0
-0.014217
-0.0593786
-0.134028
-0.233488
-0.350278
-0.482622
-0.562973
-0.329861
0.309955
1.28408
2.34727
3.16798
3.46294
3.11398
2.21359
1.02159
-0.142482
-1.01997
-1.49177
-1.53565
-1.27511
-0.991726
-0.695687
-0.41375
-0.181986
0.0010273
0.153253
0.280959
0.3856
0.470599
0.540671
0.600935
0.655981
0.708863
0.760946
0.810653
0.853952
0.886502
0.905897
0.91305
0.91217
0.909318
0.91019
0.918121
0.932159
0.95015
0.970002
0.990368
1.01165
1.03644
1.06922
1.11535
1.17971
1.26457
1.36837
1.48947
1.62587
1.76764
1.89953
2.00856
2.08774
2.13833
2.16991
2.19781
2.23851
2.30438
2.39915
2.51311
2.63807
2.76521
2.88601
2.99335
3.07622
3.12669
3.1407
3.11372
3.04233
2.92736
2.77631
2.60271
2.42222
2.24732
2.08096
1.92063
1.76545
1.61477
1.46875
1.32876
1.19724
1.07739
0.973836
0.889118
0.822136
0.769521
0.726552
0.688343
0.6508
0.611097
0.567653
0.519874
0.468218
0.413784
0.357885
0.302169
0.248692
0.199677
0.157228
0.122942
0.097431
0.0800396
0.0685118
0.0589279
0.0471544
0.030085
0.00655727
-0.0222338
-0.0530039
-0.0813217
-0.102869
-0.111332
-0.107245
-0.0991703
-0.0982761
-0.112682
-0.142802
-0.180186
-0.210748
-0.22105
-0.200678
-0.15582
-0.103315
-0.0620176
-0.04324
-0.0454254
-0.05557
-0.055975
-0.0322704
0.0174759
0.0822899
0.158198
0.241307
0.322967
0.391344
0.434806
0.443458
0.411537
0.339956
0.237702
0.12103
0.0102684
-0.0748732
-0.128416
-0.143298
-0.0858067
0.0566343
0.231668
0.38213
0.462567
0.450974
0.355315
0.212154
0.0752466
-0.00451775
-0.00745869
0.0287172
0.0804422
0.135833
0.183379
0.213983
0.222184
0.206493
0.169066
0.115091
0.0520199
-0.0114223
-0.0682629
-0.113585
-0.144652
-0.161322
-0.164307
-0.155688
-0.138326
-0.115351
-0.0898802
-0.0652191
-0.0456345
-0.0354589
-0.0384178
-0.0564276
-0.0884279
-0.129875
-0.173272
-0.209663
-0.230642
-0.234429
-0.220511
-0.189104
-0.142614
-0.085125
-0.0215931
0.0430531
0.104763
0.161129
0.210855
0.253764
0.290425
0.321686
0.34832
0.370548
0.387721
0.398196
0.39963
0.389707
0.366455
0.328955
0.277969
0.216279
0.148606
0.0810328
0.0200193
-0.0288885
-0.0569666
-0.0569105
-0.0348412
-0.00649891
0.0101246
0
-0.0471579
-0.129809
-0.241691
-0.372783
-0.512649
-0.653001
-0.790459
-0.923239
-1.01138
-0.866163
-0.430589
0.367161
1.48302
2.72155
3.77039
4.30339
4.10894
3.18449
1.75027
0.172113
-1.17345
-2.02896
-2.3243
-2.07774
-1.72168
-1.32572
-1.00397
-0.822622
-0.70793
-0.607297
-0.512207
-0.421747
-0.336232
-0.256177
-0.182043
-0.113987
-0.0516922
0.00561867
0.0589863
0.109259
0.156561
0.199716
0.236477
0.263808
0.279716
0.28502
0.284162
0.284478
0.294169
0.319856
0.364516
0.423509
0.493146
0.571848
0.658138
0.750912
0.849352
0.952649
1.05965
1.16869
1.27714
1.38089
1.47624
1.56123
1.63679
1.70724
1.77957
1.86179
1.9606
2.07921
2.21922
2.37396
2.52788
2.66414
2.769
2.83432
2.85786
2.84165
2.78979
2.70654
2.59639
2.46336
2.3103
2.1404
1.95775
1.76653
1.57053
1.37349
1.17937
0.992141
0.815487
0.652443
0.505094
0.374385
0.260998
0.165175
0.0827549
0.00792046
-0.065078
-0.140542
-0.220254
-0.30306
-0.385283
-0.461781
-0.527273
-0.579818
-0.617324
-0.638773
-0.644423
-0.635636
-0.614559
-0.582531
-0.543481
-0.503805
-0.469983
-0.447531
-0.439965
-0.448115
-0.470002
-0.501286
-0.536133
-0.568404
-0.593761
-0.609851
-0.615554
-0.610921
-0.597138
-0.576468
-0.551822
-0.526245
-0.502437
-0.482448
-0.467144
-0.45614
-0.447825
-0.43954
-0.42794
-0.4095
-0.380402
-0.332956
-0.261472
-0.175809
-0.093845
-0.0343201
-0.0105755
-0.0265816
-0.0764652
-0.146972
-0.221288
-0.282736
-0.322914
-0.341489
-0.339996
-0.311152
-0.240828
-0.127366
0.00102119
0.111416
0.175575
0.177995
0.119942
0.0182056
-0.10035
-0.205988
-0.274162
-0.305357
-0.305365
-0.253008
-0.151668
-0.0364128
0.0515568
0.0791874
0.0340916
-0.0704964
-0.201079
-0.316924
-0.384056
-0.400567
-0.385574
-0.349556
-0.295799
-0.225864
-0.141137
-0.0426754
0.0666061
0.179623
0.285289
0.372407
0.4318
0.457815
0.44915
0.408823
0.34336
0.26149
0.172712
0.0859196
0.00668983
-0.0626171
-0.120949
-0.167513
-0.201643
-0.223396
-0.233403
-0.232669
-0.222364
-0.203718
-0.178024
-0.146817
-0.111588
-0.0750378
-0.0413898
-0.0151302
0
0.00925293
0.00610237
-0.0248814
-0.0228569
0.30344
0.944672
1.75808
2.5034
2.92418
2.83792
2.20735
1.16288
-0.0376152
-1.10251
-1.81104
-2.07789
-1.98811
-1.65052
-1.18695
-0.682646
-0.199771
0.139458
0.239284
0.27188
0.272228
0.248189
0.213534
0.18415
0.173312
0.183009
0.207376
0.244167
0.287656
0.331126
0.368503
0.395713
0.411386
0.416755
0.414932
0.409962
0.405957
0.405712
0.411266
0.424236
0.445476
0.475128
0.512444
0.556104
0.604539
0.656264
0.710116
0.765326
0.821459
0.878294
0.935735
0.993838
1.05291
1.11357
1.17677
1.24362
1.31521
1.39218
1.47512
1.56387
1.65417
1.7396
1.81332
1.86963
1.90484
1.91727
1.90634
1.87166
1.8124
1.73195
1.63205
1.51309
1.37644
1.22437
1.0598
0.886622
0.708055
0.526561
0.344537
0.164469
-0.0108871
-0.178385
-0.334505
-0.474482
-0.593618
-0.688811
-0.758424
-0.802758
-0.822302
-0.821786
-0.807287
-0.785147
-0.760901
-0.738495
-0.719965
-0.705603
-0.694484
-0.685114
-0.676213
-0.667114
-0.65777
-0.648698
-0.6406
-0.63391
-0.62847
-0.623465
-0.617691
-0.610008
-0.599626
-0.586776
-0.572504
-0.55804
-0.544074
-0.530243
-0.515112
-0.496665
-0.473108
-0.443634
-0.409456
-0.372372
-0.334697
-0.299097
-0.268472
-0.245342
-0.231158
-0.226191
-0.229378
-0.238379
-0.249915
-0.26039
-0.266679
-0.266813
-0.260148
-0.248197
-0.233678
-0.219557
-0.208074
-0.200087
-0.194914
-0.190675
-0.184961
-0.175601
-0.161524
-0.142808
-0.120192
-0.094828
-0.0682751
-0.0424794
-0.0196177
-0.00162773
0.0100717
0.0148515
0.013028
0.00583391
-0.00480747
-0.0166456
-0.0274829
-0.0355213
-0.0395321
-0.0382628
-0.0304388
-0.0152461
0.00785732
0.0389073
0.0771833
0.121091
0.168272
0.215948
0.26138
0.302538
0.3382
0.367629
0.390673
0.407605
0.419008
0.425582
0.428124
0.42757
0.425028
0.421795
0.4193
0.418979
0.422075
0.429394
0.441106
0.456673
0.4746
0.49193
0.504981
0.510525
0.506838
0.494487
0.476569
0.45824
0.445631
0.444486
0.458032
0.487688
0.535484
0.605612
0.707409
0.846241
1.00134
1.13677
1.20235
1.15596
0.991461
0.750675
0.50813
0.335216
0.256847
0.214231
0.182463
0.155861
0.130098
0.102737
0.0735095
0.0440945
0.0176019
-0.00240831
-0.0129041
-0.0121363
0
0.0252551
0.0578491
0.0947205
0.135537
0.139765
0.402897
1.05767
2.02818
3.00671
3.57799
3.43251
2.5422
1.18401
-0.204708
-1.24653
-1.78064
-1.80911
-1.69438
-1.48553
-1.24402
-0.987903
-0.73199
-0.530285
-0.393731
-0.302752
-0.240297
-0.196068
-0.167597
-0.1512
-0.142476
-0.136891
-0.130358
-0.119957
-0.103899
-0.081256
-0.0516664
-0.0156384
0.0254449
0.0695572
0.11412
0.156027
0.192595
0.222267
0.245136
0.263213
0.280272
0.30118
0.330822
0.372942
0.429294
0.497818
0.575476
0.660085
0.74991
0.843793
0.941326
1.04275
1.14863
1.25946
1.3752
1.49511
1.61757
1.74017
1.85917
1.96886
2.06351
2.13822
2.18934
2.21508
2.21569
2.19325
2.15102
2.09276
2.02209
1.94332
1.85966
1.773
1.68452
1.59492
1.5044
1.41265
1.319
1.22263
1.12282
1.0192
0.911801
0.801118
0.688033
0.573828
0.460197
0.349394
0.244342
0.148589
0.0670749
0.0138631
0.0202649
0.0901086
0.190587
0.276898
0.311903
0.281645
0.198529
0.0921862
-0.00515718
-0.0704923
-0.107654
-0.127478
-0.134756
-0.131045
-0.11714
-0.0938911
-0.0621511
-0.023089
0.0214224
0.0685574
0.114402
0.154399
0.184494
0.201822
0.205305
0.195903
0.17641
0.150812
0.123426
0.098091
0.0774019
0.0623269
0.0534397
0.0514206
0.0565953
0.0697226
0.0914497
0.118455
0.143816
0.15957
0.159135
0.139619
0.102979
0.0554681
0.00561533
-0.0383917
-0.072448
-0.0970124
-0.113104
-0.121315
-0.122729
-0.118529
-0.109779
-0.0973971
-0.0822782
-0.0653633
-0.0484672
-0.0344181
-0.0264874
-0.0276826
-0.039888
-0.0631495
-0.095359
-0.132453
-0.169059
-0.199429
-0.219646
-0.227493
-0.220885
-0.197623
-0.155159
-0.0902445
-0.000747681
0.106405
0.211352
0.292292
0.329658
0.31159
0.239444
0.130552
0.0156973
-0.0695185
-0.0974956
-0.079376
-0.0371621
0.0214599
0.0857842
0.145155
0.191254
0.219664
0.230302
0.226696
0.214413
0.199175
0.185139
0.17386
0.165624
0.15968
0.15512
0.151731
0.150557
0.153912
0.164854
0.186293
0.220114
0.265627
0.321272
0.385376
0.456016
0.531294
0.61012
0.692014
0.776201
0.858979
0.93208
0.984301
1.00481
0.987248
0.932682
0.84981
0.752228
0.653946
0.565322
0.487963
0.419773
0.360168
0.309732
0.269043
0.238745
0.221028
0.215729
0.217237
0.218018
0.210737
0.190681
0.157403
0.111596
0
0.152674
0.696515
1.64263
2.8367
3.97027
4.67121
4.64738
3.81687
2.35973
0.659319
-0.84428
-1.81911
-2.14738
-1.9303
-1.40816
-0.821329
-0.333048
0.00132666
0.185993
0.295931
0.387877
0.469328
0.539498
0.59765
0.644096
0.680166
0.708081
0.73068
0.751003
0.771798
0.795448
0.823429
0.853651
0.880375
0.896643
0.896878
0.879276
0.847146
0.808703
0.775433
0.759574
0.768749
0.802974
0.860146
0.939443
1.03862
1.15362
1.27922
1.40981
1.53745
1.65524
1.75881
1.84703
1.92215
1.98891
2.05309
2.11983
2.19226
2.27012
2.35159
2.43442
2.51605
2.59405
2.66651
2.73212
2.79005
2.83954
2.87926
2.90647
2.91678
2.90556
2.86745
2.79756
2.69281
2.55326
2.38277
2.18886
1.98163
1.77199
1.5686
1.37637
1.19895
1.03795
0.893351
0.764259
0.650885
0.554747
0.4768
0.418463
0.381246
0.36562
0.370093
0.390864
0.422154
0.45712
0.489048
0.512757
0.524823
0.523888
0.510393
0.485956
0.452635
0.412314
0.366544
0.316682
0.263959
0.20965
0.155579
0.104387
0.0635872
0.0719026
0.254078
0.57985
0.925275
1.16493
1.21649
1.07151
0.78897
0.459846
0.17627
0.0380589
0.026258
0.0573307
0.104578
0.160974
0.224587
0.294259
0.369167
0.449923
0.536163
0.621596
0.69684
0.751893
0.779516
0.777724
0.750169
0.704533
0.65005
0.595389
0.545748
0.503057
0.468586
0.443265
0.427342
0.420415
0.42168
0.430043
0.444274
0.462985
0.48492
0.508706
0.532323
0.553368
0.569681
0.579904
0.58394
0.583048
0.579454
0.575586
0.573261
0.573141
0.574627
0.576854
0.57901
0.580796
0.582594
0.585286
0.589835
0.596808
0.60587
0.616153
0.626415
0.635205
0.641217
0.64359
0.64212
0.637352
0.630535
0.623465
0.618218
0.616832
0.620969
0.63158
0.648789
0.67197
0.699916
0.730979
0.763298
0.795007
0.824351
0.849627
0.869133
0.881495
0.885924
0.882292
0.871397
0.855128
0.836409
0.818856
0.806196
0.801578
0.806773
0.822318
0.847394
0.880212
0.918606
0.960537
1.0047
1.05071
1.09884
1.14993
1.20524
1.26293
1.31317
1.34108
1.33128
1.27402
1.1702
1.03275
0.883346
0.745286
0.635035
0.547425
0.478356
0.423441
0.376774
0.332584
0.286503
0.236173
0.181162
0.122439
0.0617764
0
0.0433812
0.349235
1.0586
2.17519
3.50274
4.68055
5.30653
5.10059
4.03678
2.37569
0.569842
-0.920221
-1.80484
-2.04342
-1.79057
-1.29924
-0.761231
-0.309849
-0.0358809
0.0181689
0.0466504
0.0755938
0.107996
0.146552
0.193181
0.249567
0.318174
0.404592
0.515821
0.641869
0.755662
0.819592
0.799459
0.684138
0.497608
0.294372
0.13957
0.0830389
0.0953365
0.137605
0.199842
0.275848
0.359302
0.444656
0.528413
0.608908
0.686028
0.761059
0.836289
0.914507
0.998474
1.09044
1.19182
1.30304
1.42349
1.55157
1.68493
1.82074
1.95598
2.08778
2.21358
2.33094
2.4372
2.52984
2.60699
2.66707
2.70854
2.72993
2.72998
2.70776
2.66278
2.59505
2.50514
2.39427
2.2644
2.11856
1.96114
1.7969
1.63007
1.46439
1.30302
1.14843
1.0015
0.861892
0.728735
0.601368
0.480079
0.36647
0.263309
0.173915
0.10125
0.0473039
0.0132422
-0.00205631
-0.0026866
0.00388288
0.00894804
0.00519695
-0.0119322
-0.0434721
-0.0868561
-0.136601
-0.185648
-0.227073
-0.256309
-0.273099
-0.279281
-0.275814
-0.264704
-0.248026
-0.227225
-0.202727
-0.173941
-0.139645
-0.0986488
-0.0503735
0.00556126
0.0658357
0.124414
0.174297
0.209023
0.223886
0.216619
0.187562
0.139549
0.0777357
0.0099288
-0.0557646
-0.110271
-0.145283
-0.154946
-0.133569
-0.0752663
0.00394535
0.0825734
0.140717
0.166339
0.15847
0.126465
0.0858994
0.052695
0.0373298
0.038492
0.0519659
0.0654985
0.0651523
0.0406815
-0.0102023
-0.0803715
-0.155264
-0.217521
-0.252432
-0.259962
-0.247102
-0.213173
-0.157809
-0.0895613
-0.0237806
0.0248833
0.0454245
0.0326421
-0.0121279
-0.0819041
-0.166051
-0.252468
-0.330417
-0.39532
-0.443214
-0.471379
-0.479615
-0.47031
-0.447924
-0.41794
-0.385555
-0.354563
-0.326324
-0.300988
-0.278135
-0.257468
-0.238972
-0.223126
-0.210735
-0.202232
-0.197093
-0.193752
-0.190123
-0.184335
-0.175746
-0.166146
-0.158395
-0.154362
-0.153048
-0.150049
-0.138829
-0.11335
-0.0677711
-0.00335484
0.0663083
0.123946
0.155757
0.157218
0.135296
0.106494
0.0916773
0.109535
0.164164
0.246097
0.347044
0.464617
0.590744
0.713176
0.819852
0.901078
0.950564
0.965701
0.947255
0.898756
0.825797
0.73531
0.635043
0.532345
0.432677
0.339279
0.253963
0.178274
0.114124
0.0634416
0.0268424
0.00445414
-0.00413065
0
0.0197947
0.0479465
0.0814961
0.117348
0.152251
0.125314
0.241034
0.696767
1.55901
2.73188
3.95021
4.84308
5.06274
4.43588
3.06626
1.32366
-0.294194
-1.36521
-1.70682
-1.40186
-0.781317
-0.135701
0.313044
0.465753
0.458667
0.454818
0.455179
0.462083
0.47685
0.499362
0.528388
0.562658
0.600892
0.641917
0.684851
0.729138
0.774448
0.820503
0.866893
0.912935
0.957662
0.999948
1.03872
1.07321
1.10315
1.12891
1.15157
1.17291
1.19533
1.22165
1.25497
1.29829
1.35412
1.42391
1.50772
1.60516
1.7152
1.83167
1.94847
2.06163
2.17081
2.27954
2.39409
2.52123
2.66557
2.83341
3.0202
3.204
3.35967
3.46777
3.52028
3.52115
3.48222
3.41644
3.3316
3.22955
3.11099
2.97643
2.82553
2.65787
2.47522
2.2814
2.08174
1.88217
1.68819
1.50422
1.33329
1.17699
1.03576
0.909311
0.797004
0.697977
0.611191
0.535718
0.470242
0.411425
0.355445
0.298907
0.239774
0.178063
0.115967
0.0573088
0.00646932
-0.0328669
-0.0600833
-0.0751868
-0.0798913
-0.0771599
-0.0705425
-0.0635114
-0.0589227
-0.0587594
-0.0640565
-0.074981
-0.0910054
-0.111068
-0.13397
-0.158711
-0.184754
-0.212283
-0.242406
-0.277124
-0.318955
-0.370355
-0.432918
-0.506613
-0.589247
-0.676342
-0.76153
-0.836495
-0.880688
-0.855447
-0.765573
-0.649447
-0.553954
-0.513811
-0.53946
-0.617839
-0.722428
-0.824901
-0.902507
-0.953833
-0.986083
-1.00374
-1.0088
-1.00239
-0.987396
-0.966904
-0.943449
-0.918489
-0.892202
-0.86373
-0.831781
-0.795079
-0.753151
-0.707906
-0.664992
-0.632214
-0.616936
-0.623632
-0.652031
-0.696575
-0.747607
-0.79416
-0.827422
-0.844809
-0.850726
-0.848323
-0.841542
-0.833576
-0.825725
-0.81704
-0.804802
-0.785581
-0.756488
-0.717598
-0.670164
-0.61561
-0.555651
-0.492499
-0.428102
-0.363808
-0.300313
-0.237991
-0.177878
-0.123724
-0.0832946
-0.067824
-0.0877351
-0.147201
-0.240525
-0.352566
-0.463233
-0.553886
-0.618118
-0.659849
-0.679355
-0.679234
-0.663393
-0.63638
-0.602652
-0.564991
-0.524926
-0.483005
-0.438995
-0.392248
-0.341863
-0.287146
-0.227865
-0.163816
-0.092972
0
0.181108
0.545128
1.11603
1.79979
2.37793
2.57828
2.20442
1.25733
-0.0316382
-1.29073
-2.17417
-2.49745
-2.3346
-1.86185
-1.30436
-0.832481
-0.537751
-0.469759
-0.473414
-0.485999
-0.500159
-0.511588
-0.515528
-0.507344
-0.483705
-0.443159
-0.378019
-0.286185
-0.1846
-0.0943361
-0.0335551
-0.0111061
-0.0231779
-0.0541718
-0.0813588
-0.081657
-0.0394838
0.0641802
0.237319
0.429802
0.581576
0.64937
0.626093
0.543712
0.457757
0.421146
0.461373
0.548601
0.654634
0.770251
0.891548
1.01615
1.14307
1.27239
1.40469
1.54033
1.67887
1.81884
1.95715
2.08887
2.20732
2.3046
2.37444
2.41312
2.41896
2.39243
2.33614
2.25471
2.15439
2.04239
1.92587
1.81082
1.7004
1.59572
1.49721
1.40469
1.31741
1.2344
1.15485
1.07843
1.00548
0.936955
0.874102
0.818101
0.770457
0.731436
0.69911
0.670566
0.64265
0.612725
0.579169
0.541462
0.499943
0.455423
0.409008
0.361823
0.314925
0.269633
0.227635
0.19101
0.162135
0.143492
0.137403
0.14565
0.169114
0.207436
0.258789
0.320141
0.387432
0.454586
0.515649
0.565906
0.602671
0.625539
0.636035
0.636815
0.630701
0.619598
0.604865
0.587105
0.566821
0.545121
0.524042
0.50634
0.494805
0.491393
0.496066
0.50688
0.521653
0.538082
0.553766
0.566646
0.575262
0.578789
0.576888
0.569449
0.55597
0.535755
0.508358
0.473546
0.431769
0.384188
0.333779
0.284776
0.241838
0.209148
0.189651
0.184626
0.193659
0.214886
0.24535
0.28085
0.31774
0.351368
0.377363
0.392403
0.394946
0.38572
0.367743
0.345776
0.325302
0.311317
0.306564
0.311028
0.3234
0.342166
0.364768
0.387685
0.407531
0.421838
0.429562
0.431282
0.429031
0.42578
0.424705
0.428427
0.43818
0.453807
0.474541
0.499261
0.526896
0.556892
0.589489
0.625718
0.668082
0.72197
0.792844
0.871858
0.940496
0.977927
0.969753
0.914364
0.823674
0.717979
0.617795
0.536721
0.471493
0.415308
0.364411
0.316476
0.269624
0.222616
0.17511
0.127978
0.0835945
0.0452633
0.0164619
0
0.00674133
0.0269268
0.0584705
0.10593
0.217033
0.445201
0.873983
1.58502
2.55743
3.58203
4.2729
4.22609
3.25735
1.55831
-0.356374
-1.89881
-2.69654
-2.64471
-2.27006
-1.76372
-1.33221
-1.03509
-0.837514
-0.674668
-0.544898
-0.464203
-0.443435
-0.483016
-0.571067
-0.686311
-0.804176
-0.903468
-0.979818
-1.03953
-1.0877
-1.12714
-1.15934
-1.18575
-1.20752
-1.22544
-1.23994
-1.25107
-1.25887
-1.26353
-1.26492
-1.26218
-1.25342
-1.23564
-1.20518
-1.1585
-1.09308
-1.0093
-0.908569
-0.793468
-0.667529
-0.534592
-0.398426
-0.261808
-0.126932
0.00440788
0.130756
0.251141
0.365062
0.472583
0.574401
0.671785
0.766398
0.860043
0.954428
1.05105
1.15147
1.25789
1.37083
1.48089
1.5698
1.61445
1.59501
1.50396
1.35068
1.15927
0.960708
0.783299
0.630976
0.49579
0.374671
0.266345
0.167665
0.0740475
-0.018824
-0.113817
-0.211447
-0.309552
-0.403732
-0.487108
-0.54565
-0.5725
-0.574343
-0.564689
-0.557075
-0.558665
-0.567895
-0.57718
-0.578688
-0.569496
-0.555003
-0.539861
-0.52812
-0.521709
-0.519619
-0.518424
-0.513883
-0.502869
-0.4856
-0.463811
-0.44129
-0.422455
-0.410881
-0.408131
-0.413265
-0.423188
-0.433688
-0.440808
-0.44257
-0.439367
-0.432474
-0.424404
-0.418309
-0.417052
-0.422399
-0.434463
-0.451584
-0.470693
-0.488084
-0.500422
-0.504853
-0.500643
-0.491133
-0.481738
-0.478131
-0.48426
-0.500887
-0.525146
-0.551287
-0.57239
-0.582564
-0.576665
-0.553747
-0.521714
-0.491602
-0.473254
-0.471634
-0.485392
-0.508353
-0.533295
-0.556225
-0.579069
-0.607001
-0.646557
-0.703006
-0.777841
-0.867569
-0.96421
-1.05218
-1.11568
-1.1436
-1.1328
-1.08879
-1.02353
-0.951424
-0.884937
-0.829677
-0.786312
-0.754537
-0.732654
-0.718603
-0.710197
-0.705789
-0.704385
-0.704934
-0.706164
-0.706568
-0.704524
-0.698549
-0.687722
-0.671302
-0.64902
-0.620705
-0.586644
-0.547502
-0.503729
-0.455275
-0.401464
-0.341124
-0.272973
-0.196158
-0.109678
-0.013815
0.0875198
0.185318
0.268609
0.327337
0.354316
0.346473
0.305264
0.236305
0.148425
0.0524116
-0.0406517
-0.123696
-0.19383
-0.249714
-0.288965
-0.309509
-0.312464
-0.304244
-0.293155
-0.287233
-0.292461
-0.311551
-0.343624
-0.384819
-0.429553
-0.471934
-0.499982
-0.356503
0
0.484972
1.11889
1.91007
2.77439
3.4898
3.75527
3.3477
2.27543
0.808829
-0.64421
-1.73195
-2.29142
-2.34666
-2.06086
-1.58785
-1.07401
-0.633927
-0.354959
-0.272572
-0.236743
-0.206682
-0.177099
-0.145987
-0.112125
-0.0749393
-0.0353439
0.00387611
0.0393433
0.0681296
0.0886581
0.101165
0.1076
0.111059
0.115048
0.122767
0.136073
0.156337
0.184916
0.222716
0.27008
0.326616
0.391102
0.461463
0.535452
0.610765
0.685908
0.760809
0.837146
0.918251
1.00855
1.11263
1.23412
1.37452
1.53222
1.70326
1.88251
2.06246
2.23465
2.39242
2.53236
2.65512
2.76399
2.86182
2.98996
3.20525
3.45881
3.65995
3.73209
3.6464
3.42747
3.1359
2.84078
2.59487
2.39627
2.22141
2.06039
1.91176
1.77672
1.65593
1.5496
1.45715
1.37585
1.3014
1.22899
1.15408
1.07318
0.984431
0.887747
0.784772
0.678574
0.573217
0.473848
0.387616
0.320616
0.277895
0.262337
0.273623
0.314577
0.374904
0.43874
0.490495
0.519062
0.520432
0.497889
0.460007
0.417517
0.380311
0.353124
0.336352
0.329691
0.3328
0.344806
0.364602
0.39038
0.419376
0.448965
0.477082
0.502471
0.524663
0.543688
0.559108
0.57069
0.577896
0.580345
0.578592
0.574675
0.572077
0.57497
0.587025
0.610266
0.642704
0.681592
0.724534
0.769013
0.812698
0.854034
0.892555
0.928915
0.964629
1.00166
1.04272
1.09022
1.14004
1.18206
1.2044
1.19859
1.16413
1.11
1.05235
1.00917
0.994153
1.00457
1.03153
1.06938
1.11382
1.1603
1.20478
1.24422
1.27676
1.30168
1.31937
1.33097
1.33811
1.34261
1.34626
1.35067
1.3571
1.36641
1.37894
1.39452
1.41252
1.43192
1.45125
1.46888
1.48337
1.49386
1.50035
1.50392
1.50663
1.51133
1.52116
1.53901
1.5677
1.61156
1.67244
1.74231
1.80647
1.85002
1.86257
1.84188
1.79516
1.73753
1.68779
1.66264
1.66674
1.69235
1.73119
1.77774
1.82506
1.86688
1.89874
1.91855
1.92632
1.92317
1.91003
1.88648
1.85058
1.7989
1.72791
1.63567
1.52331
1.39589
1.26218
1.13329
1.02327
0.965072
0.961525
0.989168
1.01405
1.00799
0.960085
0.877627
0.777337
0.673806
0.572645
0.471433
0.368662
0.263435
0.155441
0.0444929
-0.0805798
0
0.405013
1.22916
2.4304
3.76877
4.85254
5.28443
4.8396
3.58076
1.84865
0.129704
-1.13883
-1.73162
-1.67838
-1.23531
-0.730273
-0.332468
-0.138354
-0.0996146
-0.0582229
-0.0131409
0.0349742
0.085883
0.137529
0.186239
0.22798
0.259567
0.279716
0.289603
0.292775
0.294419
0.300179
0.314852
0.340448
0.376298
0.420343
0.470247
0.52227
0.572394
0.617413
0.655592
0.686995
0.713409
0.737938
0.764391
0.796627
0.837611
0.88899
0.951629
1.02554
1.10967
1.20221
1.30098
1.40319
1.50676
1.61091
1.71659
1.8263
1.94513
2.08924
2.27906
2.49486
2.69256
2.83059
2.88625
2.85939
2.7671
2.6368
2.50169
2.39623
2.335
2.3089
2.31064
2.32783
2.33957
2.32326
2.26139
2.14718
1.98669
1.79629
54
271
513
760
986
1212
1441
1671
1877
2105
2334
2568
2805
3010
3223
3444
3676
2711
2864
3020
3184
3339
3491
3640
3663
3595
3654
3282
3403
3523
3643
3488
3631
3585
3712
0
0
0
0
0
0
0
0
0
0
0
0
0
0
0
0
0
0
0
0
0
0
0
0
0
0
0
0
0
0
0
0
0
0
0
0
0
0
0
0
0
0
0
0
0
0
0
0
0
0
0
0
0
0
0
0
0
0
0
0
0
0
0
0
0
0
0
0
0
0
0
0
0
0
0
0
0
0
0
0
0
0
0
0
0
0
0
0
0
0
0
0
0
0
0
0
0
0
0
0
0
0
0
0
0
0
0
0
0
0
0
0
0
0
0
0
0
0
0
0
0
0
0
0
0
0
0
0
0
0
0
0
0
0
0
0
0
0
0
0
0
0
0
0
0
0
0
0
0
0
0
0
0
0
0
0
0
0
0
0
0
0
0
0
0
0
0
0
0
0
0
0
0
0
0
0
0
0
0
0
0
0
0
0
0
0
0
0
0
0
0
0
0
0
0
0
0
0
0
0
0
0
0
0
0
0
0
0
0
0
0
0
0
0
0
0
0
0
0
0
0
0
0
0
0
0
0
0
0
0
0
0
0
0
0
0
0
0
0
0
0
0
0
0
0
0
0
0
0
0
0
0
0
0
0
0
0
0
0
0
0
0
0
0
0
0
0
0
0
0
0
0
0
0
0
0
0
0
0
0
0
0
0
0
0
0
0
0
0
0
0
0
0
0
0
0
0
0
0
0
0
0
0
0
0
0
0
0
0
0
0
0
0
0
0
0
0
0
0
0
0
0
0
0
0
0
0
0
0
0
0
0
0
0
0
0
0
0
0
0
0
0
0
0
0
0
0
0
0
0
0
0
0
0
0
0
0
0
0
0
0
0
0
0
0
0
0
0
0
0
0
0
0
0
0
0
0
0
0
0
0
0
0
0
0
0
0
0
0
0
0
0
0
0
0
0
0
0
0
0
0
0
0
0
0
0
0
0
0
0
0
0
0
0
0
0
0
0
0
0
0
0
0
0
0
0
0
0
0
0
0
0
0
0
0
0
0
0
0
0
0
0
0
0
0
0
0
0
0
0
0
0
0
0
0
0
0
0
0
0
0
0
0
0
0
0
0
0
0
0
0
0
0
0
0
0
0
0
0
0
0
0
0
0
0
0
0
0
0
0
0
0
0
0
0
0
0
0
0
0
0
0
0
0
0
0
0
0
0
0
0
0
0
0
0
0
0
0
0
0
0
0
0
0
0
0
0
0
0
0
0
0
0
0
0
0
0
0
0
0
0
0
0
0
0
0
0
0
0
0
0
0
0
0
0
0
0
0
0
0
0
0
0
0
0
0
0
0
0
0
0
0
0
0
0
0
0
0
0
0
0
0
0
0
0
0
0
0
0
0
0
0
0
0
0
0
0
0
0
0
0
0
0
0
0
0
0
0
0
0
0
0
0
0
0
0
0
0
0
0
0
0
0
0
0
0
0
0
0
0
0
0
0
0
0
0
0
0
0
0
0
0
0
0
0
0
0
0
0
0
0
0
0
0
0
0
0
0
0
0
0
0
0
0
0
0
0
0
0
0
0
0
0
0
0
0
0
0
0
0
0
0
0
0
0
0
0
0
0
0
0
0
0
0
0
0
0
0
0
0
0
0
0
0
0
0
0
0
0
0
0
0
0
0
0
0
0
0
0
0
0
0
0
0
0
0
0
0
0
0
0
0
0
0
0
0
0
0
0
0
0
0
0
0
0
0
0
0
0
0
0
0
0
0
0
0
0
0
0
0
0
0
0
0
0
0
0
0
0
0
0
0
0
0
0
0
0
0
0
0
0
0
0
0
0
0
0
0
0
0
0
0
0
0
0
0
0
0
0
0
0
0
0
0
0
0
0
0
0
0
0
0
0
0
0
0
0
0
0
0
0
0
0
0
0
0
0
0
0
0
0
0
0
0
0
0
0
0
0
0
0
0
0
0
0
0
0
0
0
0
0
0
0
0
0
0
0
0
0
0
0
0
0
0
0
0
0
0
0
0
0
0
0
0
0
0
0
0
0
0
0
0
0
0
0
0
0
0
0
0
0
0
0
0
0
0
0
0
0
0
0
0
0
0
0
0
0
0
0
0
0
0
0
0
0
0
0
0
0
0
0
0
0
0
0
0
0
0
0
0
0
0
0
0
0
0
0
0
0
0
0
0
0
0
0
0
0
0
0
0
0
0
0
0
0
0
0
0
0
0
0
0
0
0
0
0
0
0
0
0
0
0
0
0
0
0
0
0
0
0
0
0
0
0
0
0
0
0
0
0
0
0
0
0
0
0
0
0
0
0
0
0
0
0
0
0
0
0
0
0
0
0
0
0
0
0
0
0
0
0
0
0
0
0
0
0
0
0
0
0
0
0
0
0
0
0
0
0
0
0
0
0
0
0
0
0
0
0
0
0
0
0
0
0
0
0
0
0
0
0
0
0
0
0
0
0
0
0
0
0
0
0
0
0
0
0
0
0
0
0
0
0
0
0
0
0
0
0
0
0
0
0
0
0
0
0
0
0
0
0
0
0
0
0
0
0
0
0
0
0
0
0
0
0
0
0
0
0
0
0
0
0
0
0
0
0
0
0
0
0
0
0
0
0
0
0
0
0
0
0
0
0
0
0
0
0
0
0
0
0
0
0
0
0
0
0
0
0
0
0
0
0
0
0
0
0
0
0
0
0
0
0
0
0
0
0
0
0
0
0
0
0
0
0
0
0
0
0
0
0
0
0
0
0
0
0
0
0
0
0
0
0
0
0
0
0
0
0
0
0
0
0
0
0
0
0
0
0
0
0
0
0
0
0
0
0
0
0
0
0
0
0
0
0
0
0
0
0
0
0
0
0
0
0
0
0
0
0
0
0
0
0
0
0
0
0
0
0
0
0
0
0
0
0
0
0
0
0
0
0
0
0
0
0
0
0
0
0
0
0
0
0
0
0
0
0
0
0
0
0
0
0
0
0
0
0
0
0
0
0
0
0
0
0
0
0
0
0
0
0
0
0
0
0
0
0
0
0
0
0
0
0
0
0
0
0
0
0
0
0
0
0
0
0
0
0
0
0
0
0
0
0
0
0
0
0
0
0
0
0
0
0
0
0
0
0
0
0
0
0
0
0
0
0
0
0
0
0
0
0
0
0
0
0
0
0
0
0
0
0
0
0
0
0
0
0
0
0
0
0
0
0
0
0
0
0
0
0
0
0
0
0
0
0
0
0
0
0
0
0
0
0
0
0
0
0
0
0
0
0
0
0
0
0
0
0
0
0
0
0
0
0
0
0
0
0
0
0
0
0
0
0
0
0
0
0
0
0
0
0
0
0
0
0
0
0
0
0
0
0
0
0
0
0
0
0
0
0
0
0
0
0
0
0
0
0
0
0
0
0
0
0
0
0
0
0
0
0
0
0
0
0
0
0
0
0
0
0
0
0
0
0
0
0
0
0
0
0
0
0
0
0
0
0
0
0
0
0
0
0
0
0
0
0
0
0
0
0
0
0
0
0
0
0
0
0
0
0
0
0
0
0
0
0
0
0
0
0
0
0
0
0
0
0
0
0
0
0
0
0
0
0
0
0
0
0
0
0
0
0
0
0
0
0
0
0
0
0
0
0
0
0
0
0
0
0
0
0
0
0
0
0
0
0
0
0
0
0
0
0
0
0
0
0
0
0
0
0
0
0
0
0
0
0
0
0
0
0
0
0
0
0
0
0
0
0
0
0
0
0
0
0
0
0
0
0
0
0
0
0
0
0
0
0
0
0
0
0
0
0
0
0
0
0
0
0
0
0
0
0
0
0
0
0
0
0
0
0
0
0
0
0
0
0
0
0
0
0
0
0
0
0
0
0
0
0
0
0
0
0
0
0
0
0
0
0
0
0
0
0
0
0
0
0
0
0
0
0
0
0
0
0
0
0
0
0
0
0
0
0
0
0
0
0
0
0
0
0
0
0
0
0
0
0
0
0
0
0
0
0
0
0
0
0
0
0
0
0
0
0
0
0
0
0
0
0
0
0
0
0
0
0
0
0
0
0
0
0
0
0
0
0
0
0
0
0
0
0
0
0
0
0
0
0
0
0
0
0
0
0
0
0
0
0
0
0
0
0
0
0
0
0
0
0
0
0
0
0
0
0
0
0
0
0
0
0
0
0
0
0
0
0
0
0
0
0
0
0
0
0
0
0
0
0
0
0
0
0
0
0
0
0
0
0
0
0
0
0
0
0
0
0
0
0
0
0
0
0
0
0
0
0
0
0
0
0
0
0
0
0
0
0
0
0
0
0
0
0
0
0
0
0
0
0
0
0
0
0
0
0
0
0
0
0
0
0
0
0
0
0
0
0
0
0
0
0
0
0
0
0
0
0
0
0
0
0
0
0
0
0
0
0
0
0
0
0
0
0
0
0
0
0
0
0
0
0
0
0
0
0
0
0
0
0
0
0
0
0
0
0
0
0
0
0
0
0
0
0
0
0
0
0
0
0
0
0
0
0
0
0
0
0
0
0
0
0
0
0
0
0
0
0
0
0
0
0
0
0
0
0
0
0
0
0
0
0
0
0
0
0
0
0
0
0
0
0
0
0
0
0
0
0
0
0
0
0
0
0
0
0
0
0
0
0
0
0
0
0
0
0
0
0
0
0
0
0
0
0
0
0
0
0
0
0
0
0
0
0
0
0
0
0
0
0
0
0
0
0
0
0
0
0
0
0
0
0
0
0
0
0
0
0
0
0
0
0
0
0
0
0
0
0
0
0
0
0
0
0
0
0
0
0
0
0
0
0
0
0
0
0
0
0
0
0
0
0
0
0
0
0
0
0
0
0
0
0
0
0
0
0
0
0
0
0
0
0
0
0
0
0
0
0
0
0
0
0
0
0
0
0
0
0
0
0
0
0
0
0
0
0
0
0
0
0
0
0
0
0
0
0
0
0
0
0
0
0
0
0
0
0
0
0
0
0
0
0
0
0
0
0
0
0
0
0
0
0
0
0
0
0
0
0
0
0
0
0
0
0
0
0
0
0
0
0
0
0
0
0
0
0
0
0
0
0
0
0
0
0
0
0
0
0
0
0
0
0
0
0
0
0
0
0
0
0
0
0
0
0
0
0
0
0
0
0
0
0
0
0
0
0
0
0
0
0
0
0
0
0
0
0
0
0
0
0
0
0
0
0
0
0
0
0
0
0
0
0
0
0
0
0
0
0
0
0
0
0
0
0
0
0
0
0
0
0
0
0
0
0
0
0
0
0
0
0
0
0
0
0
0
0
0
0
0
0
0
0
0
0
0
0
0
0
0
0
0
0
0
0
0
0
0
0
0
0
0
0
0
0
0
0
0
0
0
0
0
0
0
0
0
0
0
0
0
0
0
0
0
0
0
0
0
0
0
0
0
0
0
0
0
0
0
0
0
0
0
0
0
0
0
0
0
0
0
0
0
0
0
0
0
0
0
0
0
0
0
0
0
0
0
0
0
0
0
0
0
0
0
0
0
0
0
0
0
0
0
0
0
0
0
0
0
0
0
0
0
0
0
0
0
0
0
0
0
0
0
0
0
0
0
0
0
0
0
0
0
0
0
0
0
0
0
0
0
0
0
0
0
0
0
0
0
0
0
0
0
0
0
0
0
0
0
0
0
0
0
0
0
0
0
0
0
0
0
0
0
0
0
0
0
0
0
0
0
0
0
0
0
0
0
0
0
0
0
0
0
0
0
0
0
0
0
0
0
0
0
0
0
0
0
0
0
0
0
0
0
0
0
0
0
0
0
0
0
0
0
0
0
0
0
0
0
0
0
0
0
0
0
0
0
0
0
0
0
0
0
0
0
0
0
0
0
0
0
0
0
0
0
0
0
0
0
0
0
0
0
0
0
0
0
0
0
0
0
0
0
0
0
0
0
0
0
0
0
0
0
0
0
0
0
0
0
0
0
0
0
0
0
0
0
0
0
0
0
0
0
0
0
0
0
0
0
0
0
0
0
0
0
0
0
0
0
0
0
0
0
0
0
0
0
0
0
0
0
0
0
0
0
0
0
0
0
0
0
0
0
0
0
0
0
0
0
0
0
0
0
0
0
0
0
0
0
0
0
0
0
0
0
0
0
0
0
0
0
0
0
0
0
0
0
0
0
0
0
0
0
0
0
0
0
0
0
0
0
0
0
0
0
0
0
0
0
0
0
0
0
0
0
0
0
0
0
0
0
0
0
0
0
0
0
0
0
0
0
0
0
0
0
0
0
0
0
0
0
0
0
0
0
0
0
0
0
0
0
0
0
0
0
0
0
0
0
0
0
0
0
0
0
0
0
0
0
0
0
0
0
0
0
0
0
0
0
0
0
0
0
0
0
0
0
0
0
0
0
0
0
0
0
0
0
0
0
0
0
0
0
0
0
0
0
0
0
0
0
0
0
0
0
0
0
0
0
0
0
0
0
0
0
0
0
0
0
0
0
0
0
0
0
0
0
0
0
0
0
0
0
0
0
0
0
0
0
0
0
0
0
0
0
0
0
0
0
0
0
0
0
0
0
0
0
0
0
0
0
0
0
0
0
0
0
0
0
0
0
0
0
0
0
0
0
0
0
0
0
0
0
0
0
0
0
0
0
0
0
0
0
0
0
0
0
0
0
0
0
0
0
0
0
0
0
0
0
0
0
0
0
0
0
0
0
0
0
0
0
0
0
0
0
0
0
0
0
0
0
0
0
0
0
0
0
0
0
0
0
0
0
0
0
0
0
0
0
0
0
0
0
0
0
0
0
0
0
0
0
0
0
0
0
0
0
0
0
0
0
0
0
0
0
0
0
0
0
0
0
0
0
0
0
0
0
0
0
0
0
0
0
0
0
0
0
0
0
0
0
0
0
0
0
0
0
0
0
0
0
0
0
0
0
0
0
0
0
0
0
0
0
0
0
0
0
0
0
0
0
0
0
0
0
0
0
0
0
0
0
0
0
0
0
0
0
0
0
0
0
0
0
0
0
0
0
0
0
0
0
0
0
0
0
0
0
0
0
0
0
0
0
0
0
0
0
0
0
0
0
0
0
0
0
0
0
0
0
0
0
0
0
0
0
0
0
0
0
0
0
0
0
0
0
0
0
0
0
0
0
0
0
0
0
0
0
0
0
0
0
0
0
0
0
0
0
0
0
0
0
0
0
0
0
0
0
0
0
0
0
0
0
0
0
0
0
0
0
0
0
0
0
0
0
0
0
0
0
0
0
0
0
0
0
0
0
0
0
0
0
0
0
0
0
0
0
0
0
0
0
0
0
0
0
0
0
0
0
0
0
0
0
0
0
0
0
0
0
0
0
0
0
0
0
0
0
0
0
0
0
0
0
0
0
0
0
0
0
0
0
0
0
0
0
0
0
0
0
0
0
0
0
0
0
0
0
0
0
0
0
0
0
0
0
0
0
0
0
0
0
0
0
0
0
0
0
0
0
0
0
0
0
0
0
0
0
0
0
0
0
0
0
0
0
0
0
0
0
0
0
0
0
0
0
0
0
0
0
0
0
0
0
0
0
0
0
0
0
0
0
0
0
0
0
0
0
0
0
0
0
0
0
0
0
0
0
0
0
0
0
0
0
0
0
0
0
0
0
0
0
0
0
0
0
0
0
0
0
0
0
0
0
0
0
0
0
0
0
0
0
0
0
0
0
0
0
0
0
0
0
0
0
0
0
0
0
0
0
0
0
0
0
0
0
0
0
0
0
0
0
0
0
0
0
0
0
0
0
0
0
0
0
0
0
0
0
0
0
0
0
0
0
0
0
0
0
0
0
0
0
0
0
0
0
0
0
0
0
0
0
0
0
0
0
0
0
0
0
0
0
0
0
0
0
0
0
0
0
0
0
0
0
0
0
0
0
0
0
0
0
0
0
0
0
0
0
0
0
0
0
0
0
0
0
0
0
0
0
0
0
0
0
0
0
0
0
0
0
0
0
0
0
0
0
0
0
0
0
0
0
0
0
0
0
0
0
0
0
0
0
0
0
0
0
0
0
0
0
0
0
0
0
0
0
0
0
0
0
0
0
0
0
0
0
0
0
0
0
0
0
0
0
0
0
0
0
0
0
0
0
0
0
0
0
0
0
0
0
0
0
0
0
0
0
0
0
0
0
0
0
0
0
0
0
0
0
0
0
0
0
0
0
0
0
0
0
0
0
0
0
0
0
0
0
0
0
0
0
0
0
0
0
0
0
0
0
0
0
0
0
0
0
0
0
0
0
0
0
0
0
0
0
0
0
0
0
0
0
0
0
0
0
0
0
0
0
0
0
0
0
0
0
0
0
0
0
0
0
0
0
0
0
0
0
0
0
0
0
0
0
0
0
0
0
0
0
0
0
0
0
0
0
0
0
0
0
0
0
0
0
0
0
0
0
0
0
0
0
0
0
0
0
0
0
0
0
0
0
0
0
0
0
0
0
0
0
0
0
0
0
0
0
0
0
0
