3.16856
3.14358
3.10398
3.04897
2.97885
2.8954
2.8021
2.70398
2.60697
2.51702
2.43903
2.3766
2.33126
2.30238
2.28769
2.28365
2.2856
2.28838
2.28751
2.27969
2.26306
2.23726
2.20323
2.16294
2.11899
2.07431
2.03174
1.99398
1.96346
1.9422
1.93169
1.93268
1.94513
1.96815
2.00003
2.03829
2.07986
2.12113
2.15814
2.18706
2.2046
2.20834
2.19707
2.17093
2.13135
2.08091
2.02306
1.96181
1.90124
1.84523
1.79727
1.76015
1.73577
1.72502
1.72782
1.74325
1.76985
1.80602
1.8503
1.90152
1.95907
2.0229
2.09336
2.17096
2.2561
2.3487
2.44802
2.55257
2.65954
2.76357
2.85717
2.93238
2.98202
3.00097
2.98701
2.94094
2.86611
2.76754
2.65114
2.52411
2.39275
2.26202
2.13623
2.0193
1.9146
1.82457
1.75052
1.69245
1.64909
1.61796
1.59532
1.57672
1.5573
1.5242
1.37061
0.858024
0.0864597
-0.767691
-1.43579
-1.32731
0
2.7745
6.83523
11.5741
16.0679
19.3291
20.5998
19.5823
16.5337
12.1902
7.5412
3.52278
0.743391
-0.654158
-0.936404
-0.617302
-0.322918
-0.0738869
0.116972
0.247057
0.340798
0.413384
0.47139
0.520828
0.56637
0.611118
0.656765
0.704315
0.75468
0.809054
0.868949
0.935864
1.01072
1.09331
1.18258
1.27544
1.36711
1.45327
1.53162
1.60281
1.6705
1.74023
1.81772
1.90696
2.0086
2.11937
2.23491
2.35067
2.46227
2.5662
2.66019
2.74322
2.81513
2.87632
2.92765
2.97015
3.00503
3.03371
3.05788
3.07931
3.09961
3.11981
3.14002
3.15907
3.17452
3.18292
3.18035
3.16308
3.12824
3.07441
3.00204
2.91361
2.81352
2.70759
2.60217
2.50329
2.41563
2.34207
2.28397
2.24094
2.2111
2.19168
2.17933
2.17063
2.16282
2.15411
2.14378
2.13212
2.12005
2.10877
2.09945
2.09288
2.08947
2.08935
2.09255
2.0991
2.10887
2.12143
2.13562
2.14893
2.15795
2.15921
2.15012
2.1299
2.10002
2.06396
2.02639
1.99202
1.96409
1.94381
1.93122
1.92549
1.92527
1.92929
1.93688
1.94825
1.96447
1.98716
2.01797
2.05811
2.10791
2.16696
2.23428
2.30852
2.38823
2.47214
2.55922
2.6487
2.73977
2.83126
2.92095
3.00477
3.07651
3.12928
3.15625
3.15214
3.11452
3.04471
2.9477
2.8314
2.70517
2.57833
2.45784
2.34747
2.24937
2.16512
2.09514
2.03876
1.99429
1.959
1.92876
1.89872
1.86361
1.81277
1.70243
1.35915
0.750421
0.0569466
-0.564508
-0.947541
-0.903148
0
1.93966
4.97989
8.87914
13.0603
16.7196
19.0387
19.4324
17.744
14.3229
9.94308
5.57258
2.06327
-0.10841
-0.940714
-0.798678
-0.307319
0.126633
0.4536
0.652782
0.759648
0.833731
0.891955
0.939317
0.978365
1.01129
1.03993
1.06575
1.08985
1.11312
1.13644
1.16087
1.18783
1.21921
1.25717
1.3039
1.36116
1.42983
1.50962
1.59933
1.69699
1.80002
1.9057
2.0116
2.11585
2.21743
2.31607
2.41211
2.50622
2.599
2.69071
2.78109
2.86925
2.95377
3.03279
3.10434
3.1668
3.21904
3.26061
3.29167
3.3128
3.32468
3.32763
3.3213
3.30475
3.27655
3.2352
3.17967
3.10989
3.027
2.93332
2.83212
2.72716
2.622
2.51962
2.42228
2.33152
2.24826
2.17301
2.10613
2.04795
1.9988
1.95895
1.92849
1.90714
1.89422
1.88855
1.88849
1.89205
1.89706
1.9013
1.90272
1.89969
1.89122
1.87716
1.85826
1.83612
1.81286
1.79075
1.77168
1.75684
1.7463
1.73896
1.7329
1.72595
1.71617
1.70223
1.68358
1.66049
1.6339
1.60539
1.57682
1.55037
1.52833
1.51294
1.50613
1.50935
1.52346
1.54867
1.58469
1.63085
1.6861
1.74955
1.82072
1.89946
1.98596
2.08046
2.1832
2.29441
2.41322
2.5359
2.65501
2.76022
2.84066
2.88664
2.89125
2.85161
2.76936
2.65053
2.50468
2.34336
2.17833
2.01882
1.86948
1.73178
1.60618
1.49246
1.38932
1.2948
1.20658
1.1222
1.03922
0.955203
0.867368
0.769832
0.636766
0.358487
-0.0812092
-0.627382
-1.19235
-1.14494
0
2.52271
6.31239
10.8123
15.1426
18.3455
19.6703
18.7983
15.94
11.7711
7.22406
3.20216
0.320095
-1.22999
-1.63962
-1.19567
-0.687268
-0.1786
0.219138
0.42093
0.509372
0.56127
0.597149
0.623202
0.642581
0.657982
0.67158
0.68501
0.699466
0.715897
0.7352
0.758364
0.786565
0.821168
0.863609
0.915214
0.976964
1.0493
1.13202
1.22425
1.32458
1.4313
1.54248
1.65617
1.77038
1.88312
1.99242
2.09638
2.1933
2.28178
2.36093
2.43034
2.49015
2.54092
2.58348
2.61893
2.64849
2.67339
2.69484
2.71386
2.73117
2.74701
2.761
2.77206
2.77849
2.77807
2.76832
2.74678
2.71125
2.66004
2.59231
2.50835
2.41007
2.30075
2.18482
2.06768
1.95526
1.85318
1.76599
1.69649
1.64597
1.61354
1.59626
1.59035
1.5921
1.59841
1.60708
1.61668
1.62618
1.63453
1.64053
1.64301
1.64134
1.63588
1.62834
1.62157
1.61881
1.62269
1.63523
1.65515
1.6765
1.69112
1.6909
1.67034
1.62824
1.56824
1.49795
1.42707
1.36509
1.31785
1.28711
1.27304
1.27546
1.29293
1.32322
1.3635
1.41088
1.46267
1.51649
1.57043
1.62316
1.67407
1.72337
1.77209
1.82193
1.87509
1.9339
2.00039
2.07593
2.16138
2.25674
2.3588
2.45911
2.54651
2.60957
2.63865
2.62763
2.57471
2.48232
2.3565
2.20586
2.04173
1.87465
1.71285
1.56244
1.42764
1.3113
1.21514
1.13892
1.08027
1.0351
0.998286
0.964286
0.927252
0.869763
0.663692
0.128775
-0.648545
-1.45689
-2.01199
-1.64164
0
3.03493
7.21094
11.9028
16.2239
19.2385
20.2226
18.8991
15.5533
10.9672
6.18197
2.1703
-0.456549
-1.5874
-1.55291
-0.997248
-0.506058
-0.134832
0.0899828
0.189938
0.255873
0.310624
0.361529
0.413536
0.469603
0.530605
0.595739
0.662661
0.728281
0.789693
0.844898
0.893238
0.935447
0.973343
1.0093
1.04568
1.08438
1.1266
1.17314
1.22462
1.28179
1.34582
1.41834
1.5014
1.59716
1.70741
1.83306
1.97362
2.12706
2.29034
2.45653
2.61428
2.75217
2.86171
2.93979
2.98977
3.02066
3.04445
3.07248
3.11597
3.17092
3.22117
3.246
3.22966
3.16837
3.07163
2.9578
2.84661
2.75231
2.67403
2.60678
2.54714
2.49212
2.43866
2.38421
2.32717
2.26701
2.2043
2.14044
2.07724
2.01659
1.96006
1.90876
1.86331
1.824
1.79095
1.76427
1.7441
1.73061
1.72385
1.72375
1.7301
1.7425
1.76042
1.78312
1.80965
1.83874
1.86855
1.89646
1.91934
1.93394
1.93749
1.9283
1.9063
1.87329
1.83277
1.78941
1.74822
1.7135
1.68795
1.6728
1.66768
1.67098
1.68043
1.69388
1.70987
1.728
1.74906
1.77466
1.80695
1.848
1.89944
1.96222
2.03642
2.12139
2.21596
2.31874
2.42841
2.54383
2.664
2.78683
2.90564
3.00806
3.0783
3.10086
3.06551
2.97149
2.82897
2.65707
2.47905
2.3163
2.17772
2.06171
1.96614
1.89034
1.83239
1.78969
1.75931
1.73821
1.72325
1.71063
1.69607
1.67496
1.63497
1.51044
1.07279
0.42305
-0.286074
-0.921663
-0.949887
0
2.19635
5.65559
10.002
14.4755
18.111
20.0327
19.7499
17.3261
13.356
8.76579
4.51928
1.3354
-0.482103
-1.05517
-0.670278
-0.177483
0.300618
0.692685
0.936997
1.07023
1.15715
1.21173
1.24151
1.25667
1.2684
1.28673
1.31851
1.36493
1.4228
1.48811
1.55694
1.6256
1.69142
1.75333
1.81195
1.86939
1.92875
1.99336
2.06608
2.1486
2.24108
2.34219
2.44947
2.55955
2.66929
2.77664
2.88109
2.98363
3.08614
3.19039
3.29707
3.40524
3.51143
3.61052
3.6971
3.76697
3.81818
3.85125
3.86861
3.87351
3.8687
3.85629
3.83653
3.8081
3.76898
3.71728
3.65206
3.57396
3.48562
3.39158
3.29773
3.21031
3.13485
3.07705
3.03837
3.01465
2.99884
2.98318
2.96136
2.93001
2.88906
2.84121
2.79079
2.74227
2.69876
2.66218
2.63371
2.61385
2.60238
2.59862
2.6017
2.61078
2.62504
2.64366
2.66561
2.68955
2.71351
2.73508
2.75171
2.76115
2.76168
2.75228
2.73254
2.70247
2.66236
2.61303
2.5558
2.49186
2.42434
2.36047
2.30978
2.28182
2.28358
2.31731
2.37963
2.46233
2.55458
2.64574
2.72893
2.80251
2.8668
2.92302
2.97361
3.02179
3.07093
3.12411
3.18372
3.25128
3.32759
3.41229
3.50108
3.58372
3.64722
3.67907
3.67053
3.61934
3.53058
3.41537
3.2879
3.16188
3.04614
2.94297
2.85221
2.77362
2.70622
2.64824
2.59718
2.54993
2.50317
2.45371
2.39875
2.33502
2.25459
2.11867
1.80247
1.2363
0.466477
-0.272627
-0.630191
0
1.90972
5.09675
9.18917
13.5282
17.3287
19.8463
20.5296
19.156
15.9388
11.5431
6.94371
3.11938
0.704731
-0.22201
-0.0808363
0.373687
0.769405
1.07542
1.29897
1.46617
1.60433
1.72063
1.81394
1.88317
1.9298
1.95782
1.97299
1.98162
1.98934
2.00005
2.01563
2.03701
2.0647
2.09913
2.14101
2.19145
2.25186
2.32356
2.40746
2.5037
2.61147
2.72914
2.85462
2.98559
3.11984
3.25543
3.3907
3.52404
3.6536
3.77698
3.89083
3.99075
4.07261
4.13364
4.1729
4.19198
4.19513
4.18869
4.17979
4.17473
4.17753
4.18858
4.20537
4.22478
4.24328
4.25714
4.26277
4.25703
4.23724
4.20145
4.14843
4.07798
3.99111
3.89019
3.77878
3.6614
3.54303
3.42844
3.32186
3.22667
3.14536
3.07959
3.0306
2.99945
2.98693
2.99329
3.0182
3.06029
3.1175
3.18661
3.26039
3.33034
3.3887
3.43014
3.45271
3.45789
3.44963
3.43284
3.41178
3.3892
3.36586
3.34128
3.31435
3.2839
3.24919
3.21032
3.16837
3.12547
3.0848
3.04998
3.02443
3.01076
3.01041
3.02353
3.04915
3.08564
3.13115
3.18378
3.24198
3.30458
3.37065
3.43921
3.50916
3.57924
3.64816
3.71471
3.77785
3.8367
3.89039
3.93794
3.97835
4.01042
4.03292
4.04461
4.04437
4.03128
4.00454
3.96352
3.90785
3.8378
3.75433
3.65933
3.55586
3.44811
3.34112
3.24019
3.15012
3.07457
3.01557
2.97299
2.94369
2.92257
2.90341
2.87617
2.77053
2.29775
1.52492
0.629249
-0.140147
-0.494519
0
1.62747
4.51694
8.48856
13.003
17.2314
20.2562
21.3431
20.1891
17.0493
12.6767
8.08206
4.20029
1.60129
0.371088
0.197631
0.552214
0.879664
1.15551
1.36312
1.49744
1.59296
1.66853
1.73139
1.78548
1.83344
1.87659
1.91496
1.9476
1.97301
1.99018
1.9995
2.0033
2.00564
2.01161
2.02622
2.05314
2.09333
2.14635
2.21127
2.28664
2.37076
2.46188
2.55847
2.65919
2.76282
2.86814
2.97388
3.07859
3.18068
3.27837
3.36969
3.4525
3.52477
3.58503
3.6324
3.66693
3.68959
3.70224
3.70729
3.70716
3.70382
3.69836
3.69077
3.6801
3.66479
3.64306
3.61332
3.57435
3.52541
3.46616
3.39666
3.31776
3.23096
3.13821
3.0422
2.9462
2.85365
2.76763
2.69035
2.62259
2.56376
2.5123
2.46632
2.42446
2.38652
2.35405
2.33068
2.32097
2.32969
2.36041
2.41572
2.49839
2.60193
2.71053
2.80636
2.87386
2.90323
2.89216
2.84544
2.77301
2.68693
2.59852
2.51569
2.44178
2.37745
2.32264
2.27729
2.2413
2.21435
2.19594
2.18538
2.18117
2.18058
2.18082
2.17985
2.17712
2.17385
2.17282
2.17761
2.19158
2.21695
2.25348
2.2999
2.35513
2.41798
2.48756
2.56345
2.64554
2.73366
2.82726
2.92494
3.02378
3.11888
3.20323
3.26909
3.3093
3.31818
3.29253
3.2323
3.14084
3.0245
2.89167
2.75142
2.6119
2.47825
2.35273
2.23615
2.12832
2.02831
1.93498
1.8475
1.76567
1.68979
1.6204
1.55779
1.50151
1.45164
1.40941
1.1357
0.473705
-0.436598
-1.3055
-1.3279
0
2.83858
6.89639
11.503
15.7915
18.9007
20.1692
19.3002
16.4691
12.3121
7.75576
3.72973
0.876732
-0.611506
-0.963691
-0.639349
-0.332613
-0.0597534
0.165803
0.334952
0.461618
0.549874
0.604088
0.631981
0.644043
0.652237
0.66807
0.700429
0.753558
0.824562
0.907548
0.997029
1.08669
1.17097
1.24619
1.311
1.36636
1.41486
1.45981
1.50436
1.55087
1.60076
1.65484
1.71376
1.77838
1.84987
1.92952
2.01824
2.11598
2.22131
2.33155
2.44341
2.55338
2.65822
2.7554
2.84334
2.9213
2.9891
3.04652
3.09319
3.12862
3.15192
3.1619
3.15736
3.13728
3.10111
3.04884
2.98109
2.89915
2.80543
2.70299
2.59527
2.4861
2.37957
2.27964
2.18971
2.11238
2.0493
2.00143
1.96864
1.95006
1.94434
1.94975
1.96431
1.98577
2.01163
2.03917
2.06543
2.08699
2.10014
2.10169
2.08933
2.06232
2.02198
1.97181
1.91715
1.86426
1.8192
1.78607
1.76722
1.76286
1.77114
1.78866
1.81128
1.83485
1.85603
1.87244
1.88284
1.88708
1.88598
1.88097
1.87385
1.8664
1.86013
1.85611
1.85499
1.85705
1.8624
1.87124
1.88409
1.90182
1.92571
1.95726
1.99804
2.04943
2.11237
2.18746
2.27478
2.37372
2.4829
2.60008
2.72216
2.84499
2.96273
3.06848
3.15569
3.21872
3.25348
3.25774
3.23108
3.17459
3.09046
2.98177
2.85338
2.7111
2.56047
2.40709
2.25685
2.11563
1.98867
1.88001
1.79216
1.72585
1.6792
1.64677
1.62076
1.59226
1.55187
1.46765
1.19495
0.684645
0.0336817
-0.655026
-0.837239
0
2.15378
5.58484
9.86255
14.2543
17.9063
20.0509
20.1876
18.2193
14.5161
9.8608
5.24783
1.57697
-0.636665
-1.38997
-1.0614
-0.352547
0.335808
0.801003
1.01186
1.11957
1.20938
1.29192
1.3687
1.43967
1.50467
1.56392
1.61795
1.66744
1.71301
1.75524
1.79464
1.83175
1.86742
1.90298
1.94042
1.98237
2.03186
2.0919
2.16495
2.25238
2.35415
2.46881
2.59374
2.72565
2.86114
2.9972
3.13149
3.26245
3.38901
3.51033
3.6253
3.73228
3.82953
3.9154
3.98869
4.04903
4.09701
4.13395
4.16142
4.18062
4.19177
4.19396
4.1854
4.16387
4.1275
4.07552
4.00872
3.92956
3.84179
3.74991
3.65837
3.57072
3.48959
3.41672
3.35305
3.29886
3.25396
3.21784
3.18983
3.16888
3.15324
3.1409
3.12992
3.11874
3.10637
3.0925
3.07733
3.06136
3.04521
3.02957
3.01524
3.00323
2.99478
2.99108
2.99332
3.00246
3.01699
3.03302
3.04607
3.0528
3.05247
3.0472
3.04098
3.03774
3.03931
3.04425
3.04893
3.04876
3.04016
3.02217
2.99702
2.96945
2.94508
2.92848
2.92101
2.92147
2.92803
2.93828
2.95017
2.96273
2.97636
2.99265
3.01392
3.0426
3.08041
3.12876
3.18888
3.26156
3.34699
3.44467
3.55322
3.67055
3.79352
3.91678
4.03167
4.1287
4.19896
4.23562
4.23502
4.19719
4.12544
4.02547
3.90416
3.76919
3.62815
3.48644
3.34814
3.21678
3.09544
2.98663
2.89224
2.8134
2.7505
2.70313
2.67033
2.65011
2.63828
2.62944
2.61629
2.55737
2.164
1.47457
0.658113
-0.0993799
0
1.37204
4.20057
8.22908
12.7821
16.9476
19.8326
20.803
19.6409
16.6006
12.3537
7.81721
3.89276
1.19855
-0.0941641
-0.233326
0.326951
0.854619
1.2952
1.59157
1.7161
1.77756
1.81593
1.84078
1.85808
1.87268
1.88794
1.90559
1.92605
1.94914
1.97454
2.00214
2.03238
2.06617
2.10478
2.14949
2.20132
2.26079
2.32787
2.4021
2.48266
2.56862
2.659
2.75288
2.84943
2.94789
3.04762
3.14801
3.24842
3.34802
3.44566
3.53937
3.62652
3.70444
3.77081
3.82435
3.86526
3.89521
3.9169
3.93313
3.94596
3.95616
3.96308
3.96497
3.95957
3.94469
3.91858
3.8801
3.82872
3.76444
3.68796
3.60061
3.50402
3.40013
3.29141
3.18071
3.07104
2.9653
2.86598
2.77498
2.69351
2.62221
2.56105
2.50966
2.4676
2.43469
2.41099
2.39663
2.39171
2.39603
2.40893
2.42908
2.45463
2.48355
2.51393
2.54411
2.57251
2.59699
2.61502
2.62391
2.62113
2.6051
2.57588
2.53533
2.48669
2.43385
2.38046
2.32922
2.28176
2.23945
2.20325
2.17372
2.15089
2.13439
2.12303
2.11535
2.10998
2.10612
2.10392
2.10449
2.10967
2.12158
2.14193
2.17158
2.21064
2.25855
2.31414
2.37583
2.44194
2.51096
2.58184
2.65409
2.72786
2.8038
2.88279
2.96568
3.05292
3.14395
3.23579
3.32153
3.39182
3.43684
3.44847
3.42228
3.35839
3.26123
3.13816
2.99772
2.84843
2.69748
2.54948
2.40782
2.27571
2.15619
2.05169
1.96377
1.89302
1.83807
1.79431
1.75496
1.71127
1.63272
1.3439
0.780921
0.0737247
-0.642624
-0.819269
0
2.08635
5.43719
9.69651
14.1869
18.0407
20.4046
20.6707
18.6824
14.839
10.0209
5.32282
1.6859
-0.405582
-1.01191
-0.581364
-0.00827589
0.47459
0.799378
0.94682
1.01683
1.0579
1.08428
1.10807
1.1378
1.17659
1.22468
1.28143
1.34514
1.41339
1.48345
1.55226
1.61707
1.67576
1.7273
1.7719
1.81106
1.84738
1.88418
1.92511
1.97348
2.03208
2.10331
2.18882
2.28932
2.40438
2.53232
2.67013
2.81364
2.9578
3.09632
3.22271
3.33157
3.41928
3.48445
3.52808
3.55324
3.56438
3.56655
3.56458
3.56245
3.56267
3.5666
3.57444
3.58534
3.59707
3.60607
3.60791
3.5979
3.57184
3.52674
3.46156
3.37756
3.2784
3.1697
3.05846
2.95156
2.85476
2.77261
2.70863
2.66402
2.63684
2.62392
2.62193
2.62835
2.64191
2.66236
2.68978
2.72459
2.76477
2.80444
2.83615
2.85326
2.85235
2.83464
2.80581
2.7742
2.74829
2.73363
2.73033
2.7363
2.74922
2.7658
2.78236
2.79553
2.80283
2.80307
2.79644
2.78452
2.76991
2.75581
2.74533
2.74087
2.74424
2.7559
2.77355
2.79297
2.80989
2.82155
2.82781
2.83139
2.83701
2.84991
2.87409
2.91024
2.95623
3.00969
3.0681
3.12943
3.19287
3.25909
3.33002
3.40817
3.4962
3.59659
3.7104
3.83499
3.95956
4.06666
4.13832
4.16044
4.12672
4.04065
3.91435
3.76434
3.60606
3.44998
3.29964
3.15546
3.01855
2.89157
2.77778
2.68103
2.60571
2.55453
2.52662
2.5167
2.51632
2.5158
2.50572
2.46545
2.23125
1.60924
0.753704
-0.125186
-0.581065
0
1.94252
5.30493
9.74697
14.5477
18.732
21.3133
21.5983
19.4497
15.3805
10.4056
5.6921
2.15916
0.204046
-0.328706
0.0441769
0.559563
0.984113
1.26059
1.38834
1.45874
1.51141
1.55498
1.59198
1.62398
1.65197
1.67665
1.69862
1.71843
1.73656
1.75373
1.77087
1.78943
1.81155
1.84004
1.87815
1.92891
1.99446
2.07542
2.16976
2.27441
2.38579
2.49996
2.61328
2.7229
2.82713
2.92551
3.01868
3.10796
3.19495
3.28101
3.36688
3.45245
3.53667
3.61766
3.69286
3.75942
3.81509
3.85841
3.88905
3.90772
3.9159
3.91535
3.90743
3.89261
3.8702
3.83846
3.79505
3.73775
3.66515
3.57719
3.47541
3.36284
3.24358
3.12232
3.00339
2.89042
2.78625
2.69265
2.61042
2.53932
2.47845
2.42665
2.38281
2.34629
2.31684
2.29465
2.28004
2.27319
2.27386
2.28119
2.29373
2.30961
2.3267
2.34291
2.35629
2.36509
2.36774
2.36307
2.35034
2.32938
2.30075
2.26574
2.22635
2.18493
2.14391
2.10529
2.07043
2.03998
2.01394
1.99189
1.97321
1.95724
1.94333
1.93084
1.9191
1.90735
1.8949
1.8813
1.86659
1.85162
1.83818
1.82906
1.82797
1.83888
1.86547
1.9105
1.97522
2.05915
2.16011
2.27464
2.39855
2.52736
2.65687
2.78257
2.89827
2.99576
3.06715
3.10409
3.09943
3.04928
2.95464
2.82204
2.66266
2.49037
2.31916
2.1586
2.01315
1.88568
1.77809
1.69061
1.62207
1.57031
1.53244
1.50515
1.48437
1.46568
1.44394
1.4024
1.21939
0.672633
-0.0878078
-0.850624
-1.39837
-1.21764
0
2.42074
5.95821
10.2264
14.542
18.0354
19.8644
19.4893
16.8999
12.6723
7.80004
3.35282
0.117976
-1.61083
-2.02263
-1.49641
-0.841562
-0.199036
0.27201
0.470724
0.547475
0.596857
0.636751
0.672161
0.706372
0.742034
0.78098
0.824237
0.8722
0.924777
0.981518
1.04175
1.10466
1.16944
1.23528
1.30157
1.36791
1.43423
1.50079
1.56824
1.63758
1.71013
1.78749
1.87147
1.96393
2.06663
2.18094
2.3075
2.44593
2.59447
2.75019
2.90848
3.06145
3.20025
3.31698
3.40645
3.46729
3.50227
3.51736
3.52003
3.5172
3.51349
3.51021
3.50621
3.4986
3.48351
3.45695
3.41565
3.35774
3.28311
3.19351
3.09246
2.98499
2.87655
2.77233
2.6769
2.5938
2.5252
2.47129
2.43047
2.40036
2.37863
2.36368
2.35504
2.35322
2.35924
2.37397
2.39722
2.42772
2.46326
2.50069
2.53638
2.56686
2.58932
2.60199
2.60432
2.59701
2.58191
2.56183
2.54027
2.52102
2.50773
2.50333
2.50948
2.52636
2.55261
2.58475
2.61831
2.64867
2.67193
2.68551
2.68845
2.68137
2.66619
2.64591
2.62411
2.60459
2.59146
2.58849
2.59876
2.62417
2.66518
2.72073
2.78855
2.86578
2.94979
3.03874
3.13212
3.23084
3.33682
3.45279
3.58325
3.73405
3.90481
4.07905
4.23193
4.33852
4.38108
4.35372
4.26303
4.12504
3.96032
3.78938
3.62779
3.48168
3.3524
3.24027
3.14535
3.06744
3.00475
2.95387
2.9106
2.87051
2.82967
2.78501
2.73433
2.67378
2.58342
2.35654
1.82993
0.99
0.062236
-0.485766
0
1.94404
5.37708
9.84992
14.5587
18.57
21.0522
21.4614
19.6796
16.085
11.4954
6.94431
3.33778
1.14968
0.323251
0.425008
0.820996
1.18258
1.47856
1.68702
1.81289
1.89672
1.95611
1.99783
2.02849
2.05471
2.08243
2.11614
2.15826
2.20931
2.26857
2.33338
2.39977
2.46423
2.52473
2.58145
2.63664
2.69401
2.75749
2.83006
2.91267
3.00384
3.10108
3.20173
3.30311
3.40311
3.50027
3.59374
3.68294
3.76725
3.84592
3.91806
3.98288
4.03989
4.08906
4.13082
4.16587
4.19495
4.21889
4.23852
4.25459
4.26783
4.2789
4.28812
4.29512
4.29806
4.29317
4.27523
4.23821
4.17661
4.08711
3.96979
3.82881
3.67201
3.50974
3.35292
3.20971
3.0851
2.98311
2.90596
2.85256
2.81748
2.79455
2.77859
2.76656
2.758
2.75444
2.75818
2.77081
2.79187
2.8187
2.84691
2.87112
2.88615
2.88808
2.87495
2.84707
2.80681
2.75823
2.70652
2.65681
2.61361
2.58047
2.55971
2.55215
2.55706
2.57238
2.59509
2.62171
2.64867
2.67279
2.6914
2.7025
2.70491
2.69821
2.68279
2.6598
2.63105
2.59894
2.56623
2.53589
2.5109
2.49407
2.48775
2.49366
2.51284
2.54569
2.59226
2.65252
2.72672
2.81562
2.91996
3.0423
3.1906
3.37346
3.58017
3.78063
3.94064
4.03284
4.0444
3.97818
3.84853
3.67507
3.47809
3.27691
3.08391
2.90502
2.74301
2.59889
2.47262
2.36405
2.27251
2.1966
2.13443
2.08377
2.04225
2.00735
1.97642
1.94686
1.90537
1.64942
1.01365
0.140021
-0.683142
-0.90012
0
2.22973
5.70203
9.99186
14.3939
18.0476
20.1319
20.1089
17.9338
14.1228
9.60626
5.4028
2.26182
0.450933
-0.220616
-0.166242
0.102868
0.356536
0.577571
0.752587
0.877513
0.967771
1.03436
1.08244
1.11735
1.14451
1.16868
1.19359
1.22158
1.25403
1.29166
1.33461
1.38265
1.43517
1.49132
1.55006
1.61032
1.67121
1.73216
1.79304
1.8542
1.91645
1.98093
2.04897
2.12192
2.20092
2.28678
2.37971
2.47932
2.58454
2.69368
2.80461
2.91486
3.02165
3.12148
3.21005
3.28363
3.33929
3.3753
3.39165
3.39037
3.37524
3.35083
3.32127
3.28894
3.2539
3.21423
3.16651
3.10696
3.0325
2.94169
2.83534
2.71656
2.59047
2.46347
2.34183
2.23117
2.1358
2.05822
1.99908
1.95737
1.93103
1.91746
1.91416
1.91894
1.93002
1.94586
1.96487
1.98489
2.00321
2.01708
2.02419
2.02329
2.01452
1.99935
1.9802
1.95977
1.9403
1.92298
1.90798
1.89474
1.88238
1.8702
1.85806
1.84659
1.83702
1.83083
1.82918
1.83247
1.84025
1.85103
1.8626
1.87265
1.87947
1.88237
1.88181
1.87926
1.87677
1.87638
1.87971
1.88753
1.89988
1.91651
1.93708
1.96144
1.98988
2.02327
2.06302
2.11099
2.16919
2.23929
2.32219
2.41757
2.52441
2.63892
2.75365
2.85932
2.9468
3.00872
3.0406
3.04128
3.01263
2.95867
2.88447
2.79528
2.69601
2.59045
2.48137
2.37093
2.26105
2.15363
2.05052
1.95329
1.86291
1.77947
1.70191
1.62808
1.55492
1.47333
1.31369
0.860357
0.184246
-0.55625
-1.15474
-1.09384
0
2.34488
5.89326
10.2569
14.7222
18.3763
20.3461
20.0797
17.5668
13.3868
8.53831
4.10456
0.895723
-0.777321
-1.1062
-0.525371
0.0215239
0.470627
0.759626
0.873901
0.930751
0.971016
1.00413
1.03558
1.06921
1.10685
1.14883
1.19441
1.24223
1.29096
1.33992
1.38936
1.4406
1.49578
1.55742
1.62783
1.70858
1.8
1.90121
2.01041
2.12523
2.2432
2.36231
2.48124
2.59941
2.71681
2.8336
2.9497
3.06454
3.17692
3.28515
3.38735
3.48179
3.56713
3.64271
3.709
3.76732
3.81969
3.86845
3.91573
3.96296
4.01028
4.05522
4.09245
4.11488
4.11541
4.0888
4.03287
3.94882
3.84062
3.71392
3.5755
3.43232
3.2895
3.15129
3.02175
2.90456
2.80275
2.7184
2.65236
2.60414
2.57215
2.55374
2.54515
2.54205
2.54075
2.53893
2.53614
2.53376
2.53457
2.54183
2.55816
2.58464
2.6209
2.66297
2.70461
2.7391
2.76086
2.76677
2.75659
2.73267
2.69899
2.65995
2.61935
2.5794
2.54088
2.50369
2.46725
2.43094
2.39453
2.35861
2.32497
2.2965
2.27661
2.26844
2.27404
2.29373
2.32591
2.36739
2.41415
2.46224
2.50886
2.55295
2.59494
2.63652
2.68034
2.72958
2.78731
2.85591
2.93656
3.02947
3.13372
3.24526
3.35451
3.44941
3.51892
3.55571
3.55788
3.52904
3.47645
3.40814
3.32997
3.2448
3.15354
3.05623
2.95279
2.8446
2.73464
2.627
2.52597
2.43469
2.35472
2.28548
2.22431
2.1671
2.10902
2.04195
1.92254
1.55361
0.908782
0.117296
-0.543989
-0.810747
0
2.04635
5.30209
9.41514
13.7481
17.4912
19.8382
20.2071
18.4433
14.9179
10.4484
6.03954
2.54504
0.405667
-0.420382
-0.31428
0.0242043
0.330327
0.578984
0.759252
0.883731
0.98224
1.06602
1.1413
1.2128
1.28331
1.35377
1.42381
1.49241
1.55831
1.62039
1.67732
1.72746
1.76952
1.80278
1.82746
1.84545
1.86065
1.87865
1.90557
1.94647
2.00393
2.07621
2.15975
2.25119
2.34745
2.44663
2.54839
2.65355
2.76325
2.87782
2.99589
3.11425
3.22789
3.33087
3.41748
3.48326
3.5257
3.54447
3.54123
3.51906
3.48173
3.43297
3.37594
3.31279
3.24457
3.17138
3.09268
3.00781
2.91635
2.81853
2.71548
2.60922
2.50257
2.39872
2.30085
2.21154
2.13248
2.06432
2.00633
1.95598
1.91016
1.8661
1.8221
1.778
1.73516
1.69593
1.66284
1.6377
1.62083
1.61155
1.60807
1.608
1.60882
1.60848
1.60566
1.59978
1.59106
1.58031
1.56875
1.55773
1.54849
1.54188
1.53819
1.53705
1.53729
1.5371
1.53466
1.52872
1.51903
1.50644
1.49269
1.47983
1.46959
1.46289
1.45964
1.45918
1.46058
1.46311
1.46654
1.4711
1.47736
1.48598
1.49762
1.51306
1.53348
1.56071
1.59722
1.64585
1.70916
1.78864
1.88382
1.99316
2.11201
2.23139
2.33983
2.42613
2.48103
2.49841
2.47589
2.41471
2.31933
2.19661
2.05494
1.90368
1.75108
1.60322
1.46422
1.33704
1.22403
1.12686
1.04655
0.983503
0.937877
0.90992
0.89687
0.892555
0.888694
0.868926
0.702071
0.114784
-0.701771
-1.48345
-2.04367
-1.61423
0
2.89128
6.82228
11.2334
15.3268
18.2447
19.3015
18.2
15.1554
10.8652
6.30714
2.4243
-0.176468
-1.38369
-1.51805
-1.16613
-0.840932
-0.564661
-0.349922
-0.19966
-0.0845387
0.0098896
0.0882885
0.152695
0.20479
0.246486
0.280198
0.308848
0.335737
0.364303
0.397809
0.438917
0.489333
0.549634
0.619738
0.698612
0.78245
0.865834
0.944447
1.01682
1.08532
1.15577
1.23565
1.33147
1.44622
1.57667
1.71564
1.85645
1.99256
2.11833
2.22992
2.32561
2.40535
2.4706
2.52408
2.56889
2.60822
2.64499
2.68159
2.71956
2.75931
2.79972
2.83775
2.86902
2.88847
2.89125
2.87346
2.83266
2.76813
2.6809
2.57377
2.45214
2.32214
2.18996
2.06215
1.94535
1.84581
1.76868
1.71695
1.69146
1.69076
1.71139
1.74826
1.79533
1.8463
1.89538
1.93787
1.97047
1.99138
2.00013
1.99733
1.98435
1.96321
1.9362
1.90568
1.87411
1.84403
1.81792
1.79806
1.78626
1.78364
1.7904
1.80581
1.82832
1.85553
1.88468
1.91297
1.93805
1.95824
1.9727
1.98137
1.98485
1.98413
1.98039
1.97472
1.96805
1.96116
1.95477
1.94976
1.94733
1.94917
1.95737
1.97429
2.00237
2.0438
2.1003
2.17299
2.26224
2.36767
2.48797
2.62108
2.7651
2.9156
3.06384
3.19859
3.30842
3.38345
3.41687
3.4059
3.35186
3.2597
3.13706
2.99331
2.83933
2.68429
2.53501
2.39631
2.27166
2.1639
2.07493
2.00542
1.95491
1.92199
1.90372
1.89528
1.89094
1.88409
1.84777
1.55855
0.897583
0.0598274
-0.737763
-1.255
-1.11771
0
2.29743
5.77088
10.0829
14.5461
18.244
20.2842
20.0991
17.6723
13.5809
8.81351
4.42503
1.17849
-0.663608
-1.30731
-1.08438
-0.846835
-0.621896
-0.426056
-0.271505
-0.157668
-0.0697842
0.000936508
0.0592396
0.109341
0.154899
0.198624
0.242122
0.28601
0.330215
0.37429
0.41773
0.460218
0.501808
0.542988
0.584672
0.628093
0.674637
0.725644
0.782232
0.8452
0.915021
0.991952
1.07621
1.16814
1.26825
1.37712
1.49516
1.62222
1.75718
1.89771
2.0402
2.17977
2.31062
2.42729
2.52548
2.60273
2.65876
2.69523
2.71521
2.72227
2.71967
2.70989
2.69429
2.67306
2.64583
2.61214
2.57186
2.52541
2.47375
2.41824
2.36039
2.30161
2.24309
2.18591
2.13107
2.07973
2.03312
1.99251
1.95888
1.93275
1.91382
1.90084
1.89182
1.88439
1.87623
1.86545
1.85095
1.83254
1.81096
1.78778
1.76518
1.74557
1.73131
1.72437
1.72602
1.73666
1.75569
1.78161
1.81226
1.84507
1.87749
1.90737
1.93319
1.95418
1.97016
1.98134
1.98796
1.99013
1.98781
1.98088
1.96945
1.95413
1.93631
1.91814
1.90243
1.89229
1.89061
1.89961
1.92065
1.95427
2
2.05661
2.12235
2.19534
2.27401
2.35739
2.44536
2.53857
2.63824
2.74568
2.86202
2.9883
3.1233
3.25974
3.38514
3.48572
3.54957
3.56929
3.54324
3.47534
3.37359
3.24807
3.10922
2.96661
2.82656
2.69291
2.56823
2.45439
2.35293
2.26492
2.19078
2.13019
2.08206
2.0445
2.01454
1.98843
1.96165
1.91583
1.66909
1.06806
0.235973
-0.606152
-0.866627
0
2.30413
5.98358
10.5394
15.1404
18.8266
20.7646
20.4821
18.021
13.947
9.18775
4.7438
1.38012
-0.569669
-1.20687
-0.803409
-0.19689
0.361362
0.766225
0.957183
1.04571
1.11312
1.17715
1.25058
1.34555
1.45447
1.55857
1.63731
1.67827
1.68328
1.66806
1.65592
1.66883
1.71908
1.79713
1.89253
1.99843
2.10884
2.21837
2.323
2.42065
2.51135
2.59701
2.68099
2.76742
2.86043
2.9634
3.07832
3.20531
3.34252
3.48648
3.63264
3.77593
3.91146
4.03499
4.14332
4.23445
4.30744
4.36211
4.39867
4.41721
4.41754
4.39957
4.36323
4.30877
4.23723
4.15066
4.05223
3.94598
3.83626
3.72719
3.62196
3.52268
3.43032
3.34497
3.26615
3.19318
3.12552
3.06284
3.00505
2.95221
2.90443
2.86194
2.82509
2.79461
2.77127
2.7559
2.74904
2.7507
2.7601
2.77575
2.79562
2.81755
2.83973
2.86092
2.88057
2.8986
2.91505
2.92959
2.94125
2.94829
2.94842
2.9393
2.9191
2.88705
2.8438
2.79151
2.73371
2.6749
2.62009
2.57415
2.54111
2.52363
2.52261
2.53714
2.56483
2.60237
2.64624
2.69342
2.74186
2.79076
2.8403
2.89148
2.94583
3.00515
3.0713
3.14586
3.22986
3.32364
3.42702
3.53831
3.65278
3.76233
3.85707
3.92727
3.9648
3.96445
3.92481
3.84844
3.74152
3.61285
3.47236
3.32951
3.19101
3.05989
2.93661
2.82063
2.71068
2.60491
2.50146
2.3988
2.29592
2.1924
2.08809
1.98271
1.87437
1.7452
1.44746
0.929964
0.299759
-0.28745
0
1.55605
4.50391
8.5292
12.9514
16.9186
19.6304
20.527
19.4087
16.4899
12.3693
7.89575
3.93623
1.11542
-0.357814
-0.681402
-0.212741
0.290945
0.75956
1.10297
1.2788
1.38462
1.46841
1.54147
1.60695
1.66604
1.71957
1.76829
1.813
1.85464
1.89416
1.93235
1.96949
2.00526
2.03893
2.06984
2.0982
2.12584
2.15645
2.19523
2.24786
2.3191
2.41125
2.52215
2.64777
2.78365
2.92422
3.06384
3.19817
3.32479
3.44335
3.55502
3.66165
3.76467
3.86434
3.95928
4.0465
4.12217
4.1826
4.22506
4.2484
4.25311
4.24107
4.21483
4.17693
4.12923
4.0729
4.00841
3.93568
3.85444
3.76494
3.66832
3.56665
3.46288
3.36039
3.26261
3.17253
3.09237
3.02339
2.96603
2.92001
2.88463
2.85888
2.8416
2.83146
2.827
2.82662
2.82864
2.83133
2.83311
2.83271
2.8294
2.82317
2.81478
2.80562
2.79757
2.79255
2.79221
2.79763
2.80916
2.82639
2.84835
2.87352
2.90005
2.92562
2.94731
2.9622
2.96766
2.96188
2.94424
2.91548
2.87754
2.83327
2.78602
2.73935
2.69675
2.6622
2.63946
2.63204
2.64274
2.67328
2.72408
2.79439
2.88258
2.98659
3.1036
3.23062
3.36537
3.50555
3.64802
3.78819
3.9195
4.03356
4.12219
4.1783
4.19668
4.1749
4.11388
4.01801
3.89456
3.75266
3.60196
3.45154
3.30763
3.17412
3.0542
2.95082
2.86611
2.8014
2.75739
2.73411
2.72984
2.73941
2.75544
2.76988
2.77497
2.74068
2.44617
1.76928
0.899835
0.0806002
-0.431839
0
1.66852
4.68438
8.79534
13.3742
17.5369
20.3697
21.2047
19.8397
16.6133
12.2979
7.85137
4.12382
1.6304
0.460023
0.343833
0.616055
0.866899
1.07948
1.24553
1.36659
1.46285
1.54313
1.61608
1.68833
1.76308
1.84039
1.91799
1.99228
2.05976
2.1183
2.16789
2.21075
2.25081
2.2927
2.34058
2.39706
2.4627
2.53643
2.61624
2.69984
2.78554
2.87276
2.96214
3.05509
3.15312
3.25701
3.36609
3.47825
3.59021
3.69772
3.79662
3.88376
3.95774
4.01922
4.07081
4.11653
4.16084
4.20763
4.25929
4.31657
4.37681
4.43451
4.48285
4.51521
4.52641
4.51353
4.47609
4.4157
4.33562
4.24077
4.13644
4.02738
3.91788
3.81171
3.71193
3.62076
3.53958
3.46872
3.40752
3.3543
3.30682
3.26297
3.22131
3.18138
3.14382
3.11002
3.08162
3.05993
3.04541
3.03758
3.03512
3.03635
3.03977
3.04441
3.05007
3.05713
3.06612
3.07726
3.08998
3.10245
3.1116
3.11362
3.10467
3.0818
3.04371
2.99128
2.92772
2.85818
2.78909
2.72715
2.67799
2.64524
2.63004
2.63127
2.64608
2.67085
2.70193
2.73599
2.77071
2.80432
2.83553
2.86359
2.88834
2.91033
2.93085
2.95183
2.97552
3.00426
3.04012
3.08445
3.13855
3.20341
3.28099
3.3733
3.47657
3.578
3.66101
3.70901
3.70967
3.65777
3.55581
3.41227
3.23903
3.04912
2.85537
2.66619
2.48716
2.32268
2.17681
2.05309
1.95398
1.88144
1.83515
1.80982
1.79764
1.791
1.73671
1.21929
0.337745
-0.660821
-1.45213
-1.36002
0
2.7732
6.75085
11.3786
15.8494
19.2567
20.8083
20.0714
17.1658
12.7873
7.99503
3.83144
0.963405
-0.477286
-0.793588
-0.437113
-0.1054
0.177075
0.389899
0.522807
0.606503
0.664285
0.705148
0.733507
0.753322
0.767715
0.779061
0.78908
0.7991
0.810349
0.824122
0.841751
0.86441
0.892862
0.927274
0.967148
1.01165
1.06009
1.11224
1.1686
1.23037
1.29927
1.37697
1.46459
1.56216
1.66839
1.7808
1.89605
2.01042
2.12037
2.22289
2.31526
2.39476
2.45989
2.51047
2.54716
2.5715
109
271
431
592
752
913
1074
1237
1402
1567
1734
1900
2064
2228
2392
2557
2721
2885
3049
3213
3375
3537
3699
3663
3732
0
0
0
0
0
0
0
0
0
0
0
0
0
0
0
0
0
0
0
0
0
0
0
0
0
0
0
0
0
0
0
0
0
0
0
0
0
0
0
0
0
0
0
0
0
0
0
0
0
0
0
0
0
0
0
0
0
0
0
0
0
0
0
0
0
0
0
0
0
0
0
0
0
0
0
0
0
0
0
0
0
0
0
0
0
0
0
0
0
0
0
0
0
0
0
0
0
0
0
0
0
0
0
0
0
0
0
0
0
0
0
0
0
0
0
0
0
0
0
0
0
0
0
0
0
0
0
0
0
0
0
0
0
0
0
0
0
0
0
0
0
0
0
0
0
0
0
0
0
0
0
0
0
0
0
0
0
0
0
0
0
0
0
0
0
0
0
0
0
0
0
0
0
0
0
0
0
0
0
0
0
0
0
0
0
0
0
0
0
0
0
0
0
0
0
0
0
0
0
0
0
0
0
0
0
0
0
0
0
0
0
0
0
0
0
0
0
0
0
0
0
0
0
0
0
0
0
0
0
0
0
0
0
0
0
0
0
0
0
0
0
0
0
0
0
0
0
0
0
0
0
0
0
0
0
0
0
0
0
0
0
0
0
0
0
0
0
0
0
0
0
0
0
0
0
0
0
0
0
0
0
0
0
0
0
0
0
0
0
0
0
0
0
0
0
0
0
0
0
0
0
0
0
0
0
0
0
0
0
0
0
0
0
0
0
0
0
0
0
0
0
0
0
0
0
0
0
0
0
0
0
0
0
0
0
0
0
0
0
0
0
0
0
0
0
0
0
0
0
0
0
0
0
0
0
0
0
0
0
0
0
0
0
0
0
0
0
0
0
0
0
0
0
0
0
0
0
0
0
0
0
0
0
0
0
0
0
0
0
0
0
0
0
0
0
0
0
0
0
0
0
0
0
0
0
0
0
0
0
0
0
0
0
0
0
0
0
0
0
0
0
0
0
0
0
0
0
0
0
0
0
0
0
0
0
0
0
0
0
0
0
0
0
0
0
0
0
0
0
0
0
0
0
0
0
0
0
0
0
0
0
0
0
0
0
0
0
0
0
0
0
0
0
0
0
0
0
0
0
0
0
0
0
0
0
0
0
0
0
0
0
0
0
0
0
0
0
0
0
0
0
0
0
0
0
0
0
0
0
0
0
0
0
0
0
0
0
0
0
0
0
0
0
0
0
0
0
0
0
0
0
0
0
0
0
0
0
0
0
0
0
0
0
0
0
0
0
0
0
0
0
0
0
0
0
0
0
0
0
0
0
0
0
0
0
0
0
0
0
0
0
0
0
0
0
0
0
0
0
0
0
0
0
0
0
0
0
0
0
0
0
0
0
0
0
0
0
0
0
0
0
0
0
0
0
0
0
0
0
0
0
0
0
0
0
0
0
0
0
0
0
0
0
0
0
0
0
0
0
0
0
0
0
0
0
0
0
0
0
0
0
0
0
0
0
0
0
0
0
0
0
0
0
0
0
0
0
0
0
0
0
0
0
0
0
0
0
0
0
0
0
0
0
0
0
0
0
0
0
0
0
0
0
0
0
0
0
0
0
0
0
0
0
0
0
0
0
0
0
0
0
0
0
0
0
0
0
0
0
0
0
0
0
0
0
0
0
0
0
0
0
0
0
0
0
0
0
0
0
0
0
0
0
0
0
0
0
0
0
0
0
0
0
0
0
0
0
0
0
0
0
0
0
0
0
0
0
0
0
0
0
0
0
0
0
0
0
0
0
0
0
0
0
0
0
0
0
0
0
0
0
0
0
0
0
0
0
0
0
0
0
0
0
0
0
0
0
0
0
0
0
0
0
0
0
0
0
0
0
0
0
0
0
0
0
0
0
0
0
0
0
0
0
0
0
0
0
0
0
0
0
0
0
0
0
0
0
0
0
0
0
0
0
0
0
0
0
0
0
0
0
0
0
0
0
0
0
0
0
0
0
0
0
0
0
0
0
0
0
0
0
0
0
0
0
0
0
0
0
0
0
0
0
0
0
0
0
0
0
0
0
0
0
0
0
0
0
0
0
0
0
0
0
0
0
0
0
0
0
0
0
0
0
0
0
0
0
0
0
0
0
0
0
0
0
0
0
0
0
0
0
0
0
0
0
0
0
0
0
0
0
0
0
0
0
0
0
0
0
0
0
0
0
0
0
0
0
0
0
0
0
0
0
0
0
0
0
0
0
0
0
0
0
0
0
0
0
0
0
0
0
0
0
0
0
0
0
0
0
0
0
0
0
0
0
0
0
0
0
0
0
0
0
0
0
0
0
0
0
0
0
0
0
0
0
0
0
0
0
0
0
0
0
0
0
0
0
0
0
0
0
0
0
0
0
0
0
0
0
0
0
0
0
0
0
0
0
0
0
0
0
0
0
0
0
0
0
0
0
0
0
0
0
0
0
0
0
0
0
0
0
0
0
0
0
0
0
0
0
0
0
0
0
0
0
0
0
0
0
0
0
0
0
0
0
0
0
0
0
0
0
0
0
0
0
0
0
0
0
0
0
0
0
0
0
0
0
0
0
0
0
0
0
0
0
0
0
0
0
0
0
0
0
0
0
0
0
0
0
0
0
0
0
0
0
0
0
0
0
0
0
0
0
0
0
0
0
0
0
0
0
0
0
0
0
0
0
0
0
0
0
0
0
0
0
0
0
0
0
0
0
0
0
0
0
0
0
0
0
0
0
0
0
0
0
0
0
0
0
0
0
0
0
0
0
0
0
0
0
0
0
0
0
0
0
0
0
0
0
0
0
0
0
0
0
0
0
0
0
0
0
0
0
0
0
0
0
0
0
0
0
0
0
0
0
0
0
0
0
0
0
0
0
0
0
0
0
0
0
0
0
0
0
0
0
0
0
0
0
0
0
0
0
0
0
0
0
0
0
0
0
0
0
0
0
0
0
0
0
0
0
0
0
0
0
0
0
0
0
0
0
0
0
0
0
0
0
0
0
0
0
0
0
0
0
0
0
0
0
0
0
0
0
0
0
0
0
0
0
0
0
0
0
0
0
0
0
0
0
0
0
0
0
0
0
0
0
0
0
0
0
0
0
0
0
0
0
0
0
0
0
0
0
0
0
0
0
0
0
0
0
0
0
0
0
0
0
0
0
0
0
0
0
0
0
0
0
0
0
0
0
0
0
0
0
0
0
0
0
0
0
0
0
0
0
0
0
0
0
0
0
0
0
0
0
0
0
0
0
0
0
0
0
0
0
0
0
0
0
0
0
0
0
0
0
0
0
0
0
0
0
0
0
0
0
0
0
0
0
0
0
0
0
0
0
0
0
0
0
0
0
0
0
0
0
0
0
0
0
0
0
0
0
0
0
0
0
0
0
0
0
0
0
0
0
0
0
0
0
0
0
0
0
0
0
0
0
0
0
0
0
0
0
0
0
0
0
0
0
0
0
0
0
0
0
0
0
0
0
0
0
0
0
0
0
0
0
0
0
0
0
0
0
0
0
0
0
0
0
0
0
0
0
0
0
0
0
0
0
0
0
0
0
0
0
0
0
0
0
0
0
0
0
0
0
0
0
0
0
0
0
0
0
0
0
0
0
0
0
0
0
0
0
0
0
0
0
0
0
0
0
0
0
0
0
0
0
0
0
0
0
0
0
0
0
0
0
0
0
0
0
0
0
0
0
0
0
0
0
0
0
0
0
0
0
0
0
0
0
0
0
0
0
0
0
0
0
0
0
0
0
0
0
0
0
0
0
0
0
0
0
0
0
0
0
0
0
0
0
0
0
0
0
0
0
0
0
0
0
0
0
0
0
0
0
0
0
0
0
0
0
0
0
0
0
0
0
0
0
0
0
0
0
0
0
0
0
0
0
0
0
0
0
0
0
0
0
0
0
0
0
0
0
0
0
0
0
0
0
0
0
0
0
0
0
0
0
0
0
0
0
0
0
0
0
0
0
0
0
0
0
0
0
0
0
0
0
0
0
0
0
0
0
0
0
0
0
0
0
0
0
0
0
0
0
0
0
0
0
0
0
0
0
0
0
0
0
0
0
0
0
0
0
0
0
0
0
0
0
0
0
0
0
0
0
0
0
0
0
0
0
0
0
0
0
0
0
0
0
0
0
0
0
0
0
0
0
0
0
0
0
0
0
0
0
0
0
0
0
0
0
0
0
0
0
0
0
0
0
0
0
0
0
0
0
0
0
0
0
0
0
0
0
0
0
0
0
0
0
0
0
0
0
0
0
0
0
0
0
0
0
0
0
0
0
0
0
0
0
0
0
0
0
0
0
0
0
0
0
0
0
0
0
0
0
0
0
0
0
0
0
0
0
0
0
0
0
0
0
0
0
0
0
0
0
0
0
0
0
0
0
0
0
0
0
0
0
0
0
0
0
0
0
0
0
0
0
0
0
0
0
0
0
0
0
0
0
0
0
0
0
0
0
0
0
0
0
0
0
0
0
0
0
0
0
0
0
0
0
0
0
0
0
0
0
0
0
0
0
0
0
0
0
0
0
0
0
0
0
0
0
0
0
0
0
0
0
0
0
0
0
0
0
0
0
0
0
0
0
0
0
0
0
0
0
0
0
0
0
0
0
0
0
0
0
0
0
0
0
0
0
0
0
0
0
0
0
0
0
0
0
0
0
0
0
0
0
0
0
0
0
0
0
0
0
0
0
0
0
0
0
0
0
0
0
0
0
0
0
0
0
0
0
0
0
0
0
0
0
0
0
0
0
0
0
0
0
0
0
0
0
0
0
0
0
0
0
0
0
0
0
0
0
0
0
0
0
0
0
0
0
0
0
0
0
0
0
0
0
0
0
0
0
0
0
0
0
0
0
0
0
0
0
0
0
0
0
0
0
0
0
0
0
0
0
0
0
0
0
0
0
0
0
0
0
0
0
0
0
0
0
0
0
0
0
0
0
0
0
0
0
0
0
0
0
0
0
0
0
0
0
0
0
0
0
0
0
0
0
0
0
0
0
0
0
0
0
0
0
0
0
0
0
0
0
0
0
0
0
0
0
0
0
0
0
0
0
0
0
0
0
0
0
0
0
0
0
0
0
0
0
0
0
0
0
0
0
0
0
0
0
0
0
0
0
0
0
0
0
0
0
0
0
0
0
0
0
0
0
0
0
0
0
0
0
0
0
0
0
0
0
0
0
0
0
0
0
0
0
0
0
0
0
0
0
0
0
0
0
0
0
0
0
0
0
0
0
0
0
0
0
0
0
0
0
0
0
0
0
0
0
0
0
0
0
0
0
0
0
0
0
0
0
0
0
0
0
0
0
0
0
0
0
0
0
0
0
0
0
0
0
0
0
0
0
0
0
0
0
0
0
0
0
0
0
0
0
0
0
0
0
0
0
0
0
0
0
0
0
0
0
0
0
0
0
0
0
0
0
0
0
0
0
0
0
0
0
0
0
0
0
0
0
0
0
0
0
0
0
0
0
0
0
0
0
0
0
0
0
0
0
0
0
0
0
0
0
0
0
0
0
0
0
0
0
0
0
0
0
0
0
0
0
0
0
0
0
0
0
0
0
0
0
0
0
0
0
0
0
0
0
0
0
0
0
0
0
0
0
0
0
0
0
0
0
0
0
0
0
0
0
0
0
0
0
0
0
0
0
0
0
0
0
0
0
0
0
0
0
0
0
0
0
0
0
0
0
0
0
0
0
0
0
0
0
0
0
0
0
0
0
0
0
0
0
0
0
0
0
0
0
0
0
0
0
0
0
0
0
0
0
0
0
0
0
0
0
0
0
0
0
0
0
0
0
0
0
0
0
0
0
0
0
0
0
0
0
0
0
0
0
0
0
0
0
0
0
0
0
0
0
0
0
0
0
0
0
0
0
0
0
0
0
0
0
0
0
0
0
0
0
0
0
0
0
0
0
0
0
0
0
0
0
0
0
0
0
0
0
0
0
0
0
0
0
0
0
0
0
0
0
0
0
0
0
0
0
0
0
0
0
0
0
0
0
0
0
0
0
0
0
0
0
0
0
0
0
0
0
0
0
0
0
0
0
0
0
0
0
0
0
0
0
0
0
0
0
0
0
0
0
0
0
0
0
0
0
0
0
0
0
0
0
0
0
0
0
0
0
0
0
0
0
0
0
0
0
0
0
0
0
0
0
0
0
0
0
0
0
0
0
0
0
0
0
0
0
0
0
0
0
0
0
0
0
0
0
0
0
0
0
0
0
0
0
0
0
0
0
0
0
0
0
0
0
0
0
0
0
0
0
0
0
0
0
0
0
0
0
0
0
0
0
0
0
0
0
0
0
0
0
0
0
0
0
0
0
0
0
0
0
0
0
0
0
0
0
0
0
0
0
0
0
0
0
0
0
0
0
0
0
0
0
0
0
0
0
0
0
0
0
0
0
0
0
0
0
0
0
0
0
0
0
0
0
0
0
0
0
0
0
0
0
0
0
0
0
0
0
0
0
0
0
0
0
0
0
0
0
0
0
0
0
0
0
0
0
0
0
0
0
0
0
0
0
0
0
0
0
0
0
0
0
0
0
0
0
0
0
0
0
0
0
0
0
0
0
0
0
0
0
0
0
0
0
0
0
0
0
0
0
0
0
0
0
0
0
0
0
0
0
0
0
0
0
0
0
0
0
0
0
0
0
0
0
0
0
0
0
0
0
0
0
0
0
0
0
0
0
0
0
0
0
0
0
0
0
0
0
0
0
0
0
0
0
0
0
0
0
0
0
0
0
0
0
0
0
0
0
0
0
0
0
0
0
0
0
0
0
0
0
0
0
0
0
0
0
0
0
0
0
0
0
0
0
0
0
0
0
0
0
0
0
0
0
0
0
0
0
0
0
0
0
0
0
0
0
0
0
0
0
0
0
0
0
0
0
0
0
0
0
0
0
0
0
0
0
0
0
0
0
0
0
0
0
0
0
0
0
0
0
0
0
0
0
0
0
0
0
0
0
0
0
0
0
0
0
0
0
0
0
0
0
0
0
0
0
0
0
0
0
0
0
0
0
0
0
0
0
0
0
0
0
0
0
0
0
0
0
0
0
0
0
0
0
0
0
0
0
0
0
0
0
0
0
0
0
0
0
0
0
0
0
0
0
0
0
0
0
0
0
0
0
0
0
0
0
0
0
0
0
0
0
0
0
0
0
0
0
0
0
0
0
0
0
0
0
0
0
0
0
0
0
0
0
0
0
0
0
0
0
0
0
0
0
0
0
0
0
0
0
0
0
0
0
0
0
0
0
0
0
0
0
0
0
0
0
0
0
0
0
0
0
0
0
0
0
0
0
0
0
0
0
0
0
0
0
0
0
0
0
0
0
0
0
0
0
0
0
0
0
0
0
0
0
0
0
0
0
0
0
0
0
0
0
0
0
0
0
0
0
0
0
0
0
0
0
0
0
0
0
0
0
0
0
0
0
0
0
0
0
0
0
0
0
0
0
0
0
0
0
0
0
0
0
0
0
0
0
0
0
0
0
0
0
0
0
0
0
0
0
0
0
0
0
0
0
0
0
0
0
0
0
0
0
0
0
0
0
0
0
0
0
0
0
0
0
0
0
0
0
0
0
0
0
0
0
0
0
0
0
0
0
0
0
0
0
0
0
0
0
0
0
0
0
0
0
0
0
0
0
0
0
0
0
0
0
0
0
0
0
0
0
0
0
0
0
0
0
0
0
0
0
0
0
0
0
0
0
0
0
0
0
0
0
0
0
0
0
0
0
0
0
0
0
0
0
0
0
0
0
0
0
0
0
0
0
0
0
0
0
0
0
0
0
0
0
0
0
0
0
0
0
0
0
0
0
0
0
0
0
0
0
0
0
0
0
0
0
0
0
0
0
0
0
0
0
0
0
0
0
0
0
0
0
0
0
0
0
0
0
0
0
0
0
0
0
0
0
0
0
0
0
0
0
0
0
0
0
0
0
0
0
0
0
0
0
0
0
0
0
0
0
0
0
0
0
0
0
0
0
0
0
0
0
0
0
0
0
0
0
0
0
0
0
0
0
0
0
0
0
0
0
0
0
0
0
0
0
0
0
0
0
0
0
0
0
0
0
0
0
0
0
0
0
0
0
0
0
0
0
0
0
0
0
0
0
0
0
0
0
0
0
0
0
0
0
0
0
0
0
0
0
0
0
0
0
0
0
0
0
0
0
0
0
0
0
0
0
0
0
0
0
0
0
0
0
0
0
0
0
0
0
0
0
0
0
0
0
0
0
0
0
0
0
0
0
0
0
0
0
0
0
0
0
0
0
0
0
0
0
0
0
0
0
0
0
0
0
0
0
0
0
0
0
0
0
0
0
0
0
0
0
0
0
0
0
0
0
0
0
0
0
0
0
0
0
0
0
0
0
0
0
0
0
0
0
0
0
0
0
0
0
0
0
0
0
0
0
0
0
0
0
0
0
0
0
0
0
0
0
0
0
0
0
0
0
0
0
0
0
0
0
0
0
0
0
0
