3.70868
3.57786
3.45649
3.34596
3.24657
3.15785
3.07886
3.00861
2.9463
2.89138
2.84349
2.80235
2.76756
2.73839
2.71398
2.69354
2.67656
2.66298
2.65309
2.64741
2.64639
2.6501
2.65798
2.66898
2.68152
2.69378
2.704
2.7108
2.7133
2.71112
2.70425
2.69282
2.67683
2.65602
2.63002
2.59855
2.56184
2.52037
2.47706
2.43756
2.40867
2.39683
2.40673
2.44058
2.49809
2.57723
2.6752
2.78827
2.91795
3.06497
3.21843
3.35777
3.45947
3.50409
3.48188
3.39434
3.25229
3.0728
2.87669
2.68528
2.51018
2.35473
2.21891
2.10192
2.00375
1.9234
1.85887
1.8074
1.7659
1.73108
1.69978
1.66922
1.63705
1.60145
1.56098
1.51453
1.46054
1.39397
1.29082
1.07658
0.747721
0.345296
0
0.264176
1.57401
4.17844
7.87365
11.9162
15.21
16.7338
16.0077
13.3288
9.6263
6.01615
3.31906
1.80651
1.26526
1.26707
1.39687
1.48151
1.55659
1.61915
1.66765
1.70233
1.7253
1.74038
1.75258
1.76746
1.79032
1.82481
1.8725
1.93349
2.00688
2.09064
2.18191
2.27706
2.37235
2.46476
2.55243
2.63492
2.71307
2.78869
2.86403
2.94132
3.02242
3.10866
3.20112
3.30069
3.40806
3.52364
3.64729
3.77801
3.91372
4.05117
4.18517
4.30975
4.41928
4.50938
4.57745
4.62268
4.64555
4.64708
4.62816
4.59015
4.53472
4.46258
4.37453
4.27218
4.15794
4.03478
3.90594
3.77442
3.64269
3.51273
3.38618
3.26466
3.15001
3.04443
2.95027
2.86991
2.80649
2.76359
2.73973
2.72965
2.72704
2.72643
2.72474
2.72178
2.71963
2.72118
2.72862
2.74161
2.75875
2.77869
2.7999
2.82117
2.84182
2.86179
2.88147
2.90129
2.92134
2.94105
2.9587
2.97166
2.97688
2.97181
2.95529
2.92817
2.8935
2.85609
2.82174
2.796
2.78371
2.78818
2.81086
2.85126
2.90704
2.97436
3.04832
3.12344
3.19423
3.25596
3.30522
3.3379
3.35078
3.34131
3.30768
3.24912
3.16621
3.06112
2.93765
2.80099
2.65719
2.51253
2.37223
2.24052
2.12034
2.01323
1.91949
1.83844
1.76881
1.70911
1.65785
1.61356
1.57461
1.53888
1.50329
1.463
1.41164
1.34176
1.23692
1.02183
0.703037
0.320841
-0.189865
0
1.40262
4.23026
8.17174
12.3256
15.4504
16.4725
15.0046
11.5646
7.33803
3.61282
1.21748
0.27588
0.359243
0.859132
1.10347
1.31845
1.48293
1.59312
1.67194
1.72259
1.75061
1.76295
1.76695
1.76937
1.77563
1.78901
1.81103
1.84277
1.88539
1.93989
2.00715
2.08766
2.18116
2.28632
2.40067
2.52092
2.64287
2.76248
2.87653
2.98308
3.08152
3.17232
3.25653
3.3352
3.40953
3.48066
3.54994
3.61903
3.68995
3.76476
3.84501
3.93119
4.02238
4.11598
4.20744
4.29072
4.35913
4.40665
4.42833
4.4207
4.38204
4.31241
4.21361
4.08903
3.94331
3.78238
3.61306
3.44146
3.27265
3.11133
2.96168
2.82714
2.71012
2.61186
2.53241
2.47066
2.4246
2.39156
2.36851
2.35236
2.34018
2.32936
2.31794
2.30484
2.29002
2.27449
2.26031
2.25021
2.24714
2.25379
2.27204
2.30271
2.34549
2.39939
2.46207
2.52867
2.59121
2.64119
2.67143
2.67774
2.66017
2.6233
2.5753
2.52594
2.48426
2.45547
2.4396
2.43547
2.44289
2.4616
2.4914
2.53213
2.58384
2.64709
2.72239
2.80936
2.90495
3.00087
3.08489
3.14451
3.16935
3.15323
3.09544
3.00068
2.87758
2.73661
2.58804
2.44074
2.29959
2.16749
2.0486
1.94638
1.86355
1.80158
1.76036
1.73803
1.73105
1.73452
1.74263
1.74906
1.74755
1.73139
1.6943
1.6306
1.53574
1.40701
1.2221
0.97928
0.701203
0.115271
0
0.880745
3.09066
6.51654
10.4868
13.9243
15.7522
15.3647
12.9089
9.21179
5.3913
2.38067
0.61882
0.029311
0.223185
0.615736
0.873639
1.08033
1.22511
1.32461
1.39267
1.43736
1.46778
1.49223
1.51686
1.54457
1.57591
1.6103
1.64618
1.68154
1.71476
1.74526
1.77387
1.80278
1.83516
1.87444
1.9235
1.98397
2.05575
2.13691
2.22546
2.3194
2.41734
2.51874
2.62371
2.73244
2.84442
2.95808
3.06932
3.17243
3.26172
3.33347
3.38726
3.42652
3.45786
3.48949
3.5306
3.59512
3.6878
3.78697
3.86037
3.87727
3.81986
3.6899
3.50818
3.30652
3.11519
2.94871
2.79891
2.65745
2.52051
2.38559
2.25121
2.11749
1.98637
1.86183
1.74915
1.65353
1.57919
1.5284
1.50091
1.49399
1.50279
1.52131
1.54339
1.56382
1.5792
1.58792
1.59011
1.58729
1.58171
1.57577
1.57139
1.5697
1.57109
1.57537
1.58189
1.58972
1.59788
1.60544
1.61167
1.61609
1.61849
1.61894
1.61774
1.61532
1.61219
1.60884
1.60568
1.60309
1.60155
1.6018
1.60507
1.61313
1.62825
1.65304
1.69252
1.75599
1.85099
1.96281
2.06413
2.1262
2.12941
2.07057
1.96378
1.83412
1.70721
1.59985
1.50972
1.4293
1.35461
1.28391
1.21659
1.15292
1.09394
1.04108
0.995755
0.958916
0.930313
0.907741
0.887137
0.863245
0.83031
0.782828
0.716249
0.627192
0.503929
0.338282
0.140259
-0.0749664
-0.265628
0
1.06364
3.19696
6.37102
10.0974
13.4622
15.4249
15.2792
13.0252
9.41006
5.58657
2.58606
0.910648
0.453197
0.722151
0.988036
1.05552
1.10532
1.14048
1.16584
1.18732
1.21093
1.24173
1.28177
1.33138
1.39029
1.45736
1.53054
1.6071
1.68374
1.75676
1.82287
1.87974
1.92649
1.96398
1.9947
2.0224
2.05133
2.08557
2.1281
2.18043
2.24278
2.31456
2.39463
2.48151
2.57357
2.66904
2.76604
2.86249
2.95614
3.0447
3.12608
3.19857
3.26101
3.31288
3.35423
3.38537
3.40654
3.41741
3.41715
3.40501
3.38023
3.3424
3.29189
3.22998
3.15887
3.08129
3.00004
2.91745
2.83498
2.75312
2.67168
2.58999
2.50725
2.42295
2.3371
2.25042
2.16453
2.08206
2.00616
1.94
1.88629
1.84677
1.822
1.81128
1.81285
1.82423
1.84265
1.86533
1.89016
1.91567
1.94089
1.96511
1.98756
2.00694
2.02118
2.02798
2.02514
2.01131
1.98682
1.95404
1.91716
1.88143
1.85194
1.83244
1.82368
1.82594
1.83839
1.85978
1.88911
1.92555
1.96927
2.02099
2.08144
2.15138
2.23139
2.32108
2.41735
2.5121
2.59315
2.6476
2.66387
2.63398
2.55556
2.4331
2.27782
2.10576
1.93448
1.7773
1.63804
1.5154
1.4084
1.31651
1.23831
1.17202
1.11597
1.06893
1.03023
0.999586
0.976951
0.962374
0.95444
0.94764
0.933217
0.900433
0.838185
0.690463
0.402414
0.00213356
-0.45855
-0.651437
0
1.89104
5.09442
9.14161
13.0564
15.6728
16.1295
14.2837
10.7939
6.81315
3.46202
1.38325
0.598994
0.685939
1.06729
1.15793
1.23258
1.28566
1.31949
1.34217
1.35718
1.36869
1.38079
1.39664
1.41825
1.44676
1.48233
1.52341
1.5682
1.6155
1.66513
1.71788
1.77498
1.83723
1.90431
1.97449
2.04524
2.11421
2.17989
2.24226
2.30309
2.36561
2.43379
2.51142
2.60063
2.7018
2.81359
2.9328
3.05488
3.17361
3.28275
3.37738
3.45478
3.51479
3.55946
3.59226
3.6168
3.6348
3.64654
3.64959
3.63931
3.6105
3.55918
3.48376
3.38549
3.26808
3.13698
2.99907
2.86041
2.72534
2.59732
2.47915
2.37287
2.27962
2.19921
2.13063
2.07252
2.02365
1.98326
1.95121
1.92784
1.91357
1.90857
1.91232
1.92363
1.9407
1.96157
1.98445
2.00816
2.03217
2.0565
2.0814
2.10685
2.13212
2.15535
2.17368
2.18404
2.18399
2.17259
2.15105
2.12283
2.09327
2.06865
2.05507
2.05672
2.07468
2.10812
2.15573
2.21539
2.28438
2.35987
2.43933
2.52074
2.6025
2.68312
2.76076
2.83265
2.89461
2.94198
2.97
2.97457
2.95319
2.90572
2.83452
2.74421
2.64088
2.53115
2.42128
2.31537
2.21578
2.12408
2.04123
1.96743
1.90229
1.84509
1.79488
1.75047
1.71032
1.6723
1.63293
1.58658
1.52625
1.4443
1.33389
1.19052
1.0133
0.80326
0.56806
0.174852
0
0.53682
2.16549
5.01552
8.72653
12.4142
14.9347
15.3721
13.4964
9.91117
5.78458
2.30865
0.200605
-0.489673
-0.217143
0.294179
0.585476
0.794715
0.904345
0.959056
0.98621
0.994346
0.992569
0.989489
0.99191
1.00407
1.02839
1.066
1.11693
1.18041
1.25509
1.33918
1.43063
1.52725
1.62676
1.72575
1.81887
1.90053
1.96601
2.01305
2.0432
2.06221
2.07893
2.10306
2.14255
2.20015
2.27249
2.35573
2.44674
2.54237
2.63951
2.7353
2.82682
2.91136
2.9864
3.04947
3.09808
3.12994
3.14308
3.13607
3.1082
3.05958
2.99158
2.9059
2.80443
2.68914
2.56194
2.42501
2.28046
2.13013
1.97642
1.82239
1.67177
1.52869
1.39726
1.28099
1.18233
1.10226
1.04033
0.995092
0.964033
0.94286
0.927389
0.914359
0.901992
0.89015
0.880029
0.873474
0.872138
0.877089
0.887799
0.902641
0.919597
0.93716
0.955093
0.974762
0.998917
1.031
1.07468
1.13702
1.22248
1.31973
1.40886
1.46927
1.48694
1.45976
1.39863
1.324
1.25961
1.22577
1.22493
1.24975
1.29503
1.35859
1.43956
1.53671
1.64608
1.75769
1.85749
1.93146
1.96808
1.96075
1.90933
1.82018
1.70455
1.57588
1.44689
1.3255
1.21402
1.11296
1.02319
0.945631
0.880933
0.829555
0.791735
0.767484
0.756625
0.758295
0.770211
0.788407
0.807411
0.820425
0.820144
0.799947
0.754829
0.682362
0.578307
0.448761
0.304112
-0.0669786
0
1.00013
3.27163
6.69328
10.5541
13.7205
15.0942
14.1412
11.1827
7.25425
3.60469
1.13356
0.084992
0.123049
0.663191
0.890234
1.09251
1.25208
1.36497
1.44908
1.50948
1.55327
1.58801
1.62018
1.65395
1.6907
1.72952
1.76807
1.80388
1.83552
1.86346
1.8902
1.91977
1.95676
2.00514
2.06626
2.13976
2.22414
2.31683
2.41464
2.51443
2.61375
2.71109
2.8059
2.8983
2.98867
3.07725
3.16393
3.24821
3.32956
3.40765
3.48273
3.55573
3.62802
3.70152
3.77829
3.85663
3.92755
3.97766
3.99373
3.96753
3.89864
3.79417
3.66572
3.5251
3.38095
3.23675
3.09274
2.94844
2.80344
2.65775
2.51209
2.36807
2.22811
2.09532
1.97283
1.8634
1.76908
1.69091
1.62904
1.58285
1.55127
1.5331
1.52699
1.53159
1.54554
1.56718
1.59445
1.62498
1.65619
1.68558
1.71095
1.73058
1.74329
1.74832
1.74569
1.73631
1.72195
1.70525
1.68963
1.67908
1.67737
1.68724
1.70984
1.74446
1.78888
1.84005
1.89497
1.95128
2.00765
2.06332
2.1174
2.16805
2.2118
2.24378
2.25868
2.25221
2.22224
2.16935
2.09664
2.00885
1.91145
1.80982
1.70851
1.6108
1.51893
1.43515
1.36141
1.29903
1.24933
1.21193
1.18434
1.16307
1.14436
1.1248
1.10166
1.07284
1.03648
0.990454
0.932872
0.8619
0.770919
0.642637
0.463788
0.243507
0
-0.161409
0.314759
1.87592
4.70221
8.45155
12.2369
14.9177
15.5965
14.052
10.8515
7.07401
3.80721
1.70704
0.838859
0.827765
1.1506
1.27543
1.38806
1.4824
1.55642
1.61831
1.67228
1.72256
1.77345
1.8285
1.88992
1.95823
2.03231
2.11016
2.18941
2.26789
2.34396
2.41673
2.48596
2.55182
2.61463
2.67502
2.73387
2.7925
2.85292
2.91777
2.99012
3.07299
3.16873
3.27844
3.40136
3.53535
3.67719
3.82284
3.96794
4.10835
4.24055
4.3617
4.4693
4.56111
4.63593
4.69358
4.73427
4.75857
4.76734
4.76166
4.74256
4.7108
4.66673
4.6108
4.54367
4.4657
4.37734
4.27959
4.17399
4.06248
3.94716
3.83001
3.71283
3.59719
3.48449
3.37603
3.27298
3.17637
3.08704
3.00527
2.93081
2.86317
2.80185
2.74667
2.69787
2.65605
2.62186
2.59559
2.57667
2.56402
2.55537
2.54755
2.53725
2.52154
2.49818
2.46565
2.42295
2.36933
2.30459
2.22922
2.14494
2.05512
1.96483
1.88038
1.80801
1.75252
1.71833
1.7041
1.70547
1.71679
1.73301
1.75099
1.76976
1.78981
1.81175
1.83506
1.85757
1.87531
1.88327
1.87639
1.85057
1.80344
1.73466
1.64599
1.54113
1.42599
1.30722
1.19085
1.08236
0.986743
0.907821
0.84782
0.807656
0.786666
0.78203
0.788747
0.801307
0.814703
0.825039
0.829698
0.827066
0.815948
0.794927
0.761978
0.715169
0.649838
0.549313
0.417779
0.267605
-0.126781
0
1.20084
3.80002
7.6094
11.8226
15.2327
16.7221
15.7833
12.7746
8.75433
4.987
2.39918
1.27246
1.28799
1.82894
1.93819
2.02784
2.10581
2.17287
2.23196
2.28668
2.33997
2.3937
2.44918
2.50799
2.57238
2.64518
2.72918
2.82634
2.9368
3.05785
3.18624
3.31849
3.4509
3.58005
3.70315
3.81824
3.92413
4.0202
4.10657
4.18412
4.25438
4.31948
4.38209
4.44522
4.51187
4.58457
4.665
4.75343
4.84877
4.94884
5.05028
5.14801
5.23649
5.31067
5.36657
5.40162
5.41455
5.4051
5.37343
5.31983
5.24558
5.15284
5.04296
4.91728
4.77789
4.62761
4.46993
4.30876
4.14801
3.99162
3.84342
3.70703
3.58587
3.48327
3.40212
3.34445
3.31144
3.30325
3.32123
3.36667
3.43914
3.53361
3.63722
3.73098
3.7964
3.81844
3.7885
3.70718
3.58561
3.44371
3.30506
3.18955
3.10132
3.03226
2.97615
2.92997
2.89067
2.85586
2.82425
2.7955
2.76992
2.74785
2.72941
2.71427
2.70168
2.69078
2.68088
2.67172
2.66351
2.65673
2.65194
2.64939
2.64878
2.64935
2.64986
2.64858
2.6434
2.63188
2.61142
2.57937
2.53335
2.47148
2.39264
2.29673
2.18471
2.05856
1.92124
1.77622
1.62718
1.47781
1.33162
1.19183
1.06129
0.942425
0.837246
0.747274
0.673412
0.615828
0.574411
0.548638
0.534833
0.524332
0.506645
0.470973
0.407943
0.311149
0.178132
-0.00604858
-0.23056
-0.478875
-0.795588
-0.775324
0
1.90869
5.02425
8.90877
12.6183
15.0097
15.238
13.1811
9.52797
5.45926
2.09999
0.0641108
-0.673795
-0.571992
-0.206253
-0.0892765
0.0120157
0.0913942
0.150157
0.195677
0.23111
0.260636
0.288692
0.31918
0.354794
0.396542
0.443784
0.494418
0.545126
0.592003
0.631555
0.661444
0.680973
0.691273
0.695167
0.696746
0.700736
0.711784
0.733799
0.768898
0.817473
0.879043
0.952601
1.03652
1.12872
1.22687
1.32856
1.43136
1.53286
1.63033
1.72021
1.79818
1.86062
1.90446
1.92755
1.92938
1.91126
1.87631
1.82881
1.77345
1.71444
1.65502
1.59675
1.54012
1.48488
1.4301
1.37423
1.31543
1.25192
1.18242
1.10662
1.02535
0.940624
0.855297
0.772612
0.695532
0.626464
0.567009
0.518005
0.479825
0.452776
0.436828
0.431929
0.437863
0.454032
0.47926
0.511743
0.549166
0.588971
0.628671
0.666221
0.700025
0.72903
0.752892
0.771876
0.786791
0.798897
0.809748
0.820971
0.834007
0.849874
0.869003
0.891268
0.916212
0.943293
0.972173
1.00293
1.03613
1.07266
1.11351
1.15946
1.21084
1.26737
1.32827
1.39243
1.45847
1.52484
1.5896
1.6501
1.70252
1.74228
1.76481
1.76602
1.74329
1.6963
1.62745
1.54156
1.44494
1.34418
1.24479
1.14979
1.06054
0.977638
0.900867
0.829511
0.762659
0.699401
0.638878
0.580198
0.522263
0.463573
0.402077
0.335157
0.259765
0.172733
0.069824
-0.0588819
-0.227832
-0.429891
-0.651649
-0.909791
-0.809919
0
1.86608
4.8508
8.58829
12.2406
14.7396
15.229
13.4849
10.0623
6.05766
2.61437
0.450173
-0.344142
-0.171697
0.377082
0.619462
0.843342
1.03865
1.20749
1.36008
1.49824
1.62374
1.73818
1.84274
1.93807
2.02429
2.10114
2.16829
2.22555
2.2732
2.31213
2.34406
2.37157
2.39815
2.4281
2.4662
2.51691
2.58364
2.66815
2.77011
2.88711
3.0151
3.1491
3.28413
3.4161
3.54227
3.66096
3.77137
3.87348
3.96762
4.05416
4.13332
4.20498
4.26824
4.32175
4.36422
4.39418
4.41035
4.41182
4.39823
4.3698
4.32716
4.27125
4.20373
4.12645
4.04076
3.94818
3.8505
3.74973
3.64796
3.54719
3.44916
3.35519
3.26614
3.18244
3.10421
3.03148
2.96442
2.90348
2.84954
2.80378
2.76754
2.74192
2.72776
2.72543
2.73374
2.75022
2.77183
2.79541
2.81827
2.83834
2.85421
2.8649
2.86947
2.86699
2.85645
2.83657
2.80609
2.76419
2.71076
2.64661
2.57348
2.49391
2.41106
2.32842
2.24961
2.17812
2.11714
2.06933
2.03672
2.02062
2.02159
2.03943
2.07319
2.12203
2.1855
2.26137
2.34295
2.42085
2.48542
2.52829
2.54369
2.5291
2.48487
2.41334
2.31772
2.20275
2.07418
1.93727
1.79675
1.65719
1.52342
1.40027
1.29195
1.20159
1.13073
1.07926
1.04538
1.02591
1.01651
1.01196
1.00643
0.993484
0.966173
0.91815
0.844125
0.740623
0.606591
0.438707
0.242388
-0.200298
-0.490762
0
1.65415
4.55237
8.26196
11.8717
14.2815
14.6581
12.8257
9.36883
5.37686
1.96677
-0.159406
-0.908089
-0.684061
-0.151121
-0.0417633
0.042144
0.0922798
0.105987
0.0861649
0.0395149
-0.0257095
-0.10018
-0.177023
-0.251802
-0.32092
-0.381354
-0.430573
-0.466809
-0.489267
-0.498243
-0.495102
-0.482076
-0.461906
-0.437395
-0.410996
-0.384496
-0.358815
-0.334216
-0.310485
-0.287159
-0.263749
-0.239941
-0.215705
-0.191302
-0.167197
-0.143907
-0.121816
-0.101009
-0.0811974
-0.0617661
-0.0419456
-0.0210754
0.00111389
0.0239243
0.0446411
0.05867
0.060556
0.045282
0.0095871
-0.0471962
-0.123043
-0.213872
-0.314626
-0.420372
-0.527033
-0.632351
-0.735117
-0.834536
-0.930118
-1.02149
-1.10815
-1.18891
-1.26125
-1.32149
-1.36598
-1.39102
-1.39403
-1.37461
-1.33526
-1.28115
-1.21915
-1.15607
-1.09657
-1.04183
-0.990662
-0.93949
-0.883136
-0.816023
-0.733341
-0.631948
-0.511619
-0.37382
-0.220456
-0.0540024
0.12254
0.305767
0.491898
0.67682
0.856257
1.0261
1.18286
1.32406
1.44848
1.55618
1.64826
1.72635
1.79246
1.84907
1.89872
1.94413
1.98809
2.03338
2.08242
2.13681
2.19739
2.26347
2.33141
2.39473
2.44584
2.47745
2.48383
2.46161
2.41023
2.33195
2.23175
2.11687
1.99626
1.87893
1.77236
1.68265
1.61359
1.56624
1.53909
1.52866
1.53041
1.53972
1.5524
1.56542
1.57669
1.58432
1.58608
1.57938
1.56102
1.52711
1.45191
1.22355
0.84988
0.386209
-0.124135
0
1.24394
3.8042
7.40288
11.2646
14.3393
15.6944
14.9058
12.2507
8.59025
4.99494
2.30969
0.879072
0.543393
0.849125
1.01547
1.1416
1.24203
1.31422
1.3669
1.40495
1.43456
1.46207
1.49274
1.52983
1.57522
1.62944
1.69164
1.76008
1.83203
1.90442
1.9746
2.04089
2.10287
2.16131
2.21783
2.2743
2.3323
2.39254
2.45482
2.51826
2.58151
2.6432
2.70248
2.75932
2.81477
2.87088
2.9304
2.99629
3.0712
3.15697
3.25607
3.37009
3.49524
3.62052
3.73236
3.81793
3.86726
3.87454
3.83835
3.76124
3.64898
3.50954
3.35286
3.18748
3.01904
2.85042
2.68258
2.5157
2.34964
2.18431
2.01999
1.85767
1.69917
1.5472
1.40542
1.27788
1.16812
1.07876
1.01108
0.964741
0.93793
0.927711
0.930578
0.943006
0.961731
0.984223
1.00867
1.03374
1.05838
1.08165
1.10255
1.11995
1.13249
1.13865
1.13687
1.12576
1.10433
1.07235
1.03059
0.980966
0.926526
0.871114
0.819107
0.77464
0.740971
0.72001
0.712125
0.716252
0.730292
0.751687
0.778045
0.807711
0.840123
0.875986
0.917188
0.966455
1.02681
1.10238
1.20268
1.3363
1.4906
1.63881
1.75249
1.81078
1.80613
1.7444
1.64011
1.5102
1.36986
1.23145
1.10154
0.983771
0.881461
0.798467
0.737872
0.70415
0.703954
0.733344
0.777709
0.820374
0.846884
0.848301
0.822243
0.771515
0.701212
0.615831
0.519312
0.413433
0.295307
0.165905
0.0278736
-0.160608
0
0.949995
3.06264
6.36417
10.3262
13.9278
16.0385
15.9423
13.6963
10.0987
6.29018
3.23545
1.38105
0.631877
0.57851
0.75005
0.831996
0.911661
0.990384
1.06879
1.14635
1.22068
1.28776
1.34258
1.38068
1.39957
1.39996
1.38596
1.36452
1.34401
1.33248
1.33406
1.34947
1.37803
1.41965
1.47176
1.5302
1.59138
1.65337
1.71642
1.7827
1.85531
1.93694
2.02866
2.12874
2.23384
2.34055
2.44552
2.546
2.64021
2.72737
2.80747
2.88088
2.94799
3.00905
3.06393
3.11222
3.1532
3.18586
3.20882
3.22037
3.21885
3.20261
3.17023
3.12089
3.05456
2.97219
2.87567
2.76777
2.65203
2.53259
2.41357
2.29922
2.19352
2.09985
2.02068
1.95737
1.91019
1.87853
1.86122
1.85686
1.86395
1.88099
1.90644
1.93838
1.97464
2.0124
2.04868
2.08082
2.10702
2.12667
2.14042
2.15001
2.15783
2.1664
2.17783
2.19335
2.21318
2.2368
2.26268
2.28762
2.3071
2.31649
2.312
2.29172
2.25627
2.2089
2.15496
2.10082
2.05278
2.01474
1.98856
1.97618
1.97874
1.99667
2.02987
2.07906
2.14647
2.23388
2.33817
2.44747
2.54388
2.60862
2.62517
2.58208
2.47533
2.31041
2.10318
1.87819
1.66386
1.48002
1.3282
1.20205
1.09922
1.01819
0.955976
0.909054
0.874092
0.848495
0.830603
0.81952
0.814623
0.815488
0.820297
0.823417
0.815956
0.787634
0.729177
0.634909
0.501769
0.336996
0.154108
-0.136937
0
1.00768
3.23573
6.65078
10.6342
14.0855
15.8501
15.2694
12.5293
8.58493
4.70005
1.87474
0.481467
0.272219
0.676334
0.883188
1.07371
1.23939
1.3745
1.48988
1.58915
1.67469
1.7494
1.81634
1.87835
1.93777
1.99629
2.05485
2.11374
2.17286
2.23197
2.29116
2.351
2.41271
2.47798
2.54869
2.62648
2.7124
2.80657
2.90829
3.01616
3.12837
3.24302
3.35843
3.47337
3.58714
3.69945
3.81024
3.91938
4.02643
4.13043
4.22987
4.32277
4.40709
4.48093
4.54288
4.59213
4.62842
4.65177
4.66214
4.65913
4.64186
4.60895
4.55877
4.49007
4.40253
4.29731
4.17728
4.04691
3.91178
3.77782
3.65037
3.5335
3.42952
3.3388
3.26014
3.1913
3.12974
3.07327
3.02054
2.97125
2.92602
2.88604
2.85267
2.82701
2.80958
2.80023
2.79817
2.80214
2.81069
2.82232
2.83579
2.8502
2.86499
2.87995
2.89511
2.91056
2.92629
2.94189
2.95645
2.96837
2.97554
2.97567
2.9667
2.94727
2.91712
2.87725
2.82986
2.77807
2.72544
2.67549
2.63117
2.59502
2.56922
2.55564
2.55591
2.57248
2.61105
2.68293
2.79699
2.93455
3.06068
3.13808
3.13921
3.05603
2.90325
2.71331
2.52425
2.3655
2.23719
2.12697
2.02816
1.93887
1.8582
1.78563
1.72086
1.66367
1.61326
1.56717
1.52117
1.47013
1.40882
1.33286
1.2393
1.12689
0.995883
0.847728
0.685322
0.510325
0.326212
0.131852
-0.191911
0
1.22022
3.75093
7.35412
11.2087
14.1523
15.1601
13.8245
10.5679
6.45542
2.71006
0.20278
-0.82286
-0.695048
-0.0327728
0.158474
0.310815
0.404974
0.457204
0.488341
0.509243
0.528871
0.552118
0.579571
0.61125
0.646784
0.685629
0.727259
0.771199
0.816984
0.864125
0.912326
0.961638
1.01266
1.06668
1.12568
1.19217
1.26884
1.35811
1.46169
1.58022
1.7132
1.85905
2.01556
2.18032
2.35104
2.52576
2.70274
2.88024
3.05627
3.2283
3.39325
3.54763
3.68769
3.80966
3.91085
3.98992
4.04677
4.08223
4.09776
4.09497
4.07515
4.03903
3.98674
3.91847
3.83435
3.73495
3.62191
3.49818
3.36797
3.23638
3.10939
2.99317
2.8929
2.81222
2.753
2.71531
2.69764
2.69715
2.71013
2.73243
2.75982
2.78837
2.81496
2.83734
2.85414
2.86499
2.87057
2.87246
2.87295
2.87456
2.87967
2.88998
2.90606
2.92756
2.95296
2.97978
3.00495
3.02508
3.03701
3.03879
3.02998
3.01192
2.98783
2.96246
2.94153
2.93073
2.9348
2.95631
2.99487
3.04936
3.1172
3.195
3.27889
3.36548
3.45093
3.52998
3.59506
3.63786
3.64961
3.62257
3.55263
3.44151
3.29762
3.13483
2.96926
2.81534
2.67893
2.5583
2.45274
2.36145
2.28286
2.21511
2.1564
2.1051
2.05977
2.01905
1.98164
1.94615
1.91109
1.8747
1.83495
1.78946
1.73405
1.64742
1.41665
1.03467
0.552749
0.0290638
0
0.952429
3.22657
6.71205
10.7203
14.1377
15.8618
15.3121
12.7209
9.01957
5.3834
2.70712
1.30409
0.947444
1.15035
1.26418
1.31149
1.34753
1.37369
1.39278
1.40837
1.42425
1.4438
1.46922
1.50163
1.54132
1.58769
1.63931
1.69421
1.74947
1.80202
1.84958
1.89127
1.92793
1.96197
1.99672
2.03555
2.08103
2.13416
2.19438
2.26083
2.33286
2.41012
2.49283
2.58164
2.67736
2.78053
2.89101
3.00784
3.12924
3.25294
3.37653
3.49788
3.61526
3.72707
3.83079
3.9222
3.99625
4.04684
4.06703
4.05136
3.99827
3.91126
3.79817
3.66884
3.53215
3.39405
3.25659
3.12013
2.98481
2.85111
2.72014
2.59374
2.47418
2.36401
2.26541
2.17936
2.10588
2.04424
1.99346
1.95281
1.92213
1.9019
1.89299
1.89604
1.91077
1.93626
1.97142
2.01265
2.05473
2.09268
2.12287
2.14377
2.15592
2.16134
2.16235
2.16049
2.15589
2.1472
2.13227
2.10917
2.0772
2.03762
1.99382
1.95088
1.91475
1.89057
1.88168
1.89003
1.91681
1.96197
2.02453
2.10296
2.19519
2.29887
2.41258
2.53488
2.66304
2.7914
2.90977
3.0058
3.06762
3.08545
3.05356
2.97186
2.84667
2.69012
2.51811
2.34724
2.1892
2.04692
1.91963
1.80685
1.70805
1.62169
1.54564
1.47754
1.41518
1.35669
1.30056
1.24563
1.19084
1.13505
1.07686
1.0144
0.944386
0.856814
0.71078
0.453265
0.101951
-0.300737
-0.507806
0
1.6728
4.67941
8.63921
12.6115
15.403
16.0899
14.4703
11.1713
7.33219
4.05608
1.95686
1.03644
0.891103
1.04707
1.10488
1.15964
1.20911
1.25219
1.2902
1.32482
1.35788
1.3914
1.42729
1.46698
1.51117
1.55961
1.61114
1.66399
1.7161
1.76572
1.81183
1.85446
1.89469
1.93454
1.97647
2.02305
2.0765
2.13843
2.20982
2.2911
2.38233
2.4832
2.59313
2.71116
2.83585
2.96526
3.09696
3.22817
3.35605
3.47795
3.59165
3.69539
3.78755
3.86611
3.92844
3.97212
3.9951
3.99519
3.97064
3.92087
3.84683
3.75111
3.63759
3.51087
3.37611
3.23808
3.10044
2.96628
2.83851
2.71976
2.61211
2.51707
2.43576
2.36797
2.311
2.26147
2.21623
2.17325
2.13211
2.09392
2.06069
2.03445
2.01625
2.00555
2.00118
2.00131
2.00393
2.00737
2.01062
2.01327
2.01527
2.01674
2.01762
2.01762
2.01605
2.01202
2.00446
1.99236
1.97489
1.95163
1.9227
1.88887
1.8516
1.81334
1.77757
1.74842
1.73013
1.72648
1.74027
1.77288
1.82404
1.89219
1.97546
2.06969
2.16675
2.25363
2.31728
2.34694
2.33672
2.2879
2.20987
2.11809
2.02932
1.95576
1.89887
1.85145
1.80825
1.76517
1.71936
1.66998
1.6182
1.56664
1.51825
1.47495
1.43706
1.40417
1.37487
1.34695
1.31789
1.28526
1.24716
1.20222
1.14974
1.08932
1.01959
0.933308
0.79557
0.531708
0.137006
-0.325504
-0.545355
0
1.77539
4.91958
9.03215
13.1643
16.1067
16.8835
15.2129
11.6723
7.44755
3.79204
1.49344
0.634241
0.7367
1.1316
1.15334
1.1721
1.18744
1.19984
1.21019
1.21967
1.2296
1.24113
1.25509
1.27179
1.29108
1.31218
1.33381
1.35457
1.37348
1.39034
1.40609
1.42277
1.44328
1.47091
1.50866
1.5584
1.62051
1.69443
1.77879
1.87161
1.97057
2.07342
2.17835
2.28421
2.39041
2.49659
2.60231
2.7066
2.80786
2.90393
2.99235
3.07082
3.13757
3.19161
3.23277
3.26154
3.2787
3.28503
3.28103
3.2667
3.2414
3.20408
3.15338
3.08802
3.00703
2.91022
2.79836
2.67343
2.5386
2.39805
2.25662
2.11923
1.99036
1.87354
1.77108
1.68407
1.6121
1.55393
1.50791
1.47248
1.44645
1.42896
1.41943
1.41771
1.42259
1.43162
1.4418
1.45014
1.45425
1.45286
1.44595
1.43459
1.42048
1.40555
1.39127
1.37858
1.36799
1.3596
1.35317
1.34817
1.34392
1.33953
1.33392
1.32585
1.3141
1.29773
1.2765
1.25105
1.22356
1.19903
1.18475
1.18879
1.21839
1.27825
1.36926
1.48906
1.63479
1.79346
1.94612
2.07482
2.16594
2.21142
2.20877
2.16047
2.07323
1.95707
1.82415
1.68712
1.55599
1.43567
1.32721
1.23066
1.1464
1.07421
1.01322
0.962069
0.919067
0.882424
0.850424
0.821564
0.794626
0.768518
0.742114
0.714073
0.68271
0.646066
0.601314
0.54114
0.465704
0.379494
0.00797901
0
0.897381
3.07157
6.45923
10.4104
13.8171
15.5308
14.8886
12.058
7.98087
3.93176
0.943765
-0.572521
-0.8358
-0.397079
0.182605
0.674583
1.02884
1.2176
1.33738
1.43409
1.51474
1.57879
1.62687
1.66081
1.68347
1.69846
1.70964
1.72063
1.73445
1.75327
1.77839
1.81092
1.85207
1.90344
1.96707
2.04513
2.13934
2.25035
2.37711
2.5165
2.66483
2.81823
2.97275
3.12479
3.27132
3.40997
3.53876
3.6559
3.76021
3.8514
3.92995
3.99721
4.05536
4.10706
4.1549
4.2006
4.2445
4.28473
4.31723
4.3367
4.33789
4.31664
4.27052
4.19883
4.10241
3.98328
3.84659
3.6975
3.5401
3.37807
3.2151
3.05488
2.90099
2.75683
2.62545
2.50937
2.41086
2.33205
2.2731
2.23147
2.20355
2.1856
2.17467
2.16936
2.17013
2.17896
2.19857
2.23115
2.27894
2.34492
2.4235
2.50099
2.56253
2.59696
2.60048
2.57788
2.54051
2.50205
2.47373
2.45904
2.45432
2.45563
2.46013
2.46516
2.46878
2.47026
2.47013
2.47011
2.47272
2.4807
2.49658
2.52221
2.55827
2.60462
2.65935
2.71805
2.77526
2.82525
2.86274
2.88352
2.88465
2.86463
2.82331
2.76235
2.68429
2.59231
2.4902
2.38203
2.27165
2.16229
2.05623
1.95526
1.86073
1.77374
1.69526
1.62625
1.56758
1.51992
1.48348
1.45782
1.44172
1.43284
1.42691
1.41783
1.39851
1.36158
1.27264
1.03269
0.662501
0.218841
-0.179577
0
1.14866
3.52384
6.99878
10.9359
14.2815
15.9423
15.2917
12.5147
8.55583
4.67415
1.86826
0.504745
0.324857
0.749351
0.883854
1.00183
1.1009
1.17931
1.24518
1.30287
1.3576
1.4143
1.47648
1.54621
1.62437
1.71071
1.80408
1.9027
2.00455
2.10756
2.20986
2.30987
2.40627
2.49798
2.58404
2.66356
2.73586
2.80066
2.85827
2.90986
2.95753
3.00421
3.05336
3.10847
3.17245
3.24702
3.33244
3.42734
3.5288
3.63271
3.73433
3.82883
3.91193
3.98027
4.03156
4.06442
4.07799
4.07198
4.04643
4.00146
3.93723
3.85403
3.75244
3.63348
3.49875
3.35056
3.19219
3.02752
2.86082
2.69663
2.5394
2.3929
2.26
2.14223
2.03917
1.94866
1.86781
1.79393
1.72537
1.66198
1.60534
1.55796
1.52244
1.50044
1.49444
1.5027
1.51884
1.53564
1.54753
1.55251
1.55274
1.55356
1.56129
1.58083
1.61244
1.65284
1.69854
1.74576
1.79069
1.83013
1.86196
1.88508
1.89916
1.9038
1.89905
1.88499
1.86183
1.83024
1.79178
1.74917
1.70633
1.66798
1.63911
1.62386
1.62564
1.64631
1.68591
1.74253
1.81239
1.89127
1.97208
2.04638
2.10645
2.14631
2.16236
2.15355
2.12096
2.06712
1.99535
1.90966
1.81475
1.71465
1.61284
1.51273
1.41755
1.33016
1.2527
1.18649
1.13181
1.08779
1.05254
1.02317
0.996056
0.96717
0.932369
0.887697
0.829658
0.754885
0.65664
0.524534
0.362178
0.17712
-0.0200336
0
0.706479
2.49366
5.49204
9.33821
13.1472
15.7918
16.3891
14.7291
11.3856
7.43829
3.97573
1.67029
0.628746
0.528477
0.885809
1.11312
1.30796
1.45052
1.53628
1.59793
1.64819
1.69168
1.73169
1.77096
1.81147
1.85443
1.90031
1.949
2.00006
2.05296
2.10733
2.16311
2.22062
2.28048
2.34348
2.41038
2.48179
2.55806
2.63922
2.7251
2.81541
2.90975
3.00774
3.10893
3.21272
3.31829
3.42451
3.53
3.63316
3.73244
3.82645
3.9141
3.99458
4.06699
4.12999
4.18174
4.22037
4.24378
4.24973
4.23642
4.20289
4.14934
4.07702
3.98804
3.88499
3.77135
3.65059
3.52553
3.39862
3.27227
3.14887
3.03068
2.91979
2.81799
2.72682
2.64737
2.5803
2.52577
2.48349
2.45262
2.43192
2.41984
2.4146
2.41432
2.41712
2.42101
2.42413
2.42487
2.42207
2.41528
2.40483
2.39188
2.37819
2.36574
2.35623
2.35103
2.35025
2.35186
2.35291
2.35071
2.34398
2.33352
2.32208
2.31344
2.31113
2.31698
2.33031
2.34888
2.36803
2.38173
2.38498
2.37549
2.35495
2.32939
2.30841
2.3033
2.32455
2.40154
2.55521
2.74979
2.93461
3.06509
3.117
3.08916
2.99726
2.86466
2.71537
2.57
2.4386
2.32194
2.21786
2.12373
2.03718
1.95619
1.8789
1.80376
1.72987
1.65719
1.5865
1.51915
1.45655
1.39975
1.34885
1.3022
1.25629
1.20611
1.14582
1.06175
0.910293
0.667414
0.352858
0
-0.106074
0.554259
2.40749
5.57625
9.65276
13.701
16.5534
17.2985
15.7091
12.362
8.36899
4.87064
2.57925
1.60191
1.57803
1.97665
2.07062
2.14542
2.18926
2.19897
2.18008
2.14403
2.10406
2.07146
2.05067
2.04217
2.04601
2.06269
2.09234
2.1345
2.18811
2.25145
2.32219
2.39773
2.47545
2.55299
2.62857
2.7011
2.77016
2.83593
2.89903
2.96031
3.02076
3.08142
3.14334
3.20758
3.2752
3.34718
3.42437
3.5073
3.59603
3.68995
3.78765
3.88695
3.98463
4.07676
4.1592
4.22809
4.28016
4.31287
4.32435
4.31318
4.27814
4.21814
4.13292
4.02306
3.89016
3.73729
3.56908
3.3916
3.21194
3.03745
2.87494
2.72987
2.60594
2.50501
2.42752
2.37242
2.3379
2.32172
2.32138
2.33421
2.35733
2.38783
2.42234
2.45639
2.48535
2.50554
2.51514
2.51474
2.50736
2.49767
2.49066
2.49065
2.4998
2.51511
2.5305
2.53933
2.53697
2.52258
2.4993
2.47299
2.45019
2.43538
2.42928
2.43095
2.43913
2.45188
2.46681
2.48156
2.49436
2.50442
2.5121
2.51898
2.52765
2.54127
2.56304
2.59565
2.6406
2.6982
2.76774
2.84746
2.93441
3.02258
3.10151
3.15965
3.18615
3.17306
3.11761
3.02341
2.89994
2.76018
2.61712
2.47968
2.3499
2.22748
2.11214
2.00297
1.89892
1.79928
1.7039
1.61333
1.52845
1.45006
1.37822
1.31177
1.24778
1.18092
1.10401
1.00923
0.889521
0.740065
0.559412
0.344091
0.101819
-0.355063
-0.56208
0
1.73187
4.72351
8.60026
12.4769
15.2057
15.8405
14.0911
10.5031
6.23513
2.53955
0.235298
-0.546535
-0.249062
0.430045
0.603298
0.734152
0.805082
0.818506
0.793614
0.756909
0.732357
0.729574
0.744742
0.774407
0.816501
0.869547
0.931009
0.998076
1.0683
1.13997
1.21222
1.2849
1.35819
1.43215
1.50637
1.57978
1.65087
1.71812
1.78055
1.83819
1.8921
1.94414
1.99641
2.0506
2.10751
2.16691
2.2275
2.28759
2.34571
2.40104
2.45344
2.50318
2.55019
2.59381
2.63233
2.6631
2.68277
2.68776
2.67446
2.63955
2.58007
2.49441
2.38389
2.25007
2.09433
1.9194
1.7293
1.52929
1.32501
1.12222
0.926416
0.742408
0.574012
0.42385
0.293299
0.182622
0.0912205
0.0179764
-0.0384033
-0.0791195
-0.105152
-0.117291
-0.116296
-0.102966
-0.0781925
-0.0435631
-0.00209808
0.0424213
0.0865246
0.12777
0.16526
0.199751
0.233299
0.268543
0.307859
0.352427
0.40189
0.454966
0.509845
0.564201
0.615463
0.661053
0.698848
0.72742
0.746293
0.756165
0.758259
0.755828
0.754226
0.759221
0.775939
0.80795
0.856771
0.921926
1.00147
1.09273
1.19286
1.29875
1.40812
1.51889
1.62773
1.72875
1.81468
1.87759
1.9104
1.90865
1.87172
1.80311
1.70964
1.59991
1.48268
1.36581
1.25392
1.15042
1.05892
0.982812
0.924851
0.887398
0.873324
0.883321
0.913065
0.954864
0.999322
1.03651
1.05709
1.05328
1.01956
0.953224
0.854741
0.720621
0.559621
0.16089
0
0.668098
2.58791
5.80317
9.77794
13.4654
15.6872
15.6647
13.4091
9.73062
5.84856
2.83074
1.17996
0.765353
1.06985
1.45048
1.68411
1.90328
2.10389
2.28095
2.43224
2.55728
2.65779
2.73796
92
244
395
546
697
847
996
1143
1293
1446
1598
1750
1900
2053
2206
2358
2507
2659
2811
2963
3115
3270
3423
3579
3732
0
0
0
0
0
0
0
0
0
0
0
0
0
0
0
0
0
0
0
0
0
0
0
0
0
0
0
0
0
0
0
0
0
0
0
0
0
0
0
0
0
0
0
0
0
0
0
0
0
0
0
0
0
0
0
0
0
0
0
0
0
0
0
0
0
0
0
0
0
0
0
0
0
0
0
0
0
0
0
0
0
0
0
0
0
0
0
0
0
0
0
0
0
0
0
0
0
0
0
0
0
0
0
0
0
0
0
0
0
0
0
0
0
0
0
0
0
0
0
0
0
0
0
0
0
0
0
0
0
0
0
0
0
0
0
0
0
0
0
0
0
0
0
0
0
0
0
0
0
0
0
0
0
0
0
0
0
0
0
0
0
0
0
0
0
0
0
0
0
0
0
0
0
0
0
0
0
0
0
0
0
0
0
0
0
0
0
0
0
0
0
0
0
0
0
0
0
0
0
0
0
0
0
0
0
0
0
0
0
0
0
0
0
0
0
0
0
0
0
0
0
0
0
0
0
0
0
0
0
0
0
0
0
0
0
0
0
0
0
0
0
0
0
0
0
0
0
0
0
0
0
0
0
0
0
0
0
0
0
0
0
0
0
0
0
0
0
0
0
0
0
0
0
0
0
0
0
0
0
0
0
0
0
0
0
0
0
0
0
0
0
0
0
0
0
0
0
0
0
0
0
0
0
0
0
0
0
0
0
0
0
0
0
0
0
0
0
0
0
0
0
0
0
0
0
0
0
0
0
0
0
0
0
0
0
0
0
0
0
0
0
0
0
0
0
0
0
0
0
0
0
0
0
0
0
0
0
0
0
0
0
0
0
0
0
0
0
0
0
0
0
0
0
0
0
0
0
0
0
0
0
0
0
0
0
0
0
0
0
0
0
0
0
0
0
0
0
0
0
0
0
0
0
0
0
0
0
0
0
0
0
0
0
0
0
0
0
0
0
0
0
0
0
0
0
0
0
0
0
0
0
0
0
0
0
0
0
0
0
0
0
0
0
0
0
0
0
0
0
0
0
0
0
0
0
0
0
0
0
0
0
0
0
0
0
0
0
0
0
0
0
0
0
0
0
0
0
0
0
0
0
0
0
0
0
0
0
0
0
0
0
0
0
0
0
0
0
0
0
0
0
0
0
0
0
0
0
0
0
0
0
0
0
0
0
0
0
0
0
0
0
0
0
0
0
0
0
0
0
0
0
0
0
0
0
0
0
0
0
0
0
0
0
0
0
0
0
0
0
0
0
0
0
0
0
0
0
0
0
0
0
0
0
0
0
0
0
0
0
0
0
0
0
0
0
0
0
0
0
0
0
0
0
0
0
0
0
0
0
0
0
0
0
0
0
0
0
0
0
0
0
0
0
0
0
0
0
0
0
0
0
0
0
0
0
0
0
0
0
0
0
0
0
0
0
0
0
0
0
0
0
0
0
0
0
0
0
0
0
0
0
0
0
0
0
0
0
0
0
0
0
0
0
0
0
0
0
0
0
0
0
0
0
0
0
0
0
0
0
0
0
0
0
0
0
0
0
0
0
0
0
0
0
0
0
0
0
0
0
0
0
0
0
0
0
0
0
0
0
0
0
0
0
0
0
0
0
0
0
0
0
0
0
0
0
0
0
0
0
0
0
0
0
0
0
0
0
0
0
0
0
0
0
0
0
0
0
0
0
0
0
0
0
0
0
0
0
0
0
0
0
0
0
0
0
0
0
0
0
0
0
0
0
0
0
0
0
0
0
0
0
0
0
0
0
0
0
0
0
0
0
0
0
0
0
0
0
0
0
0
0
0
0
0
0
0
0
0
0
0
0
0
0
0
0
0
0
0
0
0
0
0
0
0
0
0
0
0
0
0
0
0
0
0
0
0
0
0
0
0
0
0
0
0
0
0
0
0
0
0
0
0
0
0
0
0
0
0
0
0
0
0
0
0
0
0
0
0
0
0
0
0
0
0
0
0
0
0
0
0
0
0
0
0
0
0
0
0
0
0
0
0
0
0
0
0
0
0
0
0
0
0
0
0
0
0
0
0
0
0
0
0
0
0
0
0
0
0
0
0
0
0
0
0
0
0
0
0
0
0
0
0
0
0
0
0
0
0
0
0
0
0
0
0
0
0
0
0
0
0
0
0
0
0
0
0
0
0
0
0
0
0
0
0
0
0
0
0
0
0
0
0
0
0
0
0
0
0
0
0
0
0
0
0
0
0
0
0
0
0
0
0
0
0
0
0
0
0
0
0
0
0
0
0
0
0
0
0
0
0
0
0
0
0
0
0
0
0
0
0
0
0
0
0
0
0
0
0
0
0
0
0
0
0
0
0
0
0
0
0
0
0
0
0
0
0
0
0
0
0
0
0
0
0
0
0
0
0
0
0
0
0
0
0
0
0
0
0
0
0
0
0
0
0
0
0
0
0
0
0
0
0
0
0
0
0
0
0
0
0
0
0
0
0
0
0
0
0
0
0
0
0
0
0
0
0
0
0
0
0
0
0
0
0
0
0
0
0
0
0
0
0
0
0
0
0
0
0
0
0
0
0
0
0
0
0
0
0
0
0
0
0
0
0
0
0
0
0
0
0
0
0
0
0
0
0
0
0
0
0
0
0
0
0
0
0
0
0
0
0
0
0
0
0
0
0
0
0
0
0
0
0
0
0
0
0
0
0
0
0
0
0
0
0
0
0
0
0
0
0
0
0
0
0
0
0
0
0
0
0
0
0
0
0
0
0
0
0
0
0
0
0
0
0
0
0
0
0
0
0
0
0
0
0
0
0
0
0
0
0
0
0
0
0
0
0
0
0
0
0
0
0
0
0
0
0
0
0
0
0
0
0
0
0
0
0
0
0
0
0
0
0
0
0
0
0
0
0
0
0
0
0
0
0
0
0
0
0
0
0
0
0
0
0
0
0
0
0
0
0
0
0
0
0
0
0
0
0
0
0
0
0
0
0
0
0
0
0
0
0
0
0
0
0
0
0
0
0
0
0
0
0
0
0
0
0
0
0
0
0
0
0
0
0
0
0
0
0
0
0
0
0
0
0
0
0
0
0
0
0
0
0
0
0
0
0
0
0
0
0
0
0
0
0
0
0
0
0
0
0
0
0
0
0
0
0
0
0
0
0
0
0
0
0
0
0
0
0
0
0
0
0
0
0
0
0
0
0
0
0
0
0
0
0
0
0
0
0
0
0
0
0
0
0
0
0
0
0
0
0
0
0
0
0
0
0
0
0
0
0
0
0
0
0
0
0
0
0
0
0
0
0
0
0
0
0
0
0
0
0
0
0
0
0
0
0
0
0
0
0
0
0
0
0
0
0
0
0
0
0
0
0
0
0
0
0
0
0
0
0
0
0
0
0
0
0
0
0
0
0
0
0
0
0
0
0
0
0
0
0
0
0
0
0
0
0
0
0
0
0
0
0
0
0
0
0
0
0
0
0
0
0
0
0
0
0
0
0
0
0
0
0
0
0
0
0
0
0
0
0
0
0
0
0
0
0
0
0
0
0
0
0
0
0
0
0
0
0
0
0
0
0
0
0
0
0
0
0
0
0
0
0
0
0
0
0
0
0
0
0
0
0
0
0
0
0
0
0
0
0
0
0
0
0
0
0
0
0
0
0
0
0
0
0
0
0
0
0
0
0
0
0
0
0
0
0
0
0
0
0
0
0
0
0
0
0
0
0
0
0
0
0
0
0
0
0
0
0
0
0
0
0
0
0
0
0
0
0
0
0
0
0
0
0
0
0
0
0
0
0
0
0
0
0
0
0
0
0
0
0
0
0
0
0
0
0
0
0
0
0
0
0
0
0
0
0
0
0
0
0
0
0
0
0
0
0
0
0
0
0
0
0
0
0
0
0
0
0
0
0
0
0
0
0
0
0
0
0
0
0
0
0
0
0
0
0
0
0
0
0
0
0
0
0
0
0
0
0
0
0
0
0
0
0
0
0
0
0
0
0
0
0
0
0
0
0
0
0
0
0
0
0
0
0
0
0
0
0
0
0
0
0
0
0
0
0
0
0
0
0
0
0
0
0
0
0
0
0
0
0
0
0
0
0
0
0
0
0
0
0
0
0
0
0
0
0
0
0
0
0
0
0
0
0
0
0
0
0
0
0
0
0
0
0
0
0
0
0
0
0
0
0
0
0
0
0
0
0
0
0
0
0
0
0
0
0
0
0
0
0
0
0
0
0
0
0
0
0
0
0
0
0
0
0
0
0
0
0
0
0
0
0
0
0
0
0
0
0
0
0
0
0
0
0
0
0
0
0
0
0
0
0
0
0
0
0
0
0
0
0
0
0
0
0
0
0
0
0
0
0
0
0
0
0
0
0
0
0
0
0
0
0
0
0
0
0
0
0
0
0
0
0
0
0
0
0
0
0
0
0
0
0
0
0
0
0
0
0
0
0
0
0
0
0
0
0
0
0
0
0
0
0
0
0
0
0
0
0
0
0
0
0
0
0
0
0
0
0
0
0
0
0
0
0
0
0
0
0
0
0
0
0
0
0
0
0
0
0
0
0
0
0
0
0
0
0
0
0
0
0
0
0
0
0
0
0
0
0
0
0
0
0
0
0
0
0
0
0
0
0
0
0
0
0
0
0
0
0
0
0
0
0
0
0
0
0
0
0
0
0
0
0
0
0
0
0
0
0
0
0
0
0
0
0
0
0
0
0
0
0
0
0
0
0
0
0
0
0
0
0
0
0
0
0
0
0
0
0
0
0
0
0
0
0
0
0
0
0
0
0
0
0
0
0
0
0
0
0
0
0
0
0
0
0
0
0
0
0
0
0
0
0
0
0
0
0
0
0
0
0
0
0
0
0
0
0
0
0
0
0
0
0
0
0
0
0
0
0
0
0
0
0
0
0
0
0
0
0
0
0
0
0
0
0
0
0
0
0
0
0
0
0
0
0
0
0
0
0
0
0
0
0
0
0
0
0
0
0
0
0
0
0
0
0
0
0
0
0
0
0
0
0
0
0
0
0
0
0
0
0
0
0
0
0
0
0
0
0
0
0
0
0
0
0
0
0
0
0
0
0
0
0
0
0
0
0
0
0
0
0
0
0
0
0
0
0
0
0
0
0
0
0
0
0
0
0
0
0
0
0
0
0
0
0
0
0
0
0
0
0
0
0
0
0
0
0
0
0
0
0
0
0
0
0
0
0
0
0
0
0
0
0
0
0
0
0
0
0
0
0
0
0
0
0
0
0
0
0
0
0
0
0
0
0
0
0
0
0
0
0
0
0
0
0
0
0
0
0
0
0
0
0
0
0
0
0
0
0
0
0
0
0
0
0
0
0
0
0
0
0
0
0
0
0
0
0
0
0
0
0
0
0
0
0
0
0
0
0
0
0
0
0
0
0
0
0
0
0
0
0
0
0
0
0
0
0
0
0
0
0
0
0
0
0
0
0
0
0
0
0
0
0
0
0
0
0
0
0
0
0
0
0
0
0
0
0
0
0
0
0
0
0
0
0
0
0
0
0
0
0
0
0
0
0
0
0
0
0
0
0
0
0
0
0
0
0
0
0
0
0
0
0
0
0
0
0
0
0
0
0
0
0
0
0
0
0
0
0
0
0
0
0
0
0
0
0
0
0
0
0
0
0
0
0
0
0
0
0
0
0
0
0
0
0
0
0
0
0
0
0
0
0
0
0
0
0
0
0
0
0
0
0
0
0
0
0
0
0
0
0
0
0
0
0
0
0
0
0
0
0
0
0
0
0
0
0
0
0
0
0
0
0
0
0
0
0
0
0
0
0
0
0
0
0
0
0
0
0
0
0
0
0
0
0
0
0
0
0
0
0
0
0
0
0
0
0
0
0
0
0
0
0
0
0
0
0
0
0
0
0
0
0
0
0
0
0
0
0
0
0
0
0
0
0
0
0
0
0
0
0
0
0
0
0
0
0
0
0
0
0
0
0
0
0
0
0
0
0
0
0
0
0
0
0
0
0
0
0
0
0
0
0
0
0
0
0
0
0
0
0
0
0
0
0
0
0
0
0
0
0
0
0
0
0
0
0
0
0
0
0
0
0
0
0
0
0
0
0
0
0
0
0
0
0
0
0
0
0
0
0
0
0
0
0
0
0
0
0
0
0
0
0
0
0
0
0
0
0
0
0
0
0
0
0
0
0
0
0
0
0
0
0
0
0
0
0
0
0
0
0
0
0
0
0
0
0
0
0
0
0
0
0
0
0
0
0
0
0
0
0
0
0
0
0
0
0
0
0
0
0
0
0
0
0
0
0
0
0
0
0
0
0
0
0
0
0
0
0
0
0
0
0
0
0
0
0
0
0
0
0
0
0
0
0
0
0
0
0
0
0
0
0
0
0
0
0
0
0
0
0
0
0
0
0
0
0
0
0
0
0
0
0
0
0
0
0
0
0
0
0
0
0
0
0
0
0
0
0
0
0
0
0
0
0
0
0
0
0
0
0
0
0
0
0
0
0
0
0
0
0
0
0
0
0
0
0
0
0
0
0
0
0
0
0
0
0
0
0
0
0
0
0
0
0
0
0
0
0
0
0
0
0
0
0
0
0
0
0
0
0
0
0
0
0
0
0
0
0
0
0
0
0
0
0
0
0
0
0
0
0
0
0
0
0
0
0
0
0
0
0
0
0
0
0
0
0
0
0
0
0
0
0
0
0
0
0
0
0
0
0
0
0
0
0
0
0
0
0
0
0
0
0
0
0
0
0
0
0
0
0
0
0
0
0
0
0
0
0
0
0
0
0
0
0
0
0
0
0
0
0
0
0
0
0
0
0
0
0
0
0
0
0
0
0
0
0
0
0
0
0
0
0
0
0
0
0
0
0
0
0
0
0
0
0
0
0
0
0
0
0
0
0
0
0
0
0
0
0
0
0
0
0
0
0
0
0
0
0
0
0
0
0
0
0
0
0
0
0
0
0
0
0
0
0
0
0
0
0
0
0
0
0
0
0
0
0
0
0
0
0
0
0
0
0
0
0
0
0
0
0
0
0
0
0
0
0
0
0
0
0
0
0
0
0
0
0
0
0
0
0
0
0
0
0
0
0
0
0
0
0
0
0
0
0
0
0
0
0
0
0
0
0
0
0
0
0
0
0
0
0
0
0
0
0
0
0
0
0
0
0
0
0
0
0
0
0
0
0
0
0
0
0
0
0
0
0
0
0
0
0
0
0
0
0
0
0
0
0
0
0
0
0
0
0
0
0
0
0
0
0
0
0
0
0
0
0
0
0
0
0
0
0
0
0
0
0
0
0
0
0
0
0
0
0
0
0
0
0
0
0
0
0
0
0
0
0
0
0
0
0
0
0
0
0
0
0
0
0
0
0
0
0
0
0
0
0
0
0
0
0
0
0
0
0
0
0
0
0
0
0
0
0
0
0
0
0
0
0
0
0
0
0
0
0
0
0
0
0
0
0
0
0
0
0
0
0
0
0
0
0
0
0
0
0
0
0
0
0
0
0
0
0
0
0
0
0
0
0
0
0
0
0
0
0
0
0
0
0
0
0
0
0
0
0
0
0
0
0
0
0
0
0
0
0
0
0
0
0
0
0
0
0
0
0
0
0
0
0
0
0
0
0
0
0
0
0
0
0
0
0
0
0
0
0
0
0
0
0
0
0
0
0
0
0
0
0
0
0
0
0
0
0
0
0
0
0
0
0
0
0
0
0
0
0
0
0
0
0
0
0
0
0
0
0
0
0
0
0
0
0
0
0
0
0
0
0
0
0
0
0
0
0
0
0
0
0
0
0
0
0
0
0
0
0
0
0
0
0
0
0
0
0
0
0
0
0
0
0
0
0
0
0
0
0
0
0
0
0
0
0
0
0
0
0
0
0
0
0
0
0
0
0
0
0
0
0
0
0
0
0
0
0
0
0
0
0
0
0
0
0
0
0
0
0
0
0
0
0
0
0
0
0
0
0
0
0
0
0
0
0
0
0
0
0
0
0
0
0
0
0
0
0
0
0
0
0
0
0
0
0
0
0
0
0
0
0
0
0
0
0
0
0
0
0
0
0
0
0
0
0
0
0
0
0
0
0
0
0
0
0
0
0
0
0
0
0
0
0
0
0
0
0
0
0
0
0
0
0
0
0
0
0
0
0
0
0
0
0
0
0
0
0
0
0
0
0
0
0
0
0
0
0
0
0
0
0
0
0
0
0
0
0
0
0
0
0
0
0
0
0
0
0
0
0
0
0
0
0
0
0
0
0
0
0
0
0
0
0
0
0
0
0
0
0
0
0
0
0
0
0
0
0
0
0
0
0
0
0
0
0
0
0
0
0
0
0
0
0
0
0
0
0
0
0
0
0
0
0
0
0
0
0
0
0
0
0
0
0
0
0
0
0
0
0
0
0
0
0
0
0
0
0
0
0
0
0
0
0
0
0
0
0
0
0
0
0
0
0
0
0
0
0
0
0
0
0
0
0
