9.64647
9.71109
9.76647
9.81618
9.8648
9.91723
9.97796
10.0503
10.1356
10.2333
10.3407
10.4533
10.5644
10.6674
10.7563
10.8268
10.8767
10.9054
10.914
10.904
10.8775
10.8366
10.7827
10.7156
10.6345
10.538
10.4245
10.2931
10.1431
9.9749
9.79065
9.59402
9.38997
9.18418
8.98226
8.78907
8.60817
8.44163
8.29
8.15263
8.02798
7.91407
7.80883
7.71031
7.61684
7.527
7.43968
7.354
7.26942
7.18587
7.10387
7.02468
6.95019
6.88267
6.82531
6.78279
6.75656
6.74159
6.72996
6.71319
6.68476
6.6418
6.58528
6.51907
6.44824
6.37754
6.30944
6.24501
6.1848
6.1289
6.07694
6.02824
5.98197
5.93725
5.89318
5.84883
5.8031
5.75465
5.70193
5.64322
5.57693
5.50181
5.41728
5.3236
5.22186
5.11392
5.00215
4.88907
4.77715
4.66854
4.56492
4.46745
4.37675
4.29284
4.21536
4.14376
4.07748
4.01616
3.95966
3.90809
3.86157
3.81999
3.78282
3.74898
3.71681
3.68413
3.64863
3.60837
3.56233
3.51065
3.45477
3.39705
3.34019
3.28658
3.23788
3.19418
3.15393
3.11469
3.07396
3.03007
2.98275
2.9332
2.88377
2.83714
2.7954
2.75951
2.72946
2.704
2.68111
2.65847
2.63399
2.60616
2.57423
2.53825
2.49891
2.45753
2.4158
2.37568
2.33931
2.30881
2.28622
2.27426
2.27526
2.28676
2.3029
2.31645
2.32053
2.31004
2.2823
2.23695
2.17526
2.09947
2.01382
1.92223
1.82769
1.73284
1.64025
1.55213
1.47014
1.39536
1.32807
1.26776
1.21308
1.16207
1.11259
1.06255
1.01021
0.954206
0.893515
0.827305
0.7547
0.673411
0.577444
0.458997
0.319315
0.163509
0
0.159854
0.73317
1.699
2.8856
4.014
4.80568
5.08811
4.84752
4.21165
3.38357
2.56347
1.89083
1.4221
1.14188
1.03547
0.973877
0.920512
0.873401
0.833023
0.799515
0.772765
0.752528
0.738543
0.730595
0.728548
0.732342
0.741875
0.757038
0.777745
0.804019
0.835773
0.87291
0.915253
0.962454
1.01393
1.06882
1.12603
1.1843
1.24223
1.29843
1.35146
1.40006
1.44323
1.4804
1.5116
1.53755
1.55971
1.58011
1.60114
1.62522
1.65445
1.69034
1.73364
1.78438
1.84204
1.90586
1.97513
2.04948
2.12888
2.21355
2.30454
2.40362
2.51037
2.61547
2.70321
2.75599
2.75977
2.70897
2.60849
2.47161
2.31492
2.15222
1.99032
1.82995
1.67089
1.51286
1.35581
1.20028
1.04749
0.899146
0.757099
0.623019
0.498137
0.383192
0.278555
0.184469
0.101275
0.0295509
-0.0299076
-0.0761608
-0.10823
-0.125711
-0.128701
-0.117773
-0.0939419
-0.0586506
-0.0130302
0.0420662
0.102698
0.161406
0.210173
0.242346
0.254659
0.248419
0.229192
0.204984
0.183615
0.169648
0.162651
0.161556
0.164936
0.17095
0.177919
0.184726
0.190967
0.196874
0.203066
0.210233
0.21888
0.229273
0.241391
0.254965
0.269572
0.284744
0.300023
0.314956
0.329019
0.341487
0.351328
0.357198
0.357544
0.350868
0.336106
0.313033
0.282593
0.247019
0.209685
0.17465
0.146013
0.128312
0.126451
0.141617
0.168579
0.199319
0.22529
0.239738
0.239347
0.224746
0.199869
0.170474
0.142302
0.118736
0.100797
0.0883493
0.0807129
0.0765606
0.0742458
0.0721611
0.0690241
0.0640495
0.0570112
0.0482161
0.0384365
0.0287951
0.020673
0.0155931
0.0150682
0.0203995
0.0324996
0.0518151
0.0780594
0.109827
0.144641
0.17953
0.211488
0.237944
0.257149
0.268409
0.272151
0.269806
0.263588
0.256176
0.250194
0.247934
0.251206
0.261341
0.279101
0.304677
0.337732
0.377467
0.422736
0.472083
0.523487
0.574278
0.62138
0.661517
0.691473
0.708446
0.710437
0.696634
0.667696
0.625837
0.574794
0.51907
0.46325
0.411407
0.366181
0.328871
0.299516
0.276943
0.259163
0.2439
0.22913
0.213573
0.19701
0.180352
0.165425
0.15448
0.149969
0.154448
0.168207
0.185993
0.199816
0.201388
0.184835
0.148766
0.096949
0.0373086
0
0.501318
1.52457
2.90412
4.30606
5.37137
5.85855
5.71411
5.05887
4.12261
3.16371
2.39218
1.90757
1.67451
1.5292
1.37943
1.23979
1.11253
1.00273
0.913888
0.847931
0.804527
0.781648
0.776027
0.783687
0.800416
0.822317
0.845632
0.867021
0.88399
0.895075
0.899957
0.899452
0.895314
0.889876
0.885624
0.884716
0.888588
0.89851
0.915559
0.94031
0.97297
1.0133
1.06051
1.11359
1.17075
1.23005
1.28993
1.34971
1.40985
1.47194
1.53829
1.61142
1.69338
1.7849
1.88564
1.99463
2.1103
2.23075
2.35378
2.47607
2.59148
2.69307
2.77364
2.82711
2.85013
2.84286
2.80842
2.75101
2.67371
2.57736
2.46495
2.33892
2.20026
2.04987
1.88989
1.72391
1.55666
1.39359
1.24011
1.101
0.979814
0.879041
0.799708
0.740019
0.69592
0.662653
0.635756
0.611905
0.589357
0.567915
0.54844
0.532106
0.519582
0.510768
0.504421
0.498528
0.490888
0.479774
0.46449
0.445643
0.425104
0.405661
0.3905
0.382573
0.384048
0.395949
0.418033
0.448945
0.486569
0.528466
0.572246
0.615789
0.657377
0.695099
0.727137
0.751949
0.768359
0.775889
0.775053
0.767424
0.755417
0.741847
0.729432
0.720124
0.71497
0.714858
0.720283
0.731414
0.74811
0.769909
0.795947
0.824922
0.85511
0.884321
0.909957
0.929515
0.940881
0.94262
0.934203
0.916096
0.889712
0.85724
0.821413
0.785278
0.751748
0.723343
0.702436
0.691158
0.692269
0.709135
0.741108
0.780379
0.816906
0.841081
0.846403
0.831115
0.798217
0.753993
0.705742
0.659541
0.617986
0.581426
0.549787
0.523103
0.501654
0.486062
0.477346
0.476701
0.485396
0.505515
0.539215
0.584435
0.632856
0.674585
0.701046
0.707587
0.694743
0.667677
0.634134
0.601875
0.576307
0.55837
0.547432
0.543355
0.546244
0.556131
0.573017
0.596811
0.6272
0.663634
0.705466
0.751943
0.802277
0.855683
0.911371
0.968425
1.02522
1.07889
1.1257
1.16154
1.18264
1.18628
1.17135
1.1385
1.08991
1.02889
0.959727
0.88686
0.8137
0.742799
0.676088
0.614933
0.560175
0.512136
0.470706
0.435439
0.405606
0.380227
0.357999
0.337263
0.316054
0.292276
0.263992
0.229714
0.187938
0.139427
0.086319
0.0317322
0
0.470483
1.5128
3.01204
4.62575
5.92384
6.57516
6.47442
5.75193
4.68569
3.57963
2.66523
2.05039
1.71475
1.54603
1.39385
1.26341
1.14592
1.04729
0.972572
0.925148
0.906392
0.915717
0.96348
1.06291
1.19998
1.33878
1.44322
1.48651
1.45977
1.37481
1.25903
1.14512
1.06051
1.0103
0.982676
0.969578
0.967347
0.974349
0.989314
1.01132
1.03982
1.07447
1.11492
1.16055
1.21054
1.26367
1.31877
1.3751
1.43262
1.4921
1.55491
1.62256
1.69623
1.77637
1.86224
1.95258
2.0458
2.14034
2.23495
2.3289
2.42196
2.514
2.60428
2.68941
2.76211
2.81216
2.83009
2.81115
2.75668
2.67219
2.56354
2.43436
2.29003
2.13716
1.97922
1.81916
1.66045
1.50655
1.36008
1.22258
1.09436
0.97465
0.862079
0.755294
0.653463
0.556567
0.465408
0.381275
0.30566
0.239766
0.184235
0.138953
0.102738
0.0732464
0.0476715
0.0233501
-0.00169563
-0.0283836
-0.0564228
-0.0844509
-0.110393
-0.131948
-0.147222
-0.154794
-0.153974
-0.14477
-0.127731
-0.103768
-0.074078
-0.040147
-0.00351372
0.034058
0.0702709
0.102661
0.128938
0.147353
0.15701
0.158013
0.151418
0.139019
0.123038
0.105857
0.0895611
0.0758888
0.0662518
0.0616955
0.0628452
0.0698948
0.0826031
0.100251
0.121691
0.145331
0.169138
0.190861
0.208321
0.219657
0.223501
0.219104
0.206348
0.185697
0.158088
0.124798
0.0873569
0.0473736
0.00645409
-0.0338169
-0.0718472
-0.106033
-0.134963
-0.157452
-0.172652
-0.180146
-0.180022
-0.172881
-0.159802
-0.142273
-0.122142
-0.101376
-0.0822655
-0.0671246
-0.0577785
-0.0552113
-0.0592205
-0.0682423
-0.0794642
-0.0892757
-0.0939705
-0.0905298
-0.0775419
-0.0556175
-0.0265833
0.00731201
0.0434168
0.0787777
0.11003
0.133744
0.147724
0.150973
0.143995
0.128972
0.109664
0.0909142
0.0778463
0.0749348
0.0847916
0.107029
0.140586
0.1848
0.239677
0.306499
0.38424
0.462255
0.524378
0.553109
0.535558
0.46912
0.36373
0.239554
0.121382
0.0319405
-0.0255396
-0.0589256
-0.0723452
-0.0677614
-0.0486471
-0.019327
0.0157524
0.0526257
0.0883099
0.120682
0.147681
0.167497
0.17887
0.180544
0.171445
0.151043
0.119686
0.0787628
0.0306217
-0.0217127
-0.0748812
-0.125912
-0.172435
-0.212296
0
0.689934
1.75126
2.9928
4.11775
4.82617
4.93078
4.43528
3.53523
2.53355
1.70843
1.205
1.00513
0.952855
0.8625
0.771601
0.682576
0.597626
0.518608
0.446899
0.383598
0.328615
0.281569
0.242303
0.211295
0.189745
0.179257
0.181188
0.19592
0.222029
0.256241
0.294944
0.33429
0.370646
0.401162
0.424108
0.439126
0.447253
0.450618
0.452064
0.454718
0.46157
0.475122
0.497157
0.528678
0.569916
0.620709
0.680792
0.74994
0.828043
0.915022
1.01063
1.11426
1.22477
1.34047
1.4593
1.57893
1.69701
1.81126
1.91949
2.01957
2.10937
2.18674
2.2498
2.29702
2.3273
2.34005
2.33483
2.31074
2.26711
2.2038
2.12067
2.01795
1.89657
1.75852
1.60698
1.44613
1.28089
1.11636
0.957415
0.808837
0.674032
0.555189
0.453248
0.367995
0.298273
0.242284
0.19794
0.163191
0.136176
0.115197
0.0991642
0.0874992
0.0799183
0.0762604
0.0763622
0.0799629
0.0866314
0.0957092
0.106334
0.117529
0.128364
0.138132
0.146502
0.153578
0.159845
0.166003
0.172743
0.180537
0.189502
0.199391
0.209703
0.219856
0.229364
0.237942
0.245516
0.252124
0.257764
0.262251
0.265141
0.265754
0.263377
0.257496
0.248034
0.235501
0.221011
0.206125
0.192581
0.181971
0.17545
0.173531
0.176094
0.182525
0.191863
0.202991
0.21481
0.226363
0.236887
0.245813
0.252719
0.257252
0.259052
0.257638
0.252431
0.243001
0.229337
0.211998
0.192299
0.172302
0.154591
0.141779
0.135912
0.1379
0.14707
0.161401
0.178205
0.1945
0.207793
0.21669
0.221185
0.222565
0.222984
0.224827
0.230084
0.239784
0.253906
0.271626
0.291554
0.312
0.331277
0.347914
0.360698
0.368752
0.371823
0.370161
0.364494
0.355988
0.346127
0.336524
0.328766
0.32429
0.324365
0.330079
0.34276
0.363933
0.395261
0.440087
0.508017
0.61233
0.747909
0.884212
0.988084
1.03531
1.01633
0.935487
0.806889
0.65021
0.487992
0.34231
0.223112
0.128511
0.0530617
-0.00795288
-0.0573326
-0.0963493
-0.1259
-0.146236
-0.156993
-0.15753
-0.146454
-0.121267
-0.0837853
-0.0424835
-0.00823135
0.00845032
0
-0.0324394
-0.0912941
-0.171066
-0.264095
-0.362101
-0.457432
-0.22552
0.519912
1.67782
3.01827
4.20241
4.92722
5.05211
4.63731
3.88467
3.02923
2.24919
1.63475
1.20642
0.96096
0.912794
0.88627
0.867014
0.854017
0.847113
0.845821
0.849544
0.857732
0.870065
0.886504
0.907194
0.93232
0.961946
0.995805
1.03318
1.07287
1.11336
1.15294
1.18994
1.22301
1.25132
1.27469
1.29357
1.30903
1.32255
1.33584
1.35058
1.36818
1.38961
1.41529
1.44502
1.47804
1.51317
1.5491
1.58472
1.6195
1.65376
1.68884
1.72698
1.77113
1.82452
1.89014
1.97108
2.07673
2.2247
2.41504
2.61075
2.76977
2.85891
2.86411
2.79404
2.67591
2.54464
2.42827
2.33279
2.24241
2.14712
2.04228
1.92347
1.78802
1.63578
1.46923
1.29317
1.11416
0.939096
0.77468
0.626642
0.499113
0.395881
0.318842
0.265709
0.232646
0.215218
0.209194
0.211043
0.217995
0.227935
0.238755
0.248111
0.253749
0.253958
0.248082
0.236785
0.221876
0.205743
0.190628
0.177908
0.167896
0.160618
0.155982
0.153972
0.154821
0.159084
0.167551
0.181106
0.200469
0.226156
0.258445
0.29725
0.342169
0.39258
0.447225
0.503326
0.55639
0.601411
0.633973
0.651389
0.653581
0.643336
0.625791
0.607269
0.593804
0.589073
0.593448
0.605683
0.624361
0.647202
0.67067
0.690475
0.70284
0.705331
0.697521
0.681229
0.660198
0.639173
0.622581
0.614735
0.616006
0.621826
0.625292
0.62002
0.60266
0.573985
0.53826
0.501392
0.468957
0.44352
0.425315
0.415284
0.414291
0.422897
0.442764
0.47566
0.519822
0.568462
0.613123
0.645908
0.661755
0.659825
0.643411
0.618562
0.592089
0.569671
0.553955
0.545667
0.545313
0.553744
0.571748
0.600946
0.644554
0.703188
0.768422
0.828947
0.873975
0.897046
0.898359
0.884431
0.865199
0.850028
0.844227
0.845974
0.852387
0.861751
0.872414
0.883156
0.893412
0.903328
0.913647
0.925479
0.940034
0.958488
0.981754
1.01029
1.0439
1.0813
1.1195
1.15381
1.17894
1.19003
1.18369
1.15872
1.11646
1.06046
0.995681
0.927495
0.86048
0.797203
0.739056
0.686698
0.640098
0.598846
0.562467
0.530653
0.503353
0.480711
0.462859
0.449666
0.440466
0.433791
0.427334
0.418182
0.403156
0.378831
0.339565
0.278372
0.19725
0.101741
0
0.0773308
0.566289
1.52243
2.84778
4.27027
5.43423
6.0371
5.9459
5.24176
4.1772
3.0716
2.19174
1.66627
1.466
1.43255
1.3256
1.21881
1.11472
1.01623
0.926361
0.847842
0.782734
0.732039
0.695522
0.6717
0.658147
0.651924
0.650067
0.650024
0.649927
0.648685
0.645908
0.641705
0.636461
0.630626
0.624607
0.618725
0.613248
0.60845
0.604663
0.602337
0.60207
0.604647
0.611039
0.622365
0.639773
0.664257
0.696718
0.737926
0.787188
0.840907
0.894528
0.943822
0.986209
1.02166
1.05281
1.0841
1.12043
1.16553
1.21949
1.28074
1.34691
1.41446
1.47915
1.53655
1.58229
1.61223
1.62253
1.6097
1.57125
1.50573
1.41242
1.29193
1.14661
0.980878
0.800509
0.611701
0.420894
0.234258
0.0571138
-0.106545
-0.254361
-0.385696
-0.501348
-0.603488
-0.694955
-0.778515
-0.856197
-0.928825
-0.995906
-1.0559
-1.10636
-1.14414
-1.16797
-1.17849
-1.17774
-1.16855
-1.15382
-1.13608
-1.11733
-1.09932
-1.08375
-1.072
-1.06536
-1.06462
-1.06961
-1.0789
-1.08988
-1.09914
-1.1031
-1.09906
-1.08509
-1.06047
-1.02568
-0.982147
-0.931861
-0.87704
-0.819872
-0.762389
-0.706505
-0.653963
-0.606207
-0.56423
-0.528374
-0.4982
-0.472507
-0.449554
-0.427466
-0.404696
-0.380442
-0.354839
-0.32894
-0.304473
-0.283446
-0.267717
-0.258616
-0.256676
-0.261519
-0.271766
-0.285365
-0.29998
-0.313172
-0.322668
-0.326645
-0.32397
-0.314352
-0.298409
-0.277633
-0.254248
-0.231034
-0.211021
-0.197015
-0.191168
-0.194595
-0.207148
-0.227401
-0.252871
-0.28043
-0.306796
-0.329093
-0.345032
-0.353085
-0.352506
-0.343272
-0.325964
-0.301512
-0.271259
-0.237247
-0.201816
-0.167013
-0.134178
-0.10369
-0.0749867
-0.0469074
-0.0182693
0.0116392
0.0423426
0.0720211
0.0981392
0.118342
0.131312
0.137216
0.137582
0.134684
0.130747
0.127258
0.124764
0.123458
0.123457
0.125081
0.129025
0.136335
0.148203
0.165815
0.190262
0.221637
0.259565
0.303518
0.353131
0.408372
0.46944
0.536466
0.609126
0.68638
0.766367
0.846888
0.925616
1.00042
1.06955
1.13148
1.18476
1.22819
1.26054
1.28075
1.28812
1.28265
1.26525
1.23776
1.20271
1.16311
1.12172
1.08061
1.04127
1.00453
0.970795
0.940202
0.912912
0.889297
0.870002
0.855851
0.847605
0.845697
0.850011
0.859553
0.872134
0.884676
0.893583
0.894339
0.873504
0.782328
0.570744
0.297511
0.0280239
-0.203976
0
0.732981
1.99047
3.57579
5.13081
6.26293
6.69859
6.38508
5.492
4.31926
3.16946
2.24991
1.6383
1.30496
1.16556
1.06722
0.975602
0.890101
0.81319
0.746841
0.692684
0.651477
0.621963
0.602088
0.589651
0.582962
0.581279
0.584839
0.594467
0.611805
0.638416
0.671988
0.708538
0.743871
0.775258
0.802479
0.827632
0.853809
0.883331
0.916636
0.951876
0.986355
1.01846
1.04911
1.08188
1.12162
1.17224
1.23489
1.30548
1.37977
1.45456
1.52713
1.59593
1.66076
1.72269
1.78361
1.84577
1.91107
1.98096
2.05628
2.13733
2.22387
2.31455
2.40535
2.48972
2.5603
2.61013
2.63378
2.62803
2.59213
2.52745
2.43702
2.32493
2.19779
2.06119
1.91868
1.7725
1.62409
1.47427
1.3236
1.17265
1.02232
0.874021
0.729813
0.592263
0.464215
0.348422
0.247186
0.162054
0.0937988
0.0424416
0.00680313
-0.0152695
-0.0262787
-0.02873
-0.0248917
-0.0167191
-0.00593491
0.00585098
0.0167915
0.0248642
0.0281288
0.0250954
0.0151276
-0.00130386
-0.0226334
-0.0464996
-0.070256
-0.0916107
-0.109255
-0.122594
-0.131572
-0.136637
-0.138526
-0.13794
-0.1353
-0.13064
-0.123666
-0.113962
-0.100941
-0.0844193
-0.0658257
-0.0474655
-0.0318062
-0.0206505
-0.0145409
-0.0126305
-0.0130592
-0.0135925
-0.0122131
-0.00790863
-2.89917e-005
0.0120453
0.0287361
0.0502228
0.0763054
0.106729
0.140209
0.175048
0.209693
0.243191
0.275394
0.306791
0.338015
0.369299
0.400012
0.428738
0.453819
0.474023
0.489017
0.499348
0.505988
0.509693
0.510574
0.508201
0.501604
0.489928
0.472869
0.450909
0.425335
0.398063
0.371362
0.347491
0.328728
0.316922
0.313336
0.318449
0.331851
0.352273
0.377767
0.405968
0.434357
0.460585
0.482497
0.497993
0.505476
0.503934
0.493193
0.474131
0.448725
0.419862
0.390907
0.365112
0.344775
0.330993
0.324109
0.323264
0.326659
0.332144
0.337698
0.341824
0.343767
0.343513
0.341628
0.338956
0.336317
0.334252
0.332916
0.332156
0.331642
0.331094
0.330505
0.330332
0.331572
0.335732
0.344676
0.360303
0.384254
0.417686
0.460924
0.51366
0.57459
0.640784
0.708524
0.773716
0.831718
0.877566
0.907935
0.920596
0.914542
0.890099
0.848949
0.793947
0.728723
0.657139
0.582846
0.508854
0.437102
0.369211
0.306801
0.251435
0.204559
0.167328
0.140334
0.123411
0.115963
0.116452
0.120737
0.123096
0.118118
0.10204
0.0738297
0.035598
-0.00781937
0
0.414712
1.27999
2.47823
3.72759
4.68138
5.07036
4.81624
4.05351
3.05081
2.08377
1.33282
0.854168
0.617707
0.605916
0.604067
0.600945
0.595167
0.585772
0.572653
0.556368
0.537718
0.51705
0.494222
0.468354
0.438285
0.403308
0.363881
0.322014
0.281161
0.245654
0.219836
0.20607
0.206168
0.220223
0.246564
0.282761
0.324618
0.367151
0.406335
0.440102
0.468902
0.495597
0.524683
0.561002
0.608317
0.667625
0.737048
0.813782
0.8949
0.977506
1.05946
1.13984
1.21894
1.29799
1.37848
1.46158
1.54753
1.63553
1.72395
1.8105
1.8927
1.96824
2.03513
2.09119
2.13347
2.1591
2.16601
2.15201
2.1152
2.05452
1.97007
1.86325
1.73654
1.59306
1.43718
1.27331
1.1045
0.933586
0.763555
0.597521
0.438615
0.289778
0.153504
0.0315826
-0.0750938
-0.166607
-0.243956
-0.308891
-0.363621
-0.410483
-0.451582
-0.488412
-0.521655
-0.551092
-0.575743
-0.594133
-0.604762
-0.606664
-0.599841
-0.585429
-0.565588
-0.543097
-0.520826
-0.501087
-0.485166
-0.473485
-0.465904
-0.461713
-0.459831
-0.459035
-0.458141
-0.456137
-0.452248
-0.445947
-0.436975
-0.425327
-0.411231
-0.395086
-0.377395
-0.358664
-0.339296
-0.319544
-0.299533
-0.279346
-0.259161
-0.239391
-0.220775
-0.204211
-0.190517
-0.180123
-0.172858
-0.167928
-0.164111
-0.16008
-0.154769
-0.147667
-0.138842
-0.128628
-0.117471
-0.105821
-0.0940308
-0.082325
-0.0708519
-0.0597588
-0.0492874
-0.0398354
-0.0319649
-0.0263145
-0.0234932
-0.0239059
-0.0275993
-0.0341393
-0.0425858
-0.0515961
-0.0596375
-0.0653236
-0.0676346
-0.0659325
-0.0608727
-0.0547684
-0.0501854
-0.048806
-0.0504875
-0.0529678
-0.0524445
-0.0448715
-0.0274834
-0.000230408
0.034436
0.0730209
0.111611
0.147009
0.1774
0.202322
0.221976
0.235667
0.242329
0.239799
0.225764
0.199224
0.161735
0.117802
0.0741981
0.0384056
0.0165833
0.0100082
0.0190506
0.0427925
0.0790131
0.124949
0.177652
0.234669
0.29456
0.356326
0.418983
0.480885
0.538866
0.588641
0.625593
0.645894
0.647762
0.632281
0.60341
0.567043
0.529427
0.495449
0.466747
0.442297
0.420407
0.399229
0.376974
0.352403
0.325064
0.295251
0.263728
0.231338
0.19867
0.165904
0.132909
0.0995018
0.0657753
0.0323967
0.00078125
-0.0270699
-0.0489441
-0.062915
0
0.479005
1.31582
2.49486
3.82936
4.98358
5.60506
5.49854
4.73127
3.59962
2.47725
1.6412
1.17666
0.997371
0.922507
0.844621
0.770873
0.703507
0.645334
0.598316
0.563291
0.54005
0.527283
0.52251
0.522488
0.523962
0.524435
0.522623
0.518602
0.513613
0.509584
0.508456
0.51152
0.518971
0.529984
0.542348
0.553487
0.561317
0.564942
0.564966
0.563318
0.56273
0.56606
0.575381
0.591575
0.615144
0.646443
0.685593
0.732584
0.787345
0.849754
0.919569
0.996363
1.07947
1.16796
1.26072
1.35647
1.45384
1.55138
1.64743
1.73986
1.82562
1.90139
1.9638
2.00963
2.03618
2.04157
2.02481
1.98582
1.9252
1.84421
1.74563
1.63255
1.5077
1.37356
1.23246
1.08658
0.937755
0.787452
0.637057
0.488045
0.342115
0.201212
0.0674286
-0.0572021
-0.170932
-0.272458
-0.360996
-0.436237
-0.498265
-0.547556
-0.584837
-0.610979
-0.627319
-0.635891
-0.639446
-0.641168
-0.64397
-0.649894
-0.659663
-0.672478
-0.68614
-0.697523
-0.703299
-0.700792
-0.68765
-0.662003
-0.628251
-0.595898
-0.574622
-0.570585
-0.58382
-0.607906
-0.632251
-0.646152
-0.642893
-0.62443
-0.597552
-0.567081
-0.536902
-0.510297
-0.489512
-0.475736
-0.469334
-0.470299
-0.478251
-0.49259
-0.512336
-0.535914
-0.561054
-0.584919
-0.60451
-0.617258
-0.621809
-0.618077
-0.607278
-0.591971
-0.575441
-0.561011
-0.55143
-0.548446
-0.552649
-0.56355
-0.579826
-0.59964
-0.620897
-0.641716
-0.660538
-0.676234
-0.688221
-0.696509
-0.701672
-0.704684
-0.706741
-0.709037
-0.712551
-0.717912
-0.725316
-0.734552
-0.745082
-0.756181
-0.767077
-0.777075
-0.785594
-0.792199
-0.796555
-0.798297
-0.796951
-0.791913
-0.782553
-0.768406
-0.749398
-0.726041
-0.699562
-0.671691
-0.644671
-0.62118
-0.603772
-0.594209
-0.593201
-0.600192
-0.613324
-0.629636
-0.645486
-0.657116
-0.661261
-0.656101
-0.641449
-0.617835
-0.586194
-0.547971
-0.504972
-0.459108
-0.412158
-0.365542
-0.320137
-0.276146
-0.233075
-0.189836
-0.144975
-0.0969212
-0.043972
0.0153793
0.080373
0.144506
0.197306
0.228065
0.229253
0.199154
0.142744
0.0704174
-0.00494347
-0.0713837
-0.122393
-0.158706
-0.18252
-0.194935
-0.196458
-0.187702
-0.169075
-0.141541
-0.107975
-0.0734097
-0.0438473
-0.0251682
-0.0221741
-0.0377716
-0.0725277
-0.12471
-0.190811
-0.266418
-0.347128
-0.430942
0
0.894704
2.17073
3.57384
4.76907
5.45838
5.48416
4.88149
3.86425
2.74744
1.82787
1.27176
1.06333
1.03455
0.952946
0.877769
0.810838
0.755887
0.715242
0.689416
0.677103
0.675673
0.68199
0.69329
0.707505
0.723576
0.741198
0.760162
0.780075
0.800223
0.819753
0.838062
0.855178
0.871973
0.890077
0.911484
0.938011
0.970787
1.00972
1.05399
1.10245
1.15394
1.20763
1.26324
1.32111
1.3819
1.44642
1.51528
1.58879
1.66703
1.75
1.83773
1.93031
2.02788
2.13054
2.23817
2.35043
2.46662
2.58579
2.7068
2.82804
2.94597
3.05436
3.14584
3.21219
3.24574
3.24093
3.19544
3.11086
2.99281
2.85052
2.69559
2.53986
2.39122
2.25263
2.12348
2.00273
1.88966
1.78315
1.68201
1.5852
1.49191
1.40158
1.31388
1.22872
1.14627
1.06705
0.991932
0.922269
0.859933
0.807226
0.765954
0.73735
0.72163
0.719093
0.728843
0.74496
0.760695
0.770254
0.770361
0.760989
0.744975
0.726746
0.710738
0.699997
0.69478
0.694677
0.699393
0.708301
0.720585
0.735293
0.751359
0.767661
0.783159
0.797008
0.808697
0.818119
0.825541
0.831489
0.836558
0.841243
0.845819
0.850323
0.85461
0.858467
0.861711
0.864258
0.866129
0.867425
0.868311
0.869037
0.869975
0.871664
0.874806
0.880156
0.888325
0.899523
0.913472
0.929076
0.944244
0.956561
0.963955
0.965316
0.960839
0.951964
0.940893
0.92983
0.920194
0.912191
0.904163
0.892905
0.875061
0.848594
0.813917
0.774204
0.734698
0.701245
0.678579
0.668012
0.667691
0.675822
0.68972
0.706533
0.723788
0.739754
0.753075
0.762511
0.767491
0.76788
0.764279
0.758398
0.75318
0.752476
0.760203
0.779248
0.810449
0.853675
0.903925
0.953495
0.99445
1.02061
1.02897
1.02024
0.998494
0.970106
0.942194
0.920737
0.908896
0.906728
0.912742
0.923928
0.93658
0.947557
0.955348
0.960666
0.966372
0.976734
0.996206
1.02806
1.07437
1.1367
1.20673
1.27097
1.31606
1.33276
1.31831
1.27659
1.21601
1.14643
1.07627
1.01009
0.948689
0.892027
0.840164
0.793262
0.751567
0.715446
0.685342
0.661648
0.644533
0.633743
0.628435
0.627063
0.626926
0.623386
0.610656
0.582687
0.53418
0.455864
0.338409
0.188415
0.0181895
-0.156688
0
0.684931
1.81792
3.26423
4.76896
6.00406
6.66572
6.59107
5.83309
4.6447
3.37291
2.31828
1.63285
1.29874
1.18819
1.12627
1.07283
1.02652
0.989817
0.965305
0.95523
0.958007
0.967744
0.977571
0.981568
0.97632
0.961475
0.939134
0.912434
0.884077
0.855556
0.827317
0.799657
0.773338
0.749983
0.731911
0.721689
0.721405
0.732022
0.753045
0.782633
0.818097
0.856595
0.895752
0.934283
0.971762
1.00846
1.04519
1.08302
1.1231
1.16652
1.21422
1.26698
1.32543
1.38996
1.46058
1.5367
1.61709
1.6999
1.78216
1.86063
1.9325
1.99604
2.0508
2.09739
2.13689
2.16895
2.19138
2.2003
2.18968
2.1529
2.08479
1.98338
1.85058
1.69178
1.5145
1.32719
1.13739
0.949494
0.766757
0.591783
0.426628
0.272893
0.131729
0.00380583
-0.110732
-0.212251
-0.301547
-0.379694
-0.447877
-0.507263
-0.558929
-0.603848
-0.642947
-0.677112
-0.707167
-0.733814
-0.757563
-0.77869
-0.797248
-0.813147
-0.826284
-0.83669
-0.844595
-0.850463
-0.85496
-0.85877
-0.862393
-0.865975
-0.869178
-0.871179
-0.870765
-0.866537
-0.857149
-0.841573
-0.819339
-0.790722
-0.756526
-0.71841
-0.679662
-0.643943
-0.614563
-0.593832
-0.582644
-0.580467
-0.585669
-0.59607
-0.609468
-0.623863
-0.637937
-0.650748
-0.661547
-0.669754
-0.674973
-0.676983
-0.675893
-0.672137
-0.666361
-0.659309
-0.651727
-0.644316
-0.637756
-0.632762
-0.630145
-0.630795
-0.635627
-0.645419
-0.66061
-0.681099
-0.706103
-0.734102
-0.762907
-0.78993
-0.812514
-0.828382
-0.836085
-0.834879
-0.825295
-0.809625
-0.790866
-0.771932
-0.75496
-0.740881
-0.729372
-0.719171
-0.708632
-0.696309
-0.681549
-0.664534
-0.645986
-0.627037
-0.609073
-0.593484
-0.581485
-0.574016
-0.57171
-0.574907
-0.583676
-0.5978
-0.616741
-0.639806
-0.665607
-0.69156
-0.71405
-0.729199
-0.733567
-0.724891
-0.702627
-0.668116
-0.624309
-0.575154
-0.524827
-0.476963
-0.433901
-0.396848
-0.366892
-0.344696
-0.330426
-0.323652
-0.3232
-0.327044
-0.332372
-0.335479
-0.332376
-0.319432
-0.29402
-0.255045
-0.202501
-0.137622
-0.0653181
0.0075098
0.0737574
0.12694
0.162386
0.177569
0.172262
0.148432
0.109899
0.0617434
0.00948429
-0.0418253
-0.0884804
-0.129076
-0.163789
-0.192794
-0.216363
-0.234948
-0.249099
-0.259438
-0.266764
-0.272076
-0.276524
-0.281288
-0.287401
-0.295571
-0.306056
-0.31866
-0.332774
-0.347577
-0.362265
-0.374038
0
0.804814
2.01817
3.43287
4.69841
5.46208
5.53172
4.9627
4.01446
3.00736
2.17327
1.58753
1.20417
0.950372
0.853608
0.775436
0.704121
0.639199
0.581522
0.531865
0.490961
0.459434
0.437693
0.425834
0.42349
0.429462
0.441215
0.45541
0.46923
0.481222
0.491819
0.503349
0.519438
0.543972
0.57993
0.627989
0.685963
0.751087
0.82014
0.889454
0.955309
1.0142
1.06351
1.10179
1.12866
1.14489
1.15235
1.15396
1.15352
1.15537
1.16396
1.18296
1.2147
1.26064
1.32102
1.39478
1.47975
1.57314
1.67198
1.77364
1.8762
1.97836
2.07903
2.17664
2.26803
2.34801
2.40918
2.44356
2.44464
2.40879
2.3357
2.22786
2.08975
1.9279
1.75167
1.56887
1.38511
1.20446
1.03041
0.865783
0.71256
0.571817
0.443874
0.328539
0.225397
0.134046
0.0543245
-0.0138336
-0.0703892
-0.115304
-0.148689
-0.170956
-0.182464
-0.183439
-0.175815
-0.16401
-0.153172
-0.148358
-0.15355
-0.170798
-0.199727
-0.23756
-0.279653
-0.320446
-0.355287
-0.381313
-0.396796
-0.400166
-0.391995
-0.375583
-0.355194
-0.334568
-0.315805
-0.298786
-0.281338
-0.26012
-0.231959
-0.195192
-0.149595
-0.0990459
-0.0494644
-0.00704231
0.0235638
0.0404392
0.044688
0.0398529
0.0308456
0.0227283
0.0188633
0.0210316
0.0305347
0.047823
0.0716789
0.0989922
0.124683
0.142728
0.14755
0.135255
0.104705
0.0581635
0.00127602
-0.0577099
-0.109408
-0.145166
-0.148506
-0.101465
-0.0228634
0.0556267
0.101747
0.0949661
0.0340393
-0.0633392
-0.168596
-0.254077
-0.302974
-0.326273
-0.33466
-0.331677
-0.318515
-0.29615
-0.265448
-0.227058
-0.181682
-0.130067
-0.0740112
-0.0174564
0.0344166
0.0764473
0.104536
0.116513
0.112597
0.0953396
0.0690926
0.0391659
0.0107792
-0.0124645
-0.02868
-0.0371655
-0.0374836
-0.030254
-0.0169479
0.000931168
0.0223114
0.0468163
0.0747295
0.106717
0.143429
0.185172
0.231604
0.282023
0.335852
0.392595
0.451892
0.51337
0.576405
0.639765
0.700892
0.75627
0.802029
0.834742
0.852122
0.853394
0.839261
0.811583
0.772985
0.726967
0.677157
0.626714
0.578538
0.53535
0.499393
0.472731
0.456807
0.450547
0.451133
0.455055
0.458949
0.460212
0.457208
0.449019
0.434957
0.414138
0.386026
0.350063
0.304669
0.248524
0.183929
0.114824
0.0459038
0
0.395732
1.15982
2.24374
3.46562
4.53601
5.15516
5.14048
4.51531
3.50548
2.4421
1.62179
1.19403
1.12798
1.22202
1.25945
1.28861
1.30952
1.32259
1.32959
1.3333
1.33702
1.34375
1.35539
1.37267
1.3954
1.42267
1.45291
1.48439
1.51559
1.54546
1.57351
1.59962
1.62374
1.64561
1.66464
1.68002
1.69098
1.69733
1.69988
1.70078
1.70338
1.71186
1.73047
1.76248
1.80929
1.8716
1.94884
2.03943
2.14132
2.25231
2.37025
2.49359
2.62079
2.75005
2.87905
3.00435
3.12183
3.22776
3.31958
3.39677
3.46112
3.5166
3.5684
3.62214
3.68515
3.75957
3.83579
3.89826
3.93134
3.92427
3.87358
3.78228
3.65739
3.50725
3.34153
3.16976
2.9981
2.83042
2.66987
2.51942
2.38147
2.25746
2.1478
2.05193
1.96856
1.89608
1.83292
1.77791
1.73039
1.69023
1.65752
1.63235
1.61453
1.60353
1.59813
1.59622
1.59552
1.59429
1.59195
1.58939
1.58897
1.5941
1.60848
1.63513
1.67478
1.72679
1.79086
1.86297
1.93486
1.99812
2.04615
2.07554
2.08637
2.08156
2.0654
2.04202
2.01439
1.98435
1.95256
1.91925
1.88478
1.84982
1.81515
1.78151
1.74911
1.71746
1.68537
1.65091
1.61164
1.56501
1.5087
1.44107
1.36146
1.27037
1.1695
1.06159
0.949998
0.838248
0.729462
0.625872
0.528565
0.437225
0.350226
0.265235
0.179874
0.0923656
0.00197639
-0.0908413
-0.184639
-0.277395
-0.367084
-0.452067
-0.531173
-0.603743
-0.669385
-0.727614
-0.77794
-0.819959
-0.85324
-0.877533
-0.892972
-0.900189
-0.900305
-0.894802
-0.885334
-0.873594
-0.861123
-0.849202
-0.8389
-0.831027
-0.826074
-0.824141
-0.824881
-0.827482
-0.83072
-0.833072
-0.832878
-0.828562
-0.818823
-0.802749
-0.779897
-0.750383
-0.714946
-0.674916
-0.632037
-0.588402
-0.546122
-0.506821
-0.47126
-0.439112
-0.409005
-0.37883
-0.346307
-0.308931
-0.264268
-0.214955
-0.169008
-0.136201
-0.1245
-0.137054
-0.170999
-0.218464
-0.269232
-0.313932
-0.348448
-0.373882
-0.391933
-0.403952
-0.412414
-0.419769
-0.427802
-0.437189
-0.447403
-0.456942
-0.46385
-0.466339
-0.463295
-0.454882
-0.44188
-0.425055
-0.405133
-0.382482
-0.356921
-0.327702
-0.293636
-0.25298
0
0.635783
1.6063
2.80469
3.99253
4.87054
5.19902
4.90533
4.11591
3.09424
2.12199
1.38989
0.952406
0.760469
0.802704
0.865374
0.930717
0.996422
1.06044
1.12077
1.17592
1.22484
1.26702
1.30242
1.33135
1.35412
1.37131
1.38381
1.39282
1.39993
1.40706
1.4163
1.42947
1.44771
1.47111
1.49857
1.52817
1.55771
1.5852
1.60951
1.63084
1.65085
1.6725
1.69958
1.736
1.78516
1.84934
1.92917
2.02395
2.13202
2.25107
2.37857
2.51213
2.64974
2.78972
2.93066
3.07122
3.21004
3.34578
3.47722
3.60344
3.72389
3.83828
3.94607
4.04474
4.13054
4.1996
4.24709
4.26842
4.26045
4.22193
4.15322
4.05548
3.92989
3.77934
3.60858
3.42138
3.22123
3.01246
2.80054
2.59129
2.39024
2.20227
2.03097
1.8784
1.74509
1.63035
1.53234
1.44873
1.37712
1.31531
1.26145
1.21414
1.17238
1.13545
1.10279
1.07391
1.04832
1.02551
1.00493
0.986147
0.968946
0.953431
0.940013
0.929301
0.921905
0.918189
0.918127
0.921083
0.925659
0.929237
0.927608
0.916615
0.893058
0.855716
0.806005
0.747887
0.686904
0.628561
0.576662
0.531978
0.492004
0.454225
0.416433
0.376886
0.334715
0.290049
0.243888
0.197827
0.153675
0.113141
0.0778507
0.0491713
0.0280466
0.0148376
0.00942669
0.0111032
0.0178654
0.025754
0.0290915
0.0221521
0.000357056
-0.0387484
-0.0949415
-0.165374
-0.245231
-0.328802
-0.410616
-0.486555
-0.554801
-0.614845
-0.666004
-0.7076
-0.739324
-0.761409
-0.774613
-0.779747
-0.780244
-0.781552
-0.788997
-0.806334
-0.834623
-0.871865
-0.913529
-0.953768
-0.986889
-1.00941
-1.02113
-1.02278
-1.01547
-1.00112
-0.982304
-0.962023
-0.943453
-0.929334
-0.921502
-0.920543
-0.925645
-0.934685
-0.944577
-0.951823
-0.953143
-0.946156
-0.929875
-0.904664
-0.871996
-0.834172
-0.793872
-0.753917
-0.716393
-0.681964
-0.649581
-0.616619
-0.579436
-0.534293
-0.478391
-0.410748
-0.332624
-0.24736
-0.1594
-0.0733154
0.00724258
0.0802181
0.145247
0.203182
0.255179
0.301169
0.33995
0.369172
0.385636
0.386761
0.371983
0.343551
0.30642
0.267284
0.233025
0.209076
0.20272
0.212998
0.22814
0.23329
0.216631
0.174537
0.11374
0.0494782
0
-0.0353157
-0.0422363
-0.0331451
-0.0176727
-0.00513153
-0.003125
-0.0152519
-0.0399948
-0.0712372
-0.0215454
0.595493
1.7855
3.347
4.89736
6.01841
6.42599
6.07714
5.16417
4.00495
2.89718
2.01789
1.40819
1.02614
0.859746
0.838592
0.826781
0.821154
0.820972
0.825259
0.833003
0.843166
0.854874
0.867423
0.880141
0.892252
0.902845
0.91094
0.915598
0.916087
0.912022
0.903474
0.891
0.875613
0.858685
0.841817
0.8267
0.814971
0.808083
0.807207
0.813163
0.8264
0.847031
0.874923
0.909808
0.951403
0.99949
1.05393
1.11463
1.18143
1.25402
1.33181
1.41387
1.49888
1.58514
1.67061
1.75309
1.83022
1.90001
1.96129
2.0139
2.05898
2.09884
2.13665
2.17595
2.22127
2.27821
2.3465
2.4144
2.46563
2.48473
2.46135
2.39222
2.28046
2.13361
1.96151
1.77521
1.5864
1.40228
1.22651
1.06118
0.908046
0.768536
0.643359
0.532713
0.436499
0.35443
0.28619
0.233129
0.196616
0.173005
0.155723
0.138481
0.117683
0.0942024
0.0735161
0.06381
0.0727264
0.104075
0.152589
0.210241
0.271093
0.328844
0.377905
0.414288
0.436128
0.443748
0.439402
0.426771
0.410378
0.394875
0.384454
0.382394
0.390596
0.409431
0.438027
0.47459
0.516609
0.561229
0.605662
0.647526
0.685076
0.717284
0.743773
0.764651
0.780282
0.790918
0.796826
0.798369
0.795932
0.790072
0.781639
0.771771
0.761752
0.752722
0.745352
0.739622
0.734532
0.727799
0.716394
0.697317
0.668366
0.628711
0.579089
0.521609
0.459256
0.395317
0.332938
0.274453
0.222198
0.178579
0.145718
0.125329
0.118331
0.124435
0.141886
0.167502
0.197059
0.225909
0.249792
0.265514
0.271371
0.267174
0.25395
0.233409
0.207388
0.177502
0.145018
0.110598
0.0746429
0.0374649
-0.000615692
-0.0392357
-0.0779877
-0.116413
-0.153979
-0.189994
-0.223534
-0.253417
-0.278218
-0.296375
-0.30637
-0.306978
-0.297534
-0.278191
-0.250098
-0.214886
-0.175475
-0.136119
-0.100978
-0.0731644
-0.0540604
-0.043045
-0.0377609
-0.0347839
-0.0305099
-0.0219269
-0.00748291
0.0131363
0.0398773
0.0726013
0.111003
0.154659
0.202911
0.254736
0.308623
0.36256
0.414113
0.460854
0.500708
0.532234
0.55468
0.567847
0.571379
0.564893
0.548351
0.521663
0.484996
0.43914
0.385738
0.327271
0.266698
0.206926
0.150081
0.0969315
0.0473099
0
-0.0471939
-0.0972595
-0.153597
-0.220268
-0.305824
-0.422199
-0.568011
-0.736806
-0.922289
-0.827344
-0.27283
0.74463
2.04563
3.30931
4.18805
4.4432
4.03785
3.14152
2.04447
1.02694
0.252222
-0.264679
-0.608136
-0.837781
-1.01662
-1.18346
-1.33841
-1.47753
-1.59727
-1.69565
-1.77178
-1.82598
-1.85995
-1.87667
-1.88028
-1.87525
-1.86686
-1.86005
-1.85874
-1.86535
-1.88063
-1.90371
-1.93241
-1.96367
-1.99414
-2.02082
-2.0416
-2.05513
-2.06078
-2.0586
-2.04919
-2.03365
-2.01332
-1.98965
-1.96395
-1.93727
-1.91034
-1.88358
-1.85719
-1.83131
-1.80628
-1.78283
-1.76243
-1.74725
-1.7396
-1.74162
-1.75464
-1.77888
-1.8133
-1.85592
-1.90444
-1.95694
-2.01252
-2.07139
-2.13482
-2.20492
-2.28447
-2.37636
-2.48332
-2.60751
-2.75024
-2.9119
-3.09186
-3.28847
-3.49915
-3.7205
-3.94852
-4.17882
-4.40687
-4.62823
-4.83879
-5.03507
-5.21437
-5.37507
186
414
643
868
1090
1322
1566
1810
2037
2270
2503
2744
2973
3200
3435
3671
3599
2913
3088
3263
3431
3601
3560
3712
0
0
0
0
0
0
0
0
0
0
0
0
0
0
0
0
0
0
0
0
0
0
0
0
0
0
0
0
0
0
0
0
0
0
0
0
0
0
0
0
0
0
0
0
0
0
0
0
0
0
0
0
0
0
0
0
0
0
0
0
0
0
0
0
0
0
0
0
0
0
0
0
0
0
0
0
0
0
0
0
0
0
0
0
0
0
0
0
0
0
0
0
0
0
0
0
0
0
0
0
0
0
0
0
0
0
0
0
0
0
0
0
0
0
0
0
0
0
0
0
0
0
0
0
0
0
0
0
0
0
0
0
0
0
0
0
0
0
0
0
0
0
0
0
0
0
0
0
0
0
0
0
0
0
0
0
0
0
0
0
0
0
0
0
0
0
0
0
0
0
0
0
0
0
0
0
0
0
0
0
0
0
0
0
0
0
0
0
0
0
0
0
0
0
0
0
0
0
0
0
0
0
0
0
0
0
0
0
0
0
0
0
0
0
0
0
0
0
0
0
0
0
0
0
0
0
0
0
0
0
0
0
0
0
0
0
0
0
0
0
0
0
0
0
0
0
0
0
0
0
0
0
0
0
0
0
0
0
0
0
0
0
0
0
0
0
0
0
0
0
0
0
0
0
0
0
0
0
0
0
0
0
0
0
0
0
0
0
0
0
0
0
0
0
0
0
0
0
0
0
0
0
0
0
0
0
0
0
0
0
0
0
0
0
0
0
0
0
0
0
0
0
0
0
0
0
0
0
0
0
0
0
0
0
0
0
0
0
0
0
0
0
0
0
0
0
0
0
0
0
0
0
0
0
0
0
0
0
0
0
0
0
0
0
0
0
0
0
0
0
0
0
0
0
0
0
0
0
0
0
0
0
0
0
0
0
0
0
0
0
0
0
0
0
0
0
0
0
0
0
0
0
0
0
0
0
0
0
0
0
0
0
0
0
0
0
0
0
0
0
0
0
0
0
0
0
0
0
0
0
0
0
0
0
0
0
0
0
0
0
0
0
0
0
0
0
0
0
0
0
0
0
0
0
0
0
0
0
0
0
0
0
0
0
0
0
0
0
0
0
0
0
0
0
0
0
0
0
0
0
0
0
0
0
0
0
0
0
0
0
0
0
0
0
0
0
0
0
0
0
0
0
0
0
0
0
0
0
0
0
0
0
0
0
0
0
0
0
0
0
0
0
0
0
0
0
0
0
0
0
0
0
0
0
0
0
0
0
0
0
0
0
0
0
0
0
0
0
0
0
0
0
0
0
0
0
0
0
0
0
0
0
0
0
0
0
0
0
0
0
0
0
0
0
0
0
0
0
0
0
0
0
0
0
0
0
0
0
0
0
0
0
0
0
0
0
0
0
0
0
0
0
0
0
0
0
0
0
0
0
0
0
0
0
0
0
0
0
0
0
0
0
0
0
0
0
0
0
0
0
0
0
0
0
0
0
0
0
0
0
0
0
0
0
0
0
0
0
0
0
0
0
0
0
0
0
0
0
0
0
0
0
0
0
0
0
0
0
0
0
0
0
0
0
0
0
0
0
0
0
0
0
0
0
0
0
0
0
0
0
0
0
0
0
0
0
0
0
0
0
0
0
0
0
0
0
0
0
0
0
0
0
0
0
0
0
0
0
0
0
0
0
0
0
0
0
0
0
0
0
0
0
0
0
0
0
0
0
0
0
0
0
0
0
0
0
0
0
0
0
0
0
0
0
0
0
0
0
0
0
0
0
0
0
0
0
0
0
0
0
0
0
0
0
0
0
0
0
0
0
0
0
0
0
0
0
0
0
0
0
0
0
0
0
0
0
0
0
0
0
0
0
0
0
0
0
0
0
0
0
0
0
0
0
0
0
0
0
0
0
0
0
0
0
0
0
0
0
0
0
0
0
0
0
0
0
0
0
0
0
0
0
0
0
0
0
0
0
0
0
0
0
0
0
0
0
0
0
0
0
0
0
0
0
0
0
0
0
0
0
0
0
0
0
0
0
0
0
0
0
0
0
0
0
0
0
0
0
0
0
0
0
0
0
0
0
0
0
0
0
0
0
0
0
0
0
0
0
0
0
0
0
0
0
0
0
0
0
0
0
0
0
0
0
0
0
0
0
0
0
0
0
0
0
0
0
0
0
0
0
0
0
0
0
0
0
0
0
0
0
0
0
0
0
0
0
0
0
0
0
0
0
0
0
0
0
0
0
0
0
0
0
0
0
0
0
0
0
0
0
0
0
0
0
0
0
0
0
0
0
0
0
0
0
0
0
0
0
0
0
0
0
0
0
0
0
0
0
0
0
0
0
0
0
0
0
0
0
0
0
0
0
0
0
0
0
0
0
0
0
0
0
0
0
0
0
0
0
0
0
0
0
0
0
0
0
0
0
0
0
0
0
0
0
0
0
0
0
0
0
0
0
0
0
0
0
0
0
0
0
0
0
0
0
0
0
0
0
0
0
0
0
0
0
0
0
0
0
0
0
0
0
0
0
0
0
0
0
0
0
0
0
0
0
0
0
0
0
0
0
0
0
0
0
0
0
0
0
0
0
0
0
0
0
0
0
0
0
0
0
0
0
0
0
0
0
0
0
0
0
0
0
0
0
0
0
0
0
0
0
0
0
0
0
0
0
0
0
0
0
0
0
0
0
0
0
0
0
0
0
0
0
0
0
0
0
0
0
0
0
0
0
0
0
0
0
0
0
0
0
0
0
0
0
0
0
0
0
0
0
0
0
0
0
0
0
0
0
0
0
0
0
0
0
0
0
0
0
0
0
0
0
0
0
0
0
0
0
0
0
0
0
0
0
0
0
0
0
0
0
0
0
0
0
0
0
0
0
0
0
0
0
0
0
0
0
0
0
0
0
0
0
0
0
0
0
0
0
0
0
0
0
0
0
0
0
0
0
0
0
0
0
0
0
0
0
0
0
0
0
0
0
0
0
0
0
0
0
0
0
0
0
0
0
0
0
0
0
0
0
0
0
0
0
0
0
0
0
0
0
0
0
0
0
0
0
0
0
0
0
0
0
0
0
0
0
0
0
0
0
0
0
0
0
0
0
0
0
0
0
0
0
0
0
0
0
0
0
0
0
0
0
0
0
0
0
0
0
0
0
0
0
0
0
0
0
0
0
0
0
0
0
0
0
0
0
0
0
0
0
0
0
0
0
0
0
0
0
0
0
0
0
0
0
0
0
0
0
0
0
0
0
0
0
0
0
0
0
0
0
0
0
0
0
0
0
0
0
0
0
0
0
0
0
0
0
0
0
0
0
0
0
0
0
0
0
0
0
0
0
0
0
0
0
0
0
0
0
0
0
0
0
0
0
0
0
0
0
0
0
0
0
0
0
0
0
0
0
0
0
0
0
0
0
0
0
0
0
0
0
0
0
0
0
0
0
0
0
0
0
0
0
0
0
0
0
0
0
0
0
0
0
0
0
0
0
0
0
0
0
0
0
0
0
0
0
0
0
0
0
0
0
0
0
0
0
0
0
0
0
0
0
0
0
0
0
0
0
0
0
0
0
0
0
0
0
0
0
0
0
0
0
0
0
0
0
0
0
0
0
0
0
0
0
0
0
0
0
0
0
0
0
0
0
0
0
0
0
0
0
0
0
0
0
0
0
0
0
0
0
0
0
0
0
0
0
0
0
0
0
0
0
0
0
0
0
0
0
0
0
0
0
0
0
0
0
0
0
0
0
0
0
0
0
0
0
0
0
0
0
0
0
0
0
0
0
0
0
0
0
0
0
0
0
0
0
0
0
0
0
0
0
0
0
0
0
0
0
0
0
0
0
0
0
0
0
0
0
0
0
0
0
0
0
0
0
0
0
0
0
0
0
0
0
0
0
0
0
0
0
0
0
0
0
0
0
0
0
0
0
0
0
0
0
0
0
0
0
0
0
0
0
0
0
0
0
0
0
0
0
0
0
0
0
0
0
0
0
0
0
0
0
0
0
0
0
0
0
0
0
0
0
0
0
0
0
0
0
0
0
0
0
0
0
0
0
0
0
0
0
0
0
0
0
0
0
0
0
0
0
0
0
0
0
0
0
0
0
0
0
0
0
0
0
0
0
0
0
0
0
0
0
0
0
0
0
0
0
0
0
0
0
0
0
0
0
0
0
0
0
0
0
0
0
0
0
0
0
0
0
0
0
0
0
0
0
0
0
0
0
0
0
0
0
0
0
0
0
0
0
0
0
0
0
0
0
0
0
0
0
0
0
0
0
0
0
0
0
0
0
0
0
0
0
0
0
0
0
0
0
0
0
0
0
0
0
0
0
0
0
0
0
0
0
0
0
0
0
0
0
0
0
0
0
0
0
0
0
0
0
0
0
0
0
0
0
0
0
0
0
0
0
0
0
0
0
0
0
0
0
0
0
0
0
0
0
0
0
0
0
0
0
0
0
0
0
0
0
0
0
0
0
0
0
0
0
0
0
0
0
0
0
0
0
0
0
0
0
0
0
0
0
0
0
0
0
0
0
0
0
0
0
0
0
0
0
0
0
0
0
0
0
0
0
0
0
0
0
0
0
0
0
0
0
0
0
0
0
0
0
0
0
0
0
0
0
0
0
0
0
0
0
0
0
0
0
0
0
0
0
0
0
0
0
0
0
0
0
0
0
0
0
0
0
0
0
0
0
0
0
0
0
0
0
0
0
0
0
0
0
0
0
0
0
0
0
0
0
0
0
0
0
0
0
0
0
0
0
0
0
0
0
0
0
0
0
0
0
0
0
0
0
0
0
0
0
0
0
0
0
0
0
0
0
0
0
0
0
0
0
0
0
0
0
0
0
0
0
0
0
0
0
0
0
0
0
0
0
0
0
0
0
0
0
0
0
0
0
0
0
0
0
0
0
0
0
0
0
0
0
0
0
0
0
0
0
0
0
0
0
0
0
0
0
0
0
0
0
0
0
0
0
0
0
0
0
0
0
0
0
0
0
0
0
0
0
0
0
0
0
0
0
0
0
0
0
0
0
0
0
0
0
0
0
0
0
0
0
0
0
0
0
0
0
0
0
0
0
0
0
0
0
0
0
0
0
0
0
0
0
0
0
0
0
0
0
0
0
0
0
0
0
0
0
0
0
0
0
0
0
0
0
0
0
0
0
0
0
0
0
0
0
0
0
0
0
0
0
0
0
0
0
0
0
0
0
0
0
0
0
0
0
0
0
0
0
0
0
0
0
0
0
0
0
0
0
0
0
0
0
0
0
0
0
0
0
0
0
0
0
0
0
0
0
0
0
0
0
0
0
0
0
0
0
0
0
0
0
0
0
0
0
0
0
0
0
0
0
0
0
0
0
0
0
0
0
0
0
0
0
0
0
0
0
0
0
0
0
0
0
0
0
0
0
0
0
0
0
0
0
0
0
0
0
0
0
0
0
0
0
0
0
0
0
0
0
0
0
0
0
0
0
0
0
0
0
0
0
0
0
0
0
0
0
0
0
0
0
0
0
0
0
0
0
0
0
0
0
0
0
0
0
0
0
0
0
0
0
0
0
0
0
0
0
0
0
0
0
0
0
0
0
0
0
0
0
0
0
0
0
0
0
0
0
0
0
0
0
0
0
0
0
0
0
0
0
0
0
0
0
0
0
0
0
0
0
0
0
0
0
0
0
0
0
0
0
0
0
0
0
0
0
0
0
0
0
0
0
0
0
0
0
0
0
0
0
0
0
0
0
0
0
0
0
0
0
0
0
0
0
0
0
0
0
0
0
0
0
0
0
0
0
0
0
0
0
0
0
0
0
0
0
0
0
0
0
0
0
0
0
0
0
0
0
0
0
0
0
0
0
0
0
0
0
0
0
0
0
0
0
0
0
0
0
0
0
0
0
0
0
0
0
0
0
0
0
0
0
0
0
0
0
0
0
0
0
0
0
0
0
0
0
0
0
0
0
0
0
0
0
0
0
0
0
0
0
0
0
0
0
0
0
0
0
0
0
0
0
0
0
0
0
0
0
0
0
0
0
0
0
0
0
0
0
0
0
0
0
0
0
0
0
0
0
0
0
0
0
0
0
0
0
0
0
0
0
0
0
0
0
0
0
0
0
0
0
0
0
0
0
0
0
0
0
0
0
0
0
0
0
0
0
0
0
0
0
0
0
0
0
0
0
0
0
0
0
0
0
0
0
0
0
0
0
0
0
0
0
0
0
0
0
0
0
0
0
0
0
0
0
0
0
0
0
0
0
0
0
0
0
0
0
0
0
0
0
0
0
0
0
0
0
0
0
0
0
0
0
0
0
0
0
0
0
0
0
0
0
0
0
0
0
0
0
0
0
0
0
0
0
0
0
0
0
0
0
0
0
0
0
0
0
0
0
0
0
0
0
0
0
0
0
0
0
0
0
0
0
0
0
0
0
0
0
0
0
0
0
0
0
0
0
0
0
0
0
0
0
0
0
0
0
0
0
0
0
0
0
0
0
0
0
0
0
0
0
0
0
0
0
0
0
0
0
0
0
0
0
0
0
0
0
0
0
0
0
0
0
0
0
0
0
0
0
0
0
0
0
0
0
0
0
0
0
0
0
0
0
0
0
0
0
0
0
0
0
0
0
0
0
0
0
0
0
0
0
0
0
0
0
0
0
0
0
0
0
0
0
0
0
0
0
0
0
0
0
0
0
0
0
0
0
0
0
0
0
0
0
0
0
0
0
0
0
0
0
0
0
0
0
0
0
0
0
0
0
0
0
0
0
0
0
0
0
0
0
0
0
0
0
0
0
0
0
0
0
0
0
0
0
0
0
0
0
0
0
0
0
0
0
0
0
0
0
0
0
0
0
0
0
0
0
0
0
0
0
0
0
0
0
0
0
0
0
0
0
0
0
0
0
0
0
0
0
0
0
0
0
0
0
0
0
0
0
0
0
0
0
0
0
0
0
0
0
0
0
0
0
0
0
0
0
0
0
0
0
0
0
0
0
0
0
0
0
0
0
0
0
0
0
0
0
0
0
0
0
0
0
0
0
0
0
0
0
0
0
0
0
0
0
0
0
0
0
0
0
0
0
0
0
0
0
0
0
0
0
0
0
0
0
0
0
0
0
0
0
0
0
0
0
0
0
0
0
0
0
0
0
0
0
0
0
0
0
0
0
0
0
0
0
0
0
0
0
0
0
0
0
0
0
0
0
0
0
0
0
0
0
0
0
0
0
0
0
0
0
0
0
0
0
0
0
0
0
0
0
0
0
0
0
0
0
0
0
0
0
0
0
0
0
0
0
0
0
0
0
0
0
0
0
0
0
0
0
0
0
0
0
0
0
0
0
0
0
0
0
0
0
0
0
0
0
0
0
0
0
0
0
0
0
0
0
0
0
0
0
0
0
0
0
0
0
0
0
0
0
0
0
0
0
0
0
0
0
0
0
0
0
0
0
0
0
0
0
0
0
0
0
0
0
0
0
0
0
0
0
0
0
0
0
0
0
0
0
0
0
0
0
0
0
0
0
0
0
0
0
0
0
0
0
0
0
0
0
0
0
0
0
0
0
0
0
0
0
0
0
0
0
0
0
0
0
0
0
0
0
0
0
0
0
0
0
0
0
0
0
0
0
0
0
0
0
0
0
0
0
0
0
0
0
0
0
0
0
0
0
0
0
0
0
0
0
0
0
0
0
0
0
0
0
0
0
0
0
0
0
0
0
0
0
0
0
0
0
0
0
0
0
0
0
0
0
0
0
0
0
0
0
0
0
0
0
0
0
0
0
0
0
0
0
0
0
0
0
0
0
0
0
0
0
0
0
0
0
0
0
0
0
0
0
0
0
0
0
0
0
0
0
0
0
0
0
0
0
0
0
0
0
0
0
0
0
0
0
0
0
0
0
0
0
0
0
0
0
0
0
0
0
0
0
0
0
0
0
0
0
0
0
0
0
0
0
0
0
0
0
0
0
0
0
0
0
0
0
0
0
0
0
0
0
0
0
0
0
0
0
0
0
0
0
0
0
0
0
0
0
0
0
0
0
0
0
0
0
0
0
0
0
0
0
0
0
0
0
0
0
0
0
0
0
0
0
0
0
0
0
0
0
0
0
0
0
0
0
0
0
0
0
0
0
0
0
0
0
0
0
0
0
0
0
0
0
0
0
0
0
0
0
0
0
0
0
0
0
0
0
0
0
0
0
0
0
0
0
0
0
0
0
0
0
0
0
0
0
0
0
0
0
0
0
0
0
0
0
0
0
0
0
0
0
0
0
0
0
0
0
0
0
0
0
0
0
0
0
0
0
0
0
0
0
0
0
0
0
0
0
0
0
0
0
0
0
0
0
0
0
0
0
0
0
0
0
0
0
0
0
0
0
0
0
0
0
0
0
0
0
0
0
0
0
0
0
0
0
0
0
0
0
0
0
0
0
0
0
0
0
0
0
0
0
0
0
0
0
0
0
0
0
0
0
0
0
0
0
0
0
0
0
0
0
0
0
0
0
0
0
0
0
0
