-0.142806
-0.143754
-0.137016
-0.126465
-0.115017
-0.104245
-0.0942367
-0.0837047
-0.0703523
-0.051459
-0.0244761
0.0123283
0.0594025
0.115416
0.178319
0.245335
0.313671
0.381562
0.449028
0.518283
0.593641
0.680925
0.786467
0.915928
1.07001
1.24957
1.4537
1.67933
1.92164
2.17471
2.43249
2.68936
2.94059
3.18165
3.40519
3.60547
3.78095
3.9305
4.05305
4.13694
4.17908
4.17408
4.11465
3.99431
3.81114
3.57042
3.28444
2.97028
2.64716
2.3289
2.02097
1.72886
1.45688
1.20787
0.983525
0.783976
0.608375
0.455296
0.323117
0.210294
0.115558
0.0377417
-0.0242867
-0.0717866
-0.105654
-0.127421
-0.139258
-0.143377
-0.141846
-0.136449
-0.128561
-0.119309
-0.109449
-0.0993197
-0.0887635
-0.0770847
-0.0631218
-0.0454891
-0.022974
0.00476737
0.037908
0.0747334
0.112378
0.147313
0.176012
0.195608
0.204375
0.201949
0.1893
0.168803
0.143313
0.116231
0.0912195
0.0718945
0.0608631
0.0603099
0.0712307
0.0931209
0.124382
0.162375
0.200473
0.230549
0.245567
0.241222
0.216938
0.175929
0.124273
0.0692862
0.0177068
-0.0271969
-0.0645902
-0.0938209
-0.115048
-0.128755
-0.135309
-0.134727
-0.126719
-0.110973
-0.0875735
-0.057345
-0.0211969
0.0174633
0.0545029
0.0858484
0.108279
0.119994
0.120816
0.112021
0.0959052
0.0754364
0.0533838
0.0317918
0.0121957
-0.00447516
-0.0181361
-0.0288509
-0.0373804
-0.0448075
-0.0522619
-0.0605582
-0.0698052
-0.0790773
-0.086251
-0.0880844
-0.080831
-0.0606661
-0.023998
0.031759
0.107728
0.203313
0.31855
0.451709
0.595313
0.739154
0.867317
0.964595
1.01908
1.02369
0.97769
0.887333
0.764962
0.626405
0.487838
0.363281
0.254506
0.15981
0.0804615
0.0164549
-0.0337347
-0.0728452
-0.104388
-0.13218
-0.159665
-0.189492
-0.223329
-0.293405
0
0.995223
2.60854
4.58434
6.70371
8.71994
10.1663
10.4497
9.297
7.08728
4.63781
2.61954
1.20614
0.25292
-0.331264
-0.361564
-0.365572
-0.366928
-0.367204
-0.367535
-0.368177
-0.368358
-0.366441
-0.360314
-0.348409
-0.329123
-0.3015
-0.265394
-0.221583
-0.171249
-0.116154
-0.0582301
0.000884819
0.0601741
0.119455
0.179441
0.241658
0.308251
0.381727
0.464496
0.559022
0.667521
0.791858
0.933465
1.09265
1.26966
1.464
1.67433
1.89832
2.13268
2.37332
2.61559
2.85467
3.08587
3.30496
3.5079
3.69193
3.85509
3.99598
4.10969
4.19243
4.24213
4.25613
4.23132
4.16476
4.0544
3.89977
3.70249
3.46647
3.20173
2.91717
2.61999
2.31749
2.01711
1.72627
1.45214
1.20115
0.979913
0.792196
0.640944
0.533167
0.463705
0.42453
0.406389
0.400684
0.401024
0.403994
0.408948
0.416984
0.429449
0.447086
0.468781
0.491843
0.512733
0.52808
0.53555
0.534342
0.525254
0.510429
0.493296
0.476912
0.464359
0.458468
0.461549
0.474071
0.497604
0.531974
0.576062
0.628508
0.688461
0.748967
0.798253
0.823816
0.816413
0.774441
0.706046
0.6272
0.556379
0.50842
0.481887
0.470085
0.47126
0.482794
0.50159
0.52464
0.549429
0.573955
0.596717
0.616472
0.631981
0.641147
0.64233
0.634125
0.615884
0.588221
0.55328
0.5146
0.476547
0.443473
0.418028
0.402351
0.396773
0.400142
0.410194
0.424127
0.439191
0.452645
0.462981
0.470296
0.476347
0.484178
0.497312
0.518686
0.54967
0.588271
0.632033
0.677655
0.721297
0.759311
0.788316
0.807243
0.817387
0.822464
0.828089
0.840648
0.8661
0.912094
0.976954
1.05312
1.12898
1.18982
1.22363
1.22379
1.1902
1.12873
1.04945
0.963894
0.88194
0.809089
0.742642
0.67832
0.612078
0.534653
0.428812
0.296266
0.153525
0.0250982
0
0.783043
1.92535
3.42009
5.2957
7.30591
8.87519
9.45896
8.939
7.62593
5.93022
4.13092
2.44824
1.1669
0.512485
0.413344
0.401636
0.39535
0.397247
0.410575
0.43624
0.473742
0.519355
0.560258
0.582004
0.574064
0.534729
0.473599
0.409684
0.365116
0.357146
0.392395
0.451293
0.52405
0.605314
0.690036
0.774648
0.857117
0.936967
1.0151
1.09351
1.17499
1.26286
1.36063
1.47196
1.60032
1.74862
1.91882
2.11125
2.32494
2.55725
2.80394
3.05952
3.31763
3.57143
3.81412
4.03953
4.23979
4.40304
4.52403
4.59926
4.62591
4.60178
4.52546
4.39693
4.21812
3.99356
3.73063
3.44466
3.14669
2.84534
2.54858
2.26354
1.99603
1.75031
1.52887
1.33242
1.16075
1.01561
0.89303
0.787156
0.692351
0.604417
0.521523
0.444541
0.376644
0.322363
0.286094
0.270904
0.277715
0.305071
0.349415
0.405715
0.468195
0.531049
0.588718
0.636738
0.672094
0.693397
0.700847
0.696018
0.681526
0.66069
0.637624
0.615697
0.598224
0.588295
0.588384
0.599353
0.622152
0.656274
0.698462
0.744248
0.788297
0.825819
0.853809
0.871529
0.880247
0.882327
0.879936
0.874233
0.864794
0.849943
0.827668
0.79671
0.757366
0.711677
0.66293
0.614597
0.569265
0.527968
0.490072
0.453848
0.41753
0.380461
0.343835
0.310715
0.285247
0.271076
0.27017
0.282586
0.306032
0.336464
0.369168
0.399971
0.426464
0.447756
0.46448
0.478311
0.491355
0.505553
0.522383
0.54279
0.567108
0.595896
0.629918
0.670242
0.718141
0.777515
0.857048
0.95405
1.05345
1.13361
1.1734
1.15987
1.09238
0.982059
0.847879
0.71069
0.583696
0.470181
0.369376
0.277657
0.192296
0.110307
0.0288239
-0.0546288
-0.141493
-0.232068
-0.334558
0
1.0224
2.61079
4.5061
6.49405
8.31057
9.48542
9.5012
8.22595
6.13506
4.00709
2.37933
1.31683
0.647481
0.275146
0.190908
0.109822
0.0335516
-0.0335967
-0.0867966
-0.121607
-0.134905
-0.12551
-0.0943387
-0.0441824
0.0207399
0.0936004
0.169792
0.245517
0.317569
0.383914
0.443965
0.498628
0.550065
0.601196
0.655062
0.714234
0.780462
0.854112
0.934769
1.02268
1.11833
1.2226
1.33682
1.46258
1.60156
1.75523
1.92465
2.11026
2.31185
2.5286
2.75909
3.0013
3.25271
3.51195
3.77538
4.03548
4.28274
4.49999
4.66576
4.77401
4.81722
4.78369
4.66431
4.46143
4.18951
3.86807
3.5163
3.15634
2.80031
2.45286
2.11857
1.80226
1.50809
1.23938
0.998437
0.786435
0.603401
0.448835
0.321982
0.220371
0.14138
0.0825373
0.0416287
0.0168444
0.00763788
0.0110211
0.0232826
0.0401968
0.0572975
0.0702834
0.0766607
0.0763639
0.0717389
0.0668124
0.0660064
0.0726682
0.0878783
0.109986
0.135377
0.156988
0.168352
0.166115
0.151573
0.130561
0.111608
0.102967
0.10964
0.129514
0.158523
0.189847
0.215685
0.229312
0.226769
0.207689
0.175106
0.134406
0.0918695
0.0532955
0.0211615
-0.00295944
-0.0179081
-0.0234538
-0.0202031
-0.00928755
0.00767527
0.0284554
0.0508439
0.0729352
0.0933024
0.111016
0.125503
0.13631
0.142861
0.143939
0.13835
0.124831
0.10241
0.0708261
0.0308981
-0.015227
-0.0639886
-0.110441
-0.1482
-0.170703
-0.172222
-0.149072
-0.0984037
-0.0130364
0.101455
0.214843
0.296179
0.324426
0.296301
0.227995
0.148843
0.0892393
0.0689094
0.0828488
0.112125
0.151204
0.193177
0.232235
0.265028
0.291434
0.314568
0.340035
0.374689
0.427249
0.534602
0.732092
0.976439
1.19389
1.31265
1.30443
1.19534
1.03355
0.852047
0.668277
0.501518
0.356579
0.236086
0.143097
0.0756536
0.0332802
0.0141244
0.0145259
0.0294622
0.053057
0.0790613
0
0.397125
1.58222
3.43883
5.65273
7.89161
9.74644
10.6605
10.1646
8.30082
5.74567
3.39524
1.77924
0.869075
0.379161
0.179077
0.119775
0.0663079
0.0188434
-0.021911
-0.0563295
-0.0863844
-0.114313
-0.141866
-0.1696
-0.196455
-0.21975
-0.235576
-0.239463
-0.229625
-0.204067
-0.161254
-0.101168
-0.0254746
0.0625936
0.159661
0.260354
0.359963
0.455516
0.546494
0.634961
0.725101
0.822306
0.932085
1.0578
1.20084
1.36246
1.54262
1.74006
1.95255
2.1771
2.41026
2.64823
2.88705
3.12274
3.35083
3.56706
3.76792
3.95049
4.10762
4.22893
4.31129
4.3508
4.34257
4.28128
4.16227
3.98313
3.74525
3.45522
3.12939
2.78794
2.44379
2.10793
1.78991
1.49784
1.23767
1.01289
0.82462
0.671822
0.553142
0.466786
0.407311
0.369004
0.346373
0.334473
0.329274
0.327085
0.324855
0.320091
0.310866
0.295916
0.274803
0.248081
0.217375
0.185307
0.155052
0.129894
0.112808
0.105969
0.110347
0.126006
0.151423
0.184172
0.221342
0.259888
0.296581
0.327646
0.349862
0.360643
0.358572
0.344001
0.319331
0.288686
0.256951
0.228501
0.205119
0.187642
0.175684
0.168157
0.164
0.162797
0.165027
0.171852
0.184507
0.203531
0.229826
0.259696
0.286696
0.303938
0.306361
0.292334
0.263883
0.22553
0.182412
0.138661
0.0962753
0.0560547
0.0188234
-0.0144532
-0.0425471
-0.0641015
-0.0776659
-0.0824681
-0.0790313
-0.0689093
-0.0554468
-0.0430364
-0.0354876
-0.0351048
-0.0422981
-0.0558008
-0.0733121
-0.0922384
-0.110228
-0.125677
-0.137396
-0.144183
-0.144935
-0.138739
-0.125073
-0.104647
-0.0779165
-0.0463844
-0.0120315
0.0231088
0.0574868
0.0905417
0.123016
0.156956
0.195335
0.244007
0.313535
0.403657
0.502513
0.59125
0.649866
0.663154
0.624561
0.537664
0.415606
0.278239
0.145995
0.032839
-0.0559565
-0.128748
-0.193211
-0.253189
-0.312346
-0.373798
-0.439173
-0.508535
-0.580835
-0.656595
0
1.16085
2.74846
4.7348
6.95288
8.93769
10.1097
10.1658
9.244
7.69487
5.78532
3.69816
1.73973
0.349223
-0.218893
-0.184564
-0.221577
-0.259368
-0.296884
-0.33267
-0.36456
-0.390316
-0.40784
-0.415561
-0.412718
-0.399417
-0.37645
-0.344929
-0.305881
-0.259992
-0.207994
-0.1498
-0.0853326
-0.014817
0.0610333
0.141012
0.223635
0.307495
0.391787
0.47662
0.563253
0.654082
0.7524
0.861979
0.986555
1.12929
1.29232
1.47595
1.67927
1.90003
2.13469
2.37868
2.62684
2.87374
3.11372
3.34093
3.54867
3.7278
3.87203
3.97755
4.04173
4.06298
4.04051
3.97399
3.86345
3.70942
3.51342
3.28504
3.03161
2.758
2.47038
2.17617
1.88307
1.5987
1.33035
1.08436
0.865665
0.679415
0.528951
0.41237
0.325927
0.26501
0.225034
0.202017
0.192688
0.194216
0.203716
0.218642
0.234101
0.242344
0.236494
0.213394
0.17598
0.133696
0.100096
0.0881792
0.105327
0.146484
0.205478
0.269686
0.326238
0.366004
0.385697
0.387509
0.376863
0.359653
0.340286
0.321051
0.302771
0.285962
0.271116
0.258806
0.249618
0.244015
0.242236
0.244271
0.249906
0.258769
0.270319
0.283856
0.298163
0.311609
0.32232
0.32838
0.328596
0.322839
0.312218
0.298888
0.285506
0.274534
0.267632
0.265338
0.266671
0.270653
0.276161
0.282233
0.288207
0.293662
0.29823
0.301277
0.301761
0.298166
0.288666
0.271487
0.245415
0.210301
0.16664
0.117558
0.0683735
0.025374
-0.0053422
-0.0190596
-0.0133706
0.0114082
0.0524385
0.105128
0.163787
0.224162
0.28346
0.340973
0.397911
0.456565
0.520577
0.599424
0.7011
0.811485
0.903307
0.946764
0.922934
0.831745
0.690792
0.52784
0.371874
0.237782
0.123882
0.0283847
-0.0496407
-0.111354
-0.159078
-0.195808
-0.224895
-0.249589
-0.272749
-0.296639
-0.33349
0
0.890114
2.23396
3.90506
5.80355
7.65037
8.87963
8.92714
7.69304
5.66631
3.55425
1.81873
0.572096
-0.199846
-0.484893
-0.447584
-0.420704
-0.401188
-0.389974
-0.386536
-0.389347
-0.39647
-0.40603
-0.416303
-0.425858
-0.43305
-0.435785
-0.431493
-0.417376
-0.390894
-0.350323
-0.295195
-0.226646
-0.147027
-0.0588076
0.0354391
0.133547
0.233972
0.33577
0.438436
0.541788
0.646
0.751829
0.860894
0.975953
1.10085
1.24013
1.39833
1.57902
1.78296
2.00945
2.25537
2.51527
2.78202
3.0476
3.30364
3.5428
3.75939
3.94391
4.08491
4.18006
4.22678
4.22127
4.15895
4.03609
3.85231
3.61298
3.33073
3.02623
2.72241
2.44319
2.2472
2.22977
2.33639
2.46677
2.52065
2.43279
2.19825
1.87807
1.57101
1.36132
1.28197
1.25221
1.24177
1.24665
1.26262
1.2861
1.31408
1.34385
1.37046
1.38805
1.39137
1.3777
1.34856
1.31012
1.27181
1.24363
1.23325
1.23932
1.25739
1.28583
1.32143
1.3604
1.39884
1.43298
1.46033
1.47994
1.49218
1.49828
1.49949
1.49627
1.48838
1.4747
1.45407
1.42628
1.39289
1.35726
1.3238
1.29658
1.27905
1.27037
1.26653
1.26205
1.25219
1.23469
1.21018
1.18125
1.15069
1.11985
1.08826
1.05436
1.01614
0.971951
0.921254
0.865143
0.80652
0.750353
0.704819
0.678074
0.676503
0.702904
0.755363
0.827285
0.908744
0.988874
1.05865
1.11412
1.15529
1.18636
1.21419
1.24606
1.28739
1.34054
1.40793
1.48098
1.53993
1.56435
1.53963
1.46238
1.34117
1.19103
1.025
0.849173
0.665904
0.477145
0.294057
0.138874
0.0348733
0
0.0440663
0.166413
0.35318
0.576859
0.864284
1.25128
2.1319
3.69812
5.68433
7.55045
8.85469
9.3868
9.02805
7.69145
5.52954
3.11387
1.20633
0.23363
0.0124633
0.019247
-0.0158269
-0.0504621
-0.0829197
-0.111172
-0.133357
-0.147864
-0.153558
-0.149974
-0.137414
-0.116945
-0.0903196
-0.0595023
-0.0275688
0.00209897
0.0258508
0.0401915
0.0435635
0.0368099
0.0237237
0.01097
0.00722595
0.0216586
0.0621322
0.133674
0.233101
0.357996
0.505038
0.669643
0.84603
1.03028
1.21922
1.41062
1.60312
1.79618
1.98978
2.18422
2.37988
2.577
2.77552
2.97501
3.17423
3.36887
3.55243
3.7171
3.85535
3.95408
4.00671
4.00737
3.94797
3.81997
3.61919
3.3502
3.02713
2.67096
2.30544
1.94765
1.60232
1.27481
0.969849
0.690898
0.440272
0.219562
0.0325984
-0.116473
-0.22866
-0.306127
-0.352413
-0.372462
-0.372319
-0.358508
-0.337261
-0.313815
-0.291805
-0.273267
-0.259311
-0.250253
-0.245872
-0.245595
-0.248635
-0.254078
-0.260891
-0.267942
-0.273888
-0.277165
-0.275963
-0.268532
-0.253472
-0.230125
-0.198917
-0.161487
-0.120125
-0.078573
-0.0407147
-0.0095892
0.0131241
0.0271768
0.0334257
0.0333244
0.0284951
0.0205598
0.0113167
0.00263567
-0.00328839
-0.00410655
0.00226599
0.0168241
0.0395786
0.0693396
0.103846
0.140295
0.176047
0.209282
0.239535
0.267779
0.296104
0.327044
0.362742
0.404856
0.452463
0.502531
0.549915
0.589041
0.616244
0.631286
0.63772
0.641854
0.650568
0.670136
0.700992
0.737989
0.772415
0.795592
0.802596
0.794609
0.779067
0.767562
0.772134
0.80104
0.857718
0.935974
1.02612
1.12354
1.22072
1.30944
1.38205
1.43055
1.44926
1.43448
1.38513
1.30336
1.1948
1.06812
0.933888
0.802797
0.68359
0.577636
0.48632
0.408781
0.342267
0.283032
0.227559
0.172779
0.116985
0.0597398
0
0.307489
1.02472
2.41934
4.47992
6.76786
8.67758
9.79941
10.0005
9.25855
7.60516
5.30522
2.95756
1.21862
0.344667
0.0563052
-0.0699389
-0.12963
-0.183941
-0.231188
-0.269879
-0.299379
-0.319694
-0.331399
-0.335486
-0.333145
-0.325538
-0.313591
-0.297868
-0.278642
-0.255781
-0.228987
-0.198083
-0.162921
-0.123587
-0.0804088
-0.0338858
0.0156924
0.0680931
0.12354
0.183047
0.248505
0.322547
0.408182
0.508276
0.625029
0.759597
0.910427
1.07628
1.25564
1.44654
1.64672
1.85364
2.06445
2.27591
2.48442
2.68561
2.87221
3.03651
3.17399
3.28139
3.35642
3.39378
3.39125
3.34604
3.25525
3.11699
2.93169
2.70296
2.4375
2.14429
1.83359
1.51814
1.20508
0.900722
0.611118
0.341706
0.0995348
-0.107401
-0.279679
-0.421194
-0.537947
-0.63618
-0.720465
-0.79242
-0.850528
-0.891113
-0.910775
-0.907019
-0.880112
-0.833465
-0.773032
-0.70595
-0.638937
-0.576233
-0.520299
-0.471756
-0.429751
-0.392565
-0.358284
-0.325334
-0.292784
-0.260347
-0.228164
-0.196428
-0.16502
-0.133254
-0.0998552
-0.0631744
-0.0216188
0.0258541
0.079314
0.138153
0.200053
0.261165
0.317308
0.36463
0.399506
0.416838
0.414541
0.391363
0.347336
0.284568
0.207848
0.124567
0.043749
-0.0255899
-0.0799458
-0.116775
-0.135108
-0.136421
-0.124183
-0.102995
-0.077548
-0.0516829
-0.0277439
-0.00659485
0.0119928
0.028158
0.0420801
0.0526825
0.0577095
0.0545227
0.0412479
0.0177744
-0.0137897
-0.0493502
-0.0836741
-0.112442
-0.131894
-0.139487
-0.134337
-0.118173
-0.0920025
-0.0569531
-0.0144236
0.0339775
0.0864378
0.141184
0.195927
0.248633
0.297988
0.343868
0.387654
0.432252
0.481768
0.540868
0.619415
0.744846
0.912738
1.093
1.24627
1.34188
1.36967
1.33752
1.26035
1.15288
1.0301
0.908006
0.793997
0.69248
0.603271
0.520662
0.440597
0.360427
0.277151
0.189188
0.0964348
0
-0.0943817
0.435911
1.48138
2.97071
4.92193
7.255
9.50117
10.8885
10.8574
9.4972
7.43185
5.30534
3.43309
1.89811
0.797737
0.242292
0.212029
0.214862
0.219809
0.225447
0.230465
0.234299
0.237516
0.241927
0.250334
0.265904
0.291333
0.328049
0.375846
0.434388
0.499652
0.567385
0.634518
0.700016
0.764866
0.831302
0.901721
0.977853
1.05978
1.14723
1.24082
1.34177
1.45205
1.57417
1.71069
1.86355
2.0335
2.21955
2.41847
2.62724
2.83974
3.045
3.2317
3.3889
3.5085
3.58718
3.62605
3.62996
3.60577
3.56015
3.49726
3.41735
3.3167
3.19489
3.05054
2.88031
2.68268
2.45842
2.21056
1.94587
1.67012
1.38946
1.11025
0.838643
0.580263
0.339949
0.121493
-0.0725735
-0.241117
-0.383922
-0.502543
-0.599861
-0.679506
-0.745345
-0.800934
-0.849041
-0.891064
-0.926525
-0.954367
-0.972674
-0.979501
-0.973645
-0.955109
-0.925162
-0.88606
-0.840578
-0.791871
-0.7422
-0.693225
-0.6461
-0.601018
-0.557253
-0.513285
-0.467146
-0.416342
-0.35769
-0.293091
-0.228155
-0.170919
-0.129408
-0.109049
-0.110991
-0.131815
-0.164626
-0.200842
-0.233942
-0.259633
-0.275899
-0.283991
-0.285645
-0.281782
-0.272903
-0.258874
-0.239062
-0.213076
-0.180639
-0.142265
-0.0994379
-0.0545631
-0.0104368
0.0299824
0.0641122
0.0900732
0.106882
0.114519
0.113899
0.106794
0.0956861
0.0835495
0.0735645
0.0687025
0.0713127
0.0827869
0.103391
0.132314
0.16821
0.208855
0.251909
0.295208
0.336899
0.375126
0.408589
0.436479
0.458725
0.476336
0.491673
0.508485
0.531643
0.566578
0.63725
0.795291
1.01963
1.24987
1.41041
1.4539
1.38398
1.23767
1.05504
0.871714
0.719298
0.595151
0.493368
0.409361
0.337602
0.274307
0.215836
0.159579
0.104438
0.0507959
0
0.0135329
0.642138
1.89495
3.55998
5.39631
7.2861
9.04082
10.1811
10.1258
8.7041
6.41992
4.11525
2.36873
1.2491
0.575968
0.290795
0.301811
0.316258
0.333505
0.353215
0.375248
0.39867
0.422101
0.443775
0.461837
0.474784
0.481932
0.483724
0.481801
0.478811
0.477896
0.482255
0.494733
0.517599
0.551125
0.595534
0.651808
0.720832
0.803331
0.899735
1.00994
1.13342
1.26921
1.41616
1.57316
1.73951
1.91512
2.10034
2.29564
2.50119
2.7163
2.93905
3.1662
3.39341
3.61582
3.82843
4.02725
4.2095
4.3737
4.51595
4.62833
4.70933
4.7552
4.75989
4.71634
4.61838
4.46269
4.2503
3.98731
3.68491
3.363
3.03431
2.70846
2.39346
2.09588
1.82056
1.57057
1.34748
1.15171
0.983007
0.841272
0.725635
0.635177
0.569084
0.526052
0.505237
0.506656
0.526113
0.557967
0.596063
0.632847
0.662357
0.681888
0.692566
0.698802
0.706695
0.721854
0.747364
0.782626
0.822514
0.861782
0.893882
0.913464
0.917645
0.906487
0.882655
0.850458
0.814688
0.779649
0.74814
0.721158
0.699985
0.685583
0.678625
0.67943
0.68851
0.705714
0.728935
0.75509
0.780437
0.800757
0.81236
0.812653
0.800609
0.776975
0.744144
0.705679
0.66553
0.627168
0.592874
0.562814
0.536777
0.514097
0.494245
0.477281
0.464005
0.455708
0.453631
0.458343
0.469732
0.487028
0.506783
0.525828
0.542804
0.559033
0.578233
0.605111
0.643349
0.693797
0.752728
0.8142
0.871415
0.916686
0.942805
0.944052
0.916967
0.860863
0.778089
0.674007
0.556585
0.435978
0.320468
0.217408
0.132398
0.0685314
0.0313602
0.0207099
0.0271322
0.0395825
0.0486226
0.0487952
0.0393433
0.0231586
0
0.344854
0.990359
2.2252
4.17319
6.45516
8.32734
9.18385
8.8954
7.70225
5.92794
3.89742
2.03037
0.778831
0.327682
0.407891
0.41955
0.425825
0.42947
0.430197
0.428224
0.42422
0.419209
0.41444
0.411274
0.411088
0.415208
0.424752
0.440783
0.464156
0.49544
0.534832
0.5818
0.635711
0.695598
0.760327
0.828839
0.900368
0.974887
1.0532
1.1371
1.22931
1.33328
1.45283
1.59158
1.75248
1.93726
2.14582
2.37641
2.62607
2.89065
3.16522
3.44451
3.72333
3.99668
4.26021
4.51002
4.73957
4.93637
5.09254
5.20305
5.26155
5.2611
5.19607
5.06446
4.86973
4.62123
4.33297
4.02504
3.71166
3.4019
3.10105
2.81362
2.5432
2.29244
2.06325
1.85679
1.67364
1.51399
1.37664
1.25959
1.16021
1.07558
1.00292
0.940009
0.887381
0.845675
0.816151
0.800519
0.799799
0.813398
0.83875
0.871662
0.907196
0.940734
0.969577
0.99194
1.00721
1.0157
1.01831
1.01626
1.01086
1.00349
0.995461
0.987967
0.981825
0.977268
0.973778
0.970175
0.964672
0.955568
0.941853
0.923582
0.901857
0.878449
0.855218
0.83361
0.81414
0.797021
0.782181
0.769475
0.758851
0.750396
0.744357
0.740934
0.740233
0.742162
0.746333
0.752095
0.758038
0.762026
0.761654
0.75483
0.740418
0.718701
0.691436
0.661479
0.632111
0.605775
0.584114
0.5682
0.558312
0.553982
0.554595
0.558443
0.563435
0.567459
0.568687
0.565844
0.558396
0.546615
0.531558
0.514997
0.499256
0.486969
0.481095
0.484724
0.5004
0.529939
0.574601
0.634743
0.70942
0.797968
0.897224
0.993751
1.07163
1.11637
1.11784
1.07233
0.982963
0.858354
0.710535
0.552962
0.397963
0.253468
0.132683
0.0462925
0.000667155
0
0.046213
0.134875
0.256731
0.404143
0.526776
1.04174
2.3396
4.33882
6.55219
8.46659
9.75068
10.1536
9.43449
7.58736
5.10156
2.8056
1.31103
0.616969
0.299202
0.151063
0.0746372
0.00804607
-0.0470912
-0.0898589
-0.119921
-0.137422
-0.143306
-0.139201
-0.126953
-0.108334
-0.0867724
-0.0650725
-0.0446853
-0.0252581
-0.00465169
0.0205096
0.0538861
0.0983685
0.155277
0.221964
0.297774
0.380569
0.46839
0.560122
0.655849
0.756798
0.864948
0.982459
1.11116
1.251
1.40192
1.5639
1.73659
1.91939
2.11156
2.31221
2.52041
2.73523
2.9559
3.18314
3.42125
3.67147
3.92198
4.15047
4.32754
4.43327
4.45847
4.40089
4.2631
4.0541
3.78845
3.48171
3.14924
2.81314
2.48628
2.17336
1.87978
1.61043
1.36826
1.15455
0.968266
0.807021
0.667876
0.54798
0.445051
0.358454
0.28687
0.229191
0.184215
0.150506
0.126538
0.110739
0.10179
0.0987374
0.10096
0.108023
0.119512
0.134929
0.153699
0.175195
0.198953
0.224571
0.251555
0.279039
0.305238
0.326044
0.336291
0.331157
0.308455
0.270501
0.22449
0.1809
0.150368
0.140247
0.146907
0.17021
0.204256
0.241672
0.275966
0.303422
0.323932
0.340519
0.357809
0.380012
0.408751
0.445035
0.482625
0.512578
0.526772
0.521217
0.497708
0.463178
0.427176
0.398622
0.380877
0.373326
0.375069
0.383086
0.393231
0.401224
0.403645
0.398719
0.386726
0.369929
0.352007
0.337038
0.328522
0.328535
0.337206
0.352263
0.371166
0.389509
0.403154
0.409211
0.406618
0.396193
0.380173
0.361437
0.342658
0.325454
0.310392
0.297199
0.284909
0.272179
0.257653
0.240295
0.219688
0.196294
0.171676
0.148594
0.130805
0.12295
0.129969
0.156288
0.204853
0.282483
0.395436
0.528825
0.662188
0.77524
0.853459
0.891319
0.892127
0.864878
0.819549
0.763672
0.699904
0.626549
0.540294
0.43763
0.315621
0.175725
0.0229223
-0.134995
0
0.599877
1.94046
4.0754
6.60889
8.91305
10.5021
11.1573
10.7838
9.34931
7.07186
4.56449
2.58494
1.52876
1.19116
1.07068
0.95675
0.850648
0.752738
0.665578
0.590455
0.528408
0.478353
0.438635
0.407657
0.384409
0.368749
0.361367
0.363501
0.376513
0.401255
0.438253
0.487386
0.547642
0.617361
0.695028
0.77891
0.8673
0.958527
1.05135
1.14528
1.2408
1.33957
1.44435
1.55872
1.6867
1.83185
1.997
2.18393
2.39285
2.62229
2.86917
3.12926
3.39763
3.66927
3.93957
4.20296
4.45121
4.67943
4.88524
5.05976
5.18865
5.26277
5.27104
5.2015
5.04956
4.82698
4.55891
4.26863
3.96627
3.65692
3.3465
3.03834
2.73641
2.4456
2.17126
1.91883
1.69303
1.49734
1.33409
1.20356
1.10432
1.03543
0.992329
0.969207
0.960198
0.95967
0.96026
0.955989
0.943227
0.921191
0.892025
0.860398
0.832667
0.815762
0.815994
0.834095
0.870334
0.924975
0.996581
1.08467
1.18877
1.29514
1.38486
1.44146
1.45608
1.43071
1.37727
1.31255
1.25173
1.20392
1.1662
1.13584
1.11279
1.09736
1.09029
1.09528
1.12176
1.16487
1.2094
1.23456
1.22241
1.16638
1.07461
0.966383
0.863626
0.781681
0.715188
0.660944
0.612549
0.563439
0.509896
0.452755
0.397116
0.350192
0.318254
0.301417
0.303058
0.314253
0.322491
0.316597
0.291331
0.249549
0.200895
0.157632
0.129567
0.116906
0.117398
0.126171
0.137114
0.145114
0.147681
0.145349
0.140826
0.137401
0.137442
0.141104
0.148153
0.158559
0.173278
0.194864
0.227446
0.281151
0.378872
0.532534
0.734506
0.945604
1.11496
1.21932
1.23963
1.15172
0.95231
0.683163
0.415641
0.211317
0.103115
0.0467211
0.0137478
0
0.00712147
0.0303875
0.0682371
0.119435
0.18277
0.255982
0.402051
0.823141
1.56853
2.9482
4.96394
7.14033
8.80873
9.52232
9.18602
7.90515
5.88803
3.5393
1.4804
0.255109
-0.0652938
0.0573137
0.0337168
0.0113113
-0.00684853
-0.0182648
-0.0213343
-0.0153475
0.000978851
0.0245655
0.0513517
0.0776697
0.10157
0.12356
0.146442
0.17429
0.211018
0.258864
0.315861
0.38067
0.451783
0.527506
0.606488
0.688418
0.77389
0.864701
0.9635
1.07315
1.19594
1.33286
1.48316
1.64443
1.81312
1.98602
2.16098
2.3381
2.51997
2.71103
2.91621
3.13927
3.38137
3.64028
3.91211
4.18928
4.45348
4.68743
4.87935
5.02325
5.10876
5.13477
5.0982
4.99415
4.81959
4.57796
4.28109
3.94735
3.59793
3.25212
2.91616
2.59447
2.29182
2.01188
1.75722
1.52946
1.32945
1.15747
1.01375
0.897538
0.808491
0.74689
0.708939
0.689802
0.684022
0.686372
0.692046
0.697612
0.701304
0.702936
0.703435
0.704143
0.706067
0.709291
0.712714
0.714122
0.710657
0.699596
0.679086
0.648634
0.609204
0.562917
0.512532
0.460892
0.410452
0.362765
0.319026
0.27985
0.24516
0.214079
0.184952
0.155284
0.12218
0.0829905
0.0360081
-0.0189302
-0.0800942
-0.144562
-0.204702
-0.250698
-0.273666
-0.268015
-0.233005
-0.173032
-0.0965859
-0.0143195
0.063137
0.12948
0.179649
0.211104
0.223821
0.219893
0.202871
0.177033
0.146786
0.11632
0.0884668
0.065703
0.0501208
0.0433231
0.0464436
0.0606014
0.0862237
0.123686
0.173493
0.238003
0.326497
0.444746
0.587292
0.743138
0.888039
0.99647
1.04943
1.0311
0.933952
0.771432
0.581163
0.408788
0.285763
0.213117
0.162898
0.12411
0.0941924
0.0712697
0.0537135
0.0400234
0.0288958
0.0191824
0.00985656
0
-0.0278713
0.168683
1.04537
2.72212
4.87757
7.00091
8.6743
9.59124
9.46383
8.13699
5.86933
3.37783
1.43675
0.370896
-0.0358667
-0.152991
-0.136539
-0.120465
-0.105628
-0.0922113
-0.0797308
-0.0673075
-0.053982
-0.0393075
-0.0235501
-0.00749106
0.00809109
0.023121
0.038767
0.0575431
0.082871
0.118184
0.165837
0.226202
0.297298
0.375033
0.45481
0.532058
0.604523
0.673361
0.743262
0.821524
0.916336
1.03482
1.18145
1.35306
1.54511
1.75502
1.97969
2.21575
2.45985
2.70854
2.95813
3.20438
3.44231
3.665
3.86387
4.03285
4.16732
4.26443
4.32276
4.34161
4.32011
4.25653
4.14816
3.99546
3.79561
3.54671
3.24844
2.90254
2.51377
2.09339
1.6495
1.18064
0.714844
0.300008
-0.0189472
-0.21579
-0.292938
-0.27896
-0.21491
-0.138256
-0.0732814
-0.0198794
0.0218333
0.051469
0.0698142
0.0786869
0.0808491
0.0797691
0.0791217
0.0820012
0.0907597
0.105637
0.124997
0.145838
0.164661
0.178445
0.185438
0.185582
0.18049
0.173013
0.16647
0.163815
0.166887
0.175901
0.190688
0.208193
0.225094
0.239139
0.249902
0.2586
0.267057
0.276417
0.28633
0.295222
0.301274
0.303216
0.300939
0.295611
0.28931
0.284325
0.282166
0.283969
0.290218
0.300691
0.314804
0.331105
0.347376
0.361261
0.370656
0.374047
0.370681
0.360546
0.344198
0.32256
0.297297
0.269731
0.24132
0.213923
0.189788
0.171264
0.160446
0.15877
0.166683
0.183519
0.207616
0.236674
0.268218
0.300245
0.331568
0.362035
0.392503
0.424569
0.460141
0.50097
0.54806
0.602449
0.663419
0.729243
0.79763
0.862782
0.915234
0.944529
0.941774
0.903339
0.833799
0.745879
0.656645
0.581488
0.528662
0.48896
0.457253
0.427663
0.394018
0.351395
0.297265
0.231914
0.158025
0.0796328
0
0.197865
0.91738
2.46408
4.72984
7.17946
9.18761
10.329
10.3874
9.28061
7.16512
4.59772
2.38879
1.1016
0.664094
0.534563
0.365894
0.24957
0.149034
0.0677899
0.0079164
-0.0269934
-0.0396264
-0.0394014
-0.036024
-0.0367405
-0.0444194
-0.0570126
-0.0684652
-0.0706857
-0.0559109
-0.0227903
0.0269446
0.0928705
0.173217
0.265136
0.365184
0.470452
0.578745
0.688927
0.800932
0.915544
1.03408
1.15809
1.28913
1.42874
1.5783
1.73917
1.91248
2.0989
2.29835
2.50979
2.73105
2.95911
3.1904
3.42119
3.64756
3.86411
4.06617
4.25164
4.41617
4.54883
4.64329
4.68862
4.66979
4.57435
4.40193
4.16813
3.89832
3.61736
3.34454
3.08432
2.83537
2.59951
2.37953
2.17775
1.996
1.83563
1.69764
1.58349
1.49305
1.42565
1.38008
1.3546
1.34706
1.35488
1.37565
1.40869
1.44913
1.48989
1.52308
1.54074
1.53597
1.50413
1.44396
1.35822
1.25367
1.14071
1.03033
0.933301
0.85848
0.808592
0.785981
0.79037
0.819458
0.869697
0.937054
1.01756
1.10727
1.2019
1.29874
1.39483
1.48354
1.5572
1.60784
1.6295
1.62104
1.58754
1.5392
1.48788
1.4428
1.40714
1.37692
1.35007
1.32415
1.29724
1.26845
1.23792
1.20644
1.17486
1.14365
1.11274
1.08181
1.05066
1.01969
0.990098
0.963812
0.942938
0.929483
0.924711
0.928775
0.940395
0.958559
0.980351
1.00285
1.02366
1.0412
1.05456
1.06263
1.0648
1.06028
1.04822
1.02811
1.00021
0.965545
0.925675
0.882281
0.83719
0.791665
0.746998
0.70502
0.668094
0.638956
0.620179
0.613427
0.618783
0.634418
0.657511
0.682808
0.705043
0.720228
0.726554
0.724626
0.717035
0.707455
0.699634
0.696557
0.699217
0.708748
0.725958
0.751578
0.786335
0.836557
0.910015
0.997246
1.07956
1.13443
1.14471
1.1052
1.02265
0.911148
0.787253
0.665798
0.552326
0.449459
0.358953
0.279778
0.210284
0.149017
0.094578
0.0453392
0
-0.0351883
-0.0246395
0.622246
1.95473
3.75549
5.80451
7.96993
9.95611
11.1394
10.8916
9.15134
6.59301
4.14642
2.35745
1.22709
0.551602
0.259483
0.164598
0.0782475
0.00602331
-0.046806
-0.0761206
-0.0801844
-0.0605954
-0.0224019
0.0271305
0.0794004
0.127091
0.165845
0.195021
0.21736
0.237833
0.262066
0.294903
0.339008
0.39308
0.456658
0.528863
0.608593
0.694962
0.787556
0.8868
0.993845
1.11036
1.2382
1.37887
1.53339
1.70211
1.88464
2.08002
2.28691
2.50399
2.73014
2.96428
3.2053
3.45169
3.70175
3.95199
4.19639
4.42522
4.62084
4.77145
4.86797
4.90534
4.88291
4.80371
4.67257
4.49395
4.27112
4.00821
3.72353
3.42696
3.12413
2.82106
2.52407
2.23924
1.97198
1.72662
1.50626
1.31273
1.14681
1.00866
0.896773
0.808698
0.741104
0.690599
0.654075
0.626359
0.60299
0.580891
0.5588
0.537279
0.518233
0.504058
0.496639
0.496125
0.50253
0.512623
0.521981
0.52622
0.522214
0.508924
0.487627
0.461527
0.434927
0.411861
0.394715
0.385384
0.384551
0.391624
0.40485
0.422044
0.439407
0.45286
0.458523
0.453121
0.434297
0.400789
0.352481
0.290351
0.216522
0.134778
0.0479998
-0.0409116
-0.129134
-0.21421
-0.293765
-0.366475
-0.43205
-0.490734
-0.542742
-0.587632
-0.623843
-0.648547
-0.657935
-0.643968
-0.572568
-0.420022
-0.218982
-0.0226553
0.119238
0.182099
0.169963
0.104292
0.0142981
-0.0657207
-0.113678
-0.129878
-0.119423
-0.0954333
-0.0757481
-0.075536
-0.101465
-0.149863
-0.208897
-0.263267
-0.303065
-0.32717
-0.335882
-0.331028
-0.314904
-0.291538
-0.264814
-0.237434
-0.210424
-0.183222
-0.154207
-0.121384
-0.0829448
-0.0375259
0.0152434
0.0760706
0.145611
0.224458
0.312962
0.413804
0.533573
0.663251
0.780225
0.856669
0.870213
0.814824
0.70426
0.565607
0.427657
0.310917
0.211308
0.122487
0.0423148
-0.0297665
-0.0947599
-0.153656
-0.20683
-0.254288
-0.296067
-0.332567
-0.335331
0
0.922945
2.41764
4.2221
6.0815
7.7962
9.03243
9.28288
8.21319
6.07256
3.64339
1.69285
0.474424
-0.229453
-0.670748
-0.610071
-0.547322
-0.483441
-0.420372
-0.361898
-0.313049
-0.279134
-0.264736
-0.272886
-0.304627
-0.358984
-0.433241
-0.523404
-0.624713
-0.731138
-0.838556
-0.943605
-1.04347
-1.13606
-1.21973
-1.29342
-1.35643
-1.40802
-1.44686
-1.47111
-1.47816
-1.46483
-1.42776
-1.3639
-1.27108
-1.14843
-0.996589
-0.817697
-0.61509
-0.392908
-0.155818
0.091514
0.345216
0.601963
0.859047
1.11437
1.36634
1.61359
1.85386
2.08117
2.2861
2.46068
2.59488
2.67909
2.70649
2.67359
2.57912
2.42311
2.20831
1.95076
1.67074
1.38165
1.09751
0.829236
0.580096
0.35681
0.162032
-0.00415888
-0.143587
-0.259
-0.353093
-0.427822
-0.48423
-0.522804
-0.540745
-0.53203
-0.504835
-0.471309
-0.444149
-0.432193
-0.437192
-0.453414
-0.470223
-0.476461
-0.466311
-0.443246
-0.410516
-0.371258
-0.329252
-0.287941
-0.249657
-0.215285
-0.184408
-0.155833
-0.128277
-0.100935
-0.0737446
-0.0472919
-0.0223935
0.000400877
0.0211679
0.0406755
0.0601431
0.0808228
0.10363
0.128922
0.156382
0.185293
0.214751
0.24376
0.270909
0.294471
0.312338
0.32233
0.32274
0.312823
0.292948
0.264336
0.228532
0.187174
0.142241
0.0947478
0.0457984
-0.0027988
-0.048195
-0.0869902
-0.115824
-0.132084
-0.134462
-0.123157
-0.0996796
-0.0663824
-0.0263247
0.0175477
0.0631214
0.108447
0.151526
0.190885
0.225945
0.257393
0.287314
0.31889
0.355692
0.40075
0.455374
0.517931
0.586824
0.659743
0.733718
0.805368
0.870724
0.926275
0.968873
0.995775
1.0047
0.992868
0.959523
0.905338
0.832719
0.74587
0.650432
0.552692
0.458524
0.372374
0.295277
0.227908
0.16947
0.11851
0.0738244
0.0344425
0
-0.0302171
-0.040664
0.557195
1.45628
2.72032
4.46128
6.5161
8.33148
9.27629
9.07305
7.90217
6.1461
4.14301
2.19784
0.671672
-0.140464
-0.26946
-0.283835
-0.296031
-0.305651
-0.311296
-0.311793
-0.306448
-0.294555
-0.276693
-0.256335
-0.237033
-0.220803
-0.206979
-0.192149
-0.171297
-0.139727
-0.0949612
-0.0391091
0.0232575
0.0884356
0.152286
0.211693
0.265533
0.315223
0.364753
0.42015
0.488517
0.576812
0.688613
0.826192
0.990567
1.1806
1.39256
1.62187
1.86356
2.11231
2.36282
2.61015
2.84997
3.07877
3.29409
3.49451
3.67904
3.84446
3.98656
4.10405
4.194
4.24965
4.26349
4.22768
4.136
3.98575
3.7789
3.52218
3.22614
2.9035
2.56774
2.23154
1.90225
1.58658
1.29066
1.01975
0.778027
0.56972
0.398611
0.263348
0.160488
0.0851269
0.0317601
-0.00483413
-0.0289328
-0.0435774
-0.0506936
-0.0513476
-0.0461886
-0.0369235
-0.0259816
-0.0163689
-0.0112904
-0.0132628
-0.0234155
-0.040947
-0.0629456
-0.0846814
-0.100382
-0.104364
-0.092264
-0.0622587
-0.0177759
0.0408157
0.107876
0.17625
0.238502
0.287802
0.319292
0.330555
0.321807
0.295737
0.257046
0.211764
0.1664
0.127027
0.0981192
0.0802176
0.0745097
0.0797107
0.0929107
0.110137
0.127091
0.139823
0.14551
0.142792
0.131741
0.11353
0.0899479
0.0629327
0.0342729
0.00553622
-0.0219751
-0.0469309
-0.0678922
-0.0832316
-0.0915821
-0.0920474
-0.0845086
-0.0698113
-0.0497484
-0.0268211
-0.00382824
0.0166077
0.0325981
0.0429959
0.0475603
0.0468892
0.0422403
0.0352956
0.0279159
0.0219101
0.0187439
0.0195667
0.0250332
0.0352839
0.0499841
0.0684397
0.0899141
0.113555
0.138845
0.165858
0.195429
0.229198
0.269477
0.318919
0.380027
0.455837
0.555674
0.67925
0.812058
0.934667
1.02828
1.07988
1.08487
1.0466
0.974167
0.879499
0.775815
0.671526
0.571631
0.478117
0.390241
0.308294
0.232752
0.165819
0.109048
0.062945
0.0271869
0
-0.0211513
0.458328
1.23561
2.51145
4.44226
6.79168
8.90896
10.1247
10.1638
9.18174
7.50227
5.44024
3.35671
1.69397
0.764175
0.479783
0.384207
0.316601
0.25629
0.207773
0.173928
0.155759
0.152709
0.163326
0.185975
0.218855
0.260921
0.311134
0.368131
0.430132
0.494576
0.558898
0.621238
0.681061
0.739429
0.798796
0.862395
0.933441
1.01357
1.10404
1.20542
1.31772
1.44079
1.57471
1.71994
1.87726
2.04753
2.23133
2.4284
2.63778
2.85759
3.08509
3.31681
3.54879
3.77685
3.99673
4.20436
4.39511
4.56279
186
373
553
743
936
1121
1294
1475
1663
1843
2016
2199
2389
2574
2746
2927
3129
3325
3507
3699
3368
3539
3718
3491
3646
0
0
0
0
0
0
0
0
0
0
0
0
0
0
0
0
0
0
0
0
0
0
0
0
0
0
0
0
0
0
0
0
0
0
0
0
0
0
0
0
0
0
0
0
0
0
0
0
0
0
0
0
0
0
0
0
0
0
0
0
0
0
0
0
0
0
0
0
0
0
0
0
0
0
0
0
0
0
0
0
0
0
0
0
0
0
0
0
0
0
0
0
0
0
0
0
0
0
0
0
0
0
0
0
0
0
0
0
0
0
0
0
0
0
0
0
0
0
0
0
0
0
0
0
0
0
0
0
0
0
0
0
0
0
0
0
0
0
0
0
0
0
0
0
0
0
0
0
0
0
0
0
0
0
0
0
0
0
0
0
0
0
0
0
0
0
0
0
0
0
0
0
0
0
0
0
0
0
0
0
0
0
0
0
0
0
0
0
0
0
0
0
0
0
0
0
0
0
0
0
0
0
0
0
0
0
0
0
0
0
0
0
0
0
0
0
0
0
0
0
0
0
0
0
0
0
0
0
0
0
0
0
0
0
0
0
0
0
0
0
0
0
0
0
0
0
0
0
0
0
0
0
0
0
0
0
0
0
0
0
0
0
0
0
0
0
0
0
0
0
0
0
0
0
0
0
0
0
0
0
0
0
0
0
0
0
0
0
0
0
0
0
0
0
0
0
0
0
0
0
0
0
0
0
0
0
0
0
0
0
0
0
0
0
0
0
0
0
0
0
0
0
0
0
0
0
0
0
0
0
0
0
0
0
0
0
0
0
0
0
0
0
0
0
0
0
0
0
0
0
0
0
0
0
0
0
0
0
0
0
0
0
0
0
0
0
0
0
0
0
0
0
0
0
0
0
0
0
0
0
0
0
0
0
0
0
0
0
0
0
0
0
0
0
0
0
0
0
0
0
0
0
0
0
0
0
0
0
0
0
0
0
0
0
0
0
0
0
0
0
0
0
0
0
0
0
0
0
0
0
0
0
0
0
0
0
0
0
0
0
0
0
0
0
0
0
0
0
0
0
0
0
0
0
0
0
0
0
0
0
0
0
0
0
0
0
0
0
0
0
0
0
0
0
0
0
0
0
0
0
0
0
0
0
0
0
0
0
0
0
0
0
0
0
0
0
0
0
0
0
0
0
0
0
0
0
0
0
0
0
0
0
0
0
0
0
0
0
0
0
0
0
0
0
0
0
0
0
0
0
0
0
0
0
0
0
0
0
0
0
0
0
0
0
0
0
0
0
0
0
0
0
0
0
0
0
0
0
0
0
0
0
0
0
0
0
0
0
0
0
0
0
0
0
0
0
0
0
0
0
0
0
0
0
0
0
0
0
0
0
0
0
0
0
0
0
0
0
0
0
0
0
0
0
0
0
0
0
0
0
0
0
0
0
0
0
0
0
0
0
0
0
0
0
0
0
0
0
0
0
0
0
0
0
0
0
0
0
0
0
0
0
0
0
0
0
0
0
0
0
0
0
0
0
0
0
0
0
0
0
0
0
0
0
0
0
0
0
0
0
0
0
0
0
0
0
0
0
0
0
0
0
0
0
0
0
0
0
0
0
0
0
0
0
0
0
0
0
0
0
0
0
0
0
0
0
0
0
0
0
0
0
0
0
0
0
0
0
0
0
0
0
0
0
0
0
0
0
0
0
0
0
0
0
0
0
0
0
0
0
0
0
0
0
0
0
0
0
0
0
0
0
0
0
0
0
0
0
0
0
0
0
0
0
0
0
0
0
0
0
0
0
0
0
0
0
0
0
0
0
0
0
0
0
0
0
0
0
0
0
0
0
0
0
0
0
0
0
0
0
0
0
0
0
0
0
0
0
0
0
0
0
0
0
0
0
0
0
0
0
0
0
0
0
0
0
0
0
0
0
0
0
0
0
0
0
0
0
0
0
0
0
0
0
0
0
0
0
0
0
0
0
0
0
0
0
0
0
0
0
0
0
0
0
0
0
0
0
0
0
0
0
0
0
0
0
0
0
0
0
0
0
0
0
0
0
0
0
0
0
0
0
0
0
0
0
0
0
0
0
0
0
0
0
0
0
0
0
0
0
0
0
0
0
0
0
0
0
0
0
0
0
0
0
0
0
0
0
0
0
0
0
0
0
0
0
0
0
0
0
0
0
0
0
0
0
0
0
0
0
0
0
0
0
0
0
0
0
0
0
0
0
0
0
0
0
0
0
0
0
0
0
0
0
0
0
0
0
0
0
0
0
0
0
0
0
0
0
0
0
0
0
0
0
0
0
0
0
0
0
0
0
0
0
0
0
0
0
0
0
0
0
0
0
0
0
0
0
0
0
0
0
0
0
0
0
0
0
0
0
0
0
0
0
0
0
0
0
0
0
0
0
0
0
0
0
0
0
0
0
0
0
0
0
0
0
0
0
0
0
0
0
0
0
0
0
0
0
0
0
0
0
0
0
0
0
0
0
0
0
0
0
0
0
0
0
0
0
0
0
0
0
0
0
0
0
0
0
0
0
0
0
0
0
0
0
0
0
0
0
0
0
0
0
0
0
0
0
0
0
0
0
0
0
0
0
0
0
0
0
0
0
0
0
0
0
0
0
0
0
0
0
0
0
0
0
0
0
0
0
0
0
0
0
0
0
0
0
0
0
0
0
0
0
0
0
0
0
0
0
0
0
0
0
0
0
0
0
0
0
0
0
0
0
0
0
0
0
0
0
0
0
0
0
0
0
0
0
0
0
0
0
0
0
0
0
0
0
0
0
0
0
0
0
0
0
0
0
0
0
0
0
0
0
0
0
0
0
0
0
0
0
0
0
0
0
0
0
0
0
0
0
0
0
0
0
0
0
0
0
0
0
0
0
0
0
0
0
0
0
0
0
0
0
0
0
0
0
0
0
0
0
0
0
0
0
0
0
0
0
0
0
0
0
0
0
0
0
0
0
0
0
0
0
0
0
0
0
0
0
0
0
0
0
0
0
0
0
0
0
0
0
0
0
0
0
0
0
0
0
0
0
0
0
0
0
0
0
0
0
0
0
0
0
0
0
0
0
0
0
0
0
0
0
0
0
0
0
0
0
0
0
0
0
0
0
0
0
0
0
0
0
0
0
0
0
0
0
0
0
0
0
0
0
0
0
0
0
0
0
0
0
0
0
0
0
0
0
0
0
0
0
0
0
0
0
0
0
0
0
0
0
0
0
0
0
0
0
0
0
0
0
0
0
0
0
0
0
0
0
0
0
0
0
0
0
0
0
0
0
0
0
0
0
0
0
0
0
0
0
0
0
0
0
0
0
0
0
0
0
0
0
0
0
0
0
0
0
0
0
0
0
0
0
0
0
0
0
0
0
0
0
0
0
0
0
0
0
0
0
0
0
0
0
0
0
0
0
0
0
0
0
0
0
0
0
0
0
0
0
0
0
0
0
0
0
0
0
0
0
0
0
0
0
0
0
0
0
0
0
0
0
0
0
0
0
0
0
0
0
0
0
0
0
0
0
0
0
0
0
0
0
0
0
0
0
0
0
0
0
0
0
0
0
0
0
0
0
0
0
0
0
0
0
0
0
0
0
0
0
0
0
0
0
0
0
0
0
0
0
0
0
0
0
0
0
0
0
0
0
0
0
0
0
0
0
0
0
0
0
0
0
0
0
0
0
0
0
0
0
0
0
0
0
0
0
0
0
0
0
0
0
0
0
0
0
0
0
0
0
0
0
0
0
0
0
0
0
0
0
0
0
0
0
0
0
0
0
0
0
0
0
0
0
0
0
0
0
0
0
0
0
0
0
0
0
0
0
0
0
0
0
0
0
0
0
0
0
0
0
0
0
0
0
0
0
0
0
0
0
0
0
0
0
0
0
0
0
0
0
0
0
0
0
0
0
0
0
0
0
0
0
0
0
0
0
0
0
0
0
0
0
0
0
0
0
0
0
0
0
0
0
0
0
0
0
0
0
0
0
0
0
0
0
0
0
0
0
0
0
0
0
0
0
0
0
0
0
0
0
0
0
0
0
0
0
0
0
0
0
0
0
0
0
0
0
0
0
0
0
0
0
0
0
0
0
0
0
0
0
0
0
0
0
0
0
0
0
0
0
0
0
0
0
0
0
0
0
0
0
0
0
0
0
0
0
0
0
0
0
0
0
0
0
0
0
0
0
0
0
0
0
0
0
0
0
0
0
0
0
0
0
0
0
0
0
0
0
0
0
0
0
0
0
0
0
0
0
0
0
0
0
0
0
0
0
0
0
0
0
0
0
0
0
0
0
0
0
0
0
0
0
0
0
0
0
0
0
0
0
0
0
0
0
0
0
0
0
0
0
0
0
0
0
0
0
0
0
0
0
0
0
0
0
0
0
0
0
0
0
0
0
0
0
0
0
0
0
0
0
0
0
0
0
0
0
0
0
0
0
0
0
0
0
0
0
0
0
0
0
0
0
0
0
0
0
0
0
0
0
0
0
0
0
0
0
0
0
0
0
0
0
0
0
0
0
0
0
0
0
0
0
0
0
0
0
0
0
0
0
0
0
0
0
0
0
0
0
0
0
0
0
0
0
0
0
0
0
0
0
0
0
0
0
0
0
0
0
0
0
0
0
0
0
0
0
0
0
0
0
0
0
0
0
0
0
0
0
0
0
0
0
0
0
0
0
0
0
0
0
0
0
0
0
0
0
0
0
0
0
0
0
0
0
0
0
0
0
0
0
0
0
0
0
0
0
0
0
0
0
0
0
0
0
0
0
0
0
0
0
0
0
0
0
0
0
0
0
0
0
0
0
0
0
0
0
0
0
0
0
0
0
0
0
0
0
0
0
0
0
0
0
0
0
0
0
0
0
0
0
0
0
0
0
0
0
0
0
0
0
0
0
0
0
0
0
0
0
0
0
0
0
0
0
0
0
0
0
0
0
0
0
0
0
0
0
0
0
0
0
0
0
0
0
0
0
0
0
0
0
0
0
0
0
0
0
0
0
0
0
0
0
0
0
0
0
0
0
0
0
0
0
0
0
0
0
0
0
0
0
0
0
0
0
0
0
0
0
0
0
0
0
0
0
0
0
0
0
0
0
0
0
0
0
0
0
0
0
0
0
0
0
0
0
0
0
0
0
0
0
0
0
0
0
0
0
0
0
0
0
0
0
0
0
0
0
0
0
0
0
0
0
0
0
0
0
0
0
0
0
0
0
0
0
0
0
0
0
0
0
0
0
0
0
0
0
0
0
0
0
0
0
0
0
0
0
0
0
0
0
0
0
0
0
0
0
0
0
0
0
0
0
0
0
0
0
0
0
0
0
0
0
0
0
0
0
0
0
0
0
0
0
0
0
0
0
0
0
0
0
0
0
0
0
0
0
0
0
0
0
0
0
0
0
0
0
0
0
0
0
0
0
0
0
0
0
0
0
0
0
0
0
0
0
0
0
0
0
0
0
0
0
0
0
0
0
0
0
0
0
0
0
0
0
0
0
0
0
0
0
0
0
0
0
0
0
0
0
0
0
0
0
0
0
0
0
0
0
0
0
0
0
0
0
0
0
0
0
0
0
0
0
0
0
0
0
0
0
0
0
0
0
0
0
0
0
0
0
0
0
0
0
0
0
0
0
0
0
0
0
0
0
0
0
0
0
0
0
0
0
0
0
0
0
0
0
0
0
0
0
0
0
0
0
0
0
0
0
0
0
0
0
0
0
0
0
0
0
0
0
0
0
0
0
0
0
0
0
0
0
0
0
0
0
0
0
0
0
0
0
0
0
0
0
0
0
0
0
0
0
0
0
0
0
0
0
0
0
0
0
0
0
0
0
0
0
0
0
0
0
0
0
0
0
0
0
0
0
0
0
0
0
0
0
0
0
0
0
0
0
0
0
0
0
0
0
0
0
0
0
0
0
0
0
0
0
0
0
0
0
0
0
0
0
0
0
0
0
0
0
0
0
0
0
0
0
0
0
0
0
0
0
0
0
0
0
0
0
0
0
0
0
0
0
0
0
0
0
0
0
0
0
0
0
0
0
0
0
0
0
0
0
0
0
0
0
0
0
0
0
0
0
0
0
0
0
0
0
0
0
0
0
0
0
0
0
0
0
0
0
0
0
0
0
0
0
0
0
0
0
0
0
0
0
0
0
0
0
0
0
0
0
0
0
0
0
0
0
0
0
0
0
0
0
0
0
0
0
0
0
0
0
0
0
0
0
0
0
0
0
0
0
0
0
0
0
0
0
0
0
0
0
0
0
0
0
0
0
0
0
0
0
0
0
0
0
0
0
0
0
0
0
0
0
0
0
0
0
0
0
0
0
0
0
0
0
0
0
0
0
0
0
0
0
0
0
0
0
0
0
0
0
0
0
0
0
0
0
0
0
0
0
0
0
0
0
0
0
0
0
0
0
0
0
0
0
0
0
0
0
0
0
0
0
0
0
0
0
0
0
0
0
0
0
0
0
0
0
0
0
0
0
0
0
0
0
0
0
0
0
0
0
0
0
0
0
0
0
0
0
0
0
0
0
0
0
0
0
0
0
0
0
0
0
0
0
0
0
0
0
0
0
0
0
0
0
0
0
0
0
0
0
0
0
0
0
0
0
0
0
0
0
0
0
0
0
0
0
0
0
0
0
0
0
0
0
0
0
0
0
0
0
0
0
0
0
0
0
0
0
0
0
0
0
0
0
0
0
0
0
0
0
0
0
0
0
0
0
0
0
0
0
0
0
0
0
0
0
0
0
0
0
0
0
0
0
0
0
0
0
0
0
0
0
0
0
0
0
0
0
0
0
0
0
0
0
0
0
0
0
0
0
0
0
0
0
0
0
0
0
0
0
0
0
0
0
0
0
0
0
0
0
0
0
0
0
0
0
0
0
0
0
0
0
0
0
0
0
0
0
0
0
0
0
0
0
0
0
0
0
0
0
0
0
0
0
0
0
0
0
0
0
0
0
0
0
0
0
0
0
0
0
0
0
0
0
0
0
0
0
0
0
0
0
0
0
0
0
0
0
0
0
0
0
0
0
0
0
0
0
0
0
0
0
0
0
0
0
0
0
0
0
0
0
0
0
0
0
0
0
0
0
0
0
0
0
0
0
0
0
0
0
0
0
0
0
0
0
0
0
0
0
0
0
0
0
0
0
0
0
0
0
0
0
0
0
0
0
0
0
0
0
0
0
0
0
0
0
0
0
0
0
0
0
0
0
0
0
0
0
0
0
0
0
0
0
0
0
0
0
0
0
0
0
0
0
0
0
0
0
0
0
0
0
0
0
0
0
0
0
0
0
0
0
0
0
0
0
0
0
0
0
0
0
0
0
0
0
0
0
0
0
0
0
0
0
0
0
0
0
0
0
0
0
0
0
0
0
0
0
0
0
0
0
0
0
0
0
0
0
0
0
0
0
0
0
0
0
0
0
0
0
0
0
0
0
0
0
0
0
0
0
0
0
0
0
0
0
0
0
0
0
0
0
0
0
0
0
0
0
0
0
0
0
0
0
0
0
0
0
0
0
0
0
0
0
0
0
0
0
0
0
0
0
0
0
0
0
0
0
0
0
0
0
0
0
0
0
0
0
0
0
0
0
0
0
0
0
0
0
0
0
0
0
0
0
0
0
0
0
0
0
0
0
0
0
0
0
0
0
0
0
0
0
0
0
0
0
0
0
0
0
0
0
0
0
0
0
0
0
0
0
0
0
0
0
0
0
0
0
0
0
0
0
0
0
0
0
0
0
0
0
0
0
0
0
0
0
0
0
0
0
0
0
0
0
0
0
0
0
0
0
0
0
0
0
0
0
0
0
0
0
0
0
0
0
0
0
0
0
0
0
0
0
0
0
0
0
0
0
0
0
0
0
0
0
0
0
0
0
0
0
0
0
0
0
0
0
0
0
0
0
0
0
0
0
0
0
0
0
0
0
0
0
0
0
0
0
0
0
0
0
0
0
0
0
0
0
0
0
0
0
0
0
0
0
0
0
0
0
0
0
0
0
0
0
0
0
0
0
0
0
0
0
0
0
0
0
0
0
0
0
0
0
0
0
0
0
0
0
0
0
0
0
0
0
0
0
0
0
0
0
0
0
0
0
0
0
0
0
0
0
0
0
0
0
0
0
0
0
0
0
0
0
0
0
0
0
0
0
0
0
0
0
0
0
0
0
0
0
0
0
0
0
0
0
0
0
0
0
0
0
0
0
0
0
0
0
0
0
0
0
0
0
0
0
0
0
0
0
0
0
0
0
0
0
0
0
0
0
0
0
0
0
0
0
0
0
0
0
0
0
0
0
0
0
0
0
0
0
0
0
0
0
0
0
0
0
0
0
0
0
0
0
0
0
0
0
0
0
0
0
0
0
0
0
0
0
0
0
0
0
0
0
0
0
0
0
0
0
0
0
0
0
0
0
0
0
0
0
0
0
0
0
0
0
0
0
0
0
0
0
0
0
0
0
0
0
0
0
0
0
0
0
0
0
0
0
