-0.364628
-0.32252
-0.284531
-0.250521
-0.219474
-0.19003
-0.161063
-0.132102
-0.103454
-0.0761152
-0.0514253
-0.030621
-0.014422
-0.00276496
0.00524237
0.0111486
0.0168244
0.0240628
0.0342094
0.0477998
0.0646289
0.084004
0.104814
0.125586
0.144798
0.161254
0.17435
0.184217
0.191738
0.1984
0.206036
0.216532
0.231574
0.252236
0.279173
0.312939
0.353958
0.402521
0.458829
0.523024
0.595226
0.67556
0.764217
0.86146
0.967556
1.0834
1.21148
1.35515
1.51535
1.68481
1.84519
1.97744
2.06586
2.09743
2.06188
1.95455
1.78115
1.56104
1.32595
1.11245
0.937819
0.795034
0.674564
0.573373
0.491224
0.427335
0.379896
0.344869
0.317448
0.292859
0.266957
0.236674
0.20026
0.157289
0.108457
0.0552986
0
0.00694097
0.418244
1.65095
4.03875
7.56315
11.6751
15.354
17.454
17.209
14.6244
10.5156
6.14102
2.63309
0.55277
-0.206552
-0.174685
-0.075881
-0.0951846
-0.123014
-0.151843
-0.173991
-0.183442
-0.177496
-0.157533
-0.128483
-0.0970825
-0.0695296
-0.0484029
-0.0326038
-0.0203081
-0.00862589
0.00609188
0.0275746
0.0588138
0.101721
0.157075
0.224547
0.302931
0.390559
0.485789
0.587419
0.694916
0.8084
0.928386
1.05538
1.18942
1.32978
1.47483
1.62212
1.76871
1.91151
2.0477
2.17502
2.29191
2.3975
2.49151
2.5739
2.64436
2.70184
2.74441
2.77034
2.77792
2.76535
2.7315
2.67658
2.60238
2.51208
2.40963
2.29918
2.18495
2.0703
1.95764
1.84927
1.74743
1.65412
1.57086
1.49846
1.43685
1.38508
1.34152
1.30408
1.27065
1.23932
1.20866
1.17779
1.14636
1.1145
1.08265
1.0515
1.02189
0.994674
0.970759
0.95103
0.936368
0.927632
0.925586
0.93079
0.943437
0.963241
0.989364
1.02048
1.05493
1.091
1.12708
1.16187
1.19426
1.22325
1.24798
1.26746
1.28046
1.28553
1.28145
1.26744
1.24335
1.20989
1.16864
1.12195
1.07265
1.02367
0.977651
0.936419
0.9009
0.871705
0.849206
0.83359
0.824999
0.823645
0.829855
0.844068
0.866809
0.898633
0.940059
0.991986
1.0576
1.14569
1.27697
1.47712
1.72442
1.96629
2.15263
2.23139
2.15749
1.91116
1.51606
1.04632
0.625447
0.385408
0.260676
0.175734
0.112092
0.0674679
0.0386147
0.0216469
0.0123734
0.00649681
0
-0.00675049
-0.021508
-0.0471558
-0.0857132
-0.139604
-0.210121
-0.293771
-0.388271
-0.501322
-0.0390152
1.4508
4.17174
7.81346
11.5085
14.1161
14.7316
13.1392
9.92573
6.17647
2.94424
0.813786
-0.209563
-0.495157
-0.466123
-0.453065
-0.442026
-0.434659
-0.431577
-0.432109
-0.434329
-0.43534
-0.431805
-0.420572
-0.399261
-0.36668
-0.322974
-0.269471
-0.208271
-0.141739
-0.0719078
7.28607e-005
0.073925
0.150135
0.229622
0.313298
0.401664
0.494568
0.591152
0.690222
0.790585
0.891403
0.992442
1.09414
1.19745
1.30349
1.4131
1.52641
1.64256
1.75957
1.87425
1.98263
2.08068
2.1649
2.23279
2.28307
2.31541
2.33004
2.32713
2.30636
2.26766
2.2102
2.13268
2.03426
1.91522
1.77739
1.62417
1.46038
1.29168
1.12388
0.962211
0.810842
0.672567
0.548865
0.440165
0.346254
0.266777
0.201397
0.149749
0.111502
0.0861849
0.0729919
0.070635
0.0773012
0.0907486
0.10844
0.127603
0.145517
0.159802
0.168639
0.170972
0.166682
0.156695
0.142957
0.128428
0.117487
0.114962
0.125306
0.151753
0.195587
0.255709
0.328655
0.409086
0.490691
0.567349
0.634077
0.687706
0.7271
0.752854
0.766587
0.770095
0.764625
0.750867
0.729174
0.699322
0.660065
0.611926
0.561045
0.516998
0.489767
0.486886
0.511307
0.560799
0.629083
0.708227
0.791408
0.874953
0.958646
1.04368
1.1324
1.22876
1.33614
1.45041
1.55836
1.64369
1.69168
1.69272
1.64411
1.55019
1.42153
1.27295
1.12089
0.977826
0.848259
0.732095
0.628911
0.539632
0.464803
0.404339
0.357551
0.323136
0.299028
0.282244
0.268882
0.254496
0.234892
0.206777
0.16835
0.119667
0.0626831
0
-0.00489082
0.527799
1.95094
4.41498
7.67587
11.0537
13.6171
14.5489
13.5187
10.8507
7.37964
4.0704
1.61799
0.241217
-0.257439
-0.259383
-0.166381
-0.0777512
0.0028574
0.072901
0.131287
0.179897
0.220313
0.254787
0.285947
0.316336
0.348007
0.382234
0.419368
0.45908
0.500671
0.543342
0.586469
0.629835
0.673744
0.719033
0.766971
0.819093
0.876994
0.942113
1.01554
1.09787
1.18913
1.28878
1.39576
1.50868
1.62593
1.74587
1.86691
1.98755
2.1063
2.22122
2.32942
2.42727
2.51144
2.57871
2.62664
2.65419
2.66206
2.65249
2.62862
2.5936
2.54963
2.49795
2.43869
2.3715
2.296
2.21189
2.11961
2.02047
1.91645
1.8098
1.70267
1.59678
1.4934
1.39345
1.29773
1.20706
1.12246
1.04511
0.976236
0.91689
0.867888
0.829764
0.802881
0.787096
0.781835
0.786533
0.800006
0.819525
0.841769
0.863416
0.881755
0.895212
0.903649
0.908351
0.911688
0.916535
0.9254
0.939816
0.960261
0.986627
1.01693
1.04791
1.0761
1.09865
1.11406
1.12239
1.12515
1.12473
1.12363
1.12377
1.12591
1.12997
1.13519
1.14042
1.14452
1.14666
1.14656
1.14448
1.14112
1.13747
1.1346
1.1335
1.13509
1.14026
1.14992
1.16492
1.18605
1.21395
1.24904
1.29153
1.34145
1.39879
1.46356
1.53638
1.62
1.72317
1.86067
2.01909
2.16144
2.23812
2.20656
2.05267
1.80224
1.5147
1.2606
1.09248
0.976118
0.882492
0.805931
0.742864
0.689431
0.641908
0.59701
0.552063
0.504827
0.453423
0.396783
0.33499
0.26906
0.200944
0.13288
0.0659245
0
0.104798
0.646394
1.97326
4.28586
7.41835
10.7492
13.354
14.3747
13.4273
10.811
7.37782
4.13006
1.78152
0.529389
0.126998
0.150054
0.176483
0.202636
0.228153
0.252903
0.277005
0.300774
0.324621
0.348952
0.374115
0.400396
0.428087
0.457578
0.489437
0.524423
0.563411
0.607311
0.656943
0.712933
0.775678
0.845372
0.922055
1.00565
1.09591
1.19222
1.29358
1.39892
1.50633
1.61321
1.7172
1.81682
1.91185
2.00346
2.09367
2.1847
2.27803
2.37369
2.47037
2.56535
2.65488
2.73495
2.80181
2.85243
2.88465
2.8972
2.88957
2.86186
2.81467
2.74935
2.66816
2.57376
2.46883
2.35588
2.23749
2.11631
1.99495
1.87583
1.76107
1.65239
1.55101
1.45762
1.3724
1.29511
1.22527
1.16235
1.10593
1.05582
1.01193
0.974183
0.942272
0.915432
0.892405
0.871601
0.851387
0.830432
0.807983
0.783986
0.759007
0.734004
0.710008
0.687911
0.668345
0.651735
0.638448
0.62894
0.623811
0.623707
0.629383
0.641375
0.65898
0.680325
0.703012
0.724738
0.743882
0.759825
0.772858
0.783711
0.792916
0.800362
0.805217
0.805988
0.800919
0.788507
0.767963
0.739533
0.704589
0.665449
0.624981
0.586053
0.551085
0.521718
0.498648
0.481754
0.470398
0.463847
0.461632
0.463684
0.470441
0.482784
0.501773
0.52839
0.563335
0.606926
0.659095
0.719489
0.787584
0.862788
0.94443
1.03157
1.12375
1.21927
1.3123
1.39333
1.45117
1.47551
1.45957
1.40202
1.30734
1.18463
1.04534
0.90139
0.760763
0.627159
0.503737
0.393098
0.296906
0.215809
0.149374
0.0960365
0.0531403
0.0170982
-0.0163597
-0.051786
-0.094606
-0.153633
-0.233085
-0.330259
-0.437871
-0.465968
0
1.28037
3.57047
6.73752
10.2158
13.0999
14.4701
13.8114
11.2886
7.69259
4.07712
1.2947
-0.305429
-0.882883
-0.873129
-0.826676
-0.781375
-0.737644
-0.695467
-0.654411
-0.613825
-0.573185
-0.53233
-0.491637
-0.452181
-0.415552
-0.383436
-0.357153
-0.337252
-0.32327
-0.313725
-0.306307
-0.298222
-0.286536
-0.268713
-0.242782
-0.207074
-0.160069
-0.10051
-0.0276031
0.0588089
0.158071
0.26861
0.387971
0.513044
0.640414
0.766794
0.889394
1.00616
1.11582
1.21773
1.31157
1.39711
1.4741
1.54203
1.60012
1.6472
1.6813
1.69992
1.70094
1.68247
1.64316
1.58283
1.50282
1.40628
1.29788
1.18326
1.0682
0.957419
0.853922
0.75967
0.67533
0.600531
0.534248
0.475212
0.422244
0.374469
0.331392
0.292868
0.258926
0.229633
0.205072
0.185043
0.169157
0.157054
0.148586
0.143946
0.143684
0.148526
0.15908
0.175486
0.197028
0.222534
0.24976
0.275626
0.29715
0.312194
0.320036
0.321622
0.319413
0.316854
0.317611
0.324762
0.339787
0.362543
0.392075
0.427074
0.466055
0.507685
0.551057
0.595753
0.641688
0.688921
0.737023
0.783466
0.823338
0.850679
0.86041
0.85029
0.821991
0.780772
0.733911
0.688558
0.649661
0.618089
0.593151
0.574774
0.562887
0.557526
0.558856
0.566975
0.581653
0.602117
0.627131
0.655077
0.68447
0.714418
0.744924
0.776926
0.812056
0.852217
0.899126
0.953667
1.01606
1.08626
1.16394
1.24864
1.33997
1.43763
1.54192
1.65449
1.77923
1.92072
2.07337
2.21507
2.31828
2.35741
2.31629
2.19296
2.00101
1.76753
1.52843
1.31955
1.1493
1.00711
0.884279
0.777518
0.685135
0.604391
0.531736
0.463188
0.394683
0.322253
0.241707
0.147108
0.0286625
-0.113832
-0.274989
-0.446326
-0.496854
0
1.43079
4.02733
7.58186
11.3844
14.3943
15.6366
14.6468
11.7158
7.77816
3.98519
1.20471
-0.273056
-0.693929
-0.554095
-0.491675
-0.436452
-0.392901
-0.361308
-0.336024
-0.312802
-0.288943
-0.262494
-0.232592
-0.199488
-0.164281
-0.128493
-0.0935627
-0.0605061
-0.0297073
-0.000828171
0.0271336
0.0557053
0.0867302
0.122142
0.163733
0.212976
0.270883
0.337963
0.414238
0.49933
0.592578
0.69314
0.800066
0.912314
1.02874
1.14806
1.26889
1.38977
1.5093
1.6262
1.73941
1.84801
1.95064
2.04462
2.12507
2.18661
2.22403
2.23263
2.21039
2.15938
2.08557
1.99694
1.90053
1.80012
1.69637
1.58893
1.47705
1.36025
1.23903
1.1149
0.989994
0.86653
0.746096
0.629631
0.517326
0.408794
0.303462
0.201219
0.103277
0.0127562
-0.06619
-0.128938
-0.172134
-0.195263
-0.201348
-0.196383
-0.187633
-0.181379
-0.180543
-0.18448
-0.190526
-0.194502
-0.19209
-0.180396
-0.159446
-0.130666
-0.0957413
-0.0576189
-0.0192644
0.0170439
0.0501352
0.0799709
0.10729
0.133016
0.157654
0.180855
0.201327
0.217205
0.226638
0.228456
0.222663
0.210576
0.194585
0.177631
0.162544
0.151363
0.144975
0.143328
0.145716
0.150993
0.157792
0.164723
0.17042
0.173376
0.171865
0.164381
0.149699
0.127164
0.0970366
0.0606819
0.0204421
-0.0208153
-0.0603329
-0.0960383
-0.127113
-0.153259
-0.174539
-0.19091
-0.201884
-0.2065
-0.203604
-0.19232
-0.17249
-0.14534
-0.112613
-0.0759327
-0.0366866
0.0043088
0.0470557
0.0924069
0.141881
0.197316
0.260448
0.332519
0.413992
0.504436
0.602589
0.706585
0.814289
0.9236
1.03261
1.13924
1.2402
1.32956
1.3996
1.43864
1.43323
1.37309
1.25619
1.09143
0.89748
0.698447
0.517923
0.363655
0.232436
0.127329
0.0490544
-0.00374527
-0.0340694
-0.0460588
-0.0444982
-0.0343698
-0.0205224
-0.00705609
0.00292902
0.00752158
0.00622745
0
-0.0167645
-0.155867
0.0825421
1.09061
3.15979
6.2756
9.96784
13.3473
15.3861
15.356
13.1961
9.57984
5.61458
2.34179
0.324122
-0.467849
-0.467087
-0.245215
-0.237347
-0.235473
-0.23794
-0.242407
-0.246491
-0.248381
-0.246842
-0.241399
-0.232284
-0.220163
-0.205754
-0.189553
-0.171537
-0.151169
-0.127535
-0.0995305
-0.0660645
-0.0262468
0.0204792
0.074251
0.13477
0.201364
0.273126
0.349136
0.428715
0.511637
0.598237
0.689329
0.785918
0.888759
0.997883
1.11226
1.22969
1.34706
1.46078
1.56752
1.6648
1.75141
1.8274
1.89379
1.95164
2.00166
2.04364
2.07604
2.09647
2.10153
2.08768
2.05187
1.99201
1.90711
1.79744
1.66459
1.51223
1.34712
1.17625
1.00616
0.844042
0.696643
0.569318
0.465203
0.384802
0.326098
0.285152
0.257003
0.23663
0.219626
0.202985
0.185022
0.165304
0.144462
0.123808
0.105051
0.0900255
0.0804319
0.0775919
0.0821457
0.0942703
0.113582
0.139058
0.169237
0.202065
0.235119
0.265908
0.292039
0.31138
0.322507
0.324898
0.318905
0.305718
0.287238
0.265844
0.244086
0.224345
0.208527
0.197673
0.191932
0.190982
0.194002
0.199837
0.206896
0.213253
0.217165
0.21743
0.213687
0.206538
0.197429
0.188292
0.181034
0.177035
0.176669
0.179547
0.18501
0.192288
0.200826
0.210477
0.221496
0.234332
0.249323
0.266384
0.284845
0.303347
0.319978
0.332699
0.33979
0.340261
0.334128
0.322493
0.30741
0.291547
0.277727
0.26843
0.26528
0.268918
0.27926
0.295954
0.318575
0.346932
0.381296
0.42253
0.471962
0.531134
0.601456
0.683842
0.778486
0.884772
1.00166
1.12779
1.26136
1.39964
1.53702
1.66294
1.76501
1.82814
1.83665
1.77921
1.65419
1.47253
1.25673
1.0359
0.837418
0.667755
0.521238
0.395061
0.290001
0.205501
0.139763
0.0900082
0.0527409
0.0240646
0
-0.0268688
-0.0574768
-0.0949314
-0.140973
-0.195659
-0.257325
-0.322868
-0.327269
0.246922
1.78292
4.49417
8.19946
12.2021
15.4245
16.8149
15.845
12.8039
8.68196
4.6973
1.75134
0.128709
-0.43308
-0.431579
-0.369095
-0.308733
-0.2526
-0.202782
-0.16167
-0.130876
-0.111479
-0.103817
-0.1073
-0.120333
-0.140377
-0.164146
-0.187854
-0.20752
-0.219778
-0.221733
-0.210344
-0.183104
-0.138306
-0.075304
0.00534401
0.101887
0.211603
0.331186
0.457082
0.586212
0.716176
0.845332
0.97278
1.09823
1.22181
1.34379
1.46438
1.5835
1.70064
1.81481
1.92454
2.02807
2.12377
2.21031
2.28696
2.35358
2.41022
2.45642
2.49108
2.51234
2.51761
2.50329
2.4656
2.40157
2.31006
2.19236
2.05231
1.89586
1.73036
1.56311
1.39944
1.24314
1.09695
0.96243
0.840213
0.730417
0.633172
0.548404
0.475978
0.415784
0.367593
0.330904
0.30486
0.288261
0.279647
0.277449
0.280083
0.286148
0.294526
0.304383
0.315135
0.326392
0.337879
0.349339
0.360452
0.370781
0.379789
0.386908
0.39165
0.393737
0.393191
0.390375
0.385948
0.380762
0.375701
0.37154
0.368821
0.367797
0.368451
0.370564
0.373805
0.377821
0.382318
0.387164
0.392464
0.398571
0.406029
0.415435
0.427237
0.441529
0.457899
0.475394
0.492641
0.50805
0.520076
0.527459
0.529387
0.525574
0.516247
0.502081
0.484153
0.463818
0.442558
0.421888
0.403193
0.387552
0.375652
0.367677
0.363185
0.361212
0.360755
0.361133
0.362233
0.364536
0.368897
0.376154
0.386702
0.400416
0.416195
0.432357
0.447437
0.460947
0.473921
0.489022
0.510167
0.541787
0.587932
0.650679
0.729865
0.824581
0.936125
1.07385
1.26294
1.53229
1.85026
2.14381
2.34963
2.4304
2.37834
2.2061
1.93621
1.59776
1.23491
0.920159
0.682916
0.497639
0.343789
0.215426
0.113904
0.0389885
-0.0109848
-0.0373024
-0.0433144
-0.0352932
-0.0207726
-0.00698128
0
-0.00578957
-0.0245888
-0.0559185
-0.0970573
-0.143572
-0.255713
0.0383411
1.17816
3.48783
6.92304
10.9205
14.4841
16.5262
16.333
13.9131
10.0196
5.81436
2.35886
0.209216
-0.684242
-0.776757
-0.692891
-0.673114
-0.658759
-0.648941
-0.642651
-0.638932
-0.636978
-0.636097
-0.635591
-0.634597
-0.631972
-0.626233
-0.615617
-0.598225
-0.572346
-0.536536
-0.489652
-0.43102
-0.360507
-0.278507
-0.185872
-0.0838146
0.0262157
0.142664
0.263979
0.388701
0.515501
0.643195
0.770748
0.897284
1.02214
1.14496
1.26575
1.38492
1.50317
1.6213
1.73989
1.85891
1.97747
2.09331
2.20266
2.30088
2.38339
2.44625
2.48672
2.50358
2.49714
2.46907
2.42206
2.35946
2.28481
2.20143
2.11194
2.01812
1.92099
1.82108
1.71876
1.61473
1.51022
1.40703
1.3074
1.21366
1.1278
1.05121
0.984385
0.926938
0.877736
0.835213
0.797753
0.76405
0.733313
0.705417
0.680938
0.661056
0.647346
0.641411
0.644583
0.657655
0.680675
0.712843
0.752533
0.797461
0.844967
0.892348
0.937264
0.978075
1.01359
1.04325
1.06721
1.08616
1.10119
1.11363
1.1248
1.13591
1.1478
1.1609
1.17519
1.19031
1.20568
1.22059
1.23424
1.24572
1.25386
1.25721
1.25403
1.2425
1.22091
1.18805
1.14362
1.08653
1.01748
0.941947
0.869275
0.809212
0.770037
0.757172
0.772597
0.815133
0.881351
0.96676
1.06681
1.17651
1.29194
1.4104
1.52949
1.64418
1.74659
1.82743
1.87691
1.88637
1.84961
1.7638
1.63006
1.45423
1.24758
1.02838
0.813611
0.614287
0.436542
0.285131
0.16595
0.0822964
0.0323776
0.00910149
0.00207481
0
-0.00294991
-0.0204823
-0.0591629
-0.12278
-0.212061
-0.326212
-0.45922
-0.602368
-0.719776
-0.277252
1.13252
3.72282
7.27823
11.0659
14.0191
15.1613
14.0674
11.0897
7.20064
3.53597
0.910815
-0.43201
-0.752691
-0.541685
-0.496722
-0.45434
-0.416288
-0.382878
-0.352928
-0.324496
-0.295478
-0.264313
-0.230204
-0.1928
-0.152055
-0.107997
-0.0605686
-0.00976181
0.0442371
0.100841
0.157962
0.212317
0.260623
0.300873
0.333502
0.361961
0.392452
0.432832
0.490981
0.572155
0.676304
0.801033
0.943433
1.09983
1.26565
1.43606
1.60661
1.7737
1.93479
2.08791
2.23085
2.36061
2.47372
2.56748
2.63804
2.68153
2.6955
2.67993
2.63729
2.57167
2.48743
2.38789
2.27663
2.15609
2.02765
1.89224
1.75098
1.60564
1.45888
1.31405
1.17482
1.04474
0.926747
0.822746
0.733559
0.658698
0.596365
0.544129
0.499472
0.460276
0.425134
0.39344
0.365236
0.340925
0.320892
0.305322
0.294096
0.286766
0.28266
0.281025
0.281184
0.282645
0.285176
0.288829
0.293934
0.301036
0.31072
0.32346
0.33944
0.358416
0.379681
0.402077
0.424218
0.444739
0.462541
0.476987
0.487994
0.496028
0.502007
0.507155
0.512765
0.520006
0.529748
0.542383
0.557775
0.575246
0.593449
0.610659
0.625424
0.637104
0.64626
0.654768
0.665567
0.682132
0.707805
0.745065
0.794348
0.855704
0.929335
1.01693
1.12326
1.25715
1.4239
1.60378
1.76165
1.85886
1.86394
1.76254
1.56412
1.30233
1.0274
0.792202
0.611173
0.465113
0.341154
0.237354
0.154052
0.0908009
0.046513
0.0191982
0.00540428
0
-0.00062561
-0.00450478
-0.0162846
-0.0390255
-0.0738659
-0.119974
-0.17478
-0.23574
-0.0966984
0.514908
1.89216
4.2221
7.38593
10.8273
13.6369
14.8871
14.0723
11.3955
7.70319
4.09064
1.41174
-0.024831
-0.436145
-0.303234
-0.268298
-0.236392
-0.209789
-0.189648
-0.17594
-0.16772
-0.163609
-0.162178
-0.162359
-0.163509
-0.165092
-0.166401
-0.166323
-0.16321
-0.155116
-0.140114
-0.116695
-0.0840653
-0.0422138
0.00829887
0.0667332
0.132588
0.205532
0.285963
0.374611
0.472089
0.578516
0.693151
0.814465
0.940255
1.06784
1.19435
1.31702
1.43332
1.54103
1.63773
1.72104
1.78973
1.84302
1.88058
1.90256
1.90944
1.9019
1.88057
1.84594
1.79838
1.73916
1.66946
1.59048
1.50391
1.41182
1.31629
1.2191
1.12141
1.0237
0.925893
0.827685
0.728914
0.629923
0.531792
0.436405
0.346408
0.264808
0.194323
0.137008
0.0939083
0.0649143
0.0488537
0.0437683
0.0472981
0.0570618
0.0709068
0.0870903
0.104365
0.12183
0.138807
0.154815
0.169552
0.182912
0.194989
0.206032
0.216365
0.226269
0.235952
0.245551
0.255207
0.265166
0.275819
0.287595
0.300757
0.315269
0.330245
0.344159
0.355224
0.36194
0.363607
0.360604
0.354315
0.34674
0.339944
0.335353
0.333604
0.334902
0.338947
0.345323
0.353868
0.36497
0.379701
0.399759
0.427277
0.464548
0.513282
0.574627
0.649561
0.738517
0.841066
0.957047
1.08594
1.2239
1.36262
1.4904
1.595
1.66628
1.69653
1.68075
1.61702
1.50717
1.35743
1.17873
0.985922
0.795792
0.61967
0.461759
0.324889
0.212356
0.125696
0.06469
0.0271341
0.00813217
0
0.00526161
0.00448971
-0.00889301
-0.0391661
-0.0879179
-0.15403
-0.234023
-0.348547
-0.300823
0.360637
2.02764
4.87306
8.62375
12.4978
15.4132
16.416
15.1238
11.9299
7.83597
3.99952
1.25463
-0.142009
-0.450687
-0.180978
-0.0883192
-0.00218601
0.0725622
0.133931
0.18491
0.22771
0.265129
0.299862
0.333948
0.368624
0.404755
0.443072
0.484352
0.529464
0.57928
0.63448
0.695348
0.761667
0.832781
0.907792
0.985834
1.06634
1.14927
1.23515
1.32497
1.42
1.52142
1.6301
1.74632
1.86972
1.99933
2.13359
2.27062
2.40832
2.5446
2.67752
2.80528
2.9261
3.03784
3.13829
3.22581
3.29873
3.3554
3.39416
3.41339
3.41145
3.38671
3.33777
3.26397
3.16675
3.04846
2.91215
2.76196
2.60325
2.4422
2.28495
2.13708
2.00307
1.8859
1.78692
1.70598
1.64162
1.59168
1.55373
1.5256
1.50557
1.49243
1.48543
1.48401
1.48736
1.49423
1.50303
1.512
1.51955
1.52458
1.52672
1.52647
1.52507
1.52425
1.52587
1.53148
1.54205
1.55785
1.57837
1.60227
1.62723
1.65043
1.66922
1.68163
1.68672
1.68476
1.67708
1.66563
1.65252
1.63947
1.62738
1.61636
1.60598
1.59539
1.58363
1.56986
1.55363
1.535
1.51462
1.49365
1.47367
1.45643
1.44357
1.43638
1.43562
1.44146
1.45357
1.47123
1.4936
1.51993
1.54978
1.58318
1.62064
1.66379
1.71833
1.80705
1.99864
2.30964
2.65058
2.93211
3.07851
3.04526
2.83007
2.4734
2.04875
1.6535
1.39425
1.23004
1.09891
0.983832
0.882925
0.795384
0.720123
0.65583
0.600931
0.553528
0.511172
0.470656
0.428208
0.379648
0.317918
0.227264
0.0957196
-0.0702248
-0.25575
-0.35416
0
1.14666
3.33961
6.53784
10.2476
13.5616
15.4561
15.2407
12.918
9.21942
5.27159
2.08075
0.134442
-0.673099
-0.809786
-0.844425
-0.876612
-0.907276
-0.935705
-0.961633
-0.985772
-1.00981
-1.0359
-1.06597
-1.10107
-1.1408
-1.18338
-1.22517
-1.26171
-1.28863
-1.30248
-1.30122
-1.28436
-1.25279
-1.20834
-1.15334
-1.0906
-1.02269
-0.951712
-0.879438
-0.807353
-0.736722
-0.668545
-0.603218
-0.54033
-0.478493
-0.415345
-0.347782
-0.272434
-0.186305
-0.0874293
0.0246079
0.150762
0.289187
0.432728
0.568971
0.684405
0.768546
0.814815
0.82085
0.788344
0.722476
0.630711
0.520913
0.399249
0.269609
0.133932
-0.00666332
-0.151373
-0.299338
-0.449058
-0.598238
-0.74402
-0.883361
-1.01345
-1.13208
-1.23785
-1.33026
-1.40958
-1.47666
-1.53276
-1.57927
-1.61758
-1.64894
-1.67437
-1.69463
-1.71013
-1.72099
-1.72702
-1.72787
-1.72318
-1.71263
-1.69591
-1.67387
-1.65029
-1.63058
-1.61999
-1.62209
-1.63738
-1.663
-1.69344
-1.72211
-1.74324
-1.75482
-1.75797
-1.75407
-1.74471
-1.7321
-1.71822
-1.70433
-1.69073
-1.67684
-1.66152
-1.6436
-1.6224
-1.59808
-1.57164
-1.54468
-1.51898
-1.49586
-1.47582
-1.45825
-1.44152
-1.42332
-1.4011
-1.37268
-1.33662
-1.29225
-1.23949
-1.17868
-1.11038
-1.0352
-0.953629
-0.865925
-0.772052
-0.671696
-0.564343
-0.449421
-0.326515
-0.195604
-0.0572446
0.087592
0.237137
0.388812
0.538933
0.681079
0.804778
0.901383
0.960242
0.969648
0.920734
0.812244
0.653194
0.461649
0.260104
0.0698026
-0.1017
-0.25639
-0.394187
-0.512901
-0.611042
-0.687785
-0.742764
-0.775326
-0.783224
-0.76287
-0.71753
-0.666227
-0.630439
-0.628743
-0.670886
-0.753661
-0.860865
-1.15203
-1.00772
0
2.18485
5.51275
9.47103
13.1156
15.3699
15.4739
13.3515
9.67294
5.55102
2.04135
-0.267624
-1.36323
-1.62063
-1.49646
-1.41036
-1.32765
-1.25072
-1.18053
-1.1157
-1.05475
-0.9971
-0.942667
-0.891518
-0.843755
-0.799344
-0.758011
-0.719407
-0.683053
-0.648121
-0.613504
-0.57775
-0.539015
-0.495133
-0.443807
-0.382915
-0.310811
-0.226717
-0.130904
-0.0237952
0.0941954
0.222643
0.361162
0.509307
0.666311
0.830774
1.00039
1.17187
1.341
1.50266
1.65157
1.78332
1.89479
1.98434
2.05187
2.09844
2.12576
2.13567
2.12962
2.10865
2.07322
2.02291
1.95667
1.87345
1.77262
1.65454
1.52066
1.37356
1.21703
1.05574
0.894766
0.738946
0.592329
0.457723
0.3365
0.228662
0.133155
0.0483252
-0.027593
-0.0960657
-0.158022
-0.213809
-0.263314
-0.306201
-0.342161
-0.371105
-0.393252
-0.409083
-0.419201
-0.424129
-0.424114
-0.419025
-0.408405
-0.391718
-0.368553
-0.338924
-0.303514
-0.26353
-0.221091
-0.178626
-0.138389
-0.102038
-0.0704062
-0.0435228
-0.0208647
-0.00172634
0.0144278
0.0279022
0.0384964
0.0457775
0.0492847
0.0487228
0.0440866
0.0356867
0.0240864
0.00999451
-0.00587425
-0.0229025
-0.0406298
-0.0587654
-0.0771601
-0.0957628
-0.114561
-0.133507
-0.152428
-0.170954
-0.188482
-0.204215
-0.217288
-0.226946
-0.232555
-0.233897
-0.231904
-0.228039
-0.223683
-0.219522
-0.215122
-0.208854
-0.198206
-0.180356
-0.152751
-0.114609
-0.0656681
-0.00533695
0.0667028
0.150437
0.245772
0.35372
0.477428
0.618573
0.770291
0.916726
1.04014
1.12537
1.16198
1.14455
1.07224
0.948846
0.78366
0.591915
0.393783
0.206615
0.0383577
-0.110673
-0.240957
-0.350788
-0.439463
-0.507305
-0.555189
-0.582958
-0.589995
-0.581001
-0.567784
-0.562947
-0.576922
-0.614952
-0.675301
-0.749624
-0.977066
-0.85339
0
1.90917
4.96891
8.82584
12.6537
15.3706
16.0631
14.4169
10.9039
6.59448
2.68328
-0.00756493
-1.28172
-1.48227
-1.17681
-1.12189
-1.07364
-1.0368
-1.01331
-1.00084
-0.996694
-0.99728
-0.999035
-0.999318
-0.99635
-0.988834
-0.975876
-0.956877
-0.931549
-0.900023
-0.862962
-0.821363
-0.776948
-0.731495
-0.686363
-0.642081
-0.598173
-0.553267
-0.505435
-0.452624
-0.393066
-0.325817
-0.250144
-0.165421
-0.0712883
0.0322668
0.144733
0.264859
0.390492
0.518558
0.645236
0.76619
0.877016
0.973942
1.05408
1.11554
1.15739
1.17911
1.17999
1.16036
1.12074
1.06201
0.985616
0.893814
0.789612
0.676521
0.5581
0.43751
0.317028
0.198019
0.0811842
-0.0332108
-0.145071
-0.254267
-0.360541
-0.463494
-0.562632
-0.657368
-0.747005
-0.830691
-0.907363
-0.975888
-1.03518
-1.08444
-1.12329
-1.15212
-1.17202
-1.1847
-1.1925
-1.19848
-1.20551
-1.21533
-1.22815
-1.24255
-1.25589
-1.26508
-1.26749
-1.26177
-1.24864
-1.22999
-1.20755
-1.18284
-1.1567
-1.12906
-1.09915
-1.06602
-1.02912
-0.988837
-0.946474
-0.904591
-0.86599
-0.832842
-0.805976
-0.784607
-0.766581
-0.749043
-0.729285
-0.705604
-0.677758
-0.646333
-0.612391
-0.577272
-0.542201
-0.508036
-0.4752
-0.443814
-0.414014
-0.386336
-0.361915
-0.34228
-0.329108
-0.323561
-0.325633
-0.333736
-0.344705
-0.354245
-0.357724
-0.351229
-0.333024
-0.303062
-0.262279
-0.212387
-0.155719
-0.0947988
-0.0318227
0.0318248
0.0959006
0.161409
0.230472
0.305997
0.393374
0.515571
0.739668
1.07089
1.40977
1.66203
1.76779
1.71796
1.54968
1.32315
1.09402
0.896537
0.734939
0.599854
0.484951
0.387634
0.307982
0.248048
0.208247
0.187051
0.181067
0.185338
0.194071
0.201489
0.202642
0.194126
0.174486
0.144305
0.106004
0.0633803
0
0.447725
1.88898
4.6325
8.53689
12.8806
16.5159
18.2967
17.5942
14.6188
10.3433
6.0507
2.76722
0.896981
0.230467
0.24311
0.352746
0.449285
0.537915
0.620764
0.701957
0.784541
0.8696
0.957406
1.04738
1.13814
1.22784
1.31464
1.39687
1.47293
1.54183
1.60334
1.65805
1.70736
1.75331
1.79836
1.84507
1.89581
1.95261
2.01703
2.09036
2.174
2.26939
2.378
2.50102
2.63889
2.79081
2.9544
3.12558
3.29901
3.46855
3.62819
3.77315
3.90062
4.00999
4.10269
4.18158
4.24863
4.30483
4.35057
4.38418
4.40136
4.39727
4.36868
4.31526
4.2396
4.14618
4.03996
3.92616
3.80875
3.68988
3.57096
3.45332
3.33829
3.22724
3.12148
3.02214
2.92996
2.8452
2.76757
2.69622
2.62985
2.56695
2.50619
2.44668
2.38813
2.33093
2.27599
2.2245
2.17774
2.13685
2.10314
2.07807
2.06241
2.05658
2.0605
2.07338
2.09382
2.11956
2.14801
2.17681
2.20421
2.22924
2.25162
2.27134
2.28817
2.30146
2.31001
2.31233
2.307
2.29305
2.27024
2.23898
2.20017
2.15506
2.10488
2.0506
1.99309
1.93296
1.8713
1.81059
1.75472
1.70841
1.67647
1.66296
1.67034
1.69898
1.74695
1.81034
1.88389
1.96182
2.03887
2.11111
2.17605
2.23104
2.27037
2.28851
2.27988
2.23915
2.1627
2.05021
1.90553
1.73651
1.55383
1.36898
1.19087
1.02425
0.873171
0.739955
0.625365
0.528932
0.449298
0.384475
0.332072
0.289491
0.253978
0.222778
0.193435
0.164039
0.133352
0.101031
0.0674924
0
0.21382
1.03071
2.76886
5.54648
9.07242
12.5815
15.0322
15.5396
13.8262
10.4092
6.37538
2.86411
0.56854
-0.457301
-0.626822
-0.471442
-0.466108
-0.463966
-0.466226
-0.472915
-0.482756
-0.493459
-0.502335
-0.50722
-0.506917
-0.501036
-0.491079
-0.47965
-0.469779
-0.464142
-0.464404
-0.470799
-0.482013
-0.495335
-0.507044
-0.513258
-0.510588
-0.496293
-0.468378
-0.426035
-0.369725
-0.30099
-0.222062
-0.135372
-0.0431871
0.0527763
0.151464
0.252169
0.354229
0.456727
0.558292
0.657087
0.750992
0.837858
0.915729
0.982523
1.0352
1.07135
1.08941
1.08792
1.06567
1.02207
0.957369
0.872606
0.769485
0.650114
0.51811
0.377124
0.229787
0.0789317
-0.0722237
-0.220217
-0.361592
-0.493196
-0.612451
-0.717504
-0.80725
-0.881234
-0.93938
-0.98211
-1.01028
-1.02518
-1.02802
-1.02036
-1.00546
-0.98798
-0.972511
-0.962816
-0.961201
-0.968223
-0.982835
-1.00288
-1.02572
-1.04877
-1.07008
-1.08835
-1.10233
-1.11103
-1.11368
-1.10981
-1.09937
-1.08289
-1.06146
-1.03661
-1.0102
-0.984196
-0.960204
-0.938986
-0.920238
-0.902591
-0.883918
-0.861899
-0.834348
-0.79896
-0.757363
-0.715902
-0.682559
-0.664047
-0.66321
-0.677804
-0.701169
-0.72451
-0.73986
-0.743686
-0.737712
-0.724749
-0.706819
-0.685917
-0.663479
-0.639954
-0.614674
-0.586007
-0.551692
-0.509256
-0.456681
-0.392501
-0.315557
-0.225107
-0.120959
-0.00312591
0.131166
0.291329
0.499141
0.769409
1.06994
1.35235
1.56182
1.64668
1.58038
1.37326
1.06588
0.714101
0.388885
0.168082
0.0277257
-0.0771015
-0.163136
-0.233968
-0.28971
-0.330515
-0.356175
-0.363929
-0.347969
-0.308608
-0.261053
-0.225584
-0.222264
-0.264822
-0.356366
-0.488448
-0.643336
-0.619124
0
1.54784
4.2005
7.74991
11.503
14.4309
15.5677
14.4751
11.492
7.5935
3.92543
1.29567
-0.086109
-0.513084
-0.467586
-0.422987
-0.380131
-0.340268
-0.303874
-0.270412
-0.23869
-0.207468
-0.175509
-0.141742
-0.105389
-0.0659957
-0.0233812
0.0224494
0.0713951
0.123336
0.178165
0.235822
0.296327
0.359847
0.426751
0.497642
0.57332
0.654651
0.742365
0.836825
0.937842
1.04459
1.15566
1.26926
1.38351
1.49671
1.60765
1.71574
1.82101
1.92399
2.02541
2.12582
2.22525
2.32277
2.41571
2.49967
2.56985
2.62175
2.65229
2.6605
2.64752
2.61592
2.56868
2.50821
2.43664
2.35558
2.26538
2.16556
2.05583
1.93653
1.80881
1.67483
1.53762
1.40093
1.26885
1.14537
1.03384
0.936673
0.855474
0.790171
0.739061
0.699732
0.669664
0.646717
0.629401
0.616884
0.608784
0.604884
0.604779
0.607889
0.613628
0.621396
0.630722
0.641421
0.653642
0.66785
0.684723
0.704959
0.729156
0.757856
0.790825
0.825054
0.85508
0.874961
0.880191
0.86939
0.845039
0.812874
0.780171
0.75361
0.736712
0.728889
0.728736
0.735259
0.747621
0.764998
0.786648
0.812002
0.840391
0.870036
0.897495
0.918633
0.929683
0.928462
0.91532
0.893402
0.86809
0.845778
0.832328
0.830118
0.838559
0.856798
0.883236
0.913561
0.942283
0.964337
0.976176
0.976541
0.966739
0.950413
0.932911
0.920444
0.918579
0.930954
0.959949
1.00729
1.07393
1.15986
1.2664
1.39979
1.57145
1.78678
2.02122
2.23436
2.39132
2.46442
2.43702
2.30724
2.08985
1.81599
1.53135
1.28957
1.10501
0.95822
0.834264
0.727848
0.638034
0.563285
0.501614
0.450738
0.408084
0.370988
0.336742
0.302663
0.26623
0.225347
0.177993
0.123626
0.0634561
0
-0.056156
0.449432
1.93528
4.61459
8.25574
12.1011
15.0605
16.1508
14.9661
11.8989
7.95675
4.27473
1.62074
0.174383
-0.349192
-0.389657
-0.343783
-0.300295
-0.261108
-0.227303
-0.198991
-0.174871
-0.153581
-0.133831
-0.114458
-0.0945412
-0.0734934
-0.0510796
-0.0273705
-0.00263214
0.022803
0.0486677
0.074879
0.101627
0.129419
0.15907
0.191642
0.228346
0.270433
0.319102
0.375443
0.440412
0.514821
0.599318
0.694316
0.799865
0.915495
1.04007
1.17169
1.30773
1.44493
1.57963
1.70782
1.82512
1.9275
2.01218
2.07731
2.12201
2.14629
2.15087
2.13687
2.10562
2.05836
1.99624
1.92042
1.83172
1.73084
1.6188
1.49727
1.36849
1.23522
1.1008
0.968901
0.843093
0.726338
0.620549
0.526342
0.443048
0.368643
0.300022
0.233974
0.167936
0.10062
0.0322065
-0.0350138
-0.0972715
-0.150433
-0.191114
-0.217492
-0.229584
-0.228954
-0.21803
-0.199308
-0.175124
-0.147072
-0.115944
-0.0822273
-0.046467
-0.00940666
0.0280249
0.0648602
0.100255
0.133629
0.164717
0.193502
0.22005
0.244292
0.265943
0.284743
0.300586
0.313793
0.325348
0.336924
0.350603
0.368376
0.391558
0.420351
0.453407
0.488734
0.524231
0.557853
0.587964
0.613525
0.634102
0.649624
0.660233
0.666223
0.667867
0.665417
0.65923
0.649928
0.638506
0.626359
0.615199
0.606909
0.603286
0.60589
0.616079
0.635021
0.663716
0.703041
0.753763
0.816502
0.891604
0.980273
1.08592
1.2118
1.35304
1.49188
1.60711
1.68069
1.70169
1.66794
1.58524
1.46466
1.31923
1.16138
1.00256
0.849913
0.706634
0.57451
0.455248
0.350773
0.262255
0.189699
0.132013
0.0871454
0.0523149
0.0243523
0
-0.0219471
-0.0462402
-0.0747042
-0.108509
-0.147138
-0.188969
-0.378656
-0.312216
0.421874
2.21999
5.2097
9.02116
12.7631
15.2987
15.7295
13.8377
10.2209
6.02368
2.41215
0.0912077
-0.88239
-0.94109
-0.663504
-0.60995
-0.559482
-0.511501
-0.46298
-0.412729
-0.360576
-0.307553
-0.255786
-0.207828
-0.165575
-0.129143
-0.0979015
-0.0710375
-0.0473896
-0.0255039
-0.0038456
0.0190432
0.0444658
0.0735781
0.107449
0.14714
0.193739
0.248341
0.311941
0.385276
0.468666
0.561899
0.66419
0.774259
0.890461
1.01097
1.13395
1.25769
1.38067
1.50166
1.61966
1.73396
1.84401
1.9492
2.04846
2.13972
2.21966
2.28467
2.33059
2.35324
2.34951
2.31827
2.26077
2.18033
2.08137
1.96832
1.84575
1.71691
1.58369
1.44723
1.3087
1.16981
1.03291
0.900881
0.776813
0.663599
0.563491
0.477774
0.406628
0.349209
0.303902
0.268685
0.241488
0.220497
0.204317
0.192001
0.182952
0.176761
0.173059
0.171383
0.17107
0.171376
0.171711
0.171863
0.172163
0.17349
0.177089
0.184236
0.195827
0.212163
0.232787
0.255848
0.278517
0.297958
0.312093
0.320133
0.322701
0.321501
0.318678
0.316078
0.31463
0.314134
0.313729
0.312135
0.308004
0.300298
0.288576
0.273146
0.255046
0.235867
0.217311
0.20089
0.187883
0.178685
0.172555
0.168273
0.164798
0.161895
0.160455
0.162361
0.169953
0.185269
0.208952
0.240063
0.277325
0.319233
0.364205
0.411003
0.459066
0.508611
0.560541
0.616253
0.67771
0.748089
0.834715
0.957448
1.14805
1.4017
1.67238
1.88566
1.95797
1.83806
1.53789
1.13191
0.732674
0.472449
0.362126
0.296085
0.243306
0.19847
0.158924
0.122819
0.0891905
0.0577036
0.0281635
0
-0.0280458
-0.0578102
-0.091342
-0.130616
-0.17625
-0.22735
-0.281603
-0.246341
0.27305
1.59498
3.94077
7.23033
10.9295
14.1069
15.7536
15.2441
12.6752
8.85594
4.93376
1.8757
0.106344
-0.522408
-0.485714
-0.466869
-0.449807
-0.435505
-0.423666
-0.412746
-0.400447
-0.384482
-0.363594
-0.337774
-0.307648
-0.274599
-0.240345
-0.20651
-0.174187
-0.143709
-0.114622
-0.0858648
-0.0560839
-0.0239794
0.0114231
0.0506367
0.0937202
0.140608
0.191362
0.246342
0.306305
0.372377
0.445893
0.52815
0.620077
0.722035
0.833639
0.953599
1.07971
1.20897
1.33782
1.46248
1.57935
1.68535
1.77803
1.85559
1.91671
1.96049
1.98643
1.99414
1.98318
1.95326
1.90441
1.83723
1.75306
1.65404
1.54302
1.42364
1.2997
1.17483
1.05243
0.935465
0.826268
0.726407
0.636643
0.556969
0.48679
0.425163
0.371041
0.323477
0.281727
0.245268
0.213808
0.18711
0.165035
0.147573
0.135042
0.127831
0.126489
0.131591
0.143531
0.16232
0.187444
0.217828
0.25191
0.287808
0.323534
0.357262
0.387464
0.413057
0.433485
0.448717
0.459192
0.465691
0.469192
0.470725
0.471275
0.471688
0.472658
0.474723
0.47825
0.483413
0.490157
0.498148
0.506741
0.515017
0.521895
0.526281
0.527233
0.524113
0.516684
0.505139
0.490048
0.472259
0.452753
0.432516
0.41243
0.393228
0.375546
0.360019
0.347418
0.338809
0.335655
0.339821
0.353579
0.379464
0.420044
0.477614
0.553877
0.649657
0.76469
0.898987
1.05491
1.23504
1.43791
1.64959
1.84611
2.00844
2.11778
2.15453
2.10308
1.95791
1.7279
1.43898
1.13568
0.872063
0.664244
0.497243
0.358745
0.247079
0.162739
0.105256
0.0733608
0.0648158
0.0758956
0.0997607
0.125419
0.141618
0.139206
0.112542
0.0603496
-0.0143289
-0.178266
-0.189001
0.448578
2.10241
4.90161
8.5481
12.2712
15.0225
15.8801
14.4819
87
251
413
578
751
931
1122
1316
1510
1680
1842
2006
2172
2347
2527
2708
2871
3042
3223
3400
3574
3401
3566
3739
2971
3058
3159
3334
3486
3508
3679
0
0
0
0
0
0
0
0
0
0
0
0
0
0
0
0
0
0
0
0
0
0
0
0
0
0
0
0
0
0
0
0
0
0
0
0
0
0
0
0
0
0
0
0
0
0
0
0
0
0
0
0
0
0
0
0
0
0
0
0
0
0
0
0
0
0
0
0
0
0
0
0
0
0
0
0
0
0
0
0
0
0
0
0
0
0
0
0
0
0
0
0
0
0
0
0
0
0
0
0
0
0
0
0
0
0
0
0
0
0
0
0
0
0
0
0
0
0
0
0
0
0
0
0
0
0
0
0
0
0
0
0
0
0
0
0
0
0
0
0
0
0
0
0
0
0
0
0
0
0
0
0
0
0
0
0
0
0
0
0
0
0
0
0
0
0
0
0
0
0
0
0
0
0
0
0
0
0
0
0
0
0
0
0
0
0
0
0
0
0
0
0
0
0
0
0
0
0
0
0
0
0
0
0
0
0
0
0
0
0
0
0
0
0
0
0
0
0
0
0
0
0
0
0
0
0
0
0
0
0
0
0
0
0
0
0
0
0
0
0
0
0
0
0
0
0
0
0
0
0
0
0
0
0
0
0
0
0
0
0
0
0
0
0
0
0
0
0
0
0
0
0
0
0
0
0
0
0
0
0
0
0
0
0
0
0
0
0
0
0
0
0
0
0
0
0
0
0
0
0
0
0
0
0
0
0
0
0
0
0
0
0
0
0
0
0
0
0
0
0
0
0
0
0
0
0
0
0
0
0
0
0
0
0
0
0
0
0
0
0
0
0
0
0
0
0
0
0
0
0
0
0
0
0
0
0
0
0
0
0
0
0
0
0
0
0
0
0
0
0
0
0
0
0
0
0
0
0
0
0
0
0
0
0
0
0
0
0
0
0
0
0
0
0
0
0
0
0
0
0
0
0
0
0
0
0
0
0
0
0
0
0
0
0
0
0
0
0
0
0
0
0
0
0
0
0
0
0
0
0
0
0
0
0
0
0
0
0
0
0
0
0
0
0
0
0
0
0
0
0
0
0
0
0
0
0
0
0
0
0
0
0
0
0
0
0
0
0
0
0
0
0
0
0
0
0
0
0
0
0
0
0
0
0
0
0
0
0
0
0
0
0
0
0
0
0
0
0
0
0
0
0
0
0
0
0
0
0
0
0
0
0
0
0
0
0
0
0
0
0
0
0
0
0
0
0
0
0
0
0
0
0
0
0
0
0
0
0
0
0
0
0
0
0
0
0
0
0
0
0
0
0
0
0
0
0
0
0
0
0
0
0
0
0
0
0
0
0
0
0
0
0
0
0
0
0
0
0
0
0
0
0
0
0
0
0
0
0
0
0
0
0
0
0
0
0
0
0
0
0
0
0
0
0
0
0
0
0
0
0
0
0
0
0
0
0
0
0
0
0
0
0
0
0
0
0
0
0
0
0
0
0
0
0
0
0
0
0
0
0
0
0
0
0
0
0
0
0
0
0
0
0
0
0
0
0
0
0
0
0
0
0
0
0
0
0
0
0
0
0
0
0
0
0
0
0
0
0
0
0
0
0
0
0
0
0
0
0
0
0
0
0
0
0
0
0
0
0
0
0
0
0
0
0
0
0
0
0
0
0
0
0
0
0
0
0
0
0
0
0
0
0
0
0
0
0
0
0
0
0
0
0
0
0
0
0
0
0
0
0
0
0
0
0
0
0
0
0
0
0
0
0
0
0
0
0
0
0
0
0
0
0
0
0
0
0
0
0
0
0
0
0
0
0
0
0
0
0
0
0
0
0
0
0
0
0
0
0
0
0
0
0
0
0
0
0
0
0
0
0
0
0
0
0
0
0
0
0
0
0
0
0
0
0
0
0
0
0
0
0
0
0
0
0
0
0
0
0
0
0
0
0
0
0
0
0
0
0
0
0
0
0
0
0
0
0
0
0
0
0
0
0
0
0
0
0
0
0
0
0
0
0
0
0
0
0
0
0
0
0
0
0
0
0
0
0
0
0
0
0
0
0
0
0
0
0
0
0
0
0
0
0
0
0
0
0
0
0
0
0
0
0
0
0
0
0
0
0
0
0
0
0
0
0
0
0
0
0
0
0
0
0
0
0
0
0
0
0
0
0
0
0
0
0
0
0
0
0
0
0
0
0
0
0
0
0
0
0
0
0
0
0
0
0
0
0
0
0
0
0
0
0
0
0
0
0
0
0
0
0
0
0
0
0
0
0
0
0
0
0
0
0
0
0
0
0
0
0
0
0
0
0
0
0
0
0
0
0
0
0
0
0
0
0
0
0
0
0
0
0
0
0
0
0
0
0
0
0
0
0
0
0
0
0
0
0
0
0
0
0
0
0
0
0
0
0
0
0
0
0
0
0
0
0
0
0
0
0
0
0
0
0
0
0
0
0
0
0
0
0
0
0
0
0
0
0
0
0
0
0
0
0
0
0
0
0
0
0
0
0
0
0
0
0
0
0
0
0
0
0
0
0
0
0
0
0
0
0
0
0
0
0
0
0
0
0
0
0
0
0
0
0
0
0
0
0
0
0
0
0
0
0
0
0
0
0
0
0
0
0
0
0
0
0
0
0
0
0
0
0
0
0
0
0
0
0
0
0
0
0
0
0
0
0
0
0
0
0
0
0
0
0
0
0
0
0
0
0
0
0
0
0
0
0
0
0
0
0
0
0
0
0
0
0
0
0
0
0
0
0
0
0
0
0
0
0
0
0
0
0
0
0
0
0
0
0
0
0
0
0
0
0
0
0
0
0
0
0
0
0
0
0
0
0
0
0
0
0
0
0
0
0
0
0
0
0
0
0
0
0
0
0
0
0
0
0
0
0
0
0
0
0
0
0
0
0
0
0
0
0
0
0
0
0
0
0
0
0
0
0
0
0
0
0
0
0
0
0
0
0
0
0
0
0
0
0
0
0
0
0
0
0
0
0
0
0
0
0
0
0
0
0
0
0
0
0
0
0
0
0
0
0
0
0
0
0
0
0
0
0
0
0
0
0
0
0
0
0
0
0
0
0
0
0
0
0
0
0
0
0
0
0
0
0
0
0
0
0
0
0
0
0
0
0
0
0
0
0
0
0
0
0
0
0
0
0
0
0
0
0
0
0
0
0
0
0
0
0
0
0
0
0
0
0
0
0
0
0
0
0
0
0
0
0
0
0
0
0
0
0
0
0
0
0
0
0
0
0
0
0
0
0
0
0
0
0
0
0
0
0
0
0
0
0
0
0
0
0
0
0
0
0
0
0
0
0
0
0
0
0
0
0
0
0
0
0
0
0
0
0
0
0
0
0
0
0
0
0
0
0
0
0
0
0
0
0
0
0
0
0
0
0
0
0
0
0
0
0
0
0
0
0
0
0
0
0
0
0
0
0
0
0
0
0
0
0
0
0
0
0
0
0
0
0
0
0
0
0
0
0
0
0
0
0
0
0
0
0
0
0
0
0
0
0
0
0
0
0
0
0
0
0
0
0
0
0
0
0
0
0
0
0
0
0
0
0
0
0
0
0
0
0
0
0
0
0
0
0
0
0
0
0
0
0
0
0
0
0
0
0
0
0
0
0
0
0
0
0
0
0
0
0
0
0
0
0
0
0
0
0
0
0
0
0
0
0
0
0
0
0
0
0
0
0
0
0
0
0
0
0
0
0
0
0
0
0
0
0
0
0
0
0
0
0
0
0
0
0
0
0
0
0
0
0
0
0
0
0
0
0
0
0
0
0
0
0
0
0
0
0
0
0
0
0
0
0
0
0
0
0
0
0
0
0
0
0
0
0
0
0
0
0
0
0
0
0
0
0
0
0
0
0
0
0
0
0
0
0
0
0
0
0
0
0
0
0
0
0
0
0
0
0
0
0
0
0
0
0
0
0
0
0
0
0
0
0
0
0
0
0
0
0
0
0
0
0
0
0
0
0
0
0
0
0
0
0
0
0
0
0
0
0
0
0
0
0
0
0
0
0
0
0
0
0
0
0
0
0
0
0
0
0
0
0
0
0
0
0
0
0
0
0
0
0
0
0
0
0
0
0
0
0
0
0
0
0
0
0
0
0
0
0
0
0
0
0
0
0
0
0
0
0
0
0
0
0
0
0
0
0
0
0
0
0
0
0
0
0
0
0
0
0
0
0
0
0
0
0
0
0
0
0
0
0
0
0
0
0
0
0
0
0
0
0
0
0
0
0
0
0
0
0
0
0
0
0
0
0
0
0
0
0
0
0
0
0
0
0
0
0
0
0
0
0
0
0
0
0
0
0
0
0
0
0
0
0
0
0
0
0
0
0
0
0
0
0
0
0
0
0
0
0
0
0
0
0
0
0
0
0
0
0
0
0
0
0
0
0
0
0
0
0
0
0
0
0
0
0
0
0
0
0
0
0
0
0
0
0
0
0
0
0
0
0
0
0
0
0
0
0
0
0
0
0
0
0
0
0
0
0
0
0
0
0
0
0
0
0
0
0
0
0
0
0
0
0
0
0
0
0
0
0
0
0
0
0
0
0
0
0
0
0
0
0
0
0
0
0
0
0
0
0
0
0
0
0
0
0
0
0
0
0
0
0
0
0
0
0
0
0
0
0
0
0
0
0
0
0
0
0
0
0
0
0
0
0
0
0
0
0
0
0
0
0
0
0
0
0
0
0
0
0
0
0
0
0
0
0
0
0
0
0
0
0
0
0
0
0
0
0
0
0
0
0
0
0
0
0
0
0
0
0
0
0
0
0
0
0
0
0
0
0
0
0
0
0
0
0
0
0
0
0
0
0
0
0
0
0
0
0
0
0
0
0
0
0
0
0
0
0
0
0
0
0
0
0
0
0
0
0
0
0
0
0
0
0
0
0
0
0
0
0
0
0
0
0
0
0
0
0
0
0
0
0
0
0
0
0
0
0
0
0
0
0
0
0
0
0
0
0
0
0
0
0
0
0
0
0
0
0
0
0
0
0
0
0
0
0
0
0
0
0
0
0
0
0
0
0
0
0
0
0
0
0
0
0
0
0
0
0
0
0
0
0
0
0
0
0
0
0
0
0
0
0
0
0
0
0
0
0
0
0
0
0
0
0
0
0
0
0
0
0
0
0
0
0
0
0
0
0
0
0
0
0
0
0
0
0
0
0
0
0
0
0
0
0
0
0
0
0
0
0
0
0
0
0
0
0
0
0
0
0
0
0
0
0
0
0
0
0
0
0
0
0
0
0
0
0
0
0
0
0
0
0
0
0
0
0
0
0
0
0
0
0
0
0
0
0
0
0
0
0
0
0
0
0
0
0
0
0
0
0
0
0
0
0
0
0
0
0
0
0
0
0
0
0
0
0
0
0
0
0
0
0
0
0
0
0
0
0
0
0
0
0
0
0
0
0
0
0
0
0
0
0
0
0
0
0
0
0
0
0
0
0
0
0
0
0
0
0
0
0
0
0
0
0
0
0
0
0
0
0
0
0
0
0
0
0
0
0
0
0
0
0
0
0
0
0
0
0
0
0
0
0
0
0
0
0
0
0
0
0
0
0
0
0
0
0
0
0
0
0
0
0
0
0
0
0
0
0
0
0
0
0
0
0
0
0
0
0
0
0
0
0
0
0
0
0
0
0
0
0
0
0
0
0
0
0
0
0
0
0
0
0
0
0
0
0
0
0
0
0
0
0
0
0
0
0
0
0
0
0
0
0
0
0
0
0
0
0
0
0
0
0
0
0
0
0
0
0
0
0
0
0
0
0
0
0
0
0
0
0
0
0
0
0
0
0
0
0
0
0
0
0
0
0
0
0
0
0
0
0
0
0
0
0
0
0
0
0
0
0
0
0
0
0
0
0
0
0
0
0
0
0
0
0
0
0
0
0
0
0
0
0
0
0
0
0
0
0
0
0
0
0
0
0
0
0
0
0
0
0
0
0
0
0
0
0
0
0
0
0
0
0
0
0
0
0
0
0
0
0
0
0
0
0
0
0
0
0
0
0
0
0
0
0
0
0
0
0
0
0
0
0
0
0
0
0
0
0
0
0
0
0
0
0
0
0
0
0
0
0
0
0
0
0
0
0
0
0
0
0
0
0
0
0
0
0
0
0
0
0
0
0
0
0
0
0
0
0
0
0
0
0
0
0
0
0
0
0
0
0
0
0
0
0
0
0
0
0
0
0
0
0
0
0
0
0
0
0
0
0
0
0
0
0
0
0
0
0
0
0
0
0
0
0
0
0
0
0
0
0
0
0
0
0
0
0
0
0
0
0
0
0
0
0
0
0
0
0
0
0
0
0
0
0
0
0
0
0
0
0
0
0
0
0
0
0
0
0
0
0
0
0
0
0
0
0
0
0
0
0
0
0
0
0
0
0
0
0
0
0
0
0
0
0
0
0
0
0
0
0
0
0
0
0
0
0
0
0
0
0
0
0
0
0
0
0
0
0
0
0
0
0
0
0
0
0
0
0
0
0
0
0
0
0
0
0
0
0
0
0
0
0
0
0
0
0
0
0
0
0
0
0
0
0
0
0
0
0
0
0
0
0
0
0
0
0
0
0
0
0
0
0
0
0
0
0
0
0
0
0
0
0
0
0
0
0
0
0
0
0
0
0
0
0
0
0
0
0
0
0
0
0
0
0
0
0
0
0
0
0
0
0
0
0
0
0
0
0
0
0
0
0
0
0
0
0
0
0
0
0
0
0
0
0
0
0
0
0
0
0
0
0
0
0
0
0
0
0
0
0
0
0
0
0
0
0
0
0
0
0
0
0
0
0
0
0
0
0
0
0
0
0
0
0
0
0
0
0
0
0
0
0
0
0
0
0
0
0
0
0
0
0
0
0
0
0
0
0
0
0
0
0
0
0
0
0
0
0
0
0
0
0
0
0
0
0
0
0
0
0
0
0
0
0
0
0
0
0
0
0
0
0
0
0
0
0
0
0
0
0
0
0
0
0
0
0
0
0
0
0
0
0
0
0
0
0
0
0
0
0
0
0
0
0
0
0
0
0
0
0
0
0
0
0
0
0
0
0
0
0
0
0
0
0
0
0
0
0
0
0
0
0
0
0
0
0
0
0
0
0
0
0
0
0
0
0
0
0
0
0
0
0
0
0
0
0
0
0
0
0
0
0
0
0
0
0
0
0
0
0
0
0
0
0
0
0
0
0
0
0
0
0
0
0
0
0
0
0
0
0
0
0
0
0
0
0
0
0
0
0
0
0
0
0
0
0
0
0
0
0
0
0
0
0
0
0
0
0
0
0
0
0
0
0
0
0
0
0
0
0
0
0
0
0
0
0
0
0
0
0
0
0
0
0
0
0
0
0
0
0
0
0
0
0
0
0
0
0
0
0
0
0
0
0
0
0
0
0
0
0
0
0
0
0
0
0
0
0
0
0
0
0
0
0
0
0
0
0
0
0
0
0
0
0
0
0
0
0
0
0
0
0
0
0
0
0
0
0
0
0
0
0
0
0
0
0
0
0
0
0
0
0
0
0
0
0
0
0
0
0
0
0
0
0
0
0
0
0
0
0
0
0
0
0
0
0
0
0
0
0
0
0
0
0
0
0
0
0
0
0
0
0
0
0
0
0
0
0
0
0
0
0
0
0
0
0
0
0
0
0
0
0
0
0
0
0
0
0
0
0
0
0
0
0
0
0
0
0
0
0
0
0
0
0
0
0
0
0
0
0
0
0
0
0
0
0
0
0
0
0
0
0
0
0
0
0
0
0
0
0
0
0
0
0
0
0
0
0
0
0
0
0
0
0
0
0
0
0
0
0
0
0
0
0
0
0
0
0
0
0
0
0
0
0
0
0
0
0
0
0
0
0
0
0
0
0
0
0
0
0
0
0
0
0
0
0
0
0
0
0
0
0
0
0
0
0
0
0
0
0
0
0
0
0
0
0
0
0
0
0
0
0
0
0
0
0
0
0
0
0
0
0
0
0
0
0
0
0
0
0
0
0
0
0
0
0
0
0
0
0
0
0
0
0
0
0
0
0
0
0
0
0
0
0
0
0
0
0
0
0
0
0
0
0
0
0
0
0
0
0
0
0
0
0
0
0
0
0
0
0
0
0
0
0
0
0
0
0
0
0
0
0
0
0
0
0
0
0
0
0
0
0
0
0
0
0
0
0
0
0
0
0
0
0
0
0
0
0
0
0
0
0
0
0
0
0
0
0
0
0
0
0
0
0
0
0
0
0
0
0
0
0
0
0
0
0
0
0
0
0
0
0
0
0
0
0
0
0
0
0
0
0
0
0
0
0
0
0
0
0
0
0
0
0
0
0
0
0
0
0
0
0
0
0
0
0
0
0
0
0
0
0
0
0
0
0
0
0
0
0
0
0
0
0
0
0
0
0
0
0
0
0
0
0
0
0
0
0
0
0
0
0
0
0
0
0
0
0
0
0
0
0
0
0
0
0
0
0
0
0
0
0
0
0
0
0
0
0
0
0
