0.485599
0.454487
0.520928
0.650958
0.797074
0.913551
0.969388
0.954082
0.875051
0.749485
0.595461
0.426333
0.251173
0.0730499
-0.158413
0
0.988488
3.08145
6.09504
9.29994
11.6292
12.1469
10.5286
7.24542
3.32336
-0.166388
-2.55685
-3.72251
-3.87838
-3.43453
-2.61906
-1.63738
-0.689635
-0.0238222
0.18832
0.283601
0.359525
0.42943
0.496468
0.56254
0.628483
0.694287
0.759444
0.823279
0.885132
0.944369
1.0002
1.05206
1.09961
1.14306
1.18336
1.2221
1.26108
1.30168
1.34372
1.38288
1.41175
1.42283
1.41235
1.38315
1.34493
1.31146
1.29577
1.30526
1.33513
1.37757
1.4238
1.46463
1.49296
1.50531
1.50228
1.48781
1.46761
1.44742
1.43132
1.4212
1.41733
1.41912
1.42552
1.43536
1.4476
1.46145
1.47619
1.49105
1.5051
1.51728
1.52663
1.53258
1.53528
1.53571
1.53578
1.53809
1.54565
1.56137
1.58743
1.62529
1.67627
1.74019
1.81076
1.87544
1.92017
1.93294
1.90713
1.84331
1.74896
1.63627
1.51919
1.41041
1.31689
1.2422
1.19095
1.16608
1.16859
1.19714
1.24782
1.31425
1.38834
1.46104
1.52389
1.5703
1.59629
1.60084
1.58554
1.55402
1.51127
1.46323
1.41562
1.37421
1.34409
1.32911
1.3314
1.35095
1.38564
1.43163
1.48412
1.53822
1.58975
1.63585
1.67417
1.70334
1.72259
1.73155
1.73024
1.71903
1.69881
1.67112
1.63829
1.60346
1.57037
1.54293
1.52473
1.52016
1.53296
1.55853
1.58565
1.60172
1.59765
1.57157
1.52948
1.48243
1.4416
1.41366
1.39655
1.38583
1.37708
1.36658
1.35269
1.33624
1.32022
1.30892
1.30671
1.3168
1.34298
1.38907
1.45845
1.55357
1.67547
1.82305
1.99259
2.17897
2.37562
2.57192
2.7526
2.90316
3.01224
3.07347
3.08637
3.05577
2.99001
2.89829
2.78826
2.66529
2.53305
2.39334
2.24707
2.09559
1.94124
1.78726
1.6374
1.49523
1.36387
1.24563
1.14187
1.05304
0.978702
0.917566
0.867561
0.82581
0.787998
0.748369
0.701098
0.6414
0.566663
0.477268
0.355965
0
0.270332
1.7037
4.48755
8.17732
11.7017
13.7506
13.3875
10.5405
6.07375
1.38096
-2.26004
-4.2034
-4.56263
-3.94039
-3.00523
-2.14486
-1.43812
-0.817704
-0.391243
-0.214972
-0.110521
-0.0379929
0.0147026
0.0512939
0.075935
0.0925903
0.104775
0.115392
0.126835
0.141357
0.161123
0.188053
0.223461
0.267621
0.319621
0.377289
0.436499
0.492242
0.540252
0.578221
0.606493
0.627943
0.647025
0.668285
0.694854
0.727322
0.763949
0.80157
0.836664
0.866565
0.890248
0.90843
0.923031
0.936287
0.949885
0.964363
0.979235
0.993298
1.00489
1.01217
1.01323
1.00626
0.990176
0.964848
0.931531
0.893222
0.854693
0.822028
0.80162
0.800312
0.829013
0.890249
0.966589
1.03378
1.06961
1.06237
1.01524
0.944839
0.874857
0.827466
0.813244
0.825288
0.854679
0.895675
0.940562
0.981149
1.01067
1.02479
1.02205
1.00369
0.972874
0.933691
0.890032
0.844803
0.799634
0.75514
0.711611
0.669582
0.630204
0.595257
0.566822
0.546739
0.535925
0.534042
0.540094
0.552275
0.568304
0.585824
0.602792
0.617701
0.629746
0.638891
0.645854
0.651978
0.658988
0.66867
0.682483
0.701196
0.724715
0.751778
0.780053
0.806541
0.827998
0.841533
0.845084
0.837672
0.819437
0.791489
0.755645
0.714158
0.669521
0.624409
0.581644
0.544378
0.515888
0.4994
0.49772
0.51277
0.545169
0.593956
0.656492
0.728779
0.805705
0.879235
0.940343
0.980906
0.995126
0.980742
0.939623
0.877532
0.803114
0.726407
0.657109
0.601325
0.562551
0.543526
0.544806
0.565542
0.6035
0.654546
0.715347
0.784832
0.865103
0.961349
1.08062
1.22968
1.432
1.70798
2.01462
2.28919
2.47362
2.53642
2.48133
2.33998
2.15388
1.95638
1.76349
1.57547
1.39079
1.20941
1.03263
0.863111
0.704488
0.560695
0.435305
0.331125
0.250375
0.192978
0.153813
0.126211
0.103819
0.0822002
0.0597427
0.0375427
0.0183355
0.00489121
-0.00149651
-0.00243168
0
-0.0266394
0.0755919
0.907944
2.92717
6.05304
9.48211
11.9388
12.2852
10.146
6.15246
1.63729
-2.03073
-4.06444
-4.4779
-3.84967
-2.88464
-2.03401
-1.43115
-1.01184
-0.695934
-0.457613
-0.256816
-0.0813812
0.0727747
0.207945
0.325829
0.427784
0.516279
0.594508
0.665827
0.733117
0.798062
0.860945
0.920635
0.975121
1.02261
1.06258
1.09631
1.12677
1.1578
1.19303
1.23462
1.28239
1.33482
1.38941
1.44262
1.49011
1.52752
1.5516
1.56079
1.55579
1.53978
1.51805
1.49711
1.48332
1.4815
1.49344
1.51853
1.55364
1.59438
1.63647
1.67705
1.71527
1.75227
1.79039
1.83203
1.87826
1.92863
1.97996
2.02511
2.05546
2.0637
2.04671
2.00744
1.95494
1.90228
1.86299
1.84703
1.85491
1.88393
1.92718
1.97541
2.01947
2.05347
2.07358
2.07828
2.06799
2.04427
2.00971
1.96695
1.91834
1.86602
1.81204
1.75823
1.7061
1.65681
1.61121
1.57022
1.5351
1.50772
1.49055
1.48618
1.49793
1.53062
1.58472
1.6443
1.68658
1.68969
1.64149
1.54583
1.42321
1.30455
1.22026
1.18912
1.19714
1.23576
1.29052
1.34567
1.38847
1.41195
1.41538
1.40279
1.38052
1.35493
1.33032
1.30881
1.29161
1.27954
1.27324
1.27354
1.28153
1.29833
1.32477
1.36207
1.41093
1.46735
1.52395
1.57306
1.60928
1.63132
1.64203
1.64674
1.65055
1.65624
1.6637
1.67195
1.68072
1.69164
1.70814
1.73398
1.77281
1.82296
1.8774
1.92745
1.96716
1.99693
2.02415
2.06075
2.11881
2.20633
2.31861
2.44886
2.59251
2.74494
2.90058
3.05116
3.18475
3.28931
3.35329
3.36805
3.33083
3.2467
3.12841
2.99357
2.8602
2.74147
2.63983
2.55224
2.47611
2.40745
2.34156
2.27399
2.20112
2.12051
2.03093
1.93236
1.82537
1.71056
1.58834
1.45867
1.32097
1.17426
1.01743
0.84965
0.670674
0.478338
0.093741
0
0.768941
2.78377
5.99805
9.74979
12.8716
14.153
12.9338
9.47357
4.84587
0.41974
-2.7442
-4.24066
-4.27769
-3.38136
-2.10535
-0.830231
0.21782
0.851234
0.926185
0.956574
0.98249
1.01289
1.05636
1.12665
1.23461
1.36685
1.49447
1.58576
1.61783
1.58485
1.50049
1.3944
1.30421
1.2649
1.28626
1.36199
1.49924
1.66383
1.8119
1.90501
1.92355
1.87285
1.77993
1.68282
1.61766
1.60335
1.62962
1.68861
1.78484
1.91649
2.06007
2.18217
2.25201
2.25145
2.18384
2.07666
1.97439
1.92292
1.95126
2.04195
2.17639
2.32284
2.44665
2.52088
2.53369
2.49071
2.41193
2.32469
2.25507
2.21601
2.20965
2.23246
2.26325
2.27658
2.25252
2.1847
2.0829
1.96923
1.86941
1.80364
1.77406
1.77046
1.7887
1.82619
1.88015
1.94769
2.02732
2.11391
2.19722
2.26517
2.30651
2.31378
2.28502
2.22345
2.13521
2.02619
1.90036
1.75963
1.60358
1.42993
1.22695
0.992545
0.765593
0.602606
0.557637
0.659326
0.941305
1.32054
1.68409
1.93892
2.04476
2.01549
1.8956
1.73232
1.56216
1.41075
1.28757
1.19735
1.15061
1.18306
1.28656
1.41202
1.49972
1.5059
1.42394
1.28828
1.15779
1.08674
1.09868
1.15442
1.22675
1.2951
1.34247
1.35945
1.34558
1.30791
1.25754
1.20536
1.15795
1.11685
1.07978
1.04205
0.998935
0.94796
0.890253
0.830437
0.775257
0.731593
0.704186
0.692574
0.696646
0.715311
0.746367
0.787882
0.836968
0.889627
0.943105
0.996985
1.05381
1.11872
1.19793
1.29643
1.4157
1.55154
1.69608
1.83917
1.96954
2.07522
2.1452
2.17357
2.15812
2.10016
2.00399
1.87628
1.72508
1.55874
1.38485
1.2098
1.03778
0.871762
0.714716
0.569552
0.439075
0.325706
0.231047
0.155495
0.097978
0.055862
0.0249947
0
-0.0181889
-0.041695
-0.074338
-0.117896
-0.171946
-0.236821
-0.6051
-0.646358
0.292506
2.64996
6.26071
10.191
13.0361
13.5803
11.4301
7.22531
2.30428
-1.94156
-4.62644
-5.56945
-5.13096
-3.90141
-2.4275
-1.09979
-0.142625
0.234926
0.156319
0.0569639
-0.043358
-0.126027
-0.173865
-0.177393
-0.146632
-0.094731
-0.0355936
0.0163607
0.0502239
0.0614561
0.0526953
0.0324541
0.0124464
0.00465126
0.0159088
0.0587994
0.181449
0.487404
0.96112
1.46978
1.83696
1.91198
1.64003
1.08773
0.420297
-0.138271
-0.349693
-0.311452
-0.187744
-0.0115791
0.197539
0.418116
0.630125
0.821923
0.981465
1.10345
1.18729
1.2367
1.25899
1.26393
1.26185
1.26141
1.26745
1.28039
1.29548
1.3059
1.30649
1.29666
1.28123
1.26866
1.26759
1.28332
1.31362
1.35373
1.39877
1.44364
1.48422
1.5177
1.54243
1.55715
1.56079
1.55234
1.53016
1.49316
1.44163
1.37784
1.3064
1.23409
1.16901
1.11916
1.09454
1.11171
1.18414
1.29659
1.41902
1.51886
1.57167
1.56844
1.51734
1.43987
1.36351
1.31299
1.29556
1.30523
1.34032
1.38931
1.43752
1.47119
1.48121
1.46534
1.42843
1.38066
1.33466
1.30172
1.28656
1.28984
1.31118
1.3498
1.40097
1.45729
1.51109
1.55606
1.58836
1.60696
1.61324
1.60987
1.59963
1.58472
1.56649
1.54554
1.52265
1.49919
1.47724
1.45907
1.44712
1.4426
1.44327
1.44506
1.44395
1.43806
1.42879
1.42048
1.41841
1.42621
1.44494
1.4691
1.48967
1.49774
1.48821
1.46204
1.42624
1.39186
1.37112
1.37229
1.39701
1.44582
1.51972
1.61823
1.73929
1.87939
2.03402
2.19779
2.36429
2.52553
2.67177
2.79357
2.88338
2.93591
2.9489
2.92359
2.8646
2.77896
2.67477
2.55981
2.44098
2.32327
2.21007
2.10455
2.00991
1.92912
1.86476
1.81839
1.78936
1.77408
1.76602
1.75672
1.73722
1.6993
1.63652
1.54473
1.42232
1.26998
1.09029
0.887636
0.667872
0.434515
0.085113
0
0.760892
2.77964
5.99515
9.72449
12.8438
14.2506
13.3572
10.3474
6.07246
1.67624
-1.8384
-3.90297
-4.45696
-3.83589
-2.58149
-1.20757
-0.0651645
0.711173
1.04863
1.18033
1.27686
1.34794
1.39393
1.41805
1.42592
1.4245
1.42092
1.4211
1.42847
1.44407
1.46752
1.49707
1.5298
1.56257
1.59277
1.6187
1.63984
1.65667
1.67043
1.68273
1.69523
1.70938
1.72632
1.7467
1.77049
1.79707
1.82436
1.84868
1.86601
1.87335
1.86989
1.85752
1.84041
1.82352
1.81107
1.80536
1.80649
1.81366
1.82616
1.84422
1.86903
1.90195
1.94329
1.99137
2.04207
2.09115
2.13412
2.16661
2.18478
2.18558
2.16732
2.12964
2.0738
2.00288
1.92168
1.83674
1.75642
1.68938
1.64333
1.62382
1.63338
1.67111
1.73429
1.81661
1.90834
1.99717
2.06921
2.11259
2.11865
2.08313
2.00715
1.89757
1.76624
1.62799
1.49752
1.38564
1.29438
1.22219
1.16591
1.12087
1.08292
1.05019
1.02398
1.0084
1.00893
1.03144
1.08633
1.16919
1.25946
1.33172
1.36498
1.35026
1.29314
1.2105
1.12335
1.0493
0.99439
0.955645
0.930846
0.918801
0.918336
0.928523
0.948388
0.976621
1.01044
1.04582
1.07798
1.10222
1.11486
1.11413
1.10065
1.07744
1.04961
1.0234
1.0049
0.998932
1.00994
1.03851
1.07784
1.11752
1.14628
1.15499
1.13888
1.09836
1.03833
0.966478
0.891238
0.819754
0.756694
0.704969
0.666687
0.644517
0.641099
0.658908
0.69984
0.764651
0.852457
0.960473
1.0841
1.21738
1.35356
1.48597
1.60848
1.71592
1.80419
1.87008
1.91012
1.92094
1.90091
1.8492
1.76637
1.65487
1.51934
1.36642
1.20401
1.04016
0.88168
0.73273
0.595872
0.472162
0.361597
0.263876
0.179079
0.108036
0.052242
0.0143684
0
0.0198724
0.0568655
0.0897676
0.0957319
0.0589234
-0.0227716
-0.13659
-0.686861
-0.750788
0.255561
2.63122
6.10808
9.74671
12.2181
12.4117
10.0369
5.82601
1.17706
-2.54725
-4.61776
-5.09781
-4.55384
-3.61878
-2.6816
-1.87707
-1.21828
-0.784192
-0.62094
-0.527114
-0.458675
-0.404186
-0.359661
-0.321813
-0.287517
-0.254144
-0.219769
-0.183172
-0.143787
-0.101663
-0.0573643
-0.0119326
0.0332171
0.0766102
0.116986
0.153495
0.185756
0.213752
0.237474
0.257059
0.272867
0.28562
0.296735
0.308527
0.324095
0.346838
0.379731
0.424619
0.481071
0.547301
0.620961
0.698823
0.777043
0.85107
0.915227
0.96353
0.990731
0.992912
0.968626
0.919909
0.852744
0.776671
0.703469
0.645151
0.610271
0.602939
0.627528
0.686164
0.770053
0.860547
0.938516
0.989226
1.00583
0.990547
0.953386
0.908826
0.871715
0.852358
0.851997
0.867662
0.897782
0.936392
0.972042
0.992227
0.986316
0.948297
0.878758
0.785489
0.682437
0.587256
0.518071
0.512419
0.643719
0.927252
1.26964
1.56469
1.73115
1.73092
1.56697
1.27211
0.904694
0.554443
0.323913
0.23567
0.252196
0.34098
0.502377
0.699191
0.888305
1.03294
1.11219
1.12436
1.08347
1.01153
0.930312
0.855161
0.790816
0.738343
0.69907
0.674087
0.664164
0.669921
0.691859
0.730258
0.784983
0.855667
0.942134
1.04281
1.15096
1.25371
1.33658
1.3868
1.39669
1.36575
1.30088
1.21432
1.12035
1.03181
0.955711
0.893383
0.844851
0.810463
0.790714
0.786205
0.797846
0.826769
0.874499
0.944952
1.04527
1.17257
1.30247
1.40452
1.45323
1.44008
1.38062
1.31223
1.28271
1.33385
1.47492
1.68188
1.9683
2.30142
2.61653
2.85505
2.98033
2.98646
2.89798
2.75922
2.61588
2.49634
2.3983
2.30626
2.21191
2.11033
2.00022
1.88424
1.76804
1.65821
1.55989
1.47552
1.40436
1.34292
1.28598
1.22795
1.16377
1.08936
1.00156
0.897829
0.776896
0.63895
0.484279
0.314188
0.131841
-0.0610384
-0.286772
0
0.965572
2.73694
5.3295
8.49348
11.5955
13.7067
13.9502
11.9556
8.13375
3.56084
-0.485427
-3.07165
-3.93531
-3.43988
-2.29822
-1.1457
-0.358022
-0.00356007
0.188501
0.507174
0.841779
1.17666
1.48857
1.75006
1.93855
2.04516
2.07822
2.05966
2.01613
1.96969
1.93215
1.90367
1.884
1.87379
1.874
1.88562
1.90951
1.94556
1.99155
2.04488
2.10405
2.16982
2.24529
2.33791
2.46192
2.61386
2.76541
2.87726
2.91677
2.87429
2.76962
2.64536
2.55033
2.52069
2.55017
2.61474
2.70031
2.80007
2.90789
3.01867
3.12831
3.23262
3.32679
3.40585
3.46455
3.49864
3.50669
3.49172
3.46168
3.42859
3.40636
3.40768
3.43873
3.50013
3.59289
3.7118
3.84641
3.98103
4.09682
4.17755
4.21151
4.19288
4.12264
4.00872
3.86489
3.7081
3.5545
3.41395
3.28678
3.16911
3.05643
2.9426
2.82105
2.68625
2.53497
2.36691
2.18477
1.99352
1.79932
1.60832
1.4257
1.25549
1.10051
0.963049
0.84506
0.747788
0.672061
0.61797
0.58453
0.569514
0.569531
0.580345
0.597318
0.615923
0.631875
0.641807
0.643679
0.636993
0.622742
0.603039
0.580457
0.557249
0.535017
0.514433
0.495982
0.481028
0.472542
0.474859
0.49232
0.53512
0.601276
0.67385
0.731353
0.758864
0.757256
0.744676
0.748537
0.791852
0.881166
0.994295
1.11337
1.21896
1.29624
1.3391
1.35068
1.34097
1.32264
1.30696
1.29932
1.30124
1.31316
1.33479
1.36533
1.40396
1.4501
1.50346
1.56382
1.63077
1.70352
1.781
1.86169
1.94431
2.02856
2.11564
2.20832
2.31053
2.42663
2.56526
2.73407
2.92439
3.11164
3.26674
3.36479
3.3914
3.34473
3.23373
3.07448
2.88638
2.68967
2.49918
2.32274
2.16382
2.02356
1.90233
1.80051
1.7176
1.65204
1.60103
1.56052
1.52475
1.48471
1.42866
1.34442
1.22147
1.05357
0.840789
0.590562
0.294635
-0.254089
0
1.50729
4.35969
8.099
11.7754
14.2562
14.6752
12.8033
9.15085
4.74978
0.733445
-2.07121
-3.36075
-3.32573
-2.42138
-1.28598
-0.223662
0.568726
0.960842
1.1972
1.39618
1.56965
1.71471
1.83054
1.91828
1.98108
2.02389
2.05301
2.0754
2.09766
2.12502
2.16044
2.20418
2.25399
2.30517
2.35212
2.38967
2.41448
2.42573
2.4253
2.41732
2.40721
2.40061
2.40231
2.41551
2.44158
2.48081
2.53321
2.59822
2.67473
2.76182
2.85645
2.95044
3.03251
3.09143
3.11907
3.11296
3.07717
3.02115
2.95704
2.89639
2.84654
2.80919
2.78417
2.77115
2.76972
2.77926
2.79917
2.82879
2.86736
2.91337
2.9641
3.01514
3.06025
3.09208
3.10418
3.0924
3.05634
3.00023
2.93283
2.866
2.81223
2.7817
2.7782
2.80102
2.8442
2.89708
2.9472
2.98283
2.9948
2.97747
2.92879
2.85006
2.74559
2.62429
2.49556
2.36948
2.25764
2.17106
2.11843
2.10448
2.13058
2.19695
2.29547
2.40567
2.50203
2.56287
2.57445
2.53322
2.44597
2.32788
2.19907
2.08079
1.99013
1.93257
1.90794
1.91849
1.96506
2.04773
2.16716
2.31282
2.46574
2.60558
2.714
2.77734
2.78812
2.74564
2.65569
2.53005
2.38566
2.24195
2.11772
2.02836
1.98062
1.97377
2.01808
2.12508
2.29263
2.48496
2.65461
2.76008
2.7751
2.69548
2.54077
2.34915
2.16632
2.03212
1.95656
1.92427
1.9216
1.94101
1.97726
2.02502
2.07852
2.1324
2.18287
2.22827
2.26934
2.30889
2.35113
2.40052
2.46051
2.53246
2.6147
2.70345
2.7929
2.87621
2.94654
2.99796
3.02592
3.02749
3.00117
2.9467
2.86501
2.75828
2.62931
2.48216
2.32223
2.1564
1.99243
1.83847
1.70244
1.59105
1.50918
1.46048
1.44634
1.46447
1.50693
1.55836
1.59794
1.60506
1.56256
1.45955
1.29336
1.07018
0.803787
0.265478
0
0.680618
2.69953
5.9629
9.73927
12.8341
14.0731
12.8657
9.51642
5.08565
0.875741
-2.14518
-3.65071
-3.87745
-3.29045
-2.3607
-1.31407
-0.303446
0.470836
0.782783
0.961769
1.10178
1.21513
1.30096
1.35988
1.39293
1.40158
1.38794
1.35502
1.30711
1.24975
1.18946
1.13409
1.09135
1.06763
1.06697
1.09031
1.13535
1.19695
1.26808
1.34112
1.40947
1.46903
1.51741
1.55443
1.58195
1.60331
1.6226
1.6439
1.67055
1.70464
1.74684
1.79653
1.85206
1.91099
1.97018
2.02563
2.0718
2.10319
2.11513
2.10477
2.07225
2.02136
1.95947
1.89635
1.84247
1.80703
1.79373
1.80535
1.84216
1.90191
1.98204
2.07875
2.17993
2.26915
2.33004
2.34933
2.31956
2.24038
2.11817
1.96463
1.79502
1.6267
1.47422
1.35149
1.26987
1.23594
1.24959
1.30322
1.38402
1.4728
1.55033
1.60157
1.6185
1.60077
1.55413
1.48769
1.41107
1.33267
1.2576
1.18917
1.1305
1.08465
1.05465
1.04323
1.05381
1.09351
1.17057
1.27083
1.36361
1.41588
1.40476
1.32787
1.20618
1.07727
0.981707
0.948993
0.968821
1.02101
1.09653
1.18801
1.28649
1.38251
1.46715
1.53239
1.57183
1.58167
1.56078
1.51116
1.43827
1.3495
1.25799
1.18051
1.13222
1.1229
1.15421
1.2191
1.3037
1.39125
1.46647
1.52092
1.55021
1.5542
1.53492
1.49443
1.43465
1.35776
1.2635
1.14787
1.0144
0.883639
0.782243
0.734759
0.754914
0.840243
0.972435
1.12334
1.26432
1.37714
1.46543
1.53558
1.59462
1.65254
1.72049
1.81558
1.97456
2.22621
2.51924
2.77756
2.92956
2.9346
2.79736
2.56515
2.30916
2.09595
1.95816
1.86305
1.78191
1.70187
1.61494
1.51629
1.40538
1.28606
1.16586
1.05472
0.962061
0.899979
0.89777
1.00617
1.20962
1.42732
1.56108
1.52883
1.29505
0.881876
0.352577
-0.224299
-0.807285
-0.697406
0
1.46689
3.87549
7.12318
10.6046
13.2569
13.9727
12.1945
8.30829
3.54698
-0.582626
-3.01048
-3.52368
-2.68443
-1.49282
-0.553463
-0.0543283
0.0868007
0.19763
0.303693
0.406291
0.504655
0.59739
0.683048
0.760719
0.830497
0.89367
0.952589
1.01024
1.06962
1.13306
1.20208
1.27632
1.35162
1.42069
1.47515
1.50762
1.51363
1.49293
1.44987
1.39284
1.33291
1.28156
1.24703
1.23513
1.25703
1.31592
1.39381
1.46607
1.5096
1.51115
1.47249
1.41055
1.35231
1.32645
1.3532
1.47543
1.67287
1.87972
2.02218
2.05051
1.96078
1.79519
1.61995
1.49251
1.43786
1.42373
1.42648
1.43935
1.4572
1.47639
1.49366
1.50415
1.50145
1.47854
1.43069
1.35868
1.27044
1.18007
1.10437
1.05822
1.04529
1.06082
1.10345
1.1699
1.25353
1.34015
1.41102
1.44934
1.44378
1.39197
1.3025
1.19382
1.08936
1.01021
0.967216
0.958374
0.971504
0.988447
0.991968
0.971816
0.927795
0.869194
0.811325
0.770768
0.756659
0.769421
0.812664
0.889857
0.993964
1.10359
1.19249
1.23689
1.22136
1.14312
1.01347
0.855597
0.698954
0.571554
0.486301
0.438153
0.418404
0.42294
0.445439
0.478575
0.515041
0.548592
0.57423
0.587867
0.58573
0.56528
0.524987
0.464759
0.386476
0.294367
0.19497
0.0965242
0.00791845
-0.0630521
-0.111241
-0.132523
-0.127711
-0.105298
-0.0760496
-0.0499007
-0.0333052
-0.0278798
-0.0307077
-0.0361037
-0.0381722
-0.0335713
-0.021921
-0.00652561
0.00574751
0.00859451
-7.45773e-005
-0.0157187
-0.0272002
-0.0196098
0.0209875
0.102707
0.22066
0.364601
0.524267
0.688484
0.84779
0.996481
1.13095
1.24784
1.34554
1.42304
1.47785
1.50664
1.50657
1.47671
1.41881
1.33721
1.23811
1.12872
1.01601
0.905355
0.800545
0.704223
0.618377
0.544567
0.483711
0.436111
0.401571
0.379426
0.368484
0.366868
0.371975
0.380003
0.384845
0.37892
0.354718
0.306539
0.232257
0.134494
0
-0.501326
-0.317519
1.13539
4.01713
7.78033
11.2488
13.1032
12.5247
9.61517
5.3332
0.999243
-2.30514
-4.09794
-4.48072
-3.86367
-2.75198
-1.50357
-0.397588
0.327033
0.488221
0.547006
0.587059
0.61718
0.643435
0.671958
0.707865
0.754009
0.810793
0.876752
0.948745
1.02269
1.0944
1.16034
1.21805
1.26592
1.3044
1.33553
1.36287
1.39147
1.42753
1.47775
1.5483
1.64365
1.76535
1.91018
2.07262
2.2458
2.42168
2.59197
2.74988
2.89133
3.01553
3.12487
3.22417
3.31939
3.41611
3.51936
3.63081
3.74263
3.84089
3.91159
3.94666
3.94788
3.92693
3.90152
3.88925
3.90192
3.93837
3.99153
4.05788
4.13428
4.21901
4.31198
4.41389
4.52486
4.64323
4.76473
4.88246
4.98861
5.07635
5.14154
5.18361
5.20553
5.21307
5.21346
5.214
5.21993
5.23468
5.2594
5.2935
5.3334
5.37418
5.4109
5.43993
5.45992
5.47215
5.48025
5.48918
5.50397
5.52785
5.56369
5.61114
5.66327
5.70791
5.73153
5.72272
5.67573
5.59275
5.48464
5.36955
5.26978
5.2064
5.22069
5.38663
5.68088
6.00941
6.27537
6.41656
6.41798
6.30097
6.10378
5.86934
5.64314
5.4607
5.33199
5.25288
5.21283
5.20011
5.20955
5.23201
5.25597
5.27095
5.26941
5.2479
5.20738
5.15242
5.08959
5.02541
4.96433
4.90714
4.85204
4.79563
4.73343
4.6608
4.57411
4.4718
4.35483
4.22605
4.09306
3.96737
3.86084
3.78316
3.74006
3.73249
3.7571
3.8076
3.87668
3.95769
4.04495
4.13481
4.22488
4.31261
4.39465
4.46679
4.52431
4.5626
4.578
4.56847
4.5339
4.47581
4.3966
4.2985
4.18273
4.04921
3.89722
3.72653
3.5372
3.3314
3.11449
2.89494
2.68345
2.49123
2.32804
2.20048
2.11303
2.06425
2.04567
2.04393
2.04364
2.02927
1.98671
1.90446
1.77443
1.59265
1.35972
1.08126
0.767538
0.383802
0
0.376455
1.87875
4.57068
8.02245
11.3158
13.3262
13.2009
10.7911
6.77238
2.35548
-1.25588
-3.34833
-3.87494
-3.28294
-2.21656
-1.15607
-0.360268
0.104948
0.294369
0.423594
0.537041
0.641012
0.736339
0.823082
0.901597
0.972325
1.03518
1.08953
1.13506
1.17145
1.19894
1.21889
1.23399
1.24809
1.26558
1.29058
1.32622
1.37319
1.43134
1.4998
1.57677
1.66002
1.74684
1.83345
1.91629
1.99286
2.06236
2.12578
2.1853
2.24301
2.2995
2.35234
2.39644
2.42698
2.44276
2.44829
2.4531
2.46833
2.50221
2.55576
2.62313
2.69408
2.75681
2.80157
2.82324
2.82224
2.80387
2.77672
2.75061
2.73298
2.72843
2.74042
2.77232
2.82067
2.87486
2.92207
2.9508
2.95396
2.93048
2.88487
2.82521
2.76042
2.69793
2.64164
2.59329
2.55415
2.52559
2.50881
2.50473
2.51391
2.53603
2.56941
2.61074
2.65502
2.6959
2.72663
2.74106
2.73436
2.70359
2.64788
2.56844
2.46831
2.3521
2.22591
2.09644
1.97528
1.87625
1.81262
1.79398
1.82323
1.89487
1.99578
2.10847
2.21556
2.30417
2.37274
2.42331
2.45591
2.47147
2.47165
2.45859
2.4345
2.40199
2.36408
2.324
2.28483
2.24901
2.21821
2.19288
2.17186
2.15351
2.13687
2.12267
2.11385
2.11514
2.13364
2.18359
2.27228
2.37948
2.47253
2.51911
2.50107
2.42247
2.30798
2.19256
2.10744
2.06459
2.05052
2.05375
2.06775
2.08555
2.10109
2.11033
2.1118
2.10685
2.09936
2.09518
2.10124
2.1245
2.17082
2.24298
2.34038
2.46153
2.60311
2.76127
2.92934
3.09683
3.25223
3.38463
3.48475
3.54561
3.56301
3.53565
3.46523
3.35631
3.21702
3.0558
2.8806
2.6983
2.51392
2.33045
2.14984
1.97434
1.80733
1.65363
1.51906
1.41384
1.35332
1.34078
1.3598
1.38493
1.38891
1.34996
1.25622
1.10638
0.907345
0.670888
0.413184
0.0805985
0
0.708977
2.66551
5.91452
9.83407
13.2086
14.6975
13.4907
9.76855
4.66967
-0.235863
-3.65761
-5.07064
-4.7526
-3.44749
-1.92434
-0.691056
0.0670818
0.388871
0.543367
0.696191
0.838073
0.949978
1.00767
0.991822
0.900361
0.756087
0.603635
0.494928
0.469023
0.519471
0.6106
0.725653
0.851856
0.977824
1.09549
1.20072
1.29267
1.3705
1.43405
1.48265
1.51395
1.52533
1.51598
1.48827
1.44808
1.40363
1.36368
1.33449
1.31822
1.3151
1.32456
1.34503
1.37421
1.40955
1.44857
1.48893
1.52822
1.56325
1.59032
1.60592
1.60746
1.59444
1.5692
1.53684
1.50423
1.47823
1.46383
1.46141
1.46911
1.48365
1.50018
1.51375
1.52041
1.51797
1.50624
1.48685
1.46262
1.43692
1.41306
1.39365
1.38046
1.37466
1.37686
1.38688
1.40396
1.4263
1.4502
1.47045
1.48169
1.47971
1.4626
1.43156
1.39084
1.34698
1.3074
1.27877
1.26455
1.26563
1.28181
1.31174
1.35256
1.4004
1.45096
1.49986
1.54288
1.57696
1.60065
1.61438
1.62033
1.62211
1.62387
1.62919
1.64009
1.65655
1.67533
1.69135
1.6993
1.69537
1.67853
1.65092
1.61746
1.58463
1.55868
1.54359
1.5413
1.55213
1.57474
1.60642
1.64336
1.68152
1.71734
1.74824
1.77272
1.79024
1.80078
1.80422
1.80027
1.78837
1.76793
1.73883
1.70199
1.65965
1.61539
1.5736
1.5386
1.5138
1.50288
1.50572
1.51699
1.53027
1.5412
1.54986
1.56152
1.58515
1.63039
1.70411
1.80506
1.92591
2.06064
2.2032
2.34711
2.48586
2.61277
2.72131
2.80622
2.86374
2.89129
2.88792
2.85462
2.79438
2.71177
2.61207
2.50021
2.38036
2.25548
2.12756
1.99837
1.87038
1.74724
1.63376
1.53529
1.45752
1.4082
1.39196
1.40177
1.42411
1.44202
1.43826
1.3979
1.30991
1.16777
0.969582
0.717939
0.424148
0.100439
-0.366927
-0.604323
0
1.76718
4.71149
8.38803
11.8992
14.1296
14.177
11.7795
7.49249
2.4895
-1.91784
-4.77801
-5.77184
-5.1775
-3.62404
-1.80146
-0.252351
0.726092
0.982953
1.01177
1.0351
1.05863
1.08466
1.11362
1.144
1.17336
1.1993
1.22048
1.23702
1.25049
1.26331
1.27801
1.2964
1.31913
1.3459
1.37579
1.4074
1.43916
1.4695
1.49719
1.5215
1.54231
1.56007
1.57568
1.59015
1.60429
1.61842
1.63232
1.64551
1.65803
1.67108
1.6874
1.71087
1.74547
1.79481
1.86227
1.9414
2.0176
2.07439
2.09919
2.08771
2.04521
1.98401
1.91881
1.86207
1.81939
1.7906
1.77653
1.7789
1.79981
1.84147
1.90521
1.99601
2.11164
2.23964
2.36371
2.46727
2.537
2.56497
2.5492
2.49338
2.40611
2.30091
2.19313
2.09659
2.02357
1.98226
1.97335
1.99862
2.04942
2.1094
2.16053
2.18682
2.17712
2.1265
2.03602
1.91156
1.76212
1.59865
1.43222
1.272
1.12507
1.00012
0.904078
0.842302
0.817797
0.830529
0.877097
0.950922
1.04294
1.14326
1.23994
1.32098
1.3773
1.40377
1.40005
1.37078
1.32494
1.27411
1.22978
1.2004
1.18968
1.19519
1.20774
1.21645
1.21335
1.19692
1.17315
1.15348
1.15049
1.17308
1.23164
1.31374
1.39182
1.43629
1.42773
1.3654
1.26858
1.16972
1.10196
1.08603
1.11087
1.16232
1.22421
1.27919
1.31332
1.31917
1.29669
1.25222
1.19634
1.14111
1.09603
1.06658
1.0555
1.06319
1.08838
1.12945
1.18465
1.25275
1.33323
1.42606
1.53099
1.64683
1.77089
1.89869
2.02502
2.14412
2.25033
2.33848
2.40426
2.44456
2.45749
2.44218
2.39874
2.32841
2.23369
2.11839
1.98749
1.8468
1.70244
1.55999
1.42386
1.29717
1.18144
1.07652
0.980752
0.891256
0.804264
0.715613
0.621277
0.517862
0.403024
0.275746
0.136415
-0.0133427
-0.170751
-0.338471
-0.401929
0
1.3343
3.90005
7.49983
11.3142
14.1238
14.8234
12.9644
9.01569
4.17353
-0.180595
-3.06821
-4.23022
-4.03697
-3.14252
-2.07886
-1.0854
-0.187038
0.532941
0.798825
0.945824
1.04317
1.09482
1.11187
1.10923
1.10137
1.09901
1.10552
1.12055
1.14369
1.1744
1.21225
1.25702
1.30862
1.36669
1.42984
1.49447
1.55301
1.5956
1.61264
1.59799
1.55199
1.48322
1.40812
1.34818
1.33091
1.43442
1.65982
1.92807
2.13567
2.20633
2.12675
1.94927
1.76309
1.65123
1.65476
1.71897
1.80488
1.89724
1.98474
2.05845
2.1127
2.14525
2.15673
2.14973
2.1277
2.09441
2.05315
2.00628
1.95554
1.90251
1.84887
1.79661
1.74794
1.70516
1.67026
1.64491
1.63009
1.62501
1.62759
1.63575
1.64839
1.66622
1.69192
1.72957
1.78545
1.87115
1.99028
2.12157
2.23352
2.29523
2.28766
2.21038
2.08128
1.92977
1.78691
1.67479
1.59327
1.53512
1.49541
1.4719
1.46248
1.46567
1.48087
1.50813
1.54748
1.59904
1.66191
1.72963
1.79272
1.84139
1.86827
1.87049
1.85045
1.81491
1.77301
1.73402
1.70412
1.68589
1.6806
1.68858
1.7088
1.73917
1.77669
1.8176
1.85795
1.89432
1.92424
1.94656
1.96144
1.9702
1.97494
1.97809
1.98202
1.98872
1.99964
2.01565
2.03685
2.06254
2.09086
2.11867
2.14183
2.15601
2.15754
2.14437
2.11683
2.07795
2.03323
1.98991
1.95581
1.93797
1.94061
1.96695
2.02106
2.10673
2.21608
2.32338
2.40112
2.42895
2.40265
2.33871
2.2704
2.23542
2.26019
2.34441
2.45923
2.58867
2.7223
2.85316
2.97887
3.1007
3.22157
3.34343
3.4597
3.55516
3.61069
3.60956
3.5423
3.40885
3.21854
2.98848
2.74169
2.49911
2.27425
2.07386
1.89942
1.7522
1.63315
1.54241
1.47993
1.44891
1.4674
1.55947
1.68914
1.79383
1.80156
1.66033
1.36274
0.95048
0.196633
0
0.822123
2.86048
6.01018
9.75528
13.1477
15.0333
14.525
11.5003
6.77778
1.79657
-2.04357
-3.9871
-4.11762
-3.08541
-1.66762
-0.33856
0.735134
1.44889
1.65409
1.78676
1.85137
1.85009
1.79979
1.72681
1.65873
1.61631
1.60089
1.60519
1.62501
1.65446
1.68768
1.7205
1.75137
1.78145
1.81365
1.85118
1.89733
1.95009
2.00116
2.03905
2.05292
2.03622
1.9888
1.91681
1.83083
1.74318
1.6643
1.59945
1.55075
1.51881
1.50285
1.50083
1.50949
1.52484
1.54263
1.55896
1.57075
1.57618
1.57485
1.56779
1.5574
1.54713
1.54113
1.54379
1.55903
1.58961
1.63684
1.70136
1.78248
1.87369
1.96517
2.04627
2.10732
2.14111
2.14369
2.11455
2.05641
1.9748
1.87879
1.77723
1.67852
1.59041
1.51894
1.46752
1.43703
1.42597
1.4312
1.44889
1.47499
1.50634
1.54081
1.57683
1.61285
1.64676
1.67562
1.69612
1.70526
1.70126
1.68453
1.65809
1.62731
1.59889
1.57932
1.57268
1.58309
1.60878
1.63986
1.66334
1.66677
1.64196
1.58737
1.5088
1.41811
1.33045
1.26013
1.21424
1.19356
1.19857
1.22766
1.27181
1.31916
1.35875
1.38326
1.39061
1.38396
1.37018
1.35719
1.35111
1.35364
1.36329
1.37374
1.37686
1.3657
1.33714
1.29351
1.24244
1.19503
1.16291
1.15454
1.17062
1.20667
1.25866
1.31902
1.3785
1.42812
1.46065
1.47141
1.4586
1.42322
1.36854
1.29969
1.22324
1.14636
1.07701
1.02291
0.990729
0.985278
1.00892
1.06132
1.13979
1.23995
1.35677
1.48503
1.62019
1.75911
1.89944
2.03893
2.17475
2.30333
2.42056
2.52182
2.60215
2.65594
2.67468
2.65317
2.58738
2.47569
2.32031
2.1283
1.91164
1.686
1.4683
1.27362
1.10758
0.972267
0.868535
0.793624
0.742237
0.706859
0.676882
0.639846
0.583813
0.498737
0.3777
0.217815
0.0205727
-0.208432
-0.460328
-0.740162
-0.656768
0
1.40768
3.67173
6.65285
9.83566
12.359
13.2863
12.036
8.72823
4.20919
-0.293827
-3.69367
-5.44129
-5.60718
-4.67895
-3.25465
-1.82231
-0.676912
0.0632446
0.318674
0.351237
0.373723
0.395588
0.420116
0.449571
0.484904
0.525598
0.569967
0.615525
0.659271
0.698
0.728426
0.747419
0.752607
0.742566
0.717254
0.678454
0.62884
0.5747
0.525898
0.492418
0.482021
0.498386
0.540477
0.603418
0.680486
0.765347
0.853356
0.941822
1.02826
1.10692
1.16766
1.19715
1.1845
1.12787
1.038
0.935854
0.845288
0.784112
0.753784
0.743982
0.749701
0.766148
0.790995
0.825258
0.872686
0.947339
1.06093
1.19012
1.2937
1.33234
1.29145
1.1929
1.08732
1.03017
1.05549
1.14752
1.26635
1.39473
1.52096
1.6338
1.7247
1.79038
1.83182
1.85346
1.86206
1.86517
1.86944
1.87996
1.89745
1.917
1.93156
1.93613
1.93116
1.92334
1.92307
1.94104
1.98606
2.0438
2.08548
2.0787
2.00031
1.84549
1.62955
1.38276
1.14105
0.932973
0.763047
0.643344
0.647565
0.940127
1.49475
2.115
2.60581
2.79033
2.57865
2.02846
1.34493
0.808797
0.668558
0.806754
0.988627
1.16784
1.32852
1.45955
1.55628
1.62044
1.65852
1.67904
1.68953
1.69353
1.69038
1.67542
1.64306
1.59049
1.52056
1.44255
1.37047
1.31946
1.30151
1.31949
1.37935
1.47063
1.57045
1.65455
1.70417
1.71075
1.67768
1.61861
1.55322
1.50132
1.47559
1.47661
1.49837
1.53601
1.58389
1.63772
1.69634
1.76245
1.84194
1.94209
2.06909
2.23548
2.45117
2.69215
2.91474
3.076
3.14749
3.12289
3.01753
2.86104
2.68672
2.52184
2.37666
2.24755
2.12933
2.01781
1.90916
1.79983
1.68728
1.57067
1.45106
1.33121
1.21482
1.10642
1.01007
0.924622
0.845531
0.766677
0.682808
0.591424
0.493249
0.391208
0.288605
0.18743
0.0879255
0
0.0356743
0.745628
2.59298
5.60281
9.17045
12.2071
13.5918
12.6962
9.68955
5.4568
1.19199
-2.09898
-3.92852
-4.36825
-3.85174
-2.91236
-1.94645
-1.15993
-0.603572
-0.287692
-0.120888
0.0116438
0.127503
0.229387
0.314768
0.382427
0.432235
0.465675
0.48614
0.498772
0.509714
0.524897
0.548686
0.582612
0.624819
0.671932
0.719527
0.763102
0.799163
0.825969
0.843755
0.854428
0.86087
0.866088
0.872432
0.881127
0.892311
0.90532
0.91907
0.932483
0.944832
0.955907
0.965988
0.975671
0.98564
0.996446
1.00841
1.02155
1.03569
1.05045
1.06531
1.07963
1.09256
1.10305
1.11003
1.11265
1.1106
1.10443
1.09568
1.08676
1.08059
1.07994
1.08681
1.1017
1.12371
1.15087
1.18013
1.20773
1.22982
1.24315
1.24551
1.23604
1.2152
1.18465
1.14675
1.1041
1.05894
1.01287
0.966653
0.920526
0.874656
0.829662
0.787034
0.749203
0.719164
0.700195
0.696994
0.711069
0.735013
0.757888
0.769228
0.763245
0.741207
0.710836
0.683022
0.667479
0.668628
0.683018
0.706835
0.737052
0.770765
0.805798
0.840771
0.874747
0.906657
0.934776
0.956432
0.967274
0.961744
0.935825
0.887639
0.818941
0.736069
0.649835
0.574066
0.522939
0.507734
0.54372
0.636973
0.767979
0.903814
1.01179
1.06881
1.06694
1.01431
0.932055
0.84834
0.790933
0.776598
0.830172
0.948638
1.07961
1.15566
1.1185
0.942061
0.647236
0.301786
0.00193205
-0.161431
-0.178993
-0.0613107
0.153708
0.405012
0.62937
0.782218
0.871002
0.902794
0.896843
0.876946
24
224
425
621
819
1017
1213
1410
1609
1806
2005
2205
2403
2603
2801
2999
3199
3400
3597
3346
3513
3681
0
0
0
0
0
0
0
0
0
0
0
0
0
0
0
0
0
0
0
0
0
0
0
0
0
0
0
0
0
0
0
0
0
0
0
0
0
0
0
0
0
0
0
0
0
0
0
0
0
0
0
0
0
0
0
0
0
0
0
0
0
0
0
0
0
0
0
0
0
0
0
0
0
0
0
0
0
0
0
0
0
0
0
0
0
0
0
0
0
0
0
0
0
0
0
0
0
0
0
0
0
0
0
0
0
0
0
0
0
0
0
0
0
0
0
0
0
0
0
0
0
0
0
0
0
0
0
0
0
0
0
0
0
0
0
0
0
0
0
0
0
0
0
0
0
0
0
0
0
0
0
0
0
0
0
0
0
0
0
0
0
0
0
0
0
0
0
0
0
0
0
0
0
0
0
0
0
0
0
0
0
0
0
0
0
0
0
0
0
0
0
0
0
0
0
0
0
0
0
0
0
0
0
0
0
0
0
0
0
0
0
0
0
0
0
0
0
0
0
0
0
0
0
0
0
0
0
0
0
0
0
0
0
0
0
0
0
0
0
0
0
0
0
0
0
0
0
0
0
0
0
0
0
0
0
0
0
0
0
0
0
0
0
0
0
0
0
0
0
0
0
0
0
0
0
0
0
0
0
0
0
0
0
0
0
0
0
0
0
0
0
0
0
0
0
0
0
0
0
0
0
0
0
0
0
0
0
0
0
0
0
0
0
0
0
0
0
0
0
0
0
0
0
0
0
0
0
0
0
0
0
0
0
0
0
0
0
0
0
0
0
0
0
0
0
0
0
0
0
0
0
0
0
0
0
0
0
0
0
0
0
0
0
0
0
0
0
0
0
0
0
0
0
0
0
0
0
0
0
0
0
0
0
0
0
0
0
0
0
0
0
0
0
0
0
0
0
0
0
0
0
0
0
0
0
0
0
0
0
0
0
0
0
0
0
0
0
0
0
0
0
0
0
0
0
0
0
0
0
0
0
0
0
0
0
0
0
0
0
0
0
0
0
0
0
0
0
0
0
0
0
0
0
0
0
0
0
0
0
0
0
0
0
0
0
0
0
0
0
0
0
0
0
0
0
0
0
0
0
0
0
0
0
0
0
0
0
0
0
0
0
0
0
0
0
0
0
0
0
0
0
0
0
0
0
0
0
0
0
0
0
0
0
0
0
0
0
0
0
0
0
0
0
0
0
0
0
0
0
0
0
0
0
0
0
0
0
0
0
0
0
0
0
0
0
0
0
0
0
0
0
0
0
0
0
0
0
0
0
0
0
0
0
0
0
0
0
0
0
0
0
0
0
0
0
0
0
0
0
0
0
0
0
0
0
0
0
0
0
0
0
0
0
0
0
0
0
0
0
0
0
0
0
0
0
0
0
0
0
0
0
0
0
0
0
0
0
0
0
0
0
0
0
0
0
0
0
0
0
0
0
0
0
0
0
0
0
0
0
0
0
0
0
0
0
0
0
0
0
0
0
0
0
0
0
0
0
0
0
0
0
0
0
0
0
0
0
0
0
0
0
0
0
0
0
0
0
0
0
0
0
0
0
0
0
0
0
0
0
0
0
0
0
0
0
0
0
0
0
0
0
0
0
0
0
0
0
0
0
0
0
0
0
0
0
0
0
0
0
0
0
0
0
0
0
0
0
0
0
0
0
0
0
0
0
0
0
0
0
0
0
0
0
0
0
0
0
0
0
0
0
0
0
0
0
0
0
0
0
0
0
0
0
0
0
0
0
0
0
0
0
0
0
0
0
0
0
0
0
0
0
0
0
0
0
0
0
0
0
0
0
0
0
0
0
0
0
0
0
0
0
0
0
0
0
0
0
0
0
0
0
0
0
0
0
0
0
0
0
0
0
0
0
0
0
0
0
0
0
0
0
0
0
0
0
0
0
0
0
0
0
0
0
0
0
0
0
0
0
0
0
0
0
0
0
0
0
0
0
0
0
0
0
0
0
0
0
0
0
0
0
0
0
0
0
0
0
0
0
0
0
0
0
0
0
0
0
0
0
0
0
0
0
0
0
0
0
0
0
0
0
0
0
0
0
0
0
0
0
0
0
0
0
0
0
0
0
0
0
0
0
0
0
0
0
0
0
0
0
0
0
0
0
0
0
0
0
0
0
0
0
0
0
0
0
0
0
0
0
0
0
0
0
0
0
0
0
0
0
0
0
0
0
0
0
0
0
0
0
0
0
0
0
0
0
0
0
0
0
0
0
0
0
0
0
0
0
0
0
0
0
0
0
0
0
0
0
0
0
0
0
0
0
0
0
0
0
0
0
0
0
0
0
0
0
0
0
0
0
0
0
0
0
0
0
0
0
0
0
0
0
0
0
0
0
0
0
0
0
0
0
0
0
0
0
0
0
0
0
0
0
0
0
0
0
0
0
0
0
0
0
0
0
0
0
0
0
0
0
0
0
0
0
0
0
0
0
0
0
0
0
0
0
0
0
0
0
0
0
0
0
0
0
0
0
0
0
0
0
0
0
0
0
0
0
0
0
0
0
0
0
0
0
0
0
0
0
0
0
0
0
0
0
0
0
0
0
0
0
0
0
0
0
0
0
0
0
0
0
0
0
0
0
0
0
0
0
0
0
0
0
0
0
0
0
0
0
0
0
0
0
0
0
0
0
0
0
0
0
0
0
0
0
0
0
0
0
0
0
0
0
0
0
0
0
0
0
0
0
0
0
0
0
0
0
0
0
0
0
0
0
0
0
0
0
0
0
0
0
0
0
0
0
0
0
0
0
0
0
0
0
0
0
0
0
0
0
0
0
0
0
0
0
0
0
0
0
0
0
0
0
0
0
0
0
0
0
0
0
0
0
0
0
0
0
0
0
0
0
0
0
0
0
0
0
0
0
0
0
0
0
0
0
0
0
0
0
0
0
0
0
0
0
0
0
0
0
0
0
0
0
0
0
0
0
0
0
0
0
0
0
0
0
0
0
0
0
0
0
0
0
0
0
0
0
0
0
0
0
0
0
0
0
0
0
0
0
0
0
0
0
0
0
0
0
0
0
0
0
0
0
0
0
0
0
0
0
0
0
0
0
0
0
0
0
0
0
0
0
0
0
0
0
0
0
0
0
0
0
0
0
0
0
0
0
0
0
0
0
0
0
0
0
0
0
0
0
0
0
0
0
0
0
0
0
0
0
0
0
0
0
0
0
0
0
0
0
0
0
0
0
0
0
0
0
0
0
0
0
0
0
0
0
0
0
0
0
0
0
0
0
0
0
0
0
0
0
0
0
0
0
0
0
0
0
0
0
0
0
0
0
0
0
0
0
0
0
0
0
0
0
0
0
0
0
0
0
0
0
0
0
0
0
0
0
0
0
0
0
0
0
0
0
0
0
0
0
0
0
0
0
0
0
0
0
0
0
0
0
0
0
0
0
0
0
0
0
0
0
0
0
0
0
0
0
0
0
0
0
0
0
0
0
0
0
0
0
0
0
0
0
0
0
0
0
0
0
0
0
0
0
0
0
0
0
0
0
0
0
0
0
0
0
0
0
0
0
0
0
0
0
0
0
0
0
0
0
0
0
0
0
0
0
0
0
0
0
0
0
0
0
0
0
0
0
0
0
0
0
0
0
0
0
0
0
0
0
0
0
0
0
0
0
0
0
0
0
0
0
0
0
0
0
0
0
0
0
0
0
0
0
0
0
0
0
0
0
0
0
0
0
0
0
0
0
0
0
0
0
0
0
0
0
0
0
0
0
0
0
0
0
0
0
0
0
0
0
0
0
0
0
0
0
0
0
0
0
0
0
0
0
0
0
0
0
0
0
0
0
0
0
0
0
0
0
0
0
0
0
0
0
0
0
0
0
0
0
0
0
0
0
0
0
0
0
0
0
0
0
0
0
0
0
0
0
0
0
0
0
0
0
0
0
0
0
0
0
0
0
0
0
0
0
0
0
0
0
0
0
0
0
0
0
0
0
0
0
0
0
0
0
0
0
0
0
0
0
0
0
0
0
0
0
0
0
0
0
0
0
0
0
0
0
0
0
0
0
0
0
0
0
0
0
0
0
0
0
0
0
0
0
0
0
0
0
0
0
0
0
0
0
0
0
0
0
0
0
0
0
0
0
0
0
0
0
0
0
0
0
0
0
0
0
0
0
0
0
0
0
0
0
0
0
0
0
0
0
0
0
0
0
0
0
0
0
0
0
0
0
0
0
0
0
0
0
0
0
0
0
0
0
0
0
0
0
0
0
0
0
0
0
0
0
0
0
0
0
0
0
0
0
0
0
0
0
0
0
0
0
0
0
0
0
0
0
0
0
0
0
0
0
0
0
0
0
0
0
0
0
0
0
0
0
0
0
0
0
0
0
0
0
0
0
0
0
0
0
0
0
0
0
0
0
0
0
0
0
0
0
0
0
0
0
0
0
0
0
0
0
0
0
0
0
0
0
0
0
0
0
0
0
0
0
0
0
0
0
0
0
0
0
0
0
0
0
0
0
0
0
0
0
0
0
0
0
0
0
0
0
0
0
0
0
0
0
0
0
0
0
0
0
0
0
0
0
0
0
0
0
0
0
0
0
0
0
0
0
0
0
0
0
0
0
0
0
0
0
0
0
0
0
0
0
0
0
0
0
0
0
0
0
0
0
0
0
0
0
0
0
0
0
0
0
0
0
0
0
0
0
0
0
0
0
0
0
0
0
0
0
0
0
0
0
0
0
0
0
0
0
0
0
0
0
0
0
0
0
0
0
0
0
0
0
0
0
0
0
0
0
0
0
0
0
0
0
0
0
0
0
0
0
0
0
0
0
0
0
0
0
0
0
0
0
0
0
0
0
0
0
0
0
0
0
0
0
0
0
0
0
0
0
0
0
0
0
0
0
0
0
0
0
0
0
0
0
0
0
0
0
0
0
0
0
0
0
0
0
0
0
0
0
0
0
0
0
0
0
0
0
0
0
0
0
0
0
0
0
0
0
0
0
0
0
0
0
0
0
0
0
0
0
0
0
0
0
0
0
0
0
0
0
0
0
0
0
0
0
0
0
0
0
0
0
0
0
0
0
0
0
0
0
0
0
0
0
0
0
0
0
0
0
0
0
0
0
0
0
0
0
0
0
0
0
0
0
0
0
0
0
0
0
0
0
0
0
0
0
0
0
0
0
0
0
0
0
0
0
0
0
0
0
0
0
0
0
0
0
0
0
0
0
0
0
0
0
0
0
0
0
0
0
0
0
0
0
0
0
0
0
0
0
0
0
0
0
0
0
0
0
0
0
0
0
0
0
0
0
0
0
0
0
0
0
0
0
0
0
0
0
0
0
0
0
0
0
0
0
0
0
0
0
0
0
0
0
0
0
0
0
0
0
0
0
0
0
0
0
0
0
0
0
0
0
0
0
0
0
0
0
0
0
0
0
0
0
0
0
0
0
0
0
0
0
0
0
0
0
0
0
0
0
0
0
0
0
0
0
0
0
0
0
0
0
0
0
0
0
0
0
0
0
0
0
0
0
0
0
0
0
0
0
0
0
0
0
0
0
0
0
0
0
0
0
0
0
0
0
0
0
0
0
0
0
0
0
0
0
0
0
0
0
0
0
0
0
0
0
0
0
0
0
0
0
0
0
0
0
0
0
0
0
0
0
0
0
0
0
0
0
0
0
0
0
0
0
0
0
0
0
0
0
0
0
0
0
0
0
0
0
0
0
0
0
0
0
0
0
0
0
0
0
0
0
0
0
0
0
0
0
0
0
0
0
0
0
0
0
0
0
0
0
0
0
0
0
0
0
0
0
0
0
0
0
0
0
0
0
0
0
0
0
0
0
0
0
0
0
0
0
0
0
0
0
0
0
0
0
0
0
0
0
0
0
0
0
0
0
0
0
0
0
0
0
0
0
0
0
0
0
0
0
0
0
0
0
0
0
0
0
0
0
0
0
0
0
0
0
0
0
0
0
0
0
0
0
0
0
0
0
0
0
0
0
0
0
0
0
0
0
0
0
0
0
0
0
0
0
0
0
0
0
0
0
0
0
0
0
0
0
0
0
0
0
0
0
0
0
0
0
0
0
0
0
0
0
0
0
0
0
0
0
0
0
0
0
0
0
0
0
0
0
0
0
0
0
0
0
0
0
0
0
0
0
0
0
0
0
0
0
0
0
0
0
0
0
0
0
0
0
0
0
0
0
0
0
0
0
0
0
0
0
0
0
0
0
0
0
0
0
0
0
0
0
0
0
0
0
0
0
0
0
0
0
0
0
0
0
0
0
0
0
0
0
0
0
0
0
0
0
0
0
0
0
0
0
0
0
0
0
0
0
0
0
0
0
0
0
0
0
0
0
0
0
0
0
0
0
0
0
0
0
0
0
0
0
0
0
0
0
0
0
0
0
0
0
0
0
0
0
0
0
0
0
0
0
0
0
0
0
0
0
0
0
0
0
0
0
0
0
0
0
0
0
0
0
0
0
0
0
0
0
0
0
0
0
0
0
0
0
0
0
0
0
0
0
0
0
0
0
0
0
0
0
0
0
0
0
0
0
0
0
0
0
0
0
0
0
0
0
0
0
0
0
0
0
0
0
0
0
0
0
0
0
0
0
0
0
0
0
0
0
0
0
0
0
0
0
0
0
0
0
0
0
0
0
0
0
0
0
0
0
0
0
0
0
0
0
0
0
0
0
0
0
0
0
0
0
0
0
0
0
0
0
0
0
0
0
0
0
0
0
0
0
0
0
0
0
0
0
0
0
0
0
0
0
0
0
0
0
0
0
0
0
0
0
0
0
0
0
0
0
0
0
0
0
0
0
0
0
0
0
0
0
0
0
0
0
0
0
0
0
0
0
0
0
0
0
0
0
0
0
0
0
0
0
0
0
0
0
0
0
0
0
0
0
0
0
0
0
0
0
0
0
0
0
0
0
0
0
0
0
0
0
0
0
0
0
0
0
0
0
0
0
0
0
0
0
0
0
0
0
0
0
0
0
0
0
0
0
0
0
0
0
0
0
0
0
0
0
0
0
0
0
0
0
0
0
0
0
0
0
0
0
0
0
0
0
0
0
0
0
0
0
0
0
0
0
0
0
0
0
0
0
0
0
0
0
0
0
0
0
0
0
0
0
0
0
0
0
0
0
0
0
0
0
0
0
0
0
0
0
0
0
0
0
0
0
0
0
0
0
0
0
0
0
0
0
0
0
0
0
0
0
0
0
0
0
0
0
0
0
0
0
0
0
0
0
0
0
0
0
0
0
0
0
0
0
0
0
0
0
0
0
0
0
0
0
0
0
0
0
0
0
0
0
0
0
0
0
0
0
0
0
0
0
0
0
0
0
0
0
0
0
0
0
0
0
0
0
0
0
0
0
0
0
0
0
0
0
0
0
0
0
0
0
0
0
0
0
0
0
0
0
0
0
0
0
0
0
0
0
0
0
0
0
0
0
0
0
0
0
0
0
0
0
0
0
0
0
0
0
0
0
0
0
0
0
0
0
0
0
0
0
0
0
0
0
0
0
0
0
0
0
0
0
0
0
0
0
0
0
0
0
0
0
0
0
0
0
0
0
0
0
0
0
0
0
0
0
0
0
0
0
0
0
0
0
0
0
0
0
0
0
0
0
0
0
0
0
0
0
0
0
0
0
0
0
0
0
0
0
0
0
0
0
0
0
0
0
0
0
0
0
0
0
0
0
0
0
0
0
0
0
0
0
0
0
0
0
0
0
0
0
0
0
0
0
0
0
0
0
0
0
0
0
0
0
0
0
0
0
0
0
0
0
0
0
0
0
0
0
0
0
0
0
0
0
0
0
0
0
0
0
0
0
0
0
0
0
0
0
0
0
0
0
0
0
0
0
0
0
0
0
0
0
0
0
0
0
0
0
0
0
0
0
0
0
0
0
0
0
0
0
0
0
0
0
0
0
0
0
0
0
0
0
0
0
0
0
0
0
0
0
0
0
0
0
0
0
0
0
0
0
0
0
0
0
0
0
0
0
0
0
0
0
0
0
0
0
0
0
0
0
0
0
0
0
0
0
0
0
0
0
0
0
0
0
0
0
0
0
0
0
0
0
0
0
0
0
0
0
0
0
0
0
0
0
0
0
0
0
0
0
0
0
0
0
0
0
0
0
0
0
0
0
0
0
0
0
0
0
0
0
0
0
0
0
0
0
0
0
0
0
0
0
0
0
0
0
0
0
0
0
0
0
0
0
0
0
0
0
0
0
0
0
0
0
0
0
0
0
0
0
0
0
0
0
0
0
0
0
0
0
0
0
0
0
0
0
0
0
0
0
0
0
0
0
0
0
0
0
0
0
0
0
0
0
0
0
0
0
0
0
0
0
0
0
0
0
0
0
0
0
0
0
0
0
0
0
0
0
0
0
0
0
0
0
0
0
0
0
0
0
0
0
0
0
0
0
0
0
0
0
0
0
0
0
0
0
0
0
0
0
0
0
0
0
0
0
0
0
