3.28693
3.23931
3.13772
2.98197
2.77524
2.52476
2.24149
1.93901
1.63217
1.33214
1.04708
0.783648
0.546241
0.336988
0.155962
0.00110397
-0.130941
-0.244107
-0.342185
-0.428215
-0.504134
-0.570705
-0.627737
-0.674478
-0.710004
-0.733551
-0.744659
-0.743171
-0.729117
-0.70262
-0.663903
-0.613443
-0.552205
-0.481861
-0.404833
-0.324154
-0.243064
-0.164463
-0.0903992
-0.0217503
0.0417988
0.101479
0.158936
0.215654
0.272446
0.329135
0.384317
0.435559
0.479857
0.514229
0.536315
0.54489
0.540197
0.524073
0.499815
0.471805
0.44492
0.423768
0.412238
0.412969
0.42743
0.455976
0.49817
0.553162
0.619729
0.696434
0.782212
0.875801
0.975572
1.07947
1.18508
1.2897
1.39045
1.48453
1.56917
1.64117
1.69619
1.72903
1.73573
1.71272
1.65782
1.57132
1.45691
1.32184
1.17629
1.03185
0.899221
0.784082
0.689216
0.616355
0.564329
0.528496
0.500845
0.472336
0.434735
0.381913
0.310639
0.220727
0.114558
-0.00383987
-0.129873
-0.259094
-0.388125
-0.319533
0
0.800137
2.30542
4.48747
6.93194
8.89627
9.588
8.53456
5.84445
2.20091
-1.41958
-4.1497
-5.53662
-5.6107
-4.73523
-3.37586
-1.93
-0.668126
0.258086
0.791937
0.882424
0.970169
1.06059
1.15674
1.26114
1.37509
1.49933
1.63245
1.76601
1.88678
1.98188
2.04279
2.06832
2.06559
2.04838
2.03367
2.03728
2.0677
2.1233
2.20071
2.29773
2.41263
2.54376
2.6898
2.84986
3.02307
3.20821
3.40316
3.60478
3.80894
4.011
4.20646
4.39158
4.56392
4.72247
4.86724
4.99811
5.11338
5.20876
5.27878
5.3149
5.30652
5.24423
5.12291
4.94368
4.71396
4.44599
4.15439
3.85529
3.55849
3.26988
2.99433
2.73552
2.49593
2.27698
2.07901
1.90135
1.74259
1.60061
1.47115
1.34919
1.23001
1.11012
0.988186
0.865399
0.745524
0.634087
0.537023
0.459325
0.404086
0.372117
0.362177
0.371576
0.396894
0.434066
0.479284
0.529463
0.581957
0.634377
0.684642
0.731143
0.772925
0.809785
0.842244
0.871349
0.898339
0.924248
0.949549
0.973884
0.995967
1.01383
1.02526
1.02832
1.02179
1.00549
0.98028
0.947923
0.910753
0.871342
0.83213
0.79521
0.76233
0.734945
0.714267
0.701117
0.695903
0.698774
0.708543
0.720717
0.729254
0.729018
0.718032
0.699021
0.6794
0.669408
0.678925
0.714148
0.772049
0.84562
0.929293
1.01691
1.10338
1.186
1.26497
1.34314
1.42604
1.52691
1.66556
1.82741
1.97431
2.06165
2.05875
1.96311
1.8009
1.61409
1.44196
1.30756
1.19989
1.10697
1.02388
0.948651
0.880139
0.817673
0.760972
0.71007
0.665152
0.626366
0.593596
0.566395
0.543988
0.5242
0.503559
0.478628
0.447033
0.408272
0.362206
-0.0123482
0
0.835332
2.70531
5.40565
8.27574
10.3808
10.8752
9.38798
6.22427
2.25857
-1.43537
-4.01946
-5.16579
-5.05875
-4.18038
-3.0369
-1.97536
-1.13708
-0.509343
-0.0110626
0.393468
0.703188
0.975876
1.21341
1.41029
1.56619
1.68601
1.77869
1.85499
1.92486
1.9952
2.06865
2.14366
2.21573
2.28002
2.33369
2.37717
2.414
2.44953
2.48904
2.53648
2.59286
2.65962
2.73862
2.83285
2.94642
3.08377
3.24824
3.44059
3.65699
3.88995
4.13184
4.37467
4.61077
4.83349
5.03784
5.22135
5.38358
5.52471
5.64366
5.73651
5.79749
5.82073
5.79734
5.71832
5.57798
5.37678
5.12216
4.82715
4.50758
4.17991
3.85539
3.54018
3.24006
2.95996
2.70401
2.47534
2.27595
2.10647
1.96604
1.85216
1.76119
1.6888
1.63051
1.58217
1.54026
1.50207
1.46571
1.43007
1.39471
1.3597
1.32544
1.29242
1.26111
1.23176
1.20423
1.17836
1.15425
1.13261
1.11494
1.10331
1.09985
1.1061
1.12361
1.15162
1.18404
1.21145
1.22493
1.21929
1.19521
1.15951
1.1232
1.09787
1.09185
1.10509
1.13127
1.16471
1.20003
1.2318
1.25533
1.26719
1.26536
1.24906
1.21857
1.17509
1.12015
1.05571
0.985019
0.91312
0.847588
0.798128
0.774343
0.784554
0.834095
0.923859
1.04957
1.20211
1.36899
1.53653
1.6931
1.8333
1.95307
2.04913
2.12027
2.1668
2.19015
2.1925
2.17631
2.14397
2.09756
2.03874
1.96908
1.89008
1.80315
1.7099
1.61221
1.51222
1.41197
1.31307
1.21636
1.12176
1.02836
0.934788
0.839704
0.7423
0.642615
0.541579
0.44078
0.34203
0.246868
0.156166
0.0699366
-0.01255
-0.089847
-0.210687
0
0.911567
2.74633
5.37845
8.25528
10.5178
11.312
10.1621
7.21767
3.23337
-0.728175
-3.7215
-5.25613
-5.39044
-4.5733
-3.36334
-2.1901
-1.26019
-0.596256
-0.130103
0.185617
0.432209
0.658132
0.868509
1.06149
1.23542
1.39003
1.52632
1.64624
1.75226
1.84691
1.93255
2.01152
2.08593
2.15782
2.22913
2.30165
2.37687
2.45582
2.5391
2.6269
2.7194
2.81721
2.92165
3.03478
3.15905
3.29681
3.44962
3.61757
3.79905
3.99155
4.19177
4.39607
4.60104
4.80391
5.00257
5.19515
5.3788
5.5484
5.69605
5.80997
5.87436
5.87441
5.80199
5.65876
5.45524
5.20666
4.92817
4.63488
4.33732
4.04095
3.74979
3.46805
3.19985
2.94887
2.71789
2.5085
2.32095
2.15439
2.00721
1.8776
1.76402
1.66555
1.58194
1.5134
1.46026
1.42249
1.39945
1.38978
1.39094
1.39831
1.40638
1.41072
1.40901
1.40169
1.39161
1.38302
1.37998
1.3865
1.4007
1.41673
1.42752
1.42847
1.42021
1.40914
1.40552
1.41967
1.458
1.51588
1.58915
1.66844
1.74253
1.8011
1.83706
1.84767
1.83451
1.80226
1.75699
1.70442
1.64918
1.5936
1.53857
1.48429
1.43069
1.37768
1.32556
1.27517
1.22818
1.18729
1.15651
1.14091
1.14527
1.17379
1.22915
1.31171
1.41893
1.5455
1.68398
1.82594
1.96341
2.09095
2.20498
2.30229
2.3808
2.43941
2.47753
2.49479
2.49108
2.46669
2.42266
2.36094
2.2845
2.19709
2.10282
2.00567
1.90895
1.81494
1.7251
1.64023
1.56086
1.4875
1.4209
1.36198
1.31155
1.2698
1.2361
1.20838
1.18075
1.14352
1.08596
0.998873
0.876994
0.720482
0.534776
0.135081
0
0.560012
1.97307
4.15789
6.74346
9.09728
10.4702
10.2606
8.2978
4.98338
1.17452
-2.16012
-4.32656
-5.12438
-4.80337
-3.83101
-2.64559
-1.52313
-0.581678
0.148622
0.657141
0.900111
1.1074
1.30106
1.4755
1.6241
1.74328
1.83133
1.88951
1.92283
1.94008
1.95248
1.97136
2.00534
2.05767
2.1245
2.20022
2.28017
2.36024
2.43823
2.51459
2.59244
2.6769
2.77392
2.88901
3.02501
3.18273
3.36139
3.55834
3.76919
3.98832
4.20947
4.42614
4.63154
4.81852
4.97998
5.11086
5.20869
5.27269
5.30362
5.30325
5.27353
5.21565
5.12914
5.01143
4.86017
4.67485
4.45499
4.20002
3.91237
3.59786
3.26543
2.9263
2.59229
2.27451
1.98226
1.72286
1.50025
1.3142
1.16195
1.0393
0.94169
0.865041
0.806011
0.76187
0.730898
0.710898
0.698328
0.689508
0.681257
0.671577
0.660016
0.647537
0.635942
0.627098
0.622253
0.621548
0.624901
0.632177
0.643444
0.659111
0.679815
0.706102
0.738032
0.774798
0.814984
0.856601
0.897506
0.935824
0.97027
1.0003
1.02605
1.04839
1.06876
1.08908
1.11169
1.13917
1.17404
1.21836
1.27326
1.33849
1.41227
1.49191
1.57421
1.65579
1.73361
1.80533
1.8695
1.92546
1.9731
2.01255
2.0439
2.06687
2.0807
2.08405
2.07505
2.05154
2.01143
1.9532
1.87641
1.78223
1.67373
1.55587
1.43503
1.31845
1.21298
1.12401
1.05463
1.00524
0.973542
0.955188
0.944245
0.933506
0.915441
0.883076
0.830576
0.753774
0.650615
0.521496
0.369396
0.199725
0.00662174
-0.215097
0
0.938941
2.71263
5.09724
7.51403
9.18965
9.45845
8.06468
5.30184
1.90125
-1.27309
-3.56133
-4.70485
-4.83276
-4.29352
-3.45164
-2.54986
-1.67687
-0.818049
0.055588
0.80483
1.09732
1.29938
1.46833
1.6066
1.72011
1.8163
1.90211
1.98238
2.05987
2.13524
2.20824
2.27854
2.34621
2.41185
2.47661
2.54198
2.60964
2.6813
2.75865
2.84322
2.93637
3.03909
3.152
3.27524
3.40847
3.55096
3.70162
3.85923
4.02246
4.19003
4.36074
4.53342
4.70693
4.88002
5.05106
5.2177
5.37597
5.519
5.6367
5.71923
5.75583
5.73681
5.65589
5.51211
5.31037
5.06022
4.77347
4.46261
4.1402
3.81395
3.48846
3.16808
2.85757
2.56217
2.28741
2.0386
1.82025
1.63558
1.48663
1.37353
1.29349
1.24043
1.20558
1.17954
1.15436
1.12468
1.08843
1.04667
1.00279
0.96119
0.9259
0.899124
0.880664
0.869493
0.863806
0.861605
0.861345
0.862336
0.864832
0.869811
0.878578
0.892124
0.910937
0.934892
0.963307
0.994593
1.02648
1.05668
1.08337
1.10543
1.12249
1.13466
1.14208
1.14454
1.1413
1.13105
1.11239
1.08437
1.0472
1.00282
0.95533
0.911613
0.883327
0.883075
0.922029
1.00671
1.13635
1.30192
1.48781
1.67431
1.84305
1.98123
2.08384
2.1531
2.19559
2.2183
2.22544
2.2184
2.19433
2.14923
2.08003
1.98617
1.87019
1.7374
1.59483
1.4503
1.30982
1.1777
1.05751
0.951604
0.861239
0.787045
0.727261
0.67649
0.628323
0.576692
0.517174
0.447823
0.369267
0.284082
0.19571
0.107357
0.0210267
-0.0534452
0
0.41054
1.4863
3.34951
5.73759
7.9938
9.29453
9.02103
7.07184
3.93303
0.463063
-2.47808
-4.34882
-5.04437
-4.80189
-3.99877
-2.97655
-1.96093
-1.07301
-0.375742
0.0959815
0.290452
0.402118
0.502439
0.597813
0.689124
0.776674
0.861023
0.943098
1.02422
1.10596
1.18992
1.27735
1.36888
1.46435
1.56281
1.66282
1.76273
1.86101
1.95652
2.04854
2.13677
2.22098
2.3012
2.37808
2.4529
2.52793
2.60649
2.69281
2.79133
2.90583
3.03834
3.18849
3.35244
3.52492
3.69999
3.87063
4.02879
4.16616
4.27605
4.35317
4.39312
4.39237
4.34837
4.2599
4.12748
3.95363
3.74292
3.50247
3.2404
2.96444
2.68112
2.3953
2.11095
1.83145
1.5598
1.29898
1.05206
0.822765
0.614628
0.430597
0.272882
0.142682
0.0407177
-0.0324167
-0.0786795
-0.100699
-0.101561
-0.0846699
-0.0536463
-0.0121847
0.0361372
0.0880703
0.140851
0.192336
0.240761
0.284657
0.32271
0.353754
0.376886
0.391596
0.398292
0.398417
0.394491
0.389874
0.388228
0.392754
0.405666
0.428473
0.458344
0.489877
0.516856
0.534057
0.538594
0.530356
0.511456
0.485048
0.454082
0.420825
0.386287
0.350835
0.314836
0.279185
0.245805
0.218366
0.203098
0.207499
0.239012
0.303749
0.404688
0.540219
0.703569
0.883436
1.06576
1.23621
1.38411
1.50146
1.58436
1.63271
1.64936
1.63905
1.60746
1.56152
1.50689
1.44764
1.38647
1.32447
1.26074
1.19255
1.11626
1.02879
0.929124
0.819246
0.704213
0.591135
0.487433
0.398166
0.326963
0.273522
0.233971
0.202467
0.172811
0.139877
0.100479
0.0535604
-0.000190735
-0.0590076
-0.12056
-0.183094
-0.201691
0
0.696546
2.15135
4.39529
7.04623
9.32098
10.3079
9.40392
6.66782
2.85417
-0.924897
-3.71186
-5.08207
-5.18781
-4.50747
-3.51825
-2.50566
-1.5666
-0.717637
0.0169067
0.554171
0.776243
0.93528
1.0718
1.18996
1.28966
1.37209
1.43951
1.49493
1.54179
1.5837
1.62423
1.66672
1.71417
1.76911
1.83348
1.90857
1.99499
2.09266
2.20096
2.31881
2.44489
2.57776
2.71598
2.85831
3.00375
3.15166
3.30189
3.4547
3.61065
3.77031
3.93393
4.10107
4.27032
4.43916
4.60395
4.75993
4.90125
5.02144
5.11506
5.17743
5.20447
5.19267
5.13903
5.0413
4.89832
4.71072
4.48144
4.218
3.93011
3.6277
3.32034
3.01686
2.72481
2.44985
2.1955
1.96335
1.7536
1.56584
1.39975
1.25548
1.13367
1.03526
0.962198
0.918137
0.903823
0.909126
0.919896
0.922224
0.906109
0.868079
0.811859
0.746987
0.685986
0.641135
0.617405
0.614211
0.630839
0.667974
0.725492
0.797781
0.872565
0.937014
0.980477
0.996891
0.986125
0.95376
0.90936
0.863767
0.826243
0.800292
0.784976
0.778492
0.778393
0.780882
0.782401
0.780676
0.77544
0.768645
0.764065
0.766349
0.779753
0.806883
0.849195
0.904653
0.96611
1.02353
1.06685
1.08812
1.08301
1.05154
0.997995
0.930253
0.858574
0.793846
0.744517
0.715203
0.708725
0.725672
0.763719
0.818139
0.882709
0.950816
1.01655
1.07581
1.12565
1.16512
1.19504
1.2178
1.23706
1.25733
1.28335
1.31941
1.36854
1.43191
1.50806
1.59398
1.68571
1.77852
1.86761
1.94851
2.01702
2.06886
2.10033
2.10896
2.09297
2.05162
1.98567
1.89771
1.79217
1.67481
1.55195
1.4294
1.31127
1.20019
1.09762
1.00406
0.919434
0.843458
0.775791
0.715953
0.663232
0.616228
0.572362
0.528005
0.479249
0.422702
0.356241
0.279445
0.191659
-0.0331478
0
0.648534
2.11813
4.34988
6.94365
9.20439
10.3473
9.80833
7.52697
4.03685
0.278362
-2.78954
-4.5726
-5.01083
-4.46733
-3.4469
-2.33767
-1.31914
-0.429851
0.315507
0.77871
0.95343
1.09974
1.23459
1.35847
1.47064
1.57006
1.65621
1.72895
1.78886
1.83768
1.8784
1.91514
1.95263
1.99547
2.04757
2.11116
2.18711
2.27565
2.37652
2.48895
2.61176
2.74347
2.88233
3.02643
3.17388
3.32298
3.47244
3.62144
3.76961
3.9169
4.06334
4.20883
4.35307
4.49541
4.63487
4.77005
4.89911
5.0196
5.12767
5.2167
5.27729
5.30061
5.27708
5.19825
5.05921
4.86064
4.60979
4.31968
4.00687
3.68854
3.37664
3.07677
2.79372
2.53052
2.28871
2.06874
1.87029
1.6926
1.53448
1.39435
1.27038
1.16021
1.06102
0.97033
0.88664
0.810504
0.74472
0.693275
0.660809
0.65089
0.664386
0.701285
0.75488
0.812944
0.862809
0.894755
0.904392
0.893327
0.868024
0.83741
0.810115
0.791421
0.782047
0.780684
0.785823
0.794849
0.804423
0.811682
0.815061
0.814704
0.812445
0.811272
0.814376
0.824726
0.844045
0.868436
0.889881
0.899543
0.891286
0.864374
0.824133
0.780209
0.743086
0.720306
0.711752
0.712926
0.719849
0.728003
0.733833
0.735908
0.735441
0.736159
0.743644
0.764404
0.803422
0.864154
0.949378
1.06057
1.2016
1.37973
1.5898
1.80692
2.00173
2.14925
2.23424
2.25305
2.21207
2.12422
2.00496
1.86885
1.72768
1.58784
1.4521
1.32173
1.19779
1.08177
0.975731
0.881763
0.801761
0.737632
0.689567
0.654096
0.626071
0.599647
0.569363
0.530987
0.481874
0.420849
0.347806
0.263425
0.169619
0.0683144
-0.0389841
-0.156537
-0.281444
0
0.951577
2.66618
4.9291
7.20068
8.76832
9.02578
7.73786
5.15011
1.88585
-1.30235
-3.78894
-5.22893
-5.58101
-5.0417
-3.94832
-2.67702
-1.54525
-0.732797
-0.249187
0.0171091
0.22755
0.421688
0.604957
0.775199
0.929901
1.06726
1.18576
1.28426
1.36337
1.4254
1.47367
1.51263
1.54774
1.58515
1.63095
1.6903
1.7666
1.86004
1.96844
2.08911
2.21918
2.35575
2.49622
2.63859
2.78141
2.92366
3.0647
3.20421
3.34226
3.47938
3.61649
3.75466
3.89463
4.03635
4.17842
4.317
4.44592
4.55776
4.64495
4.70067
4.71951
4.6975
4.63197
4.52148
4.36601
4.16932
3.93777
3.67889
3.40104
3.11341
2.82521
2.54449
2.27797
2.03065
1.80562
1.60427
1.42669
1.27213
1.13949
1.02767
0.935748
0.863119
0.809092
0.772764
0.753369
0.749368
0.757686
0.773936
0.793138
0.810543
0.822409
0.826592
0.82282
0.812596
0.798766
0.784882
0.774529
0.770718
0.775361
0.789312
0.81296
0.846454
0.889708
0.942462
1.00341
1.06835
1.12932
1.177
1.20314
1.20311
1.17781
1.13396
1.08261
1.03595
1.0038
0.988928
0.987557
0.996032
1.01
1.02521
1.03868
1.04921
1.05735
1.06488
1.074
1.08649
1.1033
1.12485
1.15119
1.1821
1.21725
1.25646
1.29984
1.34792
1.40169
1.4626
1.53222
1.61185
1.70202
1.80208
1.91054
2.02303
2.13312
2.23376
2.31828
2.38133
2.41928
2.43037
2.4145
2.37303
2.30912
2.22611
2.12797
2.01906
1.90381
1.78649
1.67067
1.55912
1.45418
1.35761
1.27032
1.19222
1.12199
1.05685
0.992541
0.923791
0.845079
0.751493
0.639629
0.508305
0.358933
0.195449
0.0189489
-0.190278
0
0.854935
2.52425
4.89649
7.51868
9.66695
10.5837
9.80402
7.40434
4.01336
0.552898
-2.15628
-3.69835
-4.12024
-3.76052
-3.00089
-2.10737
-1.21256
-0.38178
0.327398
0.82035
1.17982
1.52486
1.86177
2.18643
2.48867
2.75095
2.94889
3.06016
3.07279
2.99022
2.83326
2.64086
2.46876
2.38038
2.39623
2.49306
2.64132
2.82103
3.02073
3.22873
3.43395
3.62797
3.80554
3.96507
4.10838
4.23974
4.36475
4.48904
4.61725
4.75245
4.89594
5.04736
5.20501
5.36621
5.52755
5.68447
5.8304
5.95758
6.05905
6.12798
6.15818
6.1447
6.08427
5.97553
5.81922
5.61825
5.37915
5.11228
4.82719
4.53188
4.23326
3.93747
3.65019
3.37665
3.12141
2.88821
2.67981
2.49812
2.34305
2.21273
2.10397
2.01288
1.93556
1.8687
1.81009
1.75876
1.71493
1.67982
1.65489
1.64148
1.6403
1.65119
1.67291
1.70323
1.73919
1.77739
1.81438
1.84691
1.87248
1.8897
1.89838
1.8996
1.89551
1.88892
1.88277
1.87946
1.88033
1.88525
1.89305
1.90153
1.90813
1.91053
1.90712
1.89729
1.88139
1.86039
1.8355
1.8078
1.77801
1.74651
1.71339
1.67863
1.6423
1.60457
1.56575
1.52626
1.48674
1.44817
1.41218
1.38115
1.35827
1.34811
1.36283
1.42113
1.50766
1.59025
1.63214
1.61078
1.5329
1.43617
1.37527
1.39829
1.52384
1.69966
1.89901
2.10587
2.30406
2.47929
2.61968
2.71836
2.77353
2.78715
2.76413
2.71158
2.63796
2.55212
2.46212
2.37401
2.29058
2.21141
2.13485
2.05833
1.97926
1.89586
1.80766
1.71563
1.62169
1.52794
1.43573
1.34509
1.25424
1.15975
1.05714
0.941762
0.809811
0.659162
0.489905
0.304473
0.107372
-0.0983219
-0.234409
0
0.814434
2.3863
4.6894
7.36912
9.75123
11.0334
10.6127
8.38825
4.86093
0.953243
-2.36557
-4.44448
-5.12261
-4.65678
-3.5002
-2.08964
-0.736822
0.373456
1.14329
1.41857
1.48626
1.55193
1.62349
1.7063
1.80288
1.91252
2.03098
2.15306
2.27348
2.38752
2.49181
2.58485
2.667
2.74019
2.80738
2.8719
2.93684
3.00456
3.07644
3.15281
3.23317
3.31656
3.40193
3.48891
3.57829
3.67231
3.77441
3.88872
4.01911
4.1683
4.33703
4.5232
4.72288
4.9311
5.14173
5.34742
5.54019
5.7118
5.85337
5.95589
6.01328
6.01962
5.96983
5.8612
5.69482
5.4764
5.21584
4.92559
4.6188
4.30751
3.99863
3.69675
3.40589
3.12954
2.87077
2.63223
2.416
2.22343
2.0549
1.90987
1.78689
1.6839
1.59847
1.52811
1.47045
1.42331
1.38468
1.35264
1.32515
1.29995
1.27482
1.24797
1.21839
1.18615
1.15247
1.11957
1.09041
1.06826
1.05611
1.05697
1.07355
1.10827
1.16959
1.28068
1.46134
1.67531
1.86611
1.97732
1.97659
1.86952
1.69523
1.50761
1.35389
1.2557
1.1942
1.15473
1.1317
1.12285
1.12649
1.14092
1.16439
1.19505
1.2309
1.2696
1.30788
1.34144
1.36565
1.37608
1.36917
1.34281
1.29672
1.2325
1.15352
1.0646
0.971541
0.881632
0.803083
0.743861
0.710915
0.709455
0.742451
0.810445
0.911603
1.04187
1.19483
1.3611
1.5317
1.69842
1.85272
1.98705
2.0954
2.17393
2.22107
2.23723
2.22415
2.18424
2.11995
2.03431
1.93069
1.81237
1.68281
1.54624
1.4077
1.27289
1.14762
1.03723
0.946097
0.877121
0.831638
0.810509
0.81462
0.840866
0.876563
0.903749
0.903818
0.860816
0.764471
0.612135
0.409131
0.167572
-0.130775
-0.326454
0
1.13829
3.18136
5.83782
8.42488
10.0744
10.0956
8.31063
5.16687
1.55137
-1.59369
-3.63749
-4.42262
-4.18679
-3.34947
-2.315
-1.37153
-0.674099
-0.263116
-0.0270311
0.233247
0.492165
0.745723
0.987698
1.21073
1.40758
1.57276
1.70348
1.80031
1.86741
1.91213
1.94395
1.97312
2.00906
2.05906
2.12668
2.21162
2.3117
2.42415
2.54566
2.67275
2.80229
2.93173
3.05922
3.18369
3.3048
3.42327
3.54078
3.65988
3.78357
3.91476
4.05536
4.20556
4.36329
4.5243
4.68193
4.82831
4.95543
5.05598
5.12382
5.1533
5.14043
5.08205
4.97589
4.82103
4.61866
4.37273
4.09047
3.7822
3.46062
3.13897
2.82849
2.53846
2.27524
2.04205
1.83889
1.66331
1.51144
1.3791
1.26256
1.15903
1.06667
0.984787
0.912783
0.849507
0.793877
0.745251
0.70388
0.671141
0.649306
0.640837
0.647411
0.668557
0.701987
0.743851
0.789077
0.83232
0.869039
0.89601
0.911646
0.915897
0.909864
0.895337
0.874563
0.849822
0.823352
0.797595
0.775399
0.759659
0.752994
0.757269
0.77315
0.799861
0.835255
0.876208
0.91922
0.961054
0.999382
1.03273
1.06024
1.0815
1.09647
1.10565
1.10997
1.11104
1.1114
1.11465
1.12533
1.14849
1.18899
1.25058
1.33455
1.4407
1.57051
1.72334
1.88715
2.04041
2.16204
2.2363
2.25631
2.22516
2.15411
2.05883
1.95488
1.85414
1.76139
1.67709
1.60108
1.53334
1.47392
1.42278
1.37969
1.34398
1.31433
1.28848
1.26296
1.23306
1.19332
1.13823
1.0629
0.963865
0.839675
0.691213
0.521679
0.335841
0.10906
0
0.366921
1.4809
3.4101
5.84395
8.08952
9.31013
8.90738
6.83351
3.63397
0.18793
-2.68943
-4.5426
-5.32475
-5.24137
-4.557
-3.50093
-2.28235
-1.11963
-0.205311
0.372687
0.650795
0.831715
0.998504
1.15604
1.30236
1.43611
1.55664
1.66391
1.75815
1.83995
1.91041
1.971
2.02383
2.07174
2.11844
2.16836
2.22625
2.29668
2.38314
2.48761
2.61042
2.74999
2.90304
3.06544
3.23264
3.40077
3.56773
3.73367
3.90083
4.07282
4.25337
4.44509
4.64837
4.86086
5.07784
5.29178
5.49261
5.66823
5.80822
5.90553
5.95546
5.95525
5.90365
5.80087
5.6486
5.45028
5.21116
4.94052
4.64854
4.34353
4.03228
3.72074
3.41466
3.11977
2.84177
2.58614
2.35765
2.16017
1.99595
1.8648
1.76456
1.69158
1.64138
1.60952
1.59217
1.58655
1.59091
1.60416
1.62544
1.65418
1.68886
1.72459
1.75381
1.76871
1.76355
1.73664
1.69119
1.63444
1.57547
1.52243
1.47941
1.44575
1.42054
1.40172
1.38697
1.3743
1.36219
1.34932
1.33411
1.31444
1.28791
1.25259
1.20792
1.15504
1.09825
1.04445
1.0013
0.975345
0.970485
0.987306
1.02334
1.07409
1.13436
1.19901
1.26473
1.32977
1.39343
1.45579
1.5175
1.57951
1.64277
1.70797
1.77526
1.84389
1.91138
1.97311
2.02325
2.05558
2.06462
2.04658
2.00002
1.92596
1.82774
1.7106
1.5818
1.44919
1.31968
1.1991
1.09278
1.00471
0.93699
0.890708
0.863769
0.850966
0.845535
0.840131
0.827739
0.802353
0.759374
0.695806
0.61036
0.503927
0.379662
0.242012
0.0825247
-0.202525
0
1.01931
2.92851
5.42713
7.87667
9.5027
9.68223
8.20186
5.36825
1.9091
-1.30157
-3.56944
-4.59792
-4.5027
-3.65415
-2.47029
-1.28361
-0.308602
0.344013
0.632286
0.789187
0.940511
1.08974
1.23679
1.38125
1.52248
1.65969
1.79184
1.91749
2.03478
2.14197
2.23746
2.32013
2.3897
2.447
2.49411
2.53437
2.5723
2.61332
2.66348
2.7289
2.81508
2.92613
3.06406
3.22844
3.41538
3.62007
3.83691
4.05988
4.28316
4.50103
4.70587
4.88927
5.04544
5.17021
5.26228
5.32408
5.36174
5.38378
5.3987
5.41235
5.42585
5.43551
5.4332
5.40767
5.34643
5.23791
5.0736
4.85003
4.57016
4.24402
3.88865
3.52529
3.17364
2.84906
2.56446
2.3279
2.14688
2.0215
1.94248
1.89762
1.87465
1.86326
1.85621
1.84919
1.83987
1.82665
1.8079
1.78167
1.74628
1.70135
1.64865
1.59244
1.53885
1.49466
1.46553
1.45283
1.45784
1.47905
1.5106
1.54592
1.57972
1.60932
1.63495
1.65888
1.68368
1.71086
1.73645
1.75175
1.74704
1.71645
1.66183
1.59339
1.52673
1.47747
1.45592
1.45691
1.47488
1.5056
1.54445
1.58778
1.63359
1.68147
1.73194
1.78548
1.84182
1.89969
1.95743
2.01343
2.06666
2.11713
2.16595
2.21505
2.26659
2.32227
2.383
2.44817
2.51459
2.57613
2.62511
2.6536
2.65468
2.62341
2.55739
2.45696
2.32503
2.16676
1.98962
1.80302
1.61605
1.4365
1.27156
1.12795
1.01163
0.929762
0.890435
0.897307
0.940708
0.997684
1.04337
1.05557
1.01808
0.922615
0.769086
0.564917
0.323556
0.0611994
-0.174692
0
0.875174
2.62874
5.13695
7.88558
10.0667
10.8659
9.82323
7.07778
3.34395
-0.379926
-3.21603
-4.71146
-4.90797
-4.19249
-3.05353
-1.88459
-0.898507
-0.146094
0.401496
0.672384
0.88623
1.08376
1.26674
1.43356
1.58201
1.71096
1.82106
1.91397
1.99255
2.0607
2.12301
2.18396
2.2472
2.3149
2.38734
2.46358
2.54247
2.62305
2.70496
2.78862
2.87521
2.96634
3.06361
3.16823
3.28076
3.40113
3.52881
3.66323
3.80415
3.95203
4.10806
4.27396
4.45149
4.64173
4.84655
5.06777
5.29686
5.51291
5.69267
5.81645
5.87211
5.8553
5.76672
5.60846
5.38223
5.09281
4.75932
4.40022
4.03038
3.66354
3.31226
2.98557
2.69053
2.43104
2.20736
2.01662
1.85378
1.71277
1.58759
1.47315
1.3658
1.2634
1.1652
1.07139
0.98264
0.899665
0.822838
0.752025
0.686628
0.625799
0.568746
0.515027
0.464747
0.418616
0.37777
0.343486
0.316834
0.298356
0.287847
0.284312
0.286111
0.291125
0.297102
0.302056
0.304554
0.303851
0.299876
0.293062
0.284098
0.273673
0.262292
0.250225
0.23757
0.224399
0.210906
0.197475
0.18465
0.173004
0.162983
0.154819
0.148563
0.14423
0.142106
0.143036
0.14858
0.160947
0.182677
0.216139
0.262987
0.323588
0.396836
0.48073
0.572347
0.668227
0.764773
0.858517
0.946111
1.02451
1.09102
1.14311
1.17834
1.19402
1.18779
1.15795
1.1037
1.02558
0.925921
0.809053
0.681204
0.550012
0.423666
0.309392
0.212378
0.137483
0.0894096
0.0685839
0.0659069
0.0700408
0.0703973
0.0596969
0.0353048
-0.00100651
-0.0446257
-0.0902779
-0.133953
-0.174469
-0.212302
-0.245577
-0.290295
0
0.912869
2.56485
4.78002
7.05544
8.68218
8.99543
7.66199
4.86279
1.26466
-2.22264
-4.78866
-5.99788
-5.88211
-4.83565
-3.39425
-2.01784
-0.962869
-0.276151
0.118327
0.240471
0.333388
0.425653
0.520239
0.619281
0.723762
0.833204
0.945695
1.05778
1.16494
1.263
1.34918
1.42301
1.48661
1.54458
1.60311
1.66899
1.7483
1.84547
1.96165
2.09567
2.24565
2.40904
2.58276
2.76362
2.9487
3.13551
3.32206
3.50671
3.688
3.86433
4.03383
4.19404
4.34214
4.47521
4.59053
4.68578
4.75929
4.81
4.83724
4.84053
4.81925
4.77241
4.69874
4.59666
4.46468
4.30187
4.10825
3.88518
3.63547
3.36359
3.0757
2.77936
2.48307
2.19556
1.92495
1.67798
1.45964
1.27264
1.11701
0.9909
0.891273
0.814639
0.75764
0.717324
0.691163
0.677072
0.672665
0.675073
0.681034
0.687413
0.691901
0.693571
0.69316
0.692936
0.696139
0.70613
0.725493
0.755133
0.794145
0.840235
0.889838
0.938587
0.981057
1.01195
1.0273
1.02492
1.00498
0.970299
0.926232
0.879933
0.839119
0.810605
0.797233
0.799343
0.816593
0.847228
0.888572
0.937951
0.99368
1.05561
1.12517
1.20489
1.29761
1.4102
1.54812
1.70373
1.85853
1.9915
2.08491
2.12767
2.11583
2.05104
1.93915
1.78973
1.61788
1.4398
1.26874
1.11401
0.9793
0.863477
0.764993
0.682553
0.614001
0.556918
0.509112
0.468885
0.435041
0.406684
0.382914
0.362589
0.34412
0.325416
0.304121
0.277966
0.245127
0.204486
0.154008
0.00165405
0
0.576926
1.9607
4.06863
6.43686
8.33555
9.04299
8.15399
5.77422
2.49627
-0.833973
-3.44709
-4.91588
-5.23715
-4.71983
-3.7702
-2.70249
-1.67049
-0.718787
0.120651
0.751965
0.923024
1.01337
1.0899
1.1593
1.22422
1.28707
1.34988
1.41423
1.48152
1.55317
1.63061
1.71509
1.80736
1.9072
2.01324
2.12301
2.23209
2.33531
2.42844
2.50959
2.58009
2.64462
2.71048
2.78616
2.87952
2.9956
3.13484
3.29563
3.47551
3.67099
3.87799
4.09255
4.31132
4.53167
4.75105
4.96554
5.1672
5.34317
5.47568
5.54499
5.53518
5.43955
5.26312
5.02165
4.73764
4.43482
4.13225
3.83664
3.54883
3.26903
2.99775
2.73536
2.48252
2.24054
2.01145
1.79783
1.60244
1.42778
1.27566
1.14694
1.0415
0.958406
0.896233
0.853473
0.828595
0.820008
0.826099
0.845055
0.875181
0.913643
0.955951
0.996554
1.02995
1.05159
1.05867
1.05049
1.02837
0.995142
0.95438
0.90964
0.864019
0.819814
0.778656
0.742128
0.7117
0.688609
0.673612
0.666695
0.667113
0.672987
0.681899
0.691432
0.699721
0.70583
0.709891
0.713007
0.717016
0.724142
0.73669
0.756996
0.787089
0.828365
0.88125
0.944936
1.0173
1.09517
1.17479
1.25246
1.32535
1.39209
1.45295
1.50964
1.56477
1.62108
1.68075
1.74478
1.81206
1.87914
1.9402
1.98768
2.01444
2.01459
1.98449
1.92344
1.83395
1.72153
1.59382
1.45951
1.32694
1.20199
1.08783
0.986951
0.901539
0.832934
0.78158
0.747113
0.728432
0.723184
0.726103
0.728064
0.718924
0.689637
0.634069
0.550191
0.440253
0.171512
0
0.470932
1.8525
4.10422
6.78227
9.12529
10.3155
9.81773
7.62886
4.30307
0.725618
-2.24781
-4.09811
-4.75324
-4.48303
-3.68148
-2.67711
-1.65193
-0.671315
0.238339
1.00255
1.28022
1.45519
1.60653
1.73996
1.85858
1.96484
2.05923
2.14185
2.21091
2.26375
2.2992
2.31941
2.33018
2.33968
2.35595
2.38452
2.42517
2.47487
2.53131
2.59247
2.65732
2.72644
2.80196
2.88701
2.98484
3.0978
3.2262
3.36829
3.52094
3.6798
3.83985
3.99604
4.14391
4.28005
4.40229
4.50973
4.6024
4.68074
4.74486
4.79315
4.82084
4.82092
4.78589
4.70777
4.58029
4.40113
4.17338
3.90564
3.61066
3.3031
2.99679
2.70039
2.42062
2.1621
1.92767
1.71886
1.53637
1.3803
1.25029
1.14538
1.06378
1.00269
0.95862
0.927484
0.903558
0.880089
0.851415
0.814115
0.767718
0.714503
0.661141
0.61577
0.585612
0.574878
0.583663
0.608167
0.642093
0.678651
0.712656
0.742093
0.766703
0.787492
0.806327
0.825192
0.845496
0.867665
0.890651
0.911743
0.927229
0.933318
0.927132
0.907532
0.875591
0.834582
0.789455
0.745903
0.709032
0.681904
0.666003
0.662133
0.667614
0.678492
0.690906
0.70232
0.712284
0.722526
0.736419
0.758051
0.791237
0.837205
0.895962
0.967236
1.04941
1.13967
1.23436
1.32899
1.4191
1.50092
1.57182
1.63053
1.67699
1.71194
1.73642
1.75135
1.75693
1.75261
1.73713
1.70878
1.66566
1.60612
1.52915
1.43494
1.32481
1.2014
1.06857
0.9311
0.794217
0.662891
0.541443
0.433114
0.33982
0.26209
0.199193
0.149381
0.110224
0.0789534
0.0528175
0.0293845
0.00673237
-0.0164886
-0.0417869
-0.116987
0
0.639475
2.07655
4.31574
6.94219
9.17237
10.1415
9.29996
6.70565
3.03078
-0.732091
-3.69526
-5.39209
-5.83128
-5.3233
-4.24746
-2.91317
-1.55242
-0.360932
0.502085
0.936834
0.968305
0.994012
1.01922
1.04518
1.07321
1.10464
1.14081
1.18305
1.2326
1.29043
1.35698
1.43203
1.51455
1.60271
1.6943
1.78694
1.8785
1.96737
2.05274
2.13464
2.21401
2.29263
2.37296
2.45807
2.55139
2.65644
2.77644
2.91386
3.06993
3.24424
3.43451
3.63672
3.84554
4.05465
4.25737
4.44679
4.61505
4.75331
4.85499
4.91581
4.9317
4.89895
4.81491
4.67889
4.49284
4.26169
3.99318
3.69929
3.39243
3.08196
2.77506
2.478
2.196
1.93316
1.69232
1.4752
1.28239
1.11356
0.967456
0.841897
0.734251
0.641795
0.562092
0.493269
0.434125
0.384044
0.342783
0.310229
0.286172
0.270193
0.261716
0.260081
0.264581
0.274416
0.288583
0.305861
0.324533
0.342619
0.358268
0.3702
0.378113
0.3829
0.386614
0.392154
0.402752
0.4212
0.449298
0.488621
0.539956
0.601073
0.663656
0.716106
0.74726
0.749463
0.720931
0.666506
0.596427
0.523504
0.459673
0.41132
0.377887
0.356978
0.346529
0.34433
0.347855
0.354685
0.362971
0.371669
0.38061
0.390426
0.402357
0.417997
0.439035
0.467039
0.503239
0.54852
0.603439
0.668117
0.742137
0.82444
0.9133
1.0065
1.10136
1.19517
1.28565
1.37121
1.45091
1.52383
1.5873
1.6362
1.6647
1.66527
1.63124
1.55991
1.45479
1.32565
1.18621
1.05027
0.927223
0.817135
0.719374
0.631455
0.550228
0.473323
0.400077
0.331661
0.270452
0.218944
0.177953
0.147423
0.125578
0.109234
0.0946446
0.0783893
0.0581014
0.0328219
0.00163779
-0.0913472
0
0.601121
1.99473
4.21373
6.84907
9.07479
9.94903
8.87157
5.93602
1.94547
-1.93846
-4.71226
-5.91974
-5.72298
-4.67674
-3.38895
-2.26705
-1.44356
-0.854513
-0.376143
0.0145632
0.213958
0.364576
0.492013
0.603425
0.702275
0.793384
0.881835
0.97182
1.06571
1.16352
1.26359
1.36318
1.45907
1.54849
1.62993
1.70358
1.77143
1.837
1.90484
1.97979
2.06629
2.1678
2.28614
2.42167
2.57352
2.73954
2.91642
3.09992
3.28518
3.46708
3.64067
3.80164
3.94667
4.07373
4.18214
4.27229
4.34519
4.40183
4.44191
4.46305
4.46179
4.43435
4.37672
4.28593
4.16114
4.00419
3.81926
3.61197
3.3881
3.15364
2.91293
2.66873
2.42368
2.18076
1.9435
1.71587
1.50189
1.30505
1.12787
0.971658
0.836629
0.722403
0.628163
0.552931
0.495876
0.456301
0.433499
0.426556
0.434164
0.45448
0.485125
0.523255
0.565081
0.60497
0.636043
0.65199
0.648443
0.624445
0.583413
0.533117
0.484453
0.449209
0.439926
0.478473
0.568675
0.68076
0.775535
0.819507
0.796896
0.714438
0.597706
0.480771
0.393577
0.3467
0.328333
0.327425
0.338082
0.356392
0.37861
0.401247
0.421007
0.435188
0.442277
0.442335
0.437425
0.43175
0.43183
0.445237
0.478928
0.537444
0.621476
0.727293
0.847237
0.97116
1.08836
1.19068
1.27156
1.32695
1.35509
1.35587
1.33027
1.28014
1.20872
1.11896
1.0145
0.899887
0.78036
0.661356
0.547891
0.443991
0.352505
0.274954
0.211619
0.161699
0.123917
0.0966174
0.0764595
0.0591854
0.0405371
0.0168794
-0.014235
-0.05375
-0.101144
-0.15478
-0.212414
-0.273029
-0.260946
0
0.821792
2.41812
4.65779
6.97381
8.53467
8.61372
6.95669
3.93198
0.37593
-2.77455
-4.85556
-5.66947
-5.43589
-4.58029
-3.50733
-2.4769
-1.60181
-0.911832
-0.411623
-0.12034
0.0753808
0.256587
0.429744
0.594676
0.749352
0.891876
1.02097
1.13623
1.23829
1.32869
1.40958
1.48329
1.55184
1.61649
1.67766
1.73515
1.78877
1.83912
1.88834
1.9407
2.00241
2.08094
2.18364
2.31612
2.48055
2.67333
2.88798
3.11666
3.35016
3.57886
3.79397
3.98856
4.15813
4.30061
4.41579
4.50383
4.56472
4.59842
4.60479
4.58279
4.53098
4.4483
4.33471
4.19156
4.02161
3.82878
3.61819
3.39568
3.1663
2.93472
2.70553
2.48298
2.2707
2.07139
1.88653
1.71628
1.55961
1.41475
1.27975
1.15321
1.0351
0.927608
0.834508
0.759806
0.707165
0.678491
0.672952
0.68676
0.713826
0.747031
0.779681
0.806986
0.826522
0.837087
0.838718
0.832299
0.819527
0.802298
0.78292
0.764087
0.748651
0.739223
0.737668
0.744509
0.759047
0.77928
0.802112
0.823822
0.840848
0.850494
0.851429
0.843926
0.829832
0.812275
0.795169
0.782599
0.778172
0.784204
0.801661
0.830668
0.870634
0.920373
0.978483
1.04375
1.1155
1.19377
1.27927
1.37312
1.47708
1.59443
1.7285
1.87564
2.02043
2.14236
2.22208
2.2468
2.21364
2.12993
2.01059
1.87385
1.73673
1.6103
1.49768
1.3984
1.31177
1.23755
1.17573
1.12601
1.08668
1.05461
1.0263
0.998497
0.968585
0.934721
0.895603
0.85001
0.796363
0.733051
0.658102
0.569692
0.46699
0.350681
0.17983
0
0.357624
1.55408
3.63838
6.2466
8.62846
9.90458
9.45858
7.25055
3.86684
0.266434
-2.63688
-4.32113
-4.76197
-4.29045
-3.33844
-2.24784
-1.22164
-0.37635
0.205209
0.454891
0.620645
0.77956
0.934399
1.08309
1.22349
1.35391
1.47364
1.58332
1.68466
113
290
465
640
803
968
1138
1329
1505
1680
1862
2045
2211
2378
2546
2716
2875
3042
3215
3394
3562
3726
3690
3603
3556
3595
3713
0
0
0
0
0
0
0
0
0
0
0
0
0
0
0
0
0
0
0
0
0
0
0
0
0
0
0
0
0
0
0
0
0
0
0
0
0
0
0
0
0
0
0
0
0
0
0
0
0
0
0
0
0
0
0
0
0
0
0
0
0
0
0
0
0
0
0
0
0
0
0
0
0
0
0
0
0
0
0
0
0
0
0
0
0
0
0
0
0
0
0
0
0
0
0
0
0
0
0
0
0
0
0
0
0
0
0
0
0
0
0
0
0
0
0
0
0
0
0
0
0
0
0
0
0
0
0
0
0
0
0
0
0
0
0
0
0
0
0
0
0
0
0
0
0
0
0
0
0
0
0
0
0
0
0
0
0
0
0
0
0
0
0
0
0
0
0
0
0
0
0
0
0
0
0
0
0
0
0
0
0
0
0
0
0
0
0
0
0
0
0
0
0
0
0
0
0
0
0
0
0
0
0
0
0
0
0
0
0
0
0
0
0
0
0
0
0
0
0
0
0
0
0
0
0
0
0
0
0
0
0
0
0
0
0
0
0
0
0
0
0
0
0
0
0
0
0
0
0
0
0
0
0
0
0
0
0
0
0
0
0
0
0
0
0
0
0
0
0
0
0
0
0
0
0
0
0
0
0
0
0
0
0
0
0
0
0
0
0
0
0
0
0
0
0
0
0
0
0
0
0
0
0
0
0
0
0
0
0
0
0
0
0
0
0
0
0
0
0
0
0
0
0
0
0
0
0
0
0
0
0
0
0
0
0
0
0
0
0
0
0
0
0
0
0
0
0
0
0
0
0
0
0
0
0
0
0
0
0
0
0
0
0
0
0
0
0
0
0
0
0
0
0
0
0
0
0
0
0
0
0
0
0
0
0
0
0
0
0
0
0
0
0
0
0
0
0
0
0
0
0
0
0
0
0
0
0
0
0
0
0
0
0
0
0
0
0
0
0
0
0
0
0
0
0
0
0
0
0
0
0
0
0
0
0
0
0
0
0
0
0
0
0
0
0
0
0
0
0
0
0
0
0
0
0
0
0
0
0
0
0
0
0
0
0
0
0
0
0
0
0
0
0
0
0
0
0
0
0
0
0
0
0
0
0
0
0
0
0
0
0
0
0
0
0
0
0
0
0
0
0
0
0
0
0
0
0
0
0
0
0
0
0
0
0
0
0
0
0
0
0
0
0
0
0
0
0
0
0
0
0
0
0
0
0
0
0
0
0
0
0
0
0
0
0
0
0
0
0
0
0
0
0
0
0
0
0
0
0
0
0
0
0
0
0
0
0
0
0
0
0
0
0
0
0
0
0
0
0
0
0
0
0
0
0
0
0
0
0
0
0
0
0
0
0
0
0
0
0
0
0
0
0
0
0
0
0
0
0
0
0
0
0
0
0
0
0
0
0
0
0
0
0
0
0
0
0
0
0
0
0
0
0
0
0
0
0
0
0
0
0
0
0
0
0
0
0
0
0
0
0
0
0
0
0
0
0
0
0
0
0
0
0
0
0
0
0
0
0
0
0
0
0
0
0
0
0
0
0
0
0
0
0
0
0
0
0
0
0
0
0
0
0
0
0
0
0
0
0
0
0
0
0
0
0
0
0
0
0
0
0
0
0
0
0
0
0
0
0
0
0
0
0
0
0
0
0
0
0
0
0
0
0
0
0
0
0
0
0
0
0
0
0
0
0
0
0
0
0
0
0
0
0
0
0
0
0
0
0
0
0
0
0
0
0
0
0
0
0
0
0
0
0
0
0
0
0
0
0
0
0
0
0
0
0
0
0
0
0
0
0
0
0
0
0
0
0
0
0
0
0
0
0
0
0
0
0
0
0
0
0
0
0
0
0
0
0
0
0
0
0
0
0
0
0
0
0
0
0
0
0
0
0
0
0
0
0
0
0
0
0
0
0
0
0
0
0
0
0
0
0
0
0
0
0
0
0
0
0
0
0
0
0
0
0
0
0
0
0
0
0
0
0
0
0
0
0
0
0
0
0
0
0
0
0
0
0
0
0
0
0
0
0
0
0
0
0
0
0
0
0
0
0
0
0
0
0
0
0
0
0
0
0
0
0
0
0
0
0
0
0
0
0
0
0
0
0
0
0
0
0
0
0
0
0
0
0
0
0
0
0
0
0
0
0
0
0
0
0
0
0
0
0
0
0
0
0
0
0
0
0
0
0
0
0
0
0
0
0
0
0
0
0
0
0
0
0
0
0
0
0
0
0
0
0
0
0
0
0
0
0
0
0
0
0
0
0
0
0
0
0
0
0
0
0
0
0
0
0
0
0
0
0
0
0
0
0
0
0
0
0
0
0
0
0
0
0
0
0
0
0
0
0
0
0
0
0
0
0
0
0
0
0
0
0
0
0
0
0
0
0
0
0
0
0
0
0
0
0
0
0
0
0
0
0
0
0
0
0
0
0
0
0
0
0
0
0
0
0
0
0
0
0
0
0
0
0
0
0
0
0
0
0
0
0
0
0
0
0
0
0
0
0
0
0
0
0
0
0
0
0
0
0
0
0
0
0
0
0
0
0
0
0
0
0
0
0
0
0
0
0
0
0
0
0
0
0
0
0
0
0
0
0
0
0
0
0
0
0
0
0
0
0
0
0
0
0
0
0
0
0
0
0
0
0
0
0
0
0
0
0
0
0
0
0
0
0
0
0
0
0
0
0
0
0
0
0
0
0
0
0
0
0
0
0
0
0
0
0
0
0
0
0
0
0
0
0
0
0
0
0
0
0
0
0
0
0
0
0
0
0
0
0
0
0
0
0
0
0
0
0
0
0
0
0
0
0
0
0
0
0
0
0
0
0
0
0
0
0
0
0
0
0
0
0
0
0
0
0
0
0
0
0
0
0
0
0
0
0
0
0
0
0
0
0
0
0
0
0
0
0
0
0
0
0
0
0
0
0
0
0
0
0
0
0
0
0
0
0
0
0
0
0
0
0
0
0
0
0
0
0
0
0
0
0
0
0
0
0
0
0
0
0
0
0
0
0
0
0
0
0
0
0
0
0
0
0
0
0
0
0
0
0
0
0
0
0
0
0
0
0
0
0
0
0
0
0
0
0
0
0
0
0
0
0
0
0
0
0
0
0
0
0
0
0
0
0
0
0
0
0
0
0
0
0
0
0
0
0
0
0
0
0
0
0
0
0
0
0
0
0
0
0
0
0
0
0
0
0
0
0
0
0
0
0
0
0
0
0
0
0
0
0
0
0
0
0
0
0
0
0
0
0
0
0
0
0
0
0
0
0
0
0
0
0
0
0
0
0
0
0
0
0
0
0
0
0
0
0
0
0
0
0
0
0
0
0
0
0
0
0
0
0
0
0
0
0
0
0
0
0
0
0
0
0
0
0
0
0
0
0
0
0
0
0
0
0
0
0
0
0
0
0
0
0
0
0
0
0
0
0
0
0
0
0
0
0
0
0
0
0
0
0
0
0
0
0
0
0
0
0
0
0
0
0
0
0
0
0
0
0
0
0
0
0
0
0
0
0
0
0
0
0
0
0
0
0
0
0
0
0
0
0
0
0
0
0
0
0
0
0
0
0
0
0
0
0
0
0
0
0
0
0
0
0
0
0
0
0
0
0
0
0
0
0
0
0
0
0
0
0
0
0
0
0
0
0
0
0
0
0
0
0
0
0
0
0
0
0
0
0
0
0
0
0
0
0
0
0
0
0
0
0
0
0
0
0
0
0
0
0
0
0
0
0
0
0
0
0
0
0
0
0
0
0
0
0
0
0
0
0
0
0
0
0
0
0
0
0
0
0
0
0
0
0
0
0
0
0
0
0
0
0
0
0
0
0
0
0
0
0
0
0
0
0
0
0
0
0
0
0
0
0
0
0
0
0
0
0
0
0
0
0
0
0
0
0
0
0
0
0
0
0
0
0
0
0
0
0
0
0
0
0
0
0
0
0
0
0
0
0
0
0
0
0
0
0
0
0
0
0
0
0
0
0
0
0
0
0
0
0
0
0
0
0
0
0
0
0
0
0
0
0
0
0
0
0
0
0
0
0
0
0
0
0
0
0
0
0
0
0
0
0
0
0
0
0
0
0
0
0
0
0
0
0
0
0
0
0
0
0
0
0
0
0
0
0
0
0
0
0
0
0
0
0
0
0
0
0
0
0
0
0
0
0
0
0
0
0
0
0
0
0
0
0
0
0
0
0
0
0
0
0
0
0
0
0
0
0
0
0
0
0
0
0
0
0
0
0
0
0
0
0
0
0
0
0
0
0
0
0
0
0
0
0
0
0
0
0
0
0
0
0
0
0
0
0
0
0
0
0
0
0
0
0
0
0
0
0
0
0
0
0
0
0
0
0
0
0
0
0
0
0
0
0
0
0
0
0
0
0
0
0
0
0
0
0
0
0
0
0
0
0
0
0
0
0
0
0
0
0
0
0
0
0
0
0
0
0
0
0
0
0
0
0
0
0
0
0
0
0
0
0
0
0
0
0
0
0
0
0
0
0
0
0
0
0
0
0
0
0
0
0
0
0
0
0
0
0
0
0
0
0
0
0
0
0
0
0
0
0
0
0
0
0
0
0
0
0
0
0
0
0
0
0
0
0
0
0
0
0
0
0
0
0
0
0
0
0
0
0
0
0
0
0
0
0
0
0
0
0
0
0
0
0
0
0
0
0
0
0
0
0
0
0
0
0
0
0
0
0
0
0
0
0
0
0
0
0
0
0
0
0
0
0
0
0
0
0
0
0
0
0
0
0
0
0
0
0
0
0
0
0
0
0
0
0
0
0
0
0
0
0
0
0
0
0
0
0
0
0
0
0
0
0
0
0
0
0
0
0
0
0
0
0
0
0
0
0
0
0
0
0
0
0
0
0
0
0
0
0
0
0
0
0
0
0
0
0
0
0
0
0
0
0
0
0
0
0
0
0
0
0
0
0
0
0
0
0
0
0
0
0
0
0
0
0
0
0
0
0
0
0
0
0
0
0
0
0
0
0
0
0
0
0
0
0
0
0
0
0
0
0
0
0
0
0
0
0
0
0
0
0
0
0
0
0
0
0
0
0
0
0
0
0
0
0
0
0
0
0
0
0
0
0
0
0
0
0
0
0
0
0
0
0
0
0
0
0
0
0
0
0
0
0
0
0
0
0
0
0
0
0
0
0
0
0
0
0
0
0
0
0
0
0
0
0
0
0
0
0
0
0
0
0
0
0
0
0
0
0
0
0
0
0
0
0
0
0
0
0
0
0
0
0
0
0
0
0
0
0
0
0
0
0
0
0
0
0
0
0
0
0
0
0
0
0
0
0
0
0
0
0
0
0
0
0
0
0
0
0
0
0
0
0
0
0
0
0
0
0
0
0
0
0
0
0
0
0
0
0
0
0
0
0
0
0
0
0
0
0
0
0
0
0
0
0
0
0
0
0
0
0
0
0
0
0
0
0
0
0
0
0
0
0
0
0
0
0
0
0
0
0
0
0
0
0
0
0
0
0
0
0
0
0
0
0
0
0
0
0
0
0
0
0
0
0
0
0
0
0
0
0
0
0
0
0
0
0
0
0
0
0
0
0
0
0
0
0
0
0
0
0
0
0
0
0
0
0
0
0
0
0
0
0
0
0
0
0
0
0
0
0
0
0
0
0
0
0
0
0
0
0
0
0
0
0
0
0
0
0
0
0
0
0
0
0
0
0
0
0
0
0
0
0
0
0
0
0
0
0
0
0
0
0
0
0
0
0
0
0
0
0
0
0
0
0
0
0
0
0
0
0
0
0
0
0
0
0
0
0
0
0
0
0
0
0
0
0
0
0
0
0
0
0
0
0
0
0
0
0
0
0
0
0
0
0
0
0
0
0
0
0
0
0
0
0
0
0
0
0
0
0
0
0
0
0
0
0
0
0
0
0
0
0
0
0
0
0
0
0
0
0
0
0
0
0
0
0
0
0
0
0
0
0
0
0
0
0
0
0
0
0
0
0
0
0
0
0
0
0
0
0
0
0
0
0
0
0
0
0
0
0
0
0
0
0
0
0
0
0
0
0
0
0
0
0
0
0
0
0
0
0
0
0
0
0
0
0
0
0
0
0
0
0
0
0
0
0
0
0
0
0
0
0
0
0
0
0
0
0
0
0
0
0
0
0
0
0
0
0
0
0
0
0
0
0
0
0
0
0
0
0
0
0
0
0
0
0
0
0
0
0
0
0
0
0
0
0
0
0
0
0
0
0
0
0
0
0
0
0
0
0
0
0
0
0
0
0
0
0
0
0
0
0
0
0
0
0
0
0
0
0
0
0
0
0
0
0
0
0
0
0
0
0
0
0
0
0
0
0
0
0
0
0
0
0
0
0
0
0
0
0
0
0
0
0
0
0
0
0
0
0
0
0
0
0
0
0
0
0
0
0
0
0
0
0
0
0
0
0
0
0
0
0
0
0
0
0
0
0
0
0
0
0
0
0
0
0
0
0
0
0
0
0
0
0
0
0
0
0
0
0
0
0
0
0
0
0
0
0
0
0
0
0
0
0
0
0
0
0
0
0
0
0
0
0
0
0
0
0
0
0
0
0
0
0
0
0
0
0
0
0
0
0
0
0
0
0
0
0
0
0
0
0
0
0
0
0
0
0
0
0
0
0
0
0
0
0
0
0
0
0
0
0
0
0
0
0
0
0
0
0
0
0
0
0
0
0
0
0
0
0
0
0
0
0
0
0
0
0
0
0
0
0
0
0
0
0
0
0
0
0
0
0
0
0
0
0
0
0
0
0
0
0
0
0
0
0
0
0
0
0
0
0
0
0
0
0
0
0
0
0
0
0
0
0
0
0
0
0
0
0
0
0
0
0
0
0
0
0
0
0
0
0
0
0
0
0
0
0
0
0
0
0
0
0
0
0
0
0
0
0
0
0
0
0
0
0
0
0
0
0
0
0
0
0
0
0
0
0
0
0
0
0
0
0
0
0
0
0
0
0
0
0
0
0
0
0
0
0
0
0
0
0
0
0
0
0
0
0
0
0
0
0
0
0
0
0
0
0
0
0
0
0
0
0
0
0
0
0
0
0
0
0
0
0
0
0
0
0
0
0
0
0
0
0
0
0
0
0
0
0
0
0
0
0
0
0
0
0
0
0
0
0
0
0
0
0
0
0
0
0
0
0
0
0
0
0
0
0
0
0
0
0
0
0
0
0
0
0
0
0
0
0
0
0
0
0
0
0
0
0
0
0
0
0
0
0
0
0
0
0
0
0
0
0
0
0
0
0
0
0
0
0
0
0
0
0
0
0
0
0
0
0
0
0
0
0
0
0
0
0
0
0
0
0
0
0
0
0
0
0
0
0
0
0
0
0
0
0
0
0
0
0
0
0
0
0
0
0
0
0
0
0
0
0
0
0
0
0
0
0
0
0
0
0
0
0
0
0
0
0
0
0
0
0
0
0
0
0
0
0
0
0
0
0
0
0
0
0
0
0
0
0
0
0
0
0
0
0
0
0
0
0
0
0
0
0
0
0
0
0
0
0
0
0
0
0
0
0
0
0
0
0
0
0
0
0
0
0
0
0
0
0
0
0
0
0
0
0
0
0
0
0
0
0
0
0
0
0
0
0
0
0
0
0
0
0
0
0
0
0
0
0
0
0
0
0
0
0
0
0
0
0
0
0
0
0
0
0
0
0
0
0
0
0
0
0
0
0
0
0
0
0
0
0
0
0
0
0
0
0
0
0
0
0
0
0
0
0
0
0
0
0
0
0
0
0
0
0
0
0
0
0
0
0
0
0
0
0
0
0
0
0
0
0
0
0
0
0
0
0
0
0
0
0
0
0
0
0
0
0
0
0
0
0
0
0
0
0
0
0
0
0
0
0
0
0
0
0
0
0
0
0
0
0
0
0
0
0
0
0
0
0
0
0
0
0
0
0
0
0
0
0
0
0
0
0
0
0
0
0
0
0
0
0
0
0
0
0
0
0
0
0
0
0
0
0
0
0
0
0
0
0
0
0
0
0
0
0
0
0
0
0
0
0
0
0
0
0
0
0
0
0
0
0
0
0
0
0
0
0
0
0
0
0
0
0
0
0
0
0
0
0
0
0
0
0
0
0
0
0
0
0
0
0
0
0
0
0
0
0
0
0
0
0
0
0
0
0
0
0
0
0
0
0
0
0
0
0
0
0
0
0
0
0
0
0
0
0
0
0
0
0
0
0
0
0
0
0
0
0
0
0
0
0
0
0
0
0
0
0
0
0
0
0
0
0
0
0
0
0
0
0
0
0
0
0
0
0
0
0
0
0
0
0
0
0
0
0
0
0
0
0
0
0
0
0
0
0
0
0
0
0
0
0
0
0
0
0
0
0
0
0
0
0
0
0
0
0
0
0
0
0
0
0
0
0
0
0
0
0
0
0
0
0
0
0
0
0
0
0
0
0
0
0
0
0
0
0
0
0
0
0
0
