1.6169
1.60236
1.58526
1.56539
1.54275
1.5178
1.49155
1.46564
1.44233
1.4241
1.4131
1.41063
1.41692
1.42996
1.44664
1.46371
1.47886
1.49147
1.50278
1.51554
1.53333
1.55918
1.59506
1.64244
1.70253
1.7761
1.86108
1.94992
2.03156
2.09439
2.12872
2.12888
2.09438
2.02968
1.94277
1.84286
1.73822
1.63384
1.53123
1.42995
1.3289
1.22703
1.12391
1.02005
0.916931
0.816624
0.721142
0.63194
0.549104
0.470806
0.393855
0.314441
0.22904
0.135213
0.0320507
-0.0797919
-0.198428
-0.321263
-0.447597
-0.39723
0
1.01135
2.79849
5.19402
7.61194
9.20322
9.23209
7.47076
4.35924
0.807672
-2.24076
-4.21032
-5.02646
-4.96241
-4.36973
-3.49997
-2.49215
-1.45452
-0.519911
0.16304
0.440874
0.603013
0.738878
0.85849
0.96184
1.05006
1.12542
1.19114
1.25115
1.30951
1.3699
1.43498
1.50593
1.58225
1.66207
1.74214
1.81837
1.88734
1.94729
1.99879
2.0449
2.09054
2.14157
2.20349
2.28049
2.37427
2.48413
2.60891
2.74766
2.89918
3.06196
3.23463
3.41531
3.59511
3.7597
3.89422
3.98806
4.03866
4.05226
4.04091
4.01683
3.98663
3.9489
3.89701
3.82018
3.70734
3.55008
3.34502
3.09494
2.80847
2.49842
2.1799
1.86559
1.56409
1.28203
1.02352
0.790464
0.583164
0.401051
0.243312
0.109668
5.22614e-005
-0.0860168
-0.149415
-0.191825
-0.215601
-0.22443
-0.222883
-0.215583
-0.206467
-0.198157
-0.191598
-0.186031
-0.179295
-0.168367
-0.150184
-0.122236
-0.0828407
-0.0314108
0.0314053
0.103801
0.183075
0.265971
0.348998
0.428782
0.502273
0.566766
0.61983
0.659581
0.685233
0.696926
0.695935
0.684793
0.667202
0.647665
0.630858
0.620886
0.620495
0.630591
0.65074
0.679132
0.713018
0.749276
0.784926
0.817671
0.846459
0.87178
0.895723
0.921704
0.953811
0.996521
1.05668
1.13778
1.22755
1.30449
1.34561
1.33464
1.26819
1.15704
1.02222
0.887371
0.77099
0.675668
0.595881
0.527632
0.468466
0.415902
0.367882
0.322843
0.279466
0.236313
0.191549
0.142896
0.0878695
0.0242203
-0.0495946
-0.134058
-0.228474
-0.331112
-0.439522
-0.55134
-0.664929
-0.531737
0
1.09634
2.8114
4.9762
7.1538
8.71723
9.0613
7.87571
5.33304
2.06315
-1.09749
-3.44699
-4.6631
-4.83612
-4.31881
-3.50709
-2.68651
-1.97979
-1.38037
-0.829713
-0.369643
-0.0361816
0.243132
0.491682
0.717594
0.922932
1.10965
1.27994
1.43542
1.57667
1.70321
1.81384
1.90763
1.98437
2.04527
2.09334
2.13332
2.17113
2.21298
2.26436
2.32912
2.40848
2.50163
2.60687
2.72235
2.84645
2.97838
3.11833
3.26731
3.42669
3.59758
3.7804
3.97459
4.17883
4.39144
4.61089
4.83642
5.06825
5.30548
5.53605
5.73029
5.84641
5.84575
5.71037
5.45292
5.11307
4.74139
4.37824
4.03373
3.70049
3.37442
3.05545
2.74569
2.44902
2.17082
1.91722
1.69396
1.50524
1.35335
1.23905
1.16034
1.11093
1.0835
1.07112
1.06822
1.07098
1.0771
1.08505
1.09333
1.09958
1.10073
1.09367
1.0764
1.04907
1.01452
0.978123
0.946849
0.927897
0.925894
0.942515
0.978401
1.0334
1.10559
1.18981
1.2761
1.35225
1.40736
1.43394
1.42949
1.39692
1.34372
1.27985
1.21517
1.15714
1.10839
1.06842
1.03644
1.01171
0.99338
0.980726
0.973255
0.970846
0.973709
0.982651
0.999273
1.02606
1.06622
1.12315
1.19967
1.2971
1.41408
1.54675
1.6899
1.83608
1.97617
2.10129
2.20393
2.2786
2.32204
2.33294
2.31147
2.25893
2.1776
2.07203
1.94762
1.81022
1.66692
1.52544
1.39317
1.27657
1.18054
1.10582
1.04832
1.00082
0.954473
0.900513
0.831832
0.744045
0.63601
0.509742
0.369929
0.222902
0.0750255
-0.0677786
-0.201132
-0.322663
-0.429346
-0.383714
0
0.837511
2.34568
4.56437
7.18566
9.53286
10.7614
10.2282
7.84365
4.18917
0.3018
-2.77609
-4.43466
-4.68037
-3.99267
-2.98058
-2.07154
-1.39447
-0.865893
-0.356248
0.114045
0.481998
0.792054
1.06098
1.29617
1.49842
1.66895
1.8109
1.92862
2.02693
2.11043
2.18304
2.24774
2.30645
2.36018
2.4091
2.45289
2.49149
2.52547
2.55658
2.58812
2.62493
2.67293
2.7381
2.82546
2.93799
3.07468
3.23257
3.40849
3.59851
3.79838
4.00432
4.21295
4.42123
4.62609
4.82354
5.00794
5.17334
5.31366
5.4228
5.4951
5.52556
5.50993
5.44484
5.32802
5.15897
4.9423
4.68333
4.38932
4.07002
3.737
3.40265
3.07714
2.76943
2.48675
2.23408
2.01412
1.82725
1.67095
1.54078
1.43113
1.33609
1.25025
1.16937
1.09078
1.01348
0.938003
0.865981
0.799761
0.741919
0.694821
0.660264
0.639221
0.631667
0.636581
0.651952
0.674837
0.70129
0.726264
0.744689
0.752647
0.748239
0.732105
0.707322
0.678583
0.650843
0.627892
0.611648
0.600768
0.59185
0.581055
0.565799
0.545824
0.523334
0.502259
0.487089
0.480842
0.484569
0.498737
0.523164
0.556944
0.597876
0.641382
0.681566
0.71335
0.734161
0.745289
0.752333
0.764386
0.792045
0.844766
0.92716
1.03593
1.16848
1.32032
1.48028
1.63199
1.75935
1.84928
1.89307
1.88689
1.83158
1.73196
1.596
1.43377
1.25718
1.07736
0.902757
0.739125
0.590342
0.459424
0.348255
0.257254
0.18582
0.13128
0.0874431
0.0470783
0.00348434
-0.0481515
-0.109818
-0.180477
-0.256673
-0.333758
-0.407352
-0.475103
-0.536116
-0.581697
-0.445077
0
1.03555
2.82133
5.2043
7.63794
9.31954
9.5173
7.93385
4.89259
1.223
-2.10527
-4.38881
-5.41043
-5.38401
-4.71293
-3.74861
-2.69027
-1.62887
-0.643277
0.143598
0.474212
0.583015
0.675238
0.765928
0.859581
0.958534
1.06253
1.16901
1.27364
1.37182
1.46023
1.53796
1.6071
1.67247
1.74059
1.81815
1.91022
2.01876
2.14262
2.27963
2.42354
2.56776
2.70733
2.84052
2.9693
3.09872
3.23532
3.3852
3.5523
3.73605
3.93394
4.14285
4.35907
4.57893
4.79876
5.01344
5.21483
5.39238
5.53276
5.62109
5.64456
5.59562
5.47319
5.28163
5.02853
4.72313
4.38153
4.02017
3.6515
3.28492
2.92891
2.59208
2.28229
2.0059
1.76696
1.56699
1.40531
1.27841
1.17957
1.10102
1.03516
0.975604
0.917875
0.859666
0.800658
0.742027
0.68581
0.63415
0.58897
0.551854
0.523707
0.50471
0.494605
0.492692
0.497472
0.507646
0.522667
0.543123
0.570777
0.608158
0.657768
0.721119
0.79786
0.885291
0.979166
1.07339
1.16106
1.23589
1.29319
1.33059
1.3483
1.34904
1.33765
1.32051
1.30474
1.29729
1.3037
1.32729
1.36923
1.42904
1.50463
1.5924
1.68769
1.78546
1.88084
1.9695
2.04781
2.11273
2.16105
2.1892
2.19419
2.1737
2.12652
2.0534
1.95776
1.84593
1.72672
1.61013
1.50574
1.42064
1.35875
1.32075
1.30315
1.29992
1.30392
1.30808
1.30602
1.29207
1.26086
1.20625
1.12223
1.00309
0.844665
0.645839
0.409849
0.14477
-0.149738
-0.406672
0
1.15283
2.97118
5.17736
7.33173
8.89905
9.37338
8.45796
6.22077
3.12433
-0.118657
-2.80668
-4.48911
-5.06767
-4.73792
-3.8359
-2.69524
-1.566
-0.599568
0.124477
0.482603
0.630959
0.766599
0.900404
1.0349
1.1711
1.30824
1.44311
1.57051
1.68434
1.77905
1.85157
1.90216
1.93477
1.95668
1.97737
2.0069
2.05397
2.12437
2.21945
2.3357
2.46797
2.61182
2.7635
2.92032
3.08096
3.24522
3.41347
3.58594
3.76212
3.94045
4.11835
4.29249
4.45924
4.61515
4.75723
4.88313
4.99105
5.07932
5.14582
5.18734
5.19941
5.17766
5.11719
5.0136
4.8641
4.66867
4.43092
4.15824
3.8613
3.55293
3.2464
2.9524
2.67971
2.4344
2.22086
2.04025
1.88742
1.75509
1.63561
1.52276
1.41287
1.30532
1.20217
1.10729
1.02489
0.959603
0.914811
0.892553
0.893323
0.916008
0.957935
1.01504
1.08221
1.15375
1.22403
1.28854
1.34426
1.3891
1.42233
1.44448
1.4572
1.46286
1.46413
1.46361
1.46338
1.46481
1.46843
1.47401
1.48076
1.48755
1.49323
1.49683
1.49773
1.49572
1.49102
1.48419
1.47616
1.46822
1.46208
1.45994
1.46452
1.47897
1.50664
1.55064
1.61342
1.69653
1.80207
1.93164
2.08215
2.24009
2.38399
2.49241
2.54806
2.54089
2.46957
2.34137
2.17033
1.97446
1.77226
1.57816
1.39806
1.23288
1.08223
0.945832
0.823432
0.714807
0.620295
0.541072
0.479069
0.437669
0.424897
0.452774
0.51762
0.592317
0.642132
0.636025
0.557564
0.410605
0.217334
-0.103168
0
0.779242
2.31869
4.44172
6.67722
8.34681
8.78355
7.6061
4.92438
1.35635
-2.18267
-4.83159
-6.10695
-6.0363
-5.04797
-3.70516
-2.44348
-1.44882
-0.701767
-0.113334
0.216767
0.371416
0.485865
0.577772
0.648565
0.702356
0.745436
0.785308
0.829411
0.883614
0.951079
1.03223
1.12504
1.22591
1.32976
1.43114
1.52567
1.61096
1.68708
1.75645
1.82324
1.89242
1.96881
2.05618
2.15642
2.26975
2.39533
2.53139
2.67545
2.82461
2.9759
3.1265
3.27407
3.417
3.55466
3.68747
3.81676
3.94445
4.0725
4.20249
4.33265
4.45081
4.53496
4.55827
4.49707
4.33885
4.08703
3.76081
3.39022
3.00863
2.64161
2.29685
1.97828
1.69145
1.43977
1.22455
1.04541
0.901307
0.789601
0.704031
0.637282
0.582601
0.534938
0.491689
0.452795
0.420124
0.396353
0.383697
0.382182
0.390727
0.40677
0.426724
0.446736
0.463379
0.474318
0.478586
0.476506
0.469316
0.458619
0.44579
0.431525
0.415695
0.397551
0.376251
0.351529
0.324258
0.296661
0.272057
0.254167
0.246174
0.249425
0.264968
0.29085
0.321113
0.348743
0.367606
0.374189
0.368602
0.354555
0.338365
0.327388
0.328409
0.344745
0.377154
0.425807
0.490635
0.571004
0.665734
0.773173
0.891189
1.01725
1.14829
1.28051
1.4093
1.52898
1.63229
1.71072
1.75732
1.76618
1.73369
1.65972
1.54849
1.40844
1.25089
1.08793
0.929975
0.782522
0.646862
0.524028
0.414268
0.317491
0.233756
0.163442
0.107083
0.0649451
0.0366455
0.0212197
0.0164371
0.0186874
0.0239782
0.0285541
0.0293839
0.0228965
-0.0854851
0
0.698671
2.26584
4.66696
7.45379
9.82519
10.9041
10.1168
7.4799
3.62955
-0.431185
-3.73046
-5.66791
-6.14761
-5.48565
-4.18987
-2.73953
-1.45778
-0.488891
0.15992
0.523313
0.71129
0.874193
1.02384
1.15879
1.27795
1.38189
1.47275
1.55382
1.62887
1.70128
1.77329
1.84559
1.91692
1.98495
2.04776
2.10539
2.1606
2.2186
2.28581
2.3679
2.46801
2.58442
2.71261
2.84779
2.98559
3.12261
3.2573
3.39028
3.52397
3.66171
3.80653
3.96006
4.12317
4.29125
4.45284
4.5948
4.70627
4.78173
4.82187
4.83206
4.81888
4.78638
4.73478
4.66287
4.56403
4.43119
4.25896
4.04538
3.79298
3.5089
3.20423
2.8929
2.58755
2.29914
2.03625
1.80467
1.60713
1.44216
1.30576
1.19289
1.09887
1.02025
0.955208
0.903233
0.864388
0.838686
0.825164
0.821365
0.823834
0.828707
0.832413
0.832237
0.826655
0.815426
0.799505
0.780957
0.762286
0.746316
0.735637
0.732113
0.736535
0.748484
0.766532
0.788745
0.81323
0.838531
0.86371
0.888121
0.910945
0.930773
0.945696
0.95366
0.953237
0.944435
0.929157
0.911046
0.894693
0.884414
0.882908
0.89113
0.906891
0.925916
0.943223
0.954662
0.958152
0.954303
0.946289
0.939081
0.938324
0.948451
0.972144
1.01077
1.06456
1.13266
1.21355
1.30517
1.40506
1.51033
1.61784
1.72374
1.82384
1.91416
1.99129
2.05268
2.09662
2.12192
2.12746
2.11189
2.07364
2.01129
1.92432
1.81381
1.68298
1.53717
1.38345
1.22969
1.08299
0.949073
0.832257
0.735283
0.658933
0.601394
0.559398
0.528838
0.505334
0.484655
0.462963
0.436956
0.404006
0.362351
0.311347
0.251607
0.170505
0
0.366876
1.57013
3.6321
6.20306
8.60602
10.0367
9.86107
7.89784
4.54162
0.643151
-2.81763
-5.10671
-5.96809
-5.61445
-4.52371
-3.18563
-1.93824
-0.935147
-0.199115
0.294861
0.514054
0.667894
0.801245
0.919375
1.02195
1.10989
1.18541
1.2517
1.31248
1.37142
1.43166
1.49548
1.56412
1.63795
1.71679
1.80025
1.88809
1.98034
2.07732
2.17937
2.28663
2.3987
2.51474
2.63346
2.75354
2.87421
2.99569
3.11936
3.24748
3.38269
3.52722
3.68221
3.84711
4.01971
4.19658
4.37283
4.54031
4.68813
4.8064
4.88635
4.92148
4.90811
4.8454
4.73451
4.57774
4.37817
4.14353
3.8846
3.60946
3.32461
3.03647
2.75117
2.47381
2.20813
1.95649
1.72018
1.49998
1.29658
1.11072
0.943248
0.795088
0.666252
0.555674
0.461794
0.383061
0.319049
0.26955
0.234836
0.215167
0.210075
0.218162
0.236464
0.261326
0.289292
0.317948
0.346376
0.37505
0.405236
0.438176
0.474206
0.512584
0.551822
0.589806
0.624183
0.652795
0.674021
0.686989
0.691662
0.688808
0.679901
0.666958
0.652314
0.638295
0.626908
0.619633
0.617342
0.619823
0.626093
0.635112
0.646416
0.660533
0.678996
0.703906
0.737209
0.779944
0.831363
0.889419
0.951574
1.01492
1.07653
1.13375
1.18418
1.22556
1.25585
1.2731
1.2754
1.26099
1.2286
1.17771
1.10889
1.02387
0.925629
0.818311
0.706885
0.59651
0.492177
0.398339
0.318398
0.254716
0.208539
0.178242
0.158164
0.141552
0.122227
0.0960931
0.0620254
0.0218492
-0.0205623
-0.0607369
-0.0951567
-0.122909
-0.144843
-0.160993
-0.158561
0
0.625681
1.96476
3.99517
6.28719
8.07782
8.58081
7.38937
4.72382
1.35178
-1.78012
-3.96864
-4.98007
-4.99389
-4.37903
-3.48714
-2.56939
-1.78128
-1.19791
-0.815718
-0.533334
-0.29747
-0.087143
0.103437
0.274875
0.426864
0.561437
0.682524
0.795045
0.903793
1.01238
1.12254
1.23404
1.34528
1.454
1.55813
1.6565
1.74928
1.83812
1.92581
2.01586
2.11189
2.21716
2.33421
2.46472
2.60949
2.76846
2.94073
3.12448
3.31684
3.51384
3.71054
3.901
4.07926
4.24017
4.38005
4.49708
4.591
4.66251
4.71091
4.73373
4.7281
4.68905
4.61052
4.487
4.31529
4.096
3.83423
3.53928
3.22391
2.90214
2.5851
2.28166
1.99813
1.73804
1.5024
1.29056
1.10107
0.933242
0.787077
0.662553
0.559989
0.479435
0.420165
0.380475
0.357845
0.349341
0.352036
0.363042
0.380021
0.401079
0.423989
0.446442
0.466398
0.482497
0.494423
0.503038
0.510163
0.518075
0.528884
0.543829
0.563068
0.585978
0.611332
0.637449
0.66234
0.684086
0.701125
0.71243
0.717594
0.716825
0.710869
0.700925
0.688601
0.675943
0.665423
0.659992
0.662829
0.676973
0.704795
0.74751
0.80491
0.875443
0.956624
1.04561
1.13967
1.23648
1.33425
1.4311
1.52432
1.61028
1.68442
1.74158
1.7767
1.78554
1.76544
1.71591
1.63896
1.53919
1.42391
1.30112
1.17882
1.0639
0.960482
0.869975
0.792162
0.725275
0.666804
0.614256
0.565649
0.519637
0.475345
0.432044
0.388919
0.345035
0.29935
0.250886
0.198951
0.143329
0.0840961
0.0170376
0
0.403502
1.53288
3.48359
5.97852
8.36197
9.8078
9.66579
7.77884
4.58977
0.965877
-2.1719
-4.21256
-5.02139
-4.85332
-4.1131
-3.13372
-2.09565
-1.07868
-0.152089
0.555853
0.839562
1.02
1.17139
1.29885
1.4005
1.47637
1.52786
1.55786
1.57086
1.57294
1.57134
1.5738
1.58756
1.61807
1.66786
1.73679
1.82287
1.9231
2.03371
2.15067
2.27026
2.38943
2.50586
2.61808
2.72536
2.82786
2.92663
3.02373
3.12222
3.22599
3.33943
3.46689
3.61206
3.78
3.98065
4.22248
4.49436
4.76142
4.98458
5.13232
5.185
5.13458
4.98319
4.74295
4.43642
4.09423
3.74772
3.41467
3.09715
2.79178
2.49684
2.21307
1.94199
1.68592
1.44767
1.22998
1.03513
0.863876
0.715131
0.586567
0.475279
0.378559
0.294495
0.222222
0.161722
0.11336
0.0773275
0.053197
0.0397686
0.0352091
0.0374074
0.0443953
0.0546694
0.0674479
0.0826954
0.101009
0.123477
0.151439
0.186147
0.228345
0.278445
0.335797
0.395638
0.450031
0.490451
0.510297
0.507116
0.483629
0.447153
0.407613
0.374881
0.355116
0.349213
0.355905
0.37316
0.398257
0.427813
0.458523
0.487847
0.514412
0.538155
0.560175
0.582373
0.606945
0.6359
0.670677
0.71196
0.75983
0.814003
0.873971
0.939086
1.00873
1.08187
1.15565
1.22461
1.28141
1.3178
1.32609
1.30051
1.23838
1.14066
1.01205
0.860508
0.697297
0.533003
0.37622
0.233314
0.10803
0.00320816
-0.0798772
-0.141076
-0.180887
-0.200166
-0.199673
-0.177806
-0.134003
-0.0772665
-0.0257953
0
-0.0120299
-0.0738246
-0.179963
-0.315952
-0.584657
-0.357533
0.655163
2.55463
5.1165
7.7457
9.61021
9.94204
8.38884
5.22572
1.28717
-2.36354
-4.85964
-5.83085
-5.44781
-4.23645
-2.79423
-1.56176
-0.728705
-0.271045
-0.0740635
0.0926558
0.251976
0.405029
0.550126
0.685893
0.81158
0.927135
1.03315
1.13064
1.22069
1.3041
1.38183
1.45492
1.52476
1.59339
1.6636
1.73876
1.82218
1.91653
2.02314
2.14131
2.26913
2.40416
2.54369
2.68514
2.82643
2.96607
3.10323
3.2376
3.36945
3.49963
3.62964
3.76158
3.89788
4.04138
4.19645
4.36604
4.54236
4.7082
4.84315
4.92943
4.95612
4.92001
4.82363
4.67225
4.47178
4.23312
3.96837
3.68717
3.39751
3.10636
2.81953
2.54205
2.2785
2.03271
1.80758
1.60508
1.42621
1.2711
1.13934
1.02956
0.939684
0.867478
0.811181
0.769599
0.741642
0.726556
0.723539
0.731342
0.748027
0.770999
0.797291
0.82401
0.848821
0.870233
0.887467
0.900406
0.909422
0.915217
0.918698
0.92092
0.923076
0.926436
0.93219
0.941235
0.953993
0.970131
0.98839
1.00682
1.02331
1.03619
1.04467
1.04916
1.05115
1.05289
1.05677
1.06474
1.07776
1.09592
1.11876
1.14541
1.17525
1.20844
1.24619
1.2908
1.3452
1.41235
1.49434
1.59156
1.70387
1.82827
1.95673
2.0772
2.17709
2.24566
2.27574
2.26473
2.21465
2.13139
2.0234
1.9
1.77016
1.64013
1.51308
1.39012
1.27128
1.15596
1.04329
0.932543
0.823638
0.71733
0.615237
0.519595
0.432812
0.356931
0.293209
0.241999
0.202247
0.171141
0.145095
0.120362
0.0935575
0.060532
-0.0905914
0
0.743538
2.3429
4.6957
7.32622
9.47787
10.3639
9.49826
6.94869
3.36208
-0.283158
-3.08314
-4.55199
-4.72522
-4.00312
-2.87161
-1.69307
-0.652001
0.17975
0.714926
0.887605
1.02926
1.16311
1.29233
1.41895
1.545
1.67229
1.80219
1.93547
2.07209
2.21105
2.3502
2.48527
2.61097
2.72252
2.81732
2.89628
2.96423
3.02898
3.09939
3.18307
3.28412
3.40103
3.53078
3.67057
3.81781
3.97061
4.12821
4.29088
4.45945
4.63463
4.81633
5.00319
5.19252
5.37992
5.5591
5.72199
5.85961
5.96472
6.03158
6.0562
6.03647
5.97206
5.86404
5.7143
5.52501
5.29833
5.03943
4.75501
4.45163
4.13576
3.81512
3.49883
3.19653
2.91714
2.66786
2.4532
2.27358
2.12449
1.99713
1.88095
1.76579
1.6438
1.51083
1.36708
1.21632
1.06661
0.928164
0.810785
0.721943
0.665521
0.641387
0.645776
0.672271
0.713093
0.76036
0.80722
0.848853
0.882511
0.906695
0.920861
0.925512
0.922087
0.912801
0.900414
0.887854
0.877713
0.871825
0.871001
0.873814
0.876351
0.873702
0.861503
0.837485
0.802541
0.76095
0.719683
0.686983
0.670203
0.672874
0.696226
0.740507
0.803898
0.883089
0.974042
1.0727
1.17551
1.27989
1.38383
1.48543
1.58208
1.66923
1.73921
1.78317
1.79154
1.75625
1.67337
1.54528
1.38156
1.19803
1.01397
0.847982
0.709228
0.599189
0.522191
0.474203
0.444574
0.42085
0.391813
0.349778
0.29161
0.218327
0.133666
0.0422343
-0.0518868
-0.146372
-0.240405
-0.333911
-0.427083
-0.520075
-0.468477
0
1.07649
2.83717
5.11443
7.43155
9.07859
9.36747
7.9647
5.11042
1.5606
-1.73864
-4.05572
-5.12299
-5.11389
-4.42233
-3.42308
-2.35243
-1.32771
-0.424239
0.232925
0.442988
0.581911
0.703949
0.815929
0.920707
1.02134
1.12072
1.22144
1.32571
1.43546
1.55224
1.67708
1.81082
1.95341
2.10191
2.2481
2.37941
2.48299
2.54919
2.57474
2.5646
2.53195
2.49598
2.4779
2.49629
2.55849
2.65899
2.78915
2.94208
3.11127
3.28949
3.46953
3.64489
3.8104
3.96253
4.09935
4.22019
4.32479
4.41241
4.48076
4.52515
4.53894
4.51448
4.44374
4.32032
4.14148
3.90955
3.6322
3.32171
2.99315
2.66238
2.3414
2.03934
1.76349
1.51866
1.30717
1.12948
0.984801
0.869435
0.776442
0.69807
0.626935
0.557198
0.485487
0.411331
0.337002
0.26679
0.205699
0.157808
0.12624
0.112012
0.114839
0.131576
0.156191
0.182209
0.204218
0.219051
0.226341
0.228331
0.229038
0.233059
0.244181
0.264186
0.293365
0.331
0.375448
0.424395
0.475251
0.525492
0.572915
0.615774
0.652875
0.68367
0.708234
0.727273
0.742095
0.754553
0.766929
0.781753
0.801556
0.828578
0.864383
0.909653
0.964358
1.0275
1.09552
1.16119
1.21581
1.25109
1.26086
1.24229
1.1962
1.12638
1.03829
0.937581
0.829753
0.718627
0.606499
0.495045
0.385872
0.280774
0.181836
0.0914705
0.0120513
-0.0545238
-0.107075
-0.145407
-0.170405
-0.183931
-0.188524
-0.186994
-0.182012
-0.175835
-0.17034
-0.183242
0
0.653358
2.02772
4.1554
6.67686
8.85906
9.85746
9.11111
6.64216
3.07705
-0.623144
-3.56466
-5.23821
-5.61486
-5.02808
-3.95272
-2.80777
-1.84926
-1.15815
-0.691139
-0.372341
-0.140888
0.0634427
0.251811
0.426304
0.587082
0.734415
0.869344
0.993387
1.10819
1.2152
1.3154
1.40916
1.49616
1.57562
1.64676
1.70909
1.7629
1.80967
1.85224
1.89481
1.94264
2.00138
2.07629
2.17128
2.28836
2.42727
2.58547
2.75866
2.94166
3.1293
3.31731
3.50284
3.68462
3.86253
4.03655
4.20582
4.36678
4.51224
4.63162
4.71297
4.74533
4.72036
4.63307
4.48218
4.27067
4.00662
3.70756
3.39181
3.07544
2.7714
2.48747
2.22781
1.99511
1.78937
1.60874
1.45054
1.31216
1.19168
1.0879
1.00057
0.929668
0.873674
0.829441
0.792955
0.760091
0.727557
0.693702
0.65892
0.625543
0.597253
0.577942
0.570494
0.576411
0.596075
0.628563
0.670441
0.716155
0.759642
0.795715
0.82113
0.835206
0.83981
0.838711
0.836468
0.837136
0.843061
0.854317
0.869318
0.8852
0.89864
0.906727
0.907588
0.900636
0.886462
0.866541
0.84294
0.818247
0.795249
0.777322
0.76854
0.773106
0.794908
0.836743
0.899527
0.981767
1.07947
1.1866
1.29593
1.40018
1.49344
1.57112
1.63023
1.66922
1.68761
1.68541
1.66282
1.62012
1.55782
1.47714
1.38051
1.27187
1.15653
1.04069
0.930579
0.83206
0.749437
0.683414
0.631574
0.589729
0.553386
0.519074
0.485114
0.451628
0.419871
0.391212
0.366025
0.343446
0.321463
0.297228
0.267714
0.230355
0.18259
0.034542
0
0.611902
2.17173
4.60632
7.33913
9.44551
10.0515
8.76642
5.88863
2.26325
-1.11471
-3.51283
-4.67254
-4.75921
-4.15146
-3.22708
-2.25291
-1.37601
-0.662295
-0.138962
0.147973
0.33025
0.486863
0.630596
0.763997
0.887521
1.00168
1.10698
1.2038
1.29241
1.37331
1.44733
1.51583
1.58082
1.64484
1.71062
1.78066
1.85681
1.93991
2.02978
2.12547
2.22575
2.32956
2.43644
2.5468
2.66184
2.78325
2.91268
3.05126
3.19911
3.35519
3.51726
3.68212
3.84592
4.00431
4.15301
4.28817
4.40647
4.50402
4.57605
4.61826
4.6277
4.60173
4.53843
4.43711
4.29862
4.12523
3.92037
3.68821
3.43497
3.16782
2.8925
2.61484
2.34133
2.07871
1.83324
1.60988
1.41163
1.23911
1.09074
0.963205
0.852308
0.753857
0.664577
0.582729
0.508305
0.442984
0.38963
0.351786
0.33288
0.335483
0.360728
0.407923
0.474417
0.555695
0.646256
0.73867
0.824212
0.894822
0.944343
0.969456
0.970196
0.94986
0.914286
0.870634
0.825982
0.786076
0.754044
0.730562
0.715486
0.708212
0.707463
0.71151
0.718193
0.724625
0.727853
0.725456
0.716181
0.700439
0.68046
0.660004
0.64368
0.636089
0.6403
0.657863
0.689766
0.736329
0.797432
0.872809
0.962343
1.06605
1.18377
1.31461
1.45636
1.60558
1.75623
1.89991
2.02765
2.13135
2.20487
2.24449
2.24872
2.21763
2.15213
2.05413
1.92765
1.77683
1.60605
1.41912
1.22594
1.04354
0.889532
0.778173
0.717006
0.705099
0.733481
0.787505
0.850251
0.905785
0.944387
0.962215
0.954645
0.918968
0.854223
0.7612
0.642492
0.502456
0.342913
-0.00500849
0
0.757765
2.46678
5.00617
7.86203
10.2029
11.1479
10.1419
7.25704
3.22988
-0.821725
-3.86405
-5.34472
-5.31837
-4.27781
-2.84073
-1.48406
-0.443772
0.240245
0.562185
0.669381
0.770715
0.872613
0.977521
1.0868
1.2003
1.31632
1.43143
1.54086
1.63988
1.72497
1.79473
1.85032
1.89517
1.9342
1.97278
2.01569
2.06604
2.12543
2.1947
2.2743
2.36456
2.46593
2.579
2.70434
2.84213
2.99189
3.15225
3.32108
3.49574
3.67347
3.85176
4.02855
4.20219
4.37119
4.53355
4.6867
4.82743
4.9516
5.0537
5.12639
5.16179
5.15359
5.09603
4.98485
4.81831
4.59814
4.33001
4.02317
3.68937
3.3418
2.99196
2.64751
2.31433
1.99672
1.69771
1.41951
1.16459
0.936495
0.73918
0.575282
0.446325
0.352442
0.291821
0.260529
0.252807
0.261822
0.280661
0.303292
0.325253
0.344047
0.358336
0.367411
0.370801
0.368091
0.358815
0.342627
0.31965
0.290835
0.258165
0.22464
0.193994
0.170238
0.157025
0.157301
0.173209
0.205959
0.255957
0.323008
0.407219
0.510573
0.637625
0.791151
0.956324
1.10154
1.19071
1.19622
1.11247
0.962791
0.794363
0.660933
0.600162
0.601842
0.632747
0.676268
0.722253
0.763422
0.796833
0.824035
0.84996
0.881043
0.923226
0.978934
1.04829
1.13048
1.22377
1.32574
1.43374
1.54519
1.65736
1.76575
1.86253
1.93851
1.98406
1.99197
1.96016
1.89254
1.79721
1.6831
1.55681
1.4227
1.28379
1.14169
0.998361
0.856797
0.720723
0.593916
0.479171
0.378407
0.292313
0.220551
0.162113
0.115646
0.0796135
0.0522772
0.0314816
0.0149364
0
-0.0154753
-0.034407
-0.0581589
-0.0868601
-0.123066
-0.355803
-0.176245
0.828276
2.79963
5.43182
8.0008
9.61905
9.60793
7.80417
4.64761
1.00112
-2.20761
-4.34174
-5.23581
-5.13228
-4.45167
-3.55736
-2.64265
-1.76698
-0.95643
-0.28335
0.061022
0.269643
0.450502
0.619197
0.776735
0.92079
1.04838
1.15662
1.2431
1.30742
1.35232
1.38385
1.41037
1.44086
1.48302
1.54049
1.61286
1.69866
1.79598
1.90237
2.01528
2.13257
2.25284
2.37561
2.50122
2.63063
2.76509
2.90565
3.05286
3.20656
3.36589
3.52948
3.69585
3.86365
4.03194
4.20004
4.36726
4.53202
4.69016
4.83234
4.94503
5.01209
5.01772
4.95035
4.80622
4.59132
4.32063
4.01493
3.69601
3.3814
3.07804
2.78806
2.51406
2.25779
2.02007
1.80105
1.60048
1.41798
1.25327
1.10635
0.977495
0.86706
0.775471
0.70329
0.649671
0.610459
0.579672
0.550926
0.518871
0.480565
0.436369
0.390091
0.348326
0.319126
0.309152
0.323062
0.363289
0.428633
0.517826
0.622251
0.727892
0.82109
0.891668
0.935011
0.952472
0.950023
0.935704
0.916803
0.897798
0.879637
0.861364
0.841163
0.817255
0.788654
0.755541
0.719249
0.681984
0.646457
0.615409
0.591573
0.578328
0.579018
0.596462
0.63273
0.688598
0.763092
0.853317
0.954674
1.06143
1.16748
1.26735
1.35649
1.43114
1.48852
1.5266
1.54384
1.53907
1.51152
1.46101
1.38822
1.29509
1.18506
1.06292
0.934423
0.805814
0.683106
0.571412
0.474728
0.395305
0.333074
0.286426
0.252822
0.229402
0.213432
0.202471
0.194314
0.18682
0.177795
0.16505
0.146648
0.12129
0.0886833
0.0496893
0
-0.0445093
0.318318
1.36642
3.18365
5.49725
7.67646
8.94026
8.69051
6.80497
3.7246
0.279913
-2.65475
-4.49666
-5.11423
-4.76179
-3.86717
-2.81175
-1.81553
-0.946722
-0.206131
0.362771
0.58572
0.720352
0.834428
0.939462
1.03827
1.13199
1.22032
1.30181
1.37407
1.43504
1.48415
1.52295
1.55503
1.58531
1.61897
1.6603
1.71138
1.7733
1.84697
1.93293
2.03147
2.14283
2.26722
2.40463
2.55464
2.71613
2.88698
3.06397
3.24294
3.41921
3.58821
3.74619
3.89085
4.02167
4.13982
4.24766
4.34788
4.44245
4.53138
4.61073
4.67159
4.70144
4.68674
4.61674
4.48683
4.30005
4.06644
3.80025
3.5164
3.22823
2.94297
2.66482
2.39726
2.14316
1.90501
1.6849
1.48456
1.3045
1.14418
1.00231
0.877335
0.768039
0.674421
0.597041
0.537042
0.495598
0.47318
0.468959
0.480554
0.504168
0.535069
0.56826
0.599205
0.624365
0.641519
0.649898
0.650124
0.643997
0.634194
0.623907
0.616473
0.614967
0.621858
0.638907
0.667027
0.706094
0.75498
0.811588
0.872703
0.933733
0.989009
1.03297
1.06099
1.07013
1.05979
1.03188
0.990643
0.942142
0.893392
0.851227
0.820818
0.806575
0.811842
0.838593
0.887423
0.957587
1.04705
1.15252
1.26932
1.39206
1.51499
1.63202
1.73736
1.82601
1.89401
1.93852
1.95779
1.95092
1.91777
1.85916
1.77717
1.67449
1.55505
1.42399
1.28739
1.15173
1.02309
0.906639
0.806225
0.723956
0.660118
0.613445
0.581034
0.558065
0.538715
0.517129
0.488157
0.447967
0.394414
0.327123
0.247292
0.157277
0.0602609
-0.0410201
-0.145896
0
0.558562
1.70838
3.50803
5.75629
7.93511
9.32678
9.29753
7.61651
4.61781
1.09018
-2.05382
-4.14146
-4.94552
-4.65802
-3.7034
-2.52577
-1.4499
-0.636144
-0.0973926
0.247286
0.529231
0.775557
0.997286
1.18565
1.33543
1.4463
1.52325
1.57587
1.6165
1.65773
1.70982
1.77726
1.85957
1.95451
2.059
2.16932
2.28179
2.39346
2.50244
2.608
2.71043
2.81079
2.91065
3.01196
3.11693
3.22801
3.34772
3.47847
3.62216
3.77979
3.95108
4.13419
4.32588
4.52152
4.71481
4.89708
5.05813
5.18964
5.28478
5.33861
5.34834
5.31329
5.23465
5.11482
4.95687
4.76405
4.54213
4.29715
4.0347
3.76
3.47822
3.19491
2.91595
2.64704
2.39318
2.15823
1.94468
1.7536
1.5847
1.43662
1.30715
1.19354
1.09284
1.00228
0.91986
0.84476
0.777636
0.720777
0.677581
0.651918
0.647051
0.664494
0.703183
0.759221
0.826312
0.896784
0.962976
1.01907
1.06161
1.08937
1.10339
1.10628
1.10115
1.09067
1.07644
1.05848
1.03583
1.00722
0.971865
0.930181
0.883982
0.836149
0.789846
0.747801
0.711421
0.680278
0.652821
0.627405
0.603356
0.581627
0.564807
0.556545
0.560666
0.579388
0.613243
0.66244
0.726704
0.804948
0.89535
0.995705
1.10351
1.21581
1.3295
1.4413
1.5473
1.6415
1.71513
1.76069
1.77105
1.74134
1.67119
1.56584
1.43561
1.29341
1.15136
1.01767
0.893537
0.779168
0.674369
0.578836
0.492762
0.416961
0.352543
0.300246
0.259297
0.228615
0.205936
0.188008
0.170649
0.149212
0.119213
0.0769098
0.0198356
-0.0527936
-0.139875
-0.238969
-0.359379
-0.406006
0
1.0966
2.94409
5.30368
7.62516
9.18489
9.34063
7.81512
4.86863
1.24582
-2.10999
-4.44069
-5.44543
-5.29909
-4.44515
-3.32664
-2.22879
-1.28076
-0.539236
-0.0814354
0.0320553
0.0995608
0.154297
0.201053
0.24096
0.275621
0.307019
0.337434
0.369341
0.405264
0.447591
0.498365
0.559075
0.630471
0.712647
0.805042
0.906485
1.01532
1.12955
1.24702
1.36562
1.4835
1.59932
1.71243
1.82307
1.93242
2.04253
2.15607
2.276
2.40509
2.54548
2.69831
2.86357
3.04011
3.22608
3.41915
3.617
3.81764
4.01909
4.21762
4.4031
4.55639
4.64908
4.65182
4.54674
4.33717
4.04874
3.72078
3.39272
3.08933
2.80976
2.54935
2.30881
2.08924
1.89099
1.71357
1.55557
1.41432
1.28609
1.16681
1.05276
0.941398
0.831877
0.725319
0.624446
0.532924
0.454461
0.391987
0.347136
0.320083
0.309705
0.313919
0.32999
0.354718
0.38511
0.41835
0.451712
0.482791
0.509618
0.530702
0.544984
0.551694
0.550185
0.539827
0.520264
0.491627
0.454953
0.41206
0.366925
0.325491
0.294319
0.279297
0.284368
0.310635
0.356118
0.416226
0.48479
0.555366
0.622682
0.683783
0.737644
0.784598
0.826422
0.866011
0.906964
0.953151
1.00829
1.07555
1.15716
1.25417
1.36622
1.49144
1.62658
1.76733
1.90875
2.04585
2.17412
2.2898
2.38996
2.47214
2.53411
2.57408
2.59117
2.58498
2.55597
2.50588
2.43796
2.35675
2.26753
2.17545
2.08457
1.99703
1.91329
1.83235
1.75216
1.67024
1.58421
1.49212
1.39251
1.28424
1.16624
1.03746
0.896836
0.743572
0.577506
0.399377
0.208737
-0.0414602
0
0.634524
2.02979
4.18549
6.80826
9.27183
10.7584
10.5848
8.55382
5.11422
1.20045
-2.17031
-4.31063
-5.06013
-4.70088
-3.7042
-2.49464
-1.34087
-0.368026
0.384711
0.845306
1.05409
1.22933
1.38965
1.53596
1.66829
1.78652
1.89018
1.97922
2.05333
2.11228
2.15632
2.18656
2.20529
2.21606
2.22366
2.23381
2.25241
2.28503
2.33666
2.41083
2.50884
2.62936
2.76851
2.92103
3.07851
3.2323
3.37574
3.50554
3.62242
3.73057
3.83637
3.94658
4.06661
4.19881
4.34273
4.49666
4.65795
4.82358
4.99051
5.15472
5.30839
5.43797
5.52459
5.54505
5.47903
5.31784
5.07024
4.76191
4.42809
4.10244
3.80053
3.51881
3.25453
3.00635
2.77197
2.54909
2.3363
2.13345
1.94182
1.76375
1.60207
1.45941
1.33747
1.23697
1.15775
1.09682
1.0475
1.00252
0.955763
0.903761
0.84671
0.788532
0.736026
0.697325
0.679473
0.686868
0.730406
0.822654
0.955136
1.09308
1.19833
1.24147
1.2121
1.12292
1.00469
0.893474
0.815788
0.773266
0.749543
0.73512
0.724245
0.713082
0.700545
0.688093
0.678702
0.675522
0.680348
0.693276
0.714225
0.743056
0.779962
0.825808
0.882109
0.950623
1.03268
1.1285
1.23681
1.35498
1.47764
1.59561
1.6969
1.77018
1.80632
1.79993
1.75043
1.66228
1.54424
1.40766
1.26441
1.12464
0.993954
0.874652
0.768349
0.676223
0.598545
0.534789
0.483806
0.443876
0.412501
0.386672
0.363462
0.34042
0.315846
0.288851
0.259196
0.226957
0.192175
0.154679
0.114027
0.0691039
-0.00463753
0
0.560405
1.97566
4.23671
6.89792
9.15215
10.1258
9.27897
6.69511
3.08164
-0.539716
-3.27792
-4.70229
-4.89904
-4.27913
-3.30148
-2.28325
-1.35921
-0.550256
0.140176
0.58172
0.86477
1.10637
1.32476
1.52014
1.69031
1.83494
1.95513
2.05314
2.13234
2.19699
2.25179
2.30142
2.3501
2.40122
2.45716
2.51951
2.58953
2.66831
2.75676
2.85557
2.96497
3.08457
3.21333
3.34965
3.49174
3.63807
3.78777
3.94079
4.09783
4.2599
4.42765
4.60075
4.77733
4.95375
5.12375
5.27918
5.41181
5.51438
5.58153
5.6102
5.59938
5.54945
5.46144
5.33651
5.17775
4.98898
4.77346
4.53444
4.2759
4.00283
3.72093
3.43625
3.15493
2.88297
2.62641
2.39205
2.18489
2.00868
1.86559
1.75599
1.67839
1.62964
1.60537
1.60059
1.6102
1.62894
1.65257
1.67764
1.7014
1.7218
1.7376
1.74844
1.75474
1.75761
1.75854
1.75906
1.76035
1.76303
1.76694
1.77115
1.77432
1.77519
1.77305
1.76797
1.76078
1.75275
1.74512
1.73865
1.73349
1.72923
1.72543
1.72206
1.71997
1.72085
1.72685
1.73983
1.76066
1.78928
1.82248
1.85436
1.87891
1.89226
1.89457
1.89076
1.88973
1.90219
1.94904
2.05621
2.20288
2.34572
2.43691
2.44381
2.36076
2.20829
2.02168
1.8359
1.67401
1.53356
1.40678
1.28957
1.18013
1.07787
0.983024
0.896514
0.819515
0.752928
0.697055
0.650885
0.610261
0.567717
0.514603
0.442989
0.347654
0.227597
0.0865947
-0.0776252
-0.272446
0
0.980374
2.76617
5.17198
7.67852
9.54646
10.0744
8.89744
6.17435
2.5606
-1.02391
-3.72525
-5.03694
-4.924
-3.76432
-2.14845
-0.638793
0.418695
0.947886
1.06606
1.18453
1.30447
1.4269
1.55227
1.68026
1.80972
1.93883
2.06533
2.18689
2.30131
2.40673
2.50176
2.5855
2.65773
2.7189
2.77022
2.81362
2.85179
2.88798
2.92581
2.96892
3.0207
3.08389
3.16046
3.25149
3.35706
3.47633
3.60769
3.74896
3.89763
4.051
4.20635
4.36094
4.51182
4.65562
4.78835
4.9051
4.99995
5.06682
5.10002
5.09412
5.04439
4.94745
4.80177
4.60817
4.37013
69
232
400
568
726
887
1051
1225
1390
1551
1716
1880
2041
2196
2360
2529
2702
2867
3033
3202
3370
3532
3690
3603
3556
3595
3713
0
0
0
0
0
0
0
0
0
0
0
0
0
0
0
0
0
0
0
0
0
0
0
0
0
0
0
0
0
0
0
0
0
0
0
0
0
0
0
0
0
0
0
0
0
0
0
0
0
0
0
0
0
0
0
0
0
0
0
0
0
0
0
0
0
0
0
0
0
0
0
0
0
0
0
0
0
0
0
0
0
0
0
0
0
0
0
0
0
0
0
0
0
0
0
0
0
0
0
0
0
0
0
0
0
0
0
0
0
0
0
0
0
0
0
0
0
0
0
0
0
0
0
0
0
0
0
0
0
0
0
0
0
0
0
0
0
0
0
0
0
0
0
0
0
0
0
0
0
0
0
0
0
0
0
0
0
0
0
0
0
0
0
0
0
0
0
0
0
0
0
0
0
0
0
0
0
0
0
0
0
0
0
0
0
0
0
0
0
0
0
0
0
0
0
0
0
0
0
0
0
0
0
0
0
0
0
0
0
0
0
0
0
0
0
0
0
0
0
0
0
0
0
0
0
0
0
0
0
0
0
0
0
0
0
0
0
0
0
0
0
0
0
0
0
0
0
0
0
0
0
0
0
0
0
0
0
0
0
0
0
0
0
0
0
0
0
0
0
0
0
0
0
0
0
0
0
0
0
0
0
0
0
0
0
0
0
0
0
0
0
0
0
0
0
0
0
0
0
0
0
0
0
0
0
0
0
0
0
0
0
0
0
0
0
0
0
0
0
0
0
0
0
0
0
0
0
0
0
0
0
0
0
0
0
0
0
0
0
0
0
0
0
0
0
0
0
0
0
0
0
0
0
0
0
0
0
0
0
0
0
0
0
0
0
0
0
0
0
0
0
0
0
0
0
0
0
0
0
0
0
0
0
0
0
0
0
0
0
0
0
0
0
0
0
0
0
0
0
0
0
0
0
0
0
0
0
0
0
0
0
0
0
0
0
0
0
0
0
0
0
0
0
0
0
0
0
0
0
0
0
0
0
0
0
0
0
0
0
0
0
0
0
0
0
0
0
0
0
0
0
0
0
0
0
0
0
0
0
0
0
0
0
0
0
0
0
0
0
0
0
0
0
0
0
0
0
0
0
0
0
0
0
0
0
0
0
0
0
0
0
0
0
0
0
0
0
0
0
0
0
0
0
0
0
0
0
0
0
0
0
0
0
0
0
0
0
0
0
0
0
0
0
0
0
0
0
0
0
0
0
0
0
0
0
0
0
0
0
0
0
0
0
0
0
0
0
0
0
0
0
0
0
0
0
0
0
0
0
0
0
0
0
0
0
0
0
0
0
0
0
0
0
0
0
0
0
0
0
0
0
0
0
0
0
0
0
0
0
0
0
0
0
0
0
0
0
0
0
0
0
0
0
0
0
0
0
0
0
0
0
0
0
0
0
0
0
0
0
0
0
0
0
0
0
0
0
0
0
0
0
0
0
0
0
0
0
0
0
0
0
0
0
0
0
0
0
0
0
0
0
0
0
0
0
0
0
0
0
0
0
0
0
0
0
0
0
0
0
0
0
0
0
0
0
0
0
0
0
0
0
0
0
0
0
0
0
0
0
0
0
0
0
0
0
0
0
0
0
0
0
0
0
0
0
0
0
0
0
0
0
0
0
0
0
0
0
0
0
0
0
0
0
0
0
0
0
0
0
0
0
0
0
0
0
0
0
0
0
0
0
0
0
0
0
0
0
0
0
0
0
0
0
0
0
0
0
0
0
0
0
0
0
0
0
0
0
0
0
0
0
0
0
0
0
0
0
0
0
0
0
0
0
0
0
0
0
0
0
0
0
0
0
0
0
0
0
0
0
0
0
0
0
0
0
0
0
0
0
0
0
0
0
0
0
0
0
0
0
0
0
0
0
0
0
0
0
0
0
0
0
0
0
0
0
0
0
0
0
0
0
0
0
0
0
0
0
0
0
0
0
0
0
0
0
0
0
0
0
0
0
0
0
0
0
0
0
0
0
0
0
0
0
0
0
0
0
0
0
0
0
0
0
0
0
0
0
0
0
0
0
0
0
0
0
0
0
0
0
0
0
0
0
0
0
0
0
0
0
0
0
0
0
0
0
0
0
0
0
0
0
0
0
0
0
0
0
0
0
0
0
0
0
0
0
0
0
0
0
0
0
0
0
0
0
0
0
0
0
0
0
0
0
0
0
0
0
0
0
0
0
0
0
0
0
0
0
0
0
0
0
0
0
0
0
0
0
0
0
0
0
0
0
0
0
0
0
0
0
0
0
0
0
0
0
0
0
0
0
0
0
0
0
0
0
0
0
0
0
0
0
0
0
0
0
0
0
0
0
0
0
0
0
0
0
0
0
0
0
0
0
0
0
0
0
0
0
0
0
0
0
0
0
0
0
0
0
0
0
0
0
0
0
0
0
0
0
0
0
0
0
0
0
0
0
0
0
0
0
0
0
0
0
0
0
0
0
0
0
0
0
0
0
0
0
0
0
0
0
0
0
0
0
0
0
0
0
0
0
0
0
0
0
0
0
0
0
0
0
0
0
0
0
0
0
0
0
0
0
0
0
0
0
0
0
0
0
0
0
0
0
0
0
0
0
0
0
0
0
0
0
0
0
0
0
0
0
0
0
0
0
0
0
0
0
0
0
0
0
0
0
0
0
0
0
0
0
0
0
0
0
0
0
0
0
0
0
0
0
0
0
0
0
0
0
0
0
0
0
0
0
0
0
0
0
0
0
0
0
0
0
0
0
0
0
0
0
0
0
0
0
0
0
0
0
0
0
0
0
0
0
0
0
0
0
0
0
0
0
0
0
0
0
0
0
0
0
0
0
0
0
0
0
0
0
0
0
0
0
0
0
0
0
0
0
0
0
0
0
0
0
0
0
0
0
0
0
0
0
0
0
0
0
0
0
0
0
0
0
0
0
0
0
0
0
0
0
0
0
0
0
0
0
0
0
0
0
0
0
0
0
0
0
0
0
0
0
0
0
0
0
0
0
0
0
0
0
0
0
0
0
0
0
0
0
0
0
0
0
0
0
0
0
0
0
0
0
0
0
0
0
0
0
0
0
0
0
0
0
0
0
0
0
0
0
0
0
0
0
0
0
0
0
0
0
0
0
0
0
0
0
0
0
0
0
0
0
0
0
0
0
0
0
0
0
0
0
0
0
0
0
0
0
0
0
0
0
0
0
0
0
0
0
0
0
0
0
0
0
0
0
0
0
0
0
0
0
0
0
0
0
0
0
0
0
0
0
0
0
0
0
0
0
0
0
0
0
0
0
0
0
0
0
0
0
0
0
0
0
0
0
0
0
0
0
0
0
0
0
0
0
0
0
0
0
0
0
0
0
0
0
0
0
0
0
0
0
0
0
0
0
0
0
0
0
0
0
0
0
0
0
0
0
0
0
0
0
0
0
0
0
0
0
0
0
0
0
0
0
0
0
0
0
0
0
0
0
0
0
0
0
0
0
0
0
0
0
0
0
0
0
0
0
0
0
0
0
0
0
0
0
0
0
0
0
0
0
0
0
0
0
0
0
0
0
0
0
0
0
0
0
0
0
0
0
0
0
0
0
0
0
0
0
0
0
0
0
0
0
0
0
0
0
0
0
0
0
0
0
0
0
0
0
0
0
0
0
0
0
0
0
0
0
0
0
0
0
0
0
0
0
0
0
0
0
0
0
0
0
0
0
0
0
0
0
0
0
0
0
0
0
0
0
0
0
0
0
0
0
0
0
0
0
0
0
0
0
0
0
0
0
0
0
0
0
0
0
0
0
0
0
0
0
0
0
0
0
0
0
0
0
0
0
0
0
0
0
0
0
0
0
0
0
0
0
0
0
0
0
0
0
0
0
0
0
0
0
0
0
0
0
0
0
0
0
0
0
0
0
0
0
0
0
0
0
0
0
0
0
0
0
0
0
0
0
0
0
0
0
0
0
0
0
0
0
0
0
0
0
0
0
0
0
0
0
0
0
0
0
0
0
0
0
0
0
0
0
0
0
0
0
0
0
0
0
0
0
0
0
0
0
0
0
0
0
0
0
0
0
0
0
0
0
0
0
0
0
0
0
0
0
0
0
0
0
0
0
0
0
0
0
0
0
0
0
0
0
0
0
0
0
0
0
0
0
0
0
0
0
0
0
0
0
0
0
0
0
0
0
0
0
0
0
0
0
0
0
0
0
0
0
0
0
0
0
0
0
0
0
0
0
0
0
0
0
0
0
0
0
0
0
0
0
0
0
0
0
0
0
0
0
0
0
0
0
0
0
0
0
0
0
0
0
0
0
0
0
0
0
0
0
0
0
0
0
0
0
0
0
0
0
0
0
0
0
0
0
0
0
0
0
0
0
0
0
0
0
0
0
0
0
0
0
0
0
0
0
0
0
0
0
0
0
0
0
0
0
0
0
0
0
0
0
0
0
0
0
0
0
0
0
0
0
0
0
0
0
0
0
0
0
0
0
0
0
0
0
0
0
0
0
0
0
0
0
0
0
0
0
0
0
0
0
0
0
0
0
0
0
0
0
0
0
0
0
0
0
0
0
0
0
0
0
0
0
0
0
0
0
0
0
0
0
0
0
0
0
0
0
0
0
0
0
0
0
0
0
0
0
0
0
0
0
0
0
0
0
0
0
0
0
0
0
0
0
0
0
0
0
0
0
0
0
0
0
0
0
0
0
0
0
0
0
0
0
0
0
0
0
0
0
0
0
0
0
0
0
0
0
0
0
0
0
0
0
0
0
0
0
0
0
0
0
0
0
0
0
0
0
0
0
0
0
0
0
0
0
0
0
0
0
0
0
0
0
0
0
0
0
0
0
0
0
0
0
0
0
0
0
0
0
0
0
0
0
0
0
0
0
0
0
0
0
0
0
0
0
0
0
0
0
0
0
0
0
0
0
0
0
0
0
0
0
0
0
0
0
0
0
0
0
0
0
0
0
0
0
0
0
0
0
0
0
0
0
0
0
0
0
0
0
0
0
0
0
0
0
0
0
0
0
0
0
0
0
0
0
0
0
0
0
0
0
0
0
0
0
0
0
0
0
0
0
0
0
0
0
0
0
0
0
0
0
0
0
0
0
0
0
0
0
0
0
0
0
0
0
0
0
0
0
0
0
0
0
0
0
0
0
0
0
0
0
0
0
0
0
0
0
0
0
0
0
0
0
0
0
0
0
0
0
0
0
0
0
0
0
0
0
0
0
0
0
0
0
0
0
0
0
0
0
0
0
0
0
0
0
0
0
0
0
0
0
0
0
0
0
0
0
0
0
0
0
0
0
0
0
0
0
0
0
0
0
0
0
0
0
0
0
0
0
0
0
0
0
0
0
0
0
0
0
0
0
0
0
0
0
0
0
0
0
0
0
0
0
0
0
0
0
0
0
0
0
0
0
0
0
0
0
0
0
0
0
0
0
0
0
0
0
0
0
0
0
0
0
0
0
0
0
0
0
0
0
0
0
0
0
0
0
0
0
0
0
0
0
0
0
0
0
0
0
0
0
0
0
0
0
0
0
0
0
0
0
0
0
0
0
0
0
0
0
0
0
0
0
0
0
0
0
0
0
0
0
0
0
0
0
0
0
0
0
0
0
0
0
0
0
0
0
0
0
0
0
0
0
0
0
0
0
0
0
0
0
0
0
0
0
0
0
0
0
0
0
0
0
0
0
0
0
0
0
0
0
0
0
0
0
0
0
0
0
0
0
0
0
0
0
0
0
0
0
0
0
0
0
0
0
0
0
0
0
0
0
0
0
0
0
0
0
0
0
0
0
0
0
0
0
0
0
0
0
0
0
0
0
0
0
0
0
0
0
0
0
0
0
0
0
0
0
0
0
0
0
0
0
0
0
0
0
0
0
0
0
0
0
0
0
0
0
0
0
0
0
0
0
0
0
0
0
0
0
0
0
0
0
0
0
0
0
0
0
0
0
0
0
0
0
0
0
0
0
0
0
0
0
0
0
0
0
0
0
0
0
0
0
0
0
0
0
0
0
0
0
0
0
0
0
0
0
0
0
0
0
0
0
0
0
0
0
0
0
0
0
0
0
0
0
0
0
0
0
0
0
0
0
0
0
0
0
0
0
0
0
0
0
0
0
0
0
0
0
0
0
0
0
0
0
0
0
0
0
0
0
0
0
0
0
0
0
0
0
0
0
0
0
0
0
0
0
0
0
0
0
0
0
0
0
0
0
0
0
0
0
0
0
0
0
0
0
0
0
0
0
0
0
0
0
0
0
0
0
0
0
0
0
0
0
0
0
0
0
0
0
0
0
0
0
0
0
0
0
0
0
0
0
0
0
0
0
0
0
0
0
0
0
0
0
0
0
0
0
0
0
0
0
0
0
0
0
0
0
0
0
0
0
0
0
0
0
0
0
0
0
0
0
0
0
0
0
0
0
0
0
0
0
0
0
0
0
0
0
0
0
0
0
0
0
0
0
0
0
0
0
0
0
0
0
0
0
0
0
0
0
0
0
0
0
0
0
0
0
0
0
0
0
0
0
0
0
0
0
0
0
0
0
0
0
0
0
0
0
0
0
0
0
0
0
0
0
0
0
0
0
0
0
0
0
0
0
0
0
0
0
0
0
0
0
0
0
0
0
0
0
0
0
0
0
0
0
0
0
0
0
0
0
0
0
0
0
0
0
0
0
0
0
0
0
0
0
0
0
0
0
0
0
0
0
0
0
0
0
0
0
0
0
0
0
0
0
0
0
0
0
0
0
0
0
0
0
0
0
0
0
0
0
0
0
0
0
0
0
0
0
0
0
0
0
0
0
0
0
0
0
0
0
0
0
0
0
0
0
0
0
0
0
0
0
0
0
0
0
0
0
0
0
0
0
0
0
0
0
0
0
0
0
0
0
0
0
0
0
0
0
0
0
0
0
0
0
0
0
0
0
0
0
0
0
0
0
0
0
0
0
0
0
0
0
0
0
0
0
0
0
0
0
0
0
0
0
0
0
0
0
0
0
0
0
0
0
0
0
0
0
0
0
0
0
0
0
0
0
0
0
0
0
0
0
0
0
0
0
0
0
0
0
0
0
0
0
0
0
0
0
0
0
0
0
0
0
0
0
0
0
0
0
0
0
0
0
0
0
0
0
0
0
0
0
0
0
0
0
0
0
0
0
0
0
0
0
0
0
0
0
0
0
0
0
0
0
0
0
0
0
0
0
0
0
0
0
0
0
0
0
0
0
0
0
0
0
0
0
0
0
0
0
0
0
0
0
0
0
0
0
0
0
0
0
0
0
0
0
0
0
0
0
0
0
0
0
0
0
0
0
0
0
0
0
0
0
0
0
0
0
0
0
0
0
0
0
0
0
0
0
0
0
0
0
0
0
0
0
0
0
0
0
0
0
0
0
0
0
0
0
0
0
0
0
0
0
0
0
0
0
0
0
0
0
0
0
0
0
0
0
0
0
0
0
0
0
0
0
0
0
0
0
0
0
0
0
0
0
0
0
0
0
0
0
0
0
0
0
0
0
0
0
0
0
0
0
0
0
0
0
0
0
0
0
0
0
0
0
0
0
0
0
0
0
0
0
0
0
0
0
0
0
0
0
0
0
0
0
0
0
0
0
0
0
0
0
0
0
0
0
0
0
0
0
0
0
0
0
0
0
0
0
0
0
0
0
0
0
0
0
0
0
0
0
0
0
0
0
0
0
0
0
0
0
0
0
0
0
0
0
0
0
0
0
0
0
0
0
0
0
0
0
0
0
0
0
0
0
0
0
0
0
0
0
0
0
0
0
0
0
0
0
0
0
0
0
0
0
0
0
0
0
0
0
0
0
0
0
0
0
0
0
0
0
0
0
0
0
0
0
0
0
0
0
0
0
0
0
0
0
0
0
0
0
0
0
0
0
0
0
0
0
0
0
0
0
0
0
0
0
0
0
0
0
0
0
0
0
0
0
0
0
0
0
0
0
0
0
0
0
0
0
0
0
0
0
0
0
0
0
0
0
0
0
0
0
0
0
0
0
0
0
0
0
0
0
0
0
0
0
0
0
0
0
0
0
0
0
0
0
0
0
0
0
0
0
0
0
0
0
0
0
0
0
0
0
0
0
0
0
0
0
0
0
0
0
0
0
0
0
0
0
0
0
0
0
0
0
0
0
0
0
0
0
0
0
0
0
0
0
0
0
0
0
0
0
0
0
0
0
0
0
0
0
0
0
0
0
0
0
0
0
0
0
0
0
0
0
0
0
0
0
0
0
0
0
0
0
0
0
0
0
0
0
0
0
0
0
0
0
0
0
0
0
0
0
0
0
0
0
0
0
0
0
0
0
0
0
0
0
0
0
0
0
0
0
0
0
0
0
0
0
0
0
0
0
0
0
0
0
0
0
0
0
0
0
0
0
0
0
0
0
0
0
0
0
0
0
0
0
0
0
0
0
0
0
0
0
0
0
0
0
0
0
0
0
0
0
0
0
0
0
0
