0.919745
1.15535
1.37534
1.5766
1.75624
1.9133
2.04845
2.16378
2.26225
2.34719
2.42179
2.48869
2.54984
2.6065
2.65935
2.70877
2.7551
2.79889
2.84109
2.88307
2.92656
2.97353
3.02597
3.08577
3.15457
3.2337
3.32418
3.42662
3.54114
3.66723
3.80357
3.94799
4.09756
4.24888
4.39853
4.54353
4.68175
4.81211
4.93459
5.04993
5.15932
5.26406
5.36493
5.46159
5.55114
5.62618
5.6769
5.69137
5.65898
5.57448
5.44086
5.2694
5.07629
4.87742
4.68317
4.49489
4.31141
4.13243
3.95793
3.78869
3.62659
3.47443
3.33541
3.21269
3.10893
3.02593
2.96449
2.92445
2.90521
2.90701
2.93009
2.96953
3.01276
3.04598
3.05696
3.03811
2.9886
2.91484
2.829
2.74609
2.68035
2.63721
2.61686
2.62894
2.6844
2.77783
2.87841
2.95128
2.96724
2.91275
2.79683
2.6511
2.52077
2.44894
2.48301
2.61278
2.77593
2.89509
2.9161
2.83338
2.68959
2.55154
2.47777
2.49535
2.55648
2.64574
2.75863
2.88062
2.98871
3.05749
3.05998
2.97814
2.81725
2.61199
2.41599
2.27921
2.22224
2.2092
2.21759
2.24286
2.28102
2.3291
2.38335
2.43446
2.46992
2.47722
2.44807
2.38249
2.29047
2.1897
2.09997
2.03661
1.99954
1.98523
1.98948
2.00661
2.03141
2.05974
2.08971
2.12062
2.15209
2.18355
2.21379
2.24018
2.25854
2.26433
2.25349
2.22376
2.17589
2.11414
2.04595
1.98063
1.92758
1.89254
1.87852
1.89444
1.95018
2.03893
2.13193
2.19639
2.20388
2.13882
2.0048
1.82599
1.64244
1.49976
1.42567
1.41191
1.45883
1.55519
1.68084
1.81201
1.92729
2.01817
2.08425
2.1239
2.1376
2.12662
2.09203
2.03609
1.96064
1.86682
1.75727
1.63646
1.51076
1.38775
1.27515
1.1798
1.10884
1.06799
1.05805
1.06955
1.08404
1.08197
1.04662
0.967135
0.840201
0.67
0.466654
0.243503
0.0143677
-0.195415
0
0.568033
1.51641
2.70163
3.82774
4.54752
4.62069
4.02916
2.97564
1.77891
0.740967
0.0602098
-0.189667
0.0144637
0.228439
0.421604
0.575466
0.679564
0.733811
0.747677
0.736508
0.71642
0.699706
0.69063
0.687855
0.689598
0.694166
0.699847
0.705314
0.709841
0.71331
0.716096
0.718884
0.722509
0.727855
0.735835
0.747447
0.763945
0.786825
0.817891
0.859221
0.912939
0.980812
1.06375
1.16136
1.27185
1.39269
1.51917
1.64648
1.7708
1.88989
2.0031
2.11084
2.21311
2.30856
2.39446
2.46636
2.51927
2.54908
2.55363
2.53299
2.48894
2.42396
2.34028
2.24054
2.1269
2.0011
1.86476
1.71978
1.56868
1.41472
1.26162
1.11315
0.972683
0.842862
0.725301
0.620508
0.528223
0.447432
0.375773
0.31091
0.251294
0.197752
0.153657
0.124213
0.115397
0.131442
0.172563
0.233908
0.30623
0.378114
0.438927
0.481475
0.503462
0.507441
0.499424
0.486724
0.475663
0.469297
0.468678
0.472627
0.477723
0.479924
0.47597
0.464541
0.446859
0.426586
0.409125
0.40053
0.405474
0.429726
0.48713
0.593245
0.731094
0.860605
0.937482
0.928849
0.82865
0.664975
0.492853
0.37241
0.341012
0.3666
0.413228
0.468553
0.521322
0.564075
0.594569
0.615527
0.632875
0.653172
0.681176
0.717156
0.758793
0.803266
0.846855
0.885642
0.915654
0.9334
0.93714
0.926668
0.903552
0.871296
0.835236
0.802017
0.778616
0.771046
0.781974
0.812114
0.859597
0.920285
0.986014
1.04815
1.09937
1.13499
1.15355
1.15658
1.14771
1.1316
1.11288
1.09494
1.0797
1.06824
1.06088
1.05755
1.05812
1.06268
1.07153
1.08508
1.10347
1.12631
1.15255
1.17999
1.20606
1.2284
1.24535
1.25624
1.26127
1.26115
1.25671
1.24882
1.23822
1.22585
1.21317
1.20238
1.1963
1.19794
1.20992
1.23352
1.26846
1.31355
1.36632
1.42342
1.48109
1.53568
1.58403
1.6237
1.65304
1.67119
1.67802
1.67402
1.66019
1.63803
1.6094
1.57644
1.54135
1.50613
1.47228
1.44058
1.411
1.38258
1.35364
1.32191
1.28477
1.23937
1.18276
1.11197
1.02422
0.914195
0.762052
0.554756
0.304363
0.0284527
-0.257226
0
0.755091
1.87262
3.12821
4.24637
4.96584
5.11084
4.65243
3.73128
2.61753
1.61449
0.9507
0.710989
0.876691
1.09739
1.30064
1.47529
1.61084
1.70285
1.75347
1.77063
1.76579
1.75096
1.73592
1.72609
1.72237
1.72493
1.73349
1.74802
1.76901
1.79742
1.83419
1.87981
1.93369
1.99447
2.06111
2.13237
2.20688
2.28336
2.35927
2.43141
2.49725
2.55647
2.61209
2.67048
2.73978
2.8271
2.93574
3.0614
3.19608
3.3327
3.46378
3.58291
3.6857
3.77004
3.83546
3.88219
3.91114
3.9226
3.91577
3.88893
3.83977
3.76601
3.66603
3.53944
3.38892
3.21863
3.03283
2.83671
2.63623
2.4377
2.24723
2.0705
1.91231
1.77886
1.68361
1.6338
1.60913
1.5808
1.52103
1.41399
1.26311
1.09082
0.930305
0.812691
0.744044
0.709577
0.706593
0.726063
0.756975
0.788714
0.81283
0.823932
0.819798
0.801001
0.770366
0.732881
0.693714
0.657737
0.629238
0.611221
0.604783
0.608704
0.620869
0.638275
0.657722
0.676467
0.692638
0.705581
0.71585
0.724991
0.735145
0.74853
0.766858
0.790827
0.819817
0.851768
0.883902
0.913018
0.936058
0.950588
0.955099
0.949122
0.933183
0.908799
0.878224
0.844222
0.810046
0.779878
0.757856
0.747362
0.750242
0.766239
0.792873
0.825933
0.86046
0.891959
0.917491
0.935994
0.948206
0.956064
0.961879
0.967592
0.974205
0.982051
0.990915
1.00024
1.00943
1.01812
1.02622
1.03382
1.04105
1.04776
1.05331
1.05664
1.05648
1.05186
1.04252
1.02918
1.01334
0.996776
0.980723
0.965121
0.947456
0.9232
0.887053
0.834624
0.763986
0.676599
0.577369
0.473924
0.375231
0.288459
0.220498
0.176533
0.159417
0.16927
0.204941
0.267157
0.346162
0.425916
0.49226
0.536975
0.560221
0.570143
0.579506
0.600525
0.640022
0.694044
0.755198
0.817059
0.873289
0.919276
0.953083
0.975449
0.988914
0.99639
0.999423
0.997329
0.9872
0.965048
0.928162
0.877238
0.817298
0.75686
0.70563
0.671564
0.657142
0.663162
0.683093
0.706428
0.721623
0.718523
0.690011
0.632695
0.546798
0.435581
0.304574
0.161556
0.0122269
0
0.407853
1.28614
2.49872
3.70877
4.5277
4.70903
4.25657
3.38402
2.37846
1.47707
0.824126
0.48927
0.534974
0.701156
0.851588
0.986198
1.09885
1.18664
1.25013
1.2929
1.32071
1.34046
1.35913
1.38226
1.41376
1.4565
1.51218
1.58129
1.66322
1.75673
1.86043
1.97324
2.09481
2.22404
2.3542
2.47194
2.56153
2.60988
2.61286
2.57969
2.53286
2.50286
2.51912
2.59663
2.72013
2.87161
3.03977
3.21593
3.39146
3.55776
3.70737
3.83522
3.9386
4.01692
4.07116
4.10309
4.11442
4.10619
4.0783
4.03021
3.96042
3.86693
3.74849
3.60528
3.4395
3.25559
3.06005
2.86004
2.66273
2.47527
2.30272
2.14637
2.0048
1.87519
1.75483
1.64228
1.53782
1.44307
1.35998
1.28831
1.22742
1.17648
1.13339
1.09541
1.06013
1.02626
0.994017
0.965187
0.942578
0.929909
0.933379
0.956872
0.987868
1.00558
0.98839
0.922578
0.809195
0.665825
0.522091
0.410332
0.361237
0.415844
0.53858
0.666759
0.741613
0.73351
0.650134
0.52668
0.406211
0.321852
0.276993
0.255455
0.248663
0.253619
0.26846
0.288956
0.309048
0.323341
0.328416
0.323853
0.312415
0.299172
0.289811
0.288781
0.297207
0.313006
0.334485
0.359788
0.38721
0.415558
0.444198
0.472824
0.501089
0.528219
0.552752
0.572522
0.585018
0.587871
0.579432
0.559344
0.528919
0.49125
0.450943
0.413491
0.384353
0.367755
0.366119
0.381177
0.410824
0.448833
0.48757
0.519664
0.539439
0.543788
0.53239
0.507396
0.472785
0.433811
0.395476
0.36186
0.336224
0.320709
0.315914
0.321428
0.336352
0.358917
0.385508
0.411443
0.432875
0.447791
0.456549
0.461672
0.466888
0.47569
0.490002
0.509242
0.531228
0.553253
0.572919
0.588958
0.601487
0.611644
0.620804
0.629753
0.638179
0.644779
0.647465
0.643755
0.631243
0.608077
0.573378
0.527583
0.472688
0.412248
0.350869
0.293769
0.246016
0.211799
0.19681
0.203837
0.226206
0.253731
0.275573
0.283091
0.271719
0.241335
0.19531
0.138843
0.0774527
0.0158371
0
0.268496
0.942382
2.00357
3.2038
4.15175
4.50353
4.13891
3.2147
2.06857
1.0438
0.34628
0.00868988
0.0306421
0.181497
0.332033
0.473342
0.597409
0.698657
0.77536
0.830389
0.87082
0.906305
0.946584
0.998869
1.06459
1.14027
1.22225
1.30492
1.38192
1.4479
1.4997
1.53676
1.56108
1.57647
1.58762
1.59911
1.61474
1.63686
1.6666
1.70523
1.75413
1.8148
1.88891
1.97803
2.08334
2.20484
2.34172
2.49216
2.65309
2.82065
2.98915
3.15063
3.29646
3.41921
3.51333
3.57578
3.6061
3.60616
3.57933
3.52959
3.46051
3.3746
3.27337
3.15748
3.02704
2.88178
2.72129
2.54588
2.35716
2.15822
1.95354
1.74864
1.5496
1.3623
1.19159
1.0415
0.915994
0.815027
0.730617
0.652669
0.571913
0.482749
0.385075
0.284466
0.19066
0.114909
0.0651838
0.0453821
0.0724901
0.17027
0.333798
0.513585
0.659415
0.731792
0.712208
0.609414
0.45698
0.30111
0.183262
0.119313
0.0892124
0.0774597
0.077947
0.0890896
0.110464
0.142574
0.188071
0.254758
0.356331
0.494325
0.641252
0.760464
0.819408
0.802017
0.714932
0.585228
0.451177
0.350309
0.302078
0.293936
0.311678
0.34786
0.398062
0.458222
0.523838
0.590213
0.653002
0.708563
0.754108
0.787728
0.808122
0.814796
0.808164
0.789437
0.760676
0.72477
0.68526
0.64595
0.61037
0.581286
0.560282
0.547285
0.54085
0.538602
0.537952
0.536959
0.534877
0.532338
0.531121
0.533561
0.541763
0.556838
0.578745
0.60541
0.632788
0.655989
0.670416
0.672754
0.661576
0.637463
0.602682
0.560601
0.515082
0.47001
0.428643
0.393465
0.36654
0.34977
0.345997
0.359197
0.385627
0.410988
0.418278
0.394346
0.336264
0.25409
0.167991
0.100447
0.0670803
0.0630032
0.0821318
0.114833
0.151776
0.187859
0.223816
0.264914
0.317568
0.385593
0.466084
0.552476
0.639522
0.722084
0.795525
0.856257
0.901909
0.93114
0.943263
0.937869
0.91444
0.872846
0.813534
0.738068
0.649607
0.553081
0.45493
0.362771
0.283874
0.226245
0.19735
0.197452
0.217841
0.24492
0.264575
0.265432
0.240998
0.190411
0.117979
0.031916
-0.0580952
0
0.500778
1.34385
2.34644
3.24782
3.80961
3.90065
3.5305
2.83055
1.99983
1.24302
0.718152
0.51473
0.636241
0.748488
0.848678
0.930036
0.989504
1.02973
1.05837
1.08551
1.1202
1.16728
1.22424
1.28616
1.34721
1.40168
1.44554
1.47734
1.49818
1.51094
1.51928
1.52674
1.53592
1.54888
1.5676
1.59411
1.63057
1.67912
1.74145
1.81844
1.90978
2.01409
2.12906
2.25214
2.38101
2.51399
2.65002
2.78837
2.92815
3.0678
3.20498
3.33656
3.45871
3.56687
3.65628
3.72402
3.76852
3.78929
3.78667
3.76153
3.71491
3.64759
3.5599
3.45176
3.32452
3.18009
3.02005
2.84637
2.66205
2.47107
2.27806
2.08798
1.90561
1.73531
1.58068
1.44437
1.32793
1.23336
1.16398
1.11744
1.0844
1.05485
1.02104
0.980006
0.934219
0.890154
0.855172
0.834261
0.825839
0.826619
0.832775
0.840117
0.845097
0.845303
0.839485
0.827329
0.809563
0.787396
0.762627
0.737759
0.715837
0.700104
0.693595
0.697837
0.714299
0.743781
0.786194
0.841145
0.908903
0.98612
1.0625
1.12583
1.16538
1.17497
1.15475
1.11052
1.05091
0.983969
0.914946
0.846389
0.779663
0.717829
0.66572
0.630176
0.618904
0.647002
0.759311
0.951522
1.16354
1.32605
1.39003
1.34601
1.22526
1.08315
0.973359
0.926088
0.919475
0.930658
0.951261
0.977747
1.00717
1.0371
1.06499
1.0868
1.0979
1.09317
1.06865
1.02343
0.96116
0.890098
0.82162
0.767411
0.735846
0.730316
0.74887
0.784746
0.828465
0.870461
0.904287
0.927086
0.938368
0.940124
0.935969
0.930096
0.926162
0.926385
0.931742
0.942062
0.95554
0.968981
0.978386
0.979552
0.968713
0.943185
0.901941
0.846083
0.77666
0.69967
0.629462
0.581826
0.569945
0.600468
0.671194
0.771462
0.885327
0.996357
1.09241
1.17317
1.2399
1.29348
1.33558
1.36777
1.39127
1.40617
1.41183
1.40724
1.39139
1.36371
1.32448
1.27522
1.2191
1.16019
1.10391
1.05587
1.02173
1.01044
1.02065
1.04283
1.06399
1.07203
1.05932
1.02385
0.967875
0.894989
0.807469
0.708182
0.598146
0.471906
0.325039
0.160169
-0.0171745
-0.209827
0
0.707813
1.86726
3.23645
4.45189
5.16744
5.18789
4.53522
3.42799
2.19601
1.1673
0.566124
0.452439
0.695291
0.849812
0.986256
1.09855
1.18538
1.25051
1.3013
1.34601
1.39108
1.43905
1.48873
1.53771
1.583
1.62217
1.65422
1.67998
1.70192
1.72353
1.74843
1.77918
1.8175
1.86494
1.91957
1.97866
2.04039
2.10515
2.17604
2.25813
2.35676
2.47547
2.61431
2.76654
2.92562
3.08449
3.23294
3.36107
3.46226
3.534
3.57841
3.60213
3.61532
3.62985
3.66041
3.73375
3.86742
4.03369
4.18632
4.28365
4.29984
4.22802
4.07911
3.87823
3.65834
3.44991
3.26331
3.09078
2.92433
2.75978
2.59484
2.42813
2.25946
2.09005
1.92246
1.76038
1.60813
1.47003
1.35
1.25191
1.17853
1.12892
1.09834
1.08046
1.06848
1.05648
1.0404
1.01858
0.991835
0.963052
0.936392
0.916153
0.905771
0.906978
0.919525
0.943153
0.975831
1.01248
1.0478
1.07757
1.0997
1.11449
1.12422
1.13214
1.14141
1.15421
1.17116
1.19267
1.21919
1.25128
1.28943
1.3356
1.39072
1.4486
1.49895
1.53106
1.5382
1.52082
1.4865
1.44681
1.4125
1.38973
1.3759
1.3674
1.36258
1.36029
1.36035
1.36368
1.3719
1.38676
1.40914
1.43977
1.47818
1.52142
1.56427
1.60056
1.62446
1.63174
1.62078
1.59335
1.5546
1.51241
1.47594
1.45357
1.45054
1.46689
1.49955
1.54413
1.59481
1.64566
1.69214
1.73133
1.76191
1.78386
1.79772
1.80377
1.80192
1.79181
1.77305
1.74599
1.71231
1.67509
1.63968
1.61236
1.59893
1.60326
1.62629
1.66564
1.71609
1.77075
1.82257
1.86629
1.89865
1.91878
1.92792
1.92874
1.92436
1.91757
1.91003
1.90208
1.89294
1.88087
1.86345
1.83798
1.80196
1.75352
1.69196
1.61804
1.53409
1.44387
1.35218
1.26408
1.18418
1.11595
1.06097
1.01858
0.985847
0.956538
0.920316
0.86558
0.781637
0.66083
0.483738
0.257714
0
-0.357085
-0.13939
0.781372
2.20963
3.68727
4.7074
4.95505
4.43282
3.41294
2.27211
1.32368
0.734369
0.534471
0.749241
1.06177
1.36519
1.64727
1.89589
2.10182
2.25724
2.36043
2.41354
2.42201
2.39442
2.34257
2.28103
2.22578
2.19166
2.18932
2.21792
2.27096
2.34321
2.42741
2.5159
2.60234
2.68333
2.75713
2.82376
2.88463
2.94208
2.99894
3.05826
3.12313
3.19667
3.28204
3.38229
3.50022
3.63792
3.80023
3.99844
4.24211
4.51926
4.79001
5.01503
5.16936
5.24116
5.22794
5.13551
4.98045
4.79265
4.61126
4.46736
4.35703
4.25921
4.16011
4.0514
3.92606
3.77965
3.61079
3.42089
3.21349
2.99403
2.76916
2.54444
2.32593
2.1206
1.94408
1.85191
1.91221
2.07393
2.23672
2.2978
2.20436
1.98126
1.71848
1.52539
1.47586
1.51986
1.59185
1.67702
1.76486
1.8472
1.92002
1.98252
2.0368
2.08662
2.13579
2.187
2.24044
2.2924
2.33725
2.37007
2.38888
2.39564
2.39552
2.39493
2.39907
2.40951
2.4245
2.44168
2.45795
2.47049
2.47761
2.47918
2.47659
2.47227
2.4689
2.46856
2.4721
2.47954
2.48958
2.50057
2.51147
2.52244
2.53503
2.55158
2.57567
2.60991
2.64696
2.67329
2.67396
2.63895
2.56772
2.46992
2.36198
2.26175
2.182
2.12206
2.07989
2.05643
2.05325
2.07401
2.12059
2.18358
2.24689
2.29375
2.31118
2.29365
2.24416
2.17235
2.09063
2.00999
1.93595
1.8685
1.8064
1.74846
1.69333
1.63951
1.5857
1.53109
1.47562
1.42009
1.36617
1.31609
1.27227
1.23679
1.21098
1.1952
1.18869
1.18949
1.19436
1.20008
1.20422
1.20576
1.20525
1.20457
1.20619
1.21235
1.22462
1.2426
1.26341
1.28257
1.29502
1.29619
1.28291
1.25388
1.20983
1.15333
1.08853
1.02022
0.952542
0.888713
0.83077
0.779841
0.735601
0.696683
0.661083
0.626548
0.590834
0.551749
0.507056
0.454119
0.390405
0.313671
0.222578
0.117319
0
-0.126008
-0.338981
-0.13058
0.614545
1.77987
3.04498
4.01641
4.39606
4.09327
3.23319
2.07675
0.911922
-0.0276386
-0.599913
-0.707728
-0.338871
0.0275036
0.37014
0.663018
0.881797
1.01289
1.05913
1.03875
0.978855
0.907064
0.845114
0.800058
0.76935
0.750164
0.740723
0.738851
0.741143
0.744341
0.746272
0.746693
0.747745
0.753854
0.770971
0.805307
0.861502
0.941325
1.0439
1.1651
1.29941
1.43794
1.57197
1.69507
1.80422
1.90008
1.9861
2.06712
2.14766
2.2306
2.31618
2.40295
2.4882
2.56715
2.63388
2.68316
2.71065
2.71329
2.68949
2.63889
2.56194
2.45948
2.33263
2.18592
2.02429
1.85039
1.66667
1.47579
1.28064
1.0842
0.889795
0.701244
0.523002
0.360062
0.223069
0.13513
0.104184
0.107794
0.111054
0.0808006
0.00039711
-0.122901
-0.261741
-0.381383
-0.454766
-0.489218
-0.502077
-0.498193
-0.48329
-0.463734
-0.445052
-0.43122
-0.42439
-0.425024
-0.43231
-0.444696
-0.460378
-0.47762
-0.494951
-0.511268
-0.525681
-0.537496
-0.546266
-0.551798
-0.5543
-0.554335
-0.552521
-0.549202
-0.54414
-0.536361
-0.524262
-0.506007
-0.480107
-0.445733
-0.402464
-0.353193
-0.303115
-0.257617
-0.22059
-0.193244
-0.173864
-0.158645
-0.143271
-0.124595
-0.102171
-0.0773277
-0.0526611
-0.0311035
-0.0147934
-0.00423584
0.00203018
0.00717087
0.0153336
0.0307022
0.0558693
0.0915894
0.139532
0.199903
0.266974
0.329846
0.377383
0.401571
0.400351
0.378786
0.347844
0.320988
0.309776
0.318285
0.341665
0.374332
0.412259
0.451068
0.486855
0.516736
0.539067
0.553388
0.560207
0.560802
0.557011
0.55085
0.544477
0.539945
0.538918
0.542452
0.550986
0.563983
0.579905
0.597118
0.61458
0.632339
0.651668
0.674744
0.703981
0.741232
0.787084
0.840241
0.898393
0.957907
1.01288
1.0555
1.07894
1.07827
1.05206
1.00368
0.941737
0.8791
0.830467
0.80918
0.819565
0.866227
0.969908
1.13811
1.32897
1.49311
1.58836
1.59131
1.50546
1.36114
1.20413
1.07696
1.00275
0.962931
0.940206
0.928735
0.927129
0.934488
0.950659
0.975549
1.00534
1.03043
1.03754
1.01233
0.942698
0.821774
0.645795
0.422613
0.165949
-0.132251
0
0.699871
1.92598
3.40901
4.75579
5.59795
5.72513
5.14526
4.05881
2.77414
1.60416
0.778293
0.391913
0.424633
0.722982
1.01745
1.29065
1.51862
1.68417
1.77581
1.78504
1.70545
1.53883
1.30603
1.05449
0.852813
0.75974
0.763682
0.820789
0.905236
1.00781
1.1209
1.23667
1.34841
1.45187
1.54571
1.63123
1.71172
1.7914
1.8745
1.96456
2.06342
2.1719
2.29057
2.42362
2.57763
2.73706
2.87607
2.96814
2.99966
2.97996
2.94002
2.91957
2.94967
3.04052
3.15893
3.29457
3.4312
3.5466
3.62296
3.64832
3.61758
3.53338
3.4057
3.24896
3.0778
2.90374
2.73348
2.5691
2.41178
2.26326
2.12527
1.99883
1.88396
1.77964
1.6832
1.58962
1.49371
1.39161
1.28201
1.16687
1.05109
0.941321
0.844185
0.765824
0.710136
0.673533
0.648763
0.627522
0.603135
0.572387
0.536012
0.497953
0.463882
0.438651
0.424477
0.42257
0.43487
0.461107
0.497835
0.538934
0.575846
0.599284
0.601804
0.579162
0.531505
0.464043
0.386881
0.313671
0.25916
0.236088
0.247621
0.293613
0.387457
0.524261
0.669202
0.785413
0.844173
0.832312
0.755433
0.636191
0.507905
0.405008
0.352305
0.343471
0.363023
0.401001
0.451597
0.50991
0.571038
0.630264
0.683543
0.727719
0.760442
0.78022
0.786835
0.781036
0.764374
0.739079
0.707911
0.673978
0.640517
0.610671
0.587286
0.572431
0.567455
0.573421
0.590776
0.619293
0.658241
0.706251
0.761319
0.821153
0.883311
0.944208
0.996642
1.03197
1.04049
1.01384
0.948607
0.849374
0.729284
0.60748
0.504199
0.435466
0.396969
0.383721
0.393689
0.427415
0.476736
0.52599
0.560441
0.569972
0.551862
0.511519
0.460628
0.413299
0.381705
0.370569
0.376116
0.394632
0.423929
0.462157
0.507564
0.558591
0.613751
0.67149
0.729608
0.78473
0.832641
0.869121
0.890691
0.895384
0.883204
0.856114
0.817515
0.771348
0.721082
0.668936
0.615528
0.560255
0.501931
0.439634
0.373499
0.305256
0.238369
0.177708
0.129786
0.111153
0.159903
0.284465
0.430636
0.523813
0.496356
0.315784
0
-0.4032
-0.673433
-0.252643
0.867121
2.39252
3.83021
4.72424
4.85304
4.28196
3.271
2.12705
1.09782
0.339375
-0.072044
-0.0958189
0.0993781
0.280557
0.450898
0.607874
0.749019
0.873456
0.981701
1.07528
1.15626
1.22679
1.2888
1.34419
1.39494
1.44323
1.49156
1.54265
1.59906
1.66265
1.73411
1.81261
1.89595
1.98077
2.06293
2.13909
2.20779
2.27007
2.32919
2.38987
2.45683
2.53348
2.62097
2.71758
2.82055
2.92669
3.03359
3.14055
3.24872
3.36067
3.47928
3.60918
3.75258
3.90493
4.05576
4.18956
4.28806
4.34186
4.34307
4.28256
4.15247
3.95289
3.69753
3.41367
3.13475
2.88853
2.67506
2.48337
2.30906
2.15121
2.00829
1.87849
1.7598
1.65014
1.54729
1.44896
1.35321
1.25885
1.16575
1.07502
0.988815
0.909792
0.840624
0.784578
0.742845
0.711887
0.686239
0.660276
0.630055
0.594525
0.555686
0.51774
0.485637
0.46339
0.451878
0.450368
0.457804
0.472751
0.493212
0.516652
0.539462
0.556485
0.562672
0.554072
0.529248
0.490534
0.444527
0.401361
0.372725
0.369107
0.395807
0.448616
0.52688
0.62583
0.73483
0.839221
0.9238
0.977737
0.995627
0.978013
0.93134
0.867227
0.800685
0.747225
0.71937
0.721012
0.745896
0.786389
0.83691
0.892303
0.947392
0.997721
1.04005
1.07257
1.09494
1.10808
1.11391
1.11506
1.11453
1.11537
1.12038
1.1317
1.15088
1.17911
1.21529
1.25365
1.28638
1.3066
1.31086
1.30072
1.28257
1.26575
1.25947
1.26972
1.29504
1.33098
1.37196
1.41083
1.43968
1.45179
1.44291
1.41178
1.3606
1.29507
1.22389
1.15767
1.10707
1.08071
1.08047
1.10424
1.14856
1.20721
1.27252
1.33687
1.39411
1.44021
1.47344
1.49378
1.50163
1.49672
1.47968
1.45081
1.41101
1.36258
1.30961
1.25741
1.21124
1.17463
1.14864
1.13047
1.11459
1.09409
1.06246
1.01497
0.949636
0.867629
0.773033
0.672459
0.572693
0.479335
0.396133
0.326162
0.268218
0.218527
0.172013
0.123865
0.0708927
0
-0.0438316
0.316403
1.11236
2.18504
3.22668
3.90057
3.9775
3.42641
2.42156
1.26896
0.291437
-0.279782
-0.365415
-0.106441
0.0859436
0.229881
0.312983
0.339996
0.33302
0.323796
0.341009
0.39843
0.484721
0.582232
0.668339
0.724129
0.741212
0.724196
0.688208
0.652839
0.635208
0.641812
0.667228
0.705826
0.754197
0.809802
0.870599
0.935311
1.00347
1.07521
1.15092
1.23084
1.31527
1.40393
1.49611
1.59157
1.69096
1.79595
1.90868
2.0308
2.16229
2.30161
2.44268
2.57654
2.69366
2.7861
2.84891
2.88029
2.88087
2.85239
2.79665
2.71783
2.6188
2.50004
2.3623
2.20692
2.03609
1.85372
1.66394
1.47076
1.27833
1.09043
0.910168
0.739652
0.58006
0.431891
0.295374
0.170882
0.0591858
-0.038559
-0.121076
-0.187328
-0.236959
-0.270628
-0.290206
-0.299053
-0.302012
-0.304496
-0.311364
-0.326112
-0.350252
-0.383018
-0.421487
-0.461151
-0.496885
-0.524253
-0.537456
-0.532956
-0.517404
-0.501352
-0.495066
-0.504398
-0.528634
-0.561318
-0.593557
-0.618086
-0.632838
-0.641489
-0.646497
-0.650452
-0.655121
-0.660847
-0.666498
-0.669911
-0.668805
-0.661749
-0.648165
-0.628299
-0.603902
-0.577753
-0.553158
-0.533422
-0.521107
-0.517554
-0.522579
-0.534449
-0.550166
-0.566034
-0.578439
-0.584645
-0.5825
-0.572122
-0.556186
-0.537992
-0.519948
-0.502495
-0.484011
-0.461803
-0.432614
-0.396163
-0.3597
-0.334517
-0.331054
-0.353714
-0.398067
-0.451883
-0.499487
-0.527396
-0.532755
-0.521914
-0.49953
-0.469392
-0.435904
-0.403357
-0.375356
-0.35464
-0.342939
-0.340935
-0.348258
-0.363486
-0.384167
-0.406971
-0.427608
-0.441397
-0.444162
-0.433099
-0.404771
-0.359103
-0.30366
-0.248331
-0.202376
-0.171696
-0.157352
-0.155907
-0.161431
-0.168335
-0.173846
-0.179048
-0.187427
-0.203071
-0.228303
-0.261783
-0.297821
-0.327169
-0.339027
-0.32364
-0.280807
-0.209206
-0.11041
0.010778
0.147203
0.290155
0.430666
0.560085
0.668926
0.748483
0.794503
0.804969
0.78023
0.723393
0.640639
0.540979
0.435172
0.333919
0.245041
0.17046
0.111964
0.0690807
0.0396854
0.0206963
0.0086441
0
-0.00736542
-0.0183754
-0.0362152
-0.0631744
-0.10004
-0.145681
-0.199289
-0.3125
0.0161068
0.903574
2.23825
3.6816
4.78262
5.17144
4.737
3.68038
2.40226
1.2948
0.573522
0.246292
0.22062
0.360301
0.495006
0.625654
0.751234
0.870962
0.984222
1.08905
1.18138
1.25793
1.31417
1.34663
1.35614
1.35018
1.34255
1.35025
1.38854
1.46634
1.57327
1.70058
1.84296
1.99409
2.14737
2.29662
2.43475
2.55529
2.65463
2.73141
2.7871
2.82623
2.85608
2.88554
2.9233
2.97604
3.04603
3.13061
3.22628
3.32987
3.43797
3.54699
3.65339
3.75356
3.84441
3.9233
3.98804
4.03685
4.06819
4.08055
4.07176
4.03986
3.98284
3.89897
3.78726
3.64778
3.48195
3.29252
3.08354
2.86125
2.63212
2.40274
2.18024
1.97174
1.78614
1.63693
1.53045
1.45694
1.40024
1.34329
1.27395
1.18892
1.09428
1.00274
0.928853
0.880439
0.855071
0.854491
0.878358
0.923534
0.981695
1.03641
1.06938
1.06478
1.01286
0.913841
0.78047
0.637065
0.51415
0.439706
0.41827
0.448921
0.529813
0.637096
0.742274
0.82117
0.860821
0.861833
0.835658
0.798473
0.764657
0.741446
0.726832
0.71805
0.713171
0.709812
0.705474
0.697827
0.684981
0.665735
0.63982
0.608108
0.572709
0.536869
0.50466
0.480409
0.468128
0.473782
0.506242
0.570513
0.653341
0.732047
0.783646
0.792247
0.754516
0.681257
0.594426
0.520317
0.480842
0.47699
0.5005
0.544435
0.59503
0.637777
0.661622
0.661905
0.641142
0.607612
0.572484
0.546505
0.534434
0.535645
0.548406
0.571515
0.600797
0.631033
0.656801
0.673213
0.676431
0.663954
0.634769
0.589506
0.530961
0.463966
0.393842
0.328595
0.276716
0.245675
0.240394
0.264367
0.319868
0.39866
0.485835
0.565921
0.625766
0.65616
0.652296
0.613695
0.544186
0.452026
0.350027
0.253104
0.17604
0.13091
0.121743
0.150857
0.215151
0.31124
0.429227
0.549857
0.654207
0.727522
0.760792
0.750996
0.700443
0.615722
0.506685
0.385509
0.265475
0.156385
0.0642195
-0.00807095
-0.0599091
-0.0907137
-0.0996443
-0.0859362
-0.0530525
-0.0168592
0
-0.0252113
-0.113473
-0.276533
-0.514751
-0.821449
-1.17356
-1.54209
-1.77604
-1.4021
-0.471969
0.901037
2.4266
3.70357
4.34888
4.14779
3.16195
1.73072
0.341741
-0.582553
-0.870872
-0.650174
-0.454832
-0.294586
-0.145065
-0.00563393
0.124837
0.248212
0.366408
0.480643
0.590529
0.693419
0.785327
0.861717
0.919153
0.956822
0.97725
0.9859
0.989809
0.995775
1.00879
1.02987
1.05822
1.09325
1.13457
1.18224
1.23715
1.3009
1.37555
1.46306
1.56474
1.6813
1.81285
1.95801
2.11369
2.27203
2.41687
2.53121
2.59974
2.61323
2.57482
2.50422
2.43537
2.40651
2.4468
2.55278
2.76314
3.05888
3.35663
3.59004
3.72204
3.7402
3.64879
3.46189
3.19677
2.86922
2.49795
2.12305
1.77288
1.45511
1.17064
0.939522
0.798897
0.744144
0.736608
0.729539
0.684856
0.586341
0.443877
0.287201
0.152179
0.0659826
0.0191177
-0.00287704
-0.00402565
0.0102386
0.0342197
0.0624142
0.0905773
0.11495
0.132171
0.139559
0.135294
0.118817
0.0911308
0.0547943
0.013509
-0.0286299
-0.0679638
-0.102232
-0.130132
-0.151155
-0.165155
-0.17185
-0.170568
-0.160352
-0.140428
-0.110839
-0.0724688
-0.0281961
0.0169756
0.057444
0.0882319
0.106041
0.109811
0.100677
0.0814642
0.0559883
0.0285128
0.00289364
-0.0177261
-0.0305069
-0.0329758
-0.0228098
0.00306072
0.0467913
0.104828
0.166253
0.21824
0.249328
0.252424
0.226568
0.176974
0.11344
0.0476816
-0.00976791
-0.0543491
-0.0866703
-0.107599
-0.119133
-0.124879
-0.12807
-0.130282
-0.13069
-0.126196
-0.112486
-0.0832582
-0.0307726
0.0389067
0.111077
0.168284
0.196672
0.190548
0.153514
0.0964689
0.034041
-0.0189075
-0.0543001
-0.0706171
-0.0681215
-0.0475863
-0.00713806
0.0506248
0.116037
0.177976
0.226221
0.253596
0.257271
0.238974
0.204235
0.16107
0.118524
0.0841032
0.0624571
0.0567062
0.0689892
0.100581
0.151397
0.221728
0.312069
0.422038
0.545006
0.664288
0.759669
0.811193
0.803308
0.729403
0.595028
0.418485
0.228148
0.0565962
-0.0760429
-0.170929
-0.224334
-0.22691
-0.183358
-0.113055
-0.0432352
0
0.00108166
-0.060775
-0.192653
-0.392932
-0.651642
-0.952901
-1.27895
-1.61551
-1.47335
-0.854759
0.200466
1.54167
2.88514
3.87612
4.22198
3.83095
2.86144
1.64007
0.502032
-0.339087
-0.822891
-0.98202
-0.805506
-0.616021
-0.42377
-0.22982
-0.0352571
0.158751
0.35036
0.535602
0.706328
0.850068
0.950062
0.991205
0.967994
0.890473
0.784659
0.685955
0.627288
0.620755
0.650163
0.700467
0.767225
0.846815
0.937094
1.03753
1.14878
1.27689
1.41924
1.55993
1.67824
1.75787
1.7957
1.80518
1.8128
1.84906
1.93786
2.07501
2.24297
2.43799
2.65053
2.86202
3.05323
3.20884
3.31873
3.37757
3.3836
3.33774
3.24364
3.10848
2.94388
2.76526
2.58812
2.42411
2.27687
2.14403
2.02326
1.91131
1.80371
1.69558
1.58256
1.4614
1.33049
1.19008
1.04221
0.890528
0.739906
0.596419
0.46652
0.356103
0.269913
0.210964
0.180149
0.176114
0.195459
0.236674
0.294984
0.359184
0.41861
0.465612
0.497191
0.515413
0.526157
0.536422
0.551171
0.571121
0.592188
0.607261
0.609205
0.593776
0.561335
0.516909
0.468899
0.42709
0.398001
0.384083
0.388242
0.411243
0.451529
0.505444
0.567789
0.632621
0.694153
0.747837
0.790432
0.820342
0.837542
0.843247
0.839431
0.828295
0.81177
0.791167
0.767067
0.739451
0.708016
0.672597
0.633709
0.592947
0.553155
0.518279
0.493244
0.485955
0.509903
0.578326
0.685299
0.80398
0.903843
0.96015
0.960156
0.905245
0.80972
0.697095
0.594402
0.523116
0.486251
0.475413
0.482022
0.501704
0.529198
0.558902
0.58596
0.607084
0.621038
0.62871
0.632771
0.637015
0.645495
0.661179
0.686333
0.72423
0.772416
0.819543
0.852066
0.859323
0.838298
0.795879
0.747278
0.711038
0.702655
0.724162
0.76869
0.832924
0.908851
0.985121
1.04999
1.09472
1.11505
1.11198
1.09163
1.06421
1.04177
1.03535
1.05226
1.09124
1.14568
1.21206
1.28676
1.36223
1.42731
1.47171
1.48793
1.47402
1.43542
1.38415
1.33456
1.29748
1.27589
1.26146
1.24803
1.22984
1.20237
1.16283
1.10969
1.0417
0.957252
0.856773
0.734302
0.582194
0.405147
0.213202
0
0.294403
1.20986
2.6119
4.1164
5.24496
5.63899
5.21387
4.17381
2.89595
1.76455
1.0421
0.817522
1.02881
1.2119
1.36831
1.50235
1.60931
1.68861
1.74332
1.77888
1.80174
1.81824
1.83348
1.85063
1.87134
1.89622
1.92386
1.95124
1.97498
1.99252
2.00312
2.00847
2.01253
2.02093
2.03975
2.07253
2.12054
2.18453
2.26356
2.3549
2.45431
2.55678
2.65742
2.75209
2.83799
2.91387
2.98032
3.03943
3.09437
3.14875
3.20597
3.26854
3.33808
3.41539
3.49625
3.57256
3.63572
3.67918
3.69992
3.69825
3.67578
3.6328
3.5665
3.47514
3.35357
3.19897
3.01324
2.80399
2.58343
2.36563
2.16279
1.98499
1.8322
1.69746
1.57044
1.44195
1.30732
1.16778
1.02957
0.901593
0.790215
0.696625
0.623927
0.573784
0.550384
0.558371
0.591346
0.633412
0.667947
0.682146
0.67067
0.636801
0.59053
0.544264
0.507921
0.483477
0.466643
0.453842
0.440452
0.422551
0.398322
0.368794
0.337643
0.310085
0.291174
0.284097
0.289798
0.305073
0.324428
0.341954
0.353159
0.356047
0.351142
0.340642
0.327206
0.312964
0.298754
0.284472
0.269312
0.251875
0.230911
0.205878
0.177543
0.148264
0.122539
0.105834
0.103142
0.117446
0.149405
0.195282
0.248526
0.301268
0.345679
0.374584
0.384462
0.375186
0.349991
0.315082
0.278712
0.249652
0.235238
0.239551
0.260461
0.292222
0.330205
0.368993
0.403149
0.427633
0.439556
0.438219
0.425166
0.403934
0.37948
0.357269
0.342138
0.337201
0.342762
0.356945
0.376243
0.396412
0.413692
0.425842
0.43268
0.435975
0.438734
0.444093
0.454428
0.470961
0.489245
0.499959
0.492757
0.460424
0.402375
0.326005
0.245129
0.17591
0.131732
0.113882
0.119062
0.142822
0.178485
0.219408
0.260938
0.301422
0.341868
0.384743
0.432269
0.484892
0.540638
0.594439
0.639605
0.669454
0.678799
0.664858
0.627473
0.568826
0.492952
0.405843
0.314046
0.223503
0.139519
0.066668
0.0088378
-0.0295322
-0.0459115
-0.0430883
-0.0281082
-0.0102388
0
-0.00762434
-0.0418056
-0.108275
-0.209196
-0.342736
-0.503201
-0.681882
-0.92357
-0.738511
0.00941553
1.20081
2.50483
3.52071
3.94761
3.69428
2.88959
1.80838
0.759328
-0.0167822
-0.406093
-0.412983
-0.263714
-0.142353
-0.0376299
0.0454941
0.105207
0.143084
0.163664
0.17345
0.179573
0.188445
0.204219
0.228826
0.26292
0.306507
0.359473
0.42182
0.495335
0.588192
0.720416
0.890328
1.05902
1.16764
1.16423
1.03336
0.810839
0.574446
0.414014
0.39234
0.454063
0.55056
0.668392
0.792888
0.911148
1.01663
1.10679
1.18284
1.24952
1.31384
1.38356
1.47167
1.61198
1.85518
2.17475
2.48718
2.71951
2.81934
2.76552
2.57287
2.28814
1.9797
1.72106
1.54101
1.3968
1.26187
1.12786
0.991614
0.851295
0.706206
0.556849
0.404684
0.251755
0.100267
-0.047748
-0.190611
-0.326984
-0.455684
-0.575426
-0.684641
-0.781409
-0.863889
-0.928213
-0.967641
-0.983568
-0.985632
-0.985415
-0.992028
-1.00843
-1.03057
-1.0499
-1.05804
-1.05114
-1.03435
-1.01256
-0.991344
-0.975288
-0.966938
-0.966815
-0.974319
-0.988794
-1.00968
-1.03657
-1.06853
-1.10282
-1.13435
-1.15202
-1.09715
-0.886377
-0.580077
-0.314052
-0.219513
-0.342752
-0.616388
-0.901591
-1.07335
-1.09031
-1.0485
-0.992778
-0.931457
-0.867448
-0.802308
-0.736687
-0.671
-0.606048
-0.543345
-0.485077
-0.433714
-0.391455
-0.359709
-0.338764
-0.32769
-0.324456
-0.326159
-0.329271
-0.330217
-0.32558
-0.312306
-0.286467
-0.242824
-0.181102
-0.11345
-0.055767
-0.0221547
-0.0194831
-0.0446212
-0.0857969
-0.127503
-0.156532
-0.167206
-0.164879
-0.154726
-0.139505
-0.121264
-0.101497
-0.0810616
-0.060357
-0.0396358
-0.0193352
-0.000329018
0.0161704
0.0289104
0.0370698
0.0407198
0.0411112
0.0406813
0.0427581
0.0510132
0.0684733
0.0966538
0.136099
0.18638
0.246504
0.313509
0.384201
0.45614
0.528397
0.601854
0.679357
0.768545
0.882164
1.01776
1.15112
1.24948
1.28594
1.25066
1.15391
1.02057
0.878812
0.748177
0.630055
0.517855
0.40784
0.298847
0.191273
0.0874946
0
0.0137036
0.32941
0.815975
1.28614
1.58139
1.61236
1.36942
0.917922
0.388933
-0.076651
-0.155294
0.364156
1.45748
2.86191
4.13205
4.82759
4.72081
3.90202
2.72125
1.6053
0.85852
0.561075
0.611401
0.75283
0.88193
1.00135
1.10657
1.19506
1.26648
1.32298
1.36911
1.41121
1.45633
1.51442
1.59905
1.70851
1.82243
1.91418
1.96158
1.95501
1.90028
1.81664
1.73174
1.67525
1.66443
1.69767
1.76737
1.8666
1.99002
2.13277
2.28905
2.45226
2.61561
2.77253
2.91769
3.04737
3.15966
3.25432
3.33188
3.39374
3.44204
3.47882
3.50587
3.52483
3.53742
3.54573
3.55237
3.56052
3.57358
3.59502
3.63266
3.70116
3.79059
3.86671
3.88427
3.8052
3.61718
3.34141
3.02418
2.7167
2.45558
2.22727
2.01949
1.83235
1.66554
1.51894
1.39377
1.28931
1.20174
1.12595
1.05612
0.98677
0.913926
0.835979
0.754133
0.672296
0.597019
0.535941
0.495955
0.481273
0.493166
0.529243
0.578424
0.62741
0.664526
0.682765
0.680899
0.662459
0.633383
0.599496
0.564944
0.531242
0.498864
211
435
655
866
1086
1309
1515
1723
1943
2160
2370
2589
2806
3015
3227
3444
3652
0
0
0
0
0
0
0
0
0
0
0
0
0
0
0
0
0
0
0
0
0
0
0
0
0
0
0
0
0
0
0
0
0
0
0
0
0
0
0
0
0
0
0
0
0
0
0
0
0
0
0
0
0
0
0
0
0
0
0
0
0
0
0
0
0
0
0
0
0
0
0
0
0
0
0
0
0
0
0
0
0
0
0
0
0
0
0
0
0
0
0
0
0
0
0
0
0
0
0
0
0
0
0
0
0
0
0
0
0
0
0
0
0
0
0
0
0
0
0
0
0
0
0
0
0
0
0
0
0
0
0
0
0
0
0
0
0
0
0
0
0
0
0
0
0
0
0
0
0
0
0
0
0
0
0
0
0
0
0
0
0
0
0
0
0
0
0
0
0
0
0
0
0
0
0
0
0
0
0
0
0
0
0
0
0
0
0
0
0
0
0
0
0
0
0
0
0
0
0
0
0
0
0
0
0
0
0
0
0
0
0
0
0
0
0
0
0
0
0
0
0
0
0
0
0
0
0
0
0
0
0
0
0
0
0
0
0
0
0
0
0
0
0
0
0
0
0
0
0
0
0
0
0
0
0
0
0
0
0
0
0
0
0
0
0
0
0
0
0
0
0
0
0
0
0
0
0
0
0
0
0
0
0
0
0
0
0
0
0
0
0
0
0
0
0
0
0
0
0
0
0
0
0
0
0
0
0
0
0
0
0
0
0
0
0
0
0
0
0
0
0
0
0
0
0
0
0
0
0
0
0
0
0
0
0
0
0
0
0
0
0
0
0
0
0
0
0
0
0
0
0
0
0
0
0
0
0
0
0
0
0
0
0
0
0
0
0
0
0
0
0
0
0
0
0
0
0
0
0
0
0
0
0
0
0
0
0
0
0
0
0
0
0
0
0
0
0
0
0
0
0
0
0
0
0
0
0
0
0
0
0
0
0
0
0
0
0
0
0
0
0
0
0
0
0
0
0
0
0
0
0
0
0
0
0
0
0
0
0
0
0
0
0
0
0
0
0
0
0
0
0
0
0
0
0
0
0
0
0
0
0
0
0
0
0
0
0
0
0
0
0
0
0
0
0
0
0
0
0
0
0
0
0
0
0
0
0
0
0
0
0
0
0
0
0
0
0
0
0
0
0
0
0
0
0
0
0
0
0
0
0
0
0
0
0
0
0
0
0
0
0
0
0
0
0
0
0
0
0
0
0
0
0
0
0
0
0
0
0
0
0
0
0
0
0
0
0
0
0
0
0
0
0
0
0
0
0
0
0
0
0
0
0
0
0
0
0
0
0
0
0
0
0
0
0
0
0
0
0
0
0
0
0
0
0
0
0
0
0
0
0
0
0
0
0
0
0
0
0
0
0
0
0
0
0
0
0
0
0
0
0
0
0
0
0
0
0
0
0
0
0
0
0
0
0
0
0
0
0
0
0
0
0
0
0
0
0
0
0
0
0
0
0
0
0
0
0
0
0
0
0
0
0
0
0
0
0
0
0
0
0
0
0
0
0
0
0
0
0
0
0
0
0
0
0
0
0
0
0
0
0
0
0
0
0
0
0
0
0
0
0
0
0
0
0
0
0
0
0
0
0
0
0
0
0
0
0
0
0
0
0
0
0
0
0
0
0
0
0
0
0
0
0
0
0
0
0
0
0
0
0
0
0
0
0
0
0
0
0
0
0
0
0
0
0
0
0
0
0
0
0
0
0
0
0
0
0
0
0
0
0
0
0
0
0
0
0
0
0
0
0
0
0
0
0
0
0
0
0
0
0
0
0
0
0
0
0
0
0
0
0
0
0
0
0
0
0
0
0
0
0
0
0
0
0
0
0
0
0
0
0
0
0
0
0
0
0
0
0
0
0
0
0
0
0
0
0
0
0
0
0
0
0
0
0
0
0
0
0
0
0
0
0
0
0
0
0
0
0
0
0
0
0
0
0
0
0
0
0
0
0
0
0
0
0
0
0
0
0
0
0
0
0
0
0
0
0
0
0
0
0
0
0
0
0
0
0
0
0
0
0
0
0
0
0
0
0
0
0
0
0
0
0
0
0
0
0
0
0
0
0
0
0
0
0
0
0
0
0
0
0
0
0
0
0
0
0
0
0
0
0
0
0
0
0
0
0
0
0
0
0
0
0
0
0
0
0
0
0
0
0
0
0
0
0
0
0
0
0
0
0
0
0
0
0
0
0
0
0
0
0
0
0
0
0
0
0
0
0
0
0
0
0
0
0
0
0
0
0
0
0
0
0
0
0
0
0
0
0
0
0
0
0
0
0
0
0
0
0
0
0
0
0
0
0
0
0
0
0
0
0
0
0
0
0
0
0
0
0
0
0
0
0
0
0
0
0
0
0
0
0
0
0
0
0
0
0
0
0
0
0
0
0
0
0
0
0
0
0
0
0
0
0
0
0
0
0
0
0
0
0
0
0
0
0
0
0
0
0
0
0
0
0
0
0
0
0
0
0
0
0
0
0
0
0
0
0
0
0
0
0
0
0
0
0
0
0
0
0
0
0
0
0
0
0
0
0
0
0
0
0
0
0
0
0
0
0
0
0
0
0
0
0
0
0
0
0
0
0
0
0
0
0
0
0
0
0
0
0
0
0
0
0
0
0
0
0
0
0
0
0
0
0
0
0
0
0
0
0
0
0
0
0
0
0
0
0
0
0
0
0
0
0
0
0
0
0
0
0
0
0
0
0
0
0
0
0
0
0
0
0
0
0
0
0
0
0
0
0
0
0
0
0
0
0
0
0
0
0
0
0
0
0
0
0
0
0
0
0
0
0
0
0
0
0
0
0
0
0
0
0
0
0
0
0
0
0
0
0
0
0
0
0
0
0
0
0
0
0
0
0
0
0
0
0
0
0
0
0
0
0
0
0
0
0
0
0
0
0
0
0
0
0
0
0
0
0
0
0
0
0
0
0
0
0
0
0
0
0
0
0
0
0
0
0
0
0
0
0
0
0
0
0
0
0
0
0
0
0
0
0
0
0
0
0
0
0
0
0
0
0
0
0
0
0
0
0
0
0
0
0
0
0
0
0
0
0
0
0
0
0
0
0
0
0
0
0
0
0
0
0
0
0
0
0
0
0
0
0
0
0
0
0
0
0
0
0
0
0
0
0
0
0
0
0
0
0
0
0
0
0
0
0
0
0
0
0
0
0
0
0
0
0
0
0
0
0
0
0
0
0
0
0
0
0
0
0
0
0
0
0
0
0
0
0
0
0
0
0
0
0
0
0
0
0
0
0
0
0
0
0
0
0
0
0
0
0
0
0
0
0
0
0
0
0
0
0
0
0
0
0
0
0
0
0
0
0
0
0
0
0
0
0
0
0
0
0
0
0
0
0
0
0
0
0
0
0
0
0
0
0
0
0
0
0
0
0
0
0
0
0
0
0
0
0
0
0
0
0
0
0
0
0
0
0
0
0
0
0
0
0
0
0
0
0
0
0
0
0
0
0
0
0
0
0
0
0
0
0
0
0
0
0
0
0
0
0
0
0
0
0
0
0
0
0
0
0
0
0
0
0
0
0
0
0
0
0
0
0
0
0
0
0
0
0
0
0
0
0
0
0
0
0
0
0
0
0
0
0
0
0
0
0
0
0
0
0
0
0
0
0
0
0
0
0
0
0
0
0
0
0
0
0
0
0
0
0
0
0
0
0
0
0
0
0
0
0
0
0
0
0
0
0
0
0
0
0
0
0
0
0
0
0
0
0
0
0
0
0
0
0
0
0
0
0
0
0
0
0
0
0
0
0
0
0
0
0
0
0
0
0
0
0
0
0
0
0
0
0
0
0
0
0
0
0
0
0
0
0
0
0
0
0
0
0
0
0
0
0
0
0
0
0
0
0
0
0
0
0
0
0
0
0
0
0
0
0
0
0
0
0
0
0
0
0
0
0
0
0
0
0
0
0
0
0
0
0
0
0
0
0
0
0
0
0
0
0
0
0
0
0
0
0
0
0
0
0
0
0
0
0
0
0
0
0
0
0
0
0
0
0
0
0
0
0
0
0
0
0
0
0
0
0
0
0
0
0
0
0
0
0
0
0
0
0
0
0
0
0
0
0
0
0
0
0
0
0
0
0
0
0
0
0
0
0
0
0
0
0
0
0
0
0
0
0
0
0
0
0
0
0
0
0
0
0
0
0
0
0
0
0
0
0
0
0
0
0
0
0
0
0
0
0
0
0
0
0
0
0
0
0
0
0
0
0
0
0
0
0
0
0
0
0
0
0
0
0
0
0
0
0
0
0
0
0
0
0
0
0
0
0
0
0
0
0
0
0
0
0
0
0
0
0
0
0
0
0
0
0
0
0
0
0
0
0
0
0
0
0
0
0
0
0
0
0
0
0
0
0
0
0
0
0
0
0
0
0
0
0
0
0
0
0
0
0
0
0
0
0
0
0
0
0
0
0
0
0
0
0
0
0
0
0
0
0
0
0
0
0
0
0
0
0
0
0
0
0
0
0
0
0
0
0
0
0
0
0
0
0
0
0
0
0
0
0
0
0
0
0
0
0
0
0
0
0
0
0
0
0
0
0
0
0
0
0
0
0
0
0
0
0
0
0
0
0
0
0
0
0
0
0
0
0
0
0
0
0
0
0
0
0
0
0
0
0
0
0
0
0
0
0
0
0
0
0
0
0
0
0
0
0
0
0
0
0
0
0
0
0
0
0
0
0
0
0
0
0
0
0
0
0
0
0
0
0
0
0
0
0
0
0
0
0
0
0
0
0
0
0
0
0
0
0
0
0
0
0
0
0
0
0
0
0
0
0
0
0
0
0
0
0
0
0
0
0
0
0
0
0
0
0
0
0
0
0
0
0
0
0
0
0
0
0
0
0
0
0
0
0
0
0
0
0
0
0
0
0
0
0
0
0
0
0
0
0
0
0
0
0
0
0
0
0
0
0
0
0
0
0
0
0
0
0
0
0
0
0
0
0
0
0
0
0
0
0
0
0
0
0
0
0
0
0
0
0
0
0
0
0
0
0
0
0
0
0
0
0
0
0
0
0
0
0
0
0
0
0
0
0
0
0
0
0
0
0
0
0
0
0
0
0
0
0
0
0
0
0
0
0
0
0
0
0
0
0
0
0
0
0
0
0
0
0
0
0
0
0
0
0
0
0
0
0
0
0
0
0
0
0
0
0
0
0
0
0
0
0
0
0
0
0
0
0
0
0
0
0
0
0
0
0
0
0
0
0
0
0
0
0
0
0
0
0
0
0
0
0
0
0
0
0
0
0
0
0
0
0
0
0
0
0
0
0
0
0
0
0
0
0
0
0
0
0
0
0
0
0
0
0
0
0
0
0
0
0
0
0
0
0
0
0
0
0
0
0
0
0
0
0
0
0
0
0
0
0
0
0
0
0
0
0
0
0
0
0
0
0
0
0
0
0
0
0
0
0
0
0
0
0
0
0
0
0
0
0
0
0
0
0
0
0
0
0
0
0
0
0
0
0
0
0
0
0
0
0
0
0
0
0
0
0
0
0
0
0
0
0
0
0
0
0
0
0
0
0
0
0
0
0
0
0
0
0
0
0
0
0
0
0
0
0
0
0
0
0
0
0
0
0
0
0
0
0
0
0
0
0
0
0
0
0
0
0
0
0
0
0
0
0
0
0
0
0
0
0
0
0
0
0
0
0
0
0
0
0
0
0
0
0
0
0
0
0
0
0
0
0
0
0
0
0
0
0
0
0
0
0
0
0
0
0
0
0
0
0
0
0
0
0
0
0
0
0
0
0
0
0
0
0
0
0
0
0
0
0
0
0
0
0
0
0
0
0
0
0
0
0
0
0
0
0
0
0
0
0
0
0
0
0
0
0
0
0
0
0
0
0
0
0
0
0
0
0
0
0
0
0
0
0
0
0
0
0
0
0
0
0
0
0
0
0
0
0
0
0
0
0
0
0
0
0
0
0
0
0
0
0
0
0
0
0
0
0
0
0
0
0
0
0
0
0
0
0
0
0
0
0
0
0
0
0
0
0
0
0
0
0
0
0
0
0
0
0
0
0
0
0
0
0
0
0
0
0
0
0
0
0
0
0
0
0
0
0
0
0
0
0
0
0
0
0
0
0
0
0
0
0
0
0
0
0
0
0
0
0
0
0
0
0
0
0
0
0
0
0
0
0
0
0
0
0
0
0
0
0
0
0
0
0
0
0
0
0
0
0
0
0
0
0
0
0
0
0
0
0
0
0
0
0
0
0
0
0
0
0
0
0
0
0
0
0
0
0
0
0
0
0
0
0
0
0
0
0
0
0
0
0
0
0
0
0
0
0
0
0
0
0
0
0
0
0
0
0
0
0
0
0
0
0
0
0
0
0
0
0
0
0
0
0
0
0
0
0
0
0
0
0
0
0
0
0
0
0
0
0
0
0
0
0
0
0
0
0
0
0
0
0
0
0
0
0
0
0
0
0
0
0
0
0
0
0
0
0
0
0
0
0
0
0
0
0
0
0
0
0
0
0
0
0
0
0
0
0
0
0
0
0
0
0
0
0
0
0
0
0
0
0
0
0
0
0
0
0
0
0
0
0
0
0
0
0
0
0
0
0
0
0
0
0
0
0
0
0
0
0
0
0
0
0
0
0
0
0
0
0
0
0
0
0
0
0
0
0
0
0
0
0
0
0
0
0
0
0
0
0
0
0
0
0
0
0
0
0
0
0
0
0
0
0
0
0
0
0
0
0
0
0
0
0
0
0
0
0
0
0
0
0
0
0
0
0
0
0
0
0
0
0
0
0
0
0
0
0
0
0
0
0
0
0
0
0
0
0
0
0
0
0
0
0
0
0
0
0
0
0
0
0
0
0
0
0
0
0
0
0
0
0
0
0
0
0
0
0
0
0
0
0
0
0
0
0
0
0
0
0
0
0
0
0
0
0
0
0
0
0
0
0
0
0
0
0
0
0
0
0
0
0
0
0
0
0
0
0
0
0
0
0
0
0
0
0
0
0
0
0
0
0
0
0
0
0
0
0
0
0
0
0
0
0
0
0
0
0
0
0
0
0
0
0
0
0
0
0
0
0
0
0
0
0
0
0
0
0
0
0
0
0
0
0
0
0
0
0
0
0
0
0
0
0
0
0
0
0
0
0
0
0
0
0
0
0
0
0
0
0
0
0
0
0
0
0
0
0
0
0
0
0
0
0
0
0
0
0
0
0
0
0
0
0
0
0
0
0
0
0
0
0
0
0
0
0
0
0
0
0
0
0
0
0
0
0
0
0
0
0
0
0
0
0
0
0
0
0
0
0
0
0
0
0
0
0
0
0
0
0
0
0
0
0
0
0
0
0
0
0
0
0
0
0
0
0
0
0
0
0
0
0
0
0
0
0
0
0
0
0
0
0
0
0
0
0
0
0
0
0
0
0
0
0
0
0
0
0
0
0
0
0
0
0
0
0
0
0
0
0
0
0
0
0
0
0
0
0
0
0
0
0
0
0
0
0
0
0
0
0
0
0
0
0
0
0
0
0
0
0
0
0
0
0
0
0
0
0
0
0
0
0
0
0
0
0
0
0
0
0
0
0
0
0
0
0
0
0
0
0
0
0
0
0
0
0
0
0
0
0
0
0
0
0
0
0
0
0
0
0
0
0
0
0
0
0
0
0
0
0
0
0
0
0
0
0
0
0
0
0
0
0
0
0
0
0
0
0
0
0
0
0
0
0
0
0
0
0
0
0
0
0
0
0
0
0
0
0
0
0
0
0
0
0
0
0
0
0
0
0
0
0
0
0
0
0
0
0
0
0
0
0
0
0
0
0
0
0
0
0
0
0
0
0
0
0
0
0
0
0
0
0
0
0
0
0
0
0
0
0
0
0
0
0
0
0
0
0
0
0
0
0
0
0
0
0
0
0
0
0
0
0
0
0
0
0
0
0
0
0
0
0
0
0
0
0
0
0
0
0
0
0
0
0
0
0
0
0
0
0
0
0
0
0
0
0
0
0
0
0
0
0
0
0
0
0
0
0
0
0
0
0
0
0
0
0
0
0
0
0
0
0
0
0
0
0
0
0
0
0
0
0
0
0
0
0
0
0
0
0
0
0
0
0
0
0
0
0
0
0
0
0
0
0
0
0
0
0
0
0
0
0
0
0
0
0
0
0
0
0
0
0
0
0
0
0
0
0
0
0
0
0
0
0
0
0
0
0
0
0
0
0
0
0
0
0
0
0
0
0
0
0
0
0
0
0
0
0
0
0
0
0
0
0
0
0
0
0
0
0
0
0
0
0
0
0
0
0
0
0
0
0
0
0
0
0
0
0
0
0
0
0
0
0
0
0
0
0
0
0
0
0
0
0
0
0
0
0
0
0
0
0
0
0
0
0
0
0
0
0
0
0
0
0
0
0
0
0
0
0
0
0
0
0
0
0
0
0
0
0
0
0
0
0
0
0
0
0
0
0
0
0
0
0
0
0
0
0
0
0
0
