-1.77625
-1.77912
-1.79897
-1.83606
-1.88843
-1.95552
-2.02934
-2.09834
-2.15132
-2.1799
-2.18001
-2.15191
-2.09876
-2.02476
-1.93371
-1.83202
-1.72333
-1.60988
-1.49872
-1.40049
-1.32551
-1.27994
-1.26305
-1.26702
-1.27955
-1.2881
-1.28349
-1.26536
-1.23725
-1.20072
-1.158
-1.11196
-1.06585
-1.02366
-0.990008
-0.969197
-0.964737
-0.978522
-1.00996
-1.05536
-1.10836
-1.1586
-1.19322
-1.20063
-1.17336
-1.10995
-1.01526
-0.898957
-0.772598
-0.646165
-0.524063
-0.40648
-0.290157
-0.16786
-0.0138908
0.211142
0.488102
0.756631
0.947125
1.01551
0.956137
0.795164
0.580222
0.369888
0.210806
0.109916
0.0526638
0.0192474
-0.00125771
-0.013306
-0.0205029
-0.0252953
-0.028941
-0.0317135
-0.0331699
-0.0325417
-0.029142
-0.0228054
-0.0142815
-0.00544968
0
0.0303394
0.0475201
0.0473423
0.027393
-0.0123268
-0.0693008
-0.141124
-0.390314
-0.376094
0.494966
2.29989
4.44113
6.06044
6.62724
6.12616
4.81997
3.02633
1.15206
-0.255952
-0.75039
-0.333371
0.241621
0.724957
1.05234
1.20311
1.17703
0.985766
0.685439
0.40118
0.278843
0.380211
0.578563
0.781546
0.955725
1.08163
1.15793
1.19933
1.2292
1.26996
1.33399
1.41926
1.51826
1.62483
1.7351
1.84697
1.96058
2.07789
2.20163
2.33348
2.47565
2.62649
2.77917
2.9253
3.05794
3.1745
3.27825
3.3777
3.48387
3.60625
3.74972
3.91199
4.08233
4.24683
4.39378
4.51759
4.61939
4.70428
4.77631
4.83146
4.85803
4.83754
4.75323
4.5987
4.38233
4.12538
3.85492
3.59503
3.35406
3.12865
2.91867
2.72192
2.53494
2.35389
2.17547
1.99763
1.82003
1.64417
1.47312
1.31086
1.16307
1.03618
0.930994
0.845256
0.774916
0.716232
0.667857
0.63197
0.613911
0.620445
0.655614
0.719699
0.811394
0.925641
1.0543
1.18775
1.31448
1.42401
1.50829
1.5626
1.58607
1.58169
1.55584
1.51728
1.47565
1.43906
1.41343
1.40198
1.40513
1.42088
1.4457
1.4755
1.50625
1.53491
1.55915
1.5772
1.5886
1.59423
1.59639
1.59855
1.60506
1.6227
1.65395
1.69571
1.74045
1.7789
1.80374
1.8127
1.80967
1.80364
1.80555
1.82295
1.86294
1.92044
1.98257
2.03329
2.05939
2.05567
2.02736
1.98902
1.96041
1.95887
1.99308
2.06355
2.16188
2.28864
2.43615
2.57964
2.69409
2.75982
2.76719
2.7187
2.62692
2.50893
2.37995
2.24931
2.11982
1.9922
1.86741
1.74714
1.63388
1.53123
1.44298
1.37093
1.31486
1.27236
1.23919
1.21002
1.17918
1.14116
1.0909
1.02429
0.937349
0.826967
0.691415
0.531341
0.349023
0.108819
0
0.554202
1.72494
3.43499
5.50441
7.41298
8.34798
7.7213
5.70387
3.17782
1.10187
-0.0820717
-0.474855
-0.299727
0.0332892
0.34149
0.602642
0.804027
0.944306
1.03252
1.08475
1.11953
1.1535
1.19608
1.25001
1.31627
1.39394
1.48014
1.57149
1.66236
1.74655
1.81887
1.87603
1.91705
1.94334
1.95829
1.96664
1.97398
1.98562
2.0062
2.04048
2.09274
2.1664
2.26315
2.38266
2.52401
2.68502
2.86257
3.0531
3.25309
3.45943
3.66964
3.88197
4.09531
4.30887
4.52127
4.72909
4.92395
5.08901
5.20517
5.25371
5.22215
5.10902
4.92514
4.68957
4.4224
4.13938
3.85304
3.57088
3.297
3.03663
2.79475
2.57531
2.38076
2.21179
2.06621
1.9401
1.82866
1.72722
1.63206
1.54104
1.45367
1.37093
1.29449
1.22656
1.16886
1.12134
1.08229
1.04877
1.01689
0.982799
0.944398
0.90226
0.85979
0.822467
0.796322
0.786107
0.793718
0.817065
0.851564
0.889366
0.9218
0.941191
0.94238
0.923682
0.887208
0.838582
0.786088
0.739283
0.710398
0.724066
0.777094
0.849911
0.913851
0.943398
0.926906
0.870443
0.794048
0.723355
0.679957
0.662506
0.665372
0.684052
0.711357
0.738906
0.759075
0.766535
0.758924
0.736594
0.701719
0.657701
0.607632
0.554131
0.499893
0.447822
0.401395
0.364588
0.34151
0.335858
0.34983
0.384769
0.440544
0.515315
0.606388
0.710174
0.822467
0.938635
1.05395
1.16392
1.2638
1.34871
1.41462
1.45811
1.47637
1.46727
1.42955
1.36308
1.26931
1.15179
1.01695
0.872972
0.729858
0.598402
0.488798
0.413779
0.399646
0.45316
0.551444
0.663095
0.757951
0.814589
0.823383
0.785799
0.711971
0.617642
0.520497
0.43218
0.358534
0.298782
0.245705
0.194337
0.141887
0.0868805
0
0.235133
1.02794
2.62117
4.84702
6.93353
7.92393
7.39022
5.71539
3.67446
1.81299
0.274959
-0.894361
-1.50189
-1.16013
-0.80591
-0.458474
-0.143857
0.109923
0.291936
0.433275
0.538147
0.608777
0.650356
0.670271
0.676756
0.677274
0.677054
0.678591
0.680182
0.677787
0.667908
0.650143
0.628418
0.610511
0.606253
0.625171
0.668556
0.734679
0.823741
0.933497
1.05944
1.19668
1.33761
1.47386
1.59969
1.71321
1.81657
1.91463
2.01286
2.11496
2.22122
2.32829
2.43069
2.52273
2.60102
2.66599
2.72204
2.77563
2.83648
2.90659
2.97392
3.01526
3.0044
2.92101
2.7566
2.51616
2.2161
1.8796
1.53277
1.19228
0.866919
0.55863
0.270588
0.00602465
-0.23261
-0.44365
-0.626178
-0.779044
-0.903181
-1.0013
-1.07724
-1.13572
-1.18176
-1.22049
-1.2584
-1.30123
-1.35316
-1.41595
-1.48836
-1.5661
-1.64246
-1.7097
-1.76121
-1.79256
-1.80273
-1.79448
-1.77388
-1.74812
-1.72317
-1.70173
-1.68205
-1.65805
-1.62077
-1.54495
-1.39265
-1.17538
-0.941667
-0.75003
-0.645584
-0.648737
-0.75574
-0.942456
-1.1674
-1.37786
-1.52596
-1.58506
-1.57012
-1.51085
-1.42169
-1.30913
-1.18132
-1.04696
-0.91431
-0.790337
-0.680217
-0.58737
-0.514514
-0.465489
-0.442627
-0.445584
-0.472576
-0.51942
-0.578841
-0.640596
-0.692556
-0.722507
-0.72008
-0.682792
-0.607489
-0.494016
-0.344755
-0.166366
0.0349379
0.259586
0.502556
0.743993
0.961509
1.13376
1.24485
1.28757
1.26428
1.18551
1.067
0.926445
0.780642
0.640742
0.515025
0.405952
0.313262
0.239756
0.189189
0.166572
0.182041
0.244896
0.329114
0.400028
0.42596
0.390871
0.301927
0.186993
0.0823328
0.0168486
0
0.014029
0.0428318
0.0760119
0.104225
0.120315
-0.344713
-0.622773
0.135746
2.08819
4.63901
6.87869
8.14258
8.18661
7.04598
4.95585
2.43213
0.217082
-1.09367
-1.4328
-1.18782
-0.779659
-0.392016
-0.0630213
0.160898
0.245303
0.192084
0.0466764
-0.121308
-0.250411
-0.308882
-0.324642
-0.320662
-0.302717
-0.274539
-0.239508
-0.200445
-0.159549
-0.118511
-0.0785311
-0.0403399
-0.00423193
0.0298954
0.062498
0.0943519
0.126563
0.160633
0.198473
0.242474
0.29526
0.359206
0.435751
0.525209
0.627166
0.736006
0.844751
0.947315
1.04075
1.1267
1.21146
1.30487
1.4183
1.60611
1.96149
2.42025
2.85272
3.1289
3.19759
3.10715
2.94588
2.76447
2.55534
2.30811
2.04099
1.76507
1.48952
1.22407
0.974611
0.744059
0.535607
0.350206
0.186465
0.0411145
-0.0901858
-0.211887
-0.327624
-0.439487
-0.547649
-0.65022
-0.742953
-0.819182
-0.873052
-0.899665
-0.896115
-0.862106
-0.800113
-0.715127
-0.614123
-0.50409
-0.395441
-0.298259
-0.221115
-0.169967
-0.147322
-0.151893
-0.178848
-0.220608
-0.268021
-0.312409
-0.347729
-0.369224
-0.374205
-0.362639
-0.334348
-0.29336
-0.24496
-0.194777
-0.148
-0.109695
-0.0828011
-0.0681806
-0.0643495
-0.0674283
-0.0715832
-0.0701456
-0.0572913
-0.0298183
0.0109092
0.0629627
0.116261
0.159194
0.182366
0.181694
0.159741
0.124824
0.0883113
0.061233
0.050649
0.0548654
0.0727902
0.103702
0.146276
0.199165
0.261428
0.332763
0.413488
0.504333
0.606054
0.718748
0.84178
0.973173
1.10959
1.24569
1.37311
1.48276
1.56616
1.61679
1.63101
1.60842
1.55179
1.4668
1.36154
1.24655
1.13201
1.0262
0.936416
0.868099
0.823758
0.806482
0.816556
0.846147
0.884974
0.921987
0.946945
0.951695
0.931035
0.883139
0.809516
0.714803
0.605041
0.48682
0.366054
0.24706
0.131723
0.0232519
0
0.549595
1.63501
3.09519
4.78048
6.45294
7.59866
7.59384
6.23822
4.09043
2.13076
1.01887
0.690668
0.658333
0.685712
0.725935
0.772677
0.827012
0.889667
0.957793
1.0246
1.08416
1.13454
1.17959
1.22822
1.29101
1.37552
1.48252
1.60211
1.72434
1.83804
1.9338
2.00636
2.05551
2.08554
2.10349
2.11698
2.1325
2.15397
2.18267
2.22059
2.26965
2.33223
2.41111
2.50915
2.62854
2.77019
2.93329
3.11525
3.31132
3.51743
3.73029
3.94774
4.16924
4.39765
4.64156
4.89978
5.15383
5.37392
5.53219
5.61261
5.61047
5.52639
5.36427
5.13429
4.85878
4.55536
4.2383
3.91858
3.60346
3.2964
3.00195
2.72541
2.4717
2.24533
2.0499
1.88633
1.75372
1.64962
1.57038
1.5142
1.47609
1.45028
1.43144
1.41523
1.39874
1.38079
1.3619
1.34398
1.32969
1.32111
1.32009
1.32805
1.34567
1.37275
1.40896
1.45333
1.50456
1.56093
1.62078
1.68005
1.73122
1.76598
1.77759
1.7634
1.72597
1.67203
1.60963
1.54537
1.48308
1.42374
1.36892
1.32194
1.28755
1.27094
1.27696
1.30872
1.36678
1.44918
1.55226
1.67184
1.80427
1.94649
2.09784
2.258
2.41959
2.56128
2.655
2.67534
2.6109
2.47173
2.28775
2.09934
1.94579
1.84821
1.79083
1.78186
1.81965
1.88906
1.96952
2.03992
2.08324
2.08938
2.05602
1.98797
1.89561
1.79385
1.69514
1.60946
1.54202
1.48852
1.44474
1.40498
1.36346
1.31606
1.26135
1.20057
1.13641
1.07129
1.00559
0.937275
0.862245
0.775647
0.673371
0.551932
0.412851
0.260387
0
0.508817
1.80904
3.55192
5.32391
6.74639
7.40608
6.94853
5.41362
3.41655
1.81044
1.06321
0.983502
1.06518
1.13375
1.19805
1.25605
1.30551
1.34511
1.37484
1.39631
1.41276
1.42864
1.4489
1.47785
1.51891
1.57397
1.64326
1.72451
1.8154
1.91313
2.01377
2.11275
2.20518
2.28473
2.34665
2.38897
2.41294
2.42353
2.42909
2.44015
2.46753
2.52026
2.60384
2.71396
2.84575
2.99574
3.15985
3.33383
3.51385
3.69682
3.88037
4.06269
4.24212
4.41591
4.57881
4.72559
4.84966
4.94369
5.00048
5.01391
4.97973
4.89611
4.76405
4.58771
4.37325
4.12818
3.86049
3.57807
3.29036
3.0035
2.72306
2.45487
2.20473
1.97815
1.78082
1.61468
1.47899
1.37051
1.28438
1.21564
1.15769
1.10525
1.05505
1.00587
0.957898
0.911948
0.868314
0.826435
0.785284
0.744422
0.70519
0.671372
0.648792
0.643768
0.663738
0.71879
0.796137
0.873893
0.929764
0.950249
0.935504
0.897711
0.854645
0.822408
0.805938
0.803092
0.814202
0.838845
0.875759
0.923166
0.979411
1.0403
1.10095
1.1564
1.20258
1.23712
1.2598
1.27243
1.27813
1.28037
1.28184
1.28422
1.2882
1.29418
1.30313
1.31713
1.33933
1.37305
1.42052
1.48794
1.57015
1.64861
1.7017
1.71349
1.6803
1.61165
1.52518
1.43887
1.36516
1.30361
1.25135
1.20819
1.17368
1.1471
1.12765
1.1143
1.10333
1.09017
1.07029
1.04032
0.998809
0.94635
0.884808
0.816055
0.740887
0.659244
0.569075
0.466031
0.342654
0.198788
0.0390853
-0.130348
0
0.815984
2.07898
3.62128
5.26088
6.59772
7.0537
6.30394
4.65586
2.87225
1.55583
0.750346
0.165734
0.0305155
0.115447
0.247152
0.411011
0.584893
0.746527
0.880727
0.992179
1.08928
1.17455
1.24942
1.31497
1.37212
1.42112
1.46222
1.49647
1.52602
1.55406
1.58413
1.6192
1.66036
1.70775
1.75996
1.81479
1.87014
1.92491
1.97953
2.03607
2.09781
2.16851
2.25111
2.34735
2.4584
2.58426
2.72396
2.8758
3.03772
3.20757
3.38331
3.56313
3.74561
3.92935
4.1118
4.28847
4.45048
4.58087
4.66202
4.67624
4.61104
4.46426
4.24674
3.98004
3.68981
3.39788
3.11532
2.83999
2.56954
2.30171
2.03346
1.76187
1.48511
1.20351
0.920249
0.641633
0.376801
0.154821
0.111822
0.329217
0.697453
1.02446
1.14917
1.03727
0.778014
0.497301
0.28405
0.19103
0.176519
0.218645
0.342952
0.553397
0.803873
1.01761
1.12919
1.08998
0.880297
0.535634
0.156487
-0.129262
-0.233502
-0.194179
-0.102433
0.0175194
0.166115
0.35194
0.606383
1.0005
1.45711
1.90476
2.22332
2.19758
1.66802
0.743708
-0.194162
-0.741593
-0.690247
-0.478225
-0.228115
0.0386099
0.297757
0.526206
0.719107
0.871496
0.98167
1.05332
1.0944
1.11533
1.1269
1.13836
1.15534
1.18069
1.2142
1.25374
1.29337
1.32391
1.3359
1.32178
1.27771
1.20492
1.11009
1.00466
0.903162
0.818712
0.781993
0.821714
0.916817
1.02204
1.08792
1.08298
1.00528
0.879498
0.744976
0.64138
0.580284
0.562054
0.576464
0.601206
0.609096
0.577428
0.495547
0.367754
0.193779
0
0.314581
1.54246
3.63871
5.90099
7.37119
7.4897
6.37465
4.55326
2.56151
0.81848
-0.311846
-0.598315
-0.206417
0.0278219
0.245683
0.443551
0.614535
0.755728
0.866555
0.948663
1.00571
1.04314
1.0679
1.08784
1.11093
1.14311
1.18856
1.25237
1.33104
1.41445
1.49045
1.54932
1.58738
1.60844
1.62217
1.64051
1.67341
1.72477
1.79248
1.87231
1.96192
2.06011
2.16679
2.28277
2.40925
2.54676
2.69476
2.85126
3.01302
3.17613
3.33713
3.49385
3.64613
3.79588
3.94678
4.10785
4.29594
4.49802
4.67742
4.78898
4.80111
4.70869
4.52813
4.28166
3.98598
3.65772
3.31795
2.97682
2.64208
2.32131
2.02102
1.74827
1.5096
1.30866
1.14609
1.02067
0.926269
0.853401
0.792893
0.737712
0.684046
0.631452
0.582137
0.539706
0.507791
0.487544
0.479114
0.482508
0.495385
0.514234
0.534978
0.553499
0.566466
0.572019
0.570003
0.561783
0.549702
0.536303
0.523554
0.512298
0.502045
0.491506
0.479021
0.463471
0.445068
0.425816
0.409439
0.400683
0.404126
0.422808
0.458276
0.512088
0.573954
0.630006
0.668547
0.684626
0.682109
0.672259
0.669436
0.685895
0.727995
0.787794
0.859812
0.940727
1.0272
1.1164
1.20614
1.29419
1.37736
1.4513
1.51
1.54653
1.55445
1.52957
1.4713
1.38321
1.27269
1.15052
1.02678
0.910307
0.807111
0.718188
0.645507
0.588339
0.544666
0.511989
0.48809
0.471528
0.461741
0.458725
0.46244
0.472115
0.486506
0.502159
0.514648
0.519389
0.512489
0.49129
0.454499
0.401983
0.334483
0.253348
0.0680025
0
0.693853
2.20202
4.12462
5.91783
7.11824
7.34895
6.3697
4.32993
1.93029
0.113511
-0.578725
-0.367328
-0.138541
0.0434051
0.216139
0.380896
0.539917
0.69455
0.844621
0.98857
1.124
1.24784
1.35695
1.44879
1.5209
1.57309
1.60665
1.62423
1.62972
1.62793
1.62418
1.62364
1.63062
1.64737
1.67468
1.71243
1.75986
1.81641
1.88254
1.96021
2.05293
2.16501
2.30043
2.46123
2.64553
2.84945
3.06644
3.28677
3.49894
3.693
3.86307
4.00884
4.13578
4.2529
4.37962
4.56424
4.80412
5.04738
5.22556
5.29226
5.23666
5.07208
4.82331
4.5258
4.22418
3.94166
3.68347
3.44324
3.21194
2.98561
2.76275
2.54378
2.33126
2.12947
1.94373
1.77956
1.64022
1.52661
1.43708
1.36784
1.31367
1.2689
1.22826
1.18768
1.14482
1.09926
1.05239
1.00729
0.968211
0.939355
0.923756
0.92272
0.934669
0.955806
0.981074
1.00543
1.02498
1.03771
1.0436
1.04414
1.04163
1.03824
1.03551
1.0341
1.03389
1.03434
1.03471
1.03442
1.03319
1.03104
1.02819
1.02489
1.02127
1.01727
1.01276
1.0077
1.00234
0.997519
0.994736
0.996135
1.00448
1.02283
1.05405
1.10029
1.16655
1.26049
1.37156
1.48145
1.56997
1.62144
1.62968
1.59964
1.54541
1.48643
1.44308
1.42365
1.43892
1.50646
1.6408
1.82887
2.01101
2.12462
2.11772
1.96603
1.69178
1.36536
1.07723
0.895002
0.814624
0.77286
0.751258
0.739289
0.728152
0.712265
0.689881
0.662647
0.63427
0.608705
0.588499
0.573288
0.561167
0.549155
0.533846
0.512215
0.482169
0.442755
0.394076
0.337072
0.273289
0.173559
0
0.480544
2.0643
4.45667
6.75016
8.07858
8.11581
7.02827
5.16377
2.93255
0.880534
-0.403073
-0.647512
-0.135272
0.34642
0.774915
1.11143
1.32398
1.37849
1.25826
1.00254
0.715894
0.522689
0.500006
0.611908
0.762043
0.922332
1.08098
1.22876
1.3599
1.47216
1.56623
1.64465
1.71074
1.76766
1.81825
1.86443
1.90845
1.95302
2.00159
2.05818
2.12693
2.21135
2.3136
2.43402
2.56935
2.71607
2.87063
3.0291
3.18771
3.34346
3.49453
3.64061
3.783
3.92427
4.06827
4.22347
4.39495
4.57084
4.72805
4.84119
4.89183
4.87192
4.78116
4.62338
4.40593
4.15003
3.87065
3.57731
3.27834
2.98037
2.68669
2.40052
2.12561
1.86595
1.62559
1.4083
1.21698
1.05413
0.920888
0.815728
0.735702
0.677931
0.638373
0.6138
0.60372
0.608035
0.627827
0.664054
0.716118
0.781707
0.855423
0.928846
0.994002
1.04549
1.08145
1.10303
1.11192
1.11049
1.09968
1.07948
1.05026
1.01402
0.974458
0.935725
0.900542
0.868474
0.837308
0.804241
0.767525
0.727807
0.689917
0.661477
0.650411
0.662107
0.697489
0.752792
0.82095
0.893798
0.964452
1.02887
1.08308
1.12208
1.14336
1.14505
1.12633
1.08814
1.03373
0.968668
0.900186
0.835961
0.782238
0.742094
0.718326
0.712175
0.723497
0.750986
0.792374
0.844455
0.903628
0.966016
1.02782
1.08573
1.13729
1.18118
1.2171
1.24572
1.26837
1.28741
1.30577
1.32663
1.35296
1.38696
1.42984
1.4805
1.53568
1.59022
1.63682
1.66759
1.67567
1.65618
1.60707
1.52957
1.4282
1.31041
1.18574
1.0645
0.954445
0.861238
0.788679
0.73779
0.706948
0.692766
0.690298
0.694309
0.699971
0.703186
0.700384
0.687603
0.661965
0.621049
0.563234
0.488174
0.397101
0.292802
0.179248
0.0580276
0
0.327246
1.53336
3.6154
5.91332
7.56844
8.09163
7.50087
6.07436
4.16214
2.22465
0.807902
0.242764
0.350011
0.452324
0.521942
0.58427
0.639676
0.689951
0.738374
0.789442
0.848013
0.917877
1.00016
1.09226
1.18747
1.27804
1.3557
1.41383
1.44887
1.46106
1.45424
1.435
1.41146
1.39208
1.38357
1.38934
1.4128
1.45554
1.51709
1.59493
1.68684
1.78705
1.88978
1.99115
2.09035
2.19014
2.29609
2.41506
2.5531
2.71339
2.89205
3.08433
3.28378
3.48233
3.67151
3.84357
3.99216
4.11296
4.20314
4.26053
4.27842
4.25326
4.18199
4.062
3.89253
3.67604
3.419
3.13176
2.82739
2.51991
2.2208
1.93945
1.68258
1.45422
1.2561
1.08828
0.949836
0.839318
0.754898
0.694192
0.657233
0.644204
0.644756
0.646624
0.638024
0.610524
0.561311
0.493966
0.417395
0.343323
0.282703
0.238912
0.214697
0.210528
0.224038
0.250565
0.284986
0.319729
0.347968
0.364784
0.367938
0.358155
0.338874
0.315628
0.295295
0.287931
0.353571
0.63812
1.11761
1.59842
1.82174
1.66018
1.19359
0.612965
0.102163
-0.173627
-0.24921
-0.256477
-0.213711
-0.133126
-0.030401
0.0785661
0.180907
0.272307
0.350211
0.415074
0.469364
0.515685
0.556272
0.591408
0.619117
0.63598
0.63861
0.62521
0.59664
0.556635
0.511134
0.466964
0.430295
0.405356
0.39254
0.390069
0.396321
0.407566
0.41991
0.430133
0.436264
0.437791
0.435576
0.431637
0.428935
0.430758
0.44097
0.463597
0.502299
0.559665
0.63828
0.743078
0.866422
0.9951
1.11387
1.20741
1.26481
1.28078
1.25613
1.1972
1.11451
1.02038
0.926187
0.839932
0.76527
0.698788
0.637886
0.580777
0.525363
0.469371
0.410534
0.347237
0.278283
0.201613
0.121556
0.0512409
0.00663455
0
0.0350306
0.101409
0.181329
0.255054
0.307725
0.341914
0.362105
0.370605
0.333
0.530616
1.42749
2.99084
4.88007
6.7416
8.28908
9.13786
8.81617
7.16066
4.68994
2.41066
1.11528
0.860305
1.14692
1.4551
1.74457
2.01917
2.27333
2.50327
2.70249
2.86617
2.99475
3.09032
3.15646
3.19805
3.22105
3.23188
3.23664
3.24006
3.24463
3.2508
3.25679
3.2595
3.25585
3.24412
3.22503
3.2021
3.18112
3.16882
3.17043
3.18951
3.22668
3.27984
3.34521
3.41897
3.49873
3.58433
3.67757
3.78105
3.8966
4.02289
4.15709
4.29492
4.43082
4.55891
4.6721
4.76551
4.83556
4.87957
4.89511
4.87906
4.82851
4.74069
4.61387
4.44835
4.24719
4.01628
3.76377
3.49879
3.23028
2.96493
2.70756
2.46147
2.22863
2.00986
1.80606
1.6165
1.43896
1.27084
1.10988
0.955087
0.807592
0.671036
0.551344
0.455813
0.416688
0.488745
0.647939
0.837411
0.990444
1.05997
1.03456
0.933303
0.790091
0.641254
0.516955
0.423929
0.363154
0.334409
0.332655
0.351866
0.389625
0.441004
0.500186
0.561089
0.617765
0.665419
0.701109
0.723955
0.73494
0.736349
0.731026
0.721625
0.710081
0.697409
0.683876
0.669332
0.653684
0.637248
0.620927
0.606145
0.594582
0.587762
0.586642
0.591334
0.601249
0.615357
0.631801
0.649251
0.667449
0.687296
0.710346
0.737848
0.769955
0.804407
0.835405
0.855478
0.858833
0.84445
0.817712
0.789691
0.774154
0.783418
0.8246
0.893328
0.9801
1.08151
1.18417
1.27209
1.33124
1.35233
1.33271
1.27696
1.19554
1.10187
1.00874
0.923197
0.847829
0.783723
0.730034
0.684733
0.64528
0.609063
0.573598
0.536652
0.496508
0.452562
0.405159
0.35591
0.307508
0.263114
0.22517
0.194492
0.169921
0.148706
0.127448
0.103141
0.072802
0
0.42882
1.29753
2.52001
4.0988
5.84363
7.16912
7.39376
6.31854
4.43986
2.53134
1.06293
0.0673509
-0.537102
-0.405563
-0.0905841
0.235076
0.552498
0.827232
1.03226
1.14886
1.17011
1.10586
0.986166
0.857106
0.76745
0.751934
0.81075
0.90461
1.01638
1.13546
1.25173
1.3571
1.44664
1.51902
1.57622
1.62262
1.66372
1.70488
1.7499
1.80132
1.86045
1.92773
2.00326
2.08751
2.18177
2.28834
2.41058
2.55249
2.71797
2.91051
3.13221
3.38314
3.67519
4.0298
4.39707
4.71161
4.91419
4.97609
4.91211
4.77199
4.61354
4.47442
4.35669
4.23752
4.10605
3.9512
3.76401
3.53924
3.27639
2.98022
2.66037
2.33038
2.00628
1.70468
1.43979
1.22123
1.05273
0.931915
0.85241
0.803179
0.771983
0.747864
0.722758
0.692184
0.655004
0.612498
0.567141
0.521419
0.476887
0.434148
0.392668
0.351237
0.308513
0.263546
0.216137
0.166992
0.117719
0.0707458
0.0287438
-0.00488729
-0.0263359
-0.0315947
-0.0168325
0.0204044
0.0818767
0.171196
0.290074
0.436339
0.594542
0.734036
0.826109
0.8527
0.812414
0.721134
0.60614
0.495941
0.41075
0.354191
0.313186
0.282828
0.257751
0.232654
0.203675
0.169327
0.130891
0.0920956
0.0581038
0.0341169
0.0240494
0.0267395
0.0416695
0.0674843
0.101864
0.142529
0.187194
0.232967
0.278397
0.32401
0.372401
0.427669
0.494137
0.574692
0.669291
0.773876
0.881857
0.984939
1.07469
1.14405
1.18824
1.20487
1.19343
1.15448
1.08914
0.999259
0.889701
0.76414
0.628074
0.488847
0.355125
0.235424
0.137346
0.0661331
0.023703
0.00823803
0.0202412
0.0505379
0.0851566
0.111491
0.12127
0.112234
0.0880703
0.0566719
0.0273743
0.00804844
0
0.010829
0.0303637
0.0540813
0.0761032
0.0882374
-0.0733124
0.0054863
0.856746
2.3205
3.96627
5.42749
6.43589
6.67603
5.86651
4.09834
1.98117
0.285589
-0.607892
-0.864667
-0.672723
-0.458918
-0.24511
-0.0388556
0.152618
0.324294
0.476453
0.608435
0.719505
0.809099
0.876859
0.923127
0.949655
0.960162
0.960447
0.957908
0.960246
0.974344
1.00528
1.05541
1.12168
1.20361
1.2961
1.38851
1.47099
1.53799
1.59085
1.63835
1.69445
1.77393
1.88731
2.03032
2.19442
2.37375
2.56103
2.7494
2.93406
3.11329
3.28878
3.46507
3.65518
3.93807
4.39527
4.95026
5.41002
5.57516
5.40742
5.06635
4.75709
4.54728
4.34834
4.11864
3.87261
3.61512
3.34872
3.07772
2.80793
2.54509
2.29544
2.06593
1.86217
1.68821
1.55213
1.45264
1.38505
1.34241
1.31696
1.30158
1.29085
1.28126
1.27085
1.25851
1.24383
1.22616
1.20488
1.17966
1.15077
1.11921
1.08674
1.05571
1.0286
1.00763
0.995523
0.992653
0.997385
1.00699
1.01863
1.03035
1.04183
1.05453
1.07125
1.0953
1.12826
1.17127
1.22478
1.28819
1.35985
1.43759
1.51876
1.60048
1.67976
1.75359
1.81865
1.87221
1.9119
1.93579
1.94237
1.9306
1.9
1.85091
1.78484
1.70509
1.61623
1.52405
1.4353
1.35777
1.29834
1.26252
1.25396
1.2743
1.32334
1.39933
1.49926
1.61929
1.75432
1.89918
2.04992
2.2028
2.35303
2.49378
2.61735
2.71479
2.77672
2.79498
2.76464
2.68568
2.56396
2.41091
2.24192
2.07384
1.9221
1.79364
1.68816
1.6109
1.55994
1.53068
1.51718
1.51359
1.51524
1.51906
1.52339
1.52716
1.52904
1.52705
1.51799
1.49763
1.46102
1.4029
1.31836
1.20347
1.05358
0.858508
0.625837
0.350308
0
0.663219
2.40232
4.78767
7.20395
9.02008
9.6296
8.66141
6.35944
3.67334
1.72742
1.03273
1.21138
1.42902
1.39444
1.35424
1.31314
1.27627
1.24988
1.24727
1.31077
1.50009
1.79356
2.09708
2.30588
2.34493
2.18528
1.85472
1.4523
1.13662
1.05386
1.1772
1.37227
1.58702
1.78742
1.947
2.05274
2.10646
2.12287
2.1249
2.13759
2.18171
2.26857
2.39152
2.54902
2.72025
2.88267
3.02035
3.12995
3.22131
3.31235
3.42021
3.55308
3.70582
3.8621
4.01159
4.14445
4.25233
4.32907
4.36828
4.36805
4.32818
4.24974
4.13473
3.98579
3.80606
3.59892
3.36801
3.11789
2.85465
2.58341
2.31037
2.04282
1.78941
1.55828
1.35631
1.18819
1.0557
0.957648
0.890153
0.847358
0.822266
0.807285
0.795553
0.780842
0.757816
0.722836
0.674073
0.611514
0.536766
0.452678
0.362932
0.271723
0.183952
0.106331
0.0456878
0.00884714
0.00137167
0.0258926
0.0807103
0.159377
0.251643
0.345563
0.430604
0.499072
0.547046
0.57429
0.583252
0.577638
0.561064
0.53728
0.507577
0.472422
0.431897
0.386313
0.336902
0.285899
0.236704
0.19384
0.161841
0.144374
0.143363
0.158446
0.186907
0.224067
0.26401
0.300359
0.327258
0.340381
0.337655
0.319741
0.290132
0.254791
0.221308
0.197678
0.190637
0.205014
0.242815
0.303043
0.382049
0.474264
0.573054
0.671563
0.763707
0.844115
0.908336
0.952894
0.975189
0.973317
0.945908
0.89214
0.812739
0.7091
0.584635
0.445207
0.298821
0.155798
0.0266866
-0.0796218
-0.157601
-0.206111
-0.224387
-0.220431
-0.205482
-0.190502
-0.183709
-0.189001
-0.205527
-0.228417
-0.25043
-0.264123
-0.265667
-0.254178
-0.230739
-0.189631
0
0.305456
1.25539
3.03153
5.07739
6.46077
6.60569
5.62672
4.02023
2.20867
0.454576
-0.949375
-1.67422
-1.51286
-1.28513
-1.04758
-0.785843
-0.459337
-0.0598137
0.318786
0.51168
0.419602
0.0970526
-0.291914
-0.580879
-0.659552
-0.571541
-0.2649
0.18156
0.618084
0.892996
0.943688
0.821632
0.626829
0.43288
0.291495
0.250306
0.290567
0.398074
0.563888
0.768801
0.997068
1.23172
1.44954
1.63225
1.77068
1.86666
1.93193
1.98447
2.04319
2.12301
2.22666
2.3494
2.48877
2.64147
2.80325
2.97014
3.13594
3.28992
3.41981
3.51215
3.55447
3.53815
3.46051
3.32519
3.14094
2.91937
2.67773
2.42627
2.17018
1.91235
1.65398
1.39534
1.1366
0.878572
0.623735
0.377855
0.149347
-0.0512115
-0.212479
-0.326174
-0.388121
-0.399048
-0.364148
-0.291664
-0.191105
-0.0718004
0.058316
0.191623
0.314844
0.412916
0.471153
0.480096
0.440365
0.364437
0.273917
0.1932
0.140059
0.114256
0.113173
0.134969
0.175525
0.229747
0.292683
0.359616
0.427529
0.4939
0.555853
0.610511
0.655302
0.688126
0.707808
0.714427
0.709374
0.695164
0.675113
0.653005
0.632516
0.616932
0.609126
0.611165
0.623881
0.648308
0.683568
0.722565
0.757482
0.782916
0.798667
0.810847
0.8305
0.870004
0.938543
1.03471
1.14912
1.27528
1.40443
1.52752
1.63672
1.72647
1.79373
1.83768
1.85891
1.85883
1.84026
1.80543
1.75731
1.69987
1.63813
1.57759
1.52387
1.48099
1.45078
1.43352
1.42541
1.41804
1.40379
1.37876
1.34449
1.30747
1.27653
1.25899
1.25681
1.26655
1.26825
1.23229
1.1286
0.936331
0.651773
0.291668
-0.109479
-0.439519
0
1.08561
2.75731
4.93457
7.21516
8.78146
8.85402
7.32823
4.90535
2.55414
0.869619
-0.0549467
-0.302572
0.182925
0.691982
1.12507
1.42204
1.56291
1.57352
1.51284
1.44923
1.4368
1.48315
1.58456
1.71474
1.83598
1.91463
1.93555
1.90799
1.85963
1.82277
1.8208
1.85011
1.89776
1.96044
2.03461
2.1168
2.20403
2.29379
2.38379
2.4717
2.55534
2.63305
2.70434
2.77046
2.83463
2.90182
2.97792
3.06847
3.17783
3.3082
3.45911
3.62648
3.80504
3.98902
4.17192
4.34704
4.50642
4.64007
4.74156
4.80546
4.82731
4.8036
4.73184
4.61076
4.44064
4.22389
3.96766
3.68446
3.38363
3.07506
2.7697
2.47824
2.21085
1.97648
1.78073
1.62585
1.51521
1.45629
1.44137
1.4466
1.44782
1.42611
1.37205
1.28718
1.18203
1.07155
0.9698
0.882591
0.809091
0.749368
0.704886
0.675764
0.662412
0.665636
0.686391
0.725307
0.78217
0.855481
0.942817
1.04067
1.14082
1.23386
1.31066
1.36421
1.39093
1.39111
1.36822
1.32727
1.27325
1.20981
1.13882
1.06184
0.980415
0.897536
0.818059
0.748581
0.696278
0.667723
0.667712
0.698503
0.759566
0.847865
0.958498
1.08551
1.22268
1.36362
1.5041
1.64071
1.77035
1.89123
2.00222
2.10233
2.18621
2.24176
2.25863
2.22403
2.12866
1.97396
1.776
1.5627
1.36468
1.20468
1.08023
0.98027
0.902292
0.843674
0.803127
0.781162
0.786207
0.829063
0.90807
1.01513
1.14407
1.28119
1.42433
1.5656
1.63087
1.5103
1.15142
0.608519
0
-0.49791
-0.369797
0.396334
2.014
4.37391
6.75911
8.15427
7.94787
6.32743
4.018
1.73709
-0.0588942
-1.07211
-1.10957
-0.443003
-0.0304394
0.283917
0.48577
0.592435
0.645812
0.693439
0.768229
0.872554
0.991238
1.11022
1.21647
1.3028
1.36934
1.42147
1.46582
1.50662
1.54442
1.57859
1.60787
1.63239
1.65419
1.6768
1.70446
1.74001
1.78611
1.84477
1.91718
2.00369
2.10376
2.21581
2.33735
2.4652
2.59622
2.72814
2.86039
2.99456
3.13413
3.2835
3.44635
3.62486
3.81908
4.02052
4.21478
4.38518
4.51646
4.59717
4.62035
4.58278
4.48368
4.32396
4.10655
3.83844
3.53468
3.2088
2.87318
2.54091
2.22409
1.92954
1.66409
1.43208
1.23522
1.07273
0.943394
0.845712
0.771595
0.712692
0.661844
0.614129
0.567183
0.520688
0.475262
0.431216
0.387671
0.342705
0.293832
0.238961
0.17744
0.110851
0.0432865
-0.0189825
-0.0683691
-0.0971262
-0.0860937
0.0282677
0.276424
0.579812
0.824243
0.905281
0.788122
0.532357
0.254843
0.0647614
0.0210842
0.0552816
0.121297
0.200604
0.274211
0.328007
0.357192
0.367547
0.37262
0.387892
0.424464
0.479866
0.548499
0.623677
0.69704
0.761086
0.811281
0.847351
0.873468
0.897313
0.928335
0.975648
1.05935
1.19231
1.35945
1.53434
1.68757
1.78734
1.81454
1.75523
1.60012
1.35266
1.0392
0.709603
0.423973
0.231708
0.115367
0.0396265
0.00241413
-0.00594006
0.00357456
0.0210848
0.0397293
0.0564642
0.07159
0.0872499
0.105468
0.126541
0.147725
0.162086
0.161093
0.137594
0.0883591
0.0151318
-0.155018
0
0.647889
1.88223
3.75082
5.91547
7.52501
7.68127
6.1604
3.64078
1.17918
-0.514843
-1.30755
-1.33039
-0.588779
0.0938568
0.596279
0.794848
0.678318
0.385916
0.120167
0.0168137
0.0891182
0.207896
0.334574
0.458539
0.572072
0.670974
0.754453
0.824345
0.883918
0.936597
0.984956
1.03044
1.07306
1.11216
1.14697
1.17719
1.20328
1.22664
1.24943
1.27441
1.30461
1.34278
1.39162
1.45365
1.5308
1.62421
1.73389
1.85828
1.99523
2.14165
2.29382
2.4477
2.59888
2.74227
2.87308
2.9858
3.07168
3.12258
3.13199
3.09464
3.00766
2.87138
2.68943
2.46816
2.21568
1.94113
1.65683
1.37109
1.0904
0.821149
0.569367
0.340341
0.138694
-0.0313801
-0.169723
-0.278717
-0.362833
-0.426735
-0.478556
-0.526205
-0.575775
-0.630453
-0.689979
-0.750814
-0.806974
-0.851386
-0.87748
-0.88108
-0.860662
-0.818068
-0.758173
-0.687946
-0.615162
-0.547126
-0.488637
-0.443385
-0.413533
-0.400095
-0.40307
-0.420377
-0.4484
-0.482723
-0.515402
-0.537449
-0.54037
-0.518033
-0.46828
-0.39374
-0.297735
-0.193537
-0.0957421
-0.0166995
0.0363244
0.062514
0.0671653
0.0598918
0.0519898
0.0533134
0.0676121
0.0962827
0.139701
0.196317
0.262582
0.33518
0.411004
0.487315
0.561873
0.632856
0.698235
0.75605
0.804553
0.842068
0.867207
0.8791
0.877525
0.862923
0.836322
0.799254
0.754452
0.704179
0.650768
0.5966
0.543845
0.494661
0.449975
0.409635
0.372951
0.339433
0.309423
0.284302
0.266084
0.256513
0.255955
0.262965
0.273033
0.277527
0.267053
0.234438
0.177425
0.100058
0.00857821
0
0.366625
1.18406
2.6675
4.70415
6.58897
7.38756
6.66777
4.84488
2.78404
1.12367
0.0171149
-0.601703
-0.637858
-0.346744
-0.0638787
0.199109
0.431292
0.625772
0.784615
0.909207
1.00375
1.07421
1.12707
1.16816
1.20173
1.23013
1.25403
1.27252
1.28513
1.29254
1.29732
1.30402
1.31849
1.34658
1.39259
1.45811
1.53964
1.63303
1.73471
1.84151
1.95166
2.06528
2.18441
2.31233
2.4526
2.60793
2.77882
2.96297
3.1568
3.35511
3.55159
3.73952
3.91202
4.06391
4.19148
4.29243
4.36535
4.40536
4.41111
4.38099
4.31351
4.20808
4.06585
3.89024
3.68701
3.46376
3.2292
2.99198
2.75834
2.5333
2.32055
2.12246
1.94031
1.77458
1.62515
1.49152
1.37296
1.26896
1.17847
1.10052
1.03438
0.979695
0.93649
0.905697
0.887817
0.883236
0.891933
0.913194
0.946446
0.989532
1.03736
1.08345
1.12108
1.14499
1.15272
1.14539
1.1274
1.10511
1.08502
1.07216
1.06928
1.0757
1.09114
1.11571
1.14998
1.19501
1.25171
1.32273
1.41084
1.50278
1.57881
1.61868
1.6093
1.55061
1.45665
1.35151
1.26216
1.20931
1.18926
1.20008
1.24235
1.31387
1.41009
1.52518
1.65355
1.783
1.90143
1.999
2.07045
2.11666
2.14471
2.16602
2.19302
2.24656
2.32317
2.39785
2.43462
2.40369
2.29584
2.12617
1.92705
1.7362
1.58596
1.46929
1.38449
1.33213
1.30889
1.30832
1.32203
1.34104
1.35726
1.36481
1.35945
1.33867
1.30141
1.24754
1.17742
1.09176
0.992127
0.879178
0.753843
0.617509
0.472162
0.31475
-0.158827
0
1.1301
3.03144
5.22766
7.24078
8.59611
8.7836
7.50493
5.06213
2.37764
0.447702
-0.30657
-0.16263
0.282204
0.526382
0.730647
0.881571
0.977088
1.02708
1.04975
1.0655
1.09081
1.13299
1.18782
1.25234
1.32356
1.39824
1.47361
1.54786
1.62021
1.69072
1.75979
1.82769
1.89416
1.95798
2.01758
2.07155
2.11957
2.16322
2.20629
2.25458
2.3149
2.39381
2.49575
2.61936
2.76306
2.92357
3.09573
3.27356
3.45078
3.62237
3.78576
3.94118
4.09097
4.23821
4.38955
4.54271
4.68388
4.79373
4.85598
4.86219
4.81049
4.70147
4.53567
4.32391
4.07743
3.80234
3.50828
3.20857
2.91551
2.63701
2.38039
2.15157
1.9558
1.80334
1.69197
1.60834
1.53663
1.46282
1.37817
1.28081
1.17517
1.06964
0.973588
0.890428
0.822767
0.772366
0.738277
0.718097
0.708962
0.706401
0.707292
0.710799
0.718544
0.733901
0.760601
0.801138
0.855538
0.920737
0.990549
1.05958
1.12213
1.17302
1.20787
1.22375
1.22015
1.1987
1.16303
1.11831
1.07064
1.02599
0.989188
0.963286
0.949438
0.947298
0.955742
0.973574
0.999011
1.03152
1.07065
1.11673
1.16694
1.21468
1.25208
1.27229
1.27192
1.25253
1.22036
1.1845
1.15441
1.13578
1.1305
1.14031
1.16708
1.21244
1.28379
1.40386
1.5901
1.82336
2.05468
2.22881
2.30414
2.26335
2.11636
1.89966
1.66783
1.473
1.34198
1.25811
1.19356
1.13793
1.08745
1.04
0.99494
0.9527
0.91384
0.879339
0.850411
0.828224
0.813666
0.807562
0.810259
0.818621
0.827256
0.829192
0.816993
0.784105
0.726078
0.641326
0.531312
0.235975
0
0.667907
2.37319
4.60009
6.59382
7.83943
8.14266
7.44028
5.77614
3.51303
1.3842
0.107329
-0.12817
0.260964
0.400223
0.516819
0.609937
0.679934
0.734884
0.787584
0.850767
0.93239
97
277
460
640
818
985
1148
1312
1476
1647
1834
2028
2207
2388
2565
2740
2911
3073
3235
3397
3563
3734
3651
3491
3646
0
0
0
0
0
0
0
0
0
0
0
0
0
0
0
0
0
0
0
0
0
0
0
0
0
0
0
0
0
0
0
0
0
0
0
0
0
0
0
0
0
0
0
0
0
0
0
0
0
0
0
0
0
0
0
0
0
0
0
0
0
0
0
0
0
0
0
0
0
0
0
0
0
0
0
0
0
0
0
0
0
0
0
0
0
0
0
0
0
0
0
0
0
0
0
0
0
0
0
0
0
0
0
0
0
0
0
0
0
0
0
0
0
0
0
0
0
0
0
0
0
0
0
0
0
0
0
0
0
0
0
0
0
0
0
0
0
0
0
0
0
0
0
0
0
0
0
0
0
0
0
0
0
0
0
0
0
0
0
0
0
0
0
0
0
0
0
0
0
0
0
0
0
0
0
0
0
0
0
0
0
0
0
0
0
0
0
0
0
0
0
0
0
0
0
0
0
0
0
0
0
0
0
0
0
0
0
0
0
0
0
0
0
0
0
0
0
0
0
0
0
0
0
0
0
0
0
0
0
0
0
0
0
0
0
0
0
0
0
0
0
0
0
0
0
0
0
0
0
0
0
0
0
0
0
0
0
0
0
0
0
0
0
0
0
0
0
0
0
0
0
0
0
0
0
0
0
0
0
0
0
0
0
0
0
0
0
0
0
0
0
0
0
0
0
0
0
0
0
0
0
0
0
0
0
0
0
0
0
0
0
0
0
0
0
0
0
0
0
0
0
0
0
0
0
0
0
0
0
0
0
0
0
0
0
0
0
0
0
0
0
0
0
0
0
0
0
0
0
0
0
0
0
0
0
0
0
0
0
0
0
0
0
0
0
0
0
0
0
0
0
0
0
0
0
0
0
0
0
0
0
0
0
0
0
0
0
0
0
0
0
0
0
0
0
0
0
0
0
0
0
0
0
0
0
0
0
0
0
0
0
0
0
0
0
0
0
0
0
0
0
0
0
0
0
0
0
0
0
0
0
0
0
0
0
0
0
0
0
0
0
0
0
0
0
0
0
0
0
0
0
0
0
0
0
0
0
0
0
0
0
0
0
0
0
0
0
0
0
0
0
0
0
0
0
0
0
0
0
0
0
0
0
0
0
0
0
0
0
0
0
0
0
0
0
0
0
0
0
0
0
0
0
0
0
0
0
0
0
0
0
0
0
0
0
0
0
0
0
0
0
0
0
0
0
0
0
0
0
0
0
0
0
0
0
0
0
0
0
0
0
0
0
0
0
0
0
0
0
0
0
0
0
0
0
0
0
0
0
0
0
0
0
0
0
0
0
0
0
0
0
0
0
0
0
0
0
0
0
0
0
0
0
0
0
0
0
0
0
0
0
0
0
0
0
0
0
0
0
0
0
0
0
0
0
0
0
0
0
0
0
0
0
0
0
0
0
0
0
0
0
0
0
0
0
0
0
0
0
0
0
0
0
0
0
0
0
0
0
0
0
0
0
0
0
0
0
0
0
0
0
0
0
0
0
0
0
0
0
0
0
0
0
0
0
0
0
0
0
0
0
0
0
0
0
0
0
0
0
0
0
0
0
0
0
0
0
0
0
0
0
0
0
0
0
0
0
0
0
0
0
0
0
0
0
0
0
0
0
0
0
0
0
0
0
0
0
0
0
0
0
0
0
0
0
0
0
0
0
0
0
0
0
0
0
0
0
0
0
0
0
0
0
0
0
0
0
0
0
0
0
0
0
0
0
0
0
0
0
0
0
0
0
0
0
0
0
0
0
0
0
0
0
0
0
0
0
0
0
0
0
0
0
0
0
0
0
0
0
0
0
0
0
0
0
0
0
0
0
0
0
0
0
0
0
0
0
0
0
0
0
0
0
0
0
0
0
0
0
0
0
0
0
0
0
0
0
0
0
0
0
0
0
0
0
0
0
0
0
0
0
0
0
0
0
0
0
0
0
0
0
0
0
0
0
0
0
0
0
0
0
0
0
0
0
0
0
0
0
0
0
0
0
0
0
0
0
0
0
0
0
0
0
0
0
0
0
0
0
0
0
0
0
0
0
0
0
0
0
0
0
0
0
0
0
0
0
0
0
0
0
0
0
0
0
0
0
0
0
0
0
0
0
0
0
0
0
0
0
0
0
0
0
0
0
0
0
0
0
0
0
0
0
0
0
0
0
0
0
0
0
0
0
0
0
0
0
0
0
0
0
0
0
0
0
0
0
0
0
0
0
0
0
0
0
0
0
0
0
0
0
0
0
0
0
0
0
0
0
0
0
0
0
0
0
0
0
0
0
0
0
0
0
0
0
0
0
0
0
0
0
0
0
0
0
0
0
0
0
0
0
0
0
0
0
0
0
0
0
0
0
0
0
0
0
0
0
0
0
0
0
0
0
0
0
0
0
0
0
0
0
0
0
0
0
0
0
0
0
0
0
0
0
0
0
0
0
0
0
0
0
0
0
0
0
0
0
0
0
0
0
0
0
0
0
0
0
0
0
0
0
0
0
0
0
0
0
0
0
0
0
0
0
0
0
0
0
0
0
0
0
0
0
0
0
0
0
0
0
0
0
0
0
0
0
0
0
0
0
0
0
0
0
0
0
0
0
0
0
0
0
0
0
0
0
0
0
0
0
0
0
0
0
0
0
0
0
0
0
0
0
0
0
0
0
0
0
0
0
0
0
0
0
0
0
0
0
0
0
0
0
0
0
0
0
0
0
0
0
0
0
0
0
0
0
0
0
0
0
0
0
0
0
0
0
0
0
0
0
0
0
0
0
0
0
0
0
0
0
0
0
0
0
0
0
0
0
0
0
0
0
0
0
0
0
0
0
0
0
0
0
0
0
0
0
0
0
0
0
0
0
0
0
0
0
0
0
0
0
0
0
0
0
0
0
0
0
0
0
0
0
0
0
0
0
0
0
0
0
0
0
0
0
0
0
0
0
0
0
0
0
0
0
0
0
0
0
0
0
0
0
0
0
0
0
0
0
0
0
0
0
0
0
0
0
0
0
0
0
0
0
0
0
0
0
0
0
0
0
0
0
0
0
0
0
0
0
0
0
0
0
0
0
0
0
0
0
0
0
0
0
0
0
0
0
0
0
0
0
0
0
0
0
0
0
0
0
0
0
0
0
0
0
0
0
0
0
0
0
0
0
0
0
0
0
0
0
0
0
0
0
0
0
0
0
0
0
0
0
0
0
0
0
0
0
0
0
0
0
0
0
0
0
0
0
0
0
0
0
0
0
0
0
0
0
0
0
0
0
0
0
0
0
0
0
0
0
0
0
0
0
0
0
0
0
0
0
0
0
0
0
0
0
0
0
0
0
0
0
0
0
0
0
0
0
0
0
0
0
0
0
0
0
0
0
0
0
0
0
0
0
0
0
0
0
0
0
0
0
0
0
0
0
0
0
0
0
0
0
0
0
0
0
0
0
0
0
0
0
0
0
0
0
0
0
0
0
0
0
0
0
0
0
0
0
0
0
0
0
0
0
0
0
0
0
0
0
0
0
0
0
0
0
0
0
0
0
0
0
0
0
0
0
0
0
0
0
0
0
0
0
0
0
0
0
0
0
0
0
0
0
0
0
0
0
0
0
0
0
0
0
0
0
0
0
0
0
0
0
0
0
0
0
0
0
0
0
0
0
0
0
0
0
0
0
0
0
0
0
0
0
0
0
0
0
0
0
0
0
0
0
0
0
0
0
0
0
0
0
0
0
0
0
0
0
0
0
0
0
0
0
0
0
0
0
0
0
0
0
0
0
0
0
0
0
0
0
0
0
0
0
0
0
0
0
0
0
0
0
0
0
0
0
0
0
0
0
0
0
0
0
0
0
0
0
0
0
0
0
0
0
0
0
0
0
0
0
0
0
0
0
0
0
0
0
0
0
0
0
0
0
0
0
0
0
0
0
0
0
0
0
0
0
0
0
0
0
0
0
0
0
0
0
0
0
0
0
0
0
0
0
0
0
0
0
0
0
0
0
0
0
0
0
0
0
0
0
0
0
0
0
0
0
0
0
0
0
0
0
0
0
0
0
0
0
0
0
0
0
0
0
0
0
0
0
0
0
0
0
0
0
0
0
0
0
0
0
0
0
0
0
0
0
0
0
0
0
0
0
0
0
0
0
0
0
0
0
0
0
0
0
0
0
0
0
0
0
0
0
0
0
0
0
0
0
0
0
0
0
0
0
0
0
0
0
0
0
0
0
0
0
0
0
0
0
0
0
0
0
0
0
0
0
0
0
0
0
0
0
0
0
0
0
0
0
0
0
0
0
0
0
0
0
0
0
0
0
0
0
0
0
0
0
0
0
0
0
0
0
0
0
0
0
0
0
0
0
0
0
0
0
0
0
0
0
0
0
0
0
0
0
0
0
0
0
0
0
0
0
0
0
0
0
0
0
0
0
0
0
0
0
0
0
0
0
0
0
0
0
0
0
0
0
0
0
0
0
0
0
0
0
0
0
0
0
0
0
0
0
0
0
0
0
0
0
0
0
0
0
0
0
0
0
0
0
0
0
0
0
0
0
0
0
0
0
0
0
0
0
0
0
0
0
0
0
0
0
0
0
0
0
0
0
0
0
0
0
0
0
0
0
0
0
0
0
0
0
0
0
0
0
0
0
0
0
0
0
0
0
0
0
0
0
0
0
0
0
0
0
0
0
0
0
0
0
0
0
0
0
0
0
0
0
0
0
0
0
0
0
0
0
0
0
0
0
0
0
0
0
0
0
0
0
0
0
0
0
0
0
0
0
0
0
0
0
0
0
0
0
0
0
0
0
0
0
0
0
0
0
0
0
0
0
0
0
0
0
0
0
0
0
0
0
0
0
0
0
0
0
0
0
0
0
0
0
0
0
0
0
0
0
0
0
0
0
0
0
0
0
0
0
0
0
0
0
0
0
0
0
0
0
0
0
0
0
0
0
0
0
0
0
0
0
0
0
0
0
0
0
0
0
0
0
0
0
0
0
0
0
0
0
0
0
0
0
0
0
0
0
0
0
0
0
0
0
0
0
0
0
0
0
0
0
0
0
0
0
0
0
0
0
0
0
0
0
0
0
0
0
0
0
0
0
0
0
0
0
0
0
0
0
0
0
0
0
0
0
0
0
0
0
0
0
0
0
0
0
0
0
0
0
0
0
0
0
0
0
0
0
0
0
0
0
0
0
0
0
0
0
0
0
0
0
0
0
0
0
0
0
0
0
0
0
0
0
0
0
0
0
0
0
0
0
0
0
0
0
0
0
0
0
0
0
0
0
0
0
0
0
0
0
0
0
0
0
0
0
0
0
0
0
0
0
0
0
0
0
0
0
0
0
0
0
0
0
0
0
0
0
0
0
0
0
0
0
0
0
0
0
0
0
0
0
0
0
0
0
0
0
0
0
0
0
0
0
0
0
0
0
0
0
0
0
0
0
0
0
0
0
0
0
0
0
0
0
0
0
0
0
0
0
0
0
0
0
0
0
0
0
0
0
0
0
0
0
0
0
0
0
0
0
0
0
0
0
0
0
0
0
0
0
0
0
0
0
0
0
0
0
0
0
0
0
0
0
0
0
0
0
0
0
0
0
0
0
0
0
0
0
0
0
0
0
0
0
0
0
0
0
0
0
0
0
0
0
0
0
0
0
0
0
0
0
0
0
0
0
0
0
0
0
0
0
0
0
0
0
0
0
0
0
0
0
0
0
0
0
0
0
0
0
0
0
0
0
0
0
0
0
0
0
0
0
0
0
0
0
0
0
0
0
0
0
0
0
0
0
0
0
0
0
0
0
0
0
0
0
0
0
0
0
0
0
0
0
0
0
0
0
0
0
0
0
0
0
0
0
0
0
0
0
0
0
0
0
0
0
0
0
0
0
0
0
0
0
0
0
0
0
0
0
0
0
0
0
0
0
0
0
0
0
0
0
0
0
0
0
0
0
0
0
0
0
0
0
0
0
0
0
0
0
0
0
0
0
0
0
0
0
0
0
0
0
0
0
0
0
0
0
0
0
0
0
0
0
0
0
0
0
0
0
0
0
0
0
0
0
0
0
0
0
0
0
0
0
0
0
0
0
0
0
0
0
0
0
0
0
0
0
0
0
0
0
0
0
0
0
0
0
0
0
0
0
0
0
0
0
0
0
0
0
0
0
0
0
0
0
0
0
0
0
0
0
0
0
0
0
0
0
0
0
0
0
0
0
0
0
0
0
0
0
0
0
0
0
0
0
0
0
0
0
0
0
0
0
0
0
0
0
0
0
0
0
0
0
0
0
0
0
0
0
0
0
0
0
0
0
0
0
0
0
0
0
0
0
0
0
0
0
0
0
0
0
0
0
0
0
0
0
0
0
0
0
0
0
0
0
0
0
0
0
0
0
0
0
0
0
0
0
0
0
0
0
0
0
0
0
0
0
0
0
0
0
0
0
0
0
0
0
0
0
0
0
0
0
0
0
0
0
0
0
0
0
0
0
0
0
0
0
0
0
0
0
0
0
0
0
0
0
0
0
0
0
0
0
0
0
0
0
0
0
0
0
0
0
0
0
0
0
0
0
0
0
0
0
0
0
0
0
0
0
0
0
0
0
0
0
0
0
0
0
0
0
0
0
0
0
0
0
0
0
0
0
0
0
0
0
0
0
0
0
0
0
0
0
0
0
0
0
0
0
0
0
0
0
0
0
0
0
0
0
0
0
0
0
0
0
0
0
0
0
0
0
0
0
0
0
0
0
0
0
0
0
0
0
0
0
0
0
0
0
0
0
0
0
0
0
0
0
0
0
0
0
0
0
0
0
0
0
0
0
0
0
0
0
0
0
0
0
0
0
0
0
0
0
0
0
0
0
0
0
0
0
0
0
0
0
0
0
0
0
0
0
0
0
0
0
0
0
0
0
0
0
0
0
0
0
0
0
0
0
0
0
0
0
0
0
0
0
0
0
0
0
0
0
0
0
0
0
0
0
0
0
0
0
0
0
0
0
0
0
0
0
0
0
0
0
0
0
0
0
0
0
0
0
0
0
0
0
0
0
0
0
0
0
0
0
0
0
0
0
0
0
0
0
0
0
0
0
0
0
0
0
0
0
0
0
0
0
0
0
0
0
0
0
0
0
0
0
0
0
0
0
0
0
0
0
0
0
0
0
0
0
0
0
0
0
0
0
0
0
0
0
0
0
0
0
0
0
0
0
0
0
0
0
0
0
0
0
0
0
0
0
0
0
0
0
0
0
0
0
0
0
0
0
0
0
0
0
0
0
0
0
0
0
0
0
0
0
0
0
0
0
0
0
0
0
0
0
0
0
0
0
0
0
0
0
0
0
0
0
0
0
0
0
0
0
0
0
0
0
0
0
0
0
0
0
0
0
0
0
0
0
0
0
0
0
0
0
0
0
0
0
0
0
0
0
0
0
0
0
0
0
0
0
0
0
0
0
0
0
0
0
0
0
0
0
0
0
0
0
0
0
0
0
0
0
0
0
0
0
0
0
0
0
0
0
0
0
0
0
0
0
0
0
0
0
0
0
0
0
0
0
0
0
0
0
0
0
0
0
0
0
0
0
0
0
0
0
0
0
0
0
0
0
0
0
0
0
0
0
0
0
0
0
0
0
0
0
0
0
0
0
0
0
0
0
0
0
0
0
0
0
0
0
0
0
0
0
0
0
0
0
0
0
0
0
0
0
0
0
0
0
0
0
0
0
0
0
0
0
0
0
0
0
0
0
0
0
0
0
0
0
0
0
0
0
0
0
0
0
0
0
0
0
0
0
0
0
0
0
0
0
0
0
0
0
0
0
0
0
0
0
0
0
0
0
0
0
0
0
0
0
0
0
0
0
0
0
0
0
0
0
0
0
0
0
0
0
0
0
0
0
0
0
0
0
0
0
0
0
0
0
0
0
0
0
0
0
0
0
0
0
0
0
0
0
0
0
0
0
0
0
0
0
0
0
0
0
0
0
0
0
0
0
0
0
0
0
0
0
0
0
0
0
0
0
0
0
0
0
0
0
0
0
0
0
0
0
0
0
0
0
0
0
0
0
0
0
0
0
0
0
0
0
0
0
0
0
0
0
0
0
0
0
0
0
0
0
0
0
0
0
0
0
0
0
0
0
0
0
0
0
0
0
0
0
0
0
0
0
0
0
0
0
0
0
0
0
0
0
0
0
0
0
0
0
0
0
0
0
0
0
0
0
0
0
0
0
0
0
0
0
0
0
0
0
0
0
0
0
0
0
0
0
0
0
0
0
0
0
0
0
0
0
0
0
0
0
0
0
0
0
0
0
0
0
0
0
0
0
0
0
0
0
0
0
0
0
0
0
0
0
0
0
0
0
0
0
0
0
0
0
0
0
0
0
0
0
0
0
0
0
0
0
0
0
0
0
0
0
0
0
0
0
0
0
0
0
0
0
0
0
0
0
0
0
0
0
0
0
0
0
0
0
0
0
0
0
0
0
0
0
0
0
0
0
0
