0.762188
0.75902
0.758937
0.765656
0.784306
0.819408
0.881304
0.963341
1.0507
1.1255
1.17361
1.18978
1.17911
1.15475
1.13355
1.13018
1.14803
1.18851
1.25434
1.3602
1.5268
1.71912
1.88884
1.9901
1.9996
1.92929
1.82016
1.71816
1.64836
1.60418
1.56195
1.51286
1.45194
1.37935
1.30032
1.22328
1.15712
1.10934
1.08262
1.0738
1.07392
1.07125
1.05575
1.02168
0.968396
0.89906
0.81814
0.728798
0.631444
0.525469
0.410293
0.28496
0.150295
0.000915146
0
0.466523
1.69807
3.74487
6.11769
7.92559
8.44473
7.60199
5.9217
4.05484
2.40759
1.15309
0.408503
0.239503
0.4362
0.529973
0.612324
0.686128
0.751637
0.809685
0.861585
0.909065
0.954351
1.00003
1.0493
1.10604
1.18167
1.34962
1.70434
2.17369
2.56893
2.70337
2.53244
2.1799
1.83495
1.63299
1.6178
1.66774
1.73576
1.8127
1.89457
1.97896
2.06527
2.15452
2.2489
2.35115
2.46382
2.58814
2.72488
2.87418
3.03541
3.20733
3.38818
3.57591
3.76805
3.961
4.148
4.3148
4.44661
4.52854
4.54955
4.50599
4.40245
4.24876
4.05457
3.82476
3.56305
3.27945
2.97767
2.65863
2.32501
1.98197
1.63701
1.29965
0.981273
0.692902
0.444133
0.263
0.212896
0.27815
0.398562
0.506879
0.553539
0.52321
0.436152
0.33562
0.268373
0.265611
0.306357
0.372176
0.450878
0.52852
0.59247
0.633586
0.647029
0.631943
0.590714
0.528496
0.45537
0.379478
0.3107
0.259132
0.232751
0.235364
0.265434
0.31642
0.378635
0.441942
0.498186
0.542999
0.574407
0.59209
0.596249
0.587752
0.567243
0.536635
0.499838
0.462748
0.432255
0.414508
0.413076
0.427028
0.453585
0.486197
0.516893
0.539409
0.55104
0.553301
0.551251
0.551844
0.561849
0.58597
0.625811
0.685332
0.753534
0.811526
0.840741
0.830089
0.781398
0.710477
0.642966
0.606782
0.624286
0.685755
0.809478
1.00569
1.24772
1.49039
1.68606
1.80311
1.82653
1.75501
1.60244
1.40042
1.192
1.01438
0.882998
0.778684
0.684893
0.596704
0.513435
0.436199
0.367598
0.311376
0.273643
0.257883
0.263738
0.287846
0.327382
0.372513
0.405791
0.409971
0.371499
0.284724
0.155251
0
-0.229297
-0.0306966
0.826172
2.50187
4.80542
7.01875
8.19031
7.77212
6.01924
3.75083
1.72682
0.263865
-0.636086
-0.97088
-0.451615
0.0955042
0.596968
0.960688
1.1254
1.09565
0.93449
0.735522
0.595203
0.580679
0.643185
0.733153
0.829122
0.91104
0.965655
0.990004
0.991471
0.984646
0.98641
1.00876
1.05418
1.12228
1.21057
1.31496
1.43158
1.55642
1.6856
1.81603
1.94605
2.07578
2.20705
2.34299
2.4871
2.64213
2.80894
2.98627
3.16988
3.35201
3.52393
3.67789
3.8086
3.91387
3.99419
4.05144
4.0874
4.10262
4.09581
4.06408
4.00384
3.91188
3.78661
3.62873
3.44159
3.23105
3.00615
2.77473
2.54396
2.32043
2.10974
1.91614
1.7426
1.59089
1.46025
1.34835
1.25184
1.1671
1.09105
1.02185
0.959284
0.904652
0.86022
0.828431
0.811065
0.808645
0.821784
0.848086
0.88425
0.926964
0.97337
1.02112
1.06684
1.10472
1.12718
1.12762
1.10464
1.0652
1.02367
0.996685
0.996182
1.02205
1.06346
1.11185
1.15803
1.19491
1.21911
1.23115
1.23439
1.23325
1.2314
1.23044
1.23016
1.22905
1.22482
1.21538
1.19988
1.17942
1.15722
1.13808
1.12724
1.12883
1.14491
1.17588
1.21691
1.2616
1.30452
1.34326
1.37924
1.41697
1.46199
1.51849
1.58547
1.66132
1.74159
1.82012
1.89016
1.94529
1.97989
1.98997
1.97325
1.92954
1.86114
1.77318
1.67355
1.57217
1.4794
1.40867
1.37703
1.37754
1.39189
1.39949
1.3873
1.35488
1.31198
1.27094
1.23862
1.21069
1.18103
1.14362
1.09226
1.02171
0.928595
0.81197
0.673543
0.517554
0.322065
0
0.307679
1.71544
4.08237
6.59305
8.26396
8.54725
7.52047
5.64837
3.49012
1.58488
0.385843
0.0787073
0.424518
0.609435
0.774762
0.930508
1.07551
1.21044
1.33659
1.45557
1.56855
1.6753
1.77482
1.86493
1.94295
2.0065
2.05435
2.08688
2.10623
2.11596
2.12053
2.12469
2.13272
2.14826
2.17393
2.21141
2.2613
2.32318
2.39587
2.47757
2.5666
2.66209
2.76384
2.87236
2.98863
3.11375
3.24849
3.39308
3.54708
3.70937
3.87874
4.05376
4.23268
4.41409
4.59723
4.78781
5.07201
5.48354
5.87797
6.01902
5.78376
5.25762
4.6303
4.05043
3.64157
3.39182
3.18518
2.99547
2.8179
2.64896
2.48601
2.32772
2.17422
2.02661
1.88634
1.75413
1.63025
1.51353
1.40199
1.29355
1.18693
1.08249
0.982754
0.893993
0.823281
0.777418
0.760973
0.782182
0.832464
0.896884
0.95861
1.00394
1.0259
1.02526
1.00899
0.987074
0.968475
0.957399
0.955197
0.961586
0.974263
0.988296
0.999007
1.00356
1.00188
0.996545
0.991801
0.99197
0.999905
1.01583
1.03707
1.05971
1.07545
1.07578
1.05489
1.01244
0.955048
0.895531
0.849286
0.829187
0.841069
0.873384
0.918856
0.971067
1.02377
1.07221
1.11389
1.14861
1.17792
1.20427
1.23008
1.25694
1.2856
1.31553
1.3453
1.37295
1.39634
1.41312
1.42075
1.41628
1.39642
1.3586
1.30179
1.22769
1.1414
1.05132
0.968043
0.911956
0.905438
0.94551
1.01015
1.06515
1.07596
1.01702
0.877853
0.665988
0.406652
0.137796
-0.0991573
-0.262634
-0.169514
0.163879
0.56225
0.840882
0.847935
0.53583
0
-0.546815
-0.177546
1.27814
3.40447
5.51925
7.04701
7.62544
7.05114
5.34289
2.91668
0.556099
-0.98359
-1.43826
-1.11386
-0.70523
-0.319623
0.0397735
0.367649
0.662333
0.90463
1.10007
1.25311
1.33757
1.31835
1.19159
1.00505
0.835938
0.743678
0.739605
0.768448
0.806166
0.847001
0.888134
0.930017
0.975821
1.03023
1.09801
1.18275
1.28569
1.40497
1.53812
1.68271
1.836
1.99534
2.1583
2.32265
2.48626
2.64692
2.80223
2.94968
3.08633
3.20897
3.31603
3.40719
3.48375
3.54865
3.60624
3.66163
3.71977
3.78687
3.86936
3.95404
4.01396
4.01711
3.93784
3.76677
3.51478
3.20981
2.88843
2.58531
2.30714
2.05232
1.82282
1.61745
1.4329
1.26511
1.11079
0.969581
0.844748
0.740231
0.660764
0.609531
0.586427
0.58759
0.606264
0.634551
0.665269
0.693599
0.717688
0.736393
0.749321
0.756238
0.757195
0.752201
0.741282
0.724675
0.703044
0.677656
0.650407
0.623743
0.600456
0.583168
0.573901
0.57375
0.582743
0.599925
0.623617
0.65174
0.681965
0.712246
0.740615
0.764721
0.782419
0.791818
0.791644
0.781791
0.763838
0.741296
0.71942
0.704618
0.703023
0.719003
0.758521
0.818645
0.890147
0.961584
1.02312
1.06983
1.10316
1.13009
1.16046
1.20338
1.2623
1.33643
1.42205
1.514
1.60724
1.69564
1.7726
1.83236
1.87009
1.88205
1.86596
1.82134
1.74971
1.65446
1.54059
1.41446
1.28264
1.15148
1.02635
0.912171
0.813476
0.734012
0.67641
0.642333
0.634504
0.653428
0.694562
0.751992
0.819683
0.891246
0.951799
0.981948
0.95924
0.86347
0.685768
0.436197
0.143493
0
0.477103
1.66776
3.52741
5.69435
7.4309
7.955
6.99038
5.0113
2.90174
1.34843
0.530199
0.282306
0.427569
0.604066
0.763804
0.892089
0.980045
1.02576
1.03408
1.01569
0.985744
0.961383
0.956321
0.981324
1.0411
1.13166
1.24199
1.3623
1.47961
1.58422
1.67211
1.74523
1.80959
1.87136
1.93422
1.99495
2.04531
2.07785
2.09182
2.09593
2.10635
2.14107
2.2136
2.31996
2.45181
2.60362
2.77208
2.95461
3.14932
3.355
3.57077
3.79555
4.03012
4.26869
4.49339
4.68252
4.81709
4.88703
4.89372
4.84724
4.75961
4.63741
4.48265
4.29878
4.08597
3.84252
3.57021
3.27563
2.96958
2.66508
2.37484
2.10835
1.87257
1.6685
1.49349
1.34332
1.21424
1.10436
1.01396
0.945004
0.899937
0.878538
0.881182
0.907785
0.95783
1.02711
1.10792
1.18679
1.24848
1.2808
1.27765
1.24073
1.1791
1.10664
1.03814
0.985899
0.954161
0.938682
0.937893
0.950618
0.974761
1.00777
1.04711
1.09099
1.13857
1.19
1.24605
1.30896
1.38028
1.45473
1.52263
1.57186
1.59112
1.57304
1.51653
1.4278
1.32021
1.21233
1.12192
1.06396
1.04705
1.07127
1.12886
1.20728
1.29379
1.3796
1.46246
1.54308
1.62408
1.70833
1.79729
1.89044
1.98291
2.06673
2.13386
2.17876
2.19954
2.19751
2.17529
2.13493
2.07709
2.0028
1.91335
1.81304
1.70978
1.61397
1.5362
1.48429
1.46004
1.46812
1.49581
1.52491
1.53665
1.51671
1.45892
1.36643
1.25004
1.12386
0.99979
0.881626
0.767222
0.65207
0.529096
0.391597
0.2361
0.0222484
0
0.69474
2.19814
4.38225
6.77072
8.5598
8.99573
7.88986
5.78079
3.54734
1.83372
0.812352
0.380672
0.424519
0.593566
0.74509
0.884586
1.01015
1.12164
1.21975
1.30492
1.37665
1.4346
1.47712
1.50302
1.5122
1.50614
1.48798
1.46234
1.43499
1.41224
1.40088
1.40711
1.43594
1.49062
1.57211
1.67903
1.80779
1.9532
2.10901
2.26818
2.42506
2.57378
2.70799
2.82419
2.92123
3.00073
3.06721
3.12762
3.19043
3.26436
3.35701
3.47235
3.61277
3.78841
4.00291
4.24969
4.50969
4.74246
4.92109
5.02238
5.01416
4.87148
4.60492
4.26404
3.908
3.57519
3.27093
2.98311
2.70675
2.44214
2.19134
1.95649
1.73982
1.54317
1.36755
1.21338
1.08054
0.968569
0.876744
0.804135
0.749509
0.711166
0.687091
0.675083
0.671427
0.672299
0.674281
0.67483
0.672562
0.667291
0.659869
0.65189
0.6453
0.641989
0.643712
0.651749
0.666564
0.688824
0.717146
0.744088
0.760249
0.757179
0.730667
0.683007
0.623055
0.563814
0.51838
0.494663
0.489012
0.499807
0.522651
0.551474
0.579884
0.602237
0.614529
0.614679
0.602436
0.579076
0.547052
0.509712
0.471068
0.435549
0.407241
0.38987
0.385965
0.396178
0.419274
0.452077
0.488339
0.521655
0.547419
0.564396
0.573965
0.588721
0.798276
1.2531
1.7721
2.12593
2.22873
2.15675
2.00162
1.75355
1.36013
0.888691
0.53169
0.372458
0.364255
0.407934
0.463753
0.490642
0.459762
0.36567
0.229554
0.0911862
-0.00830654
-0.0445885
-0.0328494
0
0.0439242
0.0892235
0.129754
0.162963
0.188669
0.208339
0.224109
0.237839
0.25045
0.256707
0.307431
0.898222
2.35108
4.38805
6.20301
7.01587
6.57068
5.15822
3.2874
1.42049
-0.0598264
-0.85033
-0.859185
-0.483962
-0.137015
0.162621
0.398756
0.563712
0.686731
0.772925
0.83055
0.869692
0.900336
0.930271
0.963508
1.00027
1.03549
1.06221
1.07514
1.07342
1.06161
1.0485
1.04442
1.05826
1.09404
1.14718
1.21413
1.29288
1.38108
1.4764
1.57692
1.68133
1.78913
1.90053
2.01647
2.13849
2.26848
2.4083
2.55933
2.72202
2.89555
3.07835
3.26707
3.45532
3.63573
3.79838
3.92901
4.01985
4.06537
4.06239
4.01032
3.91125
3.76952
3.59068
3.38032
3.14425
2.89267
2.63164
2.36505
2.09721
1.83339
1.57965
1.34248
1.12806
0.941805
0.792879
0.698465
0.652949
0.637466
0.630453
0.61441
0.58092
0.531946
0.477199
0.429217
0.398389
0.382891
0.380748
0.389748
0.404569
0.418325
0.423316
0.413385
0.385611
0.34156
0.28765
0.234334
0.19602
0.203429
0.287546
0.452679
0.656826
0.833684
0.936295
0.934894
0.816303
0.598199
0.338806
0.118185
-0.00313738
0.0260232
0.574302
1.39078
2.26851
2.89435
2.95877
2.42015
1.6007
0.94662
0.675059
0.685235
0.715656
0.747783
0.78124
0.81755
0.859421
0.910251
0.97323
1.05028
1.14114
1.24297
1.35037
1.45659
1.55381
1.63488
1.69421
1.72832
1.73592
1.71769
1.67585
1.61369
1.53521
1.44536
1.34816
1.24726
1.14604
1.0473
0.953443
0.866686
0.788509
0.719827
0.661015
0.611972
0.572143
0.540466
0.515219
0.493841
0.47291
0.447281
0.411426
0.360546
0.291731
0.20471
0.10015
-0.102621
0
0.577752
1.74643
3.52798
5.58057
7.13044
7.37373
6.07765
3.79793
1.47686
-0.182253
-0.99169
-1.08815
-0.603487
-0.192577
0.172019
0.470064
0.690126
0.83176
0.904706
0.925943
0.916088
0.896178
0.883111
0.887384
0.9165
0.976274
1.08379
1.22288
1.35626
1.44654
1.4717
1.43544
1.36601
1.30329
1.28144
1.31714
1.38618
1.47283
1.57199
1.68014
1.79452
1.91342
2.03613
2.16267
2.29358
2.42955
2.5711
2.71815
2.86981
3.02408
3.17791
3.3273
3.46696
3.59122
3.69538
3.77564
3.82925
3.85433
3.84948
3.81342
3.74466
3.64159
3.5048
3.33463
3.13185
2.89904
2.64129
2.36547
2.07887
1.78934
1.50484
1.23309
0.981866
0.758164
0.56775
0.413713
0.296833
0.215388
0.165293
0.140626
0.134477
0.139955
0.151106
0.163504
0.174544
0.183124
0.189156
0.192981
0.194631
0.193423
0.187882
0.175865
0.155589
0.126483
0.0900868
0.0504699
0.0140209
-0.01177
-0.0166553
0.0144884
0.0771421
0.154988
0.226789
0.274824
0.291739
0.282826
0.26302
0.250116
0.257201
0.284154
0.323603
0.367599
0.408462
0.439882
0.458383
0.463733
0.458403
0.446454
0.432586
0.420528
0.413409
0.41393
0.424519
0.447449
0.484867
0.538697
0.610469
0.704404
0.839601
1.03665
1.269
1.49084
1.65108
1.71337
1.66739
1.52626
1.31868
1.08341
0.8633
0.682094
0.543001
0.438131
0.357472
0.299468
0.263534
0.244581
0.236418
0.232589
0.227323
0.216381
0.197604
0.171029
0.138606
0.103765
0.0700508
0.0407395
0.0185251
0.00494738
0
0.00593247
0.020686
0.0677403
0.222306
0.652578
1.71449
3.42477
5.21477
6.24223
6.01147
4.6963
2.89612
1.16087
-0.222883
-1.11066
-1.34833
-0.843631
-0.347654
0.0991358
0.444575
0.647713
0.771247
0.836956
0.859694
0.860435
0.861831
0.88266
0.933275
1.00952
1.10041
1.20075
1.30604
1.41328
1.5213
1.6303
1.7408
1.85267
1.96373
2.06973
2.1648
2.24385
2.30412
2.3465
2.3759
2.40055
2.43055
2.4759
2.5447
2.64039
2.75908
2.89622
3.04771
3.20628
3.3628
3.50894
3.63893
3.75097
3.84774
3.93608
4.02672
4.17785
4.44834
4.78205
5.05518
5.15539
5.04949
4.78161
4.41638
4.00163
3.59262
3.23594
2.92437
2.65015
2.4082
2.20017
2.02074
1.86252
1.7181
1.58197
1.45171
1.32814
1.21451
1.11506
1.03346
0.970012
0.924682
0.895561
0.879194
0.871086
0.866487
0.860376
0.848701
0.829671
0.804524
0.777794
0.756822
0.751022
0.782571
0.88043
1.04758
1.23544
1.38509
1.45136
1.41895
1.30935
1.17572
1.08276
1.07635
1.15337
1.27677
1.39052
1.4427
1.40592
1.28709
1.12576
0.980552
0.906078
0.918597
0.987209
1.08081
1.18677
1.29602
1.40112
1.49679
1.57987
1.64911
1.70386
1.74558
1.77649
1.7992
1.81635
1.83022
1.84216
1.85216
1.8581
1.85487
1.83647
1.79753
1.73575
1.65367
1.55883
1.46199
1.37541
1.30762
1.25806
1.21829
1.17627
1.12183
1.05091
0.966951
0.879206
0.799108
0.733562
0.684287
0.649707
0.627449
0.61456
0.603583
0.585162
0.550594
0.493604
0.411689
0.306596
0.183763
0
0.0244084
0.583605
1.9803
4.10206
6.24784
7.49973
7.3532
6.01842
4.15674
2.39095
1.0567
0.270328
0.0340998
0.18199
0.257632
0.32757
0.39349
0.455621
0.514524
0.570971
0.625812
0.679884
0.733933
0.788656
0.844718
0.902729
0.963181
1.02633
1.09206
1.15981
1.22856
1.29696
1.36337
1.42642
1.4854
1.5406
1.59363
1.64731
1.70542
1.77215
1.85144
1.94597
2.05627
2.1827
2.32477
2.48105
2.64945
2.82734
3.01177
3.1995
3.38703
3.57008
3.74192
3.89562
4.02501
4.12457
4.18997
4.2185
4.20914
4.16227
4.07904
3.96073
3.81201
3.63573
3.43378
3.21014
2.97249
2.72808
2.48413
2.24834
2.0279
1.82881
1.65588
1.50976
1.38827
1.28718
1.20118
1.12506
1.05456
0.986923
0.920971
0.856812
0.795221
0.737332
0.683839
0.634928
0.590412
0.550124
0.514363
0.484191
0.461389
0.447996
0.447022
0.46296
0.491284
0.522433
0.544753
0.548326
0.528566
0.488214
0.437134
0.390254
0.398387
0.626889
1.04196
1.47132
1.69126
1.58457
1.22683
0.820385
0.551869
0.501579
0.553716
0.620594
0.686604
0.743116
0.786831
0.819834
0.847901
0.877676
0.913828
0.956979
1.00412
1.05149
1.09531
1.13359
1.16712
1.19958
1.23652
1.2837
1.34532
1.42248
1.51455
1.61576
1.71163
1.78633
1.82639
1.82346
1.77543
1.68604
1.56361
1.41948
1.26762
1.11859
0.979008
0.854369
0.748159
0.661698
0.596377
0.55189
0.526809
0.518686
0.524866
0.543329
0.565914
0.580121
0.572547
0.531545
0.450183
0.328442
0.173811
0
-0.305058
-0.285566
0.527106
2.29925
4.61151
6.66524
7.77899
7.69706
6.5322
4.5913
2.33646
0.381546
-0.721484
-0.841706
-0.405013
-0.235835
-0.0728972
0.0818622
0.226491
0.361872
0.487557
0.603473
0.710097
0.80825
0.898891
0.982702
1.05852
1.12422
1.17775
1.21669
1.23973
1.24811
1.24612
1.24045
1.23847
1.24646
1.26623
1.29825
1.34335
1.40227
1.47614
1.5665
1.67488
1.80184
1.9461
2.10388
2.26932
2.43377
2.58686
2.72021
2.82953
2.91566
2.98432
3.04461
3.10693
3.18108
3.2918
3.50579
3.82306
4.16963
4.44031
4.55388
4.50222
4.33573
4.10247
3.81331
3.46654
3.10024
2.73881
2.39409
2.07131
1.76997
1.49139
1.23846
1.01292
0.815525
0.646328
0.50494
0.390765
0.303059
0.240732
0.203397
0.194124
0.210897
0.243566
0.280523
0.311105
0.328063
0.329167
0.3173
0.298939
0.281503
0.269837
0.266963
0.26945
0.270353
0.262897
0.244337
0.218144
0.193396
0.1816
0.192344
0.22486
0.274413
0.336637
0.405013
0.472196
0.531181
0.576332
0.60455
0.615179
0.609657
0.590889
0.562518
0.528273
0.49154
0.455225
0.421517
0.392272
0.369857
0.356918
0.355543
0.367236
0.392569
0.43105
0.481328
0.54169
0.610717
0.687837
0.772973
0.867442
0.973914
1.10234
1.26939
1.45727
1.63154
1.75227
1.79079
1.74222
1.62527
1.47139
1.31197
1.16913
1.04104
0.922116
0.808604
0.697545
0.58693
0.476087
0.365994
0.259047
0.158393
0.0671032
-0.0133986
-0.0818065
-0.136782
-0.176511
-0.201109
-0.210827
-0.206371
-0.18943
-0.163063
-0.131664
-0.10037
-0.106828
0
0.594493
1.79498
3.56205
5.59028
7.24383
7.78748
6.8742
4.8588
2.57114
0.727093
-0.45003
-1.08529
-1.21959
-0.814019
-0.43024
-0.105963
0.129223
0.264736
0.344349
0.397208
0.433354
0.461779
0.48932
0.519666
0.554871
0.595912
0.643195
0.696944
0.757368
0.824633
0.898699
0.979175
1.06544
1.1565
1.25111
1.3482
1.44687
1.54629
1.64532
1.7417
1.83238
1.91456
1.98743
2.05394
2.12164
2.20184
2.30704
2.44735
2.62249
2.82601
3.04913
3.28174
3.5086
3.71318
3.88136
4.00325
4.07364
4.09136
4.05798
3.97652
3.85066
3.68514
3.48961
3.27043
3.03353
2.78562
2.53368
2.28432
2.04323
1.81509
1.60351
1.41108
1.23953
1.08991
0.962426
0.856413
0.770135
0.701188
0.646451
0.600817
0.559088
0.51684
0.471221
0.421447
0.368824
0.316248
0.267293
0.225063
0.192669
0.170796
0.157485
0.150107
0.14694
0.148206
0.155958
0.172824
0.200162
0.237756
0.279712
0.31726
0.341493
0.346279
0.330203
0.296933
0.254161
0.211637
0.178785
0.159639
0.157159
0.173381
0.20571
0.247691
0.291788
0.331656
0.364004
0.389354
0.411488
0.435838
0.467519
0.50792
0.556859
0.613341
0.675416
0.740653
0.805633
0.867516
0.925055
0.978909
1.03135
1.08538
1.14443
1.20829
1.27062
1.32008
1.34382
1.33184
1.28077
1.19538
1.08753
0.972674
0.865212
0.774069
0.698201
0.632071
0.57268
0.517452
0.46477
0.414507
0.367994
0.32764
0.296426
0.275784
0.26533
0.262507
0.260701
0.251288
0.226407
0.180922
0.113558
0.0269621
-0.0732013
-0.18853
0
0.459495
1.36801
2.87166
4.71091
6.17028
6.52181
5.5686
3.75217
1.76609
0.119818
-0.963432
-1.40277
-1.01927
-0.617764
-0.242967
0.0694998
0.302831
0.482654
0.635279
0.761647
0.860252
0.929835
0.970132
0.984024
0.978882
0.966356
0.960381
0.974255
1.02743
1.12256
1.23756
1.3393
1.39816
1.3996
1.35014
1.27617
1.2157
1.20512
1.2664
1.3875
1.53936
1.70577
1.87811
2.04866
2.21087
2.3605
2.49614
2.61945
2.73496
2.84951
2.97259
3.13657
3.39878
3.72251
4.02458
4.22091
4.27642
4.21809
4.09961
3.95319
3.77689
3.57151
3.35264
3.1274
2.89977
2.67268
2.44703
2.2227
1.99972
1.7785
1.56021
1.34704
1.14231
0.950253
0.775627
0.623255
0.497203
0.402245
0.344443
0.327319
0.350129
0.402233
0.459754
0.500378
0.50945
0.483998
0.432939
0.372949
0.321576
0.290868
0.282738
0.288141
0.301773
0.321196
0.344199
0.368839
0.39325
0.415054
0.431705
0.440844
0.440956
0.432012
0.415787
0.395722
0.376328
0.362334
0.356855
0.361603
0.377589
0.404425
0.440475
0.483213
0.529713
0.57715
0.623269
0.666604
0.706478
0.743153
0.778001
0.813215
0.851524
0.895782
0.94844
1.011
1.08356
1.16453
1.2506
1.33742
1.41677
1.47979
1.51895
1.52967
1.51139
1.4676
1.40471
1.33009
1.25007
1.16881
1.0877
1.00684
0.925788
0.843819
0.760201
0.674461
0.58674
0.497995
0.410163
0.326283
0.250137
0.185721
0.13652
0.104778
0.090994
0.094147
0.111199
0.138076
0.170358
0.205171
0
0.17622
1.07711
2.61329
4.37062
5.86558
6.68396
6.50497
5.21335
3.10769
0.911816
-0.606682
-1.14536
-1.00101
-0.757427
-0.517383
-0.284592
-0.0629871
0.145843
0.342336
0.525257
0.691353
0.838148
0.964077
1.06901
1.15459
1.22416
1.28231
1.33392
1.38297
1.43185
1.47954
1.52133
1.5512
1.56469
1.56121
1.54488
1.52393
1.50895
1.51082
1.5331
1.57734
1.64634
1.74104
1.86029
2.00043
2.15728
2.32612
2.50214
2.68101
2.85941
3.03525
3.20774
3.37707
3.54394
3.70857
3.8697
4.02216
4.15578
4.25752
4.31486
4.3181
4.26055
4.13725
3.94474
3.68321
3.3737
3.03211
2.6744
2.31982
1.98424
1.67482
1.39839
1.15899
0.956806
0.791597
0.659373
0.549373
0.450794
0.354853
0.256184
0.153307
0.0481933
-0.0548322
-0.150414
-0.234823
-0.305525
-0.359938
-0.396626
-0.414807
-0.410929
-0.382113
-0.341478
-0.305576
-0.289633
-0.302089
-0.340919
-0.393838
-0.442701
-0.470392
-0.468349
-0.442026
-0.398619
-0.348869
-0.303077
-0.267599
-0.243216
-0.225872
-0.20916
-0.187195
-0.157211
-0.120712
-0.0784468
-0.0310217
0.0210646
0.0776251
0.138739
0.204512
0.274757
0.348737
0.425129
0.502026
0.577005
0.648073
0.714259
0.775913
0.834579
0.892431
0.951452
1.01262
1.07534
1.13737
1.19483
1.24302
1.27711
1.29288
1.28726
1.25859
1.20672
1.13299
1.04014
0.93315
0.817505
0.698194
0.58047
0.469249
0.368475
0.282179
0.212589
0.158973
0.118871
0.0888142
0.0650971
0.0443262
0.0235496
0
-0.0245383
-0.0587607
-0.10656
-0.171289
-0.254632
-0.355649
-0.470485
-0.593917
-0.721934
-0.384382
0.296595
1.40743
2.96047
4.61319
5.70897
5.71664
4.64612
3.0086
1.39341
0.127085
-0.704066
-1.06393
-0.861081
-0.668047
-0.484872
-0.319412
-0.177575
-0.0598319
0.0372356
0.115053
0.176209
0.223926
0.261548
0.292147
0.318265
0.341872
0.364421
0.386934
0.410312
0.435543
0.463877
0.496902
0.536528
0.584789
0.643492
0.713781
0.795743
0.888804
0.990675
1.09808
1.20793
1.31828
1.42883
1.54101
1.65732
1.78036
1.91188
2.05146
2.19782
2.34878
2.50155
2.65301
2.79923
2.93625
3.06028
3.16588
3.2454
3.29314
3.30385
3.27344
3.19957
3.08191
2.9224
2.72547
2.49835
2.25281
2.00146
1.75273
1.5139
1.29095
1.08805
0.907462
0.749612
0.613536
0.497283
0.398246
0.314188
0.242397
0.178464
0.117993
0.0572359
-0.00613689
-0.0724184
-0.139668
-0.203473
-0.257798
-0.296615
-0.31527
-0.311274
-0.284317
-0.235602
-0.166858
-0.0794432
0.0246998
0.1431
0.275953
0.423114
0.588241
0.773729
0.967737
1.15318
1.31161
1.42765
1.49239
1.50491
1.47204
1.40696
1.32715
1.25127
1.19528
1.17191
1.18198
1.23452
1.36101
1.55716
1.7742
1.95062
2.03266
1.99349
1.8432
1.62828
1.42073
1.29396
1.26715
1.3282
1.44443
1.56853
1.65799
1.68839
1.65669
1.57878
1.48568
1.41728
1.40023
1.47855
1.63715
1.82776
1.99276
2.08924
2.09919
2.02641
1.88932
1.71527
1.53483
1.37119
1.23517
1.12452
1.03179
0.953153
0.887296
0.832635
0.787163
0.748843
0.715889
0.687315
0.663286
0.645222
0.635576
0.638694
0.660057
0.704443
0.775567
0.86587
0.94774
0.990903
0.973053
0.888833
0.752648
0.154439
0
0.797625
2.44458
4.43761
6.20031
7.28654
7.39754
6.42537
4.60259
2.53552
0.918367
0.10694
-0.0345429
0.156959
0.40228
0.642425
0.872713
1.08809
1.28437
1.45494
1.59788
1.71308
1.80225
1.86863
1.91655
1.95075
1.97556
1.99428
2.00907
2.02126
2.03119
2.03908
2.04529
2.05037
2.05503
2.05998
2.06583
2.07321
2.08293
2.09624
2.11499
2.14169
2.17926
2.23073
2.29821
2.38397
2.49003
2.618
2.76903
2.94351
3.14455
3.37968
3.64377
3.91317
4.15376
4.33439
4.43554
4.45366
4.40019
4.29582
4.16167
4.01087
3.84496
3.66234
3.46369
3.24791
3.01332
2.76055
2.49271
2.2153
1.93532
1.66072
1.39988
1.16191
0.954073
0.782219
0.652098
0.567392
0.528931
0.535442
0.612167
0.773715
0.983585
1.19662
1.37168
1.48308
1.52391
1.50013
1.42117
1.29362
1.12672
0.932664
0.698988
0.438706
0.192896
0.00929279
-0.0778545
-0.0637203
0.0295597
0.1719
0.342515
0.530919
0.724622
0.915808
1.09898
1.26823
1.41878
1.54583
1.64595
1.7177
1.76193
1.7816
1.78108
1.76526
1.73865
1.70608
1.67015
1.63226
1.5934
1.55427
1.51553
1.47792
1.44267
1.41194
1.38812
1.3739
1.37175
1.38347
1.40972
1.44991
1.50219
1.56377
1.63089
1.69962
1.76659
1.82836
1.88145
1.9229
1.95028
1.96197
1.95742
1.93739
1.90412
1.86139
1.81429
1.76868
1.73026
1.70403
1.69377
1.70479
1.74388
1.79994
1.85661
1.89971
1.92379
1.93575
1.95492
2.05152
2.24488
2.47254
2.62656
2.62405
2.44939
2.14848
1.80028
1.49204
1.28109
1.13747
1.05881
1.04499
1.08875
1.17741
1.29562
1.42829
1.56562
1.70469
1.84772
2.00924
2.21423
2.447
2.65575
2.77862
2.77543
2.64492
2.42551
2.18389
1.99103
1.88152
1.82399
1.78545
1.75239
1.71477
1.666
1.60416
1.53203
1.45588
1.38331
1.32035
1.27065
1.23489
1.21206
1.20064
1.19412
1.18138
1.15041
1.0904
0.993826
0.858045
0.685876
0.485139
0.235266
0
0.396827
1.83355
4.17901
6.78745
8.89567
9.98389
9.8402
8.47853
6.15802
3.45453
1.12127
-0.291091
-0.720286
-0.491501
-0.128009
0.212326
0.51158
0.760502
0.971095
1.15225
1.30911
1.44681
1.56926
1.67924
1.77812
1.86562
1.94058
2.0025
2.05151
2.08864
2.11587
2.13588
2.15157
2.16545
2.17906
2.19259
2.20452
2.21281
2.21658
2.21762
2.22095
2.2342
2.26584
2.32286
2.40505
2.50803
2.6295
2.76494
2.90881
3.05634
3.20462
3.35303
3.50287
3.65624
3.81571
3.98194
4.14602
4.29405
4.4118
4.48893
4.52066
4.50636
4.44685
4.34241
4.19969
4.01914
3.80313
3.557
3.28924
3.01122
2.73469
2.46781
2.21836
1.99297
1.79684
1.63418
1.50615
1.41151
1.34825
1.32076
1.33887
1.38181
1.41884
1.41943
1.36423
1.25518
1.11712
0.988477
0.905866
0.890857
0.91515
0.962067
1.0259
1.10076
1.1807
1.25971
1.33064
1.38805
1.42815
1.44889
1.44997
1.43269
1.39982
1.35534
1.30431
1.2527
1.20612
1.16987
1.14802
1.14253
1.15142
1.17217
1.20063
1.23228
1.26342
1.29196
1.31778
1.34244
1.36857
1.39916
1.4363
1.4817
1.53751
1.60639
1.69361
1.80184
1.90886
1.98168
1.98687
1.90744
1.75612
1.573
1.40659
1.2915
1.2351
1.20503
1.18814
1.1803
1.17711
1.17429
1.16731
1.15062
1.12025
1.07408
1.01288
0.941109
0.866814
0.80054
0.753245
0.733859
0.743861
0.779442
0.837661
0.91301
0.998036
1.08526
1.16387
1.22386
1.25884
1.26695
1.25163
1.22167
1.18973
1.16955
1.17229
1.20338
1.26567
1.34774
1.43223
1.50147
1.542
1.54663
1.51406
1.44748
1.35393
1.2448
1.13648
1.04656
0.993011
0.99005
1.04064
1.12715
1.24011
1.37118
1.51074
1.64982
1.78139
1.90138
2.009
2.10643
2.19695
2.28485
2.37617
2.46476
2.53211
2.55546
2.5181
2.41613
2.25868
2.06321
1.84968
1.63644
1.43272
1.24317
1.07215
0.926219
0.810037
0.727017
0.678784
0.669203
0.710152
0.830287
1.02226
1.22665
1.37417
1.39265
1.24689
0.971626
0.653634
0.375023
0.169495
0
-0.0341915
0.337587
1.29951
2.815
4.66316
6.55593
8.09456
8.71854
7.9491
5.85349
3.22104
1.1055
0.0732454
-0.115768
-0.0910351
0.0619244
0.229526
0.409487
0.604132
0.813213
1.03411
1.26236
1.49231
1.71737
1.9265
2.10327
2.23878
2.32868
2.37578
2.3917
2.39534
2.40756
2.44397
2.50981
2.59522
2.68846
2.78383
2.87732
2.96731
3.05436
3.1402
3.22656
3.31432
3.40325
3.49257
3.58167
3.67067
3.7607
3.8538
3.95231
4.05808
4.17182
4.29301
4.41962
4.54847
4.67576
4.79749
4.91039
5.01219
5.10154
5.17484
5.22558
5.25074
5.24532
5.20339
5.11989
4.99248
4.82222
4.61309
4.3706
4.10322
3.82088
3.52874
3.23081
2.93156
2.63623
2.35074
2.08129
1.83386
1.61357
1.42435
1.26927
1.14911
1.06279
1.01181
1.00425
1.03135
1.06408
1.07451
1.04645
0.985139
0.918301
0.884815
0.916042
1.02103
1.20447
1.42318
1.61185
1.72328
1.73238
1.63745
1.45965
1.23414
0.998265
0.790599
0.639412
0.541525
0.514433
0.617667
0.839532
1.09579
1.29749
1.38463
1.33924
1.18443
0.976888
0.788344
0.673045
0.633302
0.624179
0.620132
0.609811
0.588212
0.557223
0.523858
0.49713
0.4822
0.491826
0.520149
0.550884
0.564011
0.545101
0.492816
0.420329
0.349632
0.301653
0.287236
0.292925
0.309895
0.331436
0.351643
0.367169
0.378217
0.388605
0.405013
0.435674
0.488641
0.606791
0.818484
1.0736
1.2906
1.39619
1.36516
1.23246
1.07189
0.957948
0.929758
0.948824
0.981695
0.988063
0.942612
0.851631
0.75249
0.694343
0.722163
0.845766
1.013
1.15509
1.21844
1.17965
1.04722
0.85721
0.66355
0.521474
0.468083
0.488109
0.546551
0.627831
0.726858
0.836333
0.94891
1.05771
1.15358
1.2265
1.26976
1.27765
1.24614
1.17423
1.06506
0.926376
0.769757
0.609069
0.4565
0.31828
0.199992
0.105579
0.036377
-0.00189209
-0.0146378
-0.010363
0.00198059
0.0150444
0.024279
0.0278801
0.0255913
0.0169815
0
-0.0193314
-0.0546478
-0.111292
-0.193703
-0.304273
-0.442566
-0.60508
-0.785562
-0.983556
-1.03671
-0.753218
0.314478
2.37931
4.96914
7.07478
7.82726
7.05363
5.22881
3.01824
0.94724
-0.607937
-1.37883
-1.34175
-1.03653
-0.790234
-0.559251
-0.345078
-0.15041
0.0224792
0.170131
0.287072
0.370017
0.418314
0.435135
0.427605
0.405729
0.380476
0.361634
0.356193
0.36626
0.388913
0.422688
0.466457
0.519073
0.579712
0.647919
0.723692
0.807177
0.898232
0.996068
1.10003
1.20611
1.30717
1.39678
1.472
1.53547
1.59537
1.66333
1.75091
1.86604
2.00503
2.1602
2.32746
2.50031
2.67119
2.83233
2.97595
3.09173
3.1728
3.2132
3.20782
3.15272
3.04568
2.88693
2.67973
2.43063
2.14919
1.84921
1.54323
1.24213
0.955735
0.692509
0.459301
0.259035
0.0912125
-0.0474022
-0.161576
-0.259087
-0.347318
-0.431715
-0.514739
-0.595587
-0.670688
-0.734866
-0.782868
-0.811344
-0.809344
-0.773181
-0.721125
-0.676519
-0.65879
-0.675376
-0.718451
-0.768348
-0.802191
-0.803647
-0.778713
-0.732439
-0.674628
-0.616621
-0.567638
-0.532308
-0.510154
-0.496999
-0.487474
-0.477538
-0.466498
-0.455778
-0.448465
-0.448951
-0.462207
-0.492876
-0.544289
-0.617564
-0.710949
-0.819559
-0.936527
-1.04367
-0.936267
-0.480498
0.129694
0.589811
0.710186
0.495697
0.0622925
-0.448236
-0.853033
-0.908241
-0.781689
-0.623611
-0.469454
-0.347292
-0.272348
-0.246761
-0.264322
-0.315089
-0.386643
-0.461959
-0.529692
-0.579501
-0.603933
-0.602897
-0.583525
-0.547682
-0.497831
-0.436378
-0.36536
-0.283562
-0.19118
-0.0981651
-0.0196854
0.0283192
0.0362347
0.00573769
-0.0508686
-0.11647
-0.176412
-0.225977
-0.267687
-0.302542
-0.330879
-0.352361
-0.365815
-0.3693
-0.360674
-0.338308
-0.301616
-0.249796
-0.184472
-0.10739
-0.0195694
0.0790924
0.189478
0.312282
0.448567
0.594364
0.742362
0.881181
0.995869
1.07385
1.10634
1.08957
1.0253
0.9207
0.787622
0.640863
0.495685
0.362509
0.244413
0.144962
0.0657578
0.00675926
-0.0331303
-0.055571
-0.0625805
-0.0566513
-0.0411022
-0.0199116
0
0.0174088
0.0113415
-0.0292694
-0.112841
-0.243466
-0.420047
-0.636442
-0.882472
-1.20725
-1.37488
-0.706044
1.01235
3.36261
5.56939
7.00309
7.40413
6.7608
5.19541
3.063
1.0122
-0.298861
-0.664415
-0.455659
-0.259961
-0.0737888
0.103233
0.264513
0.403349
0.514175
0.59399
0.643342
0.666453
0.670385
0.663548
0.654286
0.648015
0.648199
0.656677
0.673084
0.696356
0.725343
0.758711
0.795405
0.834962
0.877665
0.924472
0.976728
1.03568
1.10196
1.17518
1.25493
1.33889
1.42507
1.51319
1.60574
1.70816
1.82786
1.97226
2.14624
2.34766
2.57073
2.80825
3.04733
3.27407
3.47615
3.64473
3.77524
3.86674
3.9204
3.93769
3.91888
3.86268
3.76676
3.62924
3.45037
3.2338
2.98694
2.72014
2.44507
2.17234
1.90932
1.66112
1.43036
1.21777
1.02297
0.845373
0.6848
0.542177
0.418456
0.314624
0.231216
0.167984
0.123821
0.0981876
0.0886526
0.0925655
0.107199
0.129761
0.157359
0.187011
0.215742
0.240771
0.260127
0.272114
0.275706
0.270896
0.25821
0.238884
0.214703
0.187738
0.159971
0.133415
0.109621
0.0897583
0.0748144
0.0657883
0.0637318
0.0696173
0.084092
0.107015
0.137196
0.173615
0.214723
0.25869
0.303663
0.34772
0.389315
0.427581
0.462312
0.493643
0.521265
0.542805
0.554738
0.552189
0.53122
0.491577
0.438335
0.381288
0.332063
0.300219
0.285922
0.289133
0.305475
0.328507
0.351723
0.370173
0.381285
0.384914
0.382929
0.378644
0.375979
0.378619
0.389448
0.409678
0.439363
0.474197
0.502736
0.512242
0.493458
0.444881
0.374681
0.299199
0.23836
0.209703
0.244438
0.359314
0.504276
0.614779
0.63951
0.564919
0.426745
0.295568
0.237894
0.278333
0.373183
0.479981
0.586471
0.684838
0.77048
0.841878
0.899638
0.944297
0.978381
1.00401
1.02264
1.03508
1.04133
1.03963
1.02745
1.00106
0.956501
0.891036
0.804576
0.700468
0.585235
0.467342
0.354615
0.252459
0.165109
0.0949947
0.0429524
0.00867691
-0.00883799
-0.0110681
0
0.0221678
0.0540896
0.088705
0.118286
0.136299
0.139115
0.125964
-0.272915
-0.213543
0.647352
2.17052
4.01303
5.79582
7.0698
7.32419
6.27485
4.21628
1.97159
0.351717
-0.38195
-0.525939
-0.440567
-0.308248
-0.175832
-0.0463727
0.0769565
0.189778
0.287105
0.366222
0.426089
0.468002
0.495756
0.51496
0.531514
0.549718
0.570806
0.592541
0.610461
0.619585
0.616481
0.600868
0.576187
0.548983
0.527383
0.519229
0.530043
0.55807
0.602452
0.66205
0.734226
0.815942
0.904268
0.995638
1.087
1.1777
1.26983
1.36792
1.47771
1.60444
1.75109
1.91715
2.09661
2.28365
2.47032
2.64725
2.8058
2.93717
3.03106
3.0827
3.0891
3.04913
2.96382
2.83664
2.67329
2.48108
2.26793
2.04291
1.81315
1.5823
1.35271
1.12603
0.903293
0.685149
0.472227
0.265505
0.0666564
-0.121745
-0.296211
-0.452618
-0.586645
-0.694347
-0.770539
-0.793781
-0.728574
-0.602557
-0.459473
-0.346279
-0.296185
-0.3171
-0.392426
-0.492071
-0.585571
-0.652104
-0.694826
-0.717853
-0.722828
-0.711402
-0.676992
-0.616546
-0.547219
-0.491651
-0.469463
-0.487078
-0.532707
-0.580697
-0.602743
-0.572104
-0.394136
-0.0696176
0.302454
0.610859
0.729403
0.595965
0.272695
-0.101182
-0.405505
-0.561053
-0.592208
-0.574376
-0.531997
-0.472462
-0.401147
-0.323658
-0.246953
-0.177724
-0.12029
-0.0759822
-0.043151
-0.0178511
0.00491457
0.0296853
0.0591793
0.0928603
0.129177
0.162933
0.187837
63
239
408
576
745
912
1080
1246
1408
1570
1733
1898
2061
2220
2385
2555
2766
2990
3205
3414
3618
3734
3651
3491
3646
0
0
0
0
0
0
0
0
0
0
0
0
0
0
0
0
0
0
0
0
0
0
0
0
0
0
0
0
0
0
0
0
0
0
0
0
0
0
0
0
0
0
0
0
0
0
0
0
0
0
0
0
0
0
0
0
0
0
0
0
0
0
0
0
0
0
0
0
0
0
0
0
0
0
0
0
0
0
0
0
0
0
0
0
0
0
0
0
0
0
0
0
0
0
0
0
0
0
0
0
0
0
0
0
0
0
0
0
0
0
0
0
0
0
0
0
0
0
0
0
0
0
0
0
0
0
0
0
0
0
0
0
0
0
0
0
0
0
0
0
0
0
0
0
0
0
0
0
0
0
0
0
0
0
0
0
0
0
0
0
0
0
0
0
0
0
0
0
0
0
0
0
0
0
0
0
0
0
0
0
0
0
0
0
0
0
0
0
0
0
0
0
0
0
0
0
0
0
0
0
0
0
0
0
0
0
0
0
0
0
0
0
0
0
0
0
0
0
0
0
0
0
0
0
0
0
0
0
0
0
0
0
0
0
0
0
0
0
0
0
0
0
0
0
0
0
0
0
0
0
0
0
0
0
0
0
0
0
0
0
0
0
0
0
0
0
0
0
0
0
0
0
0
0
0
0
0
0
0
0
0
0
0
0
0
0
0
0
0
0
0
0
0
0
0
0
0
0
0
0
0
0
0
0
0
0
0
0
0
0
0
0
0
0
0
0
0
0
0
0
0
0
0
0
0
0
0
0
0
0
0
0
0
0
0
0
0
0
0
0
0
0
0
0
0
0
0
0
0
0
0
0
0
0
0
0
0
0
0
0
0
0
0
0
0
0
0
0
0
0
0
0
0
0
0
0
0
0
0
0
0
0
0
0
0
0
0
0
0
0
0
0
0
0
0
0
0
0
0
0
0
0
0
0
0
0
0
0
0
0
0
0
0
0
0
0
0
0
0
0
0
0
0
0
0
0
0
0
0
0
0
0
0
0
0
0
0
0
0
0
0
0
0
0
0
0
0
0
0
0
0
0
0
0
0
0
0
0
0
0
0
0
0
0
0
0
0
0
0
0
0
0
0
0
0
0
0
0
0
0
0
0
0
0
0
0
0
0
0
0
0
0
0
0
0
0
0
0
0
0
0
0
0
0
0
0
0
0
0
0
0
0
0
0
0
0
0
0
0
0
0
0
0
0
0
0
0
0
0
0
0
0
0
0
0
0
0
0
0
0
0
0
0
0
0
0
0
0
0
0
0
0
0
0
0
0
0
0
0
0
0
0
0
0
0
0
0
0
0
0
0
0
0
0
0
0
0
0
0
0
0
0
0
0
0
0
0
0
0
0
0
0
0
0
0
0
0
0
0
0
0
0
0
0
0
0
0
0
0
0
0
0
0
0
0
0
0
0
0
0
0
0
0
0
0
0
0
0
0
0
0
0
0
0
0
0
0
0
0
0
0
0
0
0
0
0
0
0
0
0
0
0
0
0
0
0
0
0
0
0
0
0
0
0
0
0
0
0
0
0
0
0
0
0
0
0
0
0
0
0
0
0
0
0
0
0
0
0
0
0
0
0
0
0
0
0
0
0
0
0
0
0
0
0
0
0
0
0
0
0
0
0
0
0
0
0
0
0
0
0
0
0
0
0
0
0
0
0
0
0
0
0
0
0
0
0
0
0
0
0
0
0
0
0
0
0
0
0
0
0
0
0
0
0
0
0
0
0
0
0
0
0
0
0
0
0
0
0
0
0
0
0
0
0
0
0
0
0
0
0
0
0
0
0
0
0
0
0
0
0
0
0
0
0
0
0
0
0
0
0
0
0
0
0
0
0
0
0
0
0
0
0
0
0
0
0
0
0
0
0
0
0
0
0
0
0
0
0
0
0
0
0
0
0
0
0
0
0
0
0
0
0
0
0
0
0
0
0
0
0
0
0
0
0
0
0
0
0
0
0
0
0
0
0
0
0
0
0
0
0
0
0
0
0
0
0
0
0
0
0
0
0
0
0
0
0
0
0
0
0
0
0
0
0
0
0
0
0
0
0
0
0
0
0
0
0
0
0
0
0
0
0
0
0
0
0
0
0
0
0
0
0
0
0
0
0
0
0
0
0
0
0
0
0
0
0
0
0
0
0
0
0
0
0
0
0
0
0
0
0
0
0
0
0
0
0
0
0
0
0
0
0
0
0
0
0
0
0
0
0
0
0
0
0
0
0
0
0
0
0
0
0
0
0
0
0
0
0
0
0
0
0
0
0
0
0
0
0
0
0
0
0
0
0
0
0
0
0
0
0
0
0
0
0
0
0
0
0
0
0
0
0
0
0
0
0
0
0
0
0
0
0
0
0
0
0
0
0
0
0
0
0
0
0
0
0
0
0
0
0
0
0
0
0
0
0
0
0
0
0
0
0
0
0
0
0
0
0
0
0
0
0
0
0
0
0
0
0
0
0
0
0
0
0
0
0
0
0
0
0
0
0
0
0
0
0
0
0
0
0
0
0
0
0
0
0
0
0
0
0
0
0
0
0
0
0
0
0
0
0
0
0
0
0
0
0
0
0
0
0
0
0
0
0
0
0
0
0
0
0
0
0
0
0
0
0
0
0
0
0
0
0
0
0
0
0
0
0
0
0
0
0
0
0
0
0
0
0
0
0
0
0
0
0
0
0
0
0
0
0
0
0
0
0
0
0
0
0
0
0
0
0
0
0
0
0
0
0
0
0
0
0
0
0
0
0
0
0
0
0
0
0
0
0
0
0
0
0
0
0
0
0
0
0
0
0
0
0
0
0
0
0
0
0
0
0
0
0
0
0
0
0
0
0
0
0
0
0
0
0
0
0
0
0
0
0
0
0
0
0
0
0
0
0
0
0
0
0
0
0
0
0
0
0
0
0
0
0
0
0
0
0
0
0
0
0
0
0
0
0
0
0
0
0
0
0
0
0
0
0
0
0
0
0
0
0
0
0
0
0
0
0
0
0
0
0
0
0
0
0
0
0
0
0
0
0
0
0
0
0
0
0
0
0
0
0
0
0
0
0
0
0
0
0
0
0
0
0
0
0
0
0
0
0
0
0
0
0
0
0
0
0
0
0
0
0
0
0
0
0
0
0
0
0
0
0
0
0
0
0
0
0
0
0
0
0
0
0
0
0
0
0
0
0
0
0
0
0
0
0
0
0
0
0
0
0
0
0
0
0
0
0
0
0
0
0
0
0
0
0
0
0
0
0
0
0
0
0
0
0
0
0
0
0
0
0
0
0
0
0
0
0
0
0
0
0
0
0
0
0
0
0
0
0
0
0
0
0
0
0
0
0
0
0
0
0
0
0
0
0
0
0
0
0
0
0
0
0
0
0
0
0
0
0
0
0
0
0
0
0
0
0
0
0
0
0
0
0
0
0
0
0
0
0
0
0
0
0
0
0
0
0
0
0
0
0
0
0
0
0
0
0
0
0
0
0
0
0
0
0
0
0
0
0
0
0
0
0
0
0
0
0
0
0
0
0
0
0
0
0
0
0
0
0
0
0
0
0
0
0
0
0
0
0
0
0
0
0
0
0
0
0
0
0
0
0
0
0
0
0
0
0
0
0
0
0
0
0
0
0
0
0
0
0
0
0
0
0
0
0
0
0
0
0
0
0
0
0
0
0
0
0
0
0
0
0
0
0
0
0
0
0
0
0
0
0
0
0
0
0
0
0
0
0
0
0
0
0
0
0
0
0
0
0
0
0
0
0
0
0
0
0
0
0
0
0
0
0
0
0
0
0
0
0
0
0
0
0
0
0
0
0
0
0
0
0
0
0
0
0
0
0
0
0
0
0
0
0
0
0
0
0
0
0
0
0
0
0
0
0
0
0
0
0
0
0
0
0
0
0
0
0
0
0
0
0
0
0
0
0
0
0
0
0
0
0
0
0
0
0
0
0
0
0
0
0
0
0
0
0
0
0
0
0
0
0
0
0
0
0
0
0
0
0
0
0
0
0
0
0
0
0
0
0
0
0
0
0
0
0
0
0
0
0
0
0
0
0
0
0
0
0
0
0
0
0
0
0
0
0
0
0
0
0
0
0
0
0
0
0
0
0
0
0
0
0
0
0
0
0
0
0
0
0
0
0
0
0
0
0
0
0
0
0
0
0
0
0
0
0
0
0
0
0
0
0
0
0
0
0
0
0
0
0
0
0
0
0
0
0
0
0
0
0
0
0
0
0
0
0
0
0
0
0
0
0
0
0
0
0
0
0
0
0
0
0
0
0
0
0
0
0
0
0
0
0
0
0
0
0
0
0
0
0
0
0
0
0
0
0
0
0
0
0
0
0
0
0
0
0
0
0
0
0
0
0
0
0
0
0
0
0
0
0
0
0
0
0
0
0
0
0
0
0
0
0
0
0
0
0
0
0
0
0
0
0
0
0
0
0
0
0
0
0
0
0
0
0
0
0
0
0
0
0
0
0
0
0
0
0
0
0
0
0
0
0
0
0
0
0
0
0
0
0
0
0
0
0
0
0
0
0
0
0
0
0
0
0
0
0
0
0
0
0
0
0
0
0
0
0
0
0
0
0
0
0
0
0
0
0
0
0
0
0
0
0
0
0
0
0
0
0
0
0
0
0
0
0
0
0
0
0
0
0
0
0
0
0
0
0
0
0
0
0
0
0
0
0
0
0
0
0
0
0
0
0
0
0
0
0
0
0
0
0
0
0
0
0
0
0
0
0
0
0
0
0
0
0
0
0
0
0
0
0
0
0
0
0
0
0
0
0
0
0
0
0
0
0
0
0
0
0
0
0
0
0
0
0
0
0
0
0
0
0
0
0
0
0
0
0
0
0
0
0
0
0
0
0
0
0
0
0
0
0
0
0
0
0
0
0
0
0
0
0
0
0
0
0
0
0
0
0
0
0
0
0
0
0
0
0
0
0
0
0
0
0
0
0
0
0
0
0
0
0
0
0
0
0
0
0
0
0
0
0
0
0
0
0
0
0
0
0
0
0
0
0
0
0
0
0
0
0
0
0
0
0
0
0
0
0
0
0
0
0
0
0
0
0
0
0
0
0
0
0
0
0
0
0
0
0
0
0
0
0
0
0
0
0
0
0
0
0
0
0
0
0
0
0
0
0
0
0
0
0
0
0
0
0
0
0
0
0
0
0
0
0
0
0
0
0
0
0
0
0
0
0
0
0
0
0
0
0
0
0
0
0
0
0
0
0
0
0
0
0
0
0
0
0
0
0
0
0
0
0
0
0
0
0
0
0
0
0
0
0
0
0
0
0
0
0
0
0
0
0
0
0
0
0
0
0
0
0
0
0
0
0
0
0
0
0
0
0
0
0
0
0
0
0
0
0
0
0
0
0
0
0
0
0
0
0
0
0
0
0
0
0
0
0
0
0
0
0
0
0
0
0
0
0
0
0
0
0
0
0
0
0
0
0
0
0
0
0
0
0
0
0
0
0
0
0
0
0
0
0
0
0
0
0
0
0
0
0
0
0
0
0
0
0
0
0
0
0
0
0
0
0
0
0
0
0
0
0
0
0
0
0
0
0
0
0
0
0
0
0
0
0
0
0
0
0
0
0
0
0
0
0
0
0
0
0
0
0
0
0
0
0
0
0
0
0
0
0
0
0
0
0
0
0
0
0
0
0
0
0
0
0
0
0
0
0
0
0
0
0
0
0
0
0
0
0
0
0
0
0
0
0
0
0
0
0
0
0
0
0
0
0
0
0
0
0
0
0
0
0
0
0
0
0
0
0
0
0
0
0
0
0
0
0
0
0
0
0
0
0
0
0
0
0
0
0
0
0
0
0
0
0
0
0
0
0
0
0
0
0
0
0
0
0
0
0
0
0
0
0
0
0
0
0
0
0
0
0
0
0
0
0
0
0
0
0
0
0
0
0
0
0
0
0
0
0
0
0
0
0
0
0
0
0
0
0
0
0
0
0
0
0
0
0
0
0
0
0
0
0
0
0
0
0
0
0
0
0
0
0
0
0
0
0
0
0
0
0
0
0
0
0
0
0
0
0
0
0
0
0
0
0
0
0
0
0
0
0
0
0
0
0
0
0
0
0
0
0
0
0
0
0
0
0
0
0
0
0
0
0
0
0
0
0
0
0
0
0
0
0
0
0
0
0
0
0
0
0
0
0
0
0
0
0
0
0
0
0
0
0
0
0
0
0
0
0
0
0
0
0
0
0
0
0
0
0
0
0
0
0
0
0
0
0
0
0
0
0
0
0
0
0
0
0
0
0
0
0
0
0
0
0
0
0
0
0
0
0
0
0
0
0
0
0
0
0
0
0
0
0
0
0
0
0
0
0
0
0
0
0
0
0
0
0
0
0
0
0
0
0
0
0
0
0
0
0
0
0
0
0
0
0
0
0
0
0
0
0
0
0
0
0
0
0
0
0
0
0
0
0
0
0
0
0
0
0
0
0
0
0
0
0
0
0
0
0
0
0
0
0
0
0
0
0
0
0
0
0
0
0
0
0
0
0
0
0
0
0
0
0
0
0
0
0
0
0
0
0
0
0
0
0
0
0
0
0
0
0
0
0
0
0
0
0
0
0
0
0
0
0
0
0
0
0
0
0
0
0
0
0
0
0
0
0
0
0
0
0
0
0
0
0
0
0
0
0
0
0
0
0
0
0
0
0
0
0
0
0
0
0
0
0
0
0
0
0
0
0
0
0
0
0
0
0
0
0
0
0
0
0
0
0
0
0
0
0
0
0
0
0
0
0
0
0
0
0
0
0
0
0
0
0
0
0
0
0
0
0
0
0
0
0
0
0
0
0
0
0
0
0
0
0
0
0
0
0
0
0
0
0
0
0
0
0
0
0
0
0
0
0
0
0
0
0
0
0
0
0
0
0
0
0
0
0
0
0
0
0
0
0
0
0
0
0
0
0
0
0
0
0
0
0
0
0
0
0
0
0
0
0
0
0
0
0
0
0
0
0
0
0
0
0
0
0
0
0
0
0
0
0
0
0
0
0
0
0
0
0
0
0
0
0
0
0
0
0
0
0
0
0
0
0
0
0
0
0
0
0
0
0
0
0
0
0
0
0
0
0
0
0
0
0
0
0
0
0
0
0
0
0
0
0
0
0
0
0
0
0
0
0
0
0
0
0
0
0
0
0
0
0
0
0
0
0
0
0
0
0
0
0
0
0
0
0
0
0
0
0
0
0
0
0
0
0
0
0
0
0
0
0
0
0
0
0
0
0
0
0
0
0
0
0
0
0
0
0
0
0
0
0
0
0
0
0
0
0
0
0
0
0
0
0
0
0
0
0
0
0
0
0
0
0
0
0
0
0
0
0
0
0
0
0
0
0
0
0
0
0
0
0
0
0
0
0
0
0
0
0
0
0
0
0
0
0
0
0
0
0
0
0
0
0
0
0
0
0
0
0
0
0
0
0
0
0
0
0
0
0
0
0
0
0
0
0
0
0
0
0
0
0
0
0
0
0
0
0
0
0
0
0
0
0
0
0
0
0
0
0
0
0
0
0
0
0
0
0
0
0
0
0
0
0
0
0
0
0
0
0
0
0
0
0
0
0
0
0
0
0
0
0
0
0
0
0
0
0
0
0
0
0
0
0
0
0
0
0
0
0
0
0
0
0
0
0
0
0
0
0
0
0
0
0
0
0
0
0
0
0
0
0
0
0
0
0
0
0
0
0
0
0
0
0
0
0
0
0
0
0
0
0
0
0
0
0
0
0
0
0
0
0
0
0
0
0
0
0
0
0
0
0
0
0
0
0
0
0
0
0
0
0
0
0
0
0
0
0
0
0
0
0
0
0
0
0
0
0
0
0
0
0
0
0
0
0
0
0
0
0
0
0
0
0
0
0
0
0
0
0
0
0
0
0
0
0
0
0
0
0
0
0
0
0
0
0
0
0
0
0
0
0
0
0
0
0
0
0
0
0
0
0
0
0
0
0
0
0
0
0
0
0
0
0
0
0
0
0
0
0
0
0
0
0
0
0
0
0
0
0
0
0
0
0
0
0
0
0
0
0
0
0
0
0
0
0
0
0
0
0
0
0
0
0
0
0
0
0
0
0
0
0
0
0
0
0
0
0
0
0
0
0
0
0
0
0
0
0
0
0
0
0
0
0
0
0
0
0
0
0
0
0
0
0
0
0
0
0
0
0
0
0
0
0
0
0
0
0
0
0
0
0
0
0
0
0
0
0
0
0
0
0
0
0
0
0
0
0
0
0
0
0
0
0
0
0
0
0
0
0
0
0
0
0
0
0
0
0
0
0
0
0
0
0
0
0
0
0
0
0
0
0
0
0
0
0
0
0
0
0
0
0
0
0
0
0
0
0
0
0
0
0
0
0
0
0
0
0
0
0
0
0
0
0
0
0
0
0
0
0
0
0
0
0
0
0
0
0
0
0
0
0
0
0
0
0
0
0
0
0
0
0
0
0
0
0
