-0.00140419
0
0.0151878
0.0379478
0.0689495
0.0105042
-0.381003
-1.17364
-2.30233
-3.43406
-3.90653
-2.87908
0.196841
5.04968
10.5038
15.0991
17.9859
19.2564
19.3937
18.4764
16.0753
11.9843
6.92301
2.34517
-0.526661
-1.49996
-1.31686
-1.24465
-1.17599
-1.11282
-1.05452
-0.997694
-0.938567
-0.873365
-0.799257
-0.715021
-0.621231
-0.519975
-0.414268
-0.307412
-0.202225
-0.10094
-0.00515442
0.0840687
0.166156
0.241221
0.310065
0.374336
0.436644
0.500503
0.570049
0.649508
0.742507
0.851366
0.976367
1.11582
1.26629
1.42301
1.58057
1.7337
1.87801
2.01044
2.1294
2.2343
2.32488
2.40062
2.46064
2.5038
2.52782
2.52952
2.50555
2.45306
2.37038
2.25737
2.11555
1.94789
1.75952
1.55603
1.34261
1.12389
0.904304
0.68844
0.481025
0.286895
0.11082
-0.0433815
-0.173104
-0.27733
-0.356727
-0.413561
-0.451206
-0.473523
-0.484229
-0.486405
-0.482266
-0.473184
-0.459945
-0.443145
-0.423329
-0.401511
-0.379384
-0.358913
-0.341827
-0.329081
-0.320436
-0.314345
-0.308208
-0.298988
-0.284029
-0.26204
-0.231844
-0.195934
-0.159835
-0.129691
-0.110313
-0.103756
-0.108961
-0.122583
-0.140524
-0.159453
-0.177687
-0.194947
-0.211202
-0.226306
-0.239706
-0.250478
-0.257647
-0.260588
-0.259309
-0.255001
-0.24954
-0.244811
-0.241959
-0.240835
-0.239867
-0.236433
-0.227636
-0.211256
-0.185986
-0.152564
-0.115067
-0.0794941
-0.0520096
-0.0373329
-0.0375397
-0.0515942
-0.0757072
-0.104412
-0.132045
-0.154458
-0.17032
-0.180736
-0.187923
-0.195031
-0.205643
-0.222873
-0.24851
-0.282353
-0.322871
-0.364001
-0.395645
-0.406766
-0.387919
-0.333514
-0.243143
-0.121574
0.0225163
0.178543
0.335946
0.486527
0.620562
0.729215
0.806937
0.849385
0.853999
0.821103
0.754839
0.663265
0.557449
0.449745
0.350594
0.264315
0.192019
0.138001
0.103497
0.0794106
0.053738
0.01544
-0.0415791
-0.115879
-0.198394
-0.275002
-0.330803
-0.344197
-0.297446
-0.20683
-0.0993191
0
0.0868164
-0.175246
-0.818434
-1.6755
-2.51768
-2.86513
-1.90069
1.03613
5.91538
11.6997
16.8177
20.1118
21.3988
21.1367
19.6579
16.8783
12.7764
7.99466
3.75535
1.08779
0.155062
0.31059
0.441502
0.56379
0.672059
0.765772
0.850488
0.931705
1.01258
1.0955
1.18172
1.27133
1.36331
1.45608
1.54797
1.63744
1.72353
1.80628
1.88704
1.96844
2.05422
2.14866
2.25588
2.37916
2.51969
2.6772
2.85034
3.03655
3.23241
3.43405
3.63762
3.83965
4.03736
4.22877
4.41282
4.5892
4.75824
4.92058
5.07678
5.22688
5.36926
5.50064
5.61752
5.7158
5.79163
5.84214
5.86553
5.86058
5.8259
5.75936
5.65947
5.5288
5.36828
5.17905
4.9649
4.73224
4.48969
4.24705
4.01366
3.79783
3.60602
3.44249
3.30938
3.20745
3.13605
3.09329
3.07675
3.08357
3.11119
3.15665
3.21603
3.28373
3.3517
3.41128
3.45535
3.47965
3.48391
3.47212
3.45204
3.43371
3.42724
3.43978
3.4716
3.51983
3.58425
3.66022
3.73911
3.81208
3.87207
3.91516
3.94111
3.95293
3.95563
3.95451
3.95364
3.95471
3.95749
3.96093
3.96346
3.96356
3.96024
3.95326
3.94319
3.93115
3.91849
3.90632
3.89519
3.88497
3.87477
3.86301
3.84772
3.82681
3.79848
3.76151
3.71554
3.66126
3.60046
3.53586
3.47138
3.41263
3.36556
3.3353
3.3253
3.33664
3.36785
3.41549
3.47526
3.54332
3.61739
3.69652
3.78204
3.87832
3.98841
4.10511
4.21307
4.29418
4.33364
4.3243
4.2678
4.17299
4.05307
3.92293
3.79657
3.68215
3.58321
3.50134
3.43778
3.39415
3.3714
3.36931
3.38661
3.42133
3.47094
3.53167
3.59872
3.66773
3.73474
3.71301
3.34824
2.57144
1.43329
0.317813
0
1.39753
4.99243
10.3241
16.0607
20.7304
23.541
24.5507
24.1122
22.2847
18.911
14.2387
9.27801
5.36355
3.28727
2.83578
3.13218
3.09361
3.05688
3.02407
2.99722
2.97798
2.96728
2.96428
2.96758
2.97664
2.99114
3.01132
3.03813
3.07308
3.11806
3.17473
3.24419
3.32677
3.42191
3.52804
3.64284
3.76362
3.88782
4.01355
4.13994
4.26728
4.39698
4.5312
4.67238
4.82271
4.98353
5.15491
5.33526
5.5215
5.70849
5.88723
6.04809
6.18282
6.28619
6.35664
6.39568
6.40623
6.39062
6.34891
6.28216
6.18763
6.06068
5.89722
5.69486
5.45392
5.17799
4.87559
4.55742
4.2341
3.91688
3.61657
3.34234
3.10102
2.89674
2.72984
2.59662
2.49125
2.4071
2.33798
2.27908
2.22735
2.18142
2.14116
2.1069
2.07876
2.0566
2.0398
2.02695
2.01625
2.00603
1.99518
1.98333
1.97084
1.95858
1.94753
1.93846
1.93162
1.92686
1.92378
1.92187
1.92071
1.92001
1.91964
1.91952
1.91944
1.919
1.91749
1.91398
1.90748
1.89732
1.8835
1.86693
1.84955
1.83413
1.82373
1.8226
1.83592
1.86205
1.89083
1.90899
1.90528
1.87521
1.82322
1.76118
1.70405
1.66441
1.6442
1.63905
1.64596
1.65715
1.6641
1.65988
1.6411
1.60879
1.5681
1.52679
1.49304
1.47312
1.46784
1.47491
1.4925
1.51856
1.55104
1.58842
1.63029
1.67733
1.73107
1.79335
1.86626
1.95391
2.05811
2.16869
2.26906
2.3422
2.37591
2.36621
2.3176
2.24033
2.14657
2.04737
1.95098
1.86137
1.78115
1.7131
1.66001
1.62392
1.60821
1.61507
1.6404
1.675
1.70844
1.7313
1.73696
1.72236
1.68773
1.63557
1.56958
1.48969
1.35719
1.02315
0.474258
-0.248178
-0.936911
-1.0917
0
2.93015
7.66786
13.3703
18.7146
22.582
24.4911
24.4539
22.5677
18.9216
13.9383
8.64083
4.34318
1.91704
1.29538
1.67002
1.75094
1.82569
1.89023
1.9439
1.99174
2.03627
2.08006
2.12532
2.17362
2.22589
2.28242
2.34309
2.40757
2.47529
2.54559
2.61801
2.69261
2.77012
2.85197
2.94013
3.0368
3.14397
3.26378
3.39969
3.55842
3.75462
4.0094
4.32648
4.68752
5.04363
5.29505
5.31546
5.0129
4.39283
3.58061
2.79343
2.34269
2.13775
1.9696
1.81018
1.65019
1.48006
1.29097
1.0759
0.83047
0.553549
0.247346
-0.0825741
-0.428746
-0.78245
-1.13458
-1.47653
-1.80077
-2.10136
-2.37401
-2.61615
-2.82679
-3.00637
-3.15653
-3.27993
-3.37996
-3.46044
-3.52523
-3.57782
-3.62062
-3.6546
-3.67917
-3.69265
-3.69219
-3.67451
-3.63691
-3.57814
-3.49887
-3.4018
-3.29124
-3.17245
-3.05108
-2.93158
-2.8171
-2.70998
-2.61164
-2.52253
-2.44231
-2.37004
-2.30445
-2.24423
-2.18829
-2.13594
-2.08669
-2.04014
-1.99582
-1.95298
-1.91055
-1.86728
-1.82214
-1.77466
-1.72559
-1.67752
-1.63404
-1.59872
-1.57385
-1.55967
-1.5541
-1.55327
-1.55256
-1.54775
-1.53663
-1.51892
-1.4952
-1.46646
-1.43428
-1.40015
-1.36504
-1.32921
-1.29228
-1.25354
-1.21241
-1.16878
-1.12349
-1.07842
-1.03606
-0.998849
-0.968536
-0.9457
-0.929585
-0.91827
-0.909111
-0.899321
-0.886673
-0.869726
-0.84782
-0.821001
-0.789815
-0.755059
-0.717642
-0.678508
-0.63869
-0.599492
-0.562847
-0.531729
-0.509902
-0.501329
-0.509537
-0.536664
-0.582625
-0.64465
-0.7186
-0.796293
-0.867688
-0.923419
-0.95636
-0.962579
-0.941543
-0.895689
-0.829612
-0.749151
-0.660728
-0.570464
-0.483049
-0.402196
-0.330368
-0.268448
-0.215525
-0.168949
-0.12471
-0.0781502
-0.0248436
0.0385536
0.113034
0.197739
0.291032
0.390684
0.494019
0.598254
0.700733
0.798879
0.88991
0.970804
1.03905
1.09248
1.12935
1.14865
1.15036
1.13541
1.1055
1.06272
1.00928
0.947808
0.880786
0.810453
0.739151
0.669651
0.605181
0.54927
0.505474
0.477062
0.466755
0.477324
0.514841
0.593041
0.720809
0.880756
1.05051
1.20854
1.28054
0.796776
-0.0432915
-1.04896
-1.8514
-1.74856
0
3.83428
9.49101
16.0261
22.1503
26.6286
28.5171
27.3206
23.216
17.2123
10.9267
5.90861
2.91731
1.71389
1.4827
1.43141
1.34351
1.26585
1.20998
1.18442
1.19341
1.2368
1.31079
1.40923
1.52482
1.64922
1.77523
1.89793
2.01342
2.11914
2.21453
2.30125
2.38311
2.46542
2.55395
2.65385
2.76829
2.89765
3.04107
3.19727
3.36441
3.54043
3.72331
3.91115
4.10214
4.29446
4.4862
4.67532
4.85972
5.03729
5.20603
5.36401
5.50957
5.64148
5.75881
5.86094
5.94732
6.01692
6.06894
6.10244
6.11599
6.10781
6.07589
6.01842
5.93413
5.8228
5.68561
5.52613
5.34937
5.16098
4.96731
4.77499
4.59024
4.4183
4.2629
4.12603
4.00804
3.90787
3.82355
3.75269
3.69295
3.64243
3.59983
3.56451
3.53636
3.5156
3.50266
3.49792
3.50166
3.51389
3.53426
3.562
3.59595
3.63478
3.6767
3.71982
3.7625
3.80366
3.84283
3.88005
3.91554
3.94919
3.9801
4.0067
4.02705
4.03974
4.04474
4.04399
4.04116
4.04066
4.04681
4.06292
4.08406
4.10002
4.099
4.07227
4.01785
3.94165
3.85563
3.77388
3.70774
3.65835
3.62409
3.60405
3.59598
3.59722
3.60538
3.6187
3.63596
3.65607
3.67779
3.69865
3.71535
3.72452
3.72383
3.71285
3.69336
3.66903
3.64432
3.62324
3.6077
3.59769
3.59264
3.59116
3.59161
3.59255
3.59308
3.59292
3.59227
3.59156
3.59127
3.59185
3.59381
3.59783
3.60492
3.61627
3.63305
3.65605
3.68536
3.72012
3.75866
3.79867
3.83771
3.87369
3.90508
3.93108
3.95162
3.96731
3.97911
3.98822
3.99577
4.00269
4.00964
4.01705
4.02521
4.03442
4.0452
4.05833
4.07499
4.09665
4.12501
4.16176
4.20834
4.2658
4.3351
4.41691
4.51018
4.60898
4.70181
4.77558
4.81812
4.82043
4.77823
4.69272
4.57025
4.42119
4.25825
4.09448
3.93811
3.79303
3.66136
3.54509
3.4459
3.36495
3.30318
3.26152
3.2422
3.25038
3.28967
3.3556
3.44068
3.53947
3.43969
2.92035
1.96367
0.700811
-0.488454
-0.975502
0
3.05185
8.33222
15.2851
22.6424
28.7001
31.8258
31.0546
26.5283
19.5211
11.9559
5.61193
1.44721
-0.590511
-1.23213
-1.32425
-1.52453
-1.71844
-1.89375
-2.03258
-2.1167
-2.13516
-2.08958
-1.9946
-1.87356
-1.75114
-1.64534
-1.55766
-1.48179
-1.41255
-1.3466
-1.2814
-1.21466
-1.14446
-1.0692
-0.987395
-0.897506
-0.797796
-0.686271
-0.56081
-0.419474
-0.260979
-0.0852417
0.106136
0.30961
0.519774
0.729854
0.932118
1.11939
1.2862
1.42951
1.54903
1.64681
1.72633
1.78939
1.83772
1.87279
1.89336
1.89583
1.87544
1.82735
1.74746
1.63287
1.48216
1.29583
1.08009
0.842754
0.591148
0.332576
0.0745293
-0.175829
-0.412051
-0.628918
-0.822654
-0.990458
-1.13113
-1.24504
-1.33349
-1.39861
-1.44318
-1.47054
-1.48445
-1.48886
-1.48762
-1.48431
-1.48188
-1.48239
-1.48681
-1.49502
-1.50595
-1.51774
-1.52813
-1.53475
-1.53548
-1.52876
-1.51373
-1.49011
-1.45808
-1.41836
-1.37208
-1.32068
-1.26569
-1.20859
-1.15055
-1.09223
-1.03387
-0.975456
-0.917116
-0.859742
-0.805946
-0.75985
-0.726358
-0.709689
-0.711932
-0.732153
-0.766475
-0.809035
-0.853505
-0.894631
-0.930025
-0.959571
-0.98401
-1.0045
-1.02253
-1.03972
-1.05737
-1.07618
-1.09602
-1.11601
-1.1346
-1.15005
-1.16088
-1.16632
-1.16651
-1.16243
-1.15558
-1.14744
-1.13903
-1.13057
-1.12137
-1.10996
-1.09438
-1.07256
-1.04272
-1.00326
-0.952971
-0.891232
-0.818047
-0.733968
-0.639888
-0.536783
-0.425319
-0.305667
-0.177454
-0.0383858
0.117991
0.300823
0.506233
0.706229
0.866938
0.960019
0.970472
0.8991
0.760945
0.581781
0.393895
0.23074
0.107404
0.0190323
-0.0433502
-0.0859276
-0.110126
-0.119318
-0.117035
-0.10616
-0.0883621
-0.0639557
-0.0322243
0.00890198
0.0611404
0.1238
0.194509
0.288794
0.0452759
-0.652142
-1.70255
-2.75865
-3.26022
-2.53889
0
4.64888
11.1151
18.3916
24.8642
28.7781
28.9286
25.235
18.8415
11.64
5.45725
1.35829
-0.57896
-0.989318
-0.701772
-0.565611
-0.438091
-0.326613
-0.235922
-0.165163
-0.112865
-0.075148
-0.0463814
-0.020076
0.0101082
0.0494118
0.101122
0.165842
0.2423
0.328727
0.423532
0.525592
0.634681
0.751624
0.878073
1.01595
1.16673
1.33073
1.5067
1.69182
1.88214
2.07322
2.26102
2.44258
2.61639
2.78231
2.94124
3.09449
3.24321
3.38788
3.52784
3.66086
3.78297
3.88932
3.97448
4.03257
4.05764
4.04427
3.98807
3.88642
3.73904
3.54836
3.32067
3.06418
2.7876
2.49973
2.20797
1.91806
1.63505
1.36338
1.10684
0.868672
0.65151
0.457435
0.288003
0.144433
0.0288261
-0.0573738
-0.114114
-0.14212
-0.143342
-0.11665
-0.0649391
0.00124664
0.0696129
0.129362
0.173661
0.201073
0.215421
0.224155
0.235828
0.257603
0.291896
0.33736
0.391823
0.453177
0.518974
0.586475
0.651998
0.710971
0.759162
0.793258
0.811789
0.815862
0.809312
0.798042
0.788637
0.786675
0.794263
0.810992
0.835036
0.862286
0.887349
0.904802
0.910168
0.900647
0.875466
0.835883
0.784875
0.726588
0.665752
0.606825
0.553249
0.507501
0.471513
0.446456
0.432593
0.429571
0.436449
0.4502
0.465253
0.475982
0.478165
0.470327
0.454433
0.435615
0.420959
0.417773
0.431589
0.463637
0.515174
0.585963
0.674802
0.779567
0.902702
1.04725
1.20373
1.35097
1.46489
1.52659
1.52987
1.4842
1.4115
1.33825
1.28589
1.2585
1.24697
1.24396
1.24491
1.24585
1.24437
1.23997
1.23377
1.22772
1.22368
1.22244
1.22372
1.22681
1.23057
1.23376
1.23528
1.2329
1.20067
0.934277
0.353896
-0.468803
-1.23171
-1.32969
0
3.40364
9.04743
16.2697
23.6015
29.1899
31.4852
29.8676
24.9086
18.1359
11.4087
6.19836
3.11326
1.87773
1.71997
1.87969
1.83252
1.78985
1.75617
1.73516
1.72921
1.73902
1.76356
1.80034
1.84617
1.89812
1.95431
2.01416
2.07859
2.14912
2.22712
2.31311
2.40616
2.50421
2.60497
2.70626
2.80646
2.9049
3.00188
3.0986
3.19679
3.29839
3.40538
3.5196
3.64276
3.77643
3.92203
4.08069
4.2531
4.43928
4.63835
4.84999
5.07454
5.30607
5.52505
5.7072
5.83044
5.88045
5.85384
5.75746
5.60386
5.40571
5.17259
4.916
4.64737
4.37383
4.10008
3.83
3.56725
3.31534
3.07739
2.85604
2.65339
2.47092
2.30947
2.16922
2.0495
1.94906
1.86618
1.79916
1.74628
1.70579
1.67609
1.65565
1.64321
1.63725
1.63641
1.63966
1.64656
1.65716
1.6718
1.69115
1.71529
1.74162
1.76442
1.77683
1.77306
1.75046
1.71091
1.66062
1.60869
1.56476
1.53632
1.52496
1.52851
1.54425
1.56949
1.60116
1.63567
1.66881
1.69633
1.71476
1.72173
1.7163
1.69905
1.67199
1.63813
1.60096
1.56392
1.52985
1.50076
1.4781
1.46323
1.45756
1.46252
1.47945
1.50933
1.55249
1.60903
1.67855
1.75766
1.83899
1.91276
1.96952
2.00203
2.00654
1.98365
1.93829
1.87915
1.81733
1.76433
1.72953
1.71668
1.72369
1.74605
1.77974
1.8204
1.86367
1.90596
1.94486
1.97926
2.009
2.03441
2.05599
2.07454
2.09118
2.10769
2.12691
2.1528
2.19004
2.24328
2.31712
2.42534
2.57807
2.75673
2.92562
3.051
3.11063
3.09707
3.01602
2.88248
2.71783
2.54799
2.39856
2.28315
2.20314
2.15333
2.12873
2.1265
2.14147
2.16392
2.18397
2.19348
2.18743
2.1644
2.12616
2.07648
2.01982
1.96013
1.89913
1.78848
1.37387
0.614504
-0.277427
-0.768399
0
2.75535
7.70764
14.2002
20.8594
26.1377
28.8994
28.7061
25.7717
20.8091
14.9066
9.33586
5.18031
2.91965
2.28173
2.52289
2.57569
2.62524
2.67057
2.71438
2.76161
2.81737
2.88606
2.97013
3.06949
3.18161
3.3023
3.42681
3.55086
3.67151
3.78698
3.89662
4.00061
4.09967
4.19516
4.28905
4.38397
4.48327
4.59081
4.71048
4.84567
4.99849
5.16934
5.35632
5.55606
5.76396
5.97466
6.18272
6.38319
6.57199
6.74611
6.90354
7.04289
7.16219
7.26044
7.33717
7.39182
7.4237
7.43198
7.41567
7.37359
7.30451
7.20743
7.08301
6.93218
6.75722
6.56207
6.35209
6.13354
5.91282
5.69544
5.48578
5.28702
5.10121
4.92961
4.77315
4.63305
4.51103
4.4088
4.32735
4.26707
4.22726
4.20589
4.20021
4.20643
4.2197
4.23607
4.25354
4.27254
4.2958
4.32736
4.37113
4.42927
4.50156
4.58543
4.67091
4.74613
4.80076
4.82884
4.83032
4.81067
4.77916
4.7463
4.72122
4.70806
4.7078
4.72054
4.74633
4.78437
4.83104
4.87808
4.91594
4.93687
4.93729
4.91921
4.89004
4.86053
4.84132
4.83936
4.85343
4.87796
4.90687
4.93301
4.94979
4.95267
4.93991
4.91296
4.8761
4.83585
4.79966
4.77409
4.76409
4.77239
4.8016
4.85037
4.90864
4.96375
5.00334
5.01772
5.00096
4.95058
4.86614
4.74772
4.59577
4.41423
4.20682
3.95382
3.6424
3.31693
3.03366
2.83995
2.75677
2.77381
2.85921
2.97754
3.10546
3.23583
3.36847
3.50252
3.6365
3.76685
3.88646
3.98657
4.0587
4.09641
4.09686
4.06145
3.9956
3.90764
3.80738
3.7047
3.60778
3.52113
3.44713
3.38749
3.34425
3.31946
3.3141
3.32698
3.35472
3.392
3.43251
3.47123
3.5051
3.52117
3.2375
2.57485
1.54382
0.450676
0
1.08943
4.3229
9.41512
15.1597
20.0689
23.2161
24.5054
24.1804
22.2186
18.388
12.9181
6.93966
2.04603
-0.694356
-1.34303
-0.790241
0.0464669
0.756245
1.37105
1.99961
2.61129
3.13099
3.50221
3.71208
3.75152
3.59998
3.24964
2.73832
2.14811
1.59112
1.1995
0.982413
0.83689
0.739057
0.691701
0.691979
0.732909
0.806427
0.906884
1.03322
1.18415
1.35749
1.55218
1.76888
2.00692
2.26351
2.53413
2.81297
3.09347
3.36888
3.6327
3.87828
4.09971
4.29188
4.44989
4.56919
4.64791
4.68661
4.68649
4.64902
4.57585
4.46859
4.32886
4.15831
3.9589
3.73501
3.49294
3.23864
2.97766
2.71594
2.4597
2.21473
1.98573
1.77572
1.58585
1.41552
1.26261
1.12348
0.993799
0.869207
0.745398
0.61644
0.47872
0.354134
0.287755
0.337613
0.552074
0.942767
1.46724
2.0342
2.53458
2.90725
3.21472
3.46115
3.65196
3.79712
3.90411
3.97976
4.02986
4.05428
4.04553
3.99154
3.87993
3.70203
3.45636
3.15076
2.80264
2.43679
2.08027
1.75019
1.45871
1.21506
1.02317
0.882105
0.787233
0.731712
0.707853
0.707668
0.723485
0.749171
0.779703
0.810853
0.839211
0.862269
0.878425
0.887135
0.888902
0.885137
0.8779
0.8696
0.862671
0.859267
0.86111
0.86939
0.884634
0.906622
0.934396
0.966525
1.00093
1.03509
1.06706
1.09596
1.12244
1.14856
1.17725
1.21147
1.25346
1.30482
1.3624
1.41781
1.46095
1.48288
1.47829
1.44682
1.3926
1.3226
1.24415
1.1626
1.07998
0.995611
0.907845
0.814811
0.715071
0.608407
0.496215
0.38156
0.268882
0.16326
0.0698181
-0.00561142
-0.0541977
-0.0655247
-0.0449688
-0.0139778
0
-0.0322792
-0.230988
-0.657486
-1.25395
-1.93327
-2.04944
-0.800801
2.28353
6.92929
12.0442
16.2855
18.8519
19.7822
19.5034
18.1795
15.6078
11.7561
7.26943
3.29683
0.755721
-0.226978
-0.206234
0.0085846
0.206133
0.372977
0.501894
0.594182
0.666211
0.720646
0.758584
0.781534
0.791543
0.791669
0.786227
0.780577
0.780441
0.790972
0.815918
0.855399
0.908102
0.973092
1.04934
1.13567
1.23103
1.33466
1.44611
1.56533
1.69264
1.82872
1.97439
2.13035
2.29676
2.47284
2.65654
2.84442
3.03181
3.21302
3.3817
3.53128
3.65546
3.74916
3.80921
3.83316
3.81891
3.7645
3.66805
3.52812
3.34407
3.11657
2.84824
2.545
2.21508
1.86735
1.51006
1.15171
0.800708
0.46476
0.150362
-0.137518
-0.395539
-0.62189
-0.816066
-0.978637
-1.11107
-1.21529
-1.29313
-1.34718
-1.38224
-1.40455
-1.4203
-1.43484
-1.45196
-1.47339
-1.49867
-1.52545
-1.55021
-1.56924
-1.57988
-1.58094
-1.57149
-1.55263
-1.5285
-1.50378
-1.48221
-1.46542
-1.45235
-1.43966
-1.4227
-1.39685
-1.35865
-1.30788
-1.24569
-1.17301
-1.09084
-0.999875
-0.900261
-0.794423
-0.691242
-0.602929
-0.541079
-0.512002
-0.513164
-0.532904
-0.554123
-0.560575
-0.542912
-0.506375
-0.460281
-0.410511
-0.362066
-0.318682
-0.282191
-0.252446
-0.227726
-0.205417
-0.182727
-0.157463
-0.128199
-0.0942448
-0.0557228
-0.0134491
0.0311493
0.0760666
0.119179
0.158765
0.193869
0.224473
0.251386
0.275857
0.299032
0.321344
0.342199
0.359937
0.372379
0.377694
0.375256
0.366179
0.353313
0.340715
0.332718
0.332664
0.342003
0.360566
0.387365
0.420797
0.458864
0.499569
0.541166
0.58223
0.62149
0.658017
0.691231
0.720957
0.747488
0.771482
0.793625
0.814003
0.831094
0.841706
0.84104
0.823901
0.786189
0.725991
0.643836
0.542138
0.424284
0.29445
0.158171
0.0194767
-0.117667
-0.248552
-0.367949
-0.470592
-0.551828
-0.607899
-0.635674
-0.631502
-0.590496
-0.509971
-0.397219
-0.272132
-0.155524
-0.062648
0
0.0486111
-0.186961
-0.762408
-1.62862
-2.65282
-3.41849
-3.15669
-1.04225
3.18782
8.75783
14.1064
17.8269
19.5028
19.6424
18.8355
17.0862
14.0496
9.83934
5.41005
2.01971
0.33073
0.0462601
0.294393
0.342468
0.384117
0.418781
0.446075
0.465875
0.478465
0.484976
0.487297
0.487805
0.490165
0.49864
0.517439
0.550041
0.598669
0.66408
0.745673
0.841827
0.950321
1.06794
1.19195
1.32041
1.45173
1.58475
1.71884
1.85386
1.99012
2.12814
2.26846
2.4114
2.55704
2.70515
2.85526
3.00671
3.15859
3.30964
3.45795
3.60068
3.73452
3.85571
3.96042
4.04499
4.10609
4.14072
4.14611
4.11976
4.0598
3.9662
3.83915
3.68063
3.49461
3.28689
3.06479
2.83605
2.60713
2.38313
2.16735
1.96112
1.76409
1.5749
1.39211
1.21513
1.04487
0.883997
0.736598
0.60822
0.509288
0.452822
0.435635
0.445296
0.465529
0.481317
0.483143
0.468858
0.442969
0.414236
0.39274
0.384059
0.389407
0.411545
0.455064
0.516356
0.583004
0.640676
0.67758
0.688291
0.67532
0.647707
0.617263
0.594185
0.582175
0.578932
0.582168
0.590351
0.602115
0.616786
0.634604
0.656603
0.68421
0.718562
0.760303
0.809604
0.864624
0.920195
0.969632
1.00666
1.02707
1.02987
1.01749
0.994966
0.968517
0.943922
0.92463
0.911383
0.904148
0.90252
0.905501
0.911738
0.919731
0.928032
0.935426
0.941078
0.944651
0.946342
0.946829
0.947093
0.948153
0.950759
0.955179
0.96102
0.967172
0.972097
0.974349
0.973104
0.968545
0.961959
0.95549
0.951614
0.952695
0.960561
0.975471
0.996629
1.02267
1.05214
1.08382
1.11665
1.14957
1.18118
1.20988
1.23439
1.2543
1.27046
1.28487
1.3001
1.31839
1.34074
1.3665
1.39461
1.42372
1.45285
1.48196
1.51222
1.54586
1.58572
1.63451
1.69396
1.76422
1.84406
1.93142
2.02341
2.11628
2.20504
2.28408
2.34865
2.3952
2.42176
2.42809
2.41555
2.38661
2.34425
2.29147
2.23163
2.16796
2.10318
2.04009
1.98183
1.93162
1.89259
1.86779
1.85983
1.86903
1.89186
1.92222
1.95344
1.97954
1.99526
1.94136
1.5786
0.972021
0.17393
-0.634897
-0.970042
0
3.06288
8.28693
14.619
20.3807
24.2718
25.9409
25.6517
23.6152
19.8677
14.7935
9.4983
5.36882
3.15627
2.54056
2.59528
2.58001
2.56964
2.56863
2.58018
2.60602
2.64649
2.70087
2.7677
2.84489
2.92915
3.01777
3.10838
3.19866
3.28657
3.37083
3.45131
3.52912
3.60647
3.68619
3.77119
3.86383
3.96555
4.07663
4.19681
4.32573
4.46318
4.60936
4.76489
4.93055
5.107
5.29429
5.4916
5.69712
5.90802
6.12069
6.3309
6.53358
6.72308
6.89296
7.03528
7.14198
7.20917
7.23377
7.21394
7.14968
7.04348
6.90007
6.72554
6.52587
6.30643
6.07358
5.83197
5.58449
5.33407
5.08465
4.84113
4.60894
4.39344
4.19923
4.02952
3.8858
3.76772
3.67338
3.59976
3.54337
3.50056
3.46795
3.44275
3.42288
3.40686
3.3936
3.38223
3.37185
3.36141
3.34999
3.33703
3.32265
3.3077
3.29368
3.28228
3.27494
3.27221
3.27373
3.27827
3.28348
3.2867
3.28595
3.28056
3.2715
3.26115
3.2527
3.24922
3.25278
3.26353
3.27998
3.30012
3.32165
3.34219
3.3595
3.3716
3.37658
3.37308
3.3604
3.33855
3.30855
3.2726
3.23416
3.19768
3.16799
3.14959
3.1454
3.15689
3.18343
3.22238
3.2696
3.32018
3.36938
3.41357
3.45051
3.47956
3.50155
3.51833
3.53219
3.54519
3.55875
3.57334
3.58856
3.60327
3.61611
3.626
3.6326
3.63654
3.63937
3.64327
3.65064
3.66357
3.68344
3.71079
3.74568
3.78796
3.83747
3.89417
3.95824
4.03009
4.11089
4.20207
4.30146
4.39909
4.48081
4.53253
4.54436
4.51338
4.44425
4.34731
4.23517
4.11911
4.00624
3.89866
3.79657
3.70023
3.61047
3.52883
3.45741
3.39867
3.35561
3.33226
3.33322
3.36169
3.41643
3.4884
3.5679
3.6473
3.72125
3.52432
2.93079
1.93954
0.766211
0
0.5446
3.16536
7.85933
13.5535
18.596
21.7627
22.9113
22.6787
21.5886
19.5533
16.2786
12.0391
7.87443
4.93288
3.64758
3.55162
3.61111
3.67037
3.72958
3.78983
3.85305
3.92099
3.99567
4.07877
4.17143
4.27388
4.3845
4.50145
4.62277
4.74612
4.86892
4.98883
5.10425
5.21458
5.3204
5.42321
5.52509
5.62825
5.73463
5.84571
5.96239
6.08525
6.21461
6.35058
6.49305
6.64164
6.79556
6.95369
7.11463
7.27681
7.43869
7.59875
7.75552
7.90725
8.05169
8.18574
8.30534
8.40639
8.48658
8.54525
8.58404
8.60702
8.62002
8.62935
8.64001
8.65521
8.67075
8.67764
8.66733
8.63817
8.59987
8.5736
8.58702
8.66592
8.82002
9.03417
9.29855
9.59524
9.9015
10.1936
10.4513
10.6617
10.8205
10.9318
11.0058
11.0552
11.0917
11.1233
11.1529
11.1787
11.1958
11.1977
11.1777
11.1302
11.051
10.9378
10.7906
10.6135
10.4134
10.1973
9.97247
9.74621
9.5257
9.31755
9.12734
8.95915
8.81528
8.69614
8.60049
8.52604
8.46884
8.42237
8.37967
8.33446
8.28205
8.21988
8.14769
8.06711
7.98096
7.89241
7.80421
7.71805
7.63483
7.55462
7.47671
7.39972
7.32168
7.24027
7.15323
7.05879
6.95632
6.84685
6.73281
6.6197
6.51553
6.42845
6.36479
6.3278
6.3172
6.32982
6.361
6.40596
6.4603
6.52065
6.5856
6.65281
6.71862
6.77809
6.82561
6.85581
6.86448
6.8493
6.80992
6.74769
6.66491
6.56402
6.44707
6.31629
6.17448
6.02434
5.86811
5.70837
5.54827
5.39124
5.24054
5.09883
4.9679
4.8486
4.74092
4.64423
4.55748
4.47943
4.40875
4.34616
4.31532
4.17304
3.71282
2.86008
1.6904
0.526417
0
0.930443
3.88021
8.64182
14.116
18.8661
21.9678
23.3675
23.4311
22.2476
19.5331
15.2592
10.228
5.83668
3.17864
2.34931
2.58712
2.58641
2.57419
2.54356
2.49463
2.43403
2.37184
2.31751
2.27389
2.24104
2.21849
2.20493
2.19927
2.20143
2.21245
2.23403
2.26776
2.3142
2.37146
2.4373
2.50929
2.58487
2.66184
2.73894
2.81607
2.89437
2.97601
3.06369
3.16004
3.26694
3.38494
3.51287
3.64787
3.78571
3.92152
4.05027
4.16706
4.26734
4.34795
4.40696
4.44313
4.4555
4.44303
4.40433
4.33767
4.24112
4.11307
3.9541
3.76615
3.55214
3.3168
3.06684
2.81052
2.55691
2.31502
2.09329
1.89888
1.73619
1.60719
1.51155
1.44702
1.40997
1.39592
1.39998
1.41712
1.44274
1.472
1.49911
1.51847
1.52528
1.51619
1.48993
1.44772
1.39323
1.3321
1.27096
1.21587
1.17069
1.13839
1.12004
1.11525
1.12182
1.13636
1.15542
1.1763
1.1975
1.21881
1.2409
1.2647
1.2908
1.31864
1.34582
1.36867
1.38342
1.38733
1.37973
1.3624
1.33927
1.31547
1.29605
1.28426
1.28069
1.28498
1.29488
1.3068
1.31712
1.32318
1.32397
1.32028
1.31434
1.309
1.30694
1.30974
1.31769
1.33052
1.34796
1.36992
1.39678
1.42954
1.46973
1.51912
1.57926
1.6511
1.73469
1.82912
1.93284
2.04395
2.16071
2.28186
2.40678
2.5354
2.66779
2.80378
2.94251
3.08216
3.2193
3.34822
3.46182
3.55363
3.61818
3.65173
3.65261
3.62123
3.55986
3.47241
3.36415
3.24219
3.11432
2.98723
2.86631
2.75569
2.65935
2.58149
2.52207
2.47605
2.43734
2.40118
2.36604
2.33414
2.3104
2.30011
2.30628
2.3258
2.36567
2.37406
1.90315
0.97448
-0.103876
-0.709355
0
2.67333
7.28997
12.9427
18.2237
22.0159
23.9913
24.371
23.2934
20.5899
16.2564
11.0266
6.27133
3.18534
2.02454
2.11293
2.22762
2.3347
2.42824
2.5051
2.56692
2.61893
2.6641
2.70598
2.7482
2.79402
2.84602
2.90582
2.97403
3.05019
3.13307
3.22096
3.31196
3.40436
3.49697
3.5893
3.68167
3.77509
3.87099
3.97086
4.07593
4.18685
4.30368
4.42606
4.5535
4.68576
4.82308
4.96616
5.11585
5.27264
5.43604
5.6046
5.77478
5.94002
6.09236
6.22381
6.32736
6.39746
6.42981
6.42135
6.36981
6.27386
6.1335
5.95067
5.72971
5.47734
5.20198
4.91362
4.62155
4.33247
4.05212
3.78558
3.53724
3.31068
3.10883
2.93472
2.78938
2.67134
2.57795
2.50588
2.45165
2.41196
2.3836
2.36409
2.34969
2.33526
2.31549
2.28593
2.24409
2.1903
2.12773
2.06164
1.99804
1.94186
1.8951
1.8581
1.83048
1.81064
1.79614
1.78407
1.77135
1.75524
1.73364
1.70525
1.66977
1.6279
1.58134
1.53265
1.48513
1.44298
1.41036
1.39062
1.38572
1.39574
1.41875
1.45111
1.48821
1.52542
1.55896
1.58699
1.60851
1.62344
1.63221
1.63538
1.63365
1.62746
1.6173
1.60393
1.58847
1.57243
1.55762
1.54594
1.53919
1.53896
1.54644
1.56229
1.58656
1.61872
1.65769
1.70196
1.74976
1.79928
1.84883
1.89707
1.94307
1.98647
2.0274
2.0665
2.10478
2.14352
2.18412
2.22807
2.27688
2.33213
2.39541
2.46822
2.55234
2.65119
2.77051
2.9128
3.06553
3.20536
3.30766
3.35316
3.3327
3.24868
3.11339
2.94575
2.76764
2.59908
2.44949
2.32037
2.211
2.12129
2.05189
2.00273
1.97281
1.95958
1.95898
1.9666
1.97821
1.99022
1.9939
1.79943
1.36226
0.639669
-0.313193
-1.20476
-1.39306
0
3.60963
9.18212
15.4637
20.8366
24.2174
25.3775
24.5117
21.7479
17.261
11.779
6.6621
3.2001
1.75055
1.6173
1.7725
1.68561
1.60428
1.53348
1.47709
1.43768
1.41652
1.41376
1.42866
1.45988
1.50542
1.56318
1.63084
1.70605
1.78661
1.87076
1.95744
2.04649
2.13867
2.23547
2.33884
2.45076
2.57282
2.70585
2.84974
3.00345
3.16534
3.33355
3.5065
3.68334
3.86404
4.04935
4.24032
4.43769
4.64121
4.84971
5.05903
5.26068
5.44455
5.60093
5.72237
5.80457
5.84632
5.84863
5.81363
5.74364
5.64311
5.51613
5.36535
5.19273
5.00066
4.79238
4.57136
4.3408
4.10445
3.86663
3.63212
3.40583
3.19246
2.99611
2.81996
2.6661
2.53548
2.428
2.34266
2.2778
2.23126
2.20055
2.18307
2.17635
2.17817
2.18696
2.2019
2.22299
2.25075
2.28582
2.32847
2.379
2.43615
2.4959
2.55338
2.60417
2.64558
2.67726
2.70114
2.72061
2.73928
2.75986
2.78316
2.80892
2.83639
2.86455
2.89255
2.92011
2.94767
2.9763
3.0074
3.0423
3.0818
3.12595
3.1739
3.22411
3.27488
3.32445
3.37131
3.41426
3.4524
3.4852
3.51242
3.53405
3.55037
3.56192
3.56961
3.57462
3.57842
3.58263
3.58904
3.59954
3.61644
3.6422
3.67908
3.72901
3.79323
3.87207
3.9648
4.06982
4.18492
4.30753
4.4357
4.56674
4.69507
4.81029
4.89828
4.9419
4.92391
4.83102
4.65817
4.4117
4.11037
3.78314
3.46313
3.17123
2.91157
2.68765
2.50399
2.36212
2.26101
2.19802
2.17106
2.18037
2.2272
2.30989
2.42043
2.54285
2.65798
2.75073
2.8124
2.84128
2.71969
2.18939
1.34328
0.340124
-0.38906
0
2.33925
6.90747
13.0079
19.2349
24.2209
27.1917
27.9076
26.3107
22.4808
16.9883
11.0894
6.28075
3.47368
2.55005
2.68296
2.88892
3.06742
3.20757
3.31634
3.41085
3.50056
3.58751
3.6722
3.75473
3.83524
3.91394
3.99091
4.066
4.1388
4.20883
4.27589
4.34042
4.40378
4.46837
4.53746
4.61465
4.70314
4.80502
4.92094
5.05047
5.19077
5.33725
5.48266
5.61408
5.71793
5.78167
5.79378
5.74819
5.65006
5.5183
5.38151
5.26793
5.19438
5.14821
5.11407
5.08373
5.04801
4.99817
4.9269
4.82911
4.7023
4.5466
4.36578
4.16459
3.94827
3.72263
3.49318
3.26423
3.03942
2.82174
2.61365
2.41726
2.23458
2.06816
1.92032
1.79265
1.68623
1.60134
1.53738
1.49286
1.46565
1.45326
1.45314
1.46283
1.48024
1.50388
1.53279
1.5663
1.60398
1.64549
1.69049
1.73869
1.7897
1.84319
1.89887
1.9566
2.01639
2.07826
2.14209
2.20747
2.27293
2.33485
2.38841
2.42916
2.45485
2.46675
2.46963
2.47032
2.47536
2.48877
2.51005
2.53607
2.56439
2.59283
2.61982
2.64464
2.66722
2.68773
2.70624
2.72255
2.73619
2.74668
2.75382
2.7578
2.75923
2.75893
2.7578
2.75674
2.75671
2.75893
2.76513
2.77764
2.79922
2.83263
2.87998
2.94213
3.01779
3.10415
3.19787
3.29491
3.39101
3.48186
3.56303
3.63051
3.68134
3.71314
3.72399
3.71258
3.67842
3.62213
3.5457
3.45257
3.34758
3.2367
3.12579
3.02007
2.92357
2.8391
2.76852
2.71261
2.6713
2.64404
2.63007
2.62861
2.63903
2.6612
2.69469
2.73724
2.78571
2.83773
2.78661
2.36511
1.56419
0.486379
-0.550589
-0.966427
0
2.9552
7.88539
13.9503
19.7789
24.1181
26.2983
26.1958
23.9277
19.7657
14.3668
8.89426
4.63798
2.32726
1.74986
2.0502
2.16598
2.27406
2.36945
2.45164
2.52779
2.60231
2.67841
2.75899
2.8462
2.94102
3.04333
3.15193
3.26483
3.37971
3.49442
3.60739
3.71791
3.82628
3.93369
4.042
4.15343
4.27014
4.3939
4.52581
4.66605
4.81387
4.96768
5.12523
5.28397
5.44135
5.59519
5.74383
5.88618
6.02163
6.14979
6.2702
6.38191
6.48348
6.57317
6.6488
6.70787
6.74755
6.76468
6.75501
6.71444
6.639
6.52534
6.3716
6.17828
5.94877
5.68938
5.40877
5.1169
4.82369
4.53707
4.26293
4.00482
3.76414
3.54083
3.33421
3.14383
2.97005
2.81435
2.67859
2.56462
2.47374
2.40646
2.36118
2.33404
2.31987
2.31322
2.30925
2.30437
2.29656
2.28535
2.27149
2.25648
2.24205
2.22967
2.22021
2.21389
2.21041
2.2089
2.20805
2.20643
2.20283
2.19646
2.18704
2.17477
2.16009
2.14349
2.12534
2.1058
2.08481
2.06223
2.03795
2.01202
1.98464
1.95614
1.92686
1.89707
1.86693
1.83647
1.80571
1.77482
1.74424
1.71478
1.68761
1.66417
1.64585
1.63378
1.62855
1.63009
1.63774
1.65028
1.66605
1.68325
1.70045
1.71676
1.73194
1.74625
1.7602
1.77422
1.78841
1.8025
1.81614
1.82946
1.84375
1.86177
1.88759
1.9259
1.98091
2.05519
2.14746
2.25458
2.37247
2.49566
2.61786
2.73169
2.83001
2.90719
2.95905
2.98294
2.97777
2.94406
2.88394
2.80109
2.70062
2.58912
2.47333
2.35901
2.25078
2.15218
2.0656
1.99218
1.93178
1.88332
1.84511
1.81519
1.79173
1.77313
1.75814
1.74585
1.73572
1.72844
1.73792
1.54186
0.998434
0.133608
-0.787982
-1.14388
0
3.45897
9.23378
16.1725
22.4685
26.6401
28.1242
27.0684
23.8134
18.7873
12.836
7.32355
3.56549
2.02171
2.08176
2.66029
2.61736
2.5712
2.52318
2.48118
2.45794
2.46671
2.51143
2.58289
2.67874
2.80144
2.94464
3.08736
3.20821
3.29125
3.33077
3.33375
3.31837
3.30877
3.32754
3.38914
3.4849
3.60322
3.738
3.88582
4.04397
4.21048
4.38402
4.56365
4.74829
4.93642
5.12594
5.31437
5.49908
5.67774
5.84845
6.0091
6.1563
6.28602
6.39549
6.48087
6.53749
6.56044
6.54521
6.48801
6.38615
6.23837
6.0455
5.81573
5.55813
5.2807
4.9911
4.69687
4.40453
4.11959
3.84663
3.58939
3.35099
3.13428
2.94228
2.77696
2.63945
2.52968
2.44675
2.38789
2.34938
2.32728
2.31795
2.31864
2.32762
2.34405
2.36759
2.39778
2.43395
2.47509
2.5189
2.56177
2.60016
20
213
390
574
800
1018
1207
1385
1580
1770
1951
2155
2373
2567
2748
2932
3121
3300
3476
3663
3695
3688
3639
3624
3744
0
0
0
0
0
0
0
0
0
0
0
0
0
0
0
0
0
0
0
0
0
0
0
0
0
0
0
0
0
0
0
0
0
0
0
0
0
0
0
0
0
0
0
0
0
0
0
0
0
0
0
0
0
0
0
0
0
0
0
0
0
0
0
0
0
0
0
0
0
0
0
0
0
0
0
0
0
0
0
0
0
0
0
0
0
0
0
0
0
0
0
0
0
0
0
0
0
0
0
0
0
0
0
0
0
0
0
0
0
0
0
0
0
0
0
0
0
0
0
0
0
0
0
0
0
0
0
0
0
0
0
0
0
0
0
0
0
0
0
0
0
0
0
0
0
0
0
0
0
0
0
0
0
0
0
0
0
0
0
0
0
0
0
0
0
0
0
0
0
0
0
0
0
0
0
0
0
0
0
0
0
0
0
0
0
0
0
0
0
0
0
0
0
0
0
0
0
0
0
0
0
0
0
0
0
0
0
0
0
0
0
0
0
0
0
0
0
0
0
0
0
0
0
0
0
0
0
0
0
0
0
0
0
0
0
0
0
0
0
0
0
0
0
0
0
0
0
0
0
0
0
0
0
0
0
0
0
0
0
0
0
0
0
0
0
0
0
0
0
0
0
0
0
0
0
0
0
0
0
0
0
0
0
0
0
0
0
0
0
0
0
0
0
0
0
0
0
0
0
0
0
0
0
0
0
0
0
0
0
0
0
0
0
0
0
0
0
0
0
0
0
0
0
0
0
0
0
0
0
0
0
0
0
0
0
0
0
0
0
0
0
0
0
0
0
0
0
0
0
0
0
0
0
0
0
0
0
0
0
0
0
0
0
0
0
0
0
0
0
0
0
0
0
0
0
0
0
0
0
0
0
0
0
0
0
0
0
0
0
0
0
0
0
0
0
0
0
0
0
0
0
0
0
0
0
0
0
0
0
0
0
0
0
0
0
0
0
0
0
0
0
0
0
0
0
0
0
0
0
0
0
0
0
0
0
0
0
0
0
0
0
0
0
0
0
0
0
0
0
0
0
0
0
0
0
0
0
0
0
0
0
0
0
0
0
0
0
0
0
0
0
0
0
0
0
0
0
0
0
0
0
0
0
0
0
0
0
0
0
0
0
0
0
0
0
0
0
0
0
0
0
0
0
0
0
0
0
0
0
0
0
0
0
0
0
0
0
0
0
0
0
0
0
0
0
0
0
0
0
0
0
0
0
0
0
0
0
0
0
0
0
0
0
0
0
0
0
0
0
0
0
0
0
0
0
0
0
0
0
0
0
0
0
0
0
0
0
0
0
0
0
0
0
0
0
0
0
0
0
0
0
0
0
0
0
0
0
0
0
0
0
0
0
0
0
0
0
0
0
0
0
0
0
0
0
0
0
0
0
0
0
0
0
0
0
0
0
0
0
0
0
0
0
0
0
0
0
0
0
0
0
0
0
0
0
0
0
0
0
0
0
0
0
0
0
0
0
0
0
0
0
0
0
0
0
0
0
0
0
0
0
0
0
0
0
0
0
0
0
0
0
0
0
0
0
0
0
0
0
0
0
0
0
0
0
0
0
0
0
0
0
0
0
0
0
0
0
0
0
0
0
0
0
0
0
0
0
0
0
0
0
0
0
0
0
0
0
0
0
0
0
0
0
0
0
0
0
0
0
0
0
0
0
0
0
0
0
0
0
0
0
0
0
0
0
0
0
0
0
0
0
0
0
0
0
0
0
0
0
0
0
0
0
0
0
0
0
0
0
0
0
0
0
0
0
0
0
0
0
0
0
0
0
0
0
0
0
0
0
0
0
0
0
0
0
0
0
0
0
0
0
0
0
0
0
0
0
0
0
0
0
0
0
0
0
0
0
0
0
0
0
0
0
0
0
0
0
0
0
0
0
0
0
0
0
0
0
0
0
0
0
0
0
0
0
0
0
0
0
0
0
0
0
0
0
0
0
0
0
0
0
0
0
0
0
0
0
0
0
0
0
0
0
0
0
0
0
0
0
0
0
0
0
0
0
0
0
0
0
0
0
0
0
0
0
0
0
0
0
0
0
0
0
0
0
0
0
0
0
0
0
0
0
0
0
0
0
0
0
0
0
0
0
0
0
0
0
0
0
0
0
0
0
0
0
0
0
0
0
0
0
0
0
0
0
0
0
0
0
0
0
0
0
0
0
0
0
0
0
0
0
0
0
0
0
0
0
0
0
0
0
0
0
0
0
0
0
0
0
0
0
0
0
0
0
0
0
0
0
0
0
0
0
0
0
0
0
0
0
0
0
0
0
0
0
0
0
0
0
0
0
0
0
0
0
0
0
0
0
0
0
0
0
0
0
0
0
0
0
0
0
0
0
0
0
0
0
0
0
0
0
0
0
0
0
0
0
0
0
0
0
0
0
0
0
0
0
0
0
0
0
0
0
0
0
0
0
0
0
0
0
0
0
0
0
0
0
0
0
0
0
0
0
0
0
0
0
0
0
0
0
0
0
0
0
0
0
0
0
0
0
0
0
0
0
0
0
0
0
0
0
0
0
0
0
0
0
0
0
0
0
0
0
0
0
0
0
0
0
0
0
0
0
0
0
0
0
0
0
0
0
0
0
0
0
0
0
0
0
0
0
0
0
0
0
0
0
0
0
0
0
0
0
0
0
0
0
0
0
0
0
0
0
0
0
0
0
0
0
0
0
0
0
0
0
0
0
0
0
0
0
0
0
0
0
0
0
0
0
0
0
0
0
0
0
0
0
0
0
0
0
0
0
0
0
0
0
0
0
0
0
0
0
0
0
0
0
0
0
0
0
0
0
0
0
0
0
0
0
0
0
0
0
0
0
0
0
0
0
0
0
0
0
0
0
0
0
0
0
0
0
0
0
0
0
0
0
0
0
0
0
0
0
0
0
0
0
0
0
0
0
0
0
0
0
0
0
0
0
0
0
0
0
0
0
0
0
0
0
0
0
0
0
0
0
0
0
0
0
0
0
0
0
0
0
0
0
0
0
0
0
0
0
0
0
0
0
0
0
0
0
0
0
0
0
0
0
0
0
0
0
0
0
0
0
0
0
0
0
0
0
0
0
0
0
0
0
0
0
0
0
0
0
0
0
0
0
0
0
0
0
0
0
0
0
0
0
0
0
0
0
0
0
0
0
0
0
0
0
0
0
0
0
0
0
0
0
0
0
0
0
0
0
0
0
0
0
0
0
0
0
0
0
0
0
0
0
0
0
0
0
0
0
0
0
0
0
0
0
0
0
0
0
0
0
0
0
0
0
0
0
0
0
0
0
0
0
0
0
0
0
0
0
0
0
0
0
0
0
0
0
0
0
0
0
0
0
0
0
0
0
0
0
0
0
0
0
0
0
0
0
0
0
0
0
0
0
0
0
0
0
0
0
0
0
0
0
0
0
0
0
0
0
0
0
0
0
0
0
0
0
0
0
0
0
0
0
0
0
0
0
0
0
0
0
0
0
0
0
0
0
0
0
0
0
0
0
0
0
0
0
0
0
0
0
0
0
0
0
0
0
0
0
0
0
0
0
0
0
0
0
0
0
0
0
0
0
0
0
0
0
0
0
0
0
0
0
0
0
0
0
0
0
0
0
0
0
0
0
0
0
0
0
0
0
0
0
0
0
0
0
0
0
0
0
0
0
0
0
0
0
0
0
0
0
0
0
0
0
0
0
0
0
0
0
0
0
0
0
0
0
0
0
0
0
0
0
0
0
0
0
0
0
0
0
0
0
0
0
0
0
0
0
0
0
0
0
0
0
0
0
0
0
0
0
0
0
0
0
0
0
0
0
0
0
0
0
0
0
0
0
0
0
0
0
0
0
0
0
0
0
0
0
0
0
0
0
0
0
0
0
0
0
0
0
0
0
0
0
0
0
0
0
0
0
0
0
0
0
0
0
0
0
0
0
0
0
0
0
0
0
0
0
0
0
0
0
0
0
0
0
0
0
0
0
0
0
0
0
0
0
0
0
0
0
0
0
0
0
0
0
0
0
0
0
0
0
0
0
0
0
0
0
0
0
0
0
0
0
0
0
0
0
0
0
0
0
0
0
0
0
0
0
0
0
0
0
0
0
0
0
0
0
0
0
0
0
0
0
0
0
0
0
0
0
0
0
0
0
0
0
0
0
0
0
0
0
0
0
0
0
0
0
0
0
0
0
0
0
0
0
0
0
0
0
0
0
0
0
0
0
0
0
0
0
0
0
0
0
0
0
0
0
0
0
0
0
0
0
0
0
0
0
0
0
0
0
0
0
0
0
0
0
0
0
0
0
0
0
0
0
0
0
0
0
0
0
0
0
0
0
0
0
0
0
0
0
0
0
0
0
0
0
0
0
0
0
0
0
0
0
0
0
0
0
0
0
0
0
0
0
0
0
0
0
0
0
0
0
0
0
0
0
0
0
0
0
0
0
0
0
0
0
0
0
0
0
0
0
0
0
0
0
0
0
0
0
0
0
0
0
0
0
0
0
0
0
0
0
0
0
0
0
0
0
0
0
0
0
0
0
0
0
0
0
0
0
0
0
0
0
0
0
0
0
0
0
0
0
0
0
0
0
0
0
0
0
0
0
0
0
0
0
0
0
0
0
0
0
0
0
0
0
0
0
0
0
0
0
0
0
0
0
0
0
0
0
0
0
0
0
0
0
0
0
0
0
0
0
0
0
0
0
0
0
0
0
0
0
0
0
0
0
0
0
0
0
0
0
0
0
0
0
0
0
0
0
0
0
0
0
0
0
0
0
0
0
0
0
0
0
0
0
0
0
0
0
0
0
0
0
0
0
0
0
0
0
0
0
0
0
0
0
0
0
0
0
0
0
0
0
0
0
0
0
0
0
0
0
0
0
0
0
0
0
0
0
0
0
0
0
0
0
0
0
0
0
0
0
0
0
0
0
0
0
0
0
0
0
0
0
0
0
0
0
0
0
0
0
0
0
0
0
0
0
0
0
0
0
0
0
0
0
0
0
0
0
0
0
0
0
0
0
0
0
0
0
0
0
0
0
0
0
0
0
0
0
0
0
0
0
0
0
0
0
0
0
0
0
0
0
0
0
0
0
0
0
0
0
0
0
0
0
0
0
0
0
0
0
0
0
0
0
0
0
0
0
0
0
0
0
0
0
0
0
0
0
0
0
0
0
0
0
0
0
0
0
0
0
0
0
0
0
0
0
0
0
0
0
0
0
0
0
0
0
0
0
0
0
0
0
0
0
0
0
0
0
0
0
0
0
0
0
0
0
0
0
0
0
0
0
0
0
0
0
0
0
0
0
0
0
0
0
0
0
0
0
0
0
0
0
0
0
0
0
0
0
0
0
0
0
0
0
0
0
0
0
0
0
0
0
0
0
0
0
0
0
0
0
0
0
0
0
0
0
0
0
0
0
0
0
0
0
0
0
0
0
0
0
0
0
0
0
0
0
0
0
0
0
0
0
0
0
0
0
0
0
0
0
0
0
0
0
0
0
0
0
0
0
0
0
0
0
0
0
0
0
0
0
0
0
0
0
0
0
0
0
0
0
0
0
0
0
0
0
0
0
0
0
0
0
0
0
0
0
0
0
0
0
0
0
0
0
0
0
0
0
0
0
0
0
0
0
0
0
0
0
0
0
0
0
0
0
0
0
0
0
0
0
0
0
0
0
0
0
0
0
0
0
0
0
0
0
0
0
0
0
0
0
0
0
0
0
0
0
0
0
0
0
0
0
0
0
0
0
0
0
0
0
0
0
0
0
0
0
0
0
0
0
0
0
0
0
0
0
0
0
0
0
0
0
0
0
0
0
0
0
0
0
0
0
0
0
0
0
0
0
0
0
0
0
0
0
0
0
0
0
0
0
0
0
0
0
0
0
0
0
0
0
0
0
0
0
0
0
0
0
0
0
0
0
0
0
0
0
0
0
0
0
0
0
0
0
0
0
0
0
0
0
0
0
0
0
0
0
0
0
0
0
0
0
0
0
0
0
0
0
0
0
0
0
0
0
0
0
0
0
0
0
0
0
0
0
0
0
0
0
0
0
0
0
0
0
0
0
0
0
0
0
0
0
0
0
0
0
0
0
0
0
0
0
0
0
0
0
0
0
0
0
0
0
0
0
0
0
0
0
0
0
0
0
0
0
0
0
0
0
0
0
0
0
0
0
0
0
0
0
0
0
0
0
0
0
0
0
0
0
0
0
0
0
0
0
0
0
0
0
0
0
0
0
0
0
0
0
0
0
0
0
0
0
0
0
0
0
0
0
0
0
0
0
0
0
0
0
0
0
0
0
0
0
0
0
0
0
0
0
0
0
0
0
0
0
0
0
0
0
0
0
0
0
0
0
0
0
0
0
0
0
0
0
0
0
0
0
0
0
0
0
0
0
0
0
0
0
0
0
0
0
0
0
0
0
0
0
0
0
0
0
0
0
0
0
0
0
0
0
0
0
0
0
0
0
0
0
0
0
0
0
0
0
0
0
0
0
0
0
0
0
0
0
0
0
0
0
0
0
0
0
0
0
0
0
0
0
0
0
0
0
0
0
0
0
0
0
0
0
0
0
0
0
0
0
0
0
0
0
0
0
0
0
0
0
0
0
0
0
0
0
0
0
0
0
0
0
0
0
0
0
0
0
0
0
0
0
0
0
0
0
0
0
0
0
0
0
0
0
0
0
0
0
0
0
0
0
0
0
0
0
0
0
0
0
0
0
0
0
0
0
0
0
0
0
0
0
0
0
0
0
0
0
0
0
0
0
0
0
0
0
0
0
0
0
0
0
0
0
0
0
0
0
0
0
0
0
0
0
0
0
0
0
0
0
0
0
0
0
0
0
0
0
0
0
0
0
0
0
0
0
0
0
0
0
0
0
0
0
0
0
0
0
0
0
0
0
0
0
0
0
0
0
0
0
0
0
0
0
0
0
0
0
0
0
0
0
0
0
0
0
0
0
0
0
0
0
0
0
0
0
0
0
0
0
0
0
0
0
0
0
0
0
0
0
0
0
0
0
0
0
0
0
0
0
0
0
0
0
0
0
0
0
0
0
0
0
0
0
0
0
0
0
0
0
0
0
0
0
0
0
0
0
0
0
0
0
0
0
0
0
0
0
0
0
0
0
0
0
0
0
0
0
0
0
0
0
0
0
0
0
0
0
0
0
0
0
0
0
0
0
0
0
0
0
0
0
0
0
0
0
0
0
0
0
0
0
0
0
0
0
0
0
0
0
0
0
0
0
0
0
0
0
0
0
0
0
0
0
0
0
0
0
0
0
0
0
0
0
0
0
0
0
0
0
0
0
0
0
0
0
0
0
0
0
0
0
0
0
0
0
0
0
0
0
0
0
0
0
0
0
0
0
0
0
0
0
0
0
0
0
0
0
0
0
0
0
0
0
0
0
0
0
0
0
0
0
0
0
0
0
0
0
0
0
0
0
0
0
0
0
0
0
0
0
0
0
0
0
0
0
0
0
0
0
0
0
0
0
0
0
0
0
0
0
0
0
0
0
0
0
0
0
0
0
0
0
0
0
0
0
0
0
0
0
0
0
0
0
0
0
0
0
0
0
0
0
0
0
0
0
0
0
0
0
0
0
0
0
0
0
0
0
0
0
0
0
0
0
0
0
0
0
0
0
0
0
0
0
0
0
0
0
0
0
0
0
0
0
0
0
0
0
0
0
0
0
0
0
0
0
0
0
0
0
0
0
0
0
0
0
0
0
0
0
0
0
0
0
0
0
0
0
0
0
0
0
0
0
0
0
0
0
0
0
0
0
0
0
0
0
0
0
0
0
0
0
0
0
0
0
0
0
0
0
0
0
0
0
0
0
0
0
0
0
0
0
0
0
0
0
0
0
0
0
0
0
0
0
0
0
0
0
0
0
0
0
0
0
0
0
0
0
0
0
0
0
0
0
0
0
0
0
0
0
0
0
0
0
0
0
0
0
0
0
0
0
0
0
0
0
0
0
0
0
0
0
0
0
0
0
0
0
0
0
0
0
0
0
0
0
0
0
0
0
0
0
0
0
0
0
0
0
0
0
0
0
0
0
0
0
0
0
0
0
0
0
0
0
0
0
0
0
0
0
0
0
0
0
0
0
0
0
0
0
0
0
0
0
0
0
0
0
0
0
0
0
0
0
0
0
0
0
0
0
0
0
0
0
0
0
0
0
0
0
0
0
0
0
0
0
0
0
0
0
0
0
0
0
0
0
0
0
0
0
0
0
0
0
0
0
0
0
0
0
0
0
0
0
0
0
0
0
0
0
0
0
0
0
0
0
0
0
0
0
0
0
0
0
0
0
0
0
0
0
0
0
0
0
0
0
0
0
0
0
0
0
0
0
0
0
0
0
0
0
0
0
0
0
0
0
0
0
0
0
0
0
0
0
0
0
0
0
0
0
0
0
0
0
0
0
0
0
0
0
0
0
0
0
0
0
0
0
0
0
0
0
0
0
0
