-2.16043
-2.2073
-2.25354
-2.29734
-2.33674
-2.36991
-2.3953
-2.41254
-2.42222
-2.42575
-2.42495
-2.42166
-2.41734
-2.41287
-2.40842
-2.40358
-2.39757
-2.38961
-2.37918
-2.3663
-2.35157
-2.33609
-2.32107
-2.30757
-2.29625
-2.28714
-2.27974
-2.27311
-2.26614
-2.25781
-2.24739
-2.23434
-2.21841
-2.19956
-2.17784
-2.15332
-2.12612
-2.09642
-2.06451
-2.03082
-1.99591
-1.96033
-1.92454
-1.88878
-1.85302
-1.81707
-1.78076
-1.74412
-1.70775
-1.67311
-1.64253
-1.61857
-1.60348
-1.59839
-1.60282
-1.61455
-1.62984
-1.6441
-1.6527
-1.65255
-1.64265
-1.62287
-1.59272
-1.55445
-1.51387
-1.47748
-1.45089
-1.43752
-1.43788
-1.44963
-1.46849
-1.48959
-1.50888
-1.52471
-1.53734
-1.54784
-1.55799
-1.56981
-1.585
-1.6045
-1.6282
-1.65505
-1.68329
-1.711
-1.73667
-1.75937
-1.77934
-1.79806
-1.81739
-1.83872
-1.86222
-1.8865
-1.90878
-1.9257
-1.93427
-1.93165
-1.91748
-1.89554
-1.87167
-1.85209
-1.84172
-1.84276
-1.85405
-1.87108
-1.88698
-1.89406
-1.88645
-1.86159
-1.82094
-1.76918
-1.71119
-1.65256
-1.59838
-1.55213
-1.51503
-1.48605
-1.4623
-1.43996
-1.41521
-1.38542
-1.34918
-1.30587
-1.25611
-1.20257
-1.15016
-1.10406
-1.06818
-1.04399
-1.02993
-1.02158
-1.01276
-0.997088
-0.969795
-0.927394
-0.870072
-0.805939
-0.746111
-0.701396
-0.679539
-0.68362
-0.711729
-0.757654
-0.812254
-0.865283
-0.908463
-0.93778
-0.952874
-0.955632
-0.948692
-0.93425
-0.914689
-0.892125
-0.868106
-0.843489
-0.818606
-0.793538
-0.768411
-0.74365
-0.720077
-0.698602
-0.679778
-0.66332
-0.647795
-0.630648
-0.608568
-0.578118
-0.536423
-0.482182
-0.416097
-0.339587
-0.253904
-0.160394
-0.0623584
0.0320979
0.113027
0.171628
0.203206
0.209898
0.201593
0.194022
0.204237
0.245115
0.316816
0.411877
0.52513
0.644923
0.755462
0.84234
0.895213
0.907714
0.877215
0.80514
0.69773
0.566463
0.427211
0.29773
0.190019
0.105155
0.0427709
0.00816793
-0.00264893
-0.00131979
0
-0.00851612
-0.0264538
-0.0466731
-0.0557027
-0.0381488
0.0178775
0.109993
0.226346
0.371656
0.751979
1.24102
1.86873
2.71365
3.72614
4.67804
5.24525
5.1908
4.52127
3.4943
2.46629
1.69018
1.21016
0.910889
0.72044
0.613812
0.524318
0.455272
0.408861
0.384857
0.38105
0.394154
0.420848
0.458305
0.504238
0.557957
0.621933
0.701182
0.793078
0.87987
0.937448
0.944709
0.89403
0.796909
0.680817
0.578182
0.51328
0.483711
0.473022
0.4755
0.488321
0.509024
0.535412
0.566331
0.601141
0.639444
0.680947
0.725453
0.77284
0.823015
0.875804
0.930794
0.987188
1.04378
1.09908
1.15163
1.2004
1.24511
1.2864
1.32574
1.36512
1.40657
1.45175
1.50153
1.55592
1.61416
1.67498
1.73677
1.79756
1.85442
1.90357
1.94175
1.96627
1.97579
1.97087
1.95374
1.92731
1.89355
1.85219
1.80165
1.73842
1.65895
1.56124
1.44589
1.31637
1.17845
1.03915
0.904644
0.77893
0.665505
0.566691
0.483525
0.415942
0.363061
0.323443
0.295295
0.276852
0.26652
0.262063
0.260752
0.26018
0.258657
0.255554
0.251426
0.247833
0.246831
0.250323
0.259278
0.273393
0.292221
0.314683
0.339875
0.367649
0.398953
0.435799
0.484109
0.558907
0.667557
0.788809
0.888385
0.934613
0.913271
0.833084
0.719842
0.603902
0.508574
0.437591
0.382062
0.336523
0.29855
0.266576
0.23913
0.214628
0.191434
0.168209
0.144148
0.119144
0.093803
0.0692745
0.0469255
0.0282032
0.0142504
0.00536089
0.00153103
0.00294352
0.0103654
0.0251932
0.049043
0.0829929
0.126782
0.179261
0.235918
0.290697
0.337739
0.373002
0.395364
0.406879
0.412107
0.416755
0.426029
0.44324
0.470629
0.504119
0.536073
0.558136
0.563968
0.55116
0.52175
0.481346
0.4373
0.396646
0.36312
0.337138
0.317982
0.304986
0.296535
0.290712
0.285735
0.280292
0.273693
0.265827
0.256961
0.247497
0.23779
0.228106
0.21874
0.210237
0.203627
0.200624
0.203756
0.215889
0.239884
0.27799
0.334299
0.415641
0.517411
0.621484
0.707509
0.759538
0.771184
0.747312
0.70186
0.652964
0.617431
0.603045
0.606577
0.623735
0.65279
0.691519
0.735442
0.777414
0.809543
0.824764
0.81807
0.787594
0.735195
0.666232
0.588398
0.509815
0.436664
0.370792
0.311292
0.256786
0.205131
0.154177
0.102455
0.0503862
0
-0.0113945
0.448773
1.33265
2.59316
4.10782
5.66632
6.95849
7.63064
7.4355
6.39139
4.81786
3.18893
1.8913
1.05983
0.594378
0.323668
0.236802
0.153495
0.0738929
-0.000575924
-0.0668506
-0.119641
-0.154656
-0.167449
-0.15505
-0.117789
-0.0577406
0.0143666
0.0851016
0.142233
0.178277
0.192248
0.189064
0.177061
0.16472
0.157129
0.15445
0.155452
0.157106
0.154848
0.14397
0.120882
0.084155
0.0350671
-0.0225294
-0.0830192
-0.140295
-0.189535
-0.228647
-0.256001
-0.271947
-0.277932
-0.275769
-0.266971
-0.252361
-0.232029
-0.205602
-0.17266
-0.133351
-0.088393
-0.0387101
0.0145557
0.0701534
0.126923
0.18392
0.240461
0.29611
0.350612
0.403807
0.45554
0.505556
0.553357
0.597962
0.637822
0.671551
0.697906
0.716219
0.726706
0.730483
0.729161
0.724102
0.715596
0.702227
0.680951
0.647745
0.598827
0.532018
0.447759
0.349414
0.242711
0.1345
0.030949
-0.0646601
-0.150303
-0.22549
-0.291198
-0.349073
-0.40066
-0.44679
-0.487237
-0.52103
-0.54683
-0.56354
-0.570815
-0.569297
-0.560499
-0.546403
-0.528927
-0.50951
-0.488718
-0.46635
-0.441662
-0.413756
-0.381986
-0.346242
-0.30702
-0.265368
-0.2226
-0.179992
-0.13855
-0.0989219
-0.061509
-0.0266756
0.00516915
0.0333772
0.0570758
0.0753348
0.0874257
0.0930852
0.0927004
0.0873476
0.0786564
0.0685138
0.0586455
0.0502225
0.0436151
0.0382222
0.0326291
0.0250945
0.0141125
-0.00110781
-0.0204094
-0.0427829
-0.0667498
-0.0908889
-0.114341
-0.136979
-0.159303
-0.182177
-0.206442
-0.232523
-0.260176
-0.288418
-0.315642
-0.339841
-0.358606
-0.369515
-0.370897
-0.361827
-0.342296
-0.313286
-0.276648
-0.234804
-0.190292
-0.145322
-0.101446
-0.0594388
-0.0199502
0.015977
0.046888
0.0711967
0.0872853
0.0942833
0.0927943
0.0851682
0.075118
0.0667869
0.0636278
0.0670222
0.0760533
0.0895131
0.105801
0.123016
0.139181
0.152568
0.161878
0.166288
0.165412
0.15921
0.147876
0.131736
0.111191
0.0868079
0.0592448
0.0293146
-0.00175734
-0.0323459
-0.0602968
-0.0826965
-0.0963563
-0.0985776
-0.0872979
-0.0614757
-0.0213361
0.0316164
0.0948439
0.165211
0.239468
0.314574
0.38839
0.459404
0.52636
0.588287
0.644453
0.694285
0.737184
0.772661
0.800595
0.821066
0.834455
0.841556
0.843639
0.84239
0.839719
0.837429
0.836828
0.838421
0.841783
0.845126
0.845687
0.840289
0.825893
0.800045
0.761093
0.708168
0.641013
0.555964
0.44288
0.304526
0.146408
-0.0227136
0
0.589573
1.90205
3.79236
5.80961
7.37316
8.03513
7.6733
6.50898
4.96361
3.45579
2.25219
1.42617
0.908851
0.581917
0.470167
0.378364
0.297854
0.231774
0.181748
0.147885
0.128894
0.122244
0.124602
0.132095
0.140353
0.145215
0.143626
0.134113
0.117089
0.0948715
0.071313
0.0510655
0.0386004
0.0372238
0.0477381
0.07019
0.101896
0.138598
0.175263
0.206171
0.226083
0.231716
0.221979
0.198249
0.164311
0.125764
0.0888594
0.0589855
0.039334
0.0291367
0.0265519
0.0291783
0.034701
0.0416352
0.0495387
0.058695
0.0695357
0.0821494
0.0961662
0.111028
0.126431
0.142635
0.160423
0.180719
0.204076
0.230251
0.258006
0.286016
0.312836
0.337102
0.357444
0.37278
0.38267
0.387174
0.386887
0.382888
0.37651
0.368945
0.360722
0.35133
0.339127
0.321887
0.297715
0.265882
0.227195
0.183681
0.137723
0.091011
0.0438512
-0.0046607
-0.0561853
-0.112514
-0.17494
-0.243814
-0.318415
-0.397158
-0.478009
-0.558955
-0.638489
-0.715543
-0.789429
-0.859704
-0.925986
-0.98778
-1.04435
-1.09446
-1.13682
-1.17035
-1.19428
-1.20843
-1.21333
-1.21022
-1.2008
-1.18689
-1.16994
-1.15074
-1.12905
-1.10378
-1.07326
-1.03574
-0.989983
-0.935778
-0.8743
-0.807817
-0.739933
-0.675056
-0.617302
-0.569762
-0.534062
-0.510348
-0.497648
-0.494485
-0.499507
-0.511813
-0.53095
-0.557197
-0.590857
-0.63185
-0.679427
-0.73211
-0.787873
-0.844497
-0.899995
-0.952955
-1.0025
-1.04829
-1.09029
-1.12866
-1.16354
-1.19512
-1.22364
-1.24951
-1.27351
-1.29682
-1.32053
-1.34517
-1.37024
-1.39367
-1.41177
-1.41996
-1.41383
-1.39029
-1.34832
-1.28917
-1.21609
-1.13367
-1.04738
-0.962243
-0.883483
-0.815511
-0.761733
-0.724244
-0.703558
-0.698511
-0.706404
-0.723427
-0.745227
-0.767507
-0.786817
-0.800946
-0.808478
-0.808545
-0.800806
-0.785488
-0.763301
-0.735317
-0.702815
-0.667145
-0.629617
-0.591438
-0.553724
-0.517607
-0.484196
-0.454516
-0.42942
-0.409398
-0.394354
-0.383412
-0.374797
-0.365873
-0.353314
-0.333566
-0.299463
-0.23197
-0.109145
0.0444893
0.186986
0.275444
0.284057
0.214541
0.0944705
-0.0340676
-0.129376
-0.165427
-0.161785
-0.137194
-0.0999556
-0.0534096
0
0.0622105
0.129401
0.202218
0.281893
0.369636
0.466036
0.570504
0.68117
0.799172
0.929435
1.24469
1.9158
2.94326
4.09812
5.01133
5.36488
5.05742
4.23735
3.19618
2.21122
1.44376
0.934655
0.666225
0.644669
0.62429
0.604059
0.584119
0.565294
0.54916
0.537732
0.532907
0.535836
0.546501
0.563669
0.585262
0.609002
0.633099
0.656811
0.68039
0.704885
0.731854
0.762837
0.799067
0.842085
0.892752
0.947002
0.997437
1.0364
1.05875
1.06385
1.05598
1.04285
1.03296
1.03305
1.04399
1.06369
1.09081
1.12427
1.16288
1.20541
1.25078
1.29817
1.34693
1.39652
1.44632
1.49558
1.5433
1.58836
1.62953
1.66572
1.69612
1.72038
1.73864
1.75149
1.75987
1.76488
1.76766
1.76915
1.77003
1.77054
1.77048
1.7692
1.76558
1.75829
1.74595
1.72737
1.70174
1.66871
1.62842
1.58133
1.5281
1.46947
1.40642
1.33978
1.27045
1.1994
1.12752
1.05549
0.98362
0.911808
0.83966
0.766717
0.692744
0.617965
0.543178
0.469734
0.399415
0.33417
0.276118
0.227357
0.189801
0.16527
0.156493
0.167305
0.199194
0.245817
0.295398
0.335389
0.355604
0.350671
0.321006
0.272137
0.212786
0.152424
0.0984742
0.0538766
0.0188215
-0.00716991
-0.0245367
-0.0337435
-0.0355835
-0.0310354
-0.0213966
-0.00866747
0.00465031
0.0160912
0.0236025
0.0259014
0.0227001
0.0147446
0.00366478
-0.00829468
-0.0186253
-0.0250917
-0.0257319
-0.0189062
-0.00359211
0.0204393
0.0525183
0.0910904
0.133943
0.178385
0.221746
0.261781
0.296953
0.326526
0.350466
0.369197
0.383314
0.393459
0.400126
0.403618
0.40405
0.401377
0.395409
0.385923
0.372808
0.356269
0.337037
0.316472
0.296478
0.279177
0.266413
0.259481
0.258987
0.263303
0.26888
0.271996
0.270147
0.263052
0.252842
0.243347
0.238746
0.242103
0.253581
0.271066
0.292447
0.315016
0.3361
0.353587
0.36639
0.374621
0.379577
0.383552
0.389482
0.400494
0.419386
0.448149
0.487259
0.53591
0.592734
0.655816
0.722983
0.792173
0.861758
0.930623
0.998073
1.06353
1.12598
1.18314
1.23059
1.26295
1.27423
1.25967
1.21765
1.15107
1.06738
0.97726
0.892002
0.820086
0.762229
0.718015
0.684244
0.654513
0.620967
0.575768
0.509802
0.393957
0.22618
0.0243986
-0.192061
-0.411534
0
0.949132
2.37118
4.07725
5.78376
7.153
7.86686
7.73829
6.81266
5.37896
3.85661
2.61268
1.81824
1.42523
1.25315
1.05234
0.859483
0.681442
0.52903
0.413285
0.342464
0.319155
0.33883
0.39053
0.459441
0.530396
0.591662
0.640044
0.67654
0.701116
0.714471
0.717935
0.712946
0.700609
0.681406
0.655162
0.621398
0.579522
0.529453
0.472042
0.409279
0.34421
0.280574
0.222245
0.17238
0.133598
0.107548
0.095867
0.107297
0.177577
0.380659
0.683265
0.997215
1.20691
1.22142
1.02712
0.701668
0.380876
0.202096
0.249794
0.370811
0.504257
0.638722
0.769303
0.89163
1.00052
1.09048
1.15991
1.20833
1.23655
1.24687
1.24323
1.23065
1.21415
1.19725
1.18085
1.16315
1.14057
1.10889
1.06462
1.00615
0.93416
0.851256
0.760843
0.665783
0.567554
0.46619
0.360476
0.249123
0.131643
0.00902576
-0.116043
-0.23952
-0.356838
-0.463632
-0.55443
-0.62809
-0.689383
-0.74539
-0.802756
-0.865132
-0.931802
-0.998025
-1.0569
-1.10198
-1.13218
-1.14517
-1.1437
-1.13449
-1.12461
-1.11895
-1.11846
-1.11982
-1.11666
-1.10192
-1.0706
-1.02321
-0.963111
-0.897226
-0.833888
-0.780376
-0.740968
-0.7162
-0.703507
-0.698833
-0.698425
-0.699917
-0.702574
-0.706718
-0.712876
-0.721257
-0.73145
-0.742432
-0.752877
-0.761718
-0.768642
-0.773976
-0.779821
-0.790045
-0.809086
-0.840616
-0.886307
-0.945152
-1.01364
-1.08669
-1.15888
-1.22591
-1.28604
-1.3371
-1.37671
-1.40343
-1.41604
-1.41373
-1.39639
-1.36493
-1.32134
-1.26854
-1.2099
-1.14886
-1.0883
-1.03037
-0.976752
-0.928596
-0.886709
-0.851933
-0.825351
-0.807818
-0.799164
-0.798318
-0.802965
-0.809439
-0.813043
-0.808846
-0.792841
-0.763123
-0.718749
-0.664125
-0.608013
-0.559943
-0.52748
-0.514249
-0.519362
-0.538263
-0.564481
-0.591502
-0.614601
-0.631691
-0.641851
-0.644246
-0.638624
-0.624137
-0.599874
-0.569697
-0.542136
-0.526083
-0.526951
-0.543193
-0.565166
-0.57751
-0.564551
-0.516585
-0.440345
-0.342367
-0.237068
-0.140544
-0.0658686
-0.0196767
-0.00104666
-0.0027895
-0.0144051
-0.0255415
-0.0295516
-0.0253019
-0.0140236
0.00238209
0.0216184
0.0410801
0.0581771
0.0705682
0.0763051
0.0739379
0.0625736
0.0418866
0.0120517
-0.0264269
-0.0718216
-0.121846
-0.207137
0
0.743986
2.10491
3.88556
5.64381
6.86703
7.19573
6.5747
5.25863
3.68229
2.26671
1.2564
0.661008
0.320472
0.05358
-0.110916
-0.261271
-0.398332
-0.518291
-0.619104
-0.700399
-0.762978
-0.808236
-0.83763
-0.852338
-0.853211
-0.840993
-0.816696
-0.781965
-0.738915
-0.690847
-0.641425
-0.594109
-0.551605
-0.515497
-0.486168
-0.462976
-0.444616
-0.4295
-0.416083
-0.403222
-0.39009
-0.376115
-0.360893
-0.344036
-0.325086
-0.30352
-0.278881
-0.250997
-0.220208
-0.187447
-0.154414
-0.123296
-0.096274
-0.0750011
-0.0601661
-0.0512666
-0.0466582
-0.0438624
-0.0400487
-0.0325785
-0.0195241
0.000117302
0.026471
0.0590294
0.0969327
0.13902
0.183948
0.230298
0.27663
0.321551
0.36382
0.402404
0.436486
0.465393
0.488146
0.503494
0.510259
0.507261
0.493554
0.46887
0.433996
0.390956
0.342885
0.29361
0.247044
0.206181
0.172585
0.146945
0.129094
0.117722
0.109571
0.100011
0.0842493
0.0582112
0.0193474
-0.0328129
-0.0964994
-0.167992
-0.24233
-0.314402
-0.380569
-0.437749
-0.483668
-0.519762
-0.549449
-0.576857
-0.605539
-0.637486
-0.67276
-0.70983
-0.746413
-0.780462
-0.811293
-0.83895
-0.863797
-0.886163
-0.905778
-0.921156
-0.929847
-0.928743
-0.914911
-0.886528
-0.843596
-0.788194
-0.724176
-0.656406
-0.589754
-0.52765
-0.472411
-0.424945
-0.384885
-0.350969
-0.321545
-0.295081
-0.270556
-0.247376
-0.22548
-0.205081
-0.186416
-0.169624
-0.154816
-0.142451
-0.133027
-0.127325
-0.126187
-0.130219
-0.139603
-0.154164
-0.173614
-0.197803
-0.226604
-0.259462
-0.295802
-0.334288
-0.372796
-0.408743
-0.439635
-0.462334
-0.476255
-0.484053
-0.489715
-0.496838
-0.507231
-0.520542
-0.535042
-0.549047
-0.562103
-0.575184
-0.589584
-0.605826
-0.622631
-0.636618
-0.642949
-0.636733
-0.614759
-0.579128
-0.532192
-0.476902
-0.418692
-0.362973
-0.313794
-0.272889
-0.23937
-0.210159
-0.18102
-0.147868
-0.108081
-0.061634
-0.010051
0.0443725
0.0986695
0.149862
0.195501
0.233981
0.264592
0.287123
0.302147
0.310517
0.313187
0.311123
0.30524
0.296349
0.28506
0.271693
0.256238
0.238468
0.217905
0.194063
0.166602
0.135411
0.100591
0.0623326
0.0207716
-0.0241939
-0.0730023
-0.126326
-0.185133
-0.251441
-0.327121
-0.406355
-0.476244
-0.522038
-0.532711
-0.505582
-0.447433
-0.371435
-0.291676
-0.218259
-0.173732
0
0.558175
1.4942
2.6238
3.67739
4.41781
4.70403
4.48958
3.80184
2.74594
1.52019
0.392127
-0.391567
-0.720173
-0.687171
-0.681835
-0.683461
-0.693671
-0.713073
-0.741268
-0.777079
-0.818847
-0.864406
-0.911574
-0.958374
-1.00247
-1.04141
-1.07285
-1.09492
-1.10658
-1.10789
-1.10003
-1.08508
-1.06562
-1.04426
-1.02312
-1.00357
-0.98617
-0.970741
-0.956538
-0.9423
-0.926448
-0.907198
-0.882713
-0.851347
-0.811976
-0.764343
-0.709294
-0.648898
-0.58585
-0.523005
-0.462933
-0.407451
-0.35734
-0.312287
-0.271026
-0.231576
-0.191555
-0.148528
-0.100378
-0.0456912
0.0158728
0.0843093
0.157037
0.228923
0.293981
0.346576
0.382504
0.399637
0.397995
0.379366
0.346667
0.303466
0.25357
0.200018
0.1451
0.0905017
0.037358
-0.0136845
-0.0623939
-0.108926
-0.153789
-0.197761
-0.241777
-0.286827
-0.33386
-0.383733
-0.437182
-0.494827
-0.557178
-0.624617
-0.697324
-0.775142
-0.85739
-0.942656
-1.0287
-1.11184
-1.18708
-1.24935
-1.29448
-1.32024
-1.32699
-1.31772
-1.29732
-1.27143
-1.24504
-1.22134
-1.20152
-1.18507
-1.17047
-1.15625
-1.14185
-1.12911
-1.12226
-1.12657
-1.14646
-1.18385
-1.23737
-1.30272
-1.37369
-1.4436
-1.50763
-1.56355
-1.60927
-1.64318
-1.66439
-1.67289
-1.66962
-1.65607
-1.63399
-1.60606
-1.57779
-1.55593
-1.54607
-1.55096
-1.56909
-1.59443
-1.61777
-1.62938
-1.62229
-1.59704
-1.5579
-1.5105
-1.46215
-1.41958
-1.38703
-1.36521
-1.35112
-1.33899
-1.32168
-1.29258
-1.24845
-1.18966
-1.11394
-1.02324
-0.927778
-0.840201
-0.771846
-0.730294
-0.718174
-0.733299
-0.769744
-0.819248
-0.872486
-0.920769
-0.958655
-0.983068
-0.984594
-0.950749
-0.89495
-0.839708
-0.808359
-0.814925
-0.857155
-0.916875
-0.968017
-0.988235
-0.967978
-0.925974
-0.873907
-0.81659
-0.758053
-0.701371
-0.648534
-0.600847
-0.558953
-0.523101
-0.493541
-0.470586
-0.454492
-0.445239
-0.442303
-0.444504
-0.449968
-0.456226
-0.460528
-0.460117
-0.452583
-0.436185
-0.410371
-0.375642
-0.333064
-0.284524
-0.232578
-0.180148
-0.130615
-0.0870008
-0.051424
-0.0246352
-0.00575676
-0.000865412
0
0.363242
1.18652
2.37259
3.62364
4.54494
4.81957
4.36278
3.36223
2.17487
1.14537
0.458775
0.105618
-0.0404425
-0.136807
-0.232249
-0.326777
-0.419252
-0.507106
-0.585162
-0.64701
-0.685725
-0.69541
-0.673541
-0.622844
-0.551675
-0.472373
-0.397942
-0.33833
-0.293968
-0.260433
-0.235425
-0.216371
-0.200637
-0.18609
-0.17146
-0.156287
-0.140688
-0.125052
-0.109735
-0.0948452
-0.0801577
-0.0651363
-0.0490169
-0.0309183
-0.00995946
0.0146019
0.043197
0.0757538
0.111722
0.149711
0.187403
0.222275
0.25219
0.275914
0.293382
0.305664
0.314712
0.323042
0.333327
0.348225
0.370304
0.401747
0.44397
0.497224
0.560321
0.630317
0.703585
0.776121
0.843956
0.903636
0.952087
0.986948
1.00733
1.01322
1.00538
0.985269
0.955032
0.917288
0.874835
0.830232
0.785364
0.741076
0.697278
0.653144
0.607379
0.558614
0.505804
0.448547
0.387254
0.323139
0.258019
0.193955
0.132847
0.0761038
0.0243215
-0.0230237
-0.0674056
-0.110867
-0.155506
-0.202928
-0.253791
-0.307577
-0.362695
-0.416352
-0.465293
-0.506436
-0.537403
-0.556848
-0.564548
-0.561268
-0.548509
-0.528207
-0.502718
-0.474168
-0.444382
-0.414979
-0.387351
-0.362723
-0.341963
-0.325187
-0.311676
-0.299706
-0.286526
-0.268571
-0.241969
-0.203295
-0.147772
-0.0668198
0.0335895
0.134301
0.214042
0.257422
0.260559
0.231769
0.187209
0.143795
0.112882
0.0937843
0.0813755
0.0728082
0.0656317
0.0578097
0.0480912
0.0361249
0.0223567
0.00780048
-0.00644565
-0.0194679
-0.0306471
-0.0400259
-0.0483139
-0.0565064
-0.0654285
-0.0753037
-0.0855114
-0.0946213
-0.10069
-0.101719
-0.0966324
-0.0851113
-0.0670961
-0.043136
-0.0146864
0.0160482
0.0464004
0.0733793
0.0940708
0.106545
0.110175
0.105978
0.0966999
0.0865164
0.0803267
0.082731
0.0969498
0.123567
0.160399
0.204916
0.253353
0.302048
0.348385
0.391378
0.431748
0.471477
0.513018
0.558389
0.608269
0.66224
0.718282
0.772556
0.820659
0.858946
0.885554
0.900984
0.908085
0.911397
0.916005
0.92618
0.945993
0.97513
1.00622
1.02834
1.03014
1.00291
0.942712
0.851314
0.735904
0.608008
0.481615
0.367487
0.271034
0.196492
0.146181
0.127268
0.135965
0.158367
0.178872
0.184355
0.167251
0.126709
0.0678681
0
0.39828
1.26607
2.54125
4.08732
5.68783
7.05269
7.86683
7.90359
7.14947
5.84126
4.365
3.07127
2.13134
1.5231
1.12492
0.920634
0.745574
0.583013
0.437052
0.310425
0.204927
0.121511
0.058243
0.0104653
-0.0270733
-0.059198
-0.0894658
-0.119699
-0.149975
-0.179016
-0.204805
-0.2255
-0.240066
-0.247844
-0.248566
-0.242584
-0.230746
-0.214276
-0.195068
-0.175806
-0.158883
-0.145607
-0.13564
-0.126839
-0.115678
-0.0981945
-0.0711866
-0.0332331
0.0137748
0.0667692
0.122992
0.179607
0.23429
0.285595
0.333057
0.377066
0.418608
0.459008
0.499745
0.542346
0.588326
0.63911
0.695894
0.759462
0.830003
0.907121
0.989721
1.07601
1.16338
1.24755
1.32151
1.37809
1.41012
1.41182
1.3808
1.31987
1.23733
1.14529
1.05616
0.97889
0.91331
0.855362
0.802718
0.752793
0.703304
0.652769
0.600621
0.546984
0.492235
0.436598
0.379893
0.321544
0.260827
0.197039
0.12991
0.0609379
-0.00493956
-0.0603582
-0.097418
-0.109757
-0.0944057
-0.0528957
0.00870524
0.0808734
0.152604
0.214335
0.261964
0.293535
0.309094
0.311119
0.303731
0.291688
0.279401
0.269865
0.264293
0.26329
0.266853
0.27316
0.279692
0.284042
0.28446
0.280054
0.270591
0.256028
0.236086
0.210177
0.177942
0.139718
0.097323
0.0542813
0.0154031
-0.0142193
-0.030461
-0.0314661
-0.0176379
0.00830011
0.0420015
0.0784854
0.113223
0.143136
0.166139
0.181646
0.190404
0.194259
0.19579
0.197822
0.202902
0.212821
0.228316
0.248806
0.273069
0.299685
0.327264
0.354722
0.381368
0.406821
0.430781
0.45293
0.472831
0.489957
0.503778
0.513814
0.519615
0.520578
0.515842
0.50467
0.486479
0.461182
0.429448
0.39274
0.353033
0.312292
0.27193
0.232467
0.193656
0.154918
0.115981
0.0774728
0.0413788
0.0107267
-0.0112204
-0.0219924
-0.0207215
-0.00840099
0.0125026
0.0389113
0.0681115
0.0983589
0.129146
0.160712
0.193529
0.227862
0.263597
0.299937
0.335872
0.370768
0.404874
0.439553
0.477088
0.520121
0.570922
0.630738
0.698811
0.773409
0.852477
0.933584
1.01397
1.09021
1.15802
1.21325
1.25256
1.27342
1.27478
1.25764
1.22514
1.18197
1.13307
1.08233
1.03143
0.979871
0.926113
0.86796
0.802279
0.724757
0.630075
0.514923
0.384838
0.256272
0.146395
0.0669248
0.0199356
0
0.355573
1.17696
2.58707
4.47582
6.4436
7.93373
8.49398
7.99873
6.68868
5.02076
3.44504
2.24487
1.49813
1.13158
1.0059
0.953535
0.905369
0.860597
0.82068
0.786737
0.759599
0.73962
0.726072
0.717692
0.713133
0.711358
0.711887
0.71479
0.720435
0.729073
0.740441
0.753615
0.766765
0.777578
0.783894
0.784307
0.77858
0.767747
0.753885
0.739637
0.727645
0.719888
0.71721
0.719621
0.726792
0.738119
0.752327
0.767835
0.783516
0.799035
0.814942
0.832444
0.852943
0.877518
0.906595
0.939847
0.976905
1.01772
1.06294
1.11391
1.17233
1.23952
1.31588
1.40011
1.48988
1.58299
1.67733
1.77108
1.86295
1.952
2.03729
2.11756
2.19132
2.25662
2.31126
2.35293
2.37895
2.38784
2.37879
2.35173
2.30734
2.24708
2.17308
2.08808
1.99521
1.89784
1.79929
1.70208
1.60818
1.51888
1.43475
1.35536
1.27957
1.20583
1.1326
1.05879
0.984085
0.909163
0.835724
0.766476
0.704481
0.652671
0.613392
0.588082
0.577126
0.579876
0.594787
0.619611
0.651615
0.687662
0.724816
0.760442
0.792437
0.819582
0.841781
0.860117
0.876671
0.8941
0.915034
0.941461
0.974179
1.01239
1.05431
1.09765
1.13961
1.17725
1.20795
1.2296
1.24076
1.24064
1.22909
1.20659
1.17423
1.13366
1.08704
1.03664
0.984424
0.931715
0.878937
0.82512
0.768391
0.707054
0.640747
0.570989
0.50472
0.451091
0.418154
0.409624
0.423221
0.451349
0.483773
0.511074
0.528645
0.536532
0.535933
0.529743
0.52159
0.514875
0.511845
0.514226
0.523021
0.538474
0.560113
0.586898
0.617373
0.649911
0.68289
0.714785
0.74384
0.767877
0.784948
0.793087
0.790659
0.776853
0.75209
0.718147
0.677915
0.634894
0.592623
0.553816
0.52029
0.493763
0.475955
0.468238
0.471572
0.486349
0.512133
0.54824
0.592833
0.641063
0.686784
0.723804
0.746833
0.752164
0.737972
0.704288
0.652775
0.586479
0.510239
0.429098
0.34771
0.270426
0.20092
0.141399
0.0928623
0.0558499
0.0302265
0.0135191
0
-0.022997
-0.0552193
-0.100988
-0.162225
-0.238284
-0.326427
-0.422751
-0.523194
-0.625643
-0.272515
0.538842
1.82107
3.42748
5.0665
6.36772
6.98738
6.73516
5.67631
4.13839
2.58548
1.4099
0.762183
0.528446
0.450191
0.286725
0.130722
-0.0172949
-0.154052
-0.277262
-0.385732
-0.479463
-0.559804
-0.628724
-0.68817
-0.739163
-0.781193
-0.813311
-0.833722
-0.840611
-0.833031
-0.811524
-0.778281
-0.736813
-0.691296
-0.64584
-0.603665
-0.568006
-0.540936
-0.522639
-0.511852
-0.505892
-0.500914
-0.492572
-0.477065
-0.452271
-0.418478
-0.378448
-0.336004
-0.294718
-0.256421
-0.220366
-0.183407
-0.141113
-0.0893986
-0.0260197
0.0470539
0.126632
0.209306
0.291234
0.368504
0.437408
0.495068
0.540015
0.571983
0.591827
0.601351
0.603074
0.59993
0.59495
0.590951
0.590247
0.594386
0.604224
0.620063
0.641649
0.668434
0.699116
0.73069
0.75894
0.779405
0.788144
0.782454
0.761303
0.725356
0.676614
0.61781
0.551965
0.481917
0.409694
0.336738
0.26423
0.193295
0.125142
0.0610943
0.00247192
-0.0494951
-0.0938891
-0.130288
-0.1588
-0.180072
-0.195243
-0.205575
-0.212762
-0.219027
-0.226376
-0.236228
-0.249091
-0.264387
-0.280524
-0.29522
-0.305998
-0.310754
-0.308716
-0.299848
-0.284509
-0.263525
-0.23811
-0.209623
-0.179411
-0.148699
-0.118596
-0.0901764
-0.0641167
-0.0405739
-0.019001
0.0019558
0.0243248
0.050388
0.0820274
0.120023
0.16387
0.211004
0.25675
0.29581
0.323621
0.337531
0.337452
0.325887
0.307336
0.287291
0.271089
0.262555
0.263168
0.272523
0.289306
0.311731
0.337622
0.364483
0.389947
0.412079
0.429509
0.441425
0.447454
0.44749
0.441425
0.429412
0.411831
0.38948
0.36376
0.336714
0.310839
0.288659
0.272682
0.265477
0.266169
0.270634
0.273666
0.270892
0.260249
0.242396
0.219965
0.196175
0.173645
0.153642
0.136947
0.124913
0.119638
0.123971
0.141038
0.173446
0.222461
0.285815
0.360963
0.444721
0.533173
0.622147
0.707464
0.784821
0.849828
0.898281
0.926834
0.932673
0.91385
0.869912
0.802589
0.716268
0.617994
0.516859
0.422795
0.344086
0.295239
0.292328
0.330189
0.388051
0.441546
0.470302
0.462546
0.41595
0.335747
0.231804
0.11593
0
0.032082
0.517656
1.52046
3.02609
4.84482
6.61849
7.9
8.30876
7.70591
6.28535
4.4999
2.84777
1.65135
0.963858
0.640012
0.505409
0.397707
0.295835
0.202763
0.121005
0.0523975
-0.0019989
-0.0418961
-0.0676331
-0.0799286
-0.0795864
-0.0672237
-0.0432488
-0.00790863
0.0384594
0.0951038
0.160583
0.232669
0.308506
0.384579
0.457394
0.523912
0.58184
0.629699
0.666694
0.692223
0.706194
0.708713
0.700199
0.681629
0.654773
0.622305
0.5877
0.554908
0.527831
0.509462
0.502128
0.506965
0.523831
0.552614
0.59182
0.637799
0.687213
0.737937
0.789575
0.8434
0.901668
0.966539
1.03901
1.11817
1.20103
1.28459
1.36602
1.44293
1.51369
1.57747
1.6339
1.68275
1.72361
1.7556
1.77762
1.78844
1.78724
1.77408
1.75028
1.71851
1.68242
1.64607
1.61305
1.5865
1.56732
1.55396
1.54344
1.53261
1.51923
1.5026
1.48352
1.46363
1.44447
1.42651
1.4092
1.39139
1.37149
1.34791
1.31944
1.28566
1.24703
1.20484
1.16085
1.11684
1.0742
1.03351
0.994469
0.956199
0.917771
0.878774
0.83974
0.802303
0.769016
0.74301
0.727125
0.723364
0.732461
0.754066
0.786581
0.827537
0.874532
0.925799
0.980403
1.03814
1.09978
1.16369
1.22375
1.27136
1.29873
1.30252
1.28553
1.25548
1.22148
1.19027
1.16353
1.13976
1.11812
1.09827
1.08047
1.06553
1.05452
1.04818
1.04609
1.04724
1.04909
1.04766
1.03882
1.01937
0.987936
0.945421
0.894687
0.839695
0.784299
0.731178
0.681134
0.633635
0.587327
0.540889
0.493816
0.446853
0.401961
0.36189
0.328886
0.305
0.291493
0.288562
0.295391
0.310411
0.331664
0.357153
0.385074
0.413947
0.442595
0.469952
0.494927
0.516239
0.532438
0.542343
0.545249
0.541268
0.531551
0.518269
0.504296
0.492651
0.485865
0.486284
0.493898
0.507317
0.524639
0.544511
0.566991
0.593884
0.635324
0.735396
0.952128
1.22812
1.4666
1.5721
1.48984
1.23395
0.891331
0.59478
0.465726
0.461869
0.480556
0.497992
0.495127
0.459839
0.390087
0.294122
0.187211
0.0895191
0.0192131
-0.011788
0
0.0541257
0.135772
0.232535
0.33422
0.435573
0.53632
0.677563
1.14724
2.08379
3.51468
5.27729
7.00896
8.24649
8.61457
8.00723
6.64088
4.93686
3.30993
2.00228
1.05744
0.412324
0.162603
0.0853421
0.0175745
-0.0432757
-0.0997207
-0.153723
-0.20635
-0.257669
-0.30692
-0.352955
-0.394795
-0.432406
-0.466349
-0.498171
-0.530212
-0.564849
-0.603761
-0.647578
-0.695446
-0.743343
-0.785916
-0.817872
-0.835267
-0.836263
-0.821169
-0.791924
-0.751354
-0.702884
-0.650227
-0.595854
-0.542349
-0.492152
-0.447219
-0.408668
-0.376515
-0.349652
-0.326128
-0.303695
-0.280409
-0.25516
-0.227579
-0.197979
-0.166787
-0.133964
-0.0986135
-0.058947
-0.0122561
0.0469854
0.124726
0.219003
0.314791
0.392937
0.436731
0.437777
0.399529
0.33743
0.274924
0.235739
0.234431
0.262291
0.307572
0.358998
0.404236
0.432881
0.438485
0.419289
0.377875
0.320186
0.254246
0.188533
0.128704
0.0779262
0.0372203
0.00666266
-0.0157885
-0.0329957
-0.0475888
-0.0610609
-0.0733274
-0.0828856
-0.0874902
-0.0850669
-0.0751094
-0.0586033
-0.0367641
-0.0115983
0.0144288
0.0387751
0.0590249
0.0730764
0.0795512
0.0778074
0.0680108
0.0511289
0.0288057
0.00309734
-0.0238991
-0.0504152
-0.0751925
-0.0977562
-0.118161
-0.136594
-0.153008
-0.166957
-0.177718
-0.184623
-0.187344
-0.186296
-0.182505
-0.177319
-0.172063
-0.167798
-0.165299
-0.16519
-0.16811
-0.174522
-0.184946
-0.199617
-0.218181
-0.239539
-0.261892
-0.283003
-0.30066
-0.313267
-0.319901
-0.320147
-0.31464
-0.304986
-0.292952
-0.279924
-0.266503
-0.252394
-0.236605
-0.217886
-0.195245
-0.168429
-0.138111
-0.105297
-0.0712057
-0.036907
-0.003018
0.0303972
0.0636742
0.0972002
0.130912
0.1629
0.188869
0.203131
0.200462
0.178126
0.137219
0.0827898
0.022724
-0.0341385
-0.0809349
-0.11594
-0.137662
-0.145817
-0.141697
-0.127802
-0.107328
-0.0836084
-0.059605
-0.0374538
-0.0183527
-0.0026516
0.0100637
0.0207573
0.0306536
0.0409182
0.0523697
0.0652802
0.079344
0.0937334
0.107385
0.119319
0.128904
0.135989
0.140871
0.144141
0.146486
0.148513
0.150627
0.153001
0.155534
0.15779
0.158903
0.157369
0.151269
0.138535
0.117397
0.0869379
0.0475513
0.00113697
-0.0507326
0
0.421702
1.28965
2.50818
3.80037
4.79989
5.20638
4.91892
4.07168
2.95751
1.89104
1.08585
0.597748
0.344806
0.172755
0.0263586
-0.108259
-0.223861
-0.313976
-0.374513
-0.404358
-0.40552
-0.382809
-0.343112
-0.294073
-0.243992
-0.200599
-0.169458
-0.153226
-0.151294
-0.159944
-0.173116
-0.183764
-0.18558
-0.174598
-0.150792
-0.117764
-0.0797083
-0.0401014
-0.00197897
0.0326563
0.0630849
0.0897836
0.114091
0.137764
0.162462
0.189462
0.219479
0.252821
0.289053
0.327366
0.366971
0.407367
0.448421
0.490228
0.532842
0.576027
0.61921
0.661679
0.702977
0.743297
0.783689
0.825964
0.872314
0.924759
0.984401
1.05093
1.12334
1.19979
1.27767
1.35256
1.41951
1.4741
1.51335
1.53629
1.54398
1.53905
1.52473
1.50394
1.47871
1.45032
1.4189
1.3844
1.34685
1.30646
1.26354
1.21828
1.17061
1.12021
1.06651
1.00895
0.947257
0.881665
0.812884
0.741975
0.670097
0.598273
0.527268
0.457646
0.390006
0.325299
0.26548
0.21306
0.170797
0.141043
0.125344
0.126136
0.139533
0.157764
0.172553
0.177732
0.171099
0.154832
0.134371
0.116317
0.106197
0.105371
0.112397
0.125735
0.143825
0.164957
0.187659
0.210915
0.234185
0.257283
0.280191
0.30289
0.32526
0.347045
0.367853
0.387117
0.403911
0.416876
0.424283
0.424199
0.414754
0.394682
0.363942
0.324227
0.279217
0.234446
0.196789
0.190173
0.313124
0.565506
0.852811
1.05217
1.07795
0.927795
0.678608
0.435653
0.271212
0.195192
0.144333
0.100335
0.0596978
0.0215877
-0.0141681
-0.0473177
-0.0774095
-0.104003
-0.126842
-0.145687
-0.160157
-0.169647
-0.173405
-0.170792
-0.161631
-0.146006
-0.125281
-0.101645
-0.0772755
-0.0536529
-0.0311105
-0.00883489
0.0147022
0.0410799
0.0713335
0.105336
0.142452
0.182092
0.223756
0.267238
0.312663
0.360508
0.411167
0.464143
0.517422
0.567102
0.606951
0.630082
0.630497
0.604176
0.550502
0.473361
0.381247
0.285818
0.198952
0.129163
0.0756284
0.0346021
0
-0.0366467
-0.0820889
-0.14158
-0.217168
-0.307615
-0.409129
-0.526919
-0.325426
0.346298
1.55629
3.17461
4.86856
6.20954
6.83998
6.61174
5.62955
4.19138
2.66959
1.38726
0.526895
0.0947459
-0.0489946
-0.148868
-0.240343
-0.326367
-0.404498
-0.472689
-0.529627
-0.575025
-0.609544
-0.634539
-0.651591
-0.66212
-0.66712
-0.667082
-0.662113
-0.652161
-0.637255
-0.617688
-0.594093
-0.567224
-0.537918
-0.506992
-0.475174
-0.443077
-0.411198
-0.37988
-0.349288
-0.319417
-0.290183
-0.261615
-0.234225
-0.209265
-0.188587
-0.174278
-0.167911
-0.169845
-0.178913
-0.192617
-0.207725
-0.220953
-0.229809
-0.233052
-0.229296
-0.217384
-0.196515
-0.166397
-0.127431
-0.0808202
-0.0287335
0.0264442
0.0824182
0.137221
0.189496
0.238612
0.284569
0.32777
0.368742
0.407861
0.445373
0.481418
0.51616
0.549935
0.58326
0.616674
0.650496
0.684123
0.715218
0.739944
0.753798
0.752792
0.734522
0.698777
0.647532
0.584481
0.514319
0.442253
0.37214
0.306639
0.24758
0.196008
0.152244
0.115791
0.0853825
0.0591153
0.0344473
0.00867128
-0.0204836
-0.0543971
-0.0932588
-0.136116
-0.180768
-0.224346
-0.263825
-0.296494
-0.320243
-0.333447
-0.33545
-0.326353
-0.30702
-0.279101
-0.244862
-0.207116
-0.168616
-0.131431
-0.0963895
-0.0627683
-0.028353
0.0101456
0.0564418
0.113713
0.18426
0.276506
0.405588
0.569966
0.739124
0.877309
0.955667
0.962586
0.906542
0.810375
0.701992
0.607608
0.543204
0.505488
0.487768
0.48843
0.504206
0.527617
0.549909
0.562998
0.561161
0.542006
0.506571
0.45874
0.404305
0.349927
0.300863
0.260893
0.232615
0.217749
0.217365
0.231453
0.258948
0.297805
0.345246
0.398451
0.452628
0.502229
0.542752
0.571779
0.58964
0.599362
0.605764
0.613929
0.627567
0.64752
0.671538
0.697036
0.720737
0.739437
0.750695
0.753291
0.747414
0.734577
0.717335
0.698877
0.68253
0.671218
0.666908
0.670466
0.681948
0.700908
0.725896
0.754602
0.784235
0.811778
0.834169
0.848924
0.854502
0.850511
0.837858
0.818717
0.796271
0.774211
0.756091
0.744671
0.740945
0.744626
0.754664
0.769161
0.785735
0.801889
0.815411
0.824347
0.82711
0.822576
0.810087
0.789469
0.761021
0.725306
0.683141
0.635482
0.583009
0.525917
0.463485
0.393046
0.310286
0.215047
0.109837
0
0.0797717
0.653738
1.8597
3.65676
5.73165
7.54807
8.54911
8.42473
7.27908
5.5781
3.9021
2.66214
1.95573
1.62428
1.43192
1.22829
1.03278
0.84384
0.664715
0.498487
0.347774
0.214466
0.099696
0.00384645
-0.0741888
-0.136635
-0.18618
-0.225465
-0.256656
-0.281183
-0.299724
-0.312403
-0.319098
-0.319905
-0.314995
-0.304772
-0.289775
-0.27048
-0.247143
-0.219768
-0.188208
-0.152375
-0.112453
-0.0690455
-0.0232057
0.0237704
0.0705141
0.115787
0.158608
0.198266
0.234199
0.265997
0.293363
0.316124
0.33433
0.348366
0.359023
0.367494
0.375273
0.383994
0.395169
0.409983
0.429191
0.453085
0.481438
0.512572
0.542325
0.565646
0.578231
0.578053
0.566337
0.54747
0.527745
0.513337
0.508291
0.511766
0.521159
0.533481
0.545184
0.552938
0.55417
0.547235
0.531286
0.50599
0.471296
0.427626
0.375996
0.317426
0.253461
0.186116
0.117606
0.0500282
-0.0149874
-0.0764659
-0.133952
-0.187214
-0.235954
-0.279711
-0.317989
-0.350307
-0.376983
-0.399148
-0.418542
-0.437137
-0.456688
-0.478386
-0.50273
-0.529611
-0.558527
-0.588723
-0.619517
-0.650349
-0.68077
-0.710479
-0.739419
-0.767865
-0.796627
-0.827078
-0.860855
-0.899416
-0.943536
-0.992934
-1.04617
-1.10085
-1.15412
-1.20319
-1.24639
-1.28252
-1.31062
-1.33016
-1.34103
-1.34336
-1.33755
-1.32424
-1.30444
-1.27962
-1.25172
-1.22296
-1.19591
-1.17324
-1.15698
-1.14827
-1.14722
-1.1529
-1.16361
-1.1773
-1.19208
-1.20663
-1.22044
-1.23375
-1.24717
-1.26161
-1.27815
-1.29793
-1.32224
-1.35245
-1.38954
-1.43465
-1.4886
-1.55161
-1.62312
-1.70166
-1.78475
-1.86899
-1.95047
-2.02491
-2.08717
-2.1281
-2.13447
-2.10563
-2.06217
-2.03147
-2.0385
-2.09695
-2.20423
-2.34182
-2.48145
-2.5948
-2.66951
-2.7135
-2.72789
-2.71716
-2.6871
-2.64303
-2.58996
-2.53145
-2.46915
-2.40391
-2.33662
-2.26836
-2.20047
-2.13455
-2.07255
-2.01654
221
450
690
919
1142
1370
1600
1811
2035
2266
2484
2698
2920
3129
3338
3562
3107
3302
3520
3727
0
0
0
0
0
0
0
0
0
0
0
0
0
0
0
0
0
0
0
0
0
0
0
0
0
0
0
0
0
0
0
0
0
0
0
0
0
0
0
0
0
0
0
0
0
0
0
0
0
0
0
0
0
0
0
0
0
0
0
0
0
0
0
0
0
0
0
0
0
0
0
0
0
0
0
0
0
0
0
0
0
0
0
0
0
0
0
0
0
0
0
0
0
0
0
0
0
0
0
0
0
0
0
0
0
0
0
0
0
0
0
0
0
0
0
0
0
0
0
0
0
0
0
0
0
0
0
0
0
0
0
0
0
0
0
0
0
0
0
0
0
0
0
0
0
0
0
0
0
0
0
0
0
0
0
0
0
0
0
0
0
0
0
0
0
0
0
0
0
0
0
0
0
0
0
0
0
0
0
0
0
0
0
0
0
0
0
0
0
0
0
0
0
0
0
0
0
0
0
0
0
0
0
0
0
0
0
0
0
0
0
0
0
0
0
0
0
0
0
0
0
0
0
0
0
0
0
0
0
0
0
0
0
0
0
0
0
0
0
0
0
0
0
0
0
0
0
0
0
0
0
0
0
0
0
0
0
0
0
0
0
0
0
0
0
0
0
0
0
0
0
0
0
0
0
0
0
0
0
0
0
0
0
0
0
0
0
0
0
0
0
0
0
0
0
0
0
0
0
0
0
0
0
0
0
0
0
0
0
0
0
0
0
0
0
0
0
0
0
0
0
0
0
0
0
0
0
0
0
0
0
0
0
0
0
0
0
0
0
0
0
0
0
0
0
0
0
0
0
0
0
0
0
0
0
0
0
0
0
0
0
0
0
0
0
0
0
0
0
0
0
0
0
0
0
0
0
0
0
0
0
0
0
0
0
0
0
0
0
0
0
0
0
0
0
0
0
0
0
0
0
0
0
0
0
0
0
0
0
0
0
0
0
0
0
0
0
0
0
0
0
0
0
0
0
0
0
0
0
0
0
0
0
0
0
0
0
0
0
0
0
0
0
0
0
0
0
0
0
0
0
0
0
0
0
0
0
0
0
0
0
0
0
0
0
0
0
0
0
0
0
0
0
0
0
0
0
0
0
0
0
0
0
0
0
0
0
0
0
0
0
0
0
0
0
0
0
0
0
0
0
0
0
0
0
0
0
0
0
0
0
0
0
0
0
0
0
0
0
0
0
0
0
0
0
0
0
0
0
0
0
0
0
0
0
0
0
0
0
0
0
0
0
0
0
0
0
0
0
0
0
0
0
0
0
0
0
0
0
0
0
0
0
0
0
0
0
0
0
0
0
0
0
0
0
0
0
0
0
0
0
0
0
0
0
0
0
0
0
0
0
0
0
0
0
0
0
0
0
0
0
0
0
0
0
0
0
0
0
0
0
0
0
0
0
0
0
0
0
0
0
0
0
0
0
0
0
0
0
0
0
0
0
0
0
0
0
0
0
0
0
0
0
0
0
0
0
0
0
0
0
0
0
0
0
0
0
0
0
0
0
0
0
0
0
0
0
0
0
0
0
0
0
0
0
0
0
0
0
0
0
0
0
0
0
0
0
0
0
0
0
0
0
0
0
0
0
0
0
0
0
0
0
0
0
0
0
0
0
0
0
0
0
0
0
0
0
0
0
0
0
0
0
0
0
0
0
0
0
0
0
0
0
0
0
0
0
0
0
0
0
0
0
0
0
0
0
0
0
0
0
0
0
0
0
0
0
0
0
0
0
0
0
0
0
0
0
0
0
0
0
0
0
0
0
0
0
0
0
0
0
0
0
0
0
0
0
0
0
0
0
0
0
0
0
0
0
0
0
0
0
0
0
0
0
0
0
0
0
0
0
0
0
0
0
0
0
0
0
0
0
0
0
0
0
0
0
0
0
0
0
0
0
0
0
0
0
0
0
0
0
0
0
0
0
0
0
0
0
0
0
0
0
0
0
0
0
0
0
0
0
0
0
0
0
0
0
0
0
0
0
0
0
0
0
0
0
0
0
0
0
0
0
0
0
0
0
0
0
0
0
0
0
0
0
0
0
0
0
0
0
0
0
0
0
0
0
0
0
0
0
0
0
0
0
0
0
0
0
0
0
0
0
0
0
0
0
0
0
0
0
0
0
0
0
0
0
0
0
0
0
0
0
0
0
0
0
0
0
0
0
0
0
0
0
0
0
0
0
0
0
0
0
0
0
0
0
0
0
0
0
0
0
0
0
0
0
0
0
0
0
0
0
0
0
0
0
0
0
0
0
0
0
0
0
0
0
0
0
0
0
0
0
0
0
0
0
0
0
0
0
0
0
0
0
0
0
0
0
0
0
0
0
0
0
0
0
0
0
0
0
0
0
0
0
0
0
0
0
0
0
0
0
0
0
0
0
0
0
0
0
0
0
0
0
0
0
0
0
0
0
0
0
0
0
0
0
0
0
0
0
0
0
0
0
0
0
0
0
0
0
0
0
0
0
0
0
0
0
0
0
0
0
0
0
0
0
0
0
0
0
0
0
0
0
0
0
0
0
0
0
0
0
0
0
0
0
0
0
0
0
0
0
0
0
0
0
0
0
0
0
0
0
0
0
0
0
0
0
0
0
0
0
0
0
0
0
0
0
0
0
0
0
0
0
0
0
0
0
0
0
0
0
0
0
0
0
0
0
0
0
0
0
0
0
0
0
0
0
0
0
0
0
0
0
0
0
0
0
0
0
0
0
0
0
0
0
0
0
0
0
0
0
0
0
0
0
0
0
0
0
0
0
0
0
0
0
0
0
0
0
0
0
0
0
0
0
0
0
0
0
0
0
0
0
0
0
0
0
0
0
0
0
0
0
0
0
0
0
0
0
0
0
0
0
0
0
0
0
0
0
0
0
0
0
0
0
0
0
0
0
0
0
0
0
0
0
0
0
0
0
0
0
0
0
0
0
0
0
0
0
0
0
0
0
0
0
0
0
0
0
0
0
0
0
0
0
0
0
0
0
0
0
0
0
0
0
0
0
0
0
0
0
0
0
0
0
0
0
0
0
0
0
0
0
0
0
0
0
0
0
0
0
0
0
0
0
0
0
0
0
0
0
0
0
0
0
0
0
0
0
0
0
0
0
0
0
0
0
0
0
0
0
0
0
0
0
0
0
0
0
0
0
0
0
0
0
0
0
0
0
0
0
0
0
0
0
0
0
0
0
0
0
0
0
0
0
0
0
0
0
0
0
0
0
0
0
0
0
0
0
0
0
0
0
0
0
0
0
0
0
0
0
0
0
0
0
0
0
0
0
0
0
0
0
0
0
0
0
0
0
0
0
0
0
0
0
0
0
0
0
0
0
0
0
0
0
0
0
0
0
0
0
0
0
0
0
0
0
0
0
0
0
0
0
0
0
0
0
0
0
0
0
0
0
0
0
0
0
0
0
0
0
0
0
0
0
0
0
0
0
0
0
0
0
0
0
0
0
0
0
0
0
0
0
0
0
0
0
0
0
0
0
0
0
0
0
0
0
0
0
0
0
0
0
0
0
0
0
0
0
0
0
0
0
0
0
0
0
0
0
0
0
0
0
0
0
0
0
0
0
0
0
0
0
0
0
0
0
0
0
0
0
0
0
0
0
0
0
0
0
0
0
0
0
0
0
0
0
0
0
0
0
0
0
0
0
0
0
0
0
0
0
0
0
0
0
0
0
0
0
0
0
0
0
0
0
0
0
0
0
0
0
0
0
0
0
0
0
0
0
0
0
0
0
0
0
0
0
0
0
0
0
0
0
0
0
0
0
0
0
0
0
0
0
0
0
0
0
0
0
0
0
0
0
0
0
0
0
0
0
0
0
0
0
0
0
0
0
0
0
0
0
0
0
0
0
0
0
0
0
0
0
0
0
0
0
0
0
0
0
0
0
0
0
0
0
0
0
0
0
0
0
0
0
0
0
0
0
0
0
0
0
0
0
0
0
0
0
0
0
0
0
0
0
0
0
0
0
0
0
0
0
0
0
0
0
0
0
0
0
0
0
0
0
0
0
0
0
0
0
0
0
0
0
0
0
0
0
0
0
0
0
0
0
0
0
0
0
0
0
0
0
0
0
0
0
0
0
0
0
0
0
0
0
0
0
0
0
0
0
0
0
0
0
0
0
0
0
0
0
0
0
0
0
0
0
0
0
0
0
0
0
0
0
0
0
0
0
0
0
0
0
0
0
0
0
0
0
0
0
0
0
0
0
0
0
0
0
0
0
0
0
0
0
0
0
0
0
0
0
0
0
0
0
0
0
0
0
0
0
0
0
0
0
0
0
0
0
0
0
0
0
0
0
0
0
0
0
0
0
0
0
0
0
0
0
0
0
0
0
0
0
0
0
0
0
0
0
0
0
0
0
0
0
0
0
0
0
0
0
0
0
0
0
0
0
0
0
0
0
0
0
0
0
0
0
0
0
0
0
0
0
0
0
0
0
0
0
0
0
0
0
0
0
0
0
0
0
0
0
0
0
0
0
0
0
0
0
0
0
0
0
0
0
0
0
0
0
0
0
0
0
0
0
0
0
0
0
0
0
0
0
0
0
0
0
0
0
0
0
0
0
0
0
0
0
0
0
0
0
0
0
0
0
0
0
0
0
0
0
0
0
0
0
0
0
0
0
0
0
0
0
0
0
0
0
0
0
0
0
0
0
0
0
0
0
0
0
0
0
0
0
0
0
0
0
0
0
0
0
0
0
0
0
0
0
0
0
0
0
0
0
0
0
0
0
0
0
0
0
0
0
0
0
0
0
0
0
0
0
0
0
0
0
0
0
0
0
0
0
0
0
0
0
0
0
0
0
0
0
0
0
0
0
0
0
0
0
0
0
0
0
0
0
0
0
0
0
0
0
0
0
0
0
0
0
0
0
0
0
0
0
0
0
0
0
0
0
0
0
0
0
0
0
0
0
0
0
0
0
0
0
0
0
0
0
0
0
0
0
0
0
0
0
0
0
0
0
0
0
0
0
0
0
0
0
0
0
0
0
0
0
0
0
0
0
0
0
0
0
0
0
0
0
0
0
0
0
0
0
0
0
0
0
0
0
0
0
0
0
0
0
0
0
0
0
0
0
0
0
0
0
0
0
0
0
0
0
0
0
0
0
0
0
0
0
0
0
0
0
0
0
0
0
0
0
0
0
0
0
0
0
0
0
0
0
0
0
0
0
0
0
0
0
0
0
0
0
0
0
0
0
0
0
0
0
0
0
0
0
0
0
0
0
0
0
0
0
0
0
0
0
0
0
0
0
0
0
0
0
0
0
0
0
0
0
0
0
0
0
0
0
0
0
0
0
0
0
0
0
0
0
0
0
0
0
0
0
0
0
0
0
0
0
0
0
0
0
0
0
0
0
0
0
0
0
0
0
0
0
0
0
0
0
0
0
0
0
0
0
0
0
0
0
0
0
0
0
0
0
0
0
0
0
0
0
0
0
0
0
0
0
0
0
0
0
0
0
0
0
0
0
0
0
0
0
0
0
0
0
0
0
0
0
0
0
0
0
0
0
0
0
0
0
0
0
0
0
0
0
0
0
0
0
0
0
0
0
0
0
0
0
0
0
0
0
0
0
0
0
0
0
0
0
0
0
0
0
0
0
0
0
0
0
0
0
0
0
0
0
0
0
0
0
0
0
0
0
0
0
0
0
0
0
0
0
0
0
0
0
0
0
0
0
0
0
0
0
0
0
0
0
0
0
0
0
0
0
0
0
0
0
0
0
0
0
0
0
0
0
0
0
0
0
0
0
0
0
0
0
0
0
0
0
0
0
0
0
0
0
0
0
0
0
0
0
0
0
0
0
0
0
0
0
0
0
0
0
0
0
0
0
0
0
0
0
0
0
0
0
0
0
0
0
0
0
0
0
0
0
0
0
0
0
0
0
0
0
0
0
0
0
0
0
0
0
0
0
0
0
0
0
0
0
0
0
0
0
0
0
0
0
0
0
0
0
0
0
0
0
0
0
0
0
0
0
0
0
0
0
0
0
0
0
0
0
0
0
0
0
0
0
0
0
0
0
0
0
0
0
0
0
0
0
0
0
0
0
0
0
0
0
0
0
0
0
0
0
0
0
0
0
0
0
0
0
0
0
0
0
0
0
0
0
0
0
0
0
0
0
0
0
0
0
0
0
0
0
0
0
0
0
0
0
0
0
0
0
0
0
0
0
0
0
0
0
0
0
0
0
0
0
0
0
0
0
0
0
0
0
0
0
0
0
0
0
0
0
0
0
0
0
0
0
0
0
0
0
0
0
0
0
0
0
0
0
0
0
0
0
0
0
0
0
0
0
0
0
0
0
0
0
0
0
0
0
0
0
0
0
0
0
0
0
0
0
0
0
0
0
0
0
0
0
0
0
0
0
0
0
0
0
0
0
0
0
0
0
0
0
0
0
0
0
0
0
0
0
0
0
0
0
0
0
0
0
0
0
0
0
0
0
0
0
0
0
0
0
0
0
0
0
0
0
0
0
0
0
0
0
0
0
0
0
0
0
0
0
0
0
0
0
0
0
0
0
0
0
0
0
0
0
0
0
0
0
0
0
0
0
0
0
0
0
0
0
0
0
0
0
0
0
0
0
0
0
0
0
0
0
0
0
0
0
0
0
0
0
0
0
0
0
0
0
0
0
0
0
0
0
0
0
0
0
0
0
0
0
0
0
0
0
0
0
0
0
0
0
0
0
0
0
0
0
0
0
0
0
0
0
0
0
0
0
0
0
0
0
0
0
0
0
0
0
0
0
0
0
0
0
0
0
0
0
0
0
0
0
0
0
0
0
0
0
0
0
0
0
0
0
0
0
0
0
0
0
0
0
0
0
0
0
0
0
0
0
0
0
0
0
0
0
0
0
0
0
0
0
0
0
0
0
0
0
0
0
0
0
0
0
0
0
0
0
0
0
0
0
0
0
0
0
0
0
0
0
0
0
0
0
0
0
0
0
0
0
0
0
0
0
0
0
0
0
0
0
0
0
0
0
0
0
0
0
0
0
0
0
0
0
0
0
0
0
0
0
0
0
0
0
0
0
0
0
0
0
0
0
0
0
0
0
0
0
0
0
0
0
0
0
0
0
0
0
0
0
0
0
0
0
0
0
0
0
0
0
0
0
0
0
0
0
0
0
0
0
0
0
0
0
0
0
0
0
0
0
0
0
0
0
0
0
0
0
0
0
0
0
0
0
0
0
0
0
0
0
0
0
0
0
0
0
0
0
0
0
0
0
0
0
0
0
0
0
0
0
0
0
0
0
0
0
0
0
0
0
0
0
0
0
0
0
0
0
0
0
0
0
0
0
0
0
0
0
0
0
0
0
0
0
0
0
0
0
0
0
0
0
0
0
0
0
0
0
0
0
0
0
0
0
0
0
0
0
0
0
0
0
0
0
0
0
0
0
0
0
0
0
0
0
0
0
0
0
0
0
0
0
0
0
0
0
0
0
0
0
0
0
0
0
0
0
0
0
0
0
0
0
0
0
0
0
0
0
0
0
0
0
0
0
0
0
0
0
0
0
0
0
0
0
0
0
0
0
0
0
0
0
0
0
0
0
0
0
0
0
0
0
0
0
0
0
0
0
0
0
0
0
0
0
0
0
0
0
0
0
0
0
0
0
0
0
0
0
0
0
0
0
0
0
0
0
0
0
0
0
0
0
0
0
0
0
0
0
0
0
0
0
0
0
0
0
0
0
0
0
0
0
0
0
0
0
0
0
0
0
0
0
0
0
0
0
0
0
0
0
0
0
0
0
0
0
0
0
0
0
0
0
0
0
0
0
0
0
0
0
0
0
0
0
0
0
0
0
0
0
0
0
0
0
0
0
0
0
0
0
0
0
0
0
0
0
0
0
0
0
0
0
0
0
0
0
0
0
0
0
0
0
0
0
0
0
0
0
0
0
0
0
0
0
0
0
0
0
0
0
0
0
0
0
0
0
0
0
0
0
0
0
0
0
0
0
0
0
0
0
0
0
0
0
0
0
0
0
0
0
0
0
0
0
0
0
0
0
0
0
0
0
0
0
0
0
0
0
0
0
0
0
0
0
0
0
0
0
0
0
0
0
0
0
0
0
0
0
0
0
0
0
0
0
0
0
0
0
0
0
0
0
0
0
0
0
0
0
0
0
0
0
0
0
0
0
0
0
0
0
0
0
0
0
0
0
0
0
0
0
0
0
0
0
0
0
0
0
0
0
0
0
0
0
0
0
0
0
0
0
0
0
0
0
0
0
0
0
0
0
0
0
0
0
0
0
0
0
0
0
0
0
0
0
0
0
0
0
0
0
0
0
0
0
0
0
0
0
0
0
0
0
0
0
0
0
0
0
0
0
0
0
0
0
0
0
0
0
0
0
0
0
0
0
0
0
0
0
0
0
0
0
0
0
0
0
0
0
0
0
0
0
0
0
0
0
0
0
0
0
0
0
0
0
0
0
0
0
0
0
0
0
0
0
0
0
