0.415661
0.485263
0.564551
0.6504
0.737669
0.821179
0.89704
0.96342
1.02083
1.07181
1.12004
1.16929
1.22247
1.2807
1.34391
1.41192
1.48461
1.56238
1.64734
1.74619
1.86937
2.00323
2.11517
2.164
2.11788
1.9719
1.75499
1.52046
1.32268
1.19182
1.09294
1.005
0.92107
0.834333
0.73905
0.631354
0.509742
0.375296
0.232337
0.086087
-0.0576862
-0.192925
-0.313679
-0.415164
-0.495025
-0.553233
-0.591769
-0.615466
-0.631183
-0.644616
-0.658953
-0.674291
-0.687976
-0.695796
-0.693715
-0.679564
-0.653262
-0.619051
-0.583309
-0.552519
-0.531361
-0.521677
-0.522581
-0.531415
-0.544899
-0.55976
-0.573579
-0.584286
-0.589915
-0.588782
-0.579852
-0.563149
-0.539706
-0.512288
-0.484552
-0.460348
-0.443013
-0.434898
-0.437162
-0.449785
-0.471654
-0.500142
-0.53239
-0.56512
-0.594881
-0.617617
-0.628234
-0.627054
-0.619534
-0.61352
-0.616161
-0.63103
-0.656663
-0.687017
-0.713449
-0.727367
-0.726
-0.706919
-0.664261
-0.603824
-0.542211
-0.497844
-0.484944
-0.508339
-0.560966
-0.625121
-0.677189
-0.694478
-0.6701
-0.614145
-0.535498
-0.432976
-0.315151
-0.199378
-0.102328
-0.0360889
-0.005583
-0.00802307
-0.0344078
-0.0723879
-0.109473
-0.136432
-0.151019
-0.15393
-0.145989
-0.12822
-0.101988
-0.0694828
-0.0329634
0.0056076
0.0448154
0.0838879
0.122621
0.161186
0.199881
0.238915
0.278239
0.317493
0.355932
0.392226
0.424345
0.449987
0.466646
0.471986
0.46428
0.442823
0.408179
0.362217
0.307932
0.249123
0.189984
0.134171
0.0848721
0.045039
0.0169085
0.00179386
0
0.00484619
0.0211975
0.0459629
0.0752779
0.104961
0.131042
0.0955879
-0.0487083
0.187202
1.21474
3.22238
5.93738
8.6013
10.248
10.1719
8.31496
5.32433
2.23045
-0.0586151
-1.14251
-1.19347
-0.722699
-0.454732
-0.267628
-0.179535
-0.143641
-0.108204
-0.0672846
-0.0175436
0.0415997
0.108296
0.179137
0.250325
0.31905
0.38398
0.445175
0.504098
0.563244
0.626595
0.700962
0.795536
0.911101
1.02773
1.11901
1.16043
1.13745
1.05257
0.928843
0.805953
0.72674
0.718135
0.756536
0.814448
0.880824
0.949875
1.01796
1.08387
1.14817
1.21175
1.27422
1.33139
1.37652
1.40402
1.41291
1.40764
1.39556
1.38249
1.36887
1.34958
1.31659
1.26279
1.18543
1.08762
0.977233
0.86376
0.75454
0.650307
0.548956
0.44799
0.344076
0.233777
0.114314
-0.0158093
-0.156442
-0.3057
-0.460143
-0.615293
-0.76617
-0.907886
-1.0362
-1.14789
-1.24099
-1.31503
-1.37078
-1.40954
-1.43307
-1.44362
-1.44295
-1.43192
-1.4104
-1.37743
-1.33165
-1.27201
-1.19713
-1.10404
-0.994537
-0.880938
-0.780161
-0.707182
-0.670712
-0.670575
-0.697473
-0.735274
-0.765429
-0.772463
-0.752459
-0.712887
-0.659534
-0.600348
-0.544107
-0.498477
-0.468585
-0.456388
-0.460846
-0.478654
-0.505197
-0.535295
-0.564846
-0.591286
-0.613316
-0.6308
-0.64504
-0.65894
-0.676058
-0.699742
-0.732264
-0.77423
-0.824398
-0.879951
-0.937144
-0.992177
-1.04239
-1.08641
-1.1237
-1.15477
-1.18114
-1.2051
-1.22948
-1.25713
-1.29046
-1.33099
-1.37936
-1.43533
-1.49642
-1.55879
-1.61799
-1.6694
-1.70801
-1.73054
-1.73515
-1.72151
-1.69084
-1.64581
-1.59014
-1.52789
-1.46256
-1.39622
-1.3291
-1.26013
-1.18748
-1.10902
-1.02241
-0.924682
-0.812913
-0.685378
-0.544335
-0.402483
-0.279213
-0.195466
-0.172906
-0.227269
-0.357213
-0.535659
-0.711196
-0.822616
-0.826209
-0.759013
-0.659765
-0.536732
-0.39888
-0.262821
-0.145327
-0.0590265
-0.010527
0
-0.017561
-0.0593494
-0.116062
-0.179617
-0.243921
-0.247541
-0.154979
0.256586
1.33879
3.31229
6.00166
8.74238
10.5865
10.7392
8.98777
5.85538
2.36796
-0.437894
-1.97371
-2.26572
-1.77588
-1.04819
-0.417538
0.0460611
0.399297
0.682499
0.88933
0.968194
0.8943
0.690802
0.42496
0.183337
0.0462008
0.0148172
0.0281866
0.0591705
0.0994522
0.145543
0.194679
0.243708
0.289506
0.329418
0.3615
0.384663
0.398641
0.403803
0.400878
0.390705
0.374158
0.35254
0.327313
0.300808
0.27957
0.273627
0.294438
0.35181
0.450554
0.588275
0.755332
0.937178
1.11826
1.28767
1.44384
1.5855
1.71241
1.82524
1.92551
2.0152
2.09566
2.16684
2.22658
2.27104
2.29663
2.29954
2.27692
2.228
2.15467
2.06148
1.95472
1.84131
1.72764
1.61763
1.51374
1.41838
1.33362
1.26121
1.20247
1.15838
1.13054
1.12014
1.12333
1.132
1.13717
1.13114
1.10929
1.07109
1.01985
0.961496
0.902685
0.84852
0.800857
0.760082
0.726229
0.698537
0.675554
0.655286
0.635277
0.612494
0.583099
0.543448
0.490458
0.422357
0.339371
0.244078
0.141252
0.0371493
-0.061587
-0.14982
-0.224802
-0.284768
-0.329879
-0.361692
-0.383121
-0.399026
-0.415097
-0.436698
-0.468159
-0.512255
-0.569929
-0.640328
-0.721079
-0.809375
-0.901261
-0.990144
-1.0664
-1.12051
-1.14301
-1.1259
-1.06491
-0.96185
-0.825827
-0.672372
-0.520397
-0.386893
-0.276491
-0.189158
-0.124041
-0.0765987
-0.0398876
-0.00640364
0.0299938
0.0723855
0.120153
0.171006
0.22123
0.266821
0.304563
0.332792
0.351702
0.363265
0.370867
0.378812
0.391353
0.412549
0.445706
0.492894
0.554618
0.629791
0.716032
0.810238
0.909233
1.01016
1.11093
1.2092
1.30127
1.38166
1.44308
1.47711
1.47703
1.44064
1.3721
1.28169
1.1835
1.09171
1.01441
0.951
0.899504
0.857795
0.821577
0.786085
0.747293
0.70283
0.652369
0.597394
0.540483
0.484376
0.430987
0.381034
0.334541
0.290859
0.248973
0.208084
0
-0.0263964
0.51241
1.98452
4.44419
7.40897
9.93202
11.0082
10.1034
7.47028
4.03394
0.91533
-1.10363
-1.8569
-1.69982
-1.18114
-0.717604
-0.44502
-0.319053
-0.203322
-0.0578623
0.0994943
0.264606
0.434903
0.606846
0.775763
0.93588
1.08177
1.20944
1.31717
1.40587
1.47866
1.53995
1.59432
1.64556
1.69626
1.74782
1.80119
1.85737
1.91785
1.98461
2.05995
2.14598
2.24414
2.35481
2.47688
2.60855
2.74793
2.89306
3.04207
3.19311
3.34417
3.4916
3.62929
3.75044
3.84856
3.91936
3.96249
3.98203
3.98573
3.98299
3.98231
3.98859
4.00164
4.01965
4.03861
4.05323
4.05781
4.04699
4.01611
3.96138
3.87996
3.77024
3.63499
3.47805
3.30212
3.11077
2.90829
2.69955
2.48908
2.28095
2.07875
1.88553
1.70383
1.53563
1.38241
1.24516
1.12443
1.02037
0.932843
0.861468
0.805639
0.764481
0.736692
0.720436
0.713324
0.712344
0.713122
0.710033
0.697703
0.672076
0.631462
0.576945
0.511258
0.445169
0.391988
0.364048
0.369544
0.410442
0.48204
0.575692
0.677076
0.771618
0.847532
0.897739
0.92058
0.919471
0.901807
0.87739
0.85657
0.847421
0.854167
0.87746
0.915396
0.965347
1.02513
1.0924
1.16496
1.24006
1.3129
1.37772
1.4289
1.46213
1.47566
1.47108
1.45332
1.42971
1.40852
1.39724
1.3992
1.41526
1.4469
1.49978
1.58341
1.70232
1.84056
1.96995
2.06324
2.10167
2.08013
2.00892
1.91165
1.81861
1.7563
1.73029
1.72579
1.73054
1.73701
1.73831
1.72987
1.71009
1.68017
1.64286
1.60101
1.55637
1.50915
1.45848
1.40283
1.34038
1.26953
1.18922
1.0991
0.999602
0.892066
0.77859
0.661928
0.545462
0.433001
0.328497
0.235602
0.157271
0.0953921
0.0505664
0.0223047
0.00890627
0.0075119
0.0142972
0.0246759
0.0338811
0.0380093
0.0345489
0.0226675
0.00321016
-0.0216245
-0.136245
0
0.711198
2.27654
4.72439
7.67287
10.3381
11.7992
11.4357
9.28825
6.08905
2.90897
0.633667
-0.403306
-0.429072
0.0550869
0.447692
0.785461
1.02833
1.1592
1.25859
1.34054
1.40932
1.46997
1.5278
1.58792
1.65456
1.73049
1.81655
1.91222
2.01462
2.11762
2.21446
2.29927
2.36801
2.41893
2.45219
2.469
2.4713
2.46116
2.44081
2.41292
2.38086
2.34864
2.32062
2.30082
2.29117
2.2943
2.31463
2.34985
2.3847
2.40085
2.38309
2.32555
2.23519
2.13
2.03213
1.95887
1.91182
1.87844
1.85327
1.83038
1.80417
1.77018
1.7252
1.66692
1.59345
1.50394
1.39891
1.27874
1.14397
0.996315
0.838776
0.675334
0.510362
0.347915
0.191194
0.0420495
-0.0986886
-0.228499
-0.342839
-0.438519
-0.509489
-0.548798
-0.552601
-0.523462
-0.470905
-0.40866
-0.34992
-0.303033
-0.26569
-0.235427
-0.209987
-0.187069
-0.164958
-0.142673
-0.119674
-0.0954635
-0.0693677
-0.0405545
-0.00826862
0.0278556
0.0675401
0.109813
0.15362
0.198028
0.242439
0.28673
0.33119
0.376281
0.422302
0.46913
0.516009
0.561557
0.604207
0.642714
0.676612
0.706442
0.733709
0.760579
0.789441
0.822329
0.860391
0.905007
0.957727
1.01644
1.07262
1.11556
1.13498
1.12379
1.07952
1.00412
0.90251
0.78125
0.648446
0.512792
0.379615
0.252639
0.135208
0.0304284
-0.0610841
-0.140115
-0.20829
-0.26741
-0.318982
-0.364128
-0.403884
-0.439484
-0.473145
-0.508017
-0.547437
-0.594016
-0.648823
-0.711035
-0.778239
-0.847219
-0.914863
-0.979074
-1.03857
-1.09198
-1.13737
-1.17132
-1.19005
-1.18937
-1.16564
-1.117
-1.04419
-0.948501
-0.832969
-0.708933
-0.595101
-0.508319
-0.459594
-0.451912
-0.47907
-0.526062
-0.57193
-0.595249
-0.580953
-0.531955
-0.462839
-0.383261
-0.30162
-0.225508
-0.160163
-0.107722
-0.0674729
-0.036982
-0.0157224
-0.00276394
0
-0.0161865
-0.0509683
-0.106061
-0.227802
-0.426357
-0.160149
0.911293
2.97125
5.85522
8.94937
11.3102
12.0355
10.7259
7.75494
4.14034
1.06213
-0.694526
-1.04241
-0.490817
0.0307974
0.191533
0.319922
0.4265
0.516979
0.641158
0.798388
0.922661
0.931767
0.782907
0.499379
0.16216
-0.121002
-0.256678
-0.29237
-0.271432
-0.205603
-0.111253
-0.00523033
0.0983112
0.19278
0.272835
0.334301
0.374457
0.392614
0.390899
0.374705
0.352381
0.334047
0.329857
0.347598
0.388298
0.450274
0.532569
0.634787
0.756098
0.895127
1.04994
1.21792
1.39559
1.57871
1.76141
1.93399
2.08645
2.21025
2.29988
2.35388
2.37461
2.36718
2.33774
2.29184
2.23463
2.16936
2.09727
2.01863
1.93346
1.84196
1.74462
1.64234
1.53636
1.42826
1.31985
1.21309
1.1099
1.01203
0.921096
0.838598
0.764557
0.698283
0.638891
0.585861
0.53947
0.50088
0.471787
0.45374
0.447362
0.452535
0.467501
0.487478
0.50734
0.523162
0.533421
0.539408
0.544682
0.553793
0.570675
0.597597
0.634741
0.678028
0.719581
0.750435
0.763228
0.753963
0.722798
0.673729
0.613197
0.548043
0.483578
0.422451
0.364768
0.310124
0.259028
0.212412
0.171395
0.137661
0.112054
0.0900217
0.0634211
0.0225502
-0.0409418
-0.13129
-0.247051
-0.381284
-0.523359
-0.661758
-0.789609
-0.905323
-1.00733
-1.09533
-1.17232
-1.24272
-1.31114
-1.38152
-1.45636
-1.53052
-1.59388
-1.63531
-1.64688
-1.6262
-1.57603
-1.50167
-1.40786
-1.29766
-1.17617
-1.04668
-0.911142
-0.772462
-0.63486
-0.503435
-0.38315
-0.277867
-0.18959
-0.118129
-0.0612658
-0.0153557
0.0237972
0.0596577
0.0948242
0.129351
0.159184
0.178213
0.181296
0.16683
0.137798
0.100892
0.0642384
0.0347954
0.0146255
0.00211601
-0.00423012
-0.00569992
-0.00402336
-0.00110588
0.00134354
0.00199852
0
-0.00514946
-0.0133827
-0.0244575
-0.0379662
-0.0533905
-0.0701313
-0.0887211
-0.172313
-0.00565453
0.768563
2.41859
4.86934
7.56741
9.61267
10.1545
8.84764
6.07702
2.78864
0.0229446
-1.5617
-1.90199
-1.40842
-0.817843
-0.374412
-0.17461
-0.215085
-0.291299
-0.372658
-0.433274
-0.457109
-0.450564
-0.42695
-0.389574
-0.340367
-0.28531
-0.235863
-0.204081
-0.199931
-0.227794
-0.283489
-0.353803
-0.419597
-0.46177
-0.467552
-0.444669
-0.403494
-0.347633
-0.281102
-0.207314
-0.129009
-0.0472427
0.0377777
0.126203
0.218288
0.314437
0.414763
0.519773
0.630733
0.749768
0.879514
1.02233
1.17927
1.34926
1.52846
1.71079
1.88943
2.05717
2.20796
2.33781
2.44515
2.53068
2.59657
2.64358
2.67227
2.68437
2.68042
2.66047
2.62509
2.57615
2.51685
2.45124
2.38334
2.31632
2.25153
2.18948
2.12975
2.07105
2.01075
1.94522
1.8709
1.78549
1.6891
1.58496
1.4792
1.37965
1.29396
1.22831
1.18693
1.1669
1.16127
1.16107
1.15756
1.14398
1.11658
1.0747
1.02044
0.957949
0.892365
0.828292
0.769247
0.717198
0.672576
0.635141
0.604084
0.577825
0.554199
0.530423
0.5034
0.470113
0.428052
0.375655
0.311886
0.235989
0.151164
0.065638
-0.0106247
-0.0685513
-0.101809
-0.107877
-0.0881672
-0.0472527
0.00853233
0.0727718
0.14033
0.208577
0.277034
0.346232
0.416934
0.489803
0.565086
0.642408
0.720667
0.798066
0.872278
0.940453
0.999282
1.04628
1.08021
1.10097
1.10968
1.10849
1.10018
1.08762
1.07321
1.05862
1.04481
1.03248
1.02258
1.01653
1.01622
1.02361
1.04023
1.06622
1.10076
1.14249
1.18734
1.22972
1.26426
1.28689
1.29565
1.29087
1.27489
1.25124
1.22378
1.1958
1.16904
1.1439
1.11969
1.09464
1.06594
1.03011
0.983553
0.923154
0.846884
0.752254
0.633673
0.493293
0.346587
0.209627
0.0933857
0
-0.0690552
0.143211
0.566605
1.42693
2.94344
5.10274
7.48642
9.3316
9.86216
8.72031
6.21365
3.19337
0.626371
-0.864403
-1.21217
-0.784578
-0.0724092
0.590023
1.10932
1.44172
1.58013
1.69466
1.79373
1.88001
1.9581
2.03303
2.10846
2.18487
2.25725
2.3175
2.35844
2.37738
2.37772
2.36797
2.35899
2.36061
2.37584
2.40315
2.44133
2.48925
2.54513
2.60682
2.6721
2.73885
2.80495
2.86811
2.92652
2.97912
3.02589
3.06799
3.10755
3.14708
3.1887
3.23341
3.28051
3.32845
3.37535
3.41934
3.45893
3.49333
3.52245
3.54662
3.56621
3.58067
3.5881
3.58596
3.57078
3.53917
3.48888
3.41972
3.334
3.23617
3.13208
3.02782
2.92774
2.83452
2.74996
2.67459
2.60766
2.54757
2.49232
2.43986
2.38833
2.33627
2.28258
2.22665
2.16841
2.10841
2.04796
1.98994
1.93845
1.89829
1.87409
1.86944
1.88616
1.9238
1.97958
2.05172
2.13368
2.21287
2.27743
2.31914
2.33588
2.33224
2.31797
2.30432
2.29982
2.30641
2.31935
2.33332
2.34182
2.33884
2.32024
2.28452
2.23276
2.16817
2.09526
2.0187
1.94226
1.86871
1.79996
1.73781
1.68429
1.64161
1.61499
1.61401
1.6386
1.67568
1.70742
1.71805
1.70053
1.65956
1.60956
1.56865
1.55168
1.55786
1.58564
1.62925
1.67202
1.695
1.68231
1.62608
1.52944
1.40639
1.27838
1.16846
1.08999
1.04839
1.04466
1.07358
1.12588
1.19107
1.25969
1.32506
1.3838
1.43218
1.46765
1.4884
1.49361
1.48371
1.46034
1.426
1.38348
1.33527
1.2836
1.23004
1.17556
1.12107
1.06761
1.01623
0.967856
0.922974
0.88158
0.843026
0.806206
0.769873
0.732974
0.69487
0.655377
0.614605
0.572615
0.529278
0.484163
0.436663
0.386346
0.333294
0.277383
0
-0.0139414
0.560706
1.98869
4.2743
7.00405
9.37822
10.4999
9.81297
7.43392
4.14478
1.02196
-1.07942
-1.87644
-1.66401
-1.27727
-0.955225
-0.738125
-0.630759
-0.576869
-0.547036
-0.534206
-0.533938
-0.542443
-0.5588
-0.582025
-0.61047
-0.641685
-0.672678
-0.700394
-0.722905
-0.738081
-0.74419
-0.740116
-0.725325
-0.699953
-0.664878
-0.621688
-0.572493
-0.51959
-0.465022
-0.410156
-0.355347
-0.299956
-0.242412
-0.18041
-0.111234
-0.0321464
0.0592114
0.164469
0.28412
0.418673
0.571868
0.744487
0.922335
1.08549
1.21545
1.30034
1.33789
1.33506
1.30463
1.26076
1.21482
1.17158
1.12982
1.08633
1.03722
0.978478
0.906024
0.81679
0.709309
0.583943
0.442754
0.289111
0.127622
-0.0373268
-0.20184
-0.36232
-0.515623
-0.659178
-0.79109
-0.910239
-1.01635
-1.11004
-1.19271
-1.26645
-1.33375
-1.39716
-1.45882
-1.52003
-1.58095
-1.64043
-1.69605
-1.74453
-1.78197
-1.80308
-1.79801
-1.74747
-1.63188
-1.47158
-1.30992
-1.18901
-1.13919
-1.17134
-1.27493
-1.42259
-1.57786
-1.70243
-1.77927
-1.81838
-1.80816
-1.71369
-1.56075
-1.40015
-1.28457
-1.2492
-1.29944
-1.41159
-1.54572
-1.66312
-1.73968
-1.78779
-1.8212
-1.84537
-1.86209
-1.87201
-1.87529
-1.87169
-1.86073
-1.8419
-1.81446
-1.77737
-1.73234
-1.68659
-1.64885
-1.62684
-1.62468
-1.6414
-1.67131
-1.70589
-1.73652
-1.75702
-1.76711
-1.76716
-1.75595
-1.73301
-1.69826
-1.65173
-1.59241
-1.52307
-1.45049
-1.38235
-1.32512
-1.28193
-1.25133
-1.22726
-1.20038
-1.16041
-1.09958
-1.01645
-0.913607
-0.79533
-0.666256
-0.530701
-0.392848
-0.256198
-0.124091
-0.00152569
0.105645
0.191755
0.248558
0.267357
0.242577
0.174816
0.0718618
-0.0524948
-0.181094
-0.29834
-0.394718
-0.461904
-0.495493
-0.495576
-0.466627
-0.416559
-0.35506
-0.291503
-0.232678
-0.180635
-0.135029
-0.0997778
-0.186695
0
0.785652
2.38407
4.67355
7.10218
8.84725
9.19059
7.90612
5.40706
2.53997
0.150248
-1.30282
-1.85027
-1.82324
-1.52923
-1.22677
-0.931254
-0.688838
-0.552518
-0.468965
-0.405771
-0.35201
-0.301015
-0.246712
-0.184513
-0.112918
-0.0324621
0.0564035
0.152749
0.2551
0.361703
0.469182
0.572077
0.664449
0.741227
0.799646
0.840368
0.867844
0.889696
0.915214
0.953363
1.01057
1.08776
1.18228
1.29095
1.41103
1.53969
1.6741
1.81163
1.94996
2.08712
2.22154
2.35227
2.47925
2.60344
2.72688
2.85337
2.99514
3.17965
3.4087
3.63605
3.81032
3.89839
3.89169
3.80069
3.64765
3.46329
3.2839
3.13536
3.01098
2.89545
2.78016
2.66117
2.53583
2.40246
2.26076
2.11195
1.95845
1.80351
1.65069
1.50338
1.36444
1.23604
1.11958
1.01574
0.924496
0.845217
0.776952
0.717907
0.664208
0.610742
0.551832
0.482012
0.39689
0.293911
0.172809
0.035634
-0.113651
-0.269734
-0.42724
-0.580783
-0.724511
-0.85057
-0.950466
-1.02061
-1.05637
-1.05283
-1.00759
-0.923566
-0.809864
-0.679772
-0.546997
-0.421826
-0.306496
-0.200211
-0.104638
-0.0216492
0.0477102
0.102945
0.14451
0.174155
0.195057
0.211621
0.228972
0.252232
0.285328
0.330297
0.388024
0.458463
0.540583
0.632677
0.73283
0.839369
0.951169
1.06772
1.18897
1.3149
1.44516
1.57909
1.71357
1.84036
1.94944
2.03255
2.08671
2.11634
2.13305
2.15264
2.19041
2.25636
2.34721
2.45267
2.56554
2.67853
2.78311
2.87206
2.94065
2.98714
3.01285
3.02163
3.01901
3.01125
3.00445
3.00356
3.01149
3.0329
3.07919
3.16574
3.2766
3.37776
3.42898
3.39875
3.27776
3.08306
2.85046
2.62084
2.4276
2.26617
2.1237
1.99616
1.88246
1.77987
1.68303
1.58599
1.48333
1.37128
1.24844
1.11604
0.977435
0.837121
0.69939
0.56669
0.440219
0.319545
0.203192
0.0885542
-0.0296675
-0.212397
0
0.998092
3.00255
5.78487
8.61022
10.4763
10.5853
8.78387
5.68522
2.37885
-0.0996647
-1.2169
-1.06803
-0.170803
0.473811
1.00626
1.35134
1.57031
1.73852
1.86655
1.96704
2.05277
2.13509
2.22239
2.31902
2.42651
2.54452
2.67107
2.80322
2.93774
3.07172
3.20299
3.33027
3.45308
3.57154
3.68595
3.79652
3.9031
4.00507
4.1014
4.19052
4.27008
4.33681
4.38807
4.42286
4.44138
4.44543
4.43854
4.42561
4.412
4.40239
4.40077
4.40577
4.41146
4.40928
4.39031
4.3475
4.27709
4.17937
4.05879
3.92353
3.78455
3.65078
3.52803
3.42001
3.32611
3.23705
3.13924
3.01875
2.86534
2.67532
2.45233
2.20592
1.94878
1.69328
1.44573
1.21076
0.991987
0.791747
0.611634
0.452523
0.314421
0.197023
0.0999936
0.0233569
-0.0327548
-0.0685349
-0.0842168
-0.0803075
-0.0578937
-0.0189455
0.03349
0.0953059
0.161856
0.227706
0.287782
0.338477
0.378244
0.407748
0.429446
0.446729
0.462837
0.479905
0.498503
0.517389
0.534278
0.546945
0.554265
0.556823
0.556857
0.557626
0.562483
0.574043
0.593105
0.620051
0.655071
0.698375
0.750357
0.811408
0.881403
0.959574
1.04382
1.12767
1.20303
1.26192
1.29804
1.30773
1.29003
1.24604
1.17831
1.09144
0.992025
0.884996
0.774924
0.666629
0.564703
0.472609
0.392267
0.324783
0.269938
0.226173
0.190904
0.160892
0.132493
0.101835
0.0648992
0.0173313
-0.0446115
-0.123862
-0.221977
-0.338595
-0.471124
-0.61479
-0.763135
-0.908879
-1.04527
-1.16691
-1.26995
-1.3525
-1.41448
-1.45712
-1.48291
-1.49465
-1.4949
-1.4857
-1.46852
-1.44445
-1.41439
-1.37936
-1.34057
-1.29938
-1.25709
-1.21475
-1.17306
-1.13224
-1.09203
-1.05178
-1.01067
-0.967834
-0.922614
-0.87472
-0.824358
-0.77218
-0.719386
-0.66743
-0.617536
-0.5703
-0.525428
-0.481747
-0.4375
-0.390853
-0.340451
-0.285469
-0.226014
-0.164647
-0.104914
-0.04967
0
0.0639965
-0.174429
-0.247171
0.324285
1.92191
4.55583
7.70402
10.4246
11.7421
11.1239
8.77174
5.53487
2.48172
0.386753
-0.561221
-0.683497
-0.479045
-0.328746
-0.177641
-0.0271685
0.112509
0.219255
0.265884
0.23672
0.14158
0.0147913
-0.102123
-0.182927
-0.236246
-0.28139
-0.32532
-0.371095
-0.420833
-0.474879
-0.531154
-0.584399
-0.625437
-0.644926
-0.634376
-0.587522
-0.501923
-0.380409
-0.23151
-0.068081
0.095934
0.249602
0.391544
0.52565
0.654716
0.781592
0.908989
1.03872
1.17128
1.30586
1.44074
1.57399
1.70424
1.83108
1.95523
2.07813
2.20135
2.3259
2.45182
2.5772
2.69799
2.80902
2.90518
2.98252
3.03897
3.07462
3.09147
3.09289
3.08279
3.06476
3.04159
3.01466
2.98415
2.9494
2.90929
2.86263
2.8087
2.74756
2.68023
2.60875
2.53596
2.46513
2.39949
2.34172
2.29356
2.25555
2.22708
2.20647
2.19138
2.17909
2.16688
2.15232
2.13345
2.10896
2.07823
2.04133
1.99898
1.95235
1.90292
1.85229
1.80193
1.75308
1.7067
1.66337
1.62336
1.58663
1.55284
1.52141
1.49151
1.46212
1.43205
1.40008
1.36508
1.32616
1.28286
1.23524
1.18391
1.13001
1.07511
1.02099
0.969663
0.92338
0.884689
0.856554
0.842444
0.846155
0.871326
0.921587
0.999946
1.10798
1.245
1.40751
1.59381
1.79491
1.99189
2.16632
2.30442
2.39957
2.45249
2.46948
2.4596
2.43199
2.39454
2.35325
2.31132
2.2706
2.23256
2.19858
2.17021
2.14969
2.13899
2.13985
2.15337
2.17973
2.21805
2.26633
2.32165
2.3809
2.43926
2.4909
2.53084
2.55604
2.56641
2.56543
2.55992
2.55876
2.57089
2.61142
2.69447
2.80927
2.92921
3.0262
3.07934
3.07894
3.0263
2.93109
2.80817
2.67441
2.54464
2.42529
2.31662
2.21684
2.12417
2.03649
1.95025
1.86037
1.76057
1.64409
1.50448
1.33666
1.13786
0.908328
0.651615
0.374395
0.078632
-0.121561
0
0.588642
1.86853
3.93886
6.54657
8.99156
10.3467
9.93002
7.73482
4.50142
1.35214
-0.781103
-1.56838
-1.30179
-0.586423
0.0632072
0.505026
0.764537
0.94224
1.10304
1.25094
1.38352
1.49964
1.59955
1.68447
1.75698
1.82065
1.87947
1.9374
1.99804
2.06417
2.13751
2.21856
2.30655
2.39952
2.49495
2.59006
2.68198
2.76752
2.84407
2.90998
2.96469
3.00886
3.0445
3.07485
3.10407
3.13681
3.17768
3.2299
3.29573
3.37697
3.47435
3.58927
3.72551
3.88625
4.06398
4.23398
4.36995
4.45127
4.46655
4.41558
4.30835
4.16043
3.98686
3.79785
3.59988
3.39538
3.18443
2.96593
2.73832
2.49998
2.24969
1.98748
1.71506
1.43586
1.15473
0.877352
0.609424
0.355904
0.120424
-0.0949501
-0.289629
-0.464138
-0.619659
-0.757607
-0.879411
-0.986364
-1.07917
-1.15854
-1.22702
-1.28811
-1.34501
-1.39967
-1.45197
-1.49931
-1.53698
-1.55918
-1.5604
-1.53788
-1.49068
-1.42088
-1.33334
-1.23493
-1.13361
-1.03727
-0.954279
-0.89043
-0.848479
-0.828129
-0.826147
-0.836839
-0.852932
-0.866811
-0.871895
-0.863837
-0.842947
-0.811967
-0.773726
-0.731137
-0.687452
-0.645903
-0.608682
-0.576471
-0.548315
-0.521871
-0.494014
-0.461686
-0.422787
-0.376876
-0.325717
-0.272463
-0.221048
-0.175871
-0.140807
-0.118625
-0.110653
-0.116752
-0.135548
-0.164808
-0.201841
-0.243868
-0.288268
-0.332911
-0.376351
-0.41772
-0.45678
-0.494534
-0.533026
-0.574585
-0.621073
-0.673268
-0.7306
-0.791349
-0.853179
-0.913756
-0.971468
-1.02544
-1.07486
-1.11908
-1.15756
-1.18995
-1.21616
-1.23662
-1.25228
-1.26463
-1.27627
-1.29083
-1.3117
-1.34114
-1.37943
-1.42438
-1.47134
-1.50993
-1.46982
-1.22022
-0.866506
-0.553663
-0.387316
-0.390959
-0.523625
-0.732632
-0.988735
-1.27076
-1.50372
-1.60426
-1.5954
-1.52016
-1.33815
-1.10587
-0.899774
-0.78429
-0.787346
-0.891984
-1.04482
-1.17654
-1.22725
-1.18285
-1.09279
-0.98373
-0.810422
-0.529196
0
1.09392
2.97142
5.51774
8.16642
10.0476
10.378
8.88472
5.99346
2.64582
-0.151062
-1.76862
-2.14885
-1.68259
-0.911928
-0.25211
0.122702
0.199351
0.195651
0.190834
0.186558
0.182986
0.179267
0.173749
0.164408
0.149371
0.127412
0.0983154
0.0630579
0.0237911
-0.0163542
-0.0540438
-0.0863331
-0.110568
-0.123331
-0.123065
-0.113669
-0.100814
-0.0898022
-0.0834709
-0.0810516
-0.0784821
-0.0700516
-0.0506695
-0.0183105
0.0239534
0.0725874
0.124787
0.177578
0.228506
0.276229
0.320725
0.36316
0.40548
0.449842
0.49803
0.551026
0.608703
0.669984
0.733298
0.796742
0.858182
0.915171
0.964939
1.00455
1.03094
1.04086
1.03107
0.998811
0.942413
0.861829
0.759037
0.638157
0.505194
0.36751
0.232611
0.106605
-0.00540066
-0.0997791
-0.174725
-0.230001
-0.266761
-0.287765
-0.296326
-0.295742
-0.288895
-0.278042
-0.264818
-0.250285
-0.235176
-0.219853
-0.204227
-0.187676
-0.16907
-0.146991
-0.120166
-0.0880026
-0.0506973
-0.0101334
0.0302662
0.066584
0.0954197
0.114761
0.124427
0.12597
0.122095
0.115805
0.109526
0.104335
0.100136
0.0957819
0.0891804
0.0778963
0.059775
0.0334608
-0.00134468
-0.0439779
-0.0932224
-0.147885
-0.20727
-0.27116
-0.340248
-0.415668
-0.498451
-0.589055
-0.687024
-0.791555
-0.899784
-1.00477
-1.09777
-1.17054
-1.21698
-1.23434
-1.22349
-1.1884
-1.13505
-1.07008
-0.999825
-0.928918
-0.859608
-0.792616
-0.727671
-0.663773
-0.599409
-0.532791
-0.462172
-0.38616
-0.303971
-0.215565
-0.121617
-0.0233191
0.0776377
0.179224
0.279138
0.374291
0.459828
0.530864
0.58385
0.617095
0.632708
0.637932
0.644667
0.666713
0.715604
0.796827
0.901907
1.01992
1.14445
1.26988
1.39056
1.50066
1.59634
1.67523
1.73621
1.77888
1.80303
1.80799
1.79048
1.74802
1.6781
1.57969
1.45489
1.31013
1.15629
1.00768
0.905688
0.913296
1.00754
1.11991
1.17915
1.15058
1.04655
0.905255
0.757124
0.605876
0.443331
0.271502
0.0915497
-0.125332
-0.302483
0
1.04011
2.95022
5.56357
8.3343
10.4284
11.0369
9.7844
6.98238
3.53507
0.518481
-1.31805
-1.82973
-1.40075
-0.631747
0.0221951
0.410872
0.574503
0.699769
0.817831
0.929192
1.0337
1.13276
1.22937
1.32778
1.43263
1.54992
1.69466
1.86087
2.02166
2.14665
2.21797
2.24076
2.24221
2.25912
2.32081
2.43693
2.5797
2.73185
2.88564
3.03498
3.17523
3.30224
3.41459
3.51344
3.6017
3.68353
3.76367
3.84664
3.93574
4.03297
4.1385
4.24352
4.3359
4.4042
4.44134
4.44631
4.42324
4.37863
4.31827
4.24576
4.1646
4.07582
3.97917
3.87469
3.7626
3.64298
3.51536
3.37911
3.23246
3.07333
2.89998
2.71169
2.50927
2.29537
2.07437
1.85204
1.63472
1.42863
1.23902
1.07004
0.924156
0.800663
0.695813
0.604103
0.519263
0.435297
0.347359
0.250433
0.140319
0.0218813
-0.0873133
-0.165804
-0.194326
-0.161885
-0.070285
0.0646589
0.21631
0.35453
0.457754
0.527067
0.563484
0.576168
0.579452
0.588226
0.613202
0.655691
0.709428
0.768483
0.828125
0.884214
0.934141
0.977281
1.01489
1.04955
1.08434
1.12203
1.1644
1.21224
1.26547
1.32323
1.38411
1.44632
1.50768
1.56502
1.61523
1.65569
1.6849
1.70309
1.71223
1.71551
1.7162
1.71634
1.71558
1.70999
1.69294
1.6573
1.59814
1.51467
1.41104
1.29541
1.17798
1.06845
0.971774
0.887612
0.815752
0.755747
0.706834
0.666687
0.630319
0.592465
0.548566
0.495736
0.433486
0.363918
0.291308
0.22114
0.158782
0.107049
0.0681638
0.042603
0.0292145
0.0256073
0.0286635
0.0350279
0.0414797
0.0450902
0.0432711
0.0342797
0.0172338
-0.00778852
-0.039752
-0.0768298
-0.116714
-0.156961
-0.195238
-0.229663
-0.258544
-0.279815
-0.291454
-0.291622
-0.279051
-0.253472
-0.215891
-0.16856
-0.114612
-0.0574341
0
0.0457775
0.0890272
0.129806
0.16882
0.207026
0.24527
0.28404
0.323935
0.348008
0.514015
1.14654
2.58
4.89525
7.70299
10.1621
11.3087
10.5514
8.03344
4.61388
1.45834
-0.517584
-1.02611
-0.417482
0.426175
1.06309
1.41605
1.46596
1.46932
1.43936
1.38793
1.32463
1.25738
1.19185
1.136
1.13278
1.28756
1.5577
1.81825
1.93162
1.82836
1.54723
1.21174
0.963468
0.891639
0.919489
0.958135
0.988748
0.998386
0.980381
0.935211
0.869531
0.793958
0.720482
0.658719
0.612252
0.581663
0.566603
0.565919
0.577568
0.599044
0.627167
0.658262
0.688408
0.713618
0.730375
0.736445
0.730898
0.714259
0.688529
0.656996
0.623755
0.59298
0.568066
0.550682
0.541194
0.53759
0.535222
0.528434
0.511735
0.480781
0.432952
0.367521
0.285588
0.189922
0.0852242
-0.0226671
-0.127844
-0.223745
-0.304415
-0.365566
-0.405457
-0.425283
-0.428935
-0.422153
-0.411335
-0.402209
-0.398262
-0.401768
-0.413517
-0.433006
-0.458805
-0.488983
-0.521486
-0.554462
-0.586421
-0.61617
-0.642647
-0.66483
-0.681701
-0.692354
-0.695515
-0.689878
-0.676184
-0.659077
-0.645784
-0.643807
-0.658739
-0.692526
-0.742891
-0.804216
-0.869614
-0.933404
-0.993248
-1.05037
-1.10706
-1.16575
-1.2285
-1.29637
-1.36914
-1.44543
-1.52297
-1.59918
-1.67191
-1.73914
-1.79933
-1.85129
-1.89445
-1.92945
-1.95765
-1.98087
-2.00117
-2.02081
-2.04219
-2.0681
-2.10158
-2.14586
-2.20416
-2.28807
-2.41635
-2.59016
-2.77665
-2.93853
-3.04686
-3.08713
-3.05818
-2.96778
-2.82975
-2.66443
-2.49889
-2.35426
-2.23299
-2.1274
-2.02962
-1.93373
-1.83366
-1.72512
-1.60704
-1.48255
-1.35686
-1.23631
-1.12667
-1.03161
-0.951603
-0.88373
-0.822281
-0.759818
-0.674424
-0.455429
-0.0622849
0.364703
0.696391
0.844638
0.789562
0.574462
0.275651
-0.0258167
-0.251939
-0.360464
-0.404477
-0.418658
-0.41493
-0.3967
-0.364964
-0.321345
-0.268152
-0.209439
-0.150743
-0.0975975
-0.0545116
-0.0241165
-0.00666008
0
-0.00770264
-0.0210388
0.22059
1.02377
2.66099
5.12473
7.94515
10.2507
11.1171
10.0484
7.29734
3.79069
0.67519
-1.2422
-1.81596
-1.47724
-1.05984
-0.74075
-0.570526
-0.533239
-0.524725
-0.521511
-0.516718
-0.505696
-0.48702
-0.460839
-0.427466
-0.387253
-0.340198
-0.285637
-0.222246
-0.148302
-0.0621593
0.0371944
0.149628
0.273592
0.406132
0.543262
0.680499
0.813649
0.939697
1.05739
1.16746
1.2724
1.37592
1.48214
1.59475
1.71638
1.84824
1.99035
2.14178
2.30108
2.46768
2.644
2.84101
3.09117
3.38598
3.66383
3.85079
3.89176
3.7722
3.52733
3.23988
3.02543
2.99886
3.1026
3.30466
3.52099
3.65587
3.65077
3.51001
3.28888
3.05554
2.85427
2.68904
2.53534
2.38455
2.23411
2.08249
1.92845
1.77116
1.61031
1.44627
1.28019
1.11402
0.950446
0.792646
0.643922
0.507277
0.385125
0.279179
0.189481
0.114921
0.0535328
0.00289764
-0.0394516
-0.0757214
-0.107685
-0.136633
-0.163414
-0.18854
-0.212254
-0.234653
-0.255742
-0.275447
-0.293644
-0.309975
-0.323645
-0.333249
-0.336717
-0.331488
-0.314899
-0.28474
-0.239909
-0.180579
-0.10839
-0.026231
0.0622517
0.153229
0.243399
0.330343
0.412484
0.489053
0.559884
0.62515
0.685118
0.739917
0.789498
0.833812
0.872866
0.906904
0.936531
0.962742
0.98679
1.00991
1.03296
1.05596
1.07762
1.09456
1.10185
1.09367
1.06017
0.966217
0.810971
0.642308
0.522393
0.501939
0.599899
0.79691
1.04303
1.27529
1.43955
1.54696
1.62228
1.66832
1.69075
1.69667
1.69315
1.68601
1.67865
1.67192
1.66497
1.65456
1.63565
1.60246
1.54981
1.47444
1.37587
1.25658
1.12141
0.97644
0.828023
0.68087
0.538281
0.403444
0.280818
0.176002
0.0927155
0.0344402
0.00351105
0
0.0225861
0.0639103
0.116373
0.172262
0.225565
0.274075
0.309616
0.18759
0.387968
1.26808
3.04795
5.58336
8.27641
10.2393
10.6844
9.33872
6.62634
3.4841
0.909949
-0.486985
-0.682399
-0.106076
0.502238
1.01464
1.3789
1.59597
1.75767
1.86896
1.9294
1.93801
1.90246
1.84602
1.80592
1.82127
1.91524
2.06478
2.23451
2.408
2.5689
2.70415
2.80596
2.87218
2.90518
2.91007
2.89301
2.86179
2.82303
2.78096
2.73941
2.70189
2.67133
2.64948
2.63719
2.63478
2.64176
2.65696
2.6787
2.70523
2.73364
2.75991
2.77985
2.78954
2.78582
2.76656
2.73064
2.67767
2.6075
2.51987
2.41613
2.29751
2.16471
2.01844
1.86002
1.69151
1.51555
1.33503
1.1526
0.970194
0.788735
0.607992
0.426764
0.243304
0.0559055
-0.136469
-0.333691
-0.534215
-0.735144
-0.932573
-1.12213
-1.29947
-1.46019
-1.59897
-1.71117
-1.79609
-1.8542
-1.88697
-1.8968
-1.88698
-1.86159
-1.82518
-1.78226
-1.73667
-1.69085
-1.64561
-1.60043
-1.55376
-1.50366
-1.44847
-1.38562
-1.31782
-1.25154
-1.19376
-1.14877
-1.11599
-1.09016
-1.06359
-1.0294
-0.984053
-0.930879
-0.873378
-0.813989
-0.755647
-0.701932
-0.655089
-0.615698
-0.582348
-0.551691
-0.519143
-0.480233
-0.43221
-0.37523
-0.313316
-0.251062
-0.193257
-0.144375
-0.10798
-0.0869074
-0.0823908
-0.0945293
-0.122336
-0.163765
-0.215852
-0.275124
-0.338295
-0.40311
-0.469008
-0.537069
-0.609796
-0.69053
-0.782793
-0.889582
-1.01274
-1.15254
-1.31181
-1.4937
-1.68948
-1.87584
-2.02871
-2.12972
-2.17
-2.15121
-2.08378
-1.98309
-1.86502
-1.74243
-1.62328
-1.51022
-1.40388
-1.30463
-1.21354
-1.13094
-1.0563
-0.988031
-0.923735
-0.860641
-0.796115
-0.727617
-0.655803
-0.58727
-0.530673
-0.49229
-0.472093
-0.46237
-0.449932
-0.421265
-0.368436
-0.294806
-0.211506
-0.130105
-0.0624516
-0.0176125
0
-0.00449619
-0.0312723
-0.0735323
-0.123444
-0.14279
-0.000439453
0.551874
1.7979
3.85751
6.4768
8.97238
10.4368
10.1563
8.02354
4.67362
1.22093
-1.27192
-2.28096
-1.97838
-1.00381
-0.0415363
0.516899
0.640329
0.551369
0.477159
0.411748
0.358653
0.320721
0.297007
0.286137
0.287763
0.301985
0.330596
0.375084
0.430667
0.48596
0.528119
0.546037
0.533321
0.489888
0.421611
0.338292
0.250839
0.168177
0.0937969
0.0284132
-0.0275162
-0.0731022
-0.107699
-0.131137
-0.143348
-0.144312
-0.134088
-0.112891
-0.081213
-0.0399611
0.00989838
0.0676094
0.129697
0.188268
0.234431
0.260548
0.262685
0.242319
0.206466
0.166016
0.132907
0.117158
0.119351
0.13643
0.171032
0.22536
0.29293
0.358524
0.405606
0.420259
0.395
0.331119
0.238623
0.133788
0.0351328
-0.0438353
-0.102022
-0.141224
-0.161312
-0.164016
-0.153209
-0.133566
-0.109514
-0.0843565
-0.0597523
-0.0357037
-0.0110111
0.0159695
0.0464828
0.0812389
0.119119
0.15632
0.187721
0.208693
0.216731
0.212541
0.200214
0.186393
0.178689
0.183851
0.204653
0.239487
0.285908
0.341982
0.405435
0.472631
0.538316
0.596923
0.6434
0.673711
0.685204
0.676738
0.648569
0.602064
0.539364
0.463445
0.378098
0.286952
0.193257
0.0999828
0.00987015
-0.074729
-0.152189
-0.221873
-0.284106
-0.340544
-0.394361
-0.449161
-0.508162
-0.573434
-0.645406
-0.722756
-0.802704
-0.881574
-0.955614
-1.02199
-1.07799
-1.122
-1.1535
-1.17222
-1.17817
-1.17409
-1.16302
-1.14747
-1.12873
-1.10654
-1.07932
-1.04479
-1.00091
-0.946892
-0.88438
-0.815077
-0.740906
-0.66404
-0.586424
-0.509489
-0.433968
-0.359855
-0.286499
-0.212782
-0.137356
-0.0588998
0.0236539
0.110984
0.203424
0.300683
0.401265
0.501438
0.594403
0.672652
0.72954
0.761238
0.768547
0.757794
0.740059
0.728415
0.7338
0.760859
0.808349
0.863322
0.908788
0.930409
0.921533
0.884188
0.825942
0.75473
0.674673
0.587431
0.493565
0.390725
0.278031
0.156248
0
-0.00425396
0.430175
1.53949
3.43348
5.93614
8.50826
10.3578
10.7536
9.40208
6.65482
3.38183
0.556161
-1.20207
-1.84214
-1.75527
-1.52626
-1.32685
-1.16939
-1.04835
-0.951117
-0.865491
-0.788548
-0.719777
-0.658545
-0.603497
-0.553453
-0.508421
-0.469819
-0.439336
-0.41961
-0.412472
-0.416966
-0.428156
-0.437511
-0.434853
-0.411065
-0.360621
-0.287532
-0.192585
-0.077786
0.0545453
0.199875
0.355822
0.520459
0.691224
0.864677
1.03643
1.20089
1.35266
1.48732
1.60231
1.69748
1.77515
1.83972
1.89695
1.95292
2.01292
2.08041
2.15722
2.2435
2.33791
2.43763
2.53864
2.63636
2.72584
2.80181
2.85933
2.89449
2.90383
2.88427
2.83339
2.74991
2.63421
2.48892
2.31904
2.13204
1.93697
1.74197
1.55358
1.37697
1.21546
1.07034
0.94101
0.825402
0.720591
0.623374
0.530777
0.440395
0.350563
0.260355
0.169445
0.077879
-0.0141985
-0.106802
-0.20028
-0.295349
173
368
564
758
953
1141
1326
1512
1702
1899
2099
2297
2498
2698
2895
3090
3277
3466
3661
3197
3342
3488
3637
3337
3478
3622
3003
3080
3150
3358
3551
3608
3650
2970
3166
3231
3275
3359
3489
3555
3606
3753
3708
3735
0
0
0
0
0
0
0
0
0
0
0
0
0
0
0
0
0
0
0
0
0
0
0
0
0
0
0
0
0
0
0
0
0
0
0
0
0
0
0
0
0
0
0
0
0
0
0
0
0
0
0
0
0
0
0
0
0
0
0
0
0
0
0
0
0
0
0
0
0
0
0
0
0
0
0
0
0
0
0
0
0
0
0
0
0
0
0
0
0
0
0
0
0
0
0
0
0
0
0
0
0
0
0
0
0
0
0
0
0
0
0
0
0
0
0
0
0
0
0
0
0
0
0
0
0
0
0
0
0
0
0
0
0
0
0
0
0
0
0
0
0
0
0
0
0
0
0
0
0
0
0
0
0
0
0
0
0
0
0
0
0
0
0
0
0
0
0
0
0
0
0
0
0
0
0
0
0
0
0
0
0
0
0
0
0
0
0
0
0
0
0
0
0
0
0
0
0
0
0
0
0
0
0
0
0
0
0
0
0
0
0
0
0
0
0
0
0
0
0
0
0
0
0
0
0
0
0
0
0
0
0
0
0
0
0
0
0
0
0
0
0
0
0
0
0
0
0
0
0
0
0
0
0
0
0
0
0
0
0
0
0
0
0
0
0
0
0
0
0
0
0
0
0
0
0
0
0
0
0
0
0
0
0
0
0
0
0
0
0
0
0
0
0
0
0
0
0
0
0
0
0
0
0
0
0
0
0
0
0
0
0
0
0
0
0
0
0
0
0
0
0
0
0
0
0
0
0
0
0
0
0
0
0
0
0
0
0
0
0
0
0
0
0
0
0
0
0
0
0
0
0
0
0
0
0
0
0
0
0
0
0
0
0
0
0
0
0
0
0
0
0
0
0
0
0
0
0
0
0
0
0
0
0
0
0
0
0
0
0
0
0
0
0
0
0
0
0
0
0
0
0
0
0
0
0
0
0
0
0
0
0
0
0
0
0
0
0
0
0
0
0
0
0
0
0
0
0
0
0
0
0
0
0
0
0
0
0
0
0
0
0
0
0
0
0
0
0
0
0
0
0
0
0
0
0
0
0
0
0
0
0
0
0
0
0
0
0
0
0
0
0
0
0
0
0
0
0
0
0
0
0
0
0
0
0
0
0
0
0
0
0
0
0
0
0
0
0
0
0
0
0
0
0
0
0
0
0
0
0
0
0
0
0
0
0
0
0
0
0
0
0
0
0
0
0
0
0
0
0
0
0
0
0
0
0
0
0
0
0
0
0
0
0
0
0
0
0
0
0
0
0
0
0
0
0
0
0
0
0
0
0
0
0
0
0
0
0
0
0
0
0
0
0
0
0
0
0
0
0
0
0
0
0
0
0
0
0
0
0
0
0
0
0
0
0
0
0
0
0
0
0
0
0
0
0
0
0
0
0
0
0
0
0
0
0
0
0
0
0
0
0
0
0
0
0
0
0
0
0
0
0
0
0
0
0
0
0
0
0
0
0
0
0
0
0
0
0
0
0
0
0
0
0
0
0
0
0
0
0
0
0
0
0
0
0
0
0
0
0
0
0
0
0
0
0
0
0
0
0
0
0
0
0
0
0
0
0
0
0
0
0
0
0
0
0
0
0
0
0
0
0
0
0
0
0
0
0
0
0
0
0
0
0
0
0
0
0
0
0
0
0
0
0
0
0
0
0
0
0
0
0
0
0
0
0
0
0
0
0
0
0
0
0
0
0
0
0
0
0
0
0
0
0
0
0
0
0
0
0
0
0
0
0
0
0
0
0
0
0
0
0
0
0
0
0
0
0
0
0
0
0
0
0
0
0
0
0
0
0
0
0
0
0
0
0
0
0
0
0
0
0
0
0
0
0
0
0
0
0
0
0
0
0
0
0
0
0
0
0
0
0
0
0
0
0
0
0
0
0
0
0
0
0
0
0
0
0
0
0
0
0
0
0
0
0
0
0
0
0
0
0
0
0
0
0
0
0
0
0
0
0
0
0
0
0
0
0
0
0
0
0
0
0
0
0
0
0
0
0
0
0
0
0
0
0
0
0
0
0
0
0
0
0
0
0
0
0
0
0
0
0
0
0
0
0
0
0
0
0
0
0
0
0
0
0
0
0
0
0
0
0
0
0
0
0
0
0
0
0
0
0
0
0
0
0
0
0
0
0
0
0
0
0
0
0
0
0
0
0
0
0
0
0
0
0
0
0
0
0
0
0
0
0
0
0
0
0
0
0
0
0
0
0
0
0
0
0
0
0
0
0
0
0
0
0
0
0
0
0
0
0
0
0
0
0
0
0
0
0
0
0
0
0
0
0
0
0
0
0
0
0
0
0
0
0
0
0
0
0
0
0
0
0
0
0
0
0
0
0
0
0
0
0
0
0
0
0
0
0
0
0
0
0
0
0
0
0
0
0
0
0
0
0
0
0
0
0
0
0
0
0
0
0
0
0
0
0
0
0
0
0
0
0
0
0
0
0
0
0
0
0
0
0
0
0
0
0
0
0
0
0
0
0
0
0
0
0
0
0
0
0
0
0
0
0
0
0
0
0
0
0
0
0
0
0
0
0
0
0
0
0
0
0
0
0
0
0
0
0
0
0
0
0
0
0
0
0
0
0
0
0
0
0
0
0
0
0
0
0
0
0
0
0
0
0
0
0
0
0
0
0
0
0
0
0
0
0
0
0
0
0
0
0
0
0
0
0
0
0
0
0
0
0
0
0
0
0
0
0
0
0
0
0
0
0
0
0
0
0
0
0
0
0
0
0
0
0
0
0
0
0
0
0
0
0
0
0
0
0
0
0
0
0
0
0
0
0
0
0
0
0
0
0
0
0
0
0
0
0
0
0
0
0
0
0
0
0
0
0
0
0
0
0
0
0
0
0
0
0
0
0
0
0
0
0
0
0
0
0
0
0
0
0
0
0
0
0
0
0
0
0
0
0
0
0
0
0
0
0
0
0
0
0
0
0
0
0
0
0
0
0
0
0
0
0
0
0
0
0
0
0
0
0
0
0
0
0
0
0
0
0
0
0
0
0
0
0
0
0
0
0
0
0
0
0
0
0
0
0
0
0
0
0
0
0
0
0
0
0
0
0
0
0
0
0
0
0
0
0
0
0
0
0
0
0
0
0
0
0
0
0
0
0
0
0
0
0
0
0
0
0
0
0
0
0
0
0
0
0
0
0
0
0
0
0
0
0
0
0
0
0
0
0
0
0
0
0
0
0
0
0
0
0
0
0
0
0
0
0
0
0
0
0
0
0
0
0
0
0
0
0
0
0
0
0
0
0
0
0
0
0
0
0
0
0
0
0
0
0
0
0
0
0
0
0
0
0
0
0
0
0
0
0
0
0
0
0
0
0
0
0
0
0
0
0
0
0
0
0
0
0
0
0
0
0
0
0
0
0
0
0
0
0
0
0
0
0
0
0
0
0
0
0
0
0
0
0
0
0
0
0
0
0
0
0
0
0
0
0
0
0
0
0
0
0
0
0
0
0
0
0
0
0
0
0
0
0
0
0
0
0
0
0
0
0
0
0
0
0
0
0
0
0
0
0
0
0
0
0
0
0
0
0
0
0
0
0
0
0
0
0
0
0
0
0
0
0
0
0
0
0
0
0
0
0
0
0
0
0
0
0
0
0
0
0
0
0
0
0
0
0
0
0
0
0
0
0
0
0
0
0
0
0
0
0
0
0
0
0
0
0
0
0
0
0
0
0
0
0
0
0
0
0
0
0
0
0
0
0
0
0
0
0
0
0
0
0
0
0
0
0
0
0
0
0
0
0
0
0
0
0
0
0
0
0
0
0
0
0
0
0
0
0
0
0
0
0
0
0
0
0
0
0
0
0
0
0
0
0
0
0
0
0
0
0
0
0
0
0
0
0
0
0
0
0
0
0
0
0
0
0
0
0
0
0
0
0
0
0
0
0
0
0
0
0
0
0
0
0
0
0
0
0
0
0
0
0
0
0
0
0
0
0
0
0
0
0
0
0
0
0
0
0
0
0
0
0
0
0
0
0
0
0
0
0
0
0
0
0
0
0
0
0
0
0
0
0
0
0
0
0
0
0
0
0
0
0
0
0
0
0
0
0
0
0
0
0
0
0
0
0
0
0
0
0
0
0
0
0
0
0
0
0
0
0
0
0
0
0
0
0
0
0
0
0
0
0
0
0
0
0
0
0
0
0
0
0
0
0
0
0
0
0
0
0
0
0
0
0
0
0
0
0
0
0
0
0
0
0
0
0
0
0
0
0
0
0
0
0
0
0
0
0
0
0
0
0
0
0
0
0
0
0
0
0
0
0
0
0
0
0
0
0
0
0
0
0
0
0
0
0
0
0
0
0
0
0
0
0
0
0
0
0
0
0
0
0
0
0
0
0
0
0
0
0
0
0
0
0
0
0
0
0
0
0
0
0
0
0
0
0
0
0
0
0
0
0
0
0
0
0
0
0
0
0
0
0
0
0
0
0
0
0
0
0
0
0
0
0
0
0
0
0
0
0
0
0
0
0
0
0
0
0
0
0
0
0
0
0
0
0
0
0
0
0
0
0
0
0
0
0
0
0
0
0
0
0
0
0
0
0
0
0
0
0
0
0
0
0
0
0
0
0
0
0
0
0
0
0
0
0
0
0
0
0
0
0
0
0
0
0
0
0
0
0
0
0
0
0
0
0
0
0
0
0
0
0
0
0
0
0
0
0
0
0
0
0
0
0
0
0
0
0
0
0
0
0
0
0
0
0
0
0
0
0
0
0
0
0
0
0
0
0
0
0
0
0
0
0
0
0
0
0
0
0
0
0
0
0
0
0
0
0
0
0
0
0
0
0
0
0
0
0
0
0
0
0
0
0
0
0
0
0
0
0
0
0
0
0
0
0
0
0
0
0
0
0
0
0
0
0
0
0
0
0
0
0
0
0
0
0
0
0
0
0
0
0
0
0
0
0
0
0
0
0
0
0
0
0
0
0
0
0
0
0
0
0
0
0
0
0
0
0
0
0
0
0
0
0
0
0
0
0
0
0
0
0
0
0
0
0
0
0
0
0
0
0
0
0
0
0
0
0
0
0
0
0
0
0
0
0
0
0
0
0
0
0
0
0
0
0
0
0
0
0
0
0
0
0
0
0
0
0
0
0
0
0
0
0
0
0
0
0
0
0
0
0
0
0
0
0
0
0
0
0
0
0
0
0
0
0
0
0
0
0
0
0
0
0
0
0
0
0
0
0
0
0
0
0
0
0
0
0
0
0
0
0
0
0
0
0
0
0
0
0
0
0
0
0
0
0
0
0
0
0
0
0
0
0
0
0
0
0
0
0
0
0
0
0
0
0
0
0
0
0
0
0
0
0
0
0
0
0
0
0
0
0
0
0
0
0
0
0
0
0
0
0
0
0
0
0
0
0
0
0
0
0
0
0
0
0
0
0
0
0
0
0
0
0
0
0
0
0
0
0
0
0
0
0
0
0
0
0
0
0
0
0
0
0
0
0
0
0
0
0
0
0
0
0
0
0
0
0
0
0
0
0
0
0
0
0
0
0
0
0
0
0
0
0
0
0
0
0
0
0
0
0
0
0
0
0
0
0
0
0
0
0
0
0
0
0
0
0
0
0
0
0
0
0
0
0
0
0
0
0
0
0
0
0
0
0
0
0
0
0
0
0
0
0
0
0
0
0
0
0
0
0
0
0
0
0
0
0
0
0
0
0
0
0
0
0
0
0
0
0
0
0
0
0
0
0
0
0
0
0
0
0
0
0
0
0
0
0
0
0
0
0
0
0
0
0
0
0
0
0
0
0
0
0
0
0
0
0
0
0
0
0
0
0
0
0
0
0
0
0
0
0
0
0
0
0
0
0
0
0
0
0
0
0
0
0
0
0
0
0
0
0
0
0
0
0
0
0
0
0
0
0
0
0
0
0
0
0
0
0
0
0
0
0
0
0
0
0
0
0
0
0
0
0
0
0
0
0
0
0
0
0
0
0
0
0
0
0
0
0
0
0
0
0
0
0
0
0
0
0
0
0
0
0
0
0
0
0
0
0
0
0
0
0
0
0
0
0
0
0
0
0
0
0
0
0
0
0
0
0
0
0
0
0
0
0
0
0
0
0
0
0
0
0
0
0
0
0
0
0
0
0
0
0
0
0
0
0
0
0
0
0
0
0
0
0
0
0
0
0
0
0
0
0
0
0
0
0
0
0
0
0
0
0
0
0
0
0
0
0
0
0
0
0
0
0
0
0
0
0
0
0
0
0
0
0
0
0
0
0
0
0
0
0
0
0
0
0
0
0
0
0
0
0
0
0
0
0
0
0
0
0
0
0
0
0
0
0
0
0
0
0
0
0
0
0
0
0
0
0
0
0
0
0
0
0
0
0
0
0
0
0
0
0
0
0
0
0
0
0
0
0
0
0
0
0
0
0
0
0
0
0
0
0
0
0
0
0
0
0
0
0
0
0
0
0
0
0
0
0
0
0
0
0
0
0
0
0
0
0
0
0
0
0
0
0
0
0
0
0
0
0
0
0
0
0
0
0
0
0
0
0
0
0
0
0
0
0
0
0
0
0
0
0
0
0
0
0
0
0
0
0
0
0
0
0
0
0
0
0
0
0
0
0
0
0
0
0
0
0
0
0
0
0
0
0
0
0
0
0
0
0
0
0
0
0
0
0
0
0
0
0
0
0
0
0
0
0
0
0
0
0
0
0
0
0
0
0
0
0
0
0
0
0
0
0
0
0
0
0
0
0
0
0
0
0
0
0
0
0
0
0
0
0
0
0
0
0
0
0
0
0
0
0
0
0
0
0
0
0
0
0
0
0
0
0
0
0
0
0
0
0
0
0
0
0
0
0
0
0
0
0
0
0
0
0
0
0
0
0
0
0
0
0
0
0
0
0
0
0
0
0
0
0
0
0
0
0
0
0
0
0
0
0
0
0
0
0
0
0
0
0
0
0
0
0
0
0
0
0
0
0
0
0
0
0
0
0
0
0
0
0
0
0
0
0
0
0
0
0
0
0
0
0
0
0
0
0
0
0
0
0
0
0
0
0
0
0
0
0
0
0
0
0
0
0
0
0
0
0
0
0
0
0
0
0
0
0
0
0
0
0
0
0
0
0
0
0
0
0
0
0
0
0
0
0
0
0
0
0
0
0
0
0
0
0
0
0
0
0
0
0
0
0
0
0
0
0
0
0
0
0
0
0
0
0
0
0
0
0
0
0
0
0
0
0
0
0
0
0
0
0
0
0
0
0
0
0
0
0
0
0
0
0
0
0
0
0
0
0
0
0
0
0
0
0
0
0
0
0
0
0
0
0
0
0
0
0
0
0
0
0
0
0
0
0
0
0
0
0
0
0
0
0
0
0
0
0
0
0
0
0
0
0
0
0
0
0
0
0
0
0
0
0
0
0
0
0
0
0
0
0
0
0
0
0
0
0
0
0
0
0
0
0
0
0
0
0
0
0
0
0
0
0
0
0
0
0
0
0
0
0
0
0
0
0
0
0
0
0
0
0
0
0
0
0
0
0
0
0
0
0
0
0
0
0
0
0
0
0
0
0
0
0
0
0
0
0
0
0
0
0
0
0
0
0
0
0
0
0
0
0
0
0
0
0
0
0
0
0
0
0
0
0
0
0
0
0
0
0
0
0
0
0
0
0
0
0
0
0
0
0
0
0
0
0
0
0
0
0
0
0
0
0
0
0
0
0
0
0
0
0
0
0
0
0
0
0
0
0
0
0
0
0
0
0
0
0
0
0
0
0
0
0
0
0
0
0
0
0
0
0
0
0
0
0
0
0
0
0
0
0
0
0
0
0
0
0
0
0
0
0
0
0
0
0
0
0
0
0
0
0
0
0
0
0
0
0
0
0
0
0
0
0
0
0
0
0
0
0
0
0
0
0
0
0
0
0
0
0
0
0
0
0
0
0
0
0
0
0
0
0
0
0
0
0
0
0
0
0
0
0
0
0
0
0
0
0
0
0
0
0
0
0
0
0
0
0
0
0
0
0
0
0
0
0
0
0
0
0
0
0
0
0
0
0
0
0
0
0
0
0
0
0
0
0
0
0
0
0
0
0
0
0
0
0
0
0
0
0
0
0
0
0
0
0
0
0
0
0
0
0
0
0
0
0
0
0
0
0
0
0
0
0
0
0
0
0
0
0
0
0
0
0
0
0
0
0
0
0
0
0
0
0
0
0
0
0
0
0
0
0
0
0
0
0
0
0
0
0
0
0
0
0
0
0
0
0
0
0
0
0
0
0
0
0
0
0
0
0
0
0
0
0
0
0
0
0
0
0
0
0
0
0
0
0
0
0
0
0
0
0
0
0
0
0
0
0
0
0
0
0
0
0
0
0
0
0
0
0
0
0
0
0
0
0
0
0
0
0
0
0
0
0
0
0
0
0
0
0
0
0
0
0
