0.455336
0.452761
0.41198
0.342165
0.263004
0.197734
0.164809
0.163677
0.183857
0.219889
0.264266
0.308341
0.344634
0.368728
0.380026
0.381548
0.37878
0.377797
0.384458
0.401358
0.420843
0.430051
0.417467
0.379631
0.324448
0.26927
0.234711
0.237347
0.276039
0.339404
0.423129
0.522497
0.631616
0.744651
0.853863
0.951268
1.02991
1.0847
1.11311
1.11553
1.09493
1.05598
1.00406
0.94441
0.881988
0.820233
0.761748
0.708715
0.663015
0.626233
0.597901
0.575058
0.553426
0.528425
0.496336
0.455213
0.405288
0.348802
0.289381
0.231088
0.176995
0.129156
0.0888497
0.0562216
0.0303528
0.00977316
0
-0.0497001
0.276291
1.38448
3.38264
5.86287
7.98231
8.83414
7.9117
5.38592
2.0286
-1.16256
-3.40598
-4.39613
-4.28008
-3.44086
-2.27175
-1.07115
-0.0497649
0.63966
0.870086
0.882119
0.906645
0.944255
1.00072
1.07912
1.17867
1.29552
1.42732
1.56897
1.71019
1.83879
1.94403
2.01861
2.06024
2.0726
2.06496
2.0506
2.0441
2.05783
2.09688
2.16056
2.24571
2.34902
2.46795
2.60084
2.74691
2.90635
3.07997
3.2685
3.4717
3.68769
3.91262
4.14092
4.3646
4.57513
4.76465
4.9268
5.05675
5.14823
5.20006
5.21247
5.18676
5.12543
5.03234
4.91259
4.77202
4.61622
4.44957
4.27545
4.09498
3.90766
3.71269
3.50963
3.29897
3.08233
2.86228
2.64189
2.42418
2.21173
2.00651
1.81023
1.62487
1.45406
1.30261
1.17554
1.07759
1.0258
1.02586
1.06105
1.10734
1.1419
1.15121
1.135
1.10486
1.07857
1.07319
1.09377
1.13511
1.19723
1.27776
1.36547
1.44587
1.50601
1.53781
1.54017
1.5192
1.48642
1.45546
1.43864
1.44136
1.46226
1.49858
1.54812
1.60868
1.67614
1.74181
1.7951
1.82629
1.82873
1.80076
1.74632
1.67394
1.59441
1.51807
1.45151
1.39609
1.35295
1.32333
1.30769
1.30601
1.31771
1.34155
1.37549
1.41666
1.46156
1.50631
1.547
1.57996
1.60246
1.6129
1.61113
1.59852
1.57813
1.55449
1.53339
1.52123
1.52433
1.54746
1.59417
1.66562
1.76035
1.87763
2.01041
2.14594
2.27092
2.37366
2.4458
2.48291
2.48432
2.45232
2.39118
2.30632
2.20482
2.09309
1.97668
1.86056
1.74913
1.64615
1.55526
1.4803
1.42519
1.39688
1.41075
1.48464
1.60448
1.73324
1.82925
1.85902
1.80596
1.67116
1.4675
1.21159
0.918362
0.605622
0.218425
0
0.469766
2.01012
4.58712
7.57635
9.93369
10.6751
9.39678
6.50339
2.9914
-0.069241
-2.01754
-2.76966
-2.63303
-2.04632
-1.27721
-0.464222
0.305423
0.870114
1.19102
1.46029
1.70962
1.93979
2.14549
2.32217
2.46794
2.58211
2.6662
2.72444
2.76361
2.79199
2.81775
2.84755
2.88513
2.93128
2.98655
3.05183
3.12827
3.21732
3.32031
3.43779
3.56887
3.71073
3.85947
4.00995
4.15716
4.29751
4.42973
4.55502
4.67661
4.79859
4.92468
5.05706
5.19542
5.33746
5.47943
5.61659
5.74349
5.85378
5.94113
6.00062
6.02769
6.0181
5.96801
5.87435
5.73542
5.55155
5.32575
5.06511
4.78021
4.48186
4.18081
3.88741
3.61069
3.35727
3.13097
2.93299
2.75986
2.60462
2.45926
2.31662
2.17213
2.02499
1.8784
1.73891
1.61491
1.5152
1.45792
1.4657
1.5361
1.63722
1.7313
1.78685
1.78712
1.73279
1.63955
1.53228
1.43772
1.37392
1.34196
1.33593
1.34976
1.37936
1.42041
1.46798
1.51666
1.55838
1.58514
1.59039
1.5708
1.5281
1.46998
1.40916
1.36033
1.33616
1.34324
1.37384
1.4235
1.48501
1.54931
1.60284
1.63302
1.63047
1.59102
1.51746
1.42057
1.31785
1.22992
1.17495
1.16827
1.21838
1.30109
1.3817
1.42964
1.43038
1.38963
1.32851
1.2731
1.24326
1.23864
1.24936
1.26997
1.29273
1.31055
1.31899
1.31752
1.30963
1.30187
1.30193
1.31644
1.34793
1.39424
1.45167
1.51581
1.58116
1.64188
1.69229
1.72675
1.73808
1.72178
1.67477
1.59636
1.48925
1.35871
1.21486
1.07433
0.953611
0.865042
0.813957
0.797949
0.808356
0.833097
0.859601
0.878215
0.883536
0.869255
0.830581
0.763845
0.666909
0.539787
0.385231
0.208986
0
-0.262482
-0.0329976
0.953308
2.79257
5.24166
7.65791
9.16684
9.04682
7.13027
3.95555
0.533753
-2.14255
-3.54373
-3.74174
-3.20679
-2.45198
-1.76713
-1.17579
-0.567394
0.100986
0.541341
0.807965
0.999109
1.11832
1.17946
1.20897
1.23769
1.29105
1.37889
1.48914
1.61325
1.74091
1.86214
1.97004
2.06231
2.14113
2.21181
2.28057
2.35263
2.43056
2.51446
2.60417
2.69969
2.80137
2.90997
3.02652
3.1519
3.28647
3.42977
3.58076
3.73813
3.9007
4.06789
4.24041
4.42202
4.62471
4.86695
5.12894
5.36121
5.50513
5.5205
5.40659
5.20499
4.98101
4.78991
4.64526
4.5081
4.36114
4.19921
4.01746
3.81492
3.59447
3.36177
3.1238
2.88725
2.65714
2.43717
2.22979
2.03648
1.85822
1.69578
1.54979
1.4208
1.30905
1.21445
1.13644
1.07403
1.02585
0.990292
0.965473
0.949155
0.939078
0.933367
0.930771
0.930759
0.933363
0.938799
0.947101
0.957539
0.967705
0.974122
0.973394
0.963562
0.945262
0.922189
0.900651
0.888308
0.892435
0.916201
0.963423
1.04065
1.14293
1.24842
1.33311
1.37842
1.3774
1.33682
1.27416
1.21085
1.16519
1.14509
1.14548
1.16246
1.19593
1.24856
1.32499
1.42071
1.51934
1.60051
1.64563
1.64409
1.5964
1.51309
1.41043
1.30553
1.2116
1.13367
1.07328
1.03334
1.01643
1.0234
1.05532
1.11099
1.18196
1.25737
1.32616
1.37914
1.41055
1.41891
1.40685
1.38045
1.34802
1.31856
1.29966
1.29699
1.31333
1.34831
1.39986
1.46544
1.54178
1.62506
1.71142
1.79729
1.87938
1.95481
2.02109
2.07594
2.11709
2.14193
2.1474
2.13148
2.09301
2.03226
1.95145
1.85495
1.7491
1.64153
1.54015
1.45177
1.38019
1.32808
1.29613
1.28341
1.28756
1.30405
1.32566
1.34348
1.34818
1.33084
1.28375
1.20129
1.0807
0.922711
0.731723
0.515765
0.273209
-0.104647
0
0.993508
3.07847
5.99247
8.96083
10.9429
11.1001
9.22874
5.88987
2.1439
-0.948936
-2.76552
-3.2662
-2.82808
-1.96581
-1.04691
-0.252195
0.371639
0.762179
1.04507
1.29917
1.53244
1.74239
1.92811
2.09028
2.231
2.35337
2.46089
2.55696
2.64442
2.7253
2.8008
2.87158
2.93802
3.00074
3.06087
3.1203
3.18166
3.24813
3.32305
3.40942
3.50941
3.62391
3.75227
3.89239
4.04089
4.19368
4.34652
4.49563
4.63806
4.77198
4.8966
5.01202
5.11918
5.21967
5.31554
5.40909
5.50256
5.59833
5.69789
5.79647
5.88105
5.93362
5.93605
5.87517
5.74589
5.55177
5.30347
5.01633
4.71031
4.4014
4.09825
3.80573
3.52761
3.26638
3.02317
2.79813
2.59099
2.40159
2.23021
2.0778
1.94526
1.83321
1.74287
1.67337
1.62169
1.58383
1.55549
1.53272
1.51232
1.49184
1.46946
1.44368
1.41348
1.3782
1.33796
1.29417
1.2496
1.20892
1.17767
1.16108
1.16289
1.18444
1.22426
1.27845
1.3415
1.40735
1.47058
1.52749
1.57498
1.61112
1.63529
1.64784
1.64998
1.64353
1.6307
1.61374
1.5946
1.57469
1.55472
1.53495
1.51545
1.49654
1.47909
1.46458
1.45485
1.45161
1.45627
1.46909
1.48756
1.50638
1.51869
1.51737
1.49638
1.45226
1.3851
1.29921
1.20286
1.10766
1.02778
0.975811
0.95954
0.980138
1.03663
1.11119
1.18237
1.2318
1.24946
1.23554
1.1988
1.1524
1.10957
1.07902
1.06283
1.06218
1.0797
1.11765
1.17843
1.27301
1.42578
1.65774
1.93978
2.20922
2.41187
2.51576
2.5113
2.4029
2.20209
1.92913
1.62118
1.33404
1.11073
0.95726
0.85592
0.791877
0.761859
0.759757
0.777677
0.8072
0.840399
0.871091
0.894973
0.908538
0.90776
0.888504
0.847405
0.781526
0.689205
0.571035
0.430595
0.237416
0
0.302901
1.3905
3.28039
5.64924
7.83227
9.00808
8.54395
6.34167
2.96867
-0.547124
-3.17501
-4.33452
-4.08641
-2.97777
-1.67619
-0.642065
-0.0063962
0.330141
0.505204
0.662391
0.81248
0.954525
1.08739
1.21041
1.32322
1.42519
1.5149
1.59097
1.65293
1.70093
1.73634
1.7622
1.78325
1.80549
1.83537
1.87877
1.93948
2.01829
2.11506
2.22897
2.35789
2.49836
2.64657
2.79657
2.93968
3.06841
3.17897
3.27317
3.35902
3.44946
3.55933
3.70144
3.88301
4.11549
4.39988
4.70693
4.98616
5.19788
5.32039
5.34529
5.27333
5.11495
4.89296
4.64168
4.39844
4.18608
3.99731
3.81669
3.63473
3.44488
3.24158
3.02158
2.78465
2.53382
2.275
2.01612
1.76578
1.53214
1.32204
1.13981
0.987058
0.862766
0.763586
0.684397
0.619817
0.563211
0.507285
0.446247
0.376866
0.299249
0.216365
0.136229
0.0686679
0.0225484
0.00313127
0.0109255
0.0419011
0.0865906
0.134833
0.17899
0.215908
0.246951
0.276277
0.308238
0.345147
0.385948
0.428356
0.469773
0.508819
0.54624
0.584752
0.628222
0.68157
0.744741
0.807913
0.855674
0.872364
0.847799
0.781221
0.682164
0.568054
0.459402
0.374031
0.318115
0.288008
0.278518
0.287804
0.313239
0.351385
0.399112
0.45169
0.502647
0.545811
0.576467
0.592457
0.594798
0.587525
0.576778
0.569417
0.570863
0.583352
0.607724
0.644284
0.691979
0.746071
0.7999
0.846793
0.881451
0.901005
0.905526
0.897933
0.883464
0.868921
0.861328
0.866396
0.888967
0.940931
1.0533
1.23287
1.43322
1.59216
1.65811
1.61388
1.48306
1.31471
1.15759
1.0417
0.96033
0.898321
0.850461
0.817831
0.801221
0.793613
0.785278
0.766616
0.731361
0.678905
0.614315
0.54575
0.480496
0.4216
0.365775
0.309228
0.247667
0.177942
0.0991791
0
-0.0878955
0.226064
1.25618
3.15778
5.66094
7.99725
9.16952
8.46895
5.91852
2.33029
-1.08787
-3.33508
-4.05511
-3.56923
-2.54935
-1.59074
-0.958783
-0.602844
-0.332246
-0.0166635
0.27116
0.535748
0.775171
0.98427
1.15842
1.2961
1.3992
1.47286
1.52472
1.5639
1.59969
1.6403
1.69123
1.75534
1.83339
1.92431
2.02557
2.13382
2.24556
2.35777
2.46838
2.57656
2.68274
2.78852
2.8964
3.00933
3.13027
3.26165
3.40487
3.55997
3.72551
3.89863
4.07546
4.25155
4.42193
4.58024
4.71883
4.83225
4.91616
4.96726
4.98342
4.96368
4.90772
4.81522
4.68537
4.51734
4.31604
4.08851
3.84124
3.58143
3.31797
3.06047
2.8202
2.60749
2.42186
2.25614
2.09997
1.94413
1.78403
1.62082
1.46007
1.3089
1.17168
1.04845
0.940108
0.846671
0.768247
0.705239
0.658647
0.629718
0.619329
0.627388
0.652446
0.691618
0.740772
0.795192
0.849135
0.896805
0.933391
0.955819
0.963399
0.958187
0.944917
0.930417
0.922564
0.928694
0.953308
0.998453
1.06864
1.16418
1.27546
1.38484
1.47451
1.5307
1.54681
1.52453
1.47286
1.40535
1.33644
1.27807
1.23508
1.20646
1.18997
1.18376
1.18618
1.19446
1.20454
1.21245
1.21499
1.21042
1.19886
1.18228
1.16396
1.1476
1.13629
1.13125
1.13303
1.14061
1.15229
1.16674
1.18389
1.20538
1.23449
1.27587
1.34175
1.44914
1.5858
1.71746
1.80462
1.82062
1.76551
1.66785
1.57291
1.52277
1.53914
1.59631
1.67091
1.75372
1.83596
1.90722
1.95936
1.98696
1.98745
1.96111
1.91061
1.84017
1.75436
1.65722
1.55271
1.44495
1.33727
1.23336
1.13774
1.05536
0.991127
0.950078
0.938422
0.966707
1.04459
1.14872
1.23753
1.26797
1.20905
1.05406
0.824056
0.250958
0
0.592375
2.23005
4.74435
7.55343
9.79038
10.603
9.53313
6.78583
3.20125
-0.10824
-2.27126
-3.01951
-2.68624
-1.91004
-1.1887
-0.703401
-0.353534
0.0699777
0.498192
0.886951
1.23786
1.55029
1.81902
2.04015
2.21392
2.34465
2.44001
2.5099
2.56507
2.61573
2.67014
2.73344
2.80801
2.89392
2.9893
3.09075
3.19427
3.2962
3.3941
3.4873
3.57722
3.66703
3.761
3.86356
3.97821
4.10666
4.24833
4.40041
4.55856
4.71755
4.87287
5.02194
5.16467
5.30345
5.44238
5.58808
5.75115
5.93097
6.10682
6.25019
6.33662
6.35407
6.30397
6.19573
6.03964
5.84318
5.61733
5.37395
5.12006
4.85985
4.59653
4.33285
4.0711
3.81376
3.56364
3.32393
3.09797
2.88889
2.69924
2.5305
2.38288
2.25533
2.14567
2.05125
1.96882
1.89509
1.82762
1.76576
1.71115
1.66707
1.63828
1.62945
1.64351
1.68016
1.73544
1.80224
1.87176
1.93542
1.98743
2.0245
2.04654
2.0561
2.05739
2.05502
2.05294
2.05353
2.05752
2.06472
2.07418
2.08444
2.09358
2.09963
2.10109
2.09724
2.08838
2.0758
2.06154
2.04784
2.03663
2.02884
2.02441
2.02248
2.02153
2.0195
2.01432
2.00463
1.99028
1.97263
1.95438
1.93901
1.92977
1.92898
1.93723
1.95185
1.96823
1.98129
1.98693
1.98313
1.97022
1.95058
1.92782
1.90579
1.88739
1.87464
1.86878
1.87023
1.87854
1.89157
1.9049
1.91385
1.91527
1.90915
1.89966
1.89492
1.90559
1.94371
2.04664
2.23644
2.46983
2.68512
2.8292
2.87587
2.82832
2.70889
2.54561
2.36437
2.18841
2.03115
1.89749
1.78941
1.70698
1.65431
1.63173
1.62968
1.63416
1.63075
1.60766
1.55777
1.47899
1.37318
1.2441
1.09552
0.932055
0.757405
0.573656
0.381156
0.149971
0
0.386222
1.61525
3.78864
6.61908
9.3712
11.0519
10.844
8.56877
4.87262
0.961125
-1.98868
-3.37296
-3.32934
-2.4706
-1.43331
-0.552757
0.146666
0.737488
1.03746
1.26835
1.47172
1.64941
1.80209
1.93285
2.0464
2.1479
2.2419
2.33167
2.41865
2.50272
2.58284
2.65776
2.72683
2.79049
2.85032
2.90874
2.9684
3.03158
3.09982
3.17367
3.25333
3.33914
3.43196
3.53339
3.64575
3.77171
3.9137
4.07308
4.24936
4.43989
4.64106
4.84406
5.03612
5.20547
5.3442
5.45017
5.52702
5.5823
5.6243
5.65662
5.67815
5.67933
5.64556
5.56293
5.42341
5.22782
4.98559
4.71194
4.4239
4.13641
3.85613
3.58716
3.33226
3.09268
2.86847
2.65902
2.46357
2.28148
2.11251
1.95668
1.81409
1.68465
1.56784
1.46268
1.36779
1.28171
1.20318
1.1314
1.06627
1.00839
0.958926
0.919441
0.891519
0.876477
0.875405
0.889094
0.916878
0.954683
0.994636
1.02776
1.04639
1.04628
1.02801
0.997186
0.963374
0.937826
0.930787
0.947268
0.985804
1.04355
1.11801
1.20481
1.29604
1.37876
1.43987
1.46869
1.45934
1.41302
1.33882
1.25185
1.16881
1.10254
1.0557
1.02158
0.995705
0.973388
0.951099
0.927595
0.904091
0.883489
0.869038
0.862679
0.863797
0.870845
0.881204
0.891571
0.898664
0.899842
0.893527
0.879365
0.858192
0.831875
0.803125
0.775143
0.751361
0.735208
0.729729
0.737149
0.758437
0.792988
0.838817
0.892805
0.949531
1.00337
1.04979
1.08632
1.11314
1.13288
1.14993
1.16925
1.19517
1.22968
1.27359
1.32573
1.38209
1.43495
1.47326
1.48588
1.46353
1.40131
1.30082
1.17104
1.02738
0.888377
0.771099
0.684055
0.623897
0.588432
0.571404
0.564771
0.560804
0.553676
0.540142
0.519278
0.491582
0.457913
0.419054
0.375297
0.326452
0.272423
0.199798
0
0.28026
1.44747
3.61526
6.37902
8.84924
9.99822
9.17162
6.45982
2.68614
-0.99259
-3.62313
-4.80772
-4.70923
-3.79018
-2.51486
-1.19705
-0.0101645
0.935539
1.49472
1.49688
1.48099
1.45987
1.44191
1.43696
1.45361
1.49549
1.55775
1.63483
1.7225
1.81669
1.91364
2.01043
2.10504
2.19624
2.28334
2.36605
2.44454
2.51943
2.59202
2.6645
2.73979
2.82125
2.9122
3.0153
3.13215
3.26303
3.40694
3.56185
3.72505
3.89352
4.06409
4.23358
4.39857
4.5551
4.69952
4.82845
4.93906
5.02926
5.09759
5.14224
5.1601
5.14926
5.10741
5.03241
4.92304
4.77971
4.60474
4.40224
4.17757
3.93783
3.68981
3.43855
3.18879
2.94489
2.71065
2.48923
2.28302
2.09363
1.92203
1.76868
1.63365
1.51668
1.41708
1.33372
1.26492
1.20786
1.15835
1.11211
1.06567
1.0173
0.967525
0.919294
0.877598
0.84804
0.835258
0.84158
0.866288
0.905686
0.953915
1.00423
1.05044
1.088
1.11474
1.13103
1.13943
1.14393
1.14892
1.15814
1.17384
1.19615
1.22318
1.25209
1.27941
1.30146
1.31487
1.31697
1.30619
1.28218
1.24602
1.20019
1.14844
1.0953
1.04539
1.00257
0.969532
0.948136
0.936692
0.931203
0.927457
0.922648
0.916348
0.910442
0.90805
0.911909
0.922981
0.939646
0.959051
0.978042
0.994641
1.00907
1.02394
1.04347
1.07206
1.11232
1.16343
1.22429
1.2908
1.35552
1.4107
1.45005
1.47005
1.47041
1.45354
1.42337
1.38399
1.33888
1.29048
1.23989
1.18754
1.13381
1.07929
1.02491
0.971869
0.921405
0.874621
0.832458
0.794982
0.761023
0.728961
0.697353
0.665441
0.633253
0.601206
0.569372
0.5366
0.500016
0.455543
0.399046
0.327606
0.240346
0.0361631
0
0.540009
1.85106
3.89706
6.28585
8.28586
9.07748
8.16756
5.709
2.4769
-0.52039
-2.54229
-3.39163
-3.32306
-2.7441
-1.94786
-1.08473
-0.259082
0.384211
0.655231
0.806884
0.938132
1.05985
1.1725
1.27617
1.37099
1.45717
1.53515
1.6057
1.66993
1.72942
1.78617
1.84246
1.90078
1.96356
2.0329
2.11031
2.1964
2.29076
2.39205
2.49841
2.60774
2.71814
2.82826
2.93759
3.04668
3.15711
3.2714
3.39265
3.52411
3.66854
3.82754
4.00174
4.19274
4.39577
4.59218
4.75959
4.87903
4.94068
4.94639
4.90772
4.84003
4.75528
4.65686
4.54331
4.41277
4.25968
4.08001
3.87258
3.63936
3.38509
3.11638
2.84137
2.56684
2.29884
2.04264
1.80249
1.58145
1.38123
1.20215
1.04315
0.902107
0.776167
0.66234
0.558081
0.461827
0.373374
0.294104
0.226788
0.174883
0.141888
0.13248
0.154291
0.213419
0.30163
0.396182
0.472467
0.510674
0.500757
0.444339
0.353323
0.246054
0.142521
0.058499
-0.00133104
-0.0380246
-0.0530467
-0.0473111
-0.0215261
0.0229499
0.0849257
0.162342
0.250565
0.341113
0.422189
0.481718
0.509527
0.49954
0.451621
0.372378
0.274407
0.173807
0.0864914
0.0231868
-0.0155733
-0.0340654
-0.0346951
-0.0214917
0.000868511
0.0277156
0.0552803
0.0807203
0.101827
0.116883
0.124538
0.123692
0.11372
0.0945737
0.0670045
0.0327463
-0.00548515
-0.043824
-0.0776681
-0.102142
-0.112644
-0.105388
-0.077855
-0.0290895
0.040186
0.127641
0.229426
0.340816
0.456579
0.570939
0.677243
0.768773
0.840687
0.889981
0.915892
0.920024
0.906035
0.878786
0.843141
0.802775
0.759546
0.713856
0.665375
0.614047
0.560945
0.508483
0.459945
0.418595
0.387198
0.365219
0.349274
0.333826
0.31254
0.279846
0.232258
0.169167
0.0929695
0
-0.263605
-0.103886
0.919738
2.96553
5.67049
8.1801
9.48185
8.89414
6.43941
2.8707
-0.677496
-3.21278
-4.28385
-4.05449
-3.07244
-1.92447
-0.987021
-0.358846
0.0522038
0.336456
0.558319
0.760143
0.944443
1.11003
1.25771
1.38988
1.50982
1.62071
1.72486
1.82331
1.91551
2.00029
2.0764
2.14333
2.20194
2.2546
2.30497
2.35736
2.41608
2.48475
2.5655
2.65949
2.76759
2.89047
3.02884
3.18371
3.35635
3.54797
3.75925
3.99217
4.25687
4.54705
4.82617
5.05217
5.19361
5.24325
5.22161
5.16829
5.12502
5.11927
5.14651
5.18997
5.23879
5.27896
5.29647
5.27903
5.21702
5.10399
4.93715
4.71769
4.45105
4.14689
3.82041
3.48736
3.15972
2.84688
2.55753
2.29866
2.07513
1.88942
1.74167
1.62995
1.55075
1.49904
1.46885
1.4538
1.44745
1.44317
1.43448
1.41605
1.38443
1.33858
1.27826
1.20791
1.13698
1.07614
1.03484
1.01908
1.03022
1.06497
1.11655
1.17644
1.23629
1.29058
1.33656
1.37286
1.3993
1.41672
1.42647
1.42989
1.42793
1.42106
1.40917
1.39178
1.36841
1.33888
1.30346
1.26302
1.21897
1.17317
1.12777
1.085
1.04712
1.01623
0.994047
0.981842
0.980263
0.989136
1.00741
1.03327
1.0643
1.09639
1.12367
1.14041
1.14234
1.12778
1.09831
1.05855
1.01507
0.974777
0.943411
0.922846
0.913095
0.91445
0.926392
0.947652
0.976659
1.01199
1.05124
1.09216
1.13345
1.17551
1.22076
1.27404
1.3516
1.48866
1.67283
1.85437
1.96828
1.96755
1.84784
1.64798
1.42668
1.23286
1.0907
0.980954
0.890583
0.816989
0.762492
0.733515
0.736858
0.764416
0.799392
0.823466
0.823361
0.795478
0.745848
0.685145
0.621413
0.554716
0.479567
0.389725
0.280311
0.151384
0
-0.48099
-0.406435
0.618353
2.71964
5.57318
8.37652
10.0885
9.88658
7.61095
3.90807
-0.0492267
-3.10556
-4.60533
-4.55458
-3.44622
-1.93056
-0.535384
0.455702
0.977492
1.05206
1.1185
1.18249
1.2444
1.30461
1.36341
1.42093
1.47717
1.53221
1.58646
1.64096
1.69753
1.75873
1.82756
1.90701
1.99934
2.10557
2.22498
2.35512
2.49225
2.63181
2.76945
2.90196
3.02786
3.1476
3.26321
3.37774
3.49446
3.6162
3.74485
3.88136
4.02587
4.1778
4.33606
4.49903
4.66456
4.82989
4.99167
5.14616
5.28943
5.418
5.52909
5.62078
5.69189
5.74158
5.76782
5.76651
5.73486
5.66968
5.56824
5.42937
5.25439
5.04743
4.81505
4.56535
4.30682
4.04763
3.79413
3.55209
3.32698
3.12439
2.9489
2.804
2.69239
2.62068
2.59183
2.59259
2.60547
2.61333
2.60329
2.56928
2.51243
2.43975
2.36186
2.29042
2.23278
2.19173
2.16937
2.17182
2.20055
2.24398
2.28732
2.3172
2.32587
2.31332
2.28619
2.25409
2.22515
2.20239
2.18324
2.16454
2.14275
2.11535
2.08169
2.04303
2.00202
1.96197
1.92578
1.89531
1.87214
1.85721
1.851
1.85303
1.86084
1.87102
1.87976
1.88361
1.88014
1.8683
1.84853
1.82239
1.7921
1.75993
1.72748
1.69557
1.66425
1.63299
1.60091
1.56707
1.5307
1.49129
1.44861
1.40279
1.35446
1.30492
1.25639
1.21289
1.17964
1.16251
1.16696
1.19692
1.25383
1.33611
1.43915
1.55577
1.67725
1.79294
1.89241
1.96728
2.01244
2.02662
2.01223
1.97428
1.91903
1.85237
1.77936
1.70303
1.62456
1.54423
1.46198
1.3779
1.29266
1.20778
1.12582
1.05028
0.985233
0.93538
0.908056
0.913872
0.954846
1.01211
1.05902
1.06832
1.01937
0.903172
0.723624
0.495773
0.242201
0
0.145966
0.97628
2.68247
5.11417
7.67194
9.45067
9.62705
7.89948
4.70765
1.0667
-1.91281
-3.53612
-3.76586
-3.08328
-2.11051
-1.26741
-0.663084
-0.216118
0.125485
0.364025
0.578974
0.78059
0.97048
1.14785
1.3118
1.46196
1.5984
1.72151
1.83146
1.92805
2.01117
2.08112
2.13841
2.18419
2.22074
2.25174
2.28223
2.3182
2.36584
2.43055
2.51567
2.6225
2.75081
2.89905
3.06436
3.24282
3.42978
3.62026
3.80929
3.99221
4.16488
4.32484
4.4715
4.60636
4.73292
4.85566
4.98136
5.12211
5.2718
5.40371
5.48154
5.47663
5.38161
5.21234
4.99771
4.76479
4.52915
4.29441
4.06046
3.82723
3.59477
3.36314
3.13226
2.90176
2.67115
2.44025
2.2098
1.98203
1.76091
1.55193
1.36129
1.19561
1.06335
0.974173
0.92763
0.910123
0.905205
0.898734
0.882827
0.857074
0.826666
0.798389
0.776405
0.759168
0.74218
0.720258
0.689406
0.648963
0.602771
0.558932
0.528249
0.5218
0.548158
0.634971
0.798951
1.00475
1.20163
1.34389
1.40447
1.38037
1.29049
1.16837
1.05221
0.974063
0.938389
0.93354
0.948537
0.976267
1.01223
1.05249
1.09352
1.13219
1.16546
1.19095
1.20677
1.21179
1.20586
1.19001
1.16632
1.13763
1.10701
1.07738
1.05091
1.02937
1.01421
1.00639
1.00634
1.01407
1.02861
1.04806
1.07011
1.09262
1.11431
1.13526
1.15714
1.18311
1.21731
1.26387
1.32606
1.40656
1.50969
1.63807
1.78661
1.93835
2.07111
2.16455
2.2042
2.18423
2.1086
1.99036
1.84887
1.70521
1.57604
1.46667
1.37476
1.29697
1.23178
1.17806
1.13457
1.09994
1.07255
1.05011
1.0284
1.00119
0.961216
0.901391
0.816135
0.702572
0.561179
0.39577
0.212886
0.00942907
0
0.332089
1.22273
2.85494
5.13205
7.50962
9.10277
9.09066
7.19634
3.91699
0.320773
-2.47767
-3.83405
-3.78011
-2.84598
-1.67378
-0.694596
-0.0284097
0.409566
0.667928
0.844795
0.999081
1.13324
1.24586
1.33828
1.41451
1.48065
1.54383
1.61092
1.68728
1.77547
1.87501
1.98325
2.09621
2.20888
2.31604
2.41336
2.49831
2.57052
2.63189
2.68624
2.7388
2.79538
2.86164
2.94226
3.04012
3.15594
3.28883
3.43643
3.59493
3.75954
3.925
4.08625
4.23913
4.38093
4.51054
4.62829
4.73464
4.82966
4.9127
4.98198
5.03373
5.0625
5.06223
5.02736
4.95346
4.83757
4.67835
4.47635
4.23711
3.96937
3.68222
3.38469
3.0861
2.79587
2.52303
2.27532
2.05843
1.87725
1.73673
1.63565
1.56293
1.50546
1.45111
1.39136
1.32266
1.24626
1.16666
1.08929
1.01822
0.954435
0.898481
0.850579
0.810986
0.780411
0.760029
0.75111
0.754447
0.769501
0.794938
0.828516
0.867555
0.909695
0.953535
0.998957
1.04701
1.09954
1.1593
1.22794
1.30154
1.36938
1.41724
1.43094
1.40034
1.3226
1.20409
1.06037
0.914178
0.791107
0.710619
0.686504
0.721486
0.806218
0.921595
1.04394
1.15144
1.23077
1.27707
1.2935
1.28771
1.26737
1.23698
1.19903
1.15319
1.09927
1.03905
0.976972
0.919782
0.875263
0.849774
0.847314
0.869559
0.914917
0.978843
1.0547
1.13494
1.21252
1.28219
1.34017
1.38438
1.41401
1.42898
1.42888
1.4136
1.38288
1.3368
1.27635
1.20402
1.12394
1.04167
0.963482
0.895194
0.841338
0.80511
0.787778
0.788617
0.805105
0.833766
0.869832
0.90726
0.940042
0.962701
0.970605
0.960099
0.928519
0.874178
0.796452
0.696639
0.577822
0.36039
0
0.300781
1.66522
4.02439
6.72678
8.75951
9.21545
7.75115
4.77093
1.23413
-1.79454
-3.60083
-4.0497
-3.50894
-2.56492
-1.70936
-1.15249
-0.822505
-0.481549
-0.00771694
0.409513
0.773859
1.0582
1.2471
1.34165
1.35983
1.33231
1.29534
1.28249
1.31032
1.37478
1.4681
1.58264
1.71048
1.8435
1.97357
2.09376
2.19879
2.28635
2.35737
2.41546
2.46635
2.51704
2.57481
2.64624
2.73624
2.84736
2.97875
3.12721
3.28841
3.45725
3.62866
3.79829
3.96302
4.12071
4.26877
4.40313
4.51903
4.61104
4.67212
4.696
4.67967
4.62455
4.53587
4.42048
4.28435
4.13275
3.96921
3.79468
3.60838
3.40896
3.19533
2.96724
2.72563
2.47299
2.21338
1.95235
1.6965
1.45345
1.23182
1.03891
0.879356
0.755317
0.666276
0.6093
0.579574
0.571148
0.577729
0.593348
0.612638
0.631409
0.646441
0.654775
0.653738
0.641259
0.616025
0.577915
0.528037
0.46902
0.407313
0.352446
0.314604
0.302574
0.321791
0.372943
0.45148
0.551097
0.657254
0.753582
0.826366
0.867547
0.876192
0.858023
0.823158
0.782774
0.745751
0.715476
0.690685
0.669057
0.647561
0.623707
0.596713
0.568131
0.541707
0.522486
0.515798
0.531616
0.574979
0.63075
0.676094
0.689752
0.661391
0.596414
0.513675
0.437081
0.385376
0.36201
0.354982
0.357213
0.364317
0.372979
0.381782
0.391388
0.404114
0.423102
0.450938
0.489064
0.537869
0.597011
0.664833
0.738629
0.815772
0.894306
0.973149
1.05178
1.12911
1.20059
1.25609
1.28094
1.26095
1.18891
1.06933
0.918792
0.761268
0.620624
0.510215
0.424995
0.360598
0.314521
0.282867
0.261285
0.245762
0.233048
0.220899
0.208036
0.193932
0.178493
0.16171
0.143216
0.122419
0.098451
0.0704834
0.0380604
0
-0.352758
-0.372331
0.410955
2.19994
4.74564
7.31113
8.90426
8.7219
6.58749
3.10762
-0.58522
-3.37428
-4.66105
-4.53397
-3.55264
-2.34704
-1.31268
-0.556771
-0.0358628
0.160959
0.225963
0.280672
0.333515
0.388463
0.448634
0.516016
0.591336
0.674416
0.765216
0.864054
0.97176
1.08973
1.22109
1.37337
1.56002
1.78242
2.0055
2.18308
2.27333
2.25576
2.14323
1.98291
1.84382
1.79452
1.86895
2.02083
2.21138
2.42336
2.64662
2.87188
3.0909
3.29724
3.48648
3.65611
3.804
3.92856
4.03017
4.10906
4.16517
4.19807
4.20716
4.19181
4.15155
4.08626
3.99645
3.8846
3.75281
3.60342
3.43902
3.26223
3.07547
2.88091
2.68016
2.47489
2.26716
2.05955
1.85517
1.65731
1.4691
1.29303
1.1307
0.982848
0.849527
0.730467
0.62538
0.534126
0.456661
0.392797
0.34195
0.302941
0.273729
0.25121
0.231825
0.212249
0.190064
0.164317
0.135839
0.107236
0.0828158
0.0677175
0.0668816
0.0839684
0.120437
0.176181
0.249003
0.330657
0.409666
0.475028
0.518614
0.536778
0.530742
0.505719
0.469091
0.428272
0.388923
0.353747
0.323332
0.297793
0.277259
0.262019
0.252529
0.249356
0.253393
0.263166
0.276233
0.290039
0.302959
0.314954
0.327369
0.341891
0.359438
0.378162
0.393137
0.398294
0.38915
0.365189
0.330714
0.293713
0.263231
0.246382
0.243913
0.252581
0.269612
0.292277
0.318083
0.345572
0.374835
0.407648
0.447239
0.500407
0.586405
0.74719
0.98938
1.25326
1.46049
1.54788
1.49311
1.31958
1.08123
0.839298
0.643214
0.50169
0.395691
0.313025
0.248941
0.202236
0.172766
0.159877
0.163717
0.181964
0.208621
0.23676
0.259723
0.272314
0.271546
0.256731
0.228976
0.190382
0.14357
0.0911175
0.000349665
0
0.530818
1.93138
4.16294
6.62381
8.32503
8.3847
6.5402
3.32919
-0.187916
-2.97224
-4.46123
-4.6873
-4.07319
-3.11188
-2.14625
-1.32579
-0.674692
-0.173248
0.165753
0.355207
0.508436
0.645348
0.77036
0.88455
0.989214
1.08618
1.17757
1.26551
1.35203
1.43894
1.52786
1.62018
1.71715
1.81982
1.92913
2.04589
2.171
2.30641
2.45781
2.6354
2.83177
3.01444
3.13834
3.16731
3.09938
2.97903
2.88605
2.90395
3.08204
3.35657
3.66761
3.99267
4.29688
4.55069
4.73664
4.85238
4.90885
4.92397
4.91441
4.88891
4.84838
4.78839
4.70149
4.58221
4.42907
4.24488
4.03545
3.80747
3.5688
3.32452
3.07731
2.82956
2.584
2.34404
2.11387
1.89823
1.7019
1.52908
1.38268
1.26393
1.17264
1.10726
1.0633
1.03276
1.00748
0.98054
0.947331
0.906049
0.857437
0.803977
0.748824
0.694885
0.644051
0.59772
0.557236
0.524231
0.500474
0.487876
0.488054
0.501777
0.528487
0.566077
0.610984
0.658688
0.703871
0.741391
0.766904
0.777323
0.771113
0.748446
0.711275
0.663337
0.610078
0.558321
0.516279
0.491806
0.490901
0.516242
0.570855
0.650012
0.737799
0.816192
0.870021
0.89087
0.878642
0.840528
0.788058
0.733502
0.686187
0.649179
0.622448
0.605636
0.598311
0.598633
0.605036
0.617019
0.635667
0.663679
0.704836
0.763014
0.841002
0.942166
1.0668
1.20952
1.35937
1.49903
1.60722
1.66562
1.659
1.5777
1.42228
1.20812
0.966486
0.73902
0.5663
0.462066
0.445782
0.497821
0.580848
0.654291
0.688658
0.674044
0.62048
0.551421
0.493765
0.467877
0.470241
0.503689
0.551509
0.59101
0.602355
0.576325
0.516981
0
-0.216286
0.439279
2.17424
4.69359
7.2188
8.77562
8.64084
6.70788
3.55521
0.167837
-2.51993
-3.98975
-4.23459
-3.59587
-2.5099
-1.32901
-0.264265
0.584523
1.11084
1.17807
1.19818
1.16563
1.0996
1.03948
1.02875
1.09421
1.21659
1.36135
1.51001
1.64556
1.75527
1.83327
1.88105
1.90623
1.92015
1.93511
1.96051
2.00128
2.06058
2.14014
2.23986
2.35776
2.49029
2.63274
2.77976
2.92596
3.06646
3.1975
3.31687
3.42417
3.52086
3.60988
3.69487
3.7871
3.96564
4.37222
4.91272
5.41143
5.66855
5.56345
5.12982
4.54706
4.05413
3.84301
3.82964
3.79487
3.73012
3.61834
3.45148
3.23261
2.97484
2.69775
2.42221
2.1616
1.92023
1.7018
1.5066
1.33224
1.17474
1.02977
0.893666
0.764207
0.640767
0.524122
0.415921
0.318048
0.232047
0.158828
0.0986578
0.0513956
0.0169634
-0.00425415
-0.0114922
-0.00418549
0.0179478
0.0543285
0.103498
0.163069
0.227658
0.291526
0.349965
0.400438
0.443022
0.479919
0.514191
0.548133
0.581823
0.611224
0.62876
0.625867
0.596299
0.538961
0.459164
0.367755
0.278326
0.203458
0.149492
0.114464
0.0968258
0.0928223
0.097599
0.10648
0.115836
0.123685
0.129239
0.132606
0.134399
0.135212
0.135264
0.134131
0.130538
0.122256
0.106244
0.0791536
0.0379129
-0.0231194
-0.115814
-0.234052
-0.343633
-0.400385
-0.365561
-0.221701
0.0425817
0.369018
0.681235
0.915298
1.04024
1.0599
0.998996
0.884976
0.73796
0.57423
0.411459
0.260929
0.131475
0.0306269
-0.0381212
-0.073386
-0.0776743
-0.0567398
-0.0184164
0.0286684
0.0761053
0.117443
0.147342
0.161784
0.158243
0.135822
0.0953278
0.0392302
-0.0285257
-0.109384
-0.216042
0
0.852804
2.57207
5.02217
7.60088
9.38671
9.53918
7.75259
4.47547
0.729959
-2.37568
-4.14123
-4.48956
-3.82996
-2.72682
-1.6084
-0.660626
0.114026
0.677103
0.912769
1.10576
1.26962
1.40349
1.51071
1.59787
1.67299
1.74343
1.81432
1.88745
1.96224
2.03694
2.10935
2.17764
2.24105
2.30012
2.35662
2.41317
2.47272
2.53802
2.61118
2.69356
2.78582
2.8882
3.00084
3.12395
3.25791
3.40297
3.55879
3.72395
3.89548
4.06879
4.23794
4.39632
4.53753
4.65624
4.74878
4.81326
4.84938
4.85758
4.83916
4.79543
4.72734
4.6354
4.51973
4.38017
4.21667
4.02962
3.82049
3.59219
3.34881
3.09586
2.83989
2.58765
2.34576
2.1196
1.91089
1.71859
1.53989
1.3716
1.2115
1.05924
0.916494
0.786471
0.672876
0.579577
0.509283
0.463219
0.440854
0.439845
0.456156
0.48439
0.518385
0.551994
0.580048
0.599214
0.608537
0.60951
0.60563
0.601552
0.602056
0.610804
0.629489
0.658422
0.6968
0.742796
0.794028
0.847715
0.901496
0.953877
1.00439
1.0534
1.10168
1.14983
1.19778
1.24447
1.28804
1.32637
1.35784
1.38179
1.39868
1.40968
1.41591
1.41761
1.41421
1.40408
1.38529
1.35653
1.31793
1.27156
1.22136
1.17271
1.13124
1.10107
1.08519
1.085
1.10239
1.13401
1.17107
1.20347
1.22251
1.22315
1.20511
1.17256
1.13265
1.09337
1.06092
1.0381
1.02599
1.02474
1.03321
1.04899
1.0677
1.0818
1.08232
1.06048
1.00954
0.926572
0.813944
0.67958
0.535885
0.397309
0.27703
0.180312
0.10826
0.0617506
0.0352415
0.0187004
0
-0.0333923
-0.0928553
-0.187441
-0.323011
-0.501654
-0.72143
-0.97656
-1.25813
-1.67184
-1.87149
-1.42436
-0.0755714
2.16915
4.90124
7.33293
8.56222
7.98683
5.6382
2.20653
-1.28355
-3.94457
-5.35519
-5.5818
-4.96139
-3.8811
-2.6482
-1.52123
-0.770304
-0.65244
-0.562667
-0.476898
-0.392678
-0.308621
-0.224972
-0.143591
-0.0673161
0.000668335
0.0576344
0.101818
0.131697
0.147597
0.151317
0.145687
0.134517
0.122482
0.114825
0.116787
0.132872
0.166187
0.217036
0.284153
0.366373
0.462446
0.571125
0.691357
0.822023
0.961522
1.10734
1.25585
1.40241
1.54191
1.66971
1.78255
1.87921
1.96065
2.02966
2.08961
2.14364
2.19364
2.23751
2.26583
2.2631
2.21116
2.09442
1.90483
1.64514
1.32904
0.9779
0.614992
0.258445
-0.0858994
-0.41664
-0.732283
-1.03271
-1.31853
-1.59052
-1.84939
-2.09566
-2.32972
-2.55193
-2.76255
-2.96172
-3.14927
-3.32473
-3.48726
-3.63578
-3.76893
-3.8847
-3.98154
-4.05906
-4.11755
-4.15805
-4.18232
-4.19265
-4.19161
-4.18186
-4.16613
-4.14698
-4.12897
-4.1195
-4.12671
-4.15691
-4.21146
-4.28464
-4.36419
-4.4347
-4.48271
-4.502
-4.50029
-4.48283
-4.45886
-4.4391
-4.43325
-4.44842
-4.48823
-4.5528
-4.6391
-4.7417
-4.85352
-4.96657
-5.07298
-5.16652
-5.24262
-5.2965
-5.32297
-5.30715
-5.22346
-5.06156
-4.8592
-4.67111
-4.54424
-4.50714
-4.56837
-4.72054
-4.94413
-5.20783
-5.46754
-5.6793
-5.82652
-5.91647
-5.96041
-5.96042
-5.9232
-5.85864
-5.77783
-5.69134
-5.60674
-5.528
-5.45743
-5.39615
-5.34443
-5.30226
-5.26991
-5.24804
-5.23713
-5.2377
-5.24995
-5.27342
-5.30692
-5.34882
-5.39763
-5.45259
-5.51413
-5.5837
-5.66386
-5.75747
-5.86712
-5.9944
-6.1394
-6.30023
-6.47214
-6.64866
-6.82248
-6.98515
-7.12727
-7.23032
-7.26018
-7.20199
-7.09829
-7.00728
76
261
444
641
832
1020
1206
1394
1586
1768
1950
2135
2323
2505
2685
2869
3050
3224
3398
3575
2880
3023
3167
3309
3451
3596
3740
0
0
0
0
0
0
0
0
0
0
0
0
0
0
0
0
0
0
0
0
0
0
0
0
0
0
0
0
0
0
0
0
0
0
0
0
0
0
0
0
0
0
0
0
0
0
0
0
0
0
0
0
0
0
0
0
0
0
0
0
0
0
0
0
0
0
0
0
0
0
0
0
0
0
0
0
0
0
0
0
0
0
0
0
0
0
0
0
0
0
0
0
0
0
0
0
0
0
0
0
0
0
0
0
0
0
0
0
0
0
0
0
0
0
0
0
0
0
0
0
0
0
0
0
0
0
0
0
0
0
0
0
0
0
0
0
0
0
0
0
0
0
0
0
0
0
0
0
0
0
0
0
0
0
0
0
0
0
0
0
0
0
0
0
0
0
0
0
0
0
0
0
0
0
0
0
0
0
0
0
0
0
0
0
0
0
0
0
0
0
0
0
0
0
0
0
0
0
0
0
0
0
0
0
0
0
0
0
0
0
0
0
0
0
0
0
0
0
0
0
0
0
0
0
0
0
0
0
0
0
0
0
0
0
0
0
0
0
0
0
0
0
0
0
0
0
0
0
0
0
0
0
0
0
0
0
0
0
0
0
0
0
0
0
0
0
0
0
0
0
0
0
0
0
0
0
0
0
0
0
0
0
0
0
0
0
0
0
0
0
0
0
0
0
0
0
0
0
0
0
0
0
0
0
0
0
0
0
0
0
0
0
0
0
0
0
0
0
0
0
0
0
0
0
0
0
0
0
0
0
0
0
0
0
0
0
0
0
0
0
0
0
0
0
0
0
0
0
0
0
0
0
0
0
0
0
0
0
0
0
0
0
0
0
0
0
0
0
0
0
0
0
0
0
0
0
0
0
0
0
0
0
0
0
0
0
0
0
0
0
0
0
0
0
0
0
0
0
0
0
0
0
0
0
0
0
0
0
0
0
0
0
0
0
0
0
0
0
0
0
0
0
0
0
0
0
0
0
0
0
0
0
0
0
0
0
0
0
0
0
0
0
0
0
0
0
0
0
0
0
0
0
0
0
0
0
0
0
0
0
0
0
0
0
0
0
0
0
0
0
0
0
0
0
0
0
0
0
0
0
0
0
0
0
0
0
0
0
0
0
0
0
0
0
0
0
0
0
0
0
0
0
0
0
0
0
0
0
0
0
0
0
0
0
0
0
0
0
0
0
0
0
0
0
0
0
0
0
0
0
0
0
0
0
0
0
0
0
0
0
0
0
0
0
0
0
0
0
0
0
0
0
0
0
0
0
0
0
0
0
0
0
0
0
0
0
0
0
0
0
0
0
0
0
0
0
0
0
0
0
0
0
0
0
0
0
0
0
0
0
0
0
0
0
0
0
0
0
0
0
0
0
0
0
0
0
0
0
0
0
0
0
0
0
0
0
0
0
0
0
0
0
0
0
0
0
0
0
0
0
0
0
0
0
0
0
0
0
0
0
0
0
0
0
0
0
0
0
0
0
0
0
0
0
0
0
0
0
0
0
0
0
0
0
0
0
0
0
0
0
0
0
0
0
0
0
0
0
0
0
0
0
0
0
0
0
0
0
0
0
0
0
0
0
0
0
0
0
0
0
0
0
0
0
0
0
0
0
0
0
0
0
0
0
0
0
0
0
0
0
0
0
0
0
0
0
0
0
0
0
0
0
0
0
0
0
0
0
0
0
0
0
0
0
0
0
0
0
0
0
0
0
0
0
0
0
0
0
0
0
0
0
0
0
0
0
0
0
0
0
0
0
0
0
0
0
0
0
0
0
0
0
0
0
0
0
0
0
0
0
0
0
0
0
0
0
0
0
0
0
0
0
0
0
0
0
0
0
0
0
0
0
0
0
0
0
0
0
0
0
0
0
0
0
0
0
0
0
0
0
0
0
0
0
0
0
0
0
0
0
0
0
0
0
0
0
0
0
0
0
0
0
0
0
0
0
0
0
0
0
0
0
0
0
0
0
0
0
0
0
0
0
0
0
0
0
0
0
0
0
0
0
0
0
0
0
0
0
0
0
0
0
0
0
0
0
0
0
0
0
0
0
0
0
0
0
0
0
0
0
0
0
0
0
0
0
0
0
0
0
0
0
0
0
0
0
0
0
0
0
0
0
0
0
0
0
0
0
0
0
0
0
0
0
0
0
0
0
0
0
0
0
0
0
0
0
0
0
0
0
0
0
0
0
0
0
0
0
0
0
0
0
0
0
0
0
0
0
0
0
0
0
0
0
0
0
0
0
0
0
0
0
0
0
0
0
0
0
0
0
0
0
0
0
0
0
0
0
0
0
0
0
0
0
0
0
0
0
0
0
0
0
0
0
0
0
0
0
0
0
0
0
0
0
0
0
0
0
0
0
0
0
0
0
0
0
0
0
0
0
0
0
0
0
0
0
0
0
0
0
0
0
0
0
0
0
0
0
0
0
0
0
0
0
0
0
0
0
0
0
0
0
0
0
0
0
0
0
0
0
0
0
0
0
0
0
0
0
0
0
0
0
0
0
0
0
0
0
0
0
0
0
0
0
0
0
0
0
0
0
0
0
0
0
0
0
0
0
0
0
0
0
0
0
0
0
0
0
0
0
0
0
0
0
0
0
0
0
0
0
0
0
0
0
0
0
0
0
0
0
0
0
0
0
0
0
0
0
0
0
0
0
0
0
0
0
0
0
0
0
0
0
0
0
0
0
0
0
0
0
0
0
0
0
0
0
0
0
0
0
0
0
0
0
0
0
0
0
0
0
0
0
0
0
0
0
0
0
0
0
0
0
0
0
0
0
0
0
0
0
0
0
0
0
0
0
0
0
0
0
0
0
0
0
0
0
0
0
0
0
0
0
0
0
0
0
0
0
0
0
0
0
0
0
0
0
0
0
0
0
0
0
0
0
0
0
0
0
0
0
0
0
0
0
0
0
0
0
0
0
0
0
0
0
0
0
0
0
0
0
0
0
0
0
0
0
0
0
0
0
0
0
0
0
0
0
0
0
0
0
0
0
0
0
0
0
0
0
0
0
0
0
0
0
0
0
0
0
0
0
0
0
0
0
0
0
0
0
0
0
0
0
0
0
0
0
0
0
0
0
0
0
0
0
0
0
0
0
0
0
0
0
0
0
0
0
0
0
0
0
0
0
0
0
0
0
0
0
0
0
0
0
0
0
0
0
0
0
0
0
0
0
0
0
0
0
0
0
0
0
0
0
0
0
0
0
0
0
0
0
0
0
0
0
0
0
0
0
0
0
0
0
0
0
0
0
0
0
0
0
0
0
0
0
0
0
0
0
0
0
0
0
0
0
0
0
0
0
0
0
0
0
0
0
0
0
0
0
0
0
0
0
0
0
0
0
0
0
0
0
0
0
0
0
0
0
0
0
0
0
0
0
0
0
0
0
0
0
0
0
0
0
0
0
0
0
0
0
0
0
0
0
0
0
0
0
0
0
0
0
0
0
0
0
0
0
0
0
0
0
0
0
0
0
0
0
0
0
0
0
0
0
0
0
0
0
0
0
0
0
0
0
0
0
0
0
0
0
0
0
0
0
0
0
0
0
0
0
0
0
0
0
0
0
0
0
0
0
0
0
0
0
0
0
0
0
0
0
0
0
0
0
0
0
0
0
0
0
0
0
0
0
0
0
0
0
0
0
0
0
0
0
0
0
0
0
0
0
0
0
0
0
0
0
0
0
0
0
0
0
0
0
0
0
0
0
0
0
0
0
0
0
0
0
0
0
0
0
0
0
0
0
0
0
0
0
0
0
0
0
0
0
0
0
0
0
0
0
0
0
0
0
0
0
0
0
0
0
0
0
0
0
0
0
0
0
0
0
0
0
0
0
0
0
0
0
0
0
0
0
0
0
0
0
0
0
0
0
0
0
0
0
0
0
0
0
0
0
0
0
0
0
0
0
0
0
0
0
0
0
0
0
0
0
0
0
0
0
0
0
0
0
0
0
0
0
0
0
0
0
0
0
0
0
0
0
0
0
0
0
0
0
0
0
0
0
0
0
0
0
0
0
0
0
0
0
0
0
0
0
0
0
0
0
0
0
0
0
0
0
0
0
0
0
0
0
0
0
0
0
0
0
0
0
0
0
0
0
0
0
0
0
0
0
0
0
0
0
0
0
0
0
0
0
0
0
0
0
0
0
0
0
0
0
0
0
0
0
0
0
0
0
0
0
0
0
0
0
0
0
0
0
0
0
0
0
0
0
0
0
0
0
0
0
0
0
0
0
0
0
0
0
0
0
0
0
0
0
0
0
0
0
0
0
0
0
0
0
0
0
0
0
0
0
0
0
0
0
0
0
0
0
0
0
0
0
0
0
0
0
0
0
0
0
0
0
0
0
0
0
0
0
0
0
0
0
0
0
0
0
0
0
0
0
0
0
0
0
0
0
0
0
0
0
0
0
0
0
0
0
0
0
0
0
0
0
0
0
0
0
0
0
0
0
0
0
0
0
0
0
0
0
0
0
0
0
0
0
0
0
0
0
0
0
0
0
0
0
0
0
0
0
0
0
0
0
0
0
0
0
0
0
0
0
0
0
0
0
0
0
0
0
0
0
0
0
0
0
0
0
0
0
0
0
0
0
0
0
0
0
0
0
0
0
0
0
0
0
0
0
0
0
0
0
0
0
0
0
0
0
0
0
0
0
0
0
0
0
0
0
0
0
0
0
0
0
0
0
0
0
0
0
0
0
0
0
0
0
0
0
0
0
0
0
0
0
0
0
0
0
0
0
0
0
0
0
0
0
0
0
0
0
0
0
0
0
0
0
0
0
0
0
0
0
0
0
0
0
0
0
0
0
0
0
0
0
0
0
0
0
0
0
0
0
0
0
0
0
0
0
0
0
0
0
0
0
0
0
0
0
0
0
0
0
0
0
0
0
0
0
0
0
0
0
0
0
0
0
0
0
0
0
0
0
0
0
0
0
0
0
0
0
0
0
0
0
0
0
0
0
0
0
0
0
0
0
0
0
0
0
0
0
0
0
0
0
0
0
0
0
0
0
0
0
0
0
0
0
0
0
0
0
0
0
0
0
0
0
0
0
0
0
0
0
0
0
0
0
0
0
0
0
0
0
0
0
0
0
0
0
0
0
0
0
0
0
0
0
0
0
0
0
0
0
0
0
0
0
0
0
0
0
0
0
0
0
0
0
0
0
0
0
0
0
0
0
0
0
0
0
0
0
0
0
0
0
0
0
0
0
0
0
0
0
0
0
0
0
0
0
0
0
0
0
0
0
0
0
0
0
0
0
0
0
0
0
0
0
0
0
0
0
0
0
0
0
0
0
0
0
0
0
0
0
0
0
0
0
0
0
0
0
0
0
0
0
0
0
0
0
0
0
0
0
0
0
0
0
0
0
0
0
0
0
0
0
0
0
0
0
0
0
0
0
0
0
0
0
0
0
0
0
0
0
0
0
0
0
0
0
0
0
0
0
0
0
0
0
0
0
0
0
0
0
0
0
0
0
0
0
0
0
0
0
0
0
0
0
0
0
0
0
0
0
0
0
0
0
0
0
0
0
0
0
0
0
0
0
0
0
0
0
0
0
0
0
0
0
0
0
0
0
0
0
0
0
0
0
0
0
0
0
0
0
0
0
0
0
0
0
0
0
0
0
0
0
0
0
0
0
0
0
0
0
0
0
0
0
0
0
0
0
0
0
0
0
0
0
0
0
0
0
0
0
0
0
0
0
0
0
0
0
0
0
0
0
0
0
0
0
0
0
0
0
0
0
0
0
0
0
0
0
0
0
0
0
0
0
0
0
0
0
0
0
0
0
0
0
0
0
0
0
0
0
0
0
0
0
0
0
0
0
0
0
0
0
0
0
0
0
0
0
0
0
0
0
0
0
0
0
0
0
0
0
0
0
0
0
0
0
0
0
0
0
0
0
0
0
0
0
0
0
0
0
0
0
0
0
0
0
0
0
0
0
0
0
0
0
0
0
0
0
0
0
0
0
0
0
0
0
0
0
0
0
0
0
0
0
0
0
0
0
0
0
0
0
0
0
0
0
0
0
0
0
0
0
0
0
0
0
0
0
0
0
0
0
0
0
0
0
0
0
0
0
0
0
0
0
0
0
0
0
0
0
0
0
0
0
0
0
0
0
0
0
0
0
0
0
0
0
0
0
0
0
0
0
0
0
0
0
0
0
0
0
0
0
0
0
0
0
0
0
0
0
0
0
0
0
0
0
0
0
0
0
0
0
0
0
0
0
0
0
0
0
0
0
0
0
0
0
0
0
0
0
0
0
0
0
0
0
0
0
0
0
0
0
0
0
0
0
0
0
0
0
0
0
0
0
0
0
0
0
0
0
0
0
0
0
0
0
0
0
0
0
0
0
0
0
0
0
0
0
0
0
0
0
0
0
0
0
0
0
0
0
0
0
0
0
0
0
0
0
0
0
0
0
0
0
0
0
0
0
0
0
0
0
0
0
0
0
0
0
0
0
0
0
0
0
0
0
0
0
0
0
0
0
0
0
0
0
0
0
0
0
0
0
0
0
0
0
0
0
0
0
0
0
0
0
0
0
0
0
0
0
0
0
0
0
0
0
0
0
0
0
0
0
0
0
0
0
0
0
0
0
0
0
0
0
0
0
0
0
0
0
0
0
0
0
0
0
0
0
0
0
0
0
0
0
0
0
0
0
0
0
0
0
0
0
0
0
0
0
0
0
0
0
0
0
0
0
0
0
0
0
0
0
0
0
0
0
0
0
0
0
0
0
0
0
0
0
0
0
0
0
0
0
0
0
0
0
0
0
0
0
0
0
0
0
0
0
0
0
0
0
0
0
0
0
0
0
0
0
0
0
0
0
0
0
0
0
0
0
0
0
0
0
0
0
0
0
0
0
0
0
0
0
0
0
0
0
0
0
0
0
0
0
0
0
0
0
0
0
0
0
0
0
0
0
0
0
0
0
0
0
0
0
0
0
0
0
0
0
0
0
0
0
0
0
0
0
0
0
0
0
0
0
0
0
0
0
0
0
0
0
0
0
0
0
0
0
0
0
0
0
0
0
0
0
0
0
0
0
0
0
0
0
0
0
0
0
0
0
0
0
0
0
0
0
0
0
0
0
0
0
0
0
0
0
0
0
0
0
0
0
0
0
0
0
0
0
0
0
0
0
0
0
0
0
0
0
0
0
0
0
0
0
0
0
0
0
0
0
0
0
0
0
0
0
0
0
0
0
0
0
0
0
0
0
0
0
0
0
0
0
0
0
0
0
0
0
0
0
0
0
0
0
0
0
0
0
0
0
0
0
0
0
0
0
0
0
0
0
0
0
0
0
0
0
0
0
0
0
0
0
0
0
0
0
0
0
0
0
0
0
0
0
0
0
0
0
0
0
0
0
0
0
0
0
0
0
0
0
0
0
0
0
0
0
0
0
0
0
0
0
0
0
0
0
0
0
0
0
0
0
0
0
0
0
0
0
0
0
0
0
0
0
0
0
0
0
0
0
0
0
0
0
0
0
0
0
0
0
0
0
0
0
0
0
0
0
0
0
0
0
0
0
0
0
0
0
0
0
0
0
0
0
0
0
0
0
0
0
0
0
0
0
0
0
0
0
0
0
0
0
0
0
0
0
0
0
0
0
0
0
0
0
0
0
0
0
0
0
0
0
0
0
0
0
0
0
0
0
0
0
0
0
0
0
0
0
0
0
0
0
0
0
0
0
0
0
0
0
0
0
0
0
0
0
0
0
0
0
0
0
0
0
0
0
0
0
0
0
0
0
0
0
0
0
0
0
0
0
0
0
0
0
0
0
0
0
0
0
0
0
0
0
0
0
0
0
0
0
0
0
0
0
0
0
0
0
0
0
0
0
0
0
0
0
0
0
0
0
0
0
0
0
0
0
0
0
0
0
0
0
0
0
0
0
0
0
0
0
0
0
0
0
0
0
0
0
0
0
0
0
0
0
0
0
0
0
0
0
0
0
0
0
0
0
0
0
0
0
0
0
0
0
0
0
0
0
0
0
0
0
0
0
0
0
0
0
0
0
0
0
0
0
0
0
0
0
0
0
0
0
0
0
0
0
0
0
0
0
0
0
0
0
0
0
0
0
0
0
0
0
0
0
0
0
0
0
0
0
0
0
0
0
0
0
0
0
0
0
0
0
0
0
0
0
0
0
0
0
0
0
0
0
0
0
0
0
0
0
0
0
0
0
0
0
0
0
0
0
0
0
0
0
0
0
0
0
0
0
0
0
0
0
0
0
0
0
0
0
0
0
0
0
0
0
0
0
0
0
0
0
0
0
0
0
0
0
0
0
0
0
0
0
0
0
0
0
0
0
0
0
0
0
0
0
0
0
0
0
0
0
0
0
0
0
0
0
0
0
0
0
0
0
0
0
0
0
0
0
0
0
0
0
0
0
0
0
0
0
0
0
0
0
0
0
0
0
0
0
0
0
0
0
