0.541343
0.501054
0.466875
0.439849
0.421102
0.411879
0.413997
0.430906
0.467647
0.525532
0.594111
0.656527
0.695787
0.69999
0.666139
0.601103
0.519199
0.437143
0.368452
0.316652
0.278102
0.249636
0.232484
0.228179
0.238435
0.264827
0.307753
0.365601
0.434574
0.5093
0.583974
0.653563
0.715703
0.768473
0.810144
0.840571
0.859822
0.868014
0.865408
0.852629
0.830759
0.801214
0.765403
0.724355
0.678853
0.629215
0.575509
0.517886
0.457041
0.394384
0.331973
0.272221
0.217529
0.170107
0.131329
0.101104
0.0784241
0.0617989
0.0497284
0.0410393
0.0349716
0.0310284
0.0286785
0.0270687
0.0249516
0.0207623
0.0128796
0
-0.022327
-0.0500031
-0.0817986
-0.115736
-0.149335
-0.18014
-0.206216
-0.226531
-0.219197
0.123868
0.748537
1.68466
2.84315
3.99305
4.82693
5.0887
4.6935
3.76823
2.59103
1.46706
0.611234
0.0962318
-0.113003
0.0112812
0.139324
0.266467
0.38749
0.495595
0.583834
0.650151
0.691728
0.708251
0.702071
0.678041
0.643042
0.605222
0.572828
0.552821
0.54939
0.562881
0.591261
0.632787
0.684589
0.743257
0.805463
0.868741
0.931818
0.994732
1.05876
1.12611
1.19954
1.28185
1.37548
1.48216
1.60277
1.7373
1.88482
2.0436
2.21114
2.38444
2.56014
2.73478
2.90462
3.06597
3.21586
3.35165
3.46966
3.56372
3.62797
3.65599
3.63798
3.56437
3.43128
3.2444
3.01864
2.77281
2.52233
2.27369
2.02683
1.78157
1.53841
1.29896
1.06629
0.844724
0.639283
0.454854
0.295807
0.165418
0.0640087
-0.0113808
-0.0657513
-0.105318
-0.136369
-0.164951
-0.195746
-0.231567
-0.273124
-0.319626
-0.367637
-0.412015
-0.447531
-0.47014
-0.477893
-0.471249
-0.452747
-0.426223
-0.39589
-0.365556
-0.337629
-0.313877
-0.295251
-0.281913
-0.273253
-0.267967
-0.264241
-0.260056
-0.253585
-0.243579
-0.229726
-0.212577
-0.19325
-0.173297
-0.154194
-0.13689
-0.121571
-0.107677
-0.0941647
-0.079945
-0.0643162
-0.047142
-0.0292778
-0.0121384
0.00282211
0.014608
0.0229385
0.0281666
0.0309204
0.0316952
0.0306355
0.0275822
0.0224644
0.0157681
0.00883942
0.00384254
0.00328941
0.00928192
0.022728
0.0439079
0.0697876
0.0956276
0.116647
0.129565
0.133629
0.130765
0.12483
0.120287
0.120757
0.127276
0.138871
0.153973
0.170672
0.186855
0.20062
0.210578
0.21601
0.216885
0.213799
0.207834
0.200416
0.193081
0.187266
0.184089
0.184297
0.188206
0.194975
0.203129
0.211179
0.218188
0.224142
0.229996
0.237409
0.248285
0.264324
0.286102
0.313795
0.347402
0.386862
0.432089
0.480579
0.526911
0.565251
0.591393
0.604778
0.609339
0.61248
0.622375
0.64472
0.679676
0.722308
0.768092
0.812301
0.85136
0.883375
0.907673
0.922305
0.925155
0.912239
0.878681
0.820825
0.738353
0.635382
0.519985
0.402416
0.292832
0.195513
0.112387
0.046283
-0.00189018
-0.0326408
-0.0477722
-0.0489975
-0.0400997
-0.0259987
-0.011515
-0.000708771
0.00360069
0
-0.00700378
-0.0214092
-0.0421379
-0.06772
-0.0968845
-0.128871
-0.162836
-0.197857
-0.232981
-0.144427
0.208431
0.915651
1.96977
3.1941
4.26912
4.85278
4.73423
3.93659
2.71313
1.44045
0.465696
-0.0192978
-0.0250248
0.202925
0.350154
0.466483
0.544581
0.583804
0.59012
0.574057
0.547652
0.521712
0.502555
0.492093
0.491369
0.501375
0.522799
0.555837
0.600116
0.654755
0.718416
0.789616
0.866558
0.947647
1.03172
1.11816
1.20682
1.29777
1.39109
1.48667
1.58423
1.68354
1.78473
1.88872
1.99726
2.11277
2.23774
2.37408
2.52232
2.6811
2.8471
3.0158
3.18178
3.33899
3.48116
3.60361
3.70291
3.77686
3.82403
3.84334
3.83359
3.79332
3.72093
3.61524
3.47768
3.31014
3.116
2.90064
2.67093
2.43451
2.19864
1.96919
1.75021
1.54367
1.34965
1.16678
0.99299
0.826304
0.66554
0.511577
0.36818
0.241582
0.138438
0.0649941
0.0251614
0.0191227
0.0428703
0.0887592
0.146885
0.206874
0.260013
0.301876
0.329826
0.342094
0.338359
0.319521
0.287536
0.245528
0.19741
0.147768
0.104219
0.0753506
0.0693085
0.0922195
0.14798
0.254619
0.402123
0.555787
0.679433
0.747562
0.752793
0.706338
0.63211
0.557232
0.502745
0.471655
0.455754
0.449239
0.44921
0.453717
0.461089
0.470047
0.479681
0.489325
0.498428
0.506482
0.51303
0.517728
0.520406
0.521094
0.519967
0.51723
0.51299
0.507185
0.499559
0.489685
0.477129
0.461599
0.443101
0.422043
0.399273
0.376036
0.353846
0.334288
0.318771
0.308296
0.303427
0.303967
0.30915
0.31779
0.328479
0.339743
0.350161
0.358368
0.363255
0.364082
0.360681
0.353657
0.344445
0.335459
0.329771
0.330515
0.340268
0.360551
0.391557
0.432238
0.480664
0.534547
0.591664
0.650325
0.709494
0.768526
0.82682
0.883387
0.936342
0.982872
1.01965
1.04325
1.05081
1.0405
1.01172
0.964996
0.901704
0.823952
0.735411
0.640504
0.543392
0.448299
0.359743
0.282346
0.22187
0.187286
0.186918
0.212547
0.244595
0.261878
0.248878
0.201337
0.127974
0.0473373
-0.0192986
-0.0562416
-0.06702
-0.0615257
-0.0455296
-0.02598
-0.00927887
0
0.00420494
-0.00112495
-0.0143047
-0.0328079
-0.0536129
-0.0743771
-0.028841
0.299106
0.975573
1.96524
3.09676
4.10926
4.73478
4.78882
4.24355
3.25377
2.11182
1.13652
0.542516
0.3627
0.46408
0.504024
0.536423
0.560846
0.576701
0.585262
0.589114
0.591293
0.59446
0.600123
0.608941
0.621245
0.637118
0.656543
0.679422
0.705714
0.7352
0.767125
0.800933
0.836792
0.87595
0.920655
0.97356
1.03677
1.11095
1.1945
1.28417
1.37737
1.47228
1.56827
1.66631
1.76884
1.8792
2.00081
2.13623
2.28602
2.44896
2.62214
2.80133
2.9807
3.15229
3.30724
3.43869
3.54176
3.61342
3.65213
3.65738
3.62923
3.56814
3.47498
3.35128
3.20095
3.02853
2.83836
2.63482
2.42224
2.20411
1.98335
1.76282
1.54548
1.33442
1.13294
0.944449
0.772229
0.619118
0.487146
0.377404
0.290158
0.22441
0.177094
0.144147
0.121339
0.104799
0.0913544
0.0785778
0.0646271
0.0479576
0.0272709
0.00158501
-0.0294483
-0.0657223
-0.105171
-0.142636
-0.171866
-0.187244
-0.185503
-0.166702
-0.134142
-0.0933269
-0.0504612
-0.0106686
0.0236629
0.0507103
0.0696835
0.0806602
0.0843288
0.0817349
0.0741035
0.062759
0.0491863
0.0349365
0.021759
0.0115017
0.00586586
0.00611
0.0127769
0.0255499
0.0432951
0.0642855
0.0865332
0.10814
0.127655
0.143979
0.156371
0.164375
0.167722
0.166243
0.159838
0.148518
0.132506
0.112377
0.0891941
0.0643829
0.0399771
0.0182329
0.00121613
-0.00957356
-0.0134724
-0.0107203
-0.00232544
0.010228
0.0253197
0.0414343
0.0574627
0.0726402
0.0864744
0.0986652
0.109026
0.11743
0.123834
0.128308
0.131094
0.132638
0.133577
0.134638
0.136477
0.139478
0.143615
0.148327
0.152522
0.154919
0.154528
0.15112
0.145569
0.139932
0.137194
0.140756
0.153767
0.178451
0.21578
0.265302
0.325315
0.393229
0.465961
0.540385
0.613748
0.683248
0.74578
0.798339
0.838309
0.863288
0.871325
0.861222
0.832777
0.786951
0.72587
0.652707
0.571784
0.487534
0.403646
0.323134
0.248458
0.181322
0.122713
0.0730711
0.0325041
0.000979996
-0.0215979
-0.0354233
-0.0405367
-0.0373455
-0.0275446
-0.0144018
-0.00152473
0.00787926
0.0116451
0.00892754
0
-0.00764732
-0.0200031
-0.0369171
-0.0583918
-0.0848064
-0.116598
-0.15362
-0.194965
-0.245154
-0.0160269
0.57965
1.49939
2.60612
3.6968
4.54346
4.94294
4.77774
4.07316
3.01483
1.89642
1.00899
0.524985
0.441784
0.552071
0.608048
0.650714
0.678463
0.692529
0.696909
0.697508
0.700789
0.712082
0.733287
0.764494
0.805438
0.855004
0.911258
0.97196
1.03463
1.09687
1.15705
1.21457
1.26994
1.32468
1.3809
1.44083
1.50639
1.57888
1.65868
1.74591
1.84103
1.94474
2.05806
2.18209
2.31771
2.46514
2.62361
2.79117
2.96483
3.14085
3.31517
3.48386
3.64348
3.79122
3.92499
4.04321
4.14437
4.22659
4.28746
4.32448
4.33461
4.31432
4.26028
4.17014
4.04332
3.88154
3.689
3.47203
3.23952
3.00025
2.76101
2.52755
2.30449
2.09516
1.90163
1.7249
1.5652
1.42243
1.29636
1.18691
1.09413
1.01809
0.958694
0.915691
0.888095
0.873674
0.869085
0.870405
0.873717
0.875646
0.873799
0.867043
0.855544
0.840596
0.824268
0.80896
0.796918
0.789799
0.788566
0.793688
0.805058
0.822007
0.843443
0.867918
0.893572
0.91827
0.940056
0.957482
0.969839
0.977191
0.980145
0.979406
0.975219
0.966796
0.95235
0.929379
0.895432
0.849133
0.791073
0.724272
0.654004
0.586972
0.530061
0.487551
0.463515
0.461966
0.482828
0.519783
0.563186
0.603158
0.631406
0.642421
0.63399
0.6071
0.56536
0.514058
0.459109
0.405478
0.356319
0.312932
0.275415
0.24389
0.218438
0.199219
0.186399
0.180078
0.180077
0.185932
0.19637
0.20966
0.223919
0.237482
0.249207
0.258621
0.265857
0.27144
0.275991
0.279955
0.283429
0.286157
0.287614
0.287173
0.284296
0.278724
0.270623
0.260642
0.249955
0.240374
0.23415
0.233559
0.240584
0.256615
0.282268
0.317387
0.361223
0.412713
0.470756
0.534085
0.60149
0.672202
0.745061
0.816796
0.882108
0.935317
0.972162
0.991452
0.995646
0.989821
0.979328
0.967133
0.952242
0.930922
0.89792
0.848909
0.782355
0.700429
0.608702
0.514846
0.426762
0.348501
0.281896
0.228773
0.190211
0.166325
0.154259
0.148957
0.145259
0.138986
0.127755
0.111283
0.0910678
0.0695563
0.0490435
0.0305098
0.01329
-0.00424213
-0.0247055
-0.051037
-0.0857231
-0.130641
-0.185425
-0.24788
-0.314484
-0.381015
0
0.794553
1.88622
3.03679
3.98084
4.51202
4.53359
4.07003
3.2499
2.26927
1.34105
0.636766
0.240373
0.165487
0.234396
0.295492
0.342159
0.368618
0.373008
0.358068
0.330778
0.300869
0.278505
0.271856
0.282637
0.307973
0.345038
0.391598
0.444924
0.502202
0.561132
0.620018
0.677846
0.734289
0.789663
0.844855
0.901235
0.960562
1.02486
1.09624
1.1767
1.26787
1.37077
1.48564
1.61187
1.74817
1.89274
2.0437
2.19932
2.35822
2.51936
2.68179
2.84439
3.00547
3.16233
3.31101
3.44593
3.55978
3.64592
3.70015
3.71964
3.70285
3.64949
3.56039
3.43731
3.28279
3.10018
2.89563
2.67697
2.45039
2.22062
1.99214
1.76933
1.55627
1.35647
1.17277
1.00726
0.861357
0.735485
0.629538
0.543036
0.473724
0.418699
0.374747
0.338732
0.307942
0.280309
0.254483
0.22974
0.205807
0.182637
0.160294
0.13886
0.11844
0.0992142
0.0815481
0.0661216
0.0538592
0.0458154
0.0429691
0.0459728
0.0549646
0.0695172
0.0887481
0.111549
0.136849
0.163747
0.191723
0.220506
0.249914
0.279667
0.309204
0.337479
0.362746
0.382872
0.396039
0.401177
0.398463
0.389505
0.377074
0.36437
0.354037
0.347313
0.343683
0.340561
0.334511
0.322578
0.303394
0.277605
0.247512
0.216154
0.186328
0.159645
0.136559
0.117642
0.103407
0.094428
0.0912414
0.0940401
0.102324
0.114882
0.129305
0.14267
0.152177
0.15579
0.15267
0.143278
0.129177
0.112635
0.0961875
0.0819732
0.071728
0.0667294
0.0676357
0.0745873
0.0869906
0.103064
0.11964
0.132934
0.139462
0.13683
0.124396
0.103612
0.0779346
0.0522783
0.0320984
0.0220846
0.0246886
0.0400883
0.0668549
0.102811
0.145259
0.191235
0.23805
0.28374
0.327221
0.368273
0.407344
0.445242
0.482802
0.52061
0.55882
0.597069
0.634487
0.669791
0.701382
0.727337
0.74549
0.754122
0.752002
0.738437
0.713375
0.677418
0.631707
0.577725
0.517105
0.451517
0.382946
0.31332
0.244547
0.178826
0.118435
0.0654547
0.0214323
-0.0128897
-0.0376633
-0.0538078
-0.0626902
-0.065731
-0.0640839
-0.0585028
-0.0494549
-0.0374287
-0.0230509
-0.00822182
0.00343914
0.00753937
0
-0.0227066
-0.0597347
-0.108511
-0.172904
-0.0186403
0.496146
1.33962
2.38396
3.42623
4.23507
4.60946
4.44262
3.76858
2.76299
1.68714
0.794701
0.243789
0.0543913
0.140014
0.219417
0.295919
0.367737
0.43348
0.492986
0.546896
0.595786
0.640496
0.682006
0.721297
0.75925
0.796616
0.834071
0.872267
0.911896
0.953695
0.998394
1.04659
1.09863
1.1545
1.21388
1.27624
1.34117
1.40853
1.47866
1.55245
1.63125
1.71673
1.81061
1.9144
2.02916
2.15533
2.29269
2.44029
2.59666
2.7599
2.92785
3.09822
3.26864
3.43655
3.59854
3.75025
3.88748
4.00633
4.10311
4.17261
4.20848
4.20658
4.1626
4.07269
3.93473
3.74982
3.52337
3.26521
2.98841
2.70743
2.43343
2.17232
1.92971
1.70943
1.51357
1.34261
1.19566
1.07073
0.964888
0.874759
0.796921
0.728315
0.666569
0.610199
0.558617
0.511984
0.470901
0.436105
0.408172
0.387376
0.373605
0.366318
0.364748
0.368169
0.376051
0.388108
0.404194
0.424106
0.447366
0.473082
0.499933
0.526316
0.550627
0.571555
0.588303
0.600668
0.608972
0.613885
0.616217
0.616786
0.61624
0.615066
0.613627
0.612195
0.610964
0.610047
0.609468
0.60916
0.608992
0.608806
0.60846
0.607836
0.606788
0.605055
0.602131
0.597162
0.588963
0.5762
0.557675
0.532718
0.501412
0.464391
0.424826
0.388315
0.360838
0.347213
0.349783
0.367762
0.397505
0.433573
0.470204
0.502797
0.529494
0.549811
0.563402
0.570325
0.570736
0.564783
0.55257
0.534407
0.511085
0.483972
0.455351
0.42872
0.408161
0.397482
0.399464
0.415246
0.444046
0.483332
0.529417
0.578349
0.626814
0.672987
0.716533
0.75773
0.797211
0.835324
0.871621
0.90442
0.931054
0.948839
0.956145
0.953
0.940952
0.922274
0.898953
0.872011
0.842022
0.809038
0.773314
0.735856
0.698394
0.662938
0.631084
0.603644
0.579678
0.556959
0.532686
0.504402
0.470739
0.431751
0.388745
0.343735
0.29878
0.255274
0.213915
0.175062
0.138927
0.105937
0.0767307
0.0519503
0.0322353
0.0178795
0.00853691
0.00312786
0
-0.00158749
-0.00443916
-0.0096447
-0.0334854
0.134351
0.661518
1.57529
2.75516
3.94773
4.84207
5.17654
4.83569
3.90061
2.63227
1.38517
0.475316
0.0572552
0.0748795
0.192607
0.290402
0.377755
0.453178
0.51711
0.572929
0.622366
0.666857
0.707477
0.744712
0.77875
0.809674
0.837722
0.863569
0.888446
0.91404
0.942212
0.974623
1.01242
1.05586
1.10464
1.15841
1.21689
1.28008
1.34838
1.42252
1.50339
1.59185
1.68852
1.79374
1.90762
2.03019
2.16154
2.30181
2.45103
2.60888
2.77437
2.94563
3.11981
3.29315
3.461
3.61854
3.76122
3.88441
3.98273
4.05049
4.08454
4.08188
4.03954
3.95511
3.8277
3.65883
3.45282
3.21671
2.95958
2.69291
2.42567
2.16463
1.91578
1.68406
1.47313
1.28521
1.121
0.97973
0.859239
0.756321
0.667119
0.587637
0.514262
0.444226
0.37593
0.309056
0.244433
0.183674
0.12866
0.0816528
0.044623
0.01688
-0.00346088
-0.0186974
-0.0306381
-0.0399963
-0.0463184
-0.0484468
-0.0452539
-0.0363497
-0.0229073
-0.00598259
0.0132017
0.0334387
0.0537037
0.0731527
0.0908888
0.105872
0.11707
0.123576
0.124955
0.121552
0.114566
0.105804
0.0971649
0.0900534
0.0849516
0.0813799
0.0781845
0.0740845
0.0682566
0.0607347
0.0524891
0.0451763
0.0406574
0.0402739
0.0444801
0.0530439
0.0651413
0.0793243
0.093734
0.106357
0.115158
0.118477
0.115448
0.106199
0.0920296
0.0754414
0.0599209
0.0494463
0.0477592
0.058835
0.0887781
0.136416
0.190257
0.236131
0.262201
0.263068
0.241284
0.205847
0.168625
0.140392
0.12573
0.122678
0.129193
0.143992
0.165582
0.192233
0.222075
0.253334
0.284609
0.315015
0.344238
0.372493
0.400387
0.428758
0.458514
0.490504
0.52544
0.563928
0.606336
0.65274
0.703054
0.756113
0.807927
0.852673
0.884345
0.898478
0.893564
0.871541
0.837197
0.796774
0.756352
0.719948
0.688634
0.662419
0.640936
0.622908
0.606002
0.587252
0.563553
0.532219
0.491565
0.441389
0.383209
0.320169
0.256578
0.197054
0.145977
0.108656
0.0882101
0.080773
0.0795788
0.0774227
0.0692131
0.0536469
0.0334147
0.013949
0.00130558
0
0.0105024
0.0296175
0.0551468
0.0849882
0.117068
0.137939
0.419288
1.11019
2.18829
3.43529
4.51004
5.09131
5.01472
4.33661
3.29765
2.21265
1.34306
0.811847
0.593711
0.594643
0.643745
0.697819
0.755908
0.817918
0.883315
0.949903
1.01356
1.06932
1.11246
1.13962
1.14974
1.14462
1.12888
1.10937
1.0939
1.0895
1.10023
1.1267
1.16701
1.21835
1.27815
1.34398
1.41386
1.48668
1.56232
1.64152
1.72559
1.816
1.91406
2.02061
2.13593
2.25962
2.39066
2.5275
2.66821
2.81078
2.95332
3.09442
3.23336
3.37015
3.50546
3.64093
3.78081
3.92882
4.07357
4.19204
4.25841
4.2546
4.17622
4.03122
3.83356
3.59697
3.33376
3.05977
2.78406
2.51107
2.244
1.98627
1.74113
1.51142
1.29942
1.10683
0.934733
0.78367
0.653727
0.544559
0.455494
0.386266
0.336621
0.304159
0.284445
0.272641
0.264212
0.255647
0.244983
0.231939
0.217611
0.203821
0.19225
0.183663
0.178126
0.174508
0.171064
0.166127
0.158803
0.149419
0.139547
0.131586
0.128023
0.130615
0.139464
0.153714
0.170955
0.187766
0.200306
0.205195
0.200201
0.184759
0.160209
0.129704
0.0977339
0.0693311
0.0490803
0.0400567
0.0429062
0.056663
0.0785671
0.104689
0.130752
0.153008
0.168783
0.176817
0.177296
0.171589
0.161801
0.150231
0.138853
0.128876
0.120575
0.113591
0.10712
0.100176
0.0920181
0.0824965
0.072194
0.0626165
0.0557953
0.0536914
0.0575911
0.0676761
0.0829217
0.10134
0.120469
0.137911
0.152011
0.161617
0.166129
0.165445
0.159921
0.150304
0.13762
0.123223
0.108965
0.0969076
0.0890363
0.0869431
0.0915602
0.103015
0.120649
0.143193
0.169046
0.196546
0.224401
0.251827
0.278601
0.305032
0.331815
0.359791
0.389676
0.421829
0.45612
0.491959
0.52847
0.56471
0.599897
0.633531
0.665382
0.695287
0.72292
0.747463
0.767276
0.779835
0.782464
0.772676
0.748884
0.710977
0.660581
0.600872
0.535982
0.470162
0.40689
0.347865
0.293561
0.243866
0.198033
0.155029
0.113884
0.0739923
0.0353234
-0.00146952
-0.0349285
-0.0629222
-0.0833804
-0.0946508
-0.096037
-0.0881729
-0.0727969
-0.053217
-0.0332553
-0.0163999
-0.0050396
0
-0.000403118
-0.00430927
-0.00906134
-0.0039011
0.288875
0.886319
1.78343
2.84679
3.84561
4.53385
4.73351
4.38822
3.58161
2.5196
1.473
0.686044
0.283429
0.236694
0.29965
0.357057
0.410327
0.458295
0.500379
0.536679
0.566975
0.59124
0.609659
0.622711
0.631442
0.637705
0.6442
0.654244
0.671292
0.698306
0.736965
0.787163
0.847608
0.91653
0.991598
1.07037
1.15071
1.23106
1.31047
1.38858
1.46556
1.54205
1.61924
1.69898
1.78383
1.87705
1.98233
2.10336
2.24317
2.40349
2.58422
2.78302
2.99687
3.2217
3.44663
3.65438
3.82977
3.96211
4.04608
4.08125
4.07036
4.01732
3.9254
3.79645
3.63362
3.44257
3.22867
2.99702
2.75324
2.5034
2.25325
2.00867
1.77545
1.55871
1.36234
1.18874
1.03835
0.910031
0.801551
0.710195
0.633317
0.568707
0.514718
0.470529
0.435615
0.409059
0.38987
0.376972
0.369264
0.365677
0.365172
0.366888
0.369715
0.372634
0.375014
0.376861
0.378918
0.382448
0.388765
0.398656
0.411971
0.427518
0.443558
0.458269
0.470279
0.478966
0.484477
0.487501
0.488964
0.489833
0.490879
0.492726
0.495813
0.500313
0.50602
0.512295
0.518112
0.522261
0.523646
0.521576
0.515962
0.507338
0.496733
0.485435
0.474726
0.465624
0.458885
0.455
0.454163
0.456248
0.460808
0.467076
0.47396
0.480093
0.48409
0.484843
0.481795
0.475134
0.465804
0.45533
0.445476
0.437836
0.433462
0.432675
0.435229
0.440441
0.447454
0.455458
0.463843
0.472198
0.480219
0.487598
0.49395
0.498792
0.501596
0.501935
0.499609
0.494761
0.487938
0.48006
0.472297
0.465856
0.461726
0.460442
0.462047
0.465936
0.470838
0.475343
0.478509
0.480338
0.482016
0.485801
0.494577
0.511211
0.537923
0.575326
0.622774
0.679695
0.745153
0.81806
0.89785
0.985105
1.07983
1.17586
1.26086
1.32065
1.3447
1.33115
1.28861
1.233
1.18073
1.14135
1.1114
1.08283
1.04965
1.00653
0.950412
0.881391
0.802715
0.719972
0.639714
0.567085
0.504608
0.454271
0.416623
0.390901
0.375381
0.367757
0.365441
0.36583
0.366157
0.363504
0.355272
0.339503
0.315253
0.282862
0.243972
0.201233
0.15776
0.116477
0.0795069
0.0479412
0.0217597
0
-0.0152033
0.159827
0.650872
1.51102
2.66174
3.89064
4.91273
5.46327
5.38714
4.69739
3.58239
2.35111
1.32323
0.704725
0.512412
0.590638
0.623883
0.655874
0.687404
0.718929
0.750968
0.783936
0.817978
0.852831
0.887825
0.921887
0.953674
0.982102
1.00671
1.02796
1.04743
1.06769
1.09197
1.12363
1.16551
1.21949
1.28535
1.36192
1.44786
1.54156
1.6413
1.7456
1.85335
1.96396
2.07732
2.19376
2.31379
2.43794
2.56653
2.69946
2.83618
2.97569
3.11677
3.25815
3.39875
3.53767
3.67393
3.80584
3.93002
4.04067
4.12945
4.18618
4.20145
4.16896
4.08655
3.9559
3.78167
3.57059
3.33424
3.0848
2.83055
2.57662
2.32664
2.0838
1.85079
1.62986
1.42299
1.23203
1.05885
0.905348
0.773155
0.663402
0.576851
0.513312
0.471224
0.447609
0.437971
0.436316
0.436495
0.433592
0.424631
0.408919
0.387969
0.364974
0.343906
0.32844
0.320648
0.321725
0.330378
0.342068
0.351269
0.353177
0.345193
0.327729
0.304094
0.279531
0.259728
0.24896
0.248146
0.256212
0.271508
0.292137
0.315566
0.338984
0.359758
0.375791
0.385723
0.389027
0.386001
0.377667
0.36561
0.351769
0.338196
0.326775
0.318986
0.315824
0.317733
0.324486
0.335236
0.348582
0.362545
0.374897
0.383821
0.388334
0.388516
0.385445
0.380783
0.37611
0.372221
0.368527
0.362577
0.350804
0.329784
0.297643
0.255102
0.205772
0.155574
0.111474
0.0795584
0.064127
0.0673697
0.0889955
0.126543
0.175941
0.232058
0.289529
0.34211
0.384095
0.411017
0.420302
0.411744
0.387621
0.352363
0.311847
0.272521
0.239936
0.217557
0.207677
0.212528
0.233878
0.272666
0.328872
0.401346
0.49124
0.598129
0.712374
0.818659
0.902299
0.953057
0.967916
0.951703
0.91524
0.871643
0.83203
0.801006
0.776351
0.754398
0.731623
0.704214
0.668913
0.623718
0.568289
0.504029
0.433829
0.361569
0.291335
0.226491
0.169797
0.122994
0.0866881
0.0604285
0.0429341
0.0324123
0.0268744
0.024367
0.0231129
0.0215099
0.0180755
0.0113637
0
-0.0139464
-0.0347458
-0.0634863
-0.100826
-0.145911
-0.196835
-0.251113
-0.306423
-0.187926
0.197264
0.904495
1.92203
3.09942
4.16261
4.8057
4.81827
4.17795
3.06033
1.76915
0.62722
-0.125567
-0.395738
-0.210917
0.0125165
0.217054
0.384939
0.505589
0.58626
0.631308
0.649354
0.651222
0.647713
0.647345
0.654216
0.669487
0.69269
0.722663
0.757723
0.796332
0.837572
0.881325
0.928133
0.978855
1.03429
1.09465
1.15978
1.22955
1.30387
1.38278
1.46659
1.55587
1.65142
1.75416
1.86498
1.98461
2.11353
2.25177
2.39892
2.55404
2.71568
2.88201
3.0509
3.22012
3.38715
3.54873
3.69999
3.83411
3.94403
4.02255
4.06148
4.0531
3.99201
3.87641
3.70861
3.49478
3.24436
2.97267
2.69433
2.41832
2.1508
1.89762
1.66368
1.45258
1.26631
1.10532
0.968603
0.854072
0.758906
0.679933
0.613939
0.557953
0.509237
0.465315
0.424209
0.384532
0.345542
0.307118
0.26965
0.233859
0.200646
0.170936
0.145663
0.126027
0.113389
0.108903
0.113484
0.127454
0.1502
0.180062
0.214288
0.249458
0.282087
0.309236
0.328979
0.340634
0.344734
0.342786
0.336905
0.329442
0.322385
0.317163
0.3146
0.31489
0.317606
0.321993
0.327259
0.332842
0.338554
0.344555
0.351175
0.358623
0.366709
0.374715
0.381299
0.384784
0.383603
0.376801
0.364413
0.347581
0.328342
0.309139
0.292232
0.279282
0.270988
0.267243
0.267497
0.27116
0.277857
0.287417
0.299649
0.314148
0.329877
0.34537
0.359061
0.369686
0.376582
0.379722
0.37951
0.37645
0.370923
0.363258
0.353548
0.342076
0.32953
0.3171
0.306432
0.299448
0.297973
0.303492
0.317244
0.339921
0.371567
0.41149
0.458288
0.510098
0.564675
0.619341
0.67173
0.720352
0.764935
0.806462
0.846852
0.888324
0.932609
0.980974
1.03198
1.08075
1.12087
1.14633
1.1533
1.141
1.11154
1.06889
1.01756
0.961781
0.904656
0.847858
0.792415
0.739105
0.688512
0.641004
0.596708
0.555522
0.517179
0.481381
0.447955
0.416988
0.38889
0.364359
0.344241
0.329309
0.320021
0.316299
0.317475
0.322086
0.327387
0.329695
0.325208
0.310687
0.284096
0.245
0.194617
0.135509
0.071016
0
0.249676
0.850636
1.81132
3.00397
4.18012
5.05458
5.41302
5.18466
4.45168
3.40747
2.29327
1.33619
0.696963
0.432188
0.510806
0.59504
0.672406
0.738781
0.791104
0.828834
0.853941
0.870387
0.883263
0.897769
0.917747
0.945268
0.981006
1.02428
1.07333
1.12542
1.17768
1.22773
1.2742
1.3169
1.35684
1.39588
1.43634
1.48055
1.53048
1.58774
1.65361
1.72894
1.81424
1.90972
2.0153
2.13069
2.25533
2.38845
2.52899
2.67562
2.82665
2.98014
3.1339
3.28568
3.43329
3.5749
3.70892
3.83345
3.94519
4.03865
4.1082
4.14683
4.14536
4.0949
3.99
3.83089
3.62422
3.38179
3.11811
2.8489
2.58316
2.32569
2.08091
1.85236
1.64262
1.45343
1.28572
1.13961
1.01448
0.909125
0.821818
0.750529
0.693078
0.647272
0.611029
0.582414
0.559551
0.540651
0.524152
0.508815
0.493821
0.478852
0.464115
0.450311
0.438543
0.430141
0.426605
0.429169
0.438596
0.454904
0.47781
0.505727
0.535174
0.5623
0.583814
0.597799
0.60413
0.60431
0.600808
0.596147
0.592095
0.589136
0.586906
0.584678
0.58172
0.577661
0.572679
0.567472
0.563049
0.560444
0.560345
0.563001
0.568276
0.575671
0.584334
0.593154
0.600868
0.606141
0.607629
0.604019
0.594101
0.577115
0.552923
0.522273
0.486349
0.448355
0.413828
0.388601
0.377295
0.381936
0.401227
0.43075
0.464057
0.494243
0.515769
0.526049
0.523585
0.508661
0.483052
0.44985
0.412931
0.376133
0.343584
0.319069
0.305512
0.304521
0.316098
0.338638
0.36923
0.404183
0.43964
0.472328
0.499954
0.520867
0.533882
0.538327
0.534252
0.52237
0.504185
0.481689
0.458984
0.442063
0.437327
0.450271
0.484102
0.538753
0.610635
0.693237
0.778392
0.8578
0.926069
0.978927
1.01308
1.02628
1.01827
0.990001
0.943605
0.882309
0.810279
0.732238
0.652873
0.576164
0.50443
0.438446
0.378292
0.323289
0.272409
0.224694
0.17957
0.136994
0.0974376
0.0617921
0.0310703
0.00620971
-0.0120916
-0.0235157
-0.028245
-0.0266985
-0.0197855
-0.0101892
-0.00210686
0
-0.00843596
-0.0286108
-0.0602236
-0.100652
-0.145616
-0.190304
-0.230768
-0.242687
0.147564
0.807606
1.68383
2.66654
3.60291
4.31607
4.63511
4.44645
3.75386
2.70734
1.56452
0.591936
-0.0384919
-0.29492
-0.19954
-0.109992
-0.0267393
0.0461359
0.10566
0.151318
0.18657
0.214241
0.236236
0.254546
0.270936
0.286756
0.302877
0.319829
0.337953
0.357628
0.379427
0.404158
0.432773
0.466172
0.504984
0.549409
0.599196
0.653736
0.71251
0.775397
0.842918
0.916353
0.997662
1.08918
1.19314
1.31119
1.44391
1.59053
1.74902
1.91627
2.08856
2.2621
2.43333
2.59836
2.75156
2.88597
2.99694
3.07967
3.12976
3.14452
3.12389
3.0703
2.98743
2.87872
2.74635
2.59507
2.42931
2.25191
2.06488
1.87028
1.67048
1.46808
1.26555
1.06507
0.868312
0.676414
0.490157
0.310213
0.137464
-0.0266717
-0.178953
-0.314832
-0.430628
-0.523115
-0.590433
-0.632771
-0.652548
-0.653998
-0.642275
-0.622382
-0.598395
-0.572922
-0.547149
-0.521623
-0.496872
-0.473878
-0.454269
-0.440103
-0.433274
-0.434847
-0.444569
-0.460698
-0.480188
-0.49913
-0.51368
-0.521025
-0.519258
-0.507382
-0.485177
-0.453274
-0.414866
-0.375149
-0.339405
-0.311835
-0.294669
-0.287835
-0.289288
-0.29588
-0.304461
-0.312852
-0.320344
-0.327438
-0.335316
-0.345128
-0.357425
-0.371973
-0.387987
-0.404631
-0.421385
-0.438164
-0.454929
-0.471039
-0.484722
-0.493025
-0.492393
-0.476624
-0.438636
-0.381151
-0.3187
-0.269214
-0.24762
-0.260728
-0.305059
-0.36799
-0.431697
-0.478703
-0.499747
-0.498651
-0.482883
-0.457227
-0.4258
-0.393583
-0.36578
-0.346376
-0.337494
-0.339074
-0.348891
-0.362985
-0.376486
-0.38469
-0.384145
-0.374135
-0.356521
-0.333446
-0.307364
-0.281102
-0.257021
-0.236458
-0.219361
-0.204176
-0.188
-0.166986
-0.136907
-0.0938501
-0.035328
0.0404108
0.139609
0.270121
0.428758
0.592142
0.732173
0.825894
0.860462
0.835359
0.762038
0.661116
0.557171
0.471832
0.412314
0.372243
0.344329
0.324381
0.310591
0.301697
0.296869
0.295548
0.297209
0.300918
0.304207
0.303397
0.294505
0.274409
0.241993
0.198812
0.14899
0.0983595
0.053113
0.0175607
-0.00550032
-0.0151944
-0.0125615
0
0.0218543
0.0477339
0.0753632
0.103544
0.131928
0.160749
0.190583
0.222184
0.271645
0.624226
1.30921
2.30248
3.44493
4.47904
5.13652
5.23882
4.7666
3.86808
2.80239
1.84122
1.17185
0.84368
0.795877
0.841272
0.887921
0.934257
0.979187
1.02166
1.06096
1.09673
1.12883
1.15753
1.18355
1.20795
1.23203
1.25727
1.28518
1.31719
1.3545
1.39794
1.44777
1.5036
1.5647
1.62949
1.69509
1.75884
1.81937
1.87731
1.93546
1.99822
2.07049
2.1563
2.25787
2.37342
2.50032
2.63665
2.78089
2.93211
3.09016
3.25549
3.42875
3.61042
3.80193
4.00393
4.2104
4.40546
4.57146
4.69398
4.76402
4.77811
4.73713
4.64489
4.50697
4.3299
4.12136
3.89128
3.6486
3.40013
3.15042
2.90282
2.6607
2.42746
2.2063
2.00001
1.81082
1.64035
1.49006
1.36152
1.25492
1.16978
1.10514
1.0595
1.03091
1.01694
1.01495
1.0222
1.03607
1.05403
1.07402
1.09436
1.11359
1.13042
1.14369
1.15235
1.15582
1.154
1.14749
1.13773
1.12696
1.1181
1.11438
1.11893
1.13471
1.16578
1.21832
1.29945
1.40397
1.50758
1.58115
1.59759
1.54137
1.4175
1.25472
1.09933
0.999753
0.976422
1.01173
1.10125
1.21118
1.30343
1.35035
1.34488
1.3013
1.24647
1.206
1.19263
1.19586
1.20468
1.21397
1.21965
1.21953
1.21333
1.20213
1.18761
1.17145
1.15492
1.13892
1.12436
1.11229
1.10393
1.10045
1.10279
1.11169
1.12657
1.14524
1.16454
1.18093
1.19113
1.19273
1.18461
1.1671
1.14195
1.112
1.08072
1.05143
1.02702
1.00944
0.999265
0.996378
1.00008
1.00932
1.02245
1.03729
1.0519
1.0652
1.07737
1.09004
1.10604
1.12891
1.16201
1.20756
1.26756
1.34323
1.42705
1.50587
1.56655
1.59977
1.60233
1.57713
1.5311
1.47194
1.40528
1.33434
1.26053
1.18445
1.10659
1.02792
0.949932
0.874317
0.80251
0.735344
0.672775
0.613726
0.556506
0.49936
0.441073
0.381438
0.321438
0.26307
0.208867
0.161213
0.122033
0.0923048
0.0712909
0.056624
0.0452852
0.034404
0.0219492
0.0071195
-0.00964634
-0.0269974
-0.0431913
-0.0566794
-0.0666073
-0.0703871
0
0.292686
0.86156
1.71448
2.72434
3.66001
4.27281
4.38968
3.96943
3.10837
2.0071
0.915058
0.0633106
-0.401655
-0.4122
-0.252138
-0.097878
0.0402994
0.154878
0.241916
0.308087
0.354859
0.384966
0.40196
0.410014
0.413293
0.415536
0.420055
0.429464
0.445373
0.468075
0.497041
0.531416
0.570122
0.612107
0.656663
0.703649
0.753581
0.807579
0.867207
0.934243
1.01045
1.09738
1.19623
1.30777
1.43237
1.56989
1.71961
1.88023
2.04976
2.22563
2.40474
2.58363
2.75868
2.92583
3.08007
3.21721
3.33389
3.42712
3.49412
3.53204
3.53779
3.50797
3.4393
3.32931
3.17813
2.98775
2.76317
2.51217
2.24435
1.96986
1.69742
1.43336
1.18244
0.947979
0.732154
0.536429
0.361886
0.209348
0.0793048
-0.0283173
-0.114371
-0.180755
-0.230486
-0.267482
-0.296268
-0.321611
-0.347619
-0.377133
-0.411325
-0.449598
-0.489845
-0.529018
-0.563879
-0.591604
-0.610255
-0.619526
-0.620259
-0.613926
-0.602036
-0.585698
-0.565463
-0.541466
-0.513743
-0.482685
-0.449118
-0.414139
-0.379141
-0.345631
-0.315018
-0.288465
-0.266797
-0.250431
-0.239427
-0.233539
-0.232285
-0.235028
-0.241055
-0.249653
-0.260148
-0.271906
-0.284324
-0.29679
-0.308621
-0.31906
-0.327316
-0.332663
-0.334563
-0.332792
-0.327516
-0.319306
-0.309114
-0.298128
-0.287493
-0.278037
-0.270054
-0.263205
-0.256577
-0.248891
-0.238825
-0.225359
-0.207966
-0.186963
-0.163438
-0.139142
-0.116305
-0.0975466
-0.0859993
-0.0842432
-0.0941912
-0.116599
-0.152411
-0.200064
-0.25179
-0.297454
-0.32696
-0.332628
-0.310958
-0.263262
-0.195027
-0.114275
-0.0293905
0.053204
0.130773
0.203184
0.271185
0.335904
0.398536
0.459802
0.519576
0.576782
0.629495
0.675231
0.710946
0.733633
0.741007
0.731553
0.704823
0.661731
0.604744
0.537871
0.466343
0.395969
0.332061
0.278504
0.240503
0.220242
0.212465
0.209471
0.203868
0.191094
0.170738
0.146185
0.122852
0.105834
0.0972219
0.0949514
0.0970297
0.100645
0.102049
0.0971726
0.0824249
0.0552328
0.0144741
-0.0392691
-0.103679
-0.174919
-0.248686
0
0.640679
1.59944
2.74364
3.87658
4.7803
5.26935
5.24357
4.71959
3.82769
2.77411
1.7813
1.02813
0.607735
0.530953
0.626542
0.710609
0.782372
0.838122
0.876939
0.900661
0.91325
0.919736
0.925049
0.93296
0.945192
0.962212
0.984005
1.01021
1.04026
1.07366
1.11003
1.14921
1.19127
1.2364
1.28479
1.3365
1.39144
1.44941
1.51027
1.57422
1.64204
1.7151
1.79524
1.88429
1.98348
2.09289
2.21102
2.33502
2.46123
2.58549
2.70444
2.81638
2.92174
3.02311
3.12478
3.23718
3.39081
3.6046
3.83309
4.01627
4.10741
4.08941
3.97678
3.80362
3.60296
3.38714
3.14642
2.88254
2.60512
2.32128
2.03683
1.75777
1.49062
1.24164
1.01688
0.821225
0.655125
0.516638
0.402307
0.308227
0.230952
0.16796
0.117627
0.0788483
0.0502735
0.0303679
0.0173885
0.00932732
0.00417309
0.000156975
-0.00402813
-0.00919189
-0.0156504
-0.0232527
-0.0314419
-0.0393059
-0.0456764
-0.0492945
-0.0490231
-0.0440697
-0.0342854
-0.0200476
-0.00208092
0.0186195
0.0409845
0.0641079
0.0874004
0.110637
0.133884
0.157335
0.181112
0.205106
0.228894
0.251763
0.272837
0.291234
0.30618
0.317054
0.323239
0.32392
0.318772
0.307711
0.291097
0.269901
0.245726
0.220592
0.196533
0.175158
0.157334
0.143057
0.131937
0.123405
0.116998
0.112483
0.109803
0.108898
0.109526
0.11116
0.113152
0.114778
0.115357
0.114326
0.111214
0.105735
0.0977621
0.0873522
0.0747898
0.0605949
0.0454819
0.0302649
0.0157572
0.00267296
-0.00842114
-0.0169479
-0.0223337
-0.0240129
-0.0214951
-0.0144825
-0.00299797
0.0125376
0.0313822
0.0526358
0.07551
0.0996201
0.1252
0.153176
0.185048
0.222589
0.267429
0.32055
0.381918
0.450398
0.524081
0.59901
0.66961
0.730207
0.77595
0.803524
0.811475
0.800132
0.771239
0.727476
0.67214
0.609346
0.542666
0.475171
0.409648
0.348522
0.293566
0.245768
0.20528
0.171312
0.14215
0.115374
0.0883944
0.0589219
0.0253901
-0.0127597
-0.0549717
-0.0996713
-0.144561
-0.187051
-0.224873
-0.25651
-0.281027
-0.298577
-0.311049
-0.32224
-0.336748
-0.358913
-0.39189
-0.436945
-0.493126
-0.557361
-0.62587
-0.506083
0
0.884937
2.03096
3.22107
4.20922
4.78411
4.81187
4.26832
3.26516
2.04822
0.935135
0.196545
-0.0611591
0.0660316
0.146344
0.215352
0.276233
0.328083
0.371771
0.409483
0.443951
0.477594
0.511793
0.546669
0.581121
0.613132
0.640483
0.661495
0.675637
0.683869
0.688673
0.693804
0.703824
0.723289
0.755765
0.804077
0.870121
0.954254
1.0552
1.17018
1.29529
1.42617
1.55863
1.68931
1.81615
1.93864
2.05775
2.17564
2.29521
2.41952
2.5512
2.69198
2.84229
3.00106
3.16638
3.33417
3.49618
3.64127
3.75927
3.84188
3.88339
3.88061
3.83223
3.73815
3.59908
3.4168
3.19623
2.94704
2.68026
2.40606
2.13305
1.86855
1.6191
1.38972
1.18344
1.00125
0.842285
0.704426
0.585093
0.482842
0.397365
0.328412
0.276051
0.240614
0.221768
0.217784
0.225301
0.239678
0.255832
0.269241
0.2772
0.278435
0.273268
0.263274
0.250775
0.238361
0.228331
0.222613
0.222996
0.231001
0.248269
0.276668
0.318611
0.377654
0.456465
0.545811
0.624005
0.666084
0.651448
0.574201
0.45097
0.319472
0.225055
0.200245
0.232344
0.287155
0.352974
0.41751
0.470207
0.503992
0.516034
0.507601
0.483242
0.449553
0.413787
0.381965
0.35797
0.342851
0.335052
0.332232
0.332104
0.332378
0.331216
0.327491
0.320837
0.311542
0.300374
0.288449
0.27696
0.26714
0.260159
0.256994
0.258286
0.26423
0.274473
0.288234
0.304339
0.321373
0.337808
0.352188
0.363313
0.370362
0.372979
0.371296
0.365893
0.357697
0.347834
0.337463
0.327618
0.31909
0.312407
0.307856
0.305528
0.3054
0.30741
0.311515
0.317747
0.326257
0.337359
0.351568
0.369631
86
313
529
749
974
1196
1408
1623
1844
2069
2287
2503
2723
2944
3161
3368
3585
3685
3544
3173
3320
3467
3617
3609
3730
0
0
0
0
0
0
0
0
0
0
0
0
0
0
0
0
0
0
0
0
0
0
0
0
0
0
0
0
0
0
0
0
0
0
0
0
0
0
0
0
0
0
0
0
0
0
0
0
0
0
0
0
0
0
0
0
0
0
0
0
0
0
0
0
0
0
0
0
0
0
0
0
0
0
0
0
0
0
0
0
0
0
0
0
0
0
0
0
0
0
0
0
0
0
0
0
0
0
0
0
0
0
0
0
0
0
0
0
0
0
0
0
0
0
0
0
0
0
0
0
0
0
0
0
0
0
0
0
0
0
0
0
0
0
0
0
0
0
0
0
0
0
0
0
0
0
0
0
0
0
0
0
0
0
0
0
0
0
0
0
0
0
0
0
0
0
0
0
0
0
0
0
0
0
0
0
0
0
0
0
0
0
0
0
0
0
0
0
0
0
0
0
0
0
0
0
0
0
0
0
0
0
0
0
0
0
0
0
0
0
0
0
0
0
0
0
0
0
0
0
0
0
0
0
0
0
0
0
0
0
0
0
0
0
0
0
0
0
0
0
0
0
0
0
0
0
0
0
0
0
0
0
0
0
0
0
0
0
0
0
0
0
0
0
0
0
0
0
0
0
0
0
0
0
0
0
0
0
0
0
0
0
0
0
0
0
0
0
0
0
0
0
0
0
0
0
0
0
0
0
0
0
0
0
0
0
0
0
0
0
0
0
0
0
0
0
0
0
0
0
0
0
0
0
0
0
0
0
0
0
0
0
0
0
0
0
0
0
0
0
0
0
0
0
0
0
0
0
0
0
0
0
0
0
0
0
0
0
0
0
0
0
0
0
0
0
0
0
0
0
0
0
0
0
0
0
0
0
0
0
0
0
0
0
0
0
0
0
0
0
0
0
0
0
0
0
0
0
0
0
0
0
0
0
0
0
0
0
0
0
0
0
0
0
0
0
0
0
0
0
0
0
0
0
0
0
0
0
0
0
0
0
0
0
0
0
0
0
0
0
0
0
0
0
0
0
0
0
0
0
0
0
0
0
0
0
0
0
0
0
0
0
0
0
0
0
0
0
0
0
0
0
0
0
0
0
0
0
0
0
0
0
0
0
0
0
0
0
0
0
0
0
0
0
0
0
0
0
0
0
0
0
0
0
0
0
0
0
0
0
0
0
0
0
0
0
0
0
0
0
0
0
0
0
0
0
0
0
0
0
0
0
0
0
0
0
0
0
0
0
0
0
0
0
0
0
0
0
0
0
0
0
0
0
0
0
0
0
0
0
0
0
0
0
0
0
0
0
0
0
0
0
0
0
0
0
0
0
0
0
0
0
0
0
0
0
0
0
0
0
0
0
0
0
0
0
0
0
0
0
0
0
0
0
0
0
0
0
0
0
0
0
0
0
0
0
0
0
0
0
0
0
0
0
0
0
0
0
0
0
0
0
0
0
0
0
0
0
0
0
0
0
0
0
0
0
0
0
0
0
0
0
0
0
0
0
0
0
0
0
0
0
0
0
0
0
0
0
0
0
0
0
0
0
0
0
0
0
0
0
0
0
0
0
0
0
0
0
0
0
0
0
0
0
0
0
0
0
0
0
0
0
0
0
0
0
0
0
0
0
0
0
0
0
0
0
0
0
0
0
0
0
0
0
0
0
0
0
0
0
0
0
0
0
0
0
0
0
0
0
0
0
0
0
0
0
0
0
0
0
0
0
0
0
0
0
0
0
0
0
0
0
0
0
0
0
0
0
0
0
0
0
0
0
0
0
0
0
0
0
0
0
0
0
0
0
0
0
0
0
0
0
0
0
0
0
0
0
0
0
0
0
0
0
0
0
0
0
0
0
0
0
0
0
0
0
0
0
0
0
0
0
0
0
0
0
0
0
0
0
0
0
0
0
0
0
0
0
0
0
0
0
0
0
0
0
0
0
0
0
0
0
0
0
0
0
0
0
0
0
0
0
0
0
0
0
0
0
0
0
0
0
0
0
0
0
0
0
0
0
0
0
0
0
0
0
0
0
0
0
0
0
0
0
0
0
0
0
0
0
0
0
0
0
0
0
0
0
0
0
0
0
0
0
0
0
0
0
0
0
0
0
0
0
0
0
0
0
0
0
0
0
0
0
0
0
0
0
0
0
0
0
0
0
0
0
0
0
0
0
0
0
0
0
0
0
0
0
0
0
0
0
0
0
0
0
0
0
0
0
0
0
0
0
0
0
0
0
0
0
0
0
0
0
0
0
0
0
0
0
0
0
0
0
0
0
0
0
0
0
0
0
0
0
0
0
0
0
0
0
0
0
0
0
0
0
0
0
0
0
0
0
0
0
0
0
0
0
0
0
0
0
0
0
0
0
0
0
0
0
0
0
0
0
0
0
0
0
0
0
0
0
0
0
0
0
0
0
0
0
0
0
0
0
0
0
0
0
0
0
0
0
0
0
0
0
0
0
0
0
0
0
0
0
0
0
0
0
0
0
0
0
0
0
0
0
0
0
0
0
0
0
0
0
0
0
0
0
0
0
0
0
0
0
0
0
0
0
0
0
0
0
0
0
0
0
0
0
0
0
0
0
0
0
0
0
0
0
0
0
0
0
0
0
0
0
0
0
0
0
0
0
0
0
0
0
0
0
0
0
0
0
0
0
0
0
0
0
0
0
0
0
0
0
0
0
0
0
0
0
0
0
0
0
0
0
0
0
0
0
0
0
0
0
0
0
0
0
0
0
0
0
0
0
0
0
0
0
0
0
0
0
0
0
0
0
0
0
0
0
0
0
0
0
0
0
0
0
0
0
0
0
0
0
0
0
0
0
0
0
0
0
0
0
0
0
0
0
0
0
0
0
0
0
0
0
0
0
0
0
0
0
0
0
0
0
0
0
0
0
0
0
0
0
0
0
0
0
0
0
0
0
0
0
0
0
0
0
0
0
0
0
0
0
0
0
0
0
0
0
0
0
0
0
0
0
0
0
0
0
0
0
0
0
0
0
0
0
0
0
0
0
0
0
0
0
0
0
0
0
0
0
0
0
0
0
0
0
0
0
0
0
0
0
0
0
0
0
0
0
0
0
0
0
0
0
0
0
0
0
0
0
0
0
0
0
0
0
0
0
0
0
0
0
0
0
0
0
0
0
0
0
0
0
0
0
0
0
0
0
0
0
0
0
0
0
0
0
0
0
0
0
0
0
0
0
0
0
0
0
0
0
0
0
0
0
0
0
0
0
0
0
0
0
0
0
0
0
0
0
0
0
0
0
0
0
0
0
0
0
0
0
0
0
0
0
0
0
0
0
0
0
0
0
0
0
0
0
0
0
0
0
0
0
0
0
0
0
0
0
0
0
0
0
0
0
0
0
0
0
0
0
0
0
0
0
0
0
0
0
0
0
0
0
0
0
0
0
0
0
0
0
0
0
0
0
0
0
0
0
0
0
0
0
0
0
0
0
0
0
0
0
0
0
0
0
0
0
0
0
0
0
0
0
0
0
0
0
0
0
0
0
0
0
0
0
0
0
0
0
0
0
0
0
0
0
0
0
0
0
0
0
0
0
0
0
0
0
0
0
0
0
0
0
0
0
0
0
0
0
0
0
0
0
0
0
0
0
0
0
0
0
0
0
0
0
0
0
0
0
0
0
0
0
0
0
0
0
0
0
0
0
0
0
0
0
0
0
0
0
0
0
0
0
0
0
0
0
0
0
0
0
0
0
0
0
0
0
0
0
0
0
0
0
0
0
0
0
0
0
0
0
0
0
0
0
0
0
0
0
0
0
0
0
0
0
0
0
0
0
0
0
0
0
0
0
0
0
0
0
0
0
0
0
0
0
0
0
0
0
0
0
0
0
0
0
0
0
0
0
0
0
0
0
0
0
0
0
0
0
0
0
0
0
0
0
0
0
0
0
0
0
0
0
0
0
0
0
0
0
0
0
0
0
0
0
0
0
0
0
0
0
0
0
0
0
0
0
0
0
0
0
0
0
0
0
0
0
0
0
0
0
0
0
0
0
0
0
0
0
0
0
0
0
0
0
0
0
0
0
0
0
0
0
0
0
0
0
0
0
0
0
0
0
0
0
0
0
0
0
0
0
0
0
0
0
0
0
0
0
0
0
0
0
0
0
0
0
0
0
0
0
0
0
0
0
0
0
0
0
0
0
0
0
0
0
0
0
0
0
0
0
0
0
0
0
0
0
0
0
0
0
0
0
0
0
0
0
0
0
0
0
0
0
0
0
0
0
0
0
0
0
0
0
0
0
0
0
0
0
0
0
0
0
0
0
0
0
0
0
0
0
0
0
0
0
0
0
0
0
0
0
0
0
0
0
0
0
0
0
0
0
0
0
0
0
0
0
0
0
0
0
0
0
0
0
0
0
0
0
0
0
0
0
0
0
0
0
0
0
0
0
0
0
0
0
0
0
0
0
0
0
0
0
0
0
0
0
0
0
0
0
0
0
0
0
0
0
0
0
0
0
0
0
0
0
0
0
0
0
0
0
0
0
0
0
0
0
0
0
0
0
0
0
0
0
0
0
0
0
0
0
0
0
0
0
0
0
0
0
0
0
0
0
0
0
0
0
0
0
0
0
0
0
0
0
0
0
0
0
0
0
0
0
0
0
0
0
0
0
0
0
0
0
0
0
0
0
0
0
0
0
0
0
0
0
0
0
0
0
0
0
0
0
0
0
0
0
0
0
0
0
0
0
0
0
0
0
0
0
0
0
0
0
0
0
0
0
0
0
0
0
0
0
0
0
0
0
0
0
0
0
0
0
0
0
0
0
0
0
0
0
0
0
0
0
0
0
0
0
0
0
0
0
0
0
0
0
0
0
0
0
0
0
0
0
0
0
0
0
0
0
0
0
0
0
0
0
0
0
0
0
0
0
0
0
0
0
0
0
0
0
0
0
0
0
0
0
0
0
0
0
0
0
0
0
0
0
0
0
0
0
0
0
0
0
0
0
0
0
0
0
0
0
0
0
0
0
0
0
0
0
0
0
0
0
0
0
0
0
0
0
0
0
0
0
0
0
0
0
0
0
0
0
0
0
0
0
0
0
0
0
0
0
0
0
0
0
0
0
0
0
0
0
0
0
0
0
0
0
0
0
0
0
0
0
0
0
0
0
0
0
0
0
0
0
0
0
0
0
0
0
0
0
0
0
0
0
0
0
0
0
0
0
0
0
0
0
0
0
0
0
0
0
0
0
0
0
0
0
0
0
0
0
0
0
0
0
0
0
0
0
0
0
0
0
0
0
0
0
0
0
0
0
0
0
0
0
0
0
0
0
0
0
0
0
0
0
0
0
0
0
0
0
0
0
0
0
0
0
0
0
0
0
0
0
0
0
0
0
0
0
0
0
0
0
0
0
0
0
0
0
0
0
0
0
0
0
0
0
0
0
0
0
0
0
0
0
0
0
0
0
0
0
0
0
0
0
0
0
0
0
0
0
0
0
0
0
0
0
0
0
0
0
0
0
0
0
0
0
0
0
0
0
0
0
0
0
0
0
0
0
0
0
0
0
0
0
0
0
0
0
0
0
0
0
0
0
0
0
0
0
0
0
0
0
0
0
0
0
0
0
0
0
0
0
0
0
0
0
0
0
0
0
0
0
0
0
0
0
0
0
0
0
0
0
0
0
0
0
0
0
0
0
0
0
0
0
0
0
0
0
0
0
0
0
0
0
0
0
0
0
0
0
0
0
0
0
0
0
0
0
0
0
0
0
0
0
0
0
0
0
0
0
0
0
0
0
0
0
0
0
0
0
0
0
0
0
0
0
0
0
0
0
0
0
0
0
0
0
0
0
0
0
0
0
0
0
0
0
0
0
0
0
0
0
0
0
0
0
0
0
0
0
0
0
0
0
0
0
0
0
0
0
0
0
0
0
0
0
0
0
0
0
0
0
0
0
0
0
0
0
0
0
0
0
0
0
0
0
0
0
0
0
0
0
0
0
0
0
0
0
0
0
0
0
0
0
0
0
0
0
0
0
0
0
0
0
0
0
0
0
0
0
0
0
0
0
0
0
0
0
0
0
0
0
0
0
0
0
0
0
0
0
0
0
0
0
0
0
0
0
0
0
0
0
0
0
0
0
0
0
0
0
0
0
0
0
0
0
0
0
0
0
0
0
0
0
0
0
0
0
0
0
0
0
0
0
0
0
0
0
0
0
0
0
0
0
0
0
0
0
0
0
0
0
0
0
0
0
0
0
0
0
0
0
0
0
0
0
0
0
0
0
0
0
0
0
0
0
0
0
0
0
0
0
0
0
0
0
0
0
0
0
0
0
0
0
0
0
0
0
0
0
0
0
0
0
0
0
0
0
0
0
0
0
0
0
0
0
0
0
0
0
0
0
0
0
0
0
0
0
0
0
0
0
0
0
0
0
0
0
0
0
0
0
0
0
0
0
0
0
0
0
0
0
0
0
0
0
0
0
0
0
0
0
0
0
0
0
0
0
0
0
0
0
0
0
0
0
0
0
0
0
0
0
0
0
0
0
0
0
0
0
0
0
0
0
0
0
0
0
0
0
0
0
0
0
0
0
0
0
0
0
0
0
0
0
0
0
0
0
0
0
0
0
0
0
0
0
0
0
0
0
0
0
0
0
0
0
0
0
0
0
0
0
0
0
0
0
0
0
0
0
0
0
0
0
0
0
0
0
0
0
0
0
0
0
0
0
0
0
0
0
0
0
0
0
0
0
0
0
0
0
0
0
0
0
0
0
0
0
0
0
0
0
0
0
0
0
0
0
0
0
0
0
0
0
0
0
0
0
0
0
0
0
0
0
0
0
0
0
0
0
0
0
0
0
0
0
0
0
0
0
0
0
0
0
0
0
0
0
0
0
0
0
0
0
0
0
0
0
0
0
0
0
0
0
0
0
0
0
0
0
0
0
0
0
0
0
0
0
0
0
0
0
0
0
0
0
0
0
0
0
0
0
0
0
0
0
0
0
0
0
0
0
0
0
0
0
0
0
0
0
0
0
0
0
0
0
0
0
0
0
0
0
0
0
0
0
0
0
0
0
0
0
0
0
0
0
0
0
0
0
0
0
0
0
0
0
0
0
0
0
0
0
0
0
0
0
0
0
0
0
0
0
0
0
0
0
0
0
0
0
0
0
0
0
0
0
0
0
0
0
0
0
0
0
0
0
0
0
0
0
0
0
0
0
0
0
0
0
0
0
0
0
0
0
0
0
0
0
0
0
0
0
0
0
0
0
0
0
0
0
0
0
0
0
0
0
0
0
0
0
0
0
0
0
0
0
0
0
0
0
0
0
0
0
0
0
0
0
0
0
0
0
0
0
0
0
0
0
0
0
0
0
0
0
0
0
0
0
0
0
0
0
0
0
0
0
0
0
0
0
0
0
0
0
0
0
0
0
0
0
0
0
0
0
0
0
0
0
0
0
0
0
0
0
0
0
0
0
0
0
0
0
0
0
0
0
0
0
0
0
0
0
0
0
0
0
0
0
0
0
0
0
0
0
0
0
0
0
0
0
0
0
0
0
0
0
0
0
0
0
0
0
0
0
0
0
0
0
0
0
0
0
0
0
0
0
0
0
0
0
0
0
0
0
0
0
0
0
0
0
0
0
0
0
0
0
0
0
0
0
0
0
0
0
0
0
0
0
0
0
0
0
0
0
0
0
0
0
0
0
0
0
0
0
0
0
0
0
0
0
0
0
0
0
0
0
0
0
0
0
0
0
0
0
0
0
0
0
0
0
0
0
0
0
0
0
0
0
0
0
0
0
0
0
0
0
0
0
0
0
0
0
0
0
0
0
0
0
0
0
0
0
0
0
0
0
0
0
0
0
0
0
0
0
0
0
0
0
0
0
0
0
0
0
0
0
0
0
0
0
0
0
0
0
0
0
0
0
0
0
0
0
0
0
0
0
0
0
0
0
0
0
0
0
0
0
0
0
0
0
0
0
0
0
0
0
0
0
0
0
0
0
0
0
0
0
0
0
0
0
0
0
0
0
0
0
0
0
0
0
0
0
0
0
0
0
0
0
0
0
0
0
0
0
0
0
0
0
0
0
0
0
0
0
0
0
0
0
0
0
0
0
0
0
0
0
0
0
0
0
0
0
0
0
0
0
0
0
0
0
0
0
0
0
0
0
0
0
0
0
0
0
0
0
0
0
0
0
0
0
0
0
0
0
0
0
0
0
0
0
0
0
0
0
0
0
0
0
0
0
0
0
0
0
0
0
0
0
0
0
0
0
0
0
0
0
0
0
0
0
0
0
0
0
0
0
0
0
0
0
0
0
0
0
0
0
0
0
0
0
0
0
0
0
0
0
0
0
0
0
0
0
0
0
0
0
0
0
0
0
0
0
0
0
0
0
0
0
0
0
0
0
0
0
0
0
0
0
0
0
0
0
0
0
0
0
0
0
0
0
0
0
0
0
0
0
0
0
0
0
0
0
0
0
