0.718156
0.795158
0.877065
0.95044
1.00275
1.02508
1.01443
0.974695
0.916177
0.853548
0.802922
0.775949
0.777013
0.817558
0.908828
1.04586
1.20138
1.34003
1.43023
1.44998
1.38989
1.25439
1.06137
0.839571
0.622853
0.439245
0.296979
0.18962
0.109336
0.052317
0.0156929
-0.00361862
-0.00978317
-0.00823059
-0.00377045
0
0.025745
0.0467995
-0.13336
0.0990299
1.15043
3.17886
5.92719
8.70783
10.6334
11.0138
9.70318
7.17935
4.30232
1.9036
0.449828
-0.0516256
0.0858696
0.260713
0.400241
0.509989
0.583178
0.619243
0.623946
0.608525
0.588036
0.579175
0.596775
0.699761
0.980265
1.36734
1.7372
1.96537
1.98071
1.79731
1.5081
1.24452
1.12227
1.1765
1.30144
1.44671
1.59612
1.73594
1.85684
1.95575
2.03652
2.10901
2.18686
2.30235
2.4974
2.73899
2.95333
3.06552
3.04191
2.91028
2.74558
2.62958
2.61063
2.665
2.74803
2.8437
2.94586
3.04981
3.15206
3.25017
3.34241
3.42735
3.50341
3.56787
3.61702
3.64771
3.65656
3.64022
3.59553
3.51948
3.40922
3.26213
3.07635
2.85366
2.60129
2.32634
2.03777
1.7476
1.47705
1.30968
1.42786
1.75625
2.11615
2.31858
2.24662
1.90079
1.39709
0.923749
0.6689
0.670573
0.756595
0.883905
1.02185
1.1416
1.22204
1.25282
1.23378
1.17197
1.07788
0.96275
0.839273
0.715965
0.598868
0.493105
0.402927
0.331344
0.280731
0.253233
0.250238
0.273113
0.32564
0.416723
0.553949
0.717065
0.864991
0.952801
0.946663
0.838388
0.652452
0.440576
0.264374
0.172754
0.156361
0.18127
0.237431
0.313476
0.39735
0.476125
0.539483
0.581104
0.599254
0.596652
0.579642
0.556797
0.537182
0.528575
0.534416
0.554261
0.5889
0.636089
0.687683
0.734557
0.76961
0.790086
0.798584
0.802215
0.810068
0.829869
0.865111
0.912182
0.965424
1.01681
1.05821
1.08376
1.09148
1.08401
1.06815
1.0535
1.05018
1.07061
1.12978
1.21434
1.29672
1.34605
1.34131
1.28064
1.18248
1.07784
0.997283
0.958286
0.946596
0.949698
0.953222
0.941778
0.902501
0.827547
0.714996
0.568242
0.394385
0.20243
0
0.104612
0.796409
2.31263
4.64167
7.39286
9.87241
11.3434
11.3407
9.87521
7.42774
4.74047
2.51484
1.15832
0.691885
0.843267
1.04576
1.21591
1.3479
1.43139
1.46373
1.44999
1.40149
1.33316
1.2602
1.19504
1.1439
1.10731
1.08384
1.07227
1.07172
1.08136
1.10081
1.13038
1.1712
1.22507
1.29433
1.38348
1.50465
1.67815
1.90819
2.15527
2.36647
2.49447
2.51206
2.41928
2.24381
2.03692
1.86478
1.79336
1.83275
1.95107
2.11807
2.31549
2.53117
2.75299
2.96888
3.16796
3.34179
3.48544
3.59728
3.67847
3.73202
3.76166
3.77069
3.7606
3.73025
3.67814
3.60191
3.49969
3.37142
3.21964
3.04925
2.86653
2.67757
2.48695
2.29691
2.10795
1.91982
1.73275
1.54841
1.37032
1.20343
1.05316
0.923409
0.816841
0.734632
0.676312
0.64032
0.624691
0.627237
0.646473
0.681101
0.729572
0.790605
0.861366
0.935611
1.00487
1.06041
1.09487
1.10359
1.08532
1.04212
0.978584
0.900688
0.814828
0.726841
0.641168
0.561442
0.490962
0.432809
0.389895
0.365281
0.361408
0.379299
0.418411
0.476323
0.549878
0.632742
0.71773
0.797761
0.866562
0.91738
0.942118
0.936963
0.900051
0.832775
0.741059
0.635358
0.528658
0.432984
0.355947
0.295749
0.249915
0.213911
0.183087
0.154092
0.125351
0.0967581
0.0691113
0.0435778
0.0217527
0.00601177
-0.000595474
0.00522938
0.0266468
0.0703236
0.137045
0.212707
0.278105
0.315908
0.317672
0.287608
0.241309
0.199965
0.182646
0.197922
0.237344
0.292432
0.356411
0.419766
0.470645
0.498418
0.49504
0.456382
0.38336
0.282541
0.165724
0.0482389
-0.0539139
-0.128141
-0.166906
-0.157576
-0.104835
-0.0398485
0
-0.0128042
-0.102161
-0.267656
-0.491049
-0.744083
-1.00007
-1.24484
-1.47781
-1.11304
-0.37894
0.954833
3.10327
5.94267
8.83589
10.8089
11.0417
9.35892
6.3787
3.20176
0.840218
-0.247313
-0.265311
0.15574
-0.0214836
-0.185831
-0.325883
-0.42879
-0.485471
-0.49021
-0.450788
-0.385178
-0.314465
-0.255397
-0.214814
-0.188272
-0.163035
-0.123782
-0.0585487
0.02957
0.134941
0.254118
0.380272
0.502777
0.611324
0.697927
0.758382
0.792857
0.805527
0.803457
0.795129
0.788987
0.791211
0.80587
0.83619
0.884312
0.951015
1.03574
1.13668
1.25106
1.37548
1.50642
1.64062
1.77541
1.90877
2.03919
2.16542
2.28612
2.39966
2.50396
2.59659
2.67519
2.73758
2.78186
2.80644
2.80995
2.79108
2.74854
2.68116
2.5881
2.46976
2.32769
2.16466
1.98491
1.79392
1.5979
1.40306
1.21516
1.03885
0.87769
0.734265
0.610428
0.507399
0.427426
0.374311
0.347081
0.337439
0.334309
0.326227
0.304258
0.264375
0.20846
0.14368
0.0805316
0.0295288
-0.00337763
-0.0161839
-0.00779943
0.0200454
0.0638545
0.117075
0.172586
0.224163
0.267671
0.301694
0.327457
0.348108
0.367588
0.38936
0.415125
0.445301
0.478302
0.510069
0.535674
0.550705
0.552528
0.541105
0.519133
0.491501
0.464235
0.443162
0.431631
0.431015
0.442608
0.466225
0.498186
0.533577
0.567648
0.596807
0.619044
0.633633
0.640297
0.638311
0.626073
0.60154
0.563267
0.511886
0.450877
0.387768
0.333272
0.298837
0.294084
0.32457
0.390482
0.486515
0.60291
0.72733
0.847472
0.953609
1.03906
1.10107
1.14082
1.16264
1.17274
1.17778
1.18358
1.19387
1.21062
1.23467
1.26587
1.30312
1.34454
1.38746
1.42736
1.45868
1.47609
1.47567
1.45603
1.41868
1.36738
1.30673
1.24044
1.17029
1.09616
1.01627
0.928366
0.830529
0.721363
0.59928
0.461318
0.305554
0.135469
-0.0449961
-0.24888
0
1.09377
3.18569
6.03722
9.00529
11.2419
12.0424
11.1761
9.00248
6.28879
3.82525
2.07394
1.06344
0.554902
0.405864
0.533472
0.667294
0.801579
0.932099
1.05667
1.17576
1.29245
1.4103
1.53415
1.65895
1.76791
1.83885
1.85486
1.81366
1.72981
1.62908
1.53808
1.47497
1.43601
1.41407
1.40773
1.41756
1.44575
1.49601
1.57246
1.67797
1.81573
1.98961
2.18245
2.36985
2.52817
2.64179
2.70749
2.73481
2.74259
2.75322
2.78664
2.84909
2.93833
3.05248
3.19227
3.34977
3.50471
3.63718
3.73317
3.78881
3.81135
3.81609
3.8201
3.83525
3.8634
3.89559
3.92133
3.92952
3.91134
3.86156
3.77825
3.6618
3.51414
3.34352
3.15739
2.96172
2.76323
2.56961
2.38858
2.22744
2.09114
1.98144
1.89696
1.83346
1.78512
1.74506
1.70546
1.65997
1.60481
1.53919
1.46529
1.38754
1.31148
1.24248
1.18451
1.13921
1.10807
1.09198
1.09183
1.11584
1.20257
1.46218
1.86523
2.28778
2.56056
2.55471
2.26042
1.80388
1.38406
1.16415
1.18387
1.26514
1.3565
1.44643
1.52795
1.59669
1.65076
1.69013
1.71581
1.72916
1.73144
1.72349
1.70599
1.67966
1.64542
1.60444
1.55799
1.50726
1.4533
1.39707
1.33966
1.28274
1.22891
1.182
1.15196
1.18192
1.41574
1.85902
2.35617
2.71102
2.76768
2.47895
1.92902
1.304
0.838792
0.761525
0.902949
1.1038
1.33246
1.56971
1.79411
1.9869
2.13437
2.22902
2.26952
2.2597
2.20727
2.12244
2.01795
1.90508
1.79233
1.68565
1.58753
1.49689
1.4114
1.32723
1.23982
1.14457
1.03546
0.896613
0.683444
0.378421
0.00938892
-0.372627
-0.63236
0
1.57137
3.9603
6.72796
9.20932
10.7134
10.7943
9.47215
7.25136
4.88511
3.00434
1.84696
1.25826
0.932547
0.932306
0.96949
1.03416
1.13855
1.26467
1.38318
1.4652
1.4945
1.47484
1.42955
1.39368
1.42811
1.6235
1.92019
2.19141
2.31433
2.23448
1.99349
1.70691
1.50548
1.47456
1.69927
2.07987
2.45806
2.69202
2.70013
2.47997
2.10822
1.7237
1.48999
1.5299
1.71501
1.94401
2.18474
2.42371
2.65054
2.85743
3.03955
3.19492
3.32395
3.42856
3.51152
3.57591
3.62469
3.6605
3.68564
3.70216
3.71194
3.71659
3.71739
3.71506
3.70952
3.69973
3.68364
3.65819
3.61956
3.56351
3.48596
3.38364
3.25486
3.10021
2.9232
2.72977
2.52796
2.32709
2.13654
1.96437
1.81646
1.69588
1.60335
1.5375
1.4941
1.46799
1.45432
1.44909
1.44927
1.45244
1.45625
1.45674
1.44901
1.4284
1.39238
1.34229
1.28388
1.22634
1.17997
1.1534
1.1481
1.1632
1.19701
1.246
1.30562
1.37067
1.43689
1.50026
1.55711
1.60409
1.63824
1.65725
1.65972
1.6454
1.61529
1.57177
1.5185
1.4601
1.40181
1.3491
1.3071
1.28093
1.27533
1.29362
1.33739
1.41339
1.52543
1.65506
1.77764
1.86914
1.91315
1.90484
1.85045
1.76327
1.6589
1.55229
1.45337
1.3683
1.30325
1.26281
1.2492
1.26175
1.29693
1.34905
1.41154
1.47825
1.5443
1.60657
1.66154
1.70535
1.73421
1.74385
1.73046
1.69208
1.62984
1.54847
1.45582
1.36157
1.27499
1.20181
1.14513
1.10725
1.08811
1.08502
1.09184
1.09676
1.0847
1.04107
0.954563
0.819558
0.637364
0.41598
0.0470751
0
0.861465
2.80712
5.59103
8.5204
10.6721
11.2912
10.1662
7.74145
4.8757
2.40116
0.770818
-0.00456924
-0.166208
0.107633
0.363615
0.603539
0.819019
1.00351
1.15851
1.28893
1.39567
1.47899
1.54045
1.58194
1.60555
1.61352
1.60833
1.59258
1.56879
1.53924
1.50601
1.47129
1.43772
1.40966
1.39306
1.39538
1.42439
1.50948
1.69217
1.93403
2.16712
2.32281
2.36321
2.29835
2.18068
2.08046
2.05466
2.1178
2.22519
2.35198
2.48798
2.62643
2.76274
2.89469
3.022
3.14542
3.26567
3.38265
3.49479
3.59915
3.69174
3.76793
3.82303
3.85204
3.85079
3.81642
3.74752
3.64461
3.51064
3.35116
3.1742
2.98946
2.80714
2.63594
2.48192
2.35008
2.24242
2.15499
2.0812
2.0136
1.94551
1.87212
1.79079
1.70069
1.60211
1.49613
1.3848
1.27014
1.15501
1.04357
0.940945
0.852439
0.782433
0.733383
0.705231
0.695428
0.699567
0.712401
0.72891
0.745257
0.759283
0.770561
0.780242
0.790641
0.804586
0.824803
0.855138
0.896678
0.942251
0.981594
1.00589
1.01231
1.00601
0.998024
0.999854
1.01951
1.05109
1.07789
1.08004
1.04395
0.969028
0.868619
0.765185
0.682275
0.633532
0.614401
0.617617
0.639466
0.675096
0.718912
0.765293
0.80884
0.845803
0.874739
0.896756
0.915321
0.935504
0.962701
1.00108
1.05384
1.12013
1.19104
1.25448
1.29897
1.31685
1.30604
1.26965
1.21427
1.14806
1.07963
1.0154
0.96032
0.919687
0.901083
0.920709
1.01242
1.21034
1.47415
1.7263
1.89021
1.91284
1.78095
1.52635
1.21755
0.939297
0.76331
0.674945
0.626182
0.593576
0.562939
0.520151
0.453776
0.357142
0.229345
0.0749515
-0.09745
-0.277385
-0.442713
0
1.16799
3.18045
5.83705
8.56459
10.5859
11.2567
10.3811
8.30835
5.74489
3.40632
1.72728
0.782085
0.403305
0.43692
0.491192
0.543439
0.590411
0.630801
0.665987
0.700097
0.739327
0.791535
0.873394
1.00434
1.16936
1.32985
1.44228
1.47604
1.42615
1.31602
1.19022
1.09992
1.0854
1.13721
1.2279
1.34353
1.46907
1.58947
1.69313
1.77434
1.83378
1.87719
1.91275
1.94837
1.98916
2.03663
2.09135
2.15371
2.22417
2.30345
2.39294
2.49454
2.61029
2.74176
2.88943
3.05216
3.22718
3.40994
3.59448
3.77374
3.93871
4.07752
4.17906
4.23518
4.23953
4.18894
4.08503
3.93509
3.75128
3.54821
3.33926
3.13299
2.93128
2.73328
2.53737
2.34177
2.14571
1.95029
1.75937
1.5795
1.41834
1.28307
1.17887
1.10799
1.06968
1.06098
1.07761
1.11493
1.167
1.23087
1.30206
1.37249
1.43296
1.47448
1.48983
1.47479
1.42848
1.35298
1.25264
1.13358
1.00451
0.874107
0.754735
0.659002
0.597419
0.576168
0.595995
0.652661
0.738506
0.844188
0.959097
1.07392
1.17978
1.26846
1.33358
1.37204
1.38528
1.37953
1.36487
1.35335
1.35654
1.3805
1.43447
1.53614
1.68077
1.82757
1.92593
1.93295
1.83205
1.64368
1.42055
1.22694
1.111
1.06457
1.05093
1.05935
1.07905
1.10139
1.1211
1.13599
1.14558
1.14977
1.14838
1.14097
1.12787
1.11086
1.09327
1.07912
1.07193
1.07312
1.08185
1.09566
1.11129
1.12602
1.13895
1.15163
1.16791
1.19294
1.23181
1.29024
1.37337
1.48265
1.60554
1.71257
1.77193
1.75863
1.66505
1.50914
1.33466
1.20005
1.15885
1.30282
1.60628
1.95403
2.2175
2.31397
2.23559
2.04136
1.82371
1.6676
1.61534
1.61283
1.62301
1.62675
1.60598
1.54702
1.44279
1.2933
1.10091
0.858869
0.579123
0.285859
-0.00568619
-0.288552
0
1.08885
3.15492
6.01723
9.04285
11.3244
12.0913
11.1201
8.86101
6.18044
3.88806
2.36995
1.54336
1.09626
0.905082
0.921882
0.957348
1.01023
1.07674
1.14818
1.21377
1.26321
1.28907
1.2885
1.26395
1.22268
1.17548
1.13461
1.11045
1.10922
1.13228
1.18036
1.25248
1.33952
1.42857
1.50712
1.56606
1.60178
1.61695
1.61987
1.62249
1.63764
1.67452
1.7363
1.82166
1.92761
2.04853
2.17548
2.29835
2.40752
2.49577
2.55932
2.59823
2.61654
2.62188
2.62474
2.63727
2.6715
2.73735
2.86609
3.07864
3.32738
3.54624
3.6813
3.71757
3.68547
3.6406
3.62717
3.64748
3.65865
3.60521
3.4466
3.18075
2.84739
2.51021
2.22783
2.01067
1.82554
1.66479
1.51716
1.37059
1.2153
1.04632
0.864831
0.677625
0.496427
0.334211
0.201869
0.105672
0.0461861
0.0187702
0.0152569
0.0260826
0.0417847
0.0555611
0.0625648
0.0594296
0.0440842
0.0157879
-0.0253918
-0.0783775
-0.141059
-0.210353
-0.282428
-0.353126
-0.418538
-0.475431
-0.521531
-0.556296
-0.581055
-0.598489
-0.612133
-0.625817
-0.643171
-0.667205
-0.699969
-0.742263
-0.7932
-0.850606
-0.911189
-0.971019
-1.02613
-1.07248
-1.10905
-1.1397
-1.1709
-1.20926
-1.25885
-1.31953
-1.38692
-1.45396
-1.51317
-1.5599
-1.59349
-1.61326
-1.61864
-1.60941
-1.58551
-1.54714
-1.49368
-1.4247
-1.34436
-1.26303
-1.19218
-1.14088
-1.11274
-1.10464
-1.10809
-1.11286
-1.11111
-1.10033
-1.0837
-1.06751
-1.05722
-1.05431
-1.05573
-1.05611
-1.05121
-1.04047
-1.02689
-1.01405
-1.00254
-0.987593
-0.959818
-0.908797
-0.82777
-0.719324
-0.595046
-0.462696
-0.329209
-0.200146
-0.0785572
0.0353588
0.14373
0.249873
0.356914
0.466553
0.578508
0.690048
0.796125
0.890632
0.967639
1.0225
1.05258
1.05763
1.03974
1.00305
0.953296
0.897197
0.841618
0.792453
0.753791
0.727743
0.715612
0.715389
0.719997
0.719001
0.701028
0.655966
0.576965
0.461782
0.3132
0.138506
-0.0811508
0
0.863609
2.7353
5.45032
8.40784
10.7584
11.7582
11.108
9.08641
6.40352
3.86321
2.02398
1.03849
0.722552
0.793699
0.977618
1.14697
1.28092
1.35945
1.36964
1.31357
1.21306
1.10685
1.0395
1.04568
1.17178
1.37819
1.58939
1.73082
1.76138
1.68632
1.54868
1.40825
1.31915
1.29878
1.32178
1.37744
1.45216
1.52844
1.59071
1.62992
1.64601
1.64718
1.64636
1.6563
1.68553
1.73168
1.79056
1.85952
1.93639
2.01945
2.10766
2.20048
2.29738
2.39738
2.49843
2.59676
2.68776
2.76719
2.83257
2.88402
2.9245
2.95899
2.99306
3.03105
3.07511
3.12316
3.16841
3.20134
3.21174
3.19053
3.13066
3.02744
2.8787
2.68543
2.4573
2.20218
1.93021
1.6643
1.42851
1.24228
1.11564
1.04722
1.02596
1.03527
1.05804
1.08064
1.09681
1.10393
1.10049
1.0861
1.06135
1.02753
0.986588
0.941088
0.895326
0.854852
0.825193
0.810686
0.813358
0.832318
0.863888
0.902549
0.942384
0.978683
1.0095
1.03478
1.0559
1.07527
1.09533
1.11798
1.14374
1.16989
1.19114
1.2019
1.19849
1.18076
1.15217
1.11859
1.08614
1.05912
1.03826
1.02199
1.00882
0.996968
0.984996
0.972058
0.958023
0.943477
0.929705
0.918664
0.912816
0.91473
0.92727
0.9544
0.994431
1.0359
1.06339
1.06301
1.0283
0.963992
0.885864
0.816414
0.777849
0.781555
0.833489
0.930888
1.04374
1.13621
1.17917
1.15961
1.0835
0.971524
0.850679
0.745913
0.66954
0.619784
0.594761
0.595544
0.623249
0.681175
0.776101
0.912573
1.07807
1.24022
1.36497
1.42589
1.41219
1.33295
1.21545
1.09704
1.01213
0.978057
0.979554
0.998369
1.02071
1.0333
1.02649
0.995807
0.94173
0.868294
0.78135
0.687979
0.593796
0.502728
0.418095
0.342612
0.278032
0.224768
0.182104
0.148493
0.120517
0.093977
0.0645512
0.0284414
-0.0171114
-0.158789
0
1.063
3.14765
5.87982
8.49653
10.161
10.3351
9.0182
6.72833
4.24644
2.26774
1.13851
0.793799
0.884419
0.80715
0.740131
0.685678
0.651323
0.643333
0.664985
0.725079
0.817729
0.920331
1.00733
1.05867
1.0662
1.03546
0.982576
0.927753
0.888621
0.87248
0.876123
0.896007
0.930326
0.97741
1.03537
1.10218
1.17559
1.25314
1.33202
1.40887
1.48074
1.54586
1.6042
1.6575
1.70879
1.76139
1.81767
1.87839
1.94212
2.00621
2.06821
2.12759
2.18663
2.25038
2.32533
2.41729
2.52925
2.65811
2.80095
2.94843
3.08994
3.21628
3.3218
3.40505
3.46782
3.51308
3.54205
3.55256
3.53908
3.49319
3.40615
3.27177
3.08899
2.86309
2.60543
2.33162
2.05877
1.80043
1.5638
1.3546
1.17633
1.02993
0.91423
0.826542
0.763621
0.723462
0.702972
0.695752
0.696558
0.702463
0.713667
0.733366
0.768778
0.839223
0.941337
1.04622
1.11239
1.10645
1.02127
0.880235
0.725507
0.599046
0.528425
0.499075
0.496689
0.518706
0.56467
0.633625
0.725923
0.841529
0.976672
1.12167
1.25973
1.37214
1.44313
1.46297
1.43016
1.35203
1.24349
1.12366
1.01127
0.919857
0.851083
0.800474
0.764475
0.741213
0.728901
0.725773
0.730209
0.740625
0.755274
0.772182
0.789093
0.803471
0.81284
0.815329
0.810089
0.797688
0.780326
0.761791
0.747135
0.742106
0.752429
0.787649
0.87128
1.04071
1.27184
1.4954
1.62775
1.60242
1.40356
1.08161
0.738668
0.488602
0.41087
0.439484
0.512892
0.618614
0.744854
0.878696
1.00397
1.1064
1.17543
1.20528
1.19528
1.1495
1.07569
0.983656
0.883565
0.784207
0.690567
0.604555
0.526282
0.454944
0.387875
0.321348
0.251888
0.176994
0.0958857
0.0133683
-0.0626619
-0.123643
-0.162903
-0.177304
0
0.465117
1.24261
2.66278
4.8297
7.35469
9.40521
10.109
9.06987
6.63716
3.73041
1.33641
0.0179305
-0.260124
0.0625511
0.254862
0.426872
0.562588
0.652254
0.69418
0.695228
0.669762
0.636937
0.616539
0.624131
0.664825
0.731304
0.81444
0.903936
0.989197
1.06206
1.11871
1.16033
1.19218
1.22171
1.25607
1.29946
1.35342
1.41713
1.48679
1.5582
1.62855
1.69739
1.76651
1.83884
1.91701
2.00228
2.09347
2.18879
2.28671
2.38586
2.48522
2.58398
2.68131
2.77604
2.86681
2.95212
3.03084
3.10256
3.16787
3.22825
3.28579
3.34276
3.40118
3.46246
3.52727
3.59555
3.66638
3.73788
3.80576
3.86092
3.89108
3.88164
3.81876
3.69331
3.50433
3.26067
2.98007
2.68579
2.40127
2.1399
1.90721
1.70897
1.54781
1.42345
1.3334
1.27372
1.2394
1.22469
1.22343
1.22869
1.23186
1.22359
1.19563
1.14226
1.06177
0.957571
0.838336
0.717196
0.609887
0.543951
0.617402
0.908849
1.30212
1.63623
1.77634
1.67398
1.39455
1.09157
0.930295
0.992763
1.16103
1.34327
1.47493
1.51395
1.45607
1.33379
1.20052
1.10847
1.08952
1.11688
1.18334
1.26424
1.32282
1.32364
1.24401
1.08384
0.869844
0.650137
0.479096
0.397207
0.402577
0.478067
0.587707
0.691407
0.760402
0.786461
0.781236
0.767045
0.76425
0.781022
0.809562
0.83702
0.849065
0.836307
0.798359
0.744073
0.688157
0.645865
0.628031
0.631986
0.651626
0.682861
0.722047
0.765022
0.807975
0.848193
0.884281
0.916067
0.944226
0.969751
0.993353
1.01516
1.03453
1.05024
1.06092
1.06553
1.06374
1.05608
1.04367
1.02783
1.00948
0.988416
0.96255
0.928255
0.8807
0.814853
0.726766
0.612142
0.468348
0.297196
0.106023
-0.0918052
-0.286577
-0.473512
-0.508039
0
1.33048
3.5626
6.35874
8.99678
10.6467
10.7596
9.3425
6.94238
4.35198
2.23452
0.89693
0.30684
0.277425
0.641299
0.974444
1.23851
1.39664
1.42948
1.35007
1.20503
1.05822
0.965383
0.95473
0.993308
1.05508
1.12986
1.21193
1.29536
1.373
1.43857
1.48726
1.51625
1.52518
1.516
1.49238
1.45859
1.41869
1.37647
1.33513
1.29815
1.27005
1.2558
1.26021
1.28679
1.33691
1.40937
1.50086
1.60698
1.72337
1.84604
1.97292
2.10322
2.23672
2.37328
2.51231
2.65207
2.78763
2.90939
3.00612
3.06722
3.08614
3.06344
3.00794
2.93519
2.8634
2.80795
2.77362
2.75406
2.7438
2.72881
2.69073
2.61198
2.48068
2.29455
2.06239
1.80244
1.53784
1.29062
1.07063
0.880327
0.720973
0.590313
0.484287
0.398773
0.330819
0.279085
0.243519
0.224491
0.220574
0.230979
0.254274
0.284897
0.313086
0.329587
0.328655
0.310428
0.281636
0.254052
0.240948
0.252723
0.291803
0.356822
0.436488
0.515337
0.577934
0.612428
0.612531
0.577782
0.51261
0.424848
0.325093
0.223068
0.126552
0.0418693
-0.026736
-0.075079
-0.101132
-0.104559
-0.0867185
-0.0505225
-7.8249e-005
0.05989
0.124736
0.190495
0.254275
0.314341
0.368868
0.416178
0.454852
0.483616
0.501771
0.509658
0.50884
0.501815
0.491303
0.479368
0.466789
0.453002
0.436728
0.417074
0.39463
0.372045
0.353717
0.344614
0.34864
0.369087
0.404117
0.447514
0.49188
0.53152
0.564483
0.592891
0.621497
0.655258
0.697146
0.746199
0.79998
0.856619
0.914897
0.974963
1.03844
1.10792
1.18638
1.278
1.3838
1.49294
1.5873
1.64766
1.65969
1.61825
1.52845
1.40367
1.26154
1.11959
0.988773
0.871362
0.766828
0.674665
0.591204
0.510659
0.426464
0.33266
0.224465
0.0994002
-0.0403336
-0.189786
-0.359137
0
1.10412
3.06691
5.66116
8.29519
10.2178
10.8463
10.0245
8.06193
5.55562
3.13405
1.26371
0.171744
-0.149253
0.06117
0.197912
0.30505
0.375265
0.407512
0.406702
0.381275
0.339796
0.288243
0.230648
0.16885
0.103865
0.0378257
-0.025473
-0.0808208
-0.122579
-0.140714
-0.123264
-0.0785142
-0.0239695
0.0204886
0.0406146
0.033321
0.00712471
-0.0223643
-0.0393573
-0.0338067
-0.0105905
0.0240111
0.0662227
0.11218
0.158061
0.200924
0.239877
0.276438
0.314457
0.359445
0.417294
0.492632
0.587282
0.699401
0.822377
0.949607
1.07404
1.18952
1.29172
1.37844
1.44928
1.50507
1.54723
1.57699
1.59521
1.60222
1.59777
1.58093
1.54992
1.50244
1.43546
1.34542
1.22916
1.08518
0.913829
0.718224
0.50454
0.281661
0.0603136
-0.148365
-0.333864
-0.487899
-0.604978
-0.676653
-0.696055
-0.672004
-0.623516
-0.570835
-0.531059
-0.514925
-0.525497
-0.558838
-0.606153
-0.65666
-0.70112
-0.734998
-0.757047
-0.767356
-0.767872
-0.762448
-0.754905
-0.747515
-0.739823
-0.728218
-0.706476
-0.667208
-0.598883
-0.477398
-0.303557
-0.116058
0.0358732
0.112245
0.0981056
0.00863705
-0.117731
-0.234015
-0.300297
-0.309241
-0.278568
-0.22104
-0.143465
-0.0513493
0.0493404
0.151195
0.247094
0.331105
0.398931
0.447986
0.477116
0.486135
0.47542
0.445843
0.399669
0.337881
0.263879
0.189927
0.131504
0.103531
0.116218
0.172029
0.265004
0.382658
0.50956
0.631194
0.740118
0.834271
0.911303
0.970578
1.01272
1.03917
1.0515
1.05223
1.04455
1.03261
1.02183
1.01909
1.03208
1.0684
1.13424
1.23391
1.38318
1.59524
1.84545
2.08601
2.27244
2.37555
2.38664
2.31514
2.18157
2.01065
1.8282
1.65851
1.51461
1.40248
1.32538
1.28985
1.31135
1.41173
1.59966
1.82523
2.02122
2.1161
2.04393
1.76928
1.3074
0.716775
0.0671507
0
0.831674
2.75483
5.62966
8.92644
11.7961
13.3485
13.0451
10.985
7.88459
4.74
2.36697
1.09281
0.753114
0.933252
1.06845
1.18487
1.28565
1.36659
1.42629
1.46556
1.48729
1.49586
1.49632
1.49368
1.49226
1.49524
1.5047
1.52167
1.54633
1.57825
1.61656
1.66013
1.70765
1.75792
1.80964
1.86175
1.91386
1.96635
2.02021
2.07645
2.13592
2.19708
2.25393
2.29891
2.32691
2.33909
2.34448
2.35804
2.39598
2.47007
2.58001
2.71405
2.86278
3.01843
3.17348
3.32157
3.45825
3.58141
3.69129
3.79017
3.88175
3.97014
4.05995
4.15656
4.25792
4.34727
4.40004
4.39347
4.31585
4.17108
3.97633
3.75445
3.52543
3.30071
3.08229
2.86973
2.66334
2.46443
2.27506
2.09775
1.93498
1.78868
1.65993
1.54899
1.45484
1.37563
1.30933
1.25414
1.20878
1.17243
1.14456
1.12452
1.11123
1.10298
1.09762
1.09282
1.08624
1.07579
1.05972
1.03655
1.00492
0.963233
0.909667
0.842818
0.761911
0.667493
0.560197
0.444602
0.333885
0.243852
0.188792
0.177102
0.208406
0.273384
0.356551
0.440932
0.512875
0.569811
0.612848
0.643558
0.665162
0.681368
0.695369
0.708931
0.722034
0.731998
0.73461
0.726222
0.705953
0.676981
0.646186
0.622059
0.611573
0.617366
0.635209
0.65802
0.678996
0.692013
0.69322
0.681877
0.66027
0.632873
0.605148
0.582086
0.567062
0.562149
0.568182
0.584561
0.609339
0.639535
0.6713
0.700468
0.723217
0.736601
0.738934
0.729922
0.710544
0.682725
0.648904
0.611627
0.573197
0.535429
0.499574
0.466291
0.435631
0.407092
0.37959
0.351574
0.32144
0.287921
0.250366
0.208759
0.163418
0.114407
0.0607658
0
-0.0661179
-0.148209
-0.251123
-0.37836
-0.530937
-0.707505
-0.902578
-1.10833
-1.35143
-1.15238
-0.196252
1.68884
4.31752
7.07868
9.10599
9.64886
8.45692
5.94048
2.98416
0.512154
-0.93114
-1.33994
-1.0922
-0.789535
-0.512547
-0.271399
-0.0817146
0.0461899
0.107659
0.105613
0.0520844
-0.0321632
-0.121139
-0.189931
-0.221622
-0.218961
-0.194189
-0.156525
-0.111715
-0.0649338
-0.0200272
0.0207809
0.0567009
0.0878784
0.114794
0.137962
0.157784
0.174751
0.189852
0.204964
0.223043
0.247967
0.283976
0.33467
0.402127
0.486344
0.587229
0.699164
0.814166
0.92444
1.02429
1.11113
1.18532
1.24884
1.30192
1.34458
1.37486
1.39055
1.39219
1.38556
1.38236
1.39847
1.45024
1.57771
1.83782
2.17601
2.49832
2.71689
2.78184
2.69371
2.49487
2.24429
1.98684
1.73478
1.47873
1.21771
0.954076
0.691473
0.435643
0.194072
-0.0251526
-0.215009
-0.370586
-0.489806
-0.573561
-0.62532
-0.65038
-0.655008
-0.645675
-0.62856
-0.609046
-0.591935
-0.581063
-0.579107
-0.587341
-0.60541
-0.631236
-0.66121
-0.690701
-0.714848
-0.729634
-0.73238
-0.721461
-0.698372
-0.666465
-0.630152
-0.594001
-0.561966
-0.53689
-0.520316
-0.512527
-0.512642
-0.518644
-0.528021
-0.537648
-0.543958
-0.543207
-0.531936
-0.50779
-0.469082
-0.413535
-0.338288
-0.24816
-0.156532
-0.0782982
-0.0253815
-0.00305328
-0.00884781
-0.0345478
-0.0700455
-0.106893
-0.140373
-0.16921
-0.191757
-0.206061
-0.209934
-0.201383
-0.179304
-0.144725
-0.100021
-0.0488876
0.00350533
0.0500801
0.0837833
0.0988655
0.0918827
0.0623711
0.0130257
-0.0506905
-0.121438
-0.191146
-0.252404
-0.300859
-0.333065
-0.346379
-0.339734
-0.313706
-0.268868
-0.209293
-0.14291
-0.0792339
-0.0283657
0
0.00755005
-0.0224495
-0.0942772
-0.209475
-0.365941
-0.556709
-0.773641
-1.03718
-1.20771
-0.632184
0.953515
3.45363
6.3226
8.70441
9.78396
9.18029
7.14718
4.44435
1.95026
0.257046
-0.51813
-0.639327
-0.535025
-0.469697
-0.404952
-0.338304
-0.267358
-0.190144
-0.105044
-0.0110977
0.0918034
0.202904
0.320868
0.442324
0.559974
0.664273
0.745811
0.797712
0.817822
0.80981
0.782615
0.748287
0.71893
0.703343
0.703192
0.716817
0.743549
0.782213
0.831853
0.892305
0.964333
1.0493
1.14849
1.26235
1.38998
1.52863
1.67434
1.82301
1.97048
2.11269
2.24516
2.36391
2.46679
2.55295
2.6232
2.6802
2.72825
2.77253
2.81786
2.86739
2.92131
2.97758
3.03144
3.07645
3.1058
3.11355
3.09542
3.04917
2.9746
2.87314
2.7475
2.60155
2.44044
2.26925
2.09237
1.91382
1.73751
1.56719
1.4063
1.25785
1.12436
1.00784
0.909711
0.830723
0.770865
0.729198
0.703747
0.691534
0.688725
0.690517
0.691472
0.686887
0.67383
0.651929
0.623655
0.593921
0.568983
0.554863
0.559212
0.586004
0.628688
0.676156
0.717166
0.744854
0.759449
0.768062
0.78167
0.810532
0.859076
0.92582
1.00154
1.07265
1.12547
1.1504
1.14447
1.11171
1.0614
1.00516
0.954064
0.914133
0.88696
0.87303
0.872459
0.884454
0.906631
0.935546
0.967809
1.00065
1.03219
1.06137
1.08742
1.10895
1.12327
1.12719
1.11742
1.09217
1.05243
1.00247
0.949123
0.900251
0.862988
0.8406
0.835162
0.848078
0.879757
0.929321
0.995403
1.07607
1.16823
1.26664
1.36346
1.44878
1.51327
1.54976
1.55463
1.52854
1.47636
1.40626
1.32803
1.2511
1.1821
1.123
1.07308
1.03076
0.993282
0.956993
0.917838
0.871806
0.81528
0.745307
0.659834
0.557943
0.438961
0.3043
0.157823
0
-0.0723977
0.369275
1.6022
3.74634
6.55606
9.34228
11.1692
11.2948
9.60583
6.73773
3.7616
1.62674
0.716
0.778278
1.18806
1.13306
1.07771
1.02762
0.989619
0.970931
0.979888
1.0328
1.13092
1.24467
1.33559
1.37123
1.33892
1.2521
1.14543
1.05994
1.02482
1.03709
1.07418
1.12505
1.18068
1.2381
1.30181
1.3818
1.49126
1.66209
1.88843
2.12487
2.3153
2.41752
2.4197
2.34261
2.22984
2.13228
2.09273
2.11266
2.17263
2.25857
2.36408
2.47935
2.59423
2.70043
2.79314
2.87186
2.94001
3.00372
3.06995
3.14469
3.23038
3.32716
3.43372
3.54598
3.65497
3.74691
3.8071
3.82196
3.78136
3.68048
3.52066
3.30872
3.05543
2.77361
2.47905
2.18384
1.89611
1.62354
1.37303
1.15011
0.958437
0.799213
0.670881
0.569416
0.489327
0.424685
0.370108
0.321473
0.276197
0.233113
0.192055
0.153427
0.11766
0.0850906
0.0560052
0.0307699
0.00990524
-0.00600948
-0.0164917
-0.0215447
-0.0220915
-0.0198319
-0.0169855
-0.0158606
-0.0183678
-0.0255783
-0.0373722
-0.0522079
-0.0670632
-0.0774675
-0.0781081
-0.0637898
-0.0306705
0.0225359
0.0946428
0.181308
0.272483
0.356875
0.424599
0.469402
0.489783
0.48876
0.472463
0.448104
0.421954
0.397546
0.375511
0.354855
0.333434
0.308602
0.278369
0.242426
0.202846
0.164197
0.132954
0.117496
0.133379
0.196483
0.298694
0.412149
0.504039
0.549378
0.540511
0.489841
0.425002
0.37821
0.373666
0.410619
0.472637
0.547762
0.626598
0.701802
0.769854
0.831293
0.889514
0.948709
1.0118
1.07858
1.14695
1.21316
1.27146
1.31485
1.33756
1.33554
1.30726
1.2541
1.18022
1.09155
0.994274
0.893222
0.790771
0.686854
0.57991
0.467199
0.345397
0.211129
0.061973
-0.0992258
-0.267286
-0.436588
-0.489319
0
1.38623
3.80895
6.92206
9.91436
11.8329
12.0469
10.5593
7.96698
5.11562
2.69842
1.03851
0.12429
-0.221021
-0.0763811
0.0744778
0.227675
0.381553
0.53327
0.678862
0.815079
0.937199
1.04023
1.12037
1.17634
1.21038
1.2281
1.23724
1.24547
1.25812
1.27704
1.29962
1.32073
1.33556
1.34227
1.34346
1.34576
1.35775
1.3872
1.43819
1.50762
1.59046
1.6825
1.77977
1.87841
1.97501
2.06639
2.14974
2.2237
2.28815
2.34452
2.39588
2.44667
2.50184
2.56572
2.64096
2.72787
2.82417
2.92779
3.03693
3.1505
3.26885
3.39412
3.52504
3.64902
3.74511
3.79084
3.77142
3.68516
3.54262
3.36068
3.15615
2.94354
2.7321
2.52625
2.32923
2.14398
1.9729
1.81722
1.67639
1.54842
1.4303
1.31871
1.21077
1.10462
0.999736
0.896806
0.797335
0.703061
0.615719
0.536619
0.466246
0.404778
0.352541
0.310407
0.279889
0.262812
0.260606
0.276478
0.311347
0.357602
0.403946
0.439462
0.457297
0.456836
0.443279
0.424737
0.408184
0.396328
0.38633
0.372149
0.348864
0.316791
0.283086
0.259712
0.258452
0.287995
0.345453
0.4143
0.474069
0.510521
0.523258
0.526871
0.552989
0.67014
0.859626
1.02691
1.0585
0.89439
0.56891
0.197435
-0.080966
-0.172241
-0.142104
-0.0676096
0.0349133
0.148762
0.259529
0.358871
0.441376
0.501006
0.535718
0.545531
0.532833
0.502799
0.46345
0.424937
0.397912
0.391314
0.41005
0.459898
0.534949
0.618458
0.691794
0.740409
0.758372
0.750111
0.72893
0.71281
0.718759
0.756108
0.821401
0.90533
0.999591
1.09373
1.1773
1.24156
1.28059
1.29159
1.27449
1.23116
1.16458
1.07884
0.977884
0.865503
0.745873
0.623415
0.503069
0.389925
0.288143
0.200106
0.125928
0.0635828
0.0096529
-0.0395762
-0.0871401
-0.135029
-0.345857
0
1.2726
3.56162
6.51382
9.37429
11.249
11.4917
10.0104
7.31913
4.29636
1.78356
0.251104
-0.30538
-0.215765
0.0817124
0.351977
0.589213
0.778693
0.910491
0.982928
1.0049
0.995258
0.978322
0.976535
1.00307
1.05483
1.1199
1.18798
1.25012
1.30205
1.34555
1.3873
1.43577
1.49759
1.57359
1.65888
1.74787
1.83407
1.91123
1.97475
2.02244
2.05478
2.07443
2.08559
2.09325
2.1026
2.11864
2.14641
2.19102
2.25744
2.35016
2.47254
2.62921
2.83425
3.09589
3.39045
3.66938
3.88668
4.01085
4.03105
3.95814
3.82183
3.66383
3.52646
3.43833
3.39484
3.37576
3.36703
3.35852
3.34088
3.30689
3.25207
3.17474
3.07566
2.95879
2.82939
2.69186
2.55042
2.40893
2.2703
2.13617
2.00723
1.88327
1.76349
1.64689
1.53272
1.42087
1.31204
1.20756
1.10909
1.01819
0.936021
0.863187
0.79996
0.747881
0.708606
0.683584
0.674316
0.68148
0.7042
0.739912
0.784954
0.835606
0.888986
0.943255
0.997183
1.04842
1.09256
1.12343
1.13542
1.12674
1.10141
1.06884
1.04057
1.02574
1.02664
1.03928
1.05421
1.06
1.04735
1.01225
0.957068
0.889526
0.819894
0.757763
0.708125
0.671369
0.646405
0.632969
0.630981
0.641058
0.664487
0.702812
0.760597
0.84019
0.933357
1.02335
1.09123
1.12123
1.10517
1.04428
0.948543
0.834022
0.719447
0.621022
0.546426
0.497454
0.479877
0.502533
0.557103
0.618576
0.659979
0.661939
0.620536
0.549899
0.477947
0.436623
0.48475
0.630049
0.814445
0.957031
0.993423
0.901891
0.707155
0.466092
0.245371
0.0989069
0.0192724
-0.0215297
-0.0395663
-0.0423654
-0.035688
-0.0247716
-0.0136755
-0.00497994
0.000150537
0.00163026
0
-0.00306416
-0.00769835
-0.0133148
-0.0202702
-0.0125326
0.442495
1.63213
3.54409
5.76342
7.61025
8.45253
8.00291
6.42867
4.23218
2.00292
0.196916
-0.957968
-1.43619
-1.13712
-0.846159
-0.578664
-0.357131
-0.199306
-0.10495
-0.0486888
-0.0225718
-0.0191912
-0.0307848
-0.0501356
-0.0713524
-0.0904995
-0.104605
-0.111286
-0.108614
-0.0950819
-0.069756
-0.0323101
0.0167695
0.0760637
0.143272
0.215364
0.288882
0.360359
0.426796
0.486397
0.538916
0.585755
0.629746
0.674598
0.724058
0.780963
0.847044
0.922626
1.00295
1.08141
1.15225
1.21286
1.26501
1.31426
1.36788
1.43203
1.5094
1.59634
1.68771
1.7783
1.86246
1.93524
1.99312
2.03417
2.05782
2.06428
2.05395
2.02687
1.98262
1.92064
1.84052
1.74241
1.62763
1.49858
1.35843
1.21041
1.0571
0.900027
0.739751
0.576581
0.411657
0.248206
0.0944006
-0.0377409
-0.134647
-0.173009
-0.113279
0.0165361
0.163516
0.272588
0.30927
0.26949
0.172795
0.0461085
-0.089775
-0.223562
-0.351435
-0.469371
-0.571264
-0.650382
-0.700443
-0.717276
-0.700322
-0.648389
-0.566338
-0.472894
-0.387889
-0.326971
-0.297796
-0.2991
-0.322839
-0.358344
-0.396516
-0.432366
-0.4653
-0.495322
-0.522118
-0.544439
-0.559924
-0.565492
-0.55809
-0.536748
-0.501199
-0.450108
-0.382872
-0.307361
-0.238826
-0.192052
-0.175448
-0.186312
-0.21027
-0.226268
-0.215386
-0.169117
-0.0981537
-0.0165495
0.0654276
0.13893
0.198504
0.242717
0.273646
0.295848
0.315491
0.338854
0.372243
0.421516
0.497128
0.617276
0.772913
0.931056
1.0517
1.10456
1.08257
1.0049
0.908481
0.831952
0.799601
0.799935
0.817703
0.838298
0.846485
0.830643
0.785529
0.712765
0.619158
0.513761
0.404926
0.297984
0.194591
0.0953616
0
-0.0487438
0.383497
1.54095
3.53164
6.12735
8.72835
10.5407
10.9249
9.73006
7.39446
4.73274
2.53197
1.20765
0.710193
0.689911
0.716541
0.753078
0.798646
0.855582
0.924182
1.00256
1.0871
1.17343
1.25753
1.33684
48
231
414
598
774
948
1127
1322
1526
1723
1909
2094
2282
2470
2656
2828
3007
3189
3377
3559
3732
3213
3367
3515
3662
3596
3740
0
0
0
0
0
0
0
0
0
0
0
0
0
0
0
0
0
0
0
0
0
0
0
0
0
0
0
0
0
0
0
0
0
0
0
0
0
0
0
0
0
0
0
0
0
0
0
0
0
0
0
0
0
0
0
0
0
0
0
0
0
0
0
0
0
0
0
0
0
0
0
0
0
0
0
0
0
0
0
0
0
0
0
0
0
0
0
0
0
0
0
0
0
0
0
0
0
0
0
0
0
0
0
0
0
0
0
0
0
0
0
0
0
0
0
0
0
0
0
0
0
0
0
0
0
0
0
0
0
0
0
0
0
0
0
0
0
0
0
0
0
0
0
0
0
0
0
0
0
0
0
0
0
0
0
0
0
0
0
0
0
0
0
0
0
0
0
0
0
0
0
0
0
0
0
0
0
0
0
0
0
0
0
0
0
0
0
0
0
0
0
0
0
0
0
0
0
0
0
0
0
0
0
0
0
0
0
0
0
0
0
0
0
0
0
0
0
0
0
0
0
0
0
0
0
0
0
0
0
0
0
0
0
0
0
0
0
0
0
0
0
0
0
0
0
0
0
0
0
0
0
0
0
0
0
0
0
0
0
0
0
0
0
0
0
0
0
0
0
0
0
0
0
0
0
0
0
0
0
0
0
0
0
0
0
0
0
0
0
0
0
0
0
0
0
0
0
0
0
0
0
0
0
0
0
0
0
0
0
0
0
0
0
0
0
0
0
0
0
0
0
0
0
0
0
0
0
0
0
0
0
0
0
0
0
0
0
0
0
0
0
0
0
0
0
0
0
0
0
0
0
0
0
0
0
0
0
0
0
0
0
0
0
0
0
0
0
0
0
0
0
0
0
0
0
0
0
0
0
0
0
0
0
0
0
0
0
0
0
0
0
0
0
0
0
0
0
0
0
0
0
0
0
0
0
0
0
0
0
0
0
0
0
0
0
0
0
0
0
0
0
0
0
0
0
0
0
0
0
0
0
0
0
0
0
0
0
0
0
0
0
0
0
0
0
0
0
0
0
0
0
0
0
0
0
0
0
0
0
0
0
0
0
0
0
0
0
0
0
0
0
0
0
0
0
0
0
0
0
0
0
0
0
0
0
0
0
0
0
0
0
0
0
0
0
0
0
0
0
0
0
0
0
0
0
0
0
0
0
0
0
0
0
0
0
0
0
0
0
0
0
0
0
0
0
0
0
0
0
0
0
0
0
0
0
0
0
0
0
0
0
0
0
0
0
0
0
0
0
0
0
0
0
0
0
0
0
0
0
0
0
0
0
0
0
0
0
0
0
0
0
0
0
0
0
0
0
0
0
0
0
0
0
0
0
0
0
0
0
0
0
0
0
0
0
0
0
0
0
0
0
0
0
0
0
0
0
0
0
0
0
0
0
0
0
0
0
0
0
0
0
0
0
0
0
0
0
0
0
0
0
0
0
0
0
0
0
0
0
0
0
0
0
0
0
0
0
0
0
0
0
0
0
0
0
0
0
0
0
0
0
0
0
0
0
0
0
0
0
0
0
0
0
0
0
0
0
0
0
0
0
0
0
0
0
0
0
0
0
0
0
0
0
0
0
0
0
0
0
0
0
0
0
0
0
0
0
0
0
0
0
0
0
0
0
0
0
0
0
0
0
0
0
0
0
0
0
0
0
0
0
0
0
0
0
0
0
0
0
0
0
0
0
0
0
0
0
0
0
0
0
0
0
0
0
0
0
0
0
0
0
0
0
0
0
0
0
0
0
0
0
0
0
0
0
0
0
0
0
0
0
0
0
0
0
0
0
0
0
0
0
0
0
0
0
0
0
0
0
0
0
0
0
0
0
0
0
0
0
0
0
0
0
0
0
0
0
0
0
0
0
0
0
0
0
0
0
0
0
0
0
0
0
0
0
0
0
0
0
0
0
0
0
0
0
0
0
0
0
0
0
0
0
0
0
0
0
0
0
0
0
0
0
0
0
0
0
0
0
0
0
0
0
0
0
0
0
0
0
0
0
0
0
0
0
0
0
0
0
0
0
0
0
0
0
0
0
0
0
0
0
0
0
0
0
0
0
0
0
0
0
0
0
0
0
0
0
0
0
0
0
0
0
0
0
0
0
0
0
0
0
0
0
0
0
0
0
0
0
0
0
0
0
0
0
0
0
0
0
0
0
0
0
0
0
0
0
0
0
0
0
0
0
0
0
0
0
0
0
0
0
0
0
0
0
0
0
0
0
0
0
0
0
0
0
0
0
0
0
0
0
0
0
0
0
0
0
0
0
0
0
0
0
0
0
0
0
0
0
0
0
0
0
0
0
0
0
0
0
0
0
0
0
0
0
0
0
0
0
0
0
0
0
0
0
0
0
0
0
0
0
0
0
0
0
0
0
0
0
0
0
0
0
0
0
0
0
0
0
0
0
0
0
0
0
0
0
0
0
0
0
0
0
0
0
0
0
0
0
0
0
0
0
0
0
0
0
0
0
0
0
0
0
0
0
0
0
0
0
0
0
0
0
0
0
0
0
0
0
0
0
0
0
0
0
0
0
0
0
0
0
0
0
0
0
0
0
0
0
0
0
0
0
0
0
0
0
0
0
0
0
0
0
0
0
0
0
0
0
0
0
0
0
0
0
0
0
0
0
0
0
0
0
0
0
0
0
0
0
0
0
0
0
0
0
0
0
0
0
0
0
0
0
0
0
0
0
0
0
0
0
0
0
0
0
0
0
0
0
0
0
0
0
0
0
0
0
0
0
0
0
0
0
0
0
0
0
0
0
0
0
0
0
0
0
0
0
0
0
0
0
0
0
0
0
0
0
0
0
0
0
0
0
0
0
0
0
0
0
0
0
0
0
0
0
0
0
0
0
0
0
0
0
0
0
0
0
0
0
0
0
0
0
0
0
0
0
0
0
0
0
0
0
0
0
0
0
0
0
0
0
0
0
0
0
0
0
0
0
0
0
0
0
0
0
0
0
0
0
0
0
0
0
0
0
0
0
0
0
0
0
0
0
0
0
0
0
0
0
0
0
0
0
0
0
0
0
0
0
0
0
0
0
0
0
0
0
0
0
0
0
0
0
0
0
0
0
0
0
0
0
0
0
0
0
0
0
0
0
0
0
0
0
0
0
0
0
0
0
0
0
0
0
0
0
0
0
0
0
0
0
0
0
0
0
0
0
0
0
0
0
0
0
0
0
0
0
0
0
0
0
0
0
0
0
0
0
0
0
0
0
0
0
0
0
0
0
0
0
0
0
0
0
0
0
0
0
0
0
0
0
0
0
0
0
0
0
0
0
0
0
0
0
0
0
0
0
0
0
0
0
0
0
0
0
0
0
0
0
0
0
0
0
0
0
0
0
0
0
0
0
0
0
0
0
0
0
0
0
0
0
0
0
0
0
0
0
0
0
0
0
0
0
0
0
0
0
0
0
0
0
0
0
0
0
0
0
0
0
0
0
0
0
0
0
0
0
0
0
0
0
0
0
0
0
0
0
0
0
0
0
0
0
0
0
0
0
0
0
0
0
0
0
0
0
0
0
0
0
0
0
0
0
0
0
0
0
0
0
0
0
0
0
0
0
0
0
0
0
0
0
0
0
0
0
0
0
0
0
0
0
0
0
0
0
0
0
0
0
0
0
0
0
0
0
0
0
0
0
0
0
0
0
0
0
0
0
0
0
0
0
0
0
0
0
0
0
0
0
0
0
0
0
0
0
0
0
0
0
0
0
0
0
0
0
0
0
0
0
0
0
0
0
0
0
0
0
0
0
0
0
0
0
0
0
0
0
0
0
0
0
0
0
0
0
0
0
0
0
0
0
0
0
0
0
0
0
0
0
0
0
0
0
0
0
0
0
0
0
0
0
0
0
0
0
0
0
0
0
0
0
0
0
0
0
0
0
0
0
0
0
0
0
0
0
0
0
0
0
0
0
0
0
0
0
0
0
0
0
0
0
0
0
0
0
0
0
0
0
0
0
0
0
0
0
0
0
0
0
0
0
0
0
0
0
0
0
0
0
0
0
0
0
0
0
0
0
0
0
0
0
0
0
0
0
0
0
0
0
0
0
0
0
0
0
0
0
0
0
0
0
0
0
0
0
0
0
0
0
0
0
0
0
0
0
0
0
0
0
0
0
0
0
0
0
0
0
0
0
0
0
0
0
0
0
0
0
0
0
0
0
0
0
0
0
0
0
0
0
0
0
0
0
0
0
0
0
0
0
0
0
0
0
0
0
0
0
0
0
0
0
0
0
0
0
0
0
0
0
0
0
0
0
0
0
0
0
0
0
0
0
0
0
0
0
0
0
0
0
0
0
0
0
0
0
0
0
0
0
0
0
0
0
0
0
0
0
0
0
0
0
0
0
0
0
0
0
0
0
0
0
0
0
0
0
0
0
0
0
0
0
0
0
0
0
0
0
0
0
0
0
0
0
0
0
0
0
0
0
0
0
0
0
0
0
0
0
0
0
0
0
0
0
0
0
0
0
0
0
0
0
0
0
0
0
0
0
0
0
0
0
0
0
0
0
0
0
0
0
0
0
0
0
0
0
0
0
0
0
0
0
0
0
0
0
0
0
0
0
0
0
0
0
0
0
0
0
0
0
0
0
0
0
0
0
0
0
0
0
0
0
0
0
0
0
0
0
0
0
0
0
0
0
0
0
0
0
0
0
0
0
0
0
0
0
0
0
0
0
0
0
0
0
0
0
0
0
0
0
0
0
0
0
0
0
0
0
0
0
0
0
0
0
0
0
0
0
0
0
0
0
0
0
0
0
0
0
0
0
0
0
0
0
0
0
0
0
0
0
0
0
0
0
0
0
0
0
0
0
0
0
0
0
0
0
0
0
0
0
0
0
0
0
0
0
0
0
0
0
0
0
0
0
0
0
0
0
0
0
0
0
0
0
0
0
0
0
0
0
0
0
0
0
0
0
0
0
0
0
0
0
0
0
0
0
0
0
0
0
0
0
0
0
0
0
0
0
0
0
0
0
0
0
0
0
0
0
0
0
0
0
0
0
0
0
0
0
0
0
0
0
0
0
0
0
0
0
0
0
0
0
0
0
0
0
0
0
0
0
0
0
0
0
0
0
0
0
0
0
0
0
0
0
0
0
0
0
0
0
0
0
0
0
0
0
0
0
0
0
0
0
0
0
0
0
0
0
0
0
0
0
0
0
0
0
0
0
0
0
0
0
0
0
0
0
0
0
0
0
0
0
0
0
0
0
0
0
0
0
0
0
0
0
0
0
0
0
0
0
0
0
0
0
0
0
0
0
0
0
0
0
0
0
0
0
0
0
0
0
0
0
0
0
0
0
0
0
0
0
0
0
0
0
0
0
0
0
0
0
0
0
0
0
0
0
0
0
0
0
0
0
0
0
0
0
0
0
0
0
0
0
0
0
0
0
0
0
0
0
0
0
0
0
0
0
0
0
0
0
0
0
0
0
0
0
0
0
0
0
0
0
0
0
0
0
0
0
0
0
0
0
0
0
0
0
0
0
0
0
0
0
0
0
0
0
0
0
0
0
0
0
0
0
0
0
0
0
0
0
0
0
0
0
0
0
0
0
0
0
0
0
0
0
0
0
0
0
0
0
0
0
0
0
0
0
0
0
0
0
0
0
0
0
0
0
0
0
0
0
0
0
0
0
0
0
0
0
0
0
0
0
0
0
0
0
0
0
0
0
0
0
0
0
0
0
0
0
0
0
0
0
0
0
0
0
0
0
0
0
0
0
0
0
0
0
0
0
0
0
0
0
0
0
0
0
0
0
0
0
0
0
0
0
0
0
0
0
0
0
0
0
0
0
0
0
0
0
0
0
0
0
0
0
0
0
0
0
0
0
0
0
0
0
0
0
0
0
0
0
0
0
0
0
0
0
0
0
0
0
0
0
0
0
0
0
0
0
0
0
0
0
0
0
0
0
0
0
0
0
0
0
0
0
0
0
0
0
0
0
0
0
0
0
0
0
0
0
0
0
0
0
0
0
0
0
0
0
0
0
0
0
0
0
0
0
0
0
0
0
0
0
0
0
0
0
0
0
0
0
0
0
0
0
0
0
0
0
0
0
0
0
0
0
0
0
0
0
0
0
0
0
0
0
0
0
0
0
0
0
0
0
0
0
0
0
0
0
0
0
0
0
0
0
0
0
0
0
0
0
0
0
0
0
0
0
0
0
0
0
0
0
0
0
0
0
0
0
0
0
0
0
0
0
0
0
0
0
0
0
0
0
0
0
0
0
0
0
0
0
0
0
0
0
0
0
0
0
0
0
0
0
0
0
0
0
0
0
0
0
0
0
0
0
0
0
0
0
0
0
0
0
0
0
0
0
0
0
0
0
0
0
0
0
0
0
0
0
0
0
0
0
0
0
0
0
0
0
0
0
0
0
0
0
0
0
0
0
0
0
0
0
0
0
0
0
0
0
0
0
0
0
0
0
0
0
0
0
0
0
0
0
0
0
0
0
0
0
0
0
0
0
0
0
0
0
0
0
0
0
0
0
0
0
0
0
0
0
0
0
0
0
0
0
0
0
0
0
0
0
0
0
0
0
0
0
0
0
0
0
0
0
0
0
0
0
0
0
0
0
0
0
0
0
0
0
0
0
0
0
0
0
0
0
0
0
0
0
0
0
0
0
0
0
0
0
0
0
0
0
0
0
0
0
0
0
0
0
0
0
0
0
0
0
0
0
0
0
0
0
0
0
0
0
0
0
0
0
0
0
0
0
0
0
0
0
0
0
0
0
0
0
0
0
0
0
0
0
0
0
0
0
0
0
0
0
0
0
0
0
0
0
0
0
0
0
0
0
0
0
0
0
0
0
0
0
0
0
0
0
0
0
0
0
0
0
0
0
0
0
0
0
0
0
0
0
0
0
0
0
0
0
0
0
0
0
0
0
0
0
0
0
0
0
0
0
0
0
0
0
0
0
0
0
0
0
0
0
0
0
0
0
0
0
0
0
0
0
0
0
0
0
0
0
0
0
0
0
0
0
0
0
0
0
0
0
0
0
0
0
0
0
0
0
0
0
0
0
0
0
0
0
0
0
0
0
0
0
0
0
0
0
0
0
0
0
0
0
0
0
0
0
0
0
0
0
0
0
0
0
0
0
0
0
0
0
0
0
0
0
0
0
0
0
0
0
0
0
0
0
0
0
0
0
0
0
0
0
0
0
0
0
0
0
0
0
0
0
0
0
0
0
0
0
0
0
0
0
0
0
0
0
0
0
0
0
0
0
0
0
0
0
0
0
0
0
0
0
0
0
0
0
0
0
0
0
0
0
0
0
0
0
0
0
0
0
0
0
0
0
0
0
0
0
0
0
0
0
0
0
0
0
0
0
0
0
0
0
0
0
0
0
0
0
0
0
0
0
0
0
0
0
0
0
0
0
0
0
0
0
0
0
0
0
0
0
0
0
0
0
0
0
0
0
0
0
0
0
0
0
0
0
0
0
0
0
0
0
0
0
0
0
0
0
0
0
0
0
0
0
0
0
0
0
0
0
0
0
0
0
0
0
0
0
0
0
0
0
0
0
0
0
0
0
0
0
0
0
0
0
0
0
0
0
0
0
0
0
0
0
0
0
0
0
0
0
0
0
0
0
0
0
0
0
0
0
0
0
0
0
0
0
0
0
0
0
0
0
0
0
0
0
0
0
0
0
0
0
0
0
0
0
0
0
0
0
0
0
0
0
0
0
0
0
0
0
0
0
0
0
0
0
0
0
0
0
0
0
0
0
0
0
0
0
0
0
0
0
0
0
0
0
0
0
0
0
0
0
0
0
0
0
0
0
0
0
0
0
0
0
0
0
0
0
0
0
0
0
0
0
0
0
0
0
0
0
0
0
0
0
0
0
0
0
0
0
0
0
0
0
0
0
0
0
0
0
0
0
0
0
0
0
0
0
0
0
0
0
0
0
0
0
0
0
0
0
0
0
0
0
0
0
0
0
0
0
0
0
0
0
0
0
0
0
0
0
0
0
0
0
0
0
0
0
0
0
0
0
0
0
0
0
0
0
0
0
0
0
0
0
0
0
0
0
0
0
0
0
0
0
0
0
0
0
0
0
0
0
0
0
0
0
0
0
0
0
0
0
0
0
0
0
0
0
0
0
0
0
0
0
0
0
0
0
0
0
0
0
0
0
0
0
0
0
0
0
0
0
0
0
0
0
0
0
0
0
0
0
0
0
0
0
0
0
0
0
0
0
0
0
0
0
0
0
0
0
0
0
0
0
0
0
0
0
0
0
0
0
0
0
0
0
0
0
0
0
0
0
0
0
0
0
0
0
0
0
0
0
0
0
0
0
0
0
0
0
0
0
0
0
0
0
0
0
0
0
0
0
0
0
0
0
0
0
0
0
0
0
0
0
0
0
0
0
0
0
0
0
0
0
0
0
0
0
0
0
0
0
0
0
0
0
0
0
0
0
0
