-10.4197
-10.2148
-10.0064
-9.79528
-9.57939
-9.35549
-9.12087
-8.87497
-8.62043
-8.36199
-8.10621
-7.86041
-7.63154
-7.42515
-7.24475
-7.09171
-6.96571
-6.86506
-6.78736
-6.73037
-6.69276
-6.6745
-6.67783
-6.70758
-6.76763
-6.86126
-6.98966
-7.15037
-7.33657
-7.53728
-7.73882
-7.92669
-8.0797
-8.18141
-8.23771
-8.26591
-8.28707
-8.31807
-8.36636
-8.42918
-8.4963
-8.55463
-8.59407
-8.61277
-8.61184
-8.5921
-8.55446
-8.50068
-8.43363
-8.3565
-8.27348
-8.18916
-8.10733
-8.03045
-7.95929
-7.89297
-7.82935
-7.76561
-7.69883
-7.62665
-7.54749
-7.46024
-7.36446
-7.26058
-7.14999
-7.03488
-6.91942
-6.8099
-6.71257
-6.63193
-6.56954
-6.52354
-6.4895
-6.46208
-6.43729
-6.4131
-6.39046
-6.37144
-6.35683
-6.34462
-6.33035
-6.30885
-6.27628
-6.23195
-6.17864
-6.1168
-6.04648
-5.9672
-5.87822
-5.77932
-5.6715
-5.55735
-5.4414
-5.33095
-5.23599
-5.16511
-5.12438
-5.11572
-5.13571
-5.17523
-5.22058
-5.25604
-5.2677
-5.24744
-5.19964
-5.13311
-5.05395
-4.96847
-4.8824
-4.79973
-4.7224
-4.65051
-4.58277
-4.51754
-4.45359
-4.39098
-4.33201
-4.28046
-4.2396
-4.20988
-4.18749
-4.16429
-4.12957
-4.07297
-3.98764
-3.87608
-3.74604
-3.60473
-3.45914
-3.31716
-3.18575
-3.06987
-2.97199
-2.89211
-2.82828
-2.77757
-2.73665
-2.70131
-2.66731
-2.63035
-2.58593
-2.52951
-2.45697
-2.36539
-2.25367
-2.12364
-1.97932
-1.82464
-1.66341
-1.49914
-1.33473
-1.17243
-1.01408
-0.861476
-0.716967
-0.583347
-0.463282
-0.359147
-0.272596
-0.204317
-0.154111
-0.121264
-0.10503
-0.105276
-0.122055
-0.155532
-0.20532
-0.270861
-0.350744
-0.437094
-0.518343
-0.582493
-0.619808
-0.625014
-0.598423
-0.545773
-0.476941
-0.403872
-0.337494
-0.284377
-0.249075
-0.232761
-0.233288
-0.289088
0
0.840299
2.31116
4.11992
5.82468
6.99129
7.32829
6.76001
5.43518
3.67942
1.90039
0.466863
-0.402892
-0.692822
-0.507129
-0.300465
-0.138714
-0.0727589
-0.13781
-0.338047
-0.638091
-0.965584
-1.22816
-1.34534
-1.33476
-1.26369
-1.16822
-1.06192
-0.962287
-0.883737
-0.834868
-0.817035
-0.824566
-0.846597
-0.869962
-0.882297
-0.874771
-0.846422
-0.799009
-0.734393
-0.655424
-0.565747
-0.469343
-0.370265
-0.272505
-0.180293
-0.0988996
-0.0317079
0.0202103
0.0588617
0.0898153
0.121778
0.16512
0.229599
0.32195
0.444094
0.589312
0.749583
0.917106
1.08375
1.242
1.3858
1.51015
1.61212
1.6912
1.74822
1.78469
1.80016
1.78778
1.73967
1.64834
1.50442
1.30188
1.04348
0.7437
0.42682
0.120577
-0.152066
-0.390881
-0.600228
-0.783147
-0.945435
-1.09371
-1.23361
-1.36851
-1.49901
-1.62314
-1.73727
-1.83762
-1.92132
-1.98715
-2.03564
-2.06864
-2.08923
-2.101
-2.10721
-2.11027
-2.11124
-2.10992
-2.1051
-2.09494
-2.07744
-2.0509
-2.01423
-1.96728
-1.911
-1.84727
-1.77865
-1.70828
-1.63879
-1.57167
-1.50706
-1.444
-1.38112
-1.31752
-1.25355
-1.19107
-1.13331
-1.08427
-1.0473
-1.02412
-1.01421
-1.01465
-1.02063
-1.02649
-1.02677
-1.01722
-0.995441
-0.961173
-0.915086
-0.857868
-0.790054
-0.711876
-0.623434
-0.5243
-0.413117
-0.29341
-0.181266
-0.0978478
-0.0611763
-0.0782349
-0.140632
-0.226314
-0.307207
-0.35942
-0.37088
-0.352319
-0.31631
-0.267319
-0.207845
-0.138927
-0.0578354
0.041758
0.151825
0.248402
0.301836
0.291212
0.216505
0.101017
-0.0176529
-0.10378
-0.13871
-0.140021
-0.125746
-0.105428
-0.0862831
-0.0708168
-0.0561607
-0.0352539
0.000681305
0.05924
0.141793
0.244309
0.362518
0.491914
0.624286
0.747217
0.84919
0.921861
0.961626
0.969977
0.952705
0.9183
0.876254
0.835732
0.803212
0.784247
0.782892
0.801205
0.838753
0.892456
0.956297
1.02432
1.09082
1.15163
1.20512
1.25248
1.29739
1.3454
1.40819
1.49699
1.59203
1.65432
1.64233
1.53192
1.32948
1.07115
0.808458
0.588596
0.430028
0.309898
0.214488
0.141161
0.0888351
0.0535965
0.0267593
0
-0.0210312
-0.051004
-0.0885483
-0.128795
-0.165137
-0.191415
-0.204463
-0.201106
-0.0597214
0.386089
1.18192
2.34308
3.70079
4.9549
5.79892
6.03424
5.61213
4.61138
3.20455
1.64286
0.236058
-0.713617
-1.00601
-0.581548
-0.119275
0.303259
0.56678
0.606776
0.449188
0.178706
-0.117622
-0.385039
-0.590529
-0.733916
-0.829391
-0.885471
-0.889827
-0.815306
-0.681029
-0.531622
-0.414787
-0.364896
-0.392784
-0.485715
-0.616385
-0.755923
-0.884363
-0.998515
-1.10135
-1.19402
-1.27537
-1.34237
-1.38748
-1.38967
-1.31958
-1.1951
-1.05905
-0.961585
-0.938751
-0.996782
-1.10881
-1.2242
-1.28638
-1.25387
-1.15102
-1.00988
-0.847156
-0.671941
-0.492589
-0.315097
-0.14211
0.0270218
0.195586
0.377585
0.584309
0.791147
0.948907
1.01021
0.954985
0.799182
0.583182
0.349202
0.122701
-0.095195
-0.309225
-0.521159
-0.731201
-0.93858
-1.14164
-1.33801
-1.5249
-1.69953
-1.85948
-2.00306
-2.12969
-2.23998
-2.33574
-2.41982
-2.49632
-2.56928
-2.64174
-2.71486
-2.78741
-2.85591
-2.9154
-2.9568
-2.96594
-2.94402
-2.90615
-2.87338
-2.86396
-2.88594
-2.93451
-2.99477
-3.04793
-3.07739
-3.08204
-3.06645
-3.0317
-2.9774
-2.90374
-2.8185
-2.73061
-2.64767
-2.57404
-2.51008
-2.45301
-2.39909
-2.34623
-2.29583
-2.2526
-2.22174
-2.20565
-2.20206
-2.20452
-2.20483
-2.19593
-2.17642
-2.14865
-2.1149
-2.07814
-2.04306
-2.01567
-2.00235
-2.00886
-2.03919
-2.09445
-2.17199
-2.26527
-2.36496
-2.45754
-2.52928
-2.56874
-2.56867
-2.52692
-2.4462
-2.33281
-2.18926
-2.01357
-1.81621
-1.62658
-1.48489
-1.43426
-1.49765
-1.65731
-1.85533
-2.01966
-2.10107
-2.11515
-2.10673
-2.08847
-2.07009
-2.05572
-2.04283
-2.02342
-1.98678
-1.9229
-1.83079
-1.69779
-1.51248
-1.29448
-1.08507
-0.9245
-0.839549
-0.834458
-0.888319
-0.960741
-1.00516
-0.985412
-0.903124
-0.784647
-0.647262
-0.499793
-0.348429
-0.198003
-0.0515183
0.0898979
0.226603
0.359717
0.490292
0.618492
0.743024
0.861105
0.96896
1.06264
1.13892
1.19597
1.23348
1.25244
1.25447
1.24121
1.21436
1.17495
1.12318
1.05883
0.981863
0.892944
0.79377
0.686761
0.575716
0.466065
0.363313
0.271933
0.19464
0.132112
0.0839203
0.0478523
0.0208305
0
-0.00856781
0.240444
0.923797
2.06755
3.58839
5.24497
6.66759
7.46025
7.35433
6.33649
4.67293
2.8115
1.21412
0.20362
-0.118361
0.236428
0.568811
0.842297
1.00889
1.04035
0.944016
0.760656
0.5509
0.380006
0.293604
0.274232
0.297317
0.351115
0.430371
0.527778
0.635133
0.744555
0.849854
0.947188
1.03408
1.10944
1.17313
1.22543
1.26641
1.296
1.31431
1.32174
1.31966
1.31067
1.29981
1.29656
1.3126
1.35945
1.44579
1.57507
1.74431
1.94457
2.16297
2.38565
2.60164
2.80629
2.99732
3.17476
3.34062
3.49798
3.64991
3.79857
3.94461
4.08692
4.22314
4.35029
4.46557
4.56694
4.65317
4.72181
4.77102
4.79824
4.79948
4.76976
4.70414
4.59902
4.4535
4.27024
4.05588
3.82225
3.58121
3.34343
3.11791
2.91152
2.7285
2.57046
2.43606
2.32133
2.22141
2.13206
2.05067
1.97683
1.91215
1.8594
1.82329
1.81053
1.82178
1.84753
1.87528
1.89443
1.90051
1.89664
1.8915
1.89447
1.91187
1.93923
1.96167
1.96008
1.91946
1.83584
1.71872
1.58813
1.46783
1.37791
1.31932
1.28966
1.28997
1.32002
1.37894
1.46414
1.57852
1.7247
1.88728
2.04597
2.18031
2.27478
2.32196
2.32263
2.28382
2.2164
2.13327
2.04801
1.96966
1.90487
1.85771
1.82764
1.81129
1.80599
1.80857
1.81532
1.8214
1.82139
1.81014
1.78345
1.73874
1.67567
1.59636
1.50532
1.40886
1.31437
1.22864
1.15722
1.10538
1.0794
1.09147
1.16325
1.30619
1.48394
1.64645
1.74692
1.7563
1.67271
1.52195
1.34856
1.20048
1.11256
1.07354
1.06058
1.06291
1.07298
1.0837
1.08993
1.08952
1.08333
1.07438
1.0664
1.06224
1.06282
1.06695
1.07219
1.07591
1.07624
1.0723
1.06399
1.0516
1.03588
1.0186
1.00305
0.994461
0.999493
1.02472
1.0746
1.14966
1.2435
1.34906
1.45735
1.5593
1.64804
1.71904
1.77069
1.80385
1.82088
1.82452
1.81714
1.79988
1.77245
1.73382
1.6828
1.61878
1.54226
1.45509
1.36028
1.2616
1.16285
1.06711
0.976385
0.891397
0.811585
0.735304
0.660268
0.584029
0.504171
0.418843
0.328151
0.235657
0.146906
0.0672524
0
-0.0176651
0.487724
1.45135
2.84469
4.45971
5.95178
6.96368
7.25468
6.77146
5.64687
4.14985
2.61211
1.34238
0.536561
0.227937
0.223583
0.215627
0.205509
0.19296
0.178706
0.164599
0.153772
0.151243
0.163213
0.195647
0.253448
0.339063
0.466224
0.628735
0.797768
0.940679
1.03324
1.06863
1.05832
1.02453
0.988632
0.96241
0.944483
0.932444
0.927482
0.934698
0.963165
1.02375
1.12552
1.27205
1.45326
1.66018
1.87981
2.09742
2.29828
2.47053
2.60822
2.71153
2.78634
2.84326
2.89621
2.96042
3.05028
3.1769
3.34398
3.54645
3.7835
4.04763
4.31121
4.54536
4.7271
4.84392
4.89422
4.88333
4.81757
4.69906
4.52956
4.31847
4.06932
3.78369
3.46783
3.13285
2.79349
2.46581
2.16677
1.91531
1.71774
1.5677
1.45151
1.35295
1.25811
1.15867
1.05323
0.946399
0.846448
0.760618
0.692339
0.643432
0.615268
0.606484
0.612889
0.628085
0.645179
0.658085
0.662416
0.65599
0.638902
0.613227
0.582489
0.550996
0.523045
0.50204
0.490748
0.49099
0.50348
0.527865
0.562889
0.606624
0.656695
0.710415
0.764797
0.816559
0.86153
0.894232
0.909125
0.901302
0.867452
0.807098
0.723488
0.621928
0.513981
0.413171
0.331758
0.278202
0.255831
0.263041
0.294766
0.344448
0.405679
0.472087
0.539656
0.604603
0.663187
0.711926
0.748053
0.770106
0.778283
0.774393
0.761368
0.742537
0.721062
0.699213
0.678271
0.658882
0.641201
0.625017
0.609868
0.595148
0.580484
0.566046
0.552775
0.542368
0.536953
0.538479
0.548568
0.567595
0.592495
0.618234
0.639122
0.650329
0.649104
0.635354
0.611491
0.58173
0.551161
0.524482
0.50505
0.49572
0.49823
0.513056
0.539408
0.575491
0.618705
0.666191
0.715245
0.7635
0.808844
0.848512
0.878852
0.896304
0.897595
0.881172
0.848767
0.80639
0.764117
0.735241
0.732705
0.765699
0.837065
0.942366
1.07102
1.20907
1.34277
1.46326
1.56656
1.65085
1.71673
1.76555
1.79766
1.81369
1.81318
1.79539
1.76024
1.70915
1.64526
1.57304
1.49756
1.42347
1.35356
1.28932
1.23114
1.17782
1.12479
1.06531
0.991803
0.891033
0.739608
0.544813
0.340227
0.165241
0.0488102
0
0.00968628
0.052298
0.32984
1.05838
2.42306
4.32599
6.33896
7.87328
8.46407
7.99397
6.72266
5.11936
3.61692
2.44297
1.60775
1.01709
0.741826
0.673523
0.627333
0.59629
0.5804
0.579268
0.591748
0.616065
0.649746
0.690091
0.733112
0.774758
0.811644
0.841744
0.864781
0.882132
0.896239
0.909725
0.924488
0.941205
0.959596
0.97851
0.997033
1.0155
1.03616
1.06309
1.1014
1.1557
1.22851
1.31876
1.42394
1.53549
1.64356
1.73995
1.8207
1.88749
1.94745
2.01145
2.09139
2.1972
2.33116
2.49129
2.6744
2.876
3.09041
3.31171
3.53477
3.75593
3.97293
4.1843
4.38922
4.5864
4.76766
4.91436
5.00219
5.01043
4.92994
4.76664
4.53917
4.27235
3.98966
3.70802
3.43342
3.16719
2.91077
2.66656
2.4368
2.22336
2.02757
1.84997
1.69009
1.54642
1.41643
1.29685
1.1841
1.07477
0.966237
0.857204
0.748063
0.641082
0.540715
0.453322
0.385097
0.341061
0.323711
0.333107
0.36885
0.420683
0.476524
0.525731
0.561933
0.584446
0.5978
0.609652
0.627866
0.657479
0.697777
0.747966
0.802533
0.85181
0.885906
0.897156
0.881936
0.841401
0.781041
0.709305
0.635843
0.569901
0.516843
0.479363
0.4607
0.462499
0.484479
0.524219
0.57764
0.638388
0.699241
0.753154
0.794255
0.818559
0.82431
0.811952
0.78385
0.744032
0.697498
0.64945
0.605025
0.568694
0.543932
0.532999
0.536628
0.553999
0.58296
0.620432
0.662893
0.706831
0.74909
0.787057
0.818197
0.840428
0.852254
0.852866
0.842421
0.822275
0.795021
0.764212
0.733808
0.707441
0.687551
0.675224
0.670092
0.670499
0.673965
0.677755
0.679371
0.676933
0.669297
0.655984
0.636971
0.612508
0.583056
0.549434
0.513172
0.476786
0.445389
0.425946
0.425843
0.450674
0.501977
0.579729
0.672461
0.764977
0.843231
0.898845
0.931467
0.94817
0.960447
0.980235
1.01561
1.06678
1.13195
1.21035
1.30148
1.40117
1.49617
1.56927
1.60291
1.58347
1.50502
1.371
1.19291
0.986863
0.769892
0.55648
0.353534
0.16717
0.00680656
-0.119535
-0.206719
-0.252318
-0.257843
-0.221998
-0.156491
-0.0834499
-0.0255421
0
-0.0128967
-0.0619575
-0.135036
-0.243296
0.19914
1.17693
2.58443
4.13541
5.42609
6.08934
5.95856
5.13798
3.93058
2.67766
1.62675
0.895637
0.518622
0.5557
0.579501
0.588518
0.572257
0.525076
0.448279
0.350172
0.244112
0.145118
0.0661587
0.0102337
-0.0200336
-0.025655
-0.0100967
0.0222309
0.0672924
0.121473
0.183031
0.250849
0.323928
0.400874
0.479895
0.559095
0.636468
0.709981
0.777858
0.839254
0.89431
0.944307
0.991673
1.03973
1.09221
1.15251
1.2231
1.30486
1.39809
1.50189
1.61546
1.73885
1.87339
2.02128
2.18468
2.36438
2.55879
2.7636
2.97205
3.17765
3.37482
3.56005
3.73257
3.89402
4.0472
4.19692
4.351
4.50147
4.62069
4.67299
4.63183
4.49335
4.27843
4.02125
3.75169
3.48346
3.21557
2.94709
2.67831
2.41108
2.14888
1.8964
1.65855
1.43939
1.24134
1.06483
0.907854
0.766988
0.638565
0.521441
0.418192
0.333287
0.274492
0.249616
0.26272
0.311568
0.38739
0.476987
0.566154
0.642911
0.701175
0.736884
0.749384
0.740337
0.713391
0.674161
0.630008
0.589099
0.558695
0.543234
0.542598
0.552172
0.567286
0.583172
0.596554
0.606625
0.615146
0.625679
0.642255
0.667129
0.703375
0.751227
0.801768
0.843228
0.865243
0.862834
0.838305
0.800156
0.759596
0.72651
0.706361
0.69694
0.697538
0.707372
0.725247
0.74959
0.778202
0.80747
0.833088
0.85078
0.857156
0.850362
0.830256
0.798181
0.756541
0.709008
0.659168
0.610465
0.5667
0.532111
0.513467
0.529956
0.633091
0.862644
1.15302
1.40711
1.53592
1.49281
1.28789
0.982692
0.674293
0.473232
0.435424
0.493755
0.595532
0.727901
0.878636
1.02632
1.15125
1.23974
1.28687
1.29675
1.28018
1.25047
1.21884
1.19125
1.16686
1.14266
1.11506
1.08066
1.03726
0.984374
0.923516
0.85824
0.79435
0.740778
0.707098
0.701362
0.727966
0.786389
0.871404
0.974656
1.08691
1.19997
1.3091
1.4115
1.50431
1.58511
1.65227
1.70455
1.7412
1.76204
1.76733
1.75746
1.73254
1.69226
1.63614
1.56439
1.47724
1.37632
1.26502
1.14836
1.03223
0.92303
0.826958
0.746189
0.679557
0.62335
0.572643
0.522566
0.469112
0.409418
0.341742
0.266049
0.183673
0.0958492
0
0.0725397
0.722106
2.00742
3.76847
5.67168
7.30381
8.27909
8.34634
7.47627
5.88772
3.9826
2.20186
0.868043
0.096269
-0.182891
-0.0851456
0.00559711
0.0911995
0.168996
0.236631
0.292294
0.33484
0.361368
0.369937
0.35905
0.32808
0.278062
0.208579
0.126367
0.0456759
-0.01758
-0.0496075
-0.0420382
0.00647984
0.0909056
0.202241
0.330678
0.467664
0.607394
0.746821
0.882216
1.0068
1.11136
1.18499
1.21915
1.21254
1.17448
1.12493
1.09045
1.09711
1.16046
1.27231
1.41829
1.58995
1.78082
1.98433
2.19444
2.40658
2.61702
2.82237
3.01831
3.2003
3.36376
3.50435
3.61864
3.70444
3.76072
3.78715
3.78353
3.74942
3.68474
3.58884
3.46166
3.30412
3.1183
2.90736
2.67529
2.42778
2.17001
1.90728
1.64564
1.39191
1.15338
0.937676
0.757468
0.635606
0.578761
0.563204
0.555888
0.526449
0.458368
0.354201
0.232804
0.120448
0.0403572
-0.00458679
-0.0251657
-0.0259815
-0.0106588
0.0166637
0.050396
0.0845972
0.113998
0.134476
0.143378
0.139675
0.12391
0.097962
0.0646111
0.0270866
-0.0117371
-0.0498072
-0.0858152
-0.119097
-0.149183
-0.175045
-0.193957
-0.201581
-0.192096
-0.159265
-0.0902613
0.0383623
0.220728
0.420448
0.595105
0.711357
0.753949
0.726187
0.644547
0.531884
0.41198
0.303604
0.213708
0.141952
0.0848665
0.0380611
-0.00233994
-0.0402409
-0.078422
-0.117676
-0.156426
-0.182737
-0.066844
0.372383
0.98833
1.52413
1.72001
1.45378
0.817529
0.0731157
-0.479509
-0.60195
-0.502995
-0.378665
-0.252565
-0.134081
-0.0302486
0.056704
0.126762
0.181045
0.222104
0.253226
0.277792
0.29889
0.319041
0.340094
0.363143
0.388522
0.415809
0.442712
0.46573
0.481478
0.48809
0.486213
0.479018
0.471066
0.466481
0.467204
0.471761
0.476898
0.47823
0.471754
0.455301
0.429557
0.398412
0.368593
0.348059
0.344242
0.363877
0.411909
0.489493
0.596836
0.732323
0.893095
1.0863
1.33194
1.62177
1.90722
2.12367
2.21707
2.17193
2.01884
1.81603
1.6186
1.45653
1.32083
1.19773
1.08237
0.973612
0.871593
0.777057
0.69098
0.61424
0.547126
0.489274
0.439437
0.394702
0.351487
0.306266
0.256307
0.199867
0.13714
0.0697222
0
-0.0641434
0.343972
1.17603
2.46299
4.09671
5.77445
7.07658
7.63335
7.28439
6.13794
4.50994
2.79587
1.34537
0.38092
-0.0299725
0.167962
0.358613
0.53862
0.698666
0.830507
0.928508
0.990758
1.01939
1.02006
1.00074
0.970197
0.93663
0.906657
0.884505
0.872611
0.873121
0.888554
0.920899
0.971337
1.03969
1.12617
1.22774
1.33612
1.44107
1.53334
1.60694
1.66063
1.69814
1.727
1.75639
1.7947
1.84696
1.9141
1.99467
2.08726
2.19041
2.30341
2.42672
2.56176
2.71051
2.87489
3.055
3.25038
3.46032
3.68284
3.91507
4.15223
4.38383
4.59577
4.77414
4.90792
4.99121
5.02405
5.01164
4.96233
4.8853
4.78859
4.67957
4.56282
4.4402
4.31175
4.17612
4.03098
3.87338
3.70025
3.50925
3.29956
3.07259
2.83237
2.58528
2.33953
2.10388
1.88688
1.69599
1.53682
1.41282
1.32528
1.27497
1.26559
1.30318
1.38122
1.47249
1.5477
1.58206
1.56217
1.49041
1.38484
1.27397
1.18819
1.14763
1.14586
1.17147
1.22023
1.28537
1.35868
1.43177
1.4974
1.55016
1.58688
1.60667
1.61052
1.60086
1.58095
1.5545
1.52531
1.49681
1.47191
1.45286
1.4415
1.43915
1.44501
1.45537
1.46536
1.47027
1.46667
1.45319
1.43053
1.40073
1.36627
1.3293
1.29117
1.25235
1.21293
1.1728
1.1319
1.09018
1.04774
1.00481
0.96184
0.919666
0.879599
0.843478
0.813547
0.791962
0.780358
0.779713
0.790369
0.810106
0.835042
0.861143
0.885389
0.906632
0.925821
0.945488
0.968687
0.997729
1.03274
1.07256
1.11366
1.15111
1.17977
1.19549
1.19588
1.18061
1.15123
1.11073
1.06303
1.01282
0.96474
0.924377
0.898969
0.894992
0.917967
0.971121
1.05416
1.1627
1.28879
1.42247
1.55392
1.67568
1.78505
1.88057
1.96182
2.02852
2.08193
2.12295
2.15251
2.1723
2.18514
2.19471
2.20444
2.21612
2.22884
2.2382
2.2373
2.21864
2.17631
2.10774
2.01457
1.90234
1.77914
1.65389
1.53351
1.42158
1.31964
1.22755
1.14312
1.06247
0.980504
0.890277
0.777399
0.627847
0.443449
0.234116
0
0.372634
1.40591
2.97971
4.80192
6.53387
7.8866
8.64612
8.66175
7.86696
6.35559
4.44485
2.62867
1.39067
0.969644
1.24076
1.36464
1.43234
1.40967
1.2963
1.125
0.948108
0.817834
0.764339
0.857029
1.04565
1.24361
1.36738
1.36983
1.2569
1.08195
0.91999
0.833327
0.839929
0.891363
0.961213
1.04042
1.12464
1.21127
1.29926
1.38876
1.48043
1.57474
1.67154
1.76972
1.86702
1.96109
2.05028
2.13432
2.21451
2.29335
2.37389
2.45899
2.55064
2.6496
2.75658
2.8724
2.9981
3.13501
3.28464
3.44839
3.62988
3.8393
4.07935
4.32143
4.5273
4.66169
4.70523
4.6608
4.54985
4.40083
4.23618
4.06444
3.88442
3.69428
3.49238
3.27746
3.04971
2.81149
2.5673
2.32331
2.08642
1.86296
1.65766
1.47332
1.31022
1.16311
1.02319
0.881447
0.731377
0.571144
0.404446
0.239763
0.088187
-0.039558
-0.135828
-0.191443
-0.209701
-0.202685
-0.18467
-0.16745
-0.157097
-0.153189
-0.150502
-0.142291
-0.12373
-0.0952452
-0.0606807
-0.0246472
0.00761404
0.0315222
0.0439942
0.0436811
0.030744
0.00647545
-0.0265129
-0.064985
-0.10564
-0.144471
-0.176931
-0.198301
-0.204209
-0.19222
-0.157956
-0.093759
0.0095499
0.147138
0.290605
0.406965
0.467491
0.456385
0.375847
0.245152
0.0939761
-0.0470188
-0.155339
-0.231316
-0.283339
-0.316588
-0.333062
-0.334101
-0.323057
-0.303956
-0.281027
-0.258292
-0.239202
-0.226708
-0.222231
-0.225688
-0.235422
-0.248338
-0.260372
-0.267322
-0.265845
-0.252077
-0.227381
-0.19872
-0.174758
-0.162233
-0.162934
-0.17271
-0.183103
-0.184997
-0.171932
-0.142658
-0.109956
-0.0927578
-0.10779
-0.161556
-0.246287
-0.341755
-0.422244
-0.465619
-0.468116
-0.442067
-0.392351
-0.324179
-0.243026
-0.153667
-0.0590231
0.0401963
0.144508
0.254948
0.372298
0.496949
0.628146
0.760599
0.883364
0.983765
1.0506
1.077
1.0619
1.00972
0.928469
0.827263
0.714492
0.597897
0.482463
0.3716
0.268428
0.175879
0.09702
0.0338518
-0.0161784
-0.0596588
-0.104718
-0.158649
-0.225528
-0.304663
-0.390664
-0.473875
-0.543322
-0.589547
-0.606852
-0.594366
-0.555786
-0.498143
-0.430118
-0.352361
0
0.883404
2.33523
4.14811
5.93233
7.24732
7.74727
7.28942
5.97983
4.14025
2.20146
0.558956
-0.549986
-1.08941
-0.996103
-0.878716
-0.760489
-0.646799
-0.54224
-0.449488
-0.3672
-0.293514
-0.228311
-0.171882
-0.124753
-0.0880193
-0.0627304
-0.04917
-0.0463511
-0.0518851
-0.0622025
-0.0729712
-0.0798601
-0.0793458
-0.0679209
-0.0426673
-0.00155149
0.0563182
0.130527
0.21935
0.31995
0.428759
0.54193
0.656033
0.76848
0.87792
0.984513
1.08992
1.19699
1.3092
1.42976
1.56078
1.70255
1.8537
2.01081
2.1682
2.32082
2.46617
2.6057
2.74505
2.89828
3.17853
3.80622
4.57014
5.19727
5.50214
5.46042
5.18041
4.80982
4.4566
4.17651
3.97628
3.80464
3.63796
3.46885
3.29424
3.11257
2.9232
2.72662
2.52426
2.31817
2.11059
1.90374
1.69983
1.50112
1.31011
1.12951
0.96216
0.810729
0.67746
0.563902
0.470695
0.397702
0.34416
0.308868
0.290419
0.286837
0.295678
0.314896
0.341169
0.36954
0.395196
0.41435
0.425004
0.427315
0.423366
0.416389
0.409693
0.405504
0.404116
0.404676
0.404987
0.401518
0.391078
0.372274
0.346652
0.318918
0.296732
0.288285
0.299683
0.332814
0.384629
0.448108
0.514466
0.575623
0.626912
0.665527
0.690531
0.701994
0.700566
0.686513
0.660126
0.622014
0.57338
0.516155
0.45301
0.387383
0.323165
0.265463
0.21951
0.19013
0.180823
0.192883
0.224911
0.272961
0.331344
0.393858
0.455167
0.512411
0.564776
0.612659
0.657876
0.703293
0.75227
0.808729
0.877981
0.964426
1.06
1.14184
1.18109
1.15123
1.03634
0.829028
0.491078
0.106897
-0.221174
-0.407145
-0.40875
-0.240085
0.0350547
0.326967
0.552288
0.674509
0.743689
0.790339
0.822869
0.850629
0.88267
0.926097
0.984209
1.0582
1.1483
1.24647
1.34189
1.42342
1.48167
1.51024
1.50585
1.46775
1.39691
1.29575
1.17221
1.03254
0.883139
0.731868
0.587478
0.458441
0.351918
0.281497
0.277012
0.386973
0.597258
0.82751
0.988258
1.00334
0.840896
0.539734
0.210548
0
0.0236996
0.21003
0.475011
1.21532
2.21775
3.25936
4.29581
5.23094
5.91009
6.18266
5.9752
5.31873
4.33389
3.20014
2.13008
1.34384
1.12577
1.17236
1.21131
1.22542
1.20546
1.15419
1.0848
1.01529
0.96248
0.932042
0.916846
0.902015
0.873797
0.827411
0.770054
0.718263
0.691593
0.705292
0.751981
0.823748
0.916344
1.02512
1.1441
1.26623
1.38348
1.4886
1.57728
1.64873
1.70572
1.7539
1.80026
1.85196
1.91713
1.99221
2.06717
2.1333
2.19138
2.25509
2.34674
2.48733
2.68638
2.92944
3.19132
3.45909
3.72295
3.97408
4.20359
4.4039
4.57143
4.70551
4.80599
4.87281
4.90618
4.90699
4.87718
4.81978
4.73834
4.63617
4.5151
4.37488
4.21424
4.03292
3.8315
3.61033
3.3722
3.12235
2.86756
2.61496
2.3717
2.14118
1.92353
1.71723
1.52127
1.33674
1.16695
1.01603
0.891357
0.791083
0.707875
0.631508
0.553267
0.470122
0.38679
0.314824
0.269166
0.263103
0.29606
0.385094
0.544356
0.742536
0.932811
1.073
1.13749
1.12259
1.04455
0.932178
0.817221
0.725541
0.662654
0.622078
0.597871
0.586295
0.585204
0.592868
0.608422
0.631966
0.664282
0.706677
0.761318
0.828717
0.903995
0.976695
1.03453
1.06636
1.06492
1.02854
0.961538
0.873142
0.775585
0.681784
0.601776
0.540716
0.500404
0.48256
0.48897
0.51991
0.574906
0.656749
0.75952
0.868022
0.96549
1.03715
1.07307
1.06927
1.02691
0.950473
0.84633
0.723875
0.593701
0.464807
0.34869
0.256784
0.198038
0.176466
0.189789
0.22991
0.285245
0.344161
0.398313
0.446211
0.489631
0.531943
0.577592
0.631642
0.701044
0.788301
0.879518
0.95476
0.996508
0.998385
0.970219
0.936357
0.927032
0.966072
1.05944
1.18212
1.31578
1.44679
1.56198
1.65041
1.70418
1.71852
1.69132
1.62269
1.5158
1.37692
1.21264
1.0308
0.840871
0.653213
0.477981
0.323941
0.198072
0.1039
0.041635
0.00861113
0
0.0120592
0.0361118
0.0664413
0.0986513
0.13004
0.156025
0.353028
1.06743
2.29747
3.81412
5.24073
6.20256
6.45879
5.96727
4.8779
3.47667
2.10183
1.04404
0.453548
0.332152
0.388427
0.442061
0.490782
0.531393
0.561508
0.579642
0.585256
0.578742
0.561356
0.535139
0.50279
0.46751
0.432754
0.401879
0.377829
0.362813
0.3592
0.367562
0.387674
0.419258
0.462464
0.517939
0.586378
0.667693
0.760162
0.860005
0.961658
1.05899
1.14653
1.22087
1.28148
1.33097
1.37464
1.41962
1.47344
1.54244
1.63199
1.74637
1.88801
2.05714
2.25165
2.4671
2.69735
2.93511
3.17005
3.3911
3.58849
3.75357
3.87944
3.96405
4.00813
4.01464
3.98815
3.93412
3.85807
3.76466
3.65686
3.53567
3.40177
3.2556
3.0967
2.92508
2.74208
2.55045
2.35413
2.1578
1.96629
1.7841
1.61504
1.4619
1.32653
1.21052
1.11316
1.03132
0.961031
0.898418
0.840478
0.785612
0.73368
0.685612
0.642729
0.605567
0.573842
0.546633
0.522132
0.497367
0.468816
0.433431
0.389663
0.337136
0.280072
0.230196
0.202234
0.209807
0.261063
0.355613
0.483946
0.629648
0.77372
0.899517
1.0019
1.07699
1.12516
1.14948
1.15392
1.14193
1.11757
1.08292
1.03997
0.99155
0.941631
0.894945
0.856184
0.828897
0.815265
0.815484
0.826322
0.843195
0.86164
0.87862
0.89318
0.906216
0.919454
0.934008
0.949189
0.95993
0.95767
0.933128
0.879988
0.798094
0.694913
0.584675
0.485509
0.424633
0.481231
0.7117
1.02165
1.29491
1.43925
1.41276
1.23199
0.962587
0.697095
0.525754
0.480519
0.498996
0.540984
0.592479
0.645213
0.693162
0.733567
0.767064
0.796941
0.827813
0.864202
0.909046
0.962795
1.02502
1.09489
1.17085
1.25077
1.33002
1.40185
1.45909
1.49546
1.50686
1.49211
1.45269
1.39185
1.31347
1.22195
1.12255
1.01925
0.915661
0.815938
0.724661
0.646301
0.584474
0.541983
0.522551
0.525526
0.541866
0.560277
0.569813
0.562134
0.532664
0.480469
0.407195
0.31579
0.210606
0.0968126
-0.022686
-0.14769
0
0.742319
2.04093
3.64789
5.20732
6.38382
6.94157
6.77578
5.9271
4.58767
3.07332
1.73904
0.857167
0.517555
0.617124
0.659388
0.686379
0.694312
0.681538
0.651803
0.613161
0.575589
0.548134
0.53489
0.535833
0.549936
0.574534
0.606567
0.64376
0.68532
0.732065
0.785858
0.848664
0.921521
1.0052
1.09773
1.1907
1.27149
1.32808
1.35269
1.34453
1.3108
1.26549
1.22651
1.21189
1.2334
1.29026
1.37875
1.49691
1.64279
1.81286
2.00214
2.20464
2.41382
2.62304
2.82555
3.01324
3.17661
3.31068
3.41353
3.48686
3.53659
3.57274
3.60824
3.65652
3.73181
3.85782
4.02748
4.20771
4.35992
4.4545
4.47772
4.42937
4.31477
4.13768
3.89842
3.60763
3.27961
2.92633
2.55895
2.18855
1.82429
1.47554
1.15484
0.87674
0.653887
0.493147
0.398126
0.368128
0.397064
0.472929
0.578444
0.693206
0.797087
0.874193
0.915318
0.919023
0.890467
0.838666
0.773305
0.702482
0.631318
0.562008
0.495935
0.434355
0.378592
0.330272
0.291379
0.264216
0.251656
0.256799
0.281916
0.328372
0.396002
0.483879
0.590412
0.705814
0.81718
0.911316
0.976942
1.00618
0.995032
0.943195
0.853674
0.73269
0.592068
0.443957
0.300882
0.176946
0.0853332
0.0361859
0.0347948
0.086831
0.196744
0.353729
0.533637
0.702015
0.828894
0.892892
0.879288
0.782588
0.614083
0.408029
0.217766
0.0980711
0.0789641
0.136441
0.235291
0.328625
0.379546
0.37774
0.341634
0.305098
0.296914
0.325383
0.368573
0.41272
0.447805
0.467882
0.472613
0.466957
0.459433
0.459743
0.474466
0.506249
0.556624
0.625991
0.712975
0.814775
0.927254
1.04505
1.16146
1.26785
1.35483
1.41481
1.44193
1.43278
1.38701
1.30765
1.20088
1.07538
0.941139
0.808123
0.683321
0.570751
0.473295
0.392703
0.329083
0.281127
0.246161
0.219662
0.196096
0.170394
0.138814
0.0995065
0.0526286
0
-0.065561
0.385968
1.41737
2.90399
4.50655
5.78981
6.40766
6.24428
5.43425
4.26855
3.06003
2.04521
1.34822
0.991768
0.896047
0.804468
0.716273
0.632739
0.556209
0.488966
0.433068
0.389481
0.357646
0.335738
0.320984
0.310385
0.301067
0.291228
0.280744
0.271374
0.266546
0.270716
0.288426
0.323271
0.377049
0.448324
0.53438
0.631532
0.735378
0.841463
0.946124
1.04664
1.14136
1.22956
1.31125
1.38671
1.45616
1.51985
1.57894
1.63565
1.69383
1.75936
1.83989
1.94379
2.07835
2.24788
2.45247
2.68498
2.93642
3.1995
3.46773
3.7357
3.99715
4.24385
4.46886
4.66184
4.80697
4.88862
4.89726
4.83158
4.69694
4.50259
4.25983
3.98552
3.69527
3.40052
3.10959
2.8281
2.56087
2.31326
2.08989
1.8942
1.72807
1.59132
1.4816
1.39491
1.3261
1.26956
1.22011
1.17369
1.12779
1.0816
1.03588
0.992658
0.954552
0.924195
0.903687
0.894231
0.89598
0.90807
0.928787
0.955742
0.986206
1.01732
1.04614
1.06953
1.08461
1.08867
1.07936
1.05482
1.01393
0.956611
0.884248
0.799241
0.704985
0.61586
0.550235
0.526994
0.586518
0.784271
1.06356
1.33187
1.50621
1.54969
1.47932
1.34618
1.2058
1.09778
1.02739
0.980113
0.948435
0.928704
0.917891
0.912238
0.907492
0.899262
0.88358
0.857685
0.820588
0.773469
0.719707
0.664471
0.61384
0.574222
0.553778
0.55693
0.57851
0.607764
0.631915
0.639975
0.625796
0.589573
0.537542
0.480178
0.429473
0.394801
0.380546
0.386524
0.409929
0.447576
0.496465
0.553011
0.613549
0.674387
0.732096
0.784065
0.828676
0.865332
0.894308
0.916438
0.932591
0.943325
0.949698
0.953227
0.956598
0.964195
0.981996
1.01661
1.07362
1.16873
1.30416
1.4553
1.58917
1.67647
1.70157
1.66622
1.58583
1.48102
1.36852
1.25549
1.14108
1.02306
0.899234
0.766776
0.624664
0.476006
0.329109
0.196785
0.0916981
0.0239514
0
0.025163
0.093139
0.195479
0.32768
0.838872
1.70544
2.97574
4.54697
6.13866
7.38438
7.97126
7.75284
6.79195
5.33507
3.73314
2.32876
1.34418
0.820665
0.717754
0.678066
0.641813
0.6068
0.57199
0.537246
0.503563
0.473073
0.448765
0.433815
0.431756
0.448161
0.484514
0.531334
0.575757
0.606292
0.617367
0.611557
0.598464
0.590905
0.600302
0.631012
0.678547
0.739357
0.81135
0.892187
0.979479
1.07088
1.16402
1.25618
1.34393
1.42312
1.49064
1.54508
1.58806
1.62511
1.66575
1.72231
1.80749
1.93139
2.09829
2.30149
2.53042
2.77595
3.0292
3.28203
3.5282
3.76344
3.98477
4.18968
4.37545
4.53785
4.66841
4.75239
4.77544
4.73096
4.62398
4.46943
4.28543
4.08564
3.87635
3.66025
3.43888
3.21303
2.98421
2.7553
2.53048
2.31477
2.1135
1.93174
1.77343
1.64095
1.53608
1.45781
1.40275
1.36606
1.34196
1.32424
1.30673
1.28335
1.24904
1.20047
1.13682
1.06048
0.977191
0.895658
0.829039
0.812484
0.889816
1.03138
1.17177
1.24108
1.19806
1.04874
0.843387
0.653969
0.542129
0.516952
0.534445
0.571941
0.622595
0.680337
0.740662
0.800748
0.858997
0.914205
0.965091
1.00984
1.04618
1.07178
1.08479
1.0843
1.07066
1.04558
1.01235
0.974894
0.937461
0.904383
0.879574
0.865618
0.863644
0.874114
0.896354
0.928488
0.967624
1.00963
1.04809
1.07489
1.08243
1.06505
1.0208
0.952657
0.868745
0.781096
0.703219
0.64711
0.618542
0.61997
0.648973
0.69932
0.762651
0.830173
0.89434
0.949078
0.988474
1.00918
1.00974
0.990988
0.956275
0.911423
0.864025
0.822199
0.793108
0.780908
0.787067
0.8114
0.851878
0.905238
0.966879
1.03267
1.09844
1.15965
1.21188
1.25117
1.27438
1.27958
1.26639
1.23609
1.19168
1.13766
1.07929
1.02357
0.977417
0.946832
0.936291
0.948498
0.984519
1.04411
1.12601
1.22722
1.34325
1.47185
1.6066
1.73797
1.85555
1.94881
2.00943
2.03224
2.01584
1.96284
1.87979
1.77639
1.664
1.55347
1.453
1.3651
1.2877
1.21918
1.15796
1.10276
1.0531
1.00922
0.971614
0.941007
0.916133
0.889615
0.850316
0.785803
0.674959
0.483377
0.235666
-0.0257877
-0.263661
-0.461615
0
1.05044
2.56546
4.42804
6.35126
7.91881
8.73617
8.6057
7.61556
6.09066
4.44614
3.03093
2.02976
1.44789
1.1776
1.05667
0.956388
0.877434
0.825441
0.802778
0.808288
0.837697
0.884556
0.941411
1.00083
1.05619
1.10081
1.12995
1.14076
1.13298
1.10962
1.07695
1.04365
1.01886
1.00985
1.01852
1.04699
1.08991
1.14001
1.19151
1.24277
1.29714
1.36148
1.443
1.54584
1.668
1.80113
1.93835
2.07384
2.20348
2.32587
2.4425
2.55709
2.67418
2.79759
2.93051
3.07323
3.21501
3.34129
3.43964
3.50529
3.54437
3.57331
3.61497
3.73859
4.07263
4.52531
4.9356
5.16621
5.16688
4.98385
4.71689
4.45266
4.21507
3.96874
3.70603
3.43364
3.15691
2.88145
2.61394
2.36105
2.12869
1.92164
1.74262
1.59207
1.46835
1.36811
1.28697
1.21999
1.16221
1.10897
1.05621
1.00071
0.940303
0.874156
0.802561
0.727393
0.652503
0.582713
0.523139
0.47857
0.45301
0.449403
0.469456
0.513442
0.579788
0.664954
0.763777
0.869645
0.974967
1.07244
1.15612
1.22217
1.26903
1.29707
1.3079
1.30371
1.28758
1.26203
1.22976
1.19366
1.15797
1.12718
1.10527
1.09491
1.09693
1.1103
1.13244
1.15996
1.18919
1.21684
1.23988
1.25555
1.26125
1.25465
1.23397
1.19835
1.14828
1.08588
1.0149
0.940386
0.867819
0.802251
0.747469
0.706858
0.681469
0.669403
0.667679
0.673372
0.684436
0.699872
0.719293
0.742768
0.766933
0.785589
0.791682
0.780206
0.750578
0.707067
0.656962
0.607432
0.562776
0.522285
0.484214
0.447246
0.410924
0.376396
0.346623
0.325989
0.319422
0.330472
0.366177
0.434695
0.536286
0.654769
0.764901
0.842382
0.869707
0.839668
0.755999
0.631471
0.484324
0.334361
0.198732
0.0858625
-0.00260057
-0.061852
-0.0877029
-0.0779371
-0.0326677
0.0455926
0.152293
0.281633
0.427579
0.584116
0.746807
0.913787
1.08361
1.25234
1.4081
1.53036
1.59458
1.58203
1.48922
1.33153
1.13875
0.94533
0.780703
0.65071
0.547209
0.465107
0.40328
0.361898
0.339858
0.32967
0.31915
0.295633
0.248773
0.173121
0.0696054
-0.0545943
-0.187893
-0.316246
-0.426433
-0.508568
-0.557432
-0.572709
-0.55839
-0.521695
-0.417115
0
0.802484
2.02881
3.50494
4.87058
5.73284
5.84947
5.22908
4.09129
2.73241
1.39769
0.237209
-0.660366
-1.14928
-1.06088
-0.947242
-0.811082
-0.661613
-0.513353
-0.381793
-0.274096
-0.188902
-0.130701
-0.10253
-0.105614
-0.138906
-0.198682
-0.2784
-0.368946
-0.459307
-0.536392
-0.587894
-0.60435
-0.5812
-0.520278
-0.421798
-0.305458
-0.194011
-0.105883
-0.0490234
-0.0187085
-0.000363636
0.0238522
0.0677533
0.134328
0.215593
0.306774
0.404606
0.507691
0.61733
0.737228
0.872138
1.0259
1.19952
1.38923
1.59008
1.79055
1.9782
2.14295
2.27959
2.38885
2.4766
193
419
640
868
1096
1319
1548
1772
1992
2209
2421
2627
2834
3031
3236
3464
3694
3624
3700
3725
3216
3371
3518
3670
3730
0
0
0
0
0
0
0
0
0
0
0
0
0
0
0
0
0
0
0
0
0
0
0
0
0
0
0
0
0
0
0
0
0
0
0
0
0
0
0
0
0
0
0
0
0
0
0
0
0
0
0
0
0
0
0
0
0
0
0
0
0
0
0
0
0
0
0
0
0
0
0
0
0
0
0
0
0
0
0
0
0
0
0
0
0
0
0
0
0
0
0
0
0
0
0
0
0
0
0
0
0
0
0
0
0
0
0
0
0
0
0
0
0
0
0
0
0
0
0
0
0
0
0
0
0
0
0
0
0
0
0
0
0
0
0
0
0
0
0
0
0
0
0
0
0
0
0
0
0
0
0
0
0
0
0
0
0
0
0
0
0
0
0
0
0
0
0
0
0
0
0
0
0
0
0
0
0
0
0
0
0
0
0
0
0
0
0
0
0
0
0
0
0
0
0
0
0
0
0
0
0
0
0
0
0
0
0
0
0
0
0
0
0
0
0
0
0
0
0
0
0
0
0
0
0
0
0
0
0
0
0
0
0
0
0
0
0
0
0
0
0
0
0
0
0
0
0
0
0
0
0
0
0
0
0
0
0
0
0
0
0
0
0
0
0
0
0
0
0
0
0
0
0
0
0
0
0
0
0
0
0
0
0
0
0
0
0
0
0
0
0
0
0
0
0
0
0
0
0
0
0
0
0
0
0
0
0
0
0
0
0
0
0
0
0
0
0
0
0
0
0
0
0
0
0
0
0
0
0
0
0
0
0
0
0
0
0
0
0
0
0
0
0
0
0
0
0
0
0
0
0
0
0
0
0
0
0
0
0
0
0
0
0
0
0
0
0
0
0
0
0
0
0
0
0
0
0
0
0
0
0
0
0
0
0
0
0
0
0
0
0
0
0
0
0
0
0
0
0
0
0
0
0
0
0
0
0
0
0
0
0
0
0
0
0
0
0
0
0
0
0
0
0
0
0
0
0
0
0
0
0
0
0
0
0
0
0
0
0
0
0
0
0
0
0
0
0
0
0
0
0
0
0
0
0
0
0
0
0
0
0
0
0
0
0
0
0
0
0
0
0
0
0
0
0
0
0
0
0
0
0
0
0
0
0
0
0
0
0
0
0
0
0
0
0
0
0
0
0
0
0
0
0
0
0
0
0
0
0
0
0
0
0
0
0
0
0
0
0
0
0
0
0
0
0
0
0
0
0
0
0
0
0
0
0
0
0
0
0
0
0
0
0
0
0
0
0
0
0
0
0
0
0
0
0
0
0
0
0
0
0
0
0
0
0
0
0
0
0
0
0
0
0
0
0
0
0
0
0
0
0
0
0
0
0
0
0
0
0
0
0
0
0
0
0
0
0
0
0
0
0
0
0
0
0
0
0
0
0
0
0
0
0
0
0
0
0
0
0
0
0
0
0
0
0
0
0
0
0
0
0
0
0
0
0
0
0
0
0
0
0
0
0
0
0
0
0
0
0
0
0
0
0
0
0
0
0
0
0
0
0
0
0
0
0
0
0
0
0
0
0
0
0
0
0
0
0
0
0
0
0
0
0
0
0
0
0
0
0
0
0
0
0
0
0
0
0
0
0
0
0
0
0
0
0
0
0
0
0
0
0
0
0
0
0
0
0
0
0
0
0
0
0
0
0
0
0
0
0
0
0
0
0
0
0
0
0
0
0
0
0
0
0
0
0
0
0
0
0
0
0
0
0
0
0
0
0
0
0
0
0
0
0
0
0
0
0
0
0
0
0
0
0
0
0
0
0
0
0
0
0
0
0
0
0
0
0
0
0
0
0
0
0
0
0
0
0
0
0
0
0
0
0
0
0
0
0
0
0
0
0
0
0
0
0
0
0
0
0
0
0
0
0
0
0
0
0
0
0
0
0
0
0
0
0
0
0
0
0
0
0
0
0
0
0
0
0
0
0
0
0
0
0
0
0
0
0
0
0
0
0
0
0
0
0
0
0
0
0
0
0
0
0
0
0
0
0
0
0
0
0
0
0
0
0
0
0
0
0
0
0
0
0
0
0
0
0
0
0
0
0
0
0
0
0
0
0
0
0
0
0
0
0
0
0
0
0
0
0
0
0
0
0
0
0
0
0
0
0
0
0
0
0
0
0
0
0
0
0
0
0
0
0
0
0
0
0
0
0
0
0
0
0
0
0
0
0
0
0
0
0
0
0
0
0
0
0
0
0
0
0
0
0
0
0
0
0
0
0
0
0
0
0
0
0
0
0
0
0
0
0
0
0
0
0
0
0
0
0
0
0
0
0
0
0
0
0
0
0
0
0
0
0
0
0
0
0
0
0
0
0
0
0
0
0
0
0
0
0
0
0
0
0
0
0
0
0
0
0
0
0
0
0
0
0
0
0
0
0
0
0
0
0
0
0
0
0
0
0
0
0
0
0
0
0
0
0
0
0
0
0
0
0
0
0
0
0
0
0
0
0
0
0
0
0
0
0
0
0
0
0
0
0
0
0
0
0
0
0
0
0
0
0
0
0
0
0
0
0
0
0
0
0
0
0
0
0
0
0
0
0
0
0
0
0
0
0
0
0
0
0
0
0
0
0
0
0
0
0
0
0
0
0
0
0
0
0
0
0
0
0
0
0
0
0
0
0
0
0
0
0
0
0
0
0
0
0
0
0
0
0
0
0
0
0
0
0
0
0
0
0
0
0
0
0
0
0
0
0
0
0
0
0
0
0
0
0
0
0
0
0
0
0
0
0
0
0
0
0
0
0
0
0
0
0
0
0
0
0
0
0
0
0
0
0
0
0
0
0
0
0
0
0
0
0
0
0
0
0
0
0
0
0
0
0
0
0
0
0
0
0
0
0
0
0
0
0
0
0
0
0
0
0
0
0
0
0
0
0
0
0
0
0
0
0
0
0
0
0
0
0
0
0
0
0
0
0
0
0
0
0
0
0
0
0
0
0
0
0
0
0
0
0
0
0
0
0
0
0
0
0
0
0
0
0
0
0
0
0
0
0
0
0
0
0
0
0
0
0
0
0
0
0
0
0
0
0
0
0
0
0
0
0
0
0
0
0
0
0
0
0
0
0
0
0
0
0
0
0
0
0
0
0
0
0
0
0
0
0
0
0
0
0
0
0
0
0
0
0
0
0
0
0
0
0
0
0
0
0
0
0
0
0
0
0
0
0
0
0
0
0
0
0
0
0
0
0
0
0
0
0
0
0
0
0
0
0
0
0
0
0
0
0
0
0
0
0
0
0
0
0
0
0
0
0
0
0
0
0
0
0
0
0
0
0
0
0
0
0
0
0
0
0
0
0
0
0
0
0
0
0
0
0
0
0
0
0
0
0
0
0
0
0
0
0
0
0
0
0
0
0
0
0
0
0
0
0
0
0
0
0
0
0
0
0
0
0
0
0
0
0
0
0
0
0
0
0
0
0
0
0
0
0
0
0
0
0
0
0
0
0
0
0
0
0
0
0
0
0
0
0
0
0
0
0
0
0
0
0
0
0
0
0
0
0
0
0
0
0
0
0
0
0
0
0
0
0
0
0
0
0
0
0
0
0
0
0
0
0
0
0
0
0
0
0
0
0
0
0
0
0
0
0
0
0
0
0
0
0
0
0
0
0
0
0
0
0
0
0
0
0
0
0
0
0
0
0
0
0
0
0
0
0
0
0
0
0
0
0
0
0
0
0
0
0
0
0
0
0
0
0
0
0
0
0
0
0
0
0
0
0
0
0
0
0
0
0
0
0
0
0
0
0
0
0
0
0
0
0
0
0
0
0
0
0
0
0
0
0
0
0
0
0
0
0
0
0
0
0
0
0
0
0
0
0
0
0
0
0
0
0
0
0
0
0
0
0
0
0
0
0
0
0
0
0
0
0
0
0
0
0
0
0
0
0
0
0
0
0
0
0
0
0
0
0
0
0
0
0
0
0
0
0
0
0
0
0
0
0
0
0
0
0
0
0
0
0
0
0
0
0
0
0
0
0
0
0
0
0
0
0
0
0
0
0
0
0
0
0
0
0
0
0
0
0
0
0
0
0
0
0
0
0
0
0
0
0
0
0
0
0
0
0
0
0
0
0
0
0
0
0
0
0
0
0
0
0
0
0
0
0
0
0
0
0
0
0
0
0
0
0
0
0
0
0
0
0
0
0
0
0
0
0
0
0
0
0
0
0
0
0
0
0
0
0
0
0
0
0
0
0
0
0
0
0
0
0
0
0
0
0
0
0
0
0
0
0
0
0
0
0
0
0
0
0
0
0
0
0
0
0
0
0
0
0
0
0
0
0
0
0
0
0
0
0
0
0
0
0
0
0
0
0
0
0
0
0
0
0
0
0
0
0
0
0
0
0
0
0
0
0
0
0
0
0
0
0
0
0
0
0
0
0
0
0
0
0
0
0
0
0
0
0
0
0
0
0
0
0
0
0
0
0
0
0
0
0
0
0
0
0
0
0
0
0
0
0
0
0
0
0
0
0
0
0
0
0
0
0
0
0
0
0
0
0
0
0
0
0
0
0
0
0
0
0
0
0
0
0
0
0
0
0
0
0
0
0
0
0
0
0
0
0
0
0
0
0
0
0
0
0
0
0
0
0
0
0
0
0
0
0
0
0
0
0
0
0
0
0
0
0
0
0
0
0
0
0
0
0
0
0
0
0
0
0
0
0
0
0
0
0
0
0
0
0
0
0
0
0
0
0
0
0
0
0
0
0
0
0
0
0
0
0
0
0
0
0
0
0
0
0
0
0
0
0
0
0
0
0
0
0
0
0
0
0
0
0
0
0
0
0
0
0
0
0
0
0
0
0
0
0
0
0
0
0
0
0
0
0
0
0
0
0
0
0
0
0
0
0
0
0
0
0
0
0
0
0
0
0
0
0
0
0
0
0
0
0
0
0
0
0
0
0
0
0
0
0
0
0
0
0
0
0
0
0
0
0
0
0
0
0
0
0
0
0
0
0
0
0
0
0
0
0
0
0
0
0
0
0
0
0
0
0
0
0
0
0
0
0
0
0
0
0
0
0
0
0
0
0
0
0
0
0
0
0
0
0
0
0
0
0
0
0
0
0
0
0
0
0
0
0
0
0
0
0
0
0
0
0
0
0
0
0
0
0
0
0
0
0
0
0
0
0
0
0
0
0
0
0
0
0
0
0
0
0
0
0
0
0
0
0
0
0
0
0
0
0
0
0
0
0
0
0
0
0
0
0
0
0
0
0
0
0
0
0
0
0
0
0
0
0
0
0
0
0
0
0
0
0
0
0
0
0
0
0
0
0
0
0
0
0
0
0
0
0
0
0
0
0
0
0
0
0
0
0
0
0
0
0
0
0
0
0
0
0
0
0
0
0
0
0
0
0
0
0
0
0
0
0
0
0
0
0
0
0
0
0
0
0
0
0
0
0
0
0
0
0
0
0
0
0
0
0
0
0
0
0
0
0
0
0
0
0
0
0
0
0
0
0
0
0
0
0
0
0
0
0
0
0
0
0
0
0
0
0
0
0
0
0
0
0
0
0
0
0
0
0
0
0
0
0
0
0
0
0
0
0
0
0
0
0
0
0
0
0
0
0
0
0
0
0
0
0
0
0
0
0
0
0
0
0
0
0
0
0
0
0
0
0
0
0
0
0
0
0
0
0
0
0
0
0
0
0
0
0
0
0
0
0
0
0
0
0
0
0
0
0
0
0
0
0
0
0
0
0
0
0
0
0
0
0
0
0
0
0
0
0
0
0
0
0
0
0
0
0
0
0
0
0
0
0
0
0
0
0
0
0
0
0
0
0
0
0
0
0
0
0
0
0
0
0
0
0
0
0
0
0
0
0
0
0
0
0
0
0
0
0
0
0
0
0
0
0
0
0
0
0
0
0
0
0
0
0
0
0
0
0
0
0
0
0
0
0
0
0
0
0
0
0
0
0
0
0
0
0
0
0
0
0
0
0
0
0
0
0
0
0
0
0
0
0
0
0
0
0
0
0
0
0
0
0
0
0
0
0
0
0
0
0
0
0
0
0
0
0
0
0
0
0
0
0
0
0
0
0
0
0
0
0
0
0
0
0
0
0
0
0
0
0
0
0
0
0
0
0
0
0
0
0
0
0
0
0
0
0
0
0
0
0
0
0
0
0
0
0
0
0
0
0
0
0
0
0
0
0
0
0
0
0
0
0
0
0
0
0
0
0
0
0
0
0
0
0
0
0
0
0
0
0
0
0
0
0
0
0
0
0
0
0
0
0
0
0
0
0
0
0
0
0
0
0
0
0
0
0
0
0
0
0
0
0
0
0
0
0
0
0
0
0
0
0
0
0
0
0
0
0
0
0
0
0
0
0
0
0
0
0
0
0
0
0
0
0
0
0
0
0
0
0
0
0
0
0
0
0
0
0
0
0
0
0
0
0
0
0
0
0
0
0
0
0
0
0
0
0
0
0
0
0
0
0
0
0
0
0
0
0
0
0
0
0
0
0
0
0
0
0
0
0
0
0
0
0
0
0
0
0
0
0
0
0
0
0
0
0
0
0
0
0
0
0
0
0
0
0
0
0
0
0
0
0
0
0
0
0
0
0
0
0
0
0
0
0
0
0
0
0
0
0
0
0
0
0
0
0
0
0
0
0
0
0
0
0
0
0
0
0
0
0
0
0
0
0
0
0
0
0
0
0
0
0
0
0
0
0
0
0
0
0
0
0
0
0
0
0
0
0
0
0
0
0
0
0
0
0
0
0
0
0
0
0
0
0
0
0
0
0
0
0
0
0
0
0
0
0
0
0
0
0
0
0
0
0
0
0
0
0
0
0
0
0
0
0
0
0
0
0
0
0
0
0
0
0
0
0
0
0
0
0
0
0
0
0
0
0
0
0
0
0
0
0
0
0
0
0
0
0
0
0
0
0
0
0
0
0
0
0
0
0
0
0
0
0
0
0
0
0
0
0
0
0
0
0
0
0
0
0
0
0
0
0
0
0
0
0
0
0
0
0
0
0
0
0
0
0
0
0
0
0
0
0
0
0
0
0
0
0
0
0
0
0
0
0
0
0
0
0
0
0
0
0
0
0
0
0
0
0
0
0
0
0
0
0
0
0
0
0
0
0
0
0
0
0
0
0
0
0
0
0
0
0
0
0
0
0
0
0
0
0
0
0
0
0
0
0
0
0
0
0
0
0
0
0
0
0
0
0
0
0
0
0
0
0
0
0
0
0
0
0
0
0
0
0
0
0
0
0
0
0
0
0
0
0
0
0
0
0
0
0
0
0
0
0
0
0
0
0
0
0
0
0
0
0
0
0
0
0
0
0
0
0
0
0
0
0
0
0
0
0
0
0
0
0
0
0
0
0
0
0
0
0
0
0
0
0
0
0
0
0
0
0
0
0
0
0
0
0
0
0
0
0
0
0
0
0
0
0
0
0
0
0
0
0
0
0
0
0
0
0
0
0
0
0
0
0
0
0
0
0
0
0
0
0
0
0
0
0
0
0
0
0
0
0
0
0
0
0
0
0
0
0
0
0
0
0
0
0
0
0
0
0
0
0
0
0
0
0
0
0
0
0
0
0
0
0
0
0
0
0
0
0
0
0
0
0
0
0
0
0
0
0
0
0
0
0
0
0
0
0
0
0
0
0
0
0
0
0
0
0
0
0
0
0
0
0
0
0
0
0
0
0
0
0
0
0
0
0
0
0
0
0
0
0
0
0
0
0
0
0
0
0
0
0
0
0
0
0
0
0
0
0
0
0
0
0
0
0
0
0
0
0
0
0
0
0
0
0
0
0
0
0
0
0
0
0
0
0
0
0
0
0
0
0
0
0
0
0
0
0
0
0
0
0
0
0
0
0
0
0
0
0
0
0
0
0
0
0
0
0
0
0
0
0
0
0
0
0
0
0
0
0
0
0
0
0
0
0
0
0
0
0
0
0
0
0
0
0
0
0
0
0
0
0
0
0
0
0
0
0
0
0
0
0
0
0
0
0
0
0
0
0
0
0
0
0
0
0
0
0
0
0
0
0
0
0
0
0
0
0
0
0
0
0
0
0
0
0
0
0
0
0
0
0
0
0
0
0
0
0
0
0
0
0
0
0
0
0
0
0
0
0
0
0
0
0
0
0
0
0
0
0
0
0
0
0
0
0
0
0
0
0
0
0
0
0
0
0
0
0
0
0
0
0
0
0
0
0
0
0
0
0
0
0
0
0
0
0
0
0
0
0
0
0
0
0
0
0
0
0
0
0
0
0
0
0
0
0
0
0
0
0
0
0
0
0
0
0
0
0
0
0
0
0
0
0
0
0
0
0
0
0
0
0
0
0
0
0
0
0
0
0
0
0
0
0
0
0
0
0
0
0
0
0
0
0
0
0
0
0
0
0
0
0
0
0
0
0
0
0
0
0
0
0
0
0
0
0
0
0
0
0
0
0
0
0
0
0
0
0
0
0
0
0
0
0
0
0
0
