-1.65901
-1.48378
-1.29951
-1.15085
-1.0701
-1.06507
-1.11677
-1.18799
-1.23898
-1.24272
-1.20275
-1.13832
-1.05945
-0.970292
-0.873991
-0.7729
-0.668718
-0.562925
-0.457626
-0.356107
-0.263187
-0.184997
-0.127405
-0.0953674
-0.0920662
-0.118139
-0.171128
-0.245255
-0.33165
-0.41911
-0.495426
-0.550696
-0.576873
-0.569383
-0.528359
-0.458883
-0.370267
-0.274427
-0.183589
-0.107332
-0.0515144
-0.0170547
0
-0.0190208
-0.0306465
0.377109
1.16495
2.18122
3.16479
3.82073
3.9274
3.43075
2.48132
1.38654
0.485942
0.0133469
0.0562561
0.307478
0.537869
0.753298
0.950808
1.12784
1.2845
1.42342
1.54883
1.66561
1.77967
1.89892
2.02242
2.12923
2.18788
2.17027
2.06633
1.89293
1.69229
1.51947
1.42397
1.41363
1.45721
1.54505
1.6725
1.83278
2.01988
2.23291
2.44966
2.63873
2.77103
2.83011
2.82022
2.76658
2.70619
2.67352
2.68806
2.73546
2.79894
2.87053
2.94436
3.01552
3.08119
3.1409
3.1963
3.25036
3.30638
3.36686
3.43263
3.50259
3.57297
3.63819
3.69178
3.72734
3.73933
3.72361
3.67777
3.60143
3.49634
3.3666
3.218
3.05744
2.89185
2.72694
2.56651
2.41151
2.26069
2.11194
1.96378
1.81641
1.67177
1.53285
1.40266
1.28301
1.17447
1.077
0.991015
0.918291
0.861981
0.829314
0.837873
0.89003
0.957832
1.00164
0.986783
0.900143
0.758215
0.602356
0.482419
0.435536
0.450961
0.50856
0.587308
0.662436
0.71253
0.724812
0.697099
0.636288
0.554561
0.464981
0.377738
0.296952
0.223273
0.156344
0.0954796
0.0399117
-0.0109085
-0.057003
-0.0978134
-0.132419
-0.159721
-0.17822
-0.188119
-0.192114
-0.193529
-0.194858
-0.196487
-0.196291
-0.190372
-0.174728
-0.14707
-0.108824
-0.0632141
-0.0140404
0.0352226
0.0827301
0.128893
0.176064
0.228
0.289805
0.358672
0.419301
0.450262
0.432999
0.360612
0.242164
0.100359
-0.0363174
-0.14332
-0.215077
-0.260772
-0.284563
-0.288261
-0.274167
-0.244135
-0.196703
-0.134352
-0.069619
-0.0191208
0
-0.0172974
-0.0830109
-0.192227
-0.333078
-0.490918
-0.652307
-0.797269
-0.639246
-0.116188
0.792607
1.92579
2.91661
3.33879
2.93691
1.79413
0.314957
-0.979781
-1.71056
-1.73169
-1.27685
-0.80995
-0.386082
-0.0781738
0.0556633
-0.000948334
-0.206779
-0.461203
-0.628163
-0.596041
-0.404576
-0.170116
0.064769
0.27756
0.451994
0.580373
0.66357
0.709009
0.727584
0.730669
0.728988
0.728748
0.73394
0.747363
0.770724
0.80477
0.849419
0.903936
0.96716
1.0378
1.11465
1.19667
1.2831
1.37316
1.46538
1.55573
1.63615
1.6968
1.72894
1.72877
1.7006
1.65745
1.61845
1.60352
1.62725
1.68793
1.77606
1.88417
2.00228
2.11993
2.22879
2.32221
2.39603
2.44829
2.47879
2.48854
2.47913
2.45237
2.41005
2.35403
2.28709
2.2124
2.13323
2.05335
1.97681
1.90748
1.84855
1.80172
1.76687
1.74226
1.72503
1.71161
1.69867
1.68378
1.66589
1.64529
1.62335
1.60184
1.58236
1.56576
1.55148
1.53791
1.52322
1.50612
1.48654
1.46568
1.44559
1.42827
1.41459
1.40372
1.39367
1.38113
1.36189
1.33215
1.28966
1.23475
1.17103
1.10516
1.04604
1.00504
1.00641
1.07563
1.1962
1.33297
1.44708
1.50959
1.50809
1.44571
1.33604
1.19877
1.05786
0.935519
0.843934
0.790092
0.798632
0.945266
1.22927
1.55187
1.80358
1.90662
1.84333
1.66053
1.44625
1.28808
1.23562
1.25208
1.29711
1.3572
1.42817
1.50699
1.59109
1.67722
1.76157
1.83981
1.90705
1.95693
1.98202
1.97656
1.93619
1.85906
1.74703
1.60632
1.44719
1.28253
1.12537
0.985326
0.866134
0.769521
0.693813
0.634994
0.588059
0.548179
0.511385
0.474675
0.435744
0.392636
0.344004
0.288652
0.225964
0.15636
0.0810707
0
0.0071991
0.42737
1.22066
2.24328
3.24539
3.93995
4.09065
3.59951
2.55892
1.23692
-0.0120213
-0.875224
-1.09317
-0.679605
-0.235645
0.213619
0.622854
0.941589
1.17099
1.30309
1.34335
1.31057
1.23166
1.13544
1.0475
0.98238
0.942017
0.924195
0.926888
0.949972
0.993821
1.05666
1.13089
1.20277
1.25833
1.28663
1.28283
1.25004
1.19897
1.1456
1.10727
1.09856
1.12113
1.16956
1.23985
1.32895
1.43235
1.5447
1.66033
1.77383
1.88047
1.97641
2.05817
2.1219
2.16521
2.18764
2.19044
2.17716
2.1521
2.12653
2.11351
2.12466
2.1667
2.23918
2.33418
2.43849
2.53705
2.61668
2.6736
2.70395
2.70676
2.68287
2.63385
2.56283
2.47288
2.36635
2.24564
2.11398
1.97556
1.83532
1.69846
1.56984
1.45337
1.35159
1.26545
1.19435
1.13645
1.08909
1.04949
1.01534
0.985585
0.960841
0.94356
0.937264
0.945831
0.972235
1.01751
1.08027
1.15684
1.24198
1.32975
1.41441
1.49039
1.55109
1.59197
1.60984
1.6037
1.57558
1.531
1.47847
1.42808
1.38948
1.36909
1.36704
1.38343
1.41577
1.45973
1.51023
1.56004
1.6025
1.63232
1.64598
1.6418
1.61946
1.57964
1.52375
1.45442
1.37675
1.29551
1.21695
1.14833
1.10001
1.09096
1.13962
1.23378
1.33875
1.41573
1.43561
1.38828
1.28511
1.1547
1.03387
0.956171
0.929425
0.939798
0.985908
1.06181
1.14886
1.22581
1.27396
1.28073
1.24173
1.16079
1.04829
0.918273
0.785141
0.659644
0.545944
0.444579
0.355198
0.277541
0.211126
0.155089
0.108413
0.0701229
0.0394089
0.0157642
0
0.00446701
0.0872093
0.465189
1.10816
1.92022
2.72918
3.30134
3.4057
2.91287
1.88435
0.586582
-0.606364
-1.35494
-1.28834
-1.06686
-0.828184
-0.600211
-0.410304
-0.275576
-0.180356
-0.108497
-0.0486
0.0123859
0.094981
0.220885
0.371163
0.505107
0.580646
0.575327
0.497552
0.382749
0.276534
0.213469
0.195732
0.197857
0.206234
0.212077
0.208925
0.194204
0.169695
0.140818
0.114965
0.099398
0.0984306
0.11303
0.143099
0.186955
0.242247
0.306754
0.3787
0.456542
0.53941
0.623071
0.700827
0.765633
0.812854
0.842736
0.861259
0.878839
0.907382
0.956892
1.03523
1.15179
1.30341
1.46441
1.60023
1.67879
1.67608
1.58212
1.40652
1.17937
0.944111
0.742591
0.589907
0.470364
0.369092
0.279808
0.198114
0.119579
0.0402378
-0.0429493
-0.131672
-0.225855
-0.32338
-0.419716
-0.507158
-0.576591
-0.619228
-0.628624
-0.587026
-0.483749
-0.346653
-0.212212
-0.11301
-0.067767
-0.0777534
-0.130031
-0.204482
-0.280256
-0.340427
-0.380437
-0.399891
-0.39672
-0.369987
-0.318323
-0.246794
-0.164645
-0.0827826
-0.0122875
0.0378529
0.0619633
0.05812
0.0278725
-0.0245092
-0.0929985
-0.170719
-0.250572
-0.325737
-0.389741
-0.43421
-0.452597
-0.440023
-0.394794
-0.31973
-0.222572
-0.11493
-0.00988464
0.0810631
0.152393
0.202213
0.233372
0.25242
0.268026
0.289115
0.321831
0.3706
0.44179
0.550054
0.70904
0.899958
1.08511
1.22571
1.29456
1.28354
1.20316
1.07581
0.926732
0.776997
0.63782
0.511304
0.397394
0.296285
0.209052
0.137012
0.0807985
0.0401463
0.0138588
0
-0.0230232
-0.0381424
-0.0472038
-0.051619
-0.0523819
-0.0503288
-0.0463093
-0.0412731
-0.0359001
-0.0309792
0.0172585
0.454705
1.26886
2.19458
2.80875
2.74541
1.89655
0.481662
-1.04966
-2.22167
-2.62659
-2.52459
-2.01446
-1.37189
-0.844108
-0.57853
-0.531611
-0.526806
-0.532832
-0.54472
-0.561227
-0.580958
-0.602293
-0.623354
-0.64202
-0.655993
-0.662895
-0.66037
-0.646433
-0.619207
-0.575177
-0.504704
-0.388565
-0.232908
-0.0824703
0
-0.0451069
-0.247123
-0.676002
-1.19888
-1.62878
-1.80203
-1.64851
-1.22509
-0.693723
-0.249349
-0.0277004
0.0622326
0.104137
0.109968
0.0908695
0.0554928
0.0114689
-0.0357456
-0.0810291
-0.118031
-0.139404
-0.137862
-0.107693
-0.0476562
0.0411533
0.156984
0.293718
0.435817
0.564897
0.664867
0.724547
0.738902
0.708829
0.639804
0.540066
0.419027
0.287091
0.153708
0.0258709
-0.0912357
-0.192977
-0.275653
-0.336495
-0.37304
-0.387958
-0.388629
-0.383458
-0.379558
-0.380706
-0.386222
-0.391061
-0.386298
-0.338943
-0.15452
0.174346
0.537693
0.804403
0.876723
0.730256
0.422604
0.0668049
-0.214513
-0.331578
-0.337857
-0.303513
-0.25309
-0.194621
-0.134758
-0.0804585
-0.0374207
-0.00932884
0.0026577
0
-0.0359646
-0.0775269
-0.11876
-0.153995
-0.179352
-0.192525
-0.190846
-0.16863
-0.110721
0.0175056
0.236874
0.488197
0.683195
0.725576
0.546737
0.145533
-0.38712
-0.877169
-1.12162
-1.07167
-0.898659
-0.63307
-0.324624
-0.0298752
0.202817
0.374929
0.478143
0.514322
0.493109
0.42873
0.337041
0.233431
0.131508
0.0399193
-0.0360008
-0.0910496
-0.113383
-0.093512
-0.0498138
-0.00958023
0
-0.0347851
-0.11763
-0.2328
-0.355626
-0.462615
-0.540054
-0.596163
-0.639536
-0.667859
-0.656896
-0.380817
0.256567
1.1897
2.19604
2.95345
3.15458
2.64633
1.53126
0.156939
-1.02539
-1.6703
-1.62382
-1.35064
-1.08109
-0.826595
-0.595363
-0.392051
-0.209011
-0.0492699
0.0857464
0.194483
0.275761
0.329468
0.357081
0.361795
0.348257
0.322071
0.289539
0.256717
0.228301
0.208364
0.200454
0.207944
0.232672
0.271978
0.316809
0.355398
0.376593
0.372692
0.34127
0.285437
0.212568
0.132131
0.0535336
-0.0162952
-0.0741959
-0.115216
-0.135647
-0.132439
-0.103666
-0.0492073
0.0286716
0.125207
0.233658
0.346388
0.456185
0.558179
0.649657
0.728611
0.793466
0.841874
0.872719
0.884599
0.876138
0.846532
0.796
0.725896
0.638443
0.536266
0.422157
0.29979
0.172091
0.0421268
-0.0863026
-0.208783
-0.320803
-0.418468
-0.499202
-0.562627
-0.611479
-0.652936
-0.697802
-0.757249
-0.840191
-0.950937
-1.09084
-1.25613
-1.42374
-1.56701
-1.6635
-1.70077
-1.67836
-1.6056
-1.4972
-1.36894
-1.23597
-1.10925
-0.998025
-0.908985
-0.845036
-0.804177
-0.779418
-0.760353
-0.736067
-0.698343
-0.646169
-0.58363
-0.514423
-0.442944
-0.374213
-0.31351
-0.264786
-0.229807
-0.207721
-0.194838
-0.184865
-0.169723
-0.140893
-0.091021
-0.0153564
0.0856995
0.210489
0.35518
0.514874
0.684408
0.859186
1.03625
1.2106
1.37305
1.5115
1.61296
1.66848
1.67728
1.64692
1.58852
1.50968
1.4095
1.2861
1.14006
0.967629
0.768948
0.548779
0.308215
0.0686466
0.318753
1.02606
1.86385
2.50608
2.76281
2.63888
2.25408
1.72335
1.10864
0.47566
0.0333565
-0.0497614
0
0.0871222
0.298422
0.759976
1.30036
1.99966
2.87091
3.72028
4.19784
4.01249
3.14441
1.88245
0.655127
-0.208949
-0.589048
-0.343519
-0.0284645
0.317314
0.692694
1.05022
1.33102
1.49001
1.51838
1.4524
1.36314
1.33012
1.41081
1.61103
1.96179
2.35978
2.68907
2.86641
2.86506
2.71589
2.4914
2.28102
2.16434
2.16115
2.22153
2.31353
2.42388
2.54531
2.67152
2.79661
2.91537
3.02366
3.11891
3.20025
3.26848
3.32594
3.3761
3.423
3.47047
3.52142
3.57713
3.63734
3.69988
3.76032
3.81372
3.85601
3.88504
3.90114
3.90679
3.90575
3.90175
3.8972
3.89229
3.88493
3.87016
3.84146
3.79234
3.71793
3.61657
3.4906
3.34612
3.19175
3.03674
2.889
2.75162
2.62529
2.50971
2.40296
2.3021
2.20369
2.10441
2.00163
1.89384
1.78098
1.66461
1.54775
1.43466
1.33032
1.24024
1.16903
1.11996
1.09438
1.09466
1.12102
1.16565
1.21681
1.26237
1.29208
1.29917
1.28119
1.23974
1.17964
1.10756
1.03095
0.955604
0.885535
0.823206
0.769495
0.72476
0.689381
0.663522
0.647028
0.639905
0.641308
0.648452
0.658189
0.667944
0.676546
0.684462
0.693284
0.704673
0.719275
0.736059
0.75312
0.768479
0.78102
0.791335
0.802056
0.817516
0.842778
0.88218
0.93723
1.01274
1.10685
1.20702
1.29812
1.36658
1.40314
1.4032
1.36493
1.28723
1.16936
1.01827
0.840021
0.64674
0.455782
0.286231
0.153925
0.0603977
0.00649452
-0.0145222
-0.0139236
-0.00443115
0.00274849
0
-0.00703697
-0.0260239
-0.0526413
-0.080793
-0.10447
-0.118732
-0.120578
-0.0987072
0.00471153
0.284489
0.790169
1.49739
2.1939
2.52472
2.19557
1.18892
-0.171589
-1.37486
-1.93281
-1.71706
-1.46528
-1.20642
-0.977835
-0.801894
-0.672778
-0.556748
-0.443453
-0.329099
-0.211528
-0.0897705
0.0357483
0.163121
0.289627
0.412054
0.525079
0.618423
0.682592
0.707829
0.686249
0.616515
0.50783
0.380203
0.259624
0.169818
0.124591
0.109859
0.119701
0.148884
0.192759
0.248477
0.315891
0.396431
0.491673
0.601278
0.722519
0.852246
0.982461
1.10255
1.20266
1.27599
1.32019
1.33763
1.33442
1.3187
1.29876
1.28138
1.27007
1.26627
1.27067
1.2832
1.30294
1.32812
1.35615
1.38403
1.40869
1.4273
1.43734
1.43651
1.42266
1.39363
1.34743
1.28303
1.20094
1.10274
0.992081
0.874496
0.756673
0.645941
0.551569
0.47723
0.420643
0.376245
0.338231
0.303134
0.270617
0.2422
0.218819
0.198759
0.177219
0.147845
0.105392
0.0482531
-0.0203163
-0.0926367
-0.158378
-0.207904
-0.237791
-0.243794
-0.223526
-0.177273
-0.104907
-0.00990677
0.0976196
0.204359
0.297602
0.367477
0.40855
0.420421
0.407288
0.376645
0.337536
0.298849
0.267503
0.247589
0.240955
0.248844
0.272704
0.313047
0.369542
0.443149
0.528978
0.617703
0.699166
0.76492
0.810497
0.836545
0.848464
0.854723
0.864491
0.884141
0.91577
0.960095
1.01666
1.08217
1.14999
1.2116
1.25933
1.28793
1.29558
1.28397
1.25742
1.22127
1.18028
1.13744
1.09378
1.04915
1.00297
0.954777
0.904399
0.852026
0.798045
0.742831
0.686463
0.628597
0.568444
0.504846
0.436491
0.362215
0.281334
0.193942
0.100765
0
-0.105296
0.194573
0.991274
2.1455
3.27661
3.90675
3.69572
2.63313
1.06618
-0.463156
-1.47774
-1.7191
-1.23251
-0.715622
-0.196636
0.248917
0.555187
0.693328
0.670696
0.519726
0.28758
0.0289659
-0.195877
-0.337042
-0.394989
-0.395056
-0.357133
-0.293292
-0.208131
-0.112084
-0.0162773
0.0694707
0.138259
0.186896
0.215807
0.228275
0.22943
0.225565
0.222385
0.224758
0.23684
0.26174
0.301283
0.355926
0.424914
0.507203
0.601842
0.708398
0.827266
0.966192
1.16167
1.49785
1.92013
2.31434
2.55132
2.54887
2.31883
1.96668
1.63874
1.44965
1.43657
1.49499
1.58145
1.68583
1.80486
1.93656
2.07694
2.21583
2.34138
2.44236
2.51017
2.53984
2.52965
2.48
2.39243
2.26973
2.12218
1.95753
1.78476
1.61658
1.46626
1.34483
1.25861
1.20791
1.18748
1.18857
1.20187
1.22002
1.23987
1.26211
1.29029
1.33234
1.40176
1.493
1.58008
1.62903
1.61284
1.52427
1.38049
1.2172
1.07533
0.985536
0.938731
0.92224
0.926295
0.937599
0.943718
0.936528
0.914172
0.881005
0.845734
0.81861
0.80874
0.818114
0.845172
0.891256
0.960591
1.05314
1.15475
1.24432
1.29973
1.3034
1.24736
1.13612
0.986517
0.824622
0.680092
0.571991
0.504049
0.480514
0.498256
0.548252
0.618606
0.69807
0.778747
0.857751
0.934738
1.00994
1.08326
1.15197
1.20815
1.23969
1.23365
1.18113
1.08164
0.944712
0.787966
0.631946
0.4938
0.378045
0.282141
0.203895
0.139888
0.0874571
0.0458473
0.0161158
0
-0.00722027
-0.00196037
0.0120655
0.0315903
0.0533194
0.074753
0.0946373
0.11217
0.128907
0.348734
0.86478
1.6419
2.51816
3.19539
3.35621
2.83987
1.75981
0.472599
-0.595359
-1.13968
-0.991408
-0.764489
-0.534697
-0.317245
-0.125724
0.0304653
0.16097
0.27195
0.364314
0.439902
0.501372
0.55197
0.595283
0.634951
0.674413
0.716692
0.764159
0.818561
0.881299
0.953539
1.03587
1.12813
1.22931
1.33568
1.43623
1.5146
1.55304
1.53774
1.46595
1.35156
1.22524
1.12687
1.09207
1.13214
1.21964
1.33174
1.45754
1.58645
1.70885
1.8172
1.90644
1.97419
2.02043
2.04696
2.05679
2.05369
2.04187
2.02586
2.01052
2.00151
2.00434
2.02382
2.06317
2.12712
2.21438
2.31749
2.42614
2.5281
2.60785
2.65456
2.66119
2.62455
2.54568
2.43001
2.28625
2.12381
1.94984
1.76825
1.5822
1.39424
1.20777
1.03133
0.876693
0.755985
0.677754
0.643958
0.649175
0.682374
0.73054
0.782731
0.833402
0.882349
0.931395
0.983622
1.04219
1.11055
1.19066
1.27723
1.35962
1.42568
1.46521
1.47255
1.4477
1.3959
1.32632
1.25031
1.17924
1.12073
1.07943
1.05979
1.07003
1.10837
1.15896
1.20261
1.22331
1.21384
1.17826
1.1301
1.08715
1.06465
1.06665
1.09362
1.13389
1.17068
1.18853
1.17912
1.14439
1.09555
1.04845
1.01729
1.00974
1.02029
1.04169
1.07078
1.10502
1.14319
1.18542
1.23261
1.2856
1.34426
1.40762
1.47253
1.53143
1.57424
1.59045
1.57134
1.51207
1.41308
1.28004
1.1226
0.952266
0.780485
0.615264
0.461421
0.324525
0.208938
0.117787
0.0528233
0.0141369
0
0.00785065
0.0320091
0.0670322
0.107619
0.149338
0.189233
0.22414
0.230272
0.447143
1.07029
2.00709
2.91415
3.30313
2.79514
1.37853
-0.508083
-2.15927
-2.88286
-2.42902
-1.86676
-1.31466
-0.946724
-0.835867
-0.847034
-0.879195
-0.920422
-0.961888
-0.997934
-1.02539
-1.04026
-1.03795
-1.01369
-0.963525
-0.885662
-0.7724
-0.624793
-0.4639
-0.316187
-0.205206
-0.145921
-0.14212
-0.186861
-0.264827
-0.355381
-0.435849
-0.489934
-0.511568
-0.495292
-0.421613
-0.302165
-0.169447
-0.0593006
0.00128288
0.00249863
-0.0465317
-0.121983
-0.192707
-0.227879
-0.216014
-0.160856
-0.00615006
0.317756
0.732135
1.1202
1.38749
1.49337
1.45205
1.30804
1.10736
0.886325
0.684312
0.537143
0.453193
0.426793
0.447293
0.532361
0.656773
0.785044
0.883819
0.933327
0.932101
0.892636
0.830706
0.754685
0.662381
0.552889
0.420272
0.260411
0.0733761
-0.136154
-0.362688
-0.593313
-0.801946
-0.962867
-1.05508
-1.06658
-0.999257
-0.871364
-0.714392
-0.564159
-0.449905
-0.376937
-0.332265
-0.309514
-0.307177
-0.323409
-0.355951
-0.402233
-0.460353
-0.52722
-0.59627
-0.65961
-0.70928
-0.738481
-0.742494
-0.719087
-0.668469
-0.593055
-0.497229
-0.388528
-0.273392
-0.158994
-0.0518681
0.0433075
0.124702
0.193684
0.254324
0.312149
0.372504
0.4388
0.511325
0.589465
0.669088
0.743392
0.805965
0.85299
0.884669
0.905326
0.92195
0.941558
0.970259
1.00507
1.02924
1.01931
0.954997
0.828975
0.652147
0.451807
0.263046
0.116861
0.0168732
-0.0307983
-0.0367977
-0.019709
0
0.00799065
-0.00906525
-0.0543804
-0.124553
-0.2112
-0.302675
-0.388422
-0.459671
-0.482174
-0.291264
0.172371
0.739628
1.38224
2.05661
2.60906
2.78188
2.3462
1.28486
-0.119516
-1.3812
-2.03108
-1.63898
-1.08914
-0.538021
-0.0822735
0.194324
0.299915
0.27622
0.181284
0.085614
0.0470894
0.0871719
0.167524
0.263264
0.363086
0.456133
0.533391
0.588727
0.619356
0.625834
0.611742
0.583174
0.548251
0.515366
0.492465
0.490138
0.524952
0.59855
0.686908
0.757273
0.780977
0.745535
0.661173
0.559249
0.483011
0.473496
0.539555
0.657149
0.831324
1.04271
1.25405
1.42947
1.5452
1.59592
1.59455
1.56614
1.53871
1.53457
1.55664
1.59831
1.65498
1.72253
1.79494
1.86532
1.92699
1.97469
2.00502
2.01654
2.00953
1.98539
1.9458
1.89199
1.8242
1.74215
1.64601
1.53624
1.41377
1.28118
1.14286
1.00447
0.872201
0.75138
0.645959
0.558144
0.487924
0.43325
0.39067
0.355104
0.320122
0.280163
0.231815
0.174787
0.112304
0.0507095
-0.00174408
-0.032427
-0.0190647
0.0523916
0.158307
0.261474
0.326494
0.334154
0.289512
0.220989
0.170264
0.175751
0.254453
0.379258
0.52439
0.672733
0.807768
0.916734
0.992205
1.03199
1.03793
1.01454
0.968459
0.909934
0.847545
0.790789
0.749754
0.74958
0.845065
1.02643
1.2325
1.38774
1.43752
1.37135
1.22202
1.04428
0.888533
0.784097
0.713253
0.658377
0.611985
0.569849
0.528125
0.484035
0.436318
0.385253
0.332287
0.279346
0.228186
0.179985
0.135399
0.0957794
0.0630064
0.04006
0.0310505
0.0404585
0.0901402
0.277533
0.731122
1.31647
1.92426
2.42106
2.64851
2.51217
2.0509
1.42121
0.80955
0.372823
0.23454
0.23592
0.265029
0.303133
0.344546
0.385805
0.42674
0.470433
0.521932
0.58615
0.665754
0.76022
0.865044
0.9733
1.07734
1.16873
1.23706
1.27741
1.28735
1.26806
1.22609
1.1742
1.12924
1.10749
1.11946
1.16277
1.22479
1.30044
1.38501
1.47433
1.56513
1.65503
1.74224
1.82567
1.90468
1.97934
2.05045
2.11942
2.18778
2.25674
2.32671
2.3973
2.46763
2.53686
2.60483
2.6724
2.74142
2.81435
2.8935
2.98025
3.07454
3.175
3.27735
3.37364
3.45461
3.51154
3.53767
3.52919
3.48561
3.40948
3.30586
3.18145
3.0445
2.90271
2.76115
2.62294
2.48978
2.36193
2.23852
2.11814
1.99974
1.88367
1.77297
1.67337
1.59218
1.53618
1.50953
1.51238
1.54084
1.58804
1.64578
1.7062
1.76338
1.81377
1.85486
1.8854
1.90542
1.91622
1.92026
1.92093
1.92219
1.92802
1.94176
1.96538
2.00003
2.04603
2.10261
2.16822
2.24053
2.31586
2.38992
2.45823
2.5165
2.56053
2.58621
2.59129
2.5749
2.53775
2.48226
2.41232
2.33272
2.24815
2.1622
2.07649
1.99058
1.90266
1.81006
1.70991
1.5998
1.4783
1.34533
1.20221
1.05167
0.897469
0.744176
0.596837
0.460684
0.340169
0.238532
0.157363
0.0964614
0.0539184
0.0266063
0.0108269
0.00296707
0
0.0139859
0.0360863
0.256799
0.813184
1.65641
2.59323
3.28412
3.37541
2.69451
1.38643
-0.116232
-1.29501
-1.71468
-1.35157
-0.932281
-0.501028
-0.134883
0.0975997
0.212377
0.28226
0.319882
0.330947
0.32198
0.299448
0.269111
0.235909
0.203955
0.17663
0.157529
0.15076
0.161279
0.201211
0.286373
0.412731
0.557817
0.69342
0.794878
0.847763
0.8497
0.808541
0.739677
0.663898
0.602994
0.571648
0.578425
0.625408
0.707537
0.81761
0.951394
1.1046
1.27305
1.45366
1.63647
1.80554
1.9449
2.04257
2.09454
2.1066
2.09258
2.06947
2.05171
2.04587
2.0489
2.057
2.06655
2.07332
2.07309
2.06229
2.03838
2.00008
1.94744
1.88165
1.80456
1.71817
1.62398
1.52293
1.41481
1.29844
1.17222
1.03475
0.885271
0.724022
0.552303
0.372349
0.187085
-0.000163746
-0.184728
-0.355587
-0.496666
-0.588895
-0.612529
-0.554734
-0.417415
-0.220624
0.001052
0.208013
0.366993
0.461826
0.491476
0.469366
0.417762
0.361083
0.319518
0.300069
0.301107
0.319082
0.35056
0.392844
0.442714
0.497596
0.556219
0.618941
0.68763
0.766223
0.863682
0.993589
1.15463
1.31873
1.4484
1.5106
1.48911
1.39046
1.24188
1.0821
0.948048
0.855792
0.793259
0.746748
0.708526
0.672664
0.633706
0.587651
0.532661
0.46941
0.401053
0.332822
0.270956
0.222069
0.198936
0.226528
0.31016
0.417726
0.504042
0.528764
0.47287
0.345097
0.175417
0
-0.156098
-0.239658
0.0566049
0.612833
1.40548
2.35121
3.23933
3.7772
3.72241
3.02549
1.88628
0.674864
-0.24713
-0.689265
-0.595562
-0.321759
-0.0320566
0.253593
0.499124
0.664159
0.716409
0.646154
0.476042
0.258416
0.0581118
-0.0721965
-0.130008
-0.149966
-0.151879
-0.143685
-0.129613
-0.112999
-0.0958796
-0.0788506
-0.0612001
-0.041278
-0.0170283
0.0134232
0.0512481
0.0965619
0.148315
0.204378
0.261844
0.317414
0.367454
0.408125
0.437307
0.454858
0.463089
0.467059
0.474313
0.493891
0.534636
0.603177
0.702181
0.826199
0.969516
1.12409
1.28074
1.43103
1.56814
1.68657
1.78206
1.85195
1.89629
1.91645
1.91499
1.89561
1.86294
1.82213
1.77803
1.7342
1.69225
1.64911
1.59826
1.53259
1.44786
1.34532
1.23235
1.1205
1.02177
0.945273
0.899291
0.867998
0.824435
0.741199
0.602252
0.41096
0.190837
-0.0216002
-0.188958
-0.291467
-0.324213
-0.257165
-0.0831519
0.134541
0.323541
0.427845
0.41189
0.274578
0.0633612
-0.132785
-0.221406
-0.160321
-0.0268517
0.118801
0.252143
0.355604
0.42249
0.457298
0.47256
0.483699
0.503888
0.537362
0.582463
0.637075
0.698538
0.762876
0.825697
0.883114
0.932207
0.971132
0.998905
1.01495
1.01829
1.0078
0.981976
0.939264
0.878664
0.80036
0.706135
0.599418
0.484976
0.368381
0.25525
0.15048
0.0593032
-0.0129394
-0.062898
-0.0886251
-0.0900599
-0.0685724
-0.0258741
0.0285684
0.0814727
0.119593
0.132622
0.115442
0.0690516
0
-0.0952072
-0.0298719
0.462145
1.37329
2.49202
3.4121
3.70314
3.1444
1.8789
0.370667
-0.832238
-1.37772
-1.13282
-0.794299
-0.445969
-0.117764
0.15799
0.363537
0.525186
0.649842
0.737629
0.791933
0.818742
0.825479
0.819732
0.808315
0.796576
0.787648
0.783731
0.786233
0.79588
0.812833
0.836783
0.86706
0.902702
0.94278
0.986114
1.03139
1.07782
1.12561
1.17614
1.23189
1.29581
1.37043
1.45693
1.55441
1.66043
1.77121
1.88284
1.99228
2.0978
2.19878
2.29402
2.38228
2.46158
2.5295
2.58471
2.62822
2.66354
2.69548
2.72821
2.76343
2.79947
2.83314
2.86032
2.87714
2.88111
2.87179
2.8511
2.82306
2.79259
2.76445
2.74214
2.72697
2.71723
2.70938
2.69826
2.67816
2.64395
2.59196
2.52065
2.43058
2.3241
2.20477
2.0764
1.9427
1.80696
1.67214
1.54154
1.41919
1.31007
1.22408
1.19284
1.26895
1.42309
1.58864
1.68938
1.67711
1.55573
1.37653
1.20878
1.10618
1.07909
1.08887
1.1185
1.16407
1.22418
1.29494
1.36644
1.42705
1.46607
1.47666
1.45811
1.41613
1.36072
1.30243
1.24854
1.19988
1.15434
1.10998
1.0654
1.02096
0.979514
0.946329
0.933256
0.979721
1.14902
1.40117
1.65279
1.81514
1.83326
1.70668
1.48376
1.23649
1.03092
0.899803
0.807374
0.728207
0.651761
0.571439
0.482029
0.380735
0.26489
0.138741
0.0163818
-0.0851368
-0.150626
-0.171104
-0.146257
-0.0843868
0
0.0940201
0.179213
0.24908
0.299958
0.33018
0.233823
0.310136
0.950008
2.12465
3.46618
4.40852
4.48253
3.58661
2.05696
0.48792
-0.583937
-0.927721
-0.607375
-0.302416
-0.0275078
0.200827
0.381512
0.539455
0.691179
0.842132
0.99521
1.15194
1.31121
1.4668
1.60682
1.71787
1.78782
1.80899
1.78074
1.71093
1.61541
1.5154
1.4334
1.38481
1.37121
1.38848
1.43808
1.52547
1.65565
1.82815
2.02682
2.21726
2.3632
2.43099
2.39688
2.25956
2.05141
1.83745
1.69465
1.67673
1.74796
1.85487
1.9767
2.10244
2.22326
2.33408
2.43255
2.51862
2.59349
2.65848
2.71426
2.76022
2.79455
2.81451
2.81692
2.79865
2.75718
2.69119
2.60107
2.4896
2.36182
2.22404
2.08341
1.9469
1.82215
1.71417
1.61973
1.53102
1.43922
1.33841
1.22838
1.1152
1.00962
0.924068
0.865532
0.834669
0.834383
0.865502
0.936972
1.05132
1.18467
1.30801
1.39555
1.43267
1.42069
1.37614
1.32439
1.28987
1.28691
1.30712
1.34261
1.37785
1.39683
1.38886
1.35286
1.29848
1.24357
1.2085
1.20911
1.24961
1.32976
1.4277
1.5158
1.57115
1.58343
1.55694
1.50638
1.44898
1.39712
1.35326
1.31475
1.28051
1.25077
1.2275
1.21441
1.21603
1.23636
1.27729
1.33811
1.4153
1.50326
1.59554
1.6862
1.77118
1.84756
1.91336
1.96645
2.00304
2.01861
2.00975
1.97382
1.91085
1.82532
1.72696
1.63022
1.584
1.67986
1.88588
2.08367
2.14361
2.01025
1.73875
1.46073
1.30504
1.32517
1.41612
1.52918
1.63089
1.69276
1.69384
1.61987
1.46117
1.21222
0.873871
0.462124
0
-0.492913
-0.964599
-0.898196
-0.145524
1.29538
3.15738
4.90729
5.90511
5.68652
4.22549
1.99822
-0.224329
-1.74482
-2.24927
-1.87942
-1.35181
-0.861567
-0.435539
-0.0834579
0.227472
0.490164
0.702114
0.862701
0.963852
0.998188
0.96851
0.892532
0.799897
0.723303
0.688651
0.69665
0.73328
0.790393
0.863461
0.947751
1.03813
1.12869
1.21418
1.2906
1.35564
1.40865
1.4504
1.48246
1.50665
1.52459
1.53764
1.54703
1.55416
1.56082
1.56916
1.58136
1.59901
1.62388
1.65512
1.68981
1.72481
1.75835
1.7909
1.82489
1.86323
1.90748
1.9565
2.00626
2.05231
2.09032
2.11715
2.13129
2.13258
2.12128
2.09678
2.05739
2.00054
1.92359
1.82515
1.70615
1.57026
1.42339
1.27263
1.12495
0.985044
0.856345
0.741497
0.641938
0.559457
0.496723
0.450384
0.411343
0.36967
0.318156
0.255736
0.189111
0.13159
0.0993366
0.106363
0.152637
0.232378
0.340739
0.469947
0.609357
0.743551
0.857739
0.940765
0.986436
0.993922
0.96729
0.91428
0.844585
0.767988
0.692731
0.623735
0.562872
0.510623
0.467059
0.432151
0.405777
0.387988
0.378946
0.379054
0.388853
0.408766
0.439841
0.484183
0.539791
0.594843
0.634188
0.644078
0.617661
0.558686
0.481441
0.406665
0.355044
0.339309
0.377125
0.463634
0.560419
0.622033
0.612307
0.51797
0.355255
0.166065
0.00347977
-0.0883823
-0.108596
-0.0880238
-0.0424446
0.0209288
0.0945072
0.171156
0.245022
0.310796
0.365022
0.405941
0.433644
0.450176
0.459307
0.465842
0.474471
0.48852
0.509987
0.535407
0.555921
0.560864
0.541438
0.493885
0.421107
0.332269
0.240702
0.160867
0.102751
0.0681027
0.0567148
0.070319
0.110585
0.17199
0.242311
0.307986
0.35637
0.377576
0.365547
0.318342
0.237827
0.12908
0
-0.160419
-0.224644
0.179725
1.16338
2.55847
3.90591
4.6333
4.34628
3.06401
1.23543
-0.484321
-1.55994
-1.80007
-1.27184
-0.779829
-0.368794
-0.0938705
0.0173889
0.0605209
0.0574842
0.0354874
0.0195808
0.0259605
0.054118
0.0952227
0.143128
0.192841
0.239836
0.280401
0.312106
0.334817
0.350176
0.361358
0.372614
0.388513
0.414313
0.457118
0.511713
0.564199
0.598232
0.602929
0.57915
0.54075
0.510093
0.509991
0.555633
0.635886
0.73767
0.853435
0.975994
1.09585
1.20416
1.29411
1.36171
1.40602
1.42878
1.43367
1.42536
1.40865
1.38814
1.36702
1.34741
1.33048
1.31655
1.30491
1.29397
1.28143
1.26444
1.23969
1.20352
1.152
1.08117
0.987623
0.86988
0.727772
0.563715
0.382916
0.192963
0.00279522
-0.178736
-0.342648
-0.481227
-0.593847
-0.68371
-0.755847
-0.814923
-0.863667
-0.902398
-0.929558
-0.942715
-0.940192
-0.921962
-0.88674
-0.83371
-0.762835
-0.666589
-0.545478
-0.418456
-0.310263
-0.242682
-0.225364
-0.251395
-0.300103
-0.345428
-0.365536
-0.356165
-0.326402
-0.282345
-0.228124
-0.168534
-0.108797
-0.0543377
-0.0109159
0.015674
0.0210217
0.00205593
-0.0422728
-0.11031
-0.197311
-0.295888
-0.396243
-0.487728
-0.561341
-0.611462
-0.636662
-0.639289
-0.623982
-0.595676
-0.557816
-0.511782
-0.456314
-0.388775
-0.306335
-0.208243
-0.0953672
0.0309589
0.168637
0.314613
0.464686
0.613263
0.752472
0.872167
0.964161
1.02182
1.04143
1.02349
0.97299
0.898297
0.808661
0.711593
0.611521
0.510506
0.409718
0.310747
0.216453
0.130645
0.057406
0
-0.0388721
-0.0613777
-0.0706656
-0.0714083
-0.0687332
-0.0670509
-0.0692324
-0.0765142
-0.088821
-0.108563
-0.0989256
0.278489
1.07391
2.16247
3.2481
3.95259
3.95104
3.11886
1.63381
-0.0476357
-1.36954
-1.9281
-1.45943
-0.889881
-0.305484
0.123493
0.29759
0.346997
0.373239
0.390602
0.405357
0.422583
0.44629
0.480115
0.527597
0.592093
0.676165
0.782568
0.917769
1.07232
1.22422
1.34913
1.428
1.45269
1.4273
1.3654
1.2849
1.20338
1.13297
1.07799
1.04143
1.0267
1.03554
1.06765
1.12055
1.19024
1.27057
1.35519
1.43879
1.51812
1.59237
1.66275
1.73156
1.80094
1.87185
1.94364
2.01421
2.079
2.1312
2.16391
2.17106
2.14899
2.0977
2.02145
1.92842
1.82945
1.73622
1.65958
1.63627
1.7796
2.15152
2.61675
3.03235
3.25802
3.20452
2.87343
2.35903
1.8136
1.40062
1.20354
1.0781
0.969282
0.866965
0.771388
0.685305
0.613891
0.563335
0.53822
0.539382
0.563121
0.602017
0.646897
0.689096
0.723466
0.748342
0.762524
0.766323
0.761272
0.749852
0.735165
0.720507
0.708819
0.702651
0.7036
0.709727
0.716772
0.720437
0.718666
0.713219
0.709738
0.716111
0.739712
0.784579
0.846707
0.921151
1.00066
1.07593
1.13815
1.18086
1.20104
1.19948
1.18034
1.15028
1.11728
1.08935
1.07313
1.0722
1.08842
1.12898
1.21251
1.3835
1.68974
2.07587
2.4472
2.70426
2.75636
2.55462
2.12587
1.58032
1.0825
0.806668
0.728563
0.722906
0.746446
0.800883
0.897408
1.03875
1.19229
1.31399
1.35812
1.29389
1.12019
0.868492
0.590438
0.336248
0.132289
-0.0336851
0
0.35088
0.960578
1.80022
2.71262
3.41898
3.61855
3.13618
2.04073
0.654759
-0.575499
-1.29041
-1.28808
-0.942429
-0.588979
-0.2422
0.0817434
0.365833
0.614422
0.819357
0.975976
1.08435
1.14968
1.18142
1.19139
1.19127
1.1904
1.19388
1.20278
1.21686
1.23518
1.25611
1.27746
1.2963
1.30833
1.30866
1.2928
1.25782
1.20379
1.1314
1.05281
0.987992
0.957677
0.97683
1.04951
1.16725
1.31171
1.46066
1.59483
1.70918
1.80364
1.87888
1.93679
1.9761
1.99679
1.9971
1.97438
1.92859
1.86535
1.79686
1.74007
1.71273
1.72889
1.81
2.02197
2.39523
2.81069
3.16681
3.38676
3.40954
3.21767
2.86367
2.45649
2.10518
1.85864
1.66466
1.49421
1.33996
1.2025
1.08658
1.00232
0.962883
0.963977
0.979907
0.978177
0.929844
0.819503
0.651094
0.447265
0.242294
0.0708622
-0.0525551
-0.137591
-0.18447
-0.197761
-0.184178
-0.150345
-0.101608
-0.0423475
0.0285786
0.108578
0.185754
0.243768
0.267836
0.252193
0.204482
0.144184
0.095601
0.0788859
0.0987705
0.142871
0.20179
0.27005
0.342186
0.411816
0.471366
0.515404
0.540819
0.5474
0.538156
0.518919
0.49698
0.479058
0.469391
0.468374
0.473134
0.481492
0.491673
0.503081
0.5164
0.532997
0.553946
0.579089
0.606851
0.633857
0.656149
0.670405
0.674875
0.669657
0.656217
0.636423
0.611548
0.581974
0.547026
0.505578
0.456957
0.401585
0.341258
0.278983
0.218487
0.163538
0.116902
0.0807734
0.0571328
0.0472928
0.0518077
0.0715444
0.107808
0.157178
0.206122
0.238267
0.238577
0.197832
0.115542
0
-0.203464
-0.1144
0.489484
1.45772
2.44017
3.0102
2.864
1.97957
0.644551
-0.673562
-1.54629
-1.6645
-1.32617
-0.983836
-0.679792
-0.454895
-0.33255
-0.265903
-0.224798
-0.197178
-0.170243
-0.132769
-0.0773481
-0.00328482
0.0861001
0.186353
0.289928
0.387575
0.46989
0.529805
0.563231
0.569378
0.550606
0.511911
0.460178
0.403289
0.349232
0.305173
0.275834
0.263896
0.271622
0.301325
0.354814
0.43327
0.544551
0.713227
0.954454
1.21862
1.44008
1.55979
1.55025
1.42965
1.25567
1.10091
1.02282
1.03276
1.08803
1.16636
1.26009
1.3658
1.48116
1.60199
1.71769
1.81344
1.87319
1.88463
1.84429
1.75979
1.6476
1.52723
1.41434
1.31354
1.22103
1.13296
1.04636
0.958582
0.867685
0.772734
0.673761
0.571529
0.467222
0.362229
0.258045
0.156437
0.0596638
-0.0290292
-0.105165
-0.164456
-0.20307
-0.218641
-0.206043
-0.164232
-0.104731
-0.0425114
0.00788946
0.0360287
0.0377446
0.0154181
-0.0233085
-0.0675548
-0.105607
-0.129733
-0.135713
-0.119568
-0.0714765
0.00816755
0.102972
0.191977
0.255739
0.281722
0.267101
0.218401
0.148787
0.0743363
0.00958633
-0.0381886
-0.0665871
-0.0755813
-0.0670528
-0.0441724
-0.0100806
0.0314695
0.0758791
0.11862
0.1569
0.190304
0.220968
0.25313
0.292093
0.342786
0.408353
0.489166
0.581193
0.679362
0.77853
0.87241
0.95341
1.01551
1.05412
1.06624
1.0506
1.00765
0.939508
0.849769
0.743266
0.625864
0.504695
0.385975
0.276112
0.180771
0.104268
0.0489555
0.014892
0
0.000694847
0.012826
0.0326421
0.0572704
0.0851912
0.116161
0.150623
0.190233
0.243317
0.383995
0.740997
1.38541
2.24456
3.04202
3.39208
3.00928
1.90471
0.428272
-0.89681
-1.64238
-1.54687
-1.32833
-1.08258
-0.843318
-0.640403
-0.494553
-0.384699
-0.295504
-0.221849
-0.159935
-0.104681
-0.0506887
0.00654945
0.0695539
0.138363
0.210315
0.27889
0.335014
0.370028
0.377735
0.356047
0.307871
0.241039
0.167252
0.100195
0.0532774
0.0337263
0.0430271
0.106433
0.260909
0.47126
0.672647
0.798468
0.80778
0.706314
0.546821
0.404409
0.338928
0.366966
0.431549
0.504648
0.574305
0.631412
0.67112
0.693234
0.701673
0.703181
0.705548
0.715357
0.73692
0.771202
0.815066
0.863057
0.90788
0.941657
0.957074
0.948132
0.910418
0.841022
0.738417
0.602607
0.436899
0.246541
0.0383997
-0.179266
-0.395508
-0.597937
-0.770973
-0.871595
-0.823067
-0.622997
-0.367245
-0.153875
-0.0484749
-0.0730146
-0.21212
-0.426781
-0.667566
-0.88438
-1.04479
-1.1525
-1.22137
-1.26109
-1.27671
-1.27059
-1.24569
-1.20567
-1.15462
-1.09895
-1.04486
-0.997408
-0.959999
-0.934248
-0.920412
-0.91811
-0.927375
-0.948383
-0.981613
-1.02717
-1.08394
-1.14904
-1.21772
-1.28394
-1.34141
-1.38566
-1.41483
-1.42741
-1.42247
-1.40001
-1.36477
-1.32925
-1.30645
-1.30605
-1.33096
-1.3754
-1.42575
-1.46409
-1.47325
-1.44164
-1.37623
53
221
396
565
730
772
848
891
1050
1214
1378
1544
1712
1870
2170
2318
2467
2623
2790
2972
3139
3297
3461
3624
0
0
0
0
0
0
0
0
0
0
0
0
0
0
0
0
0
0
0
0
0
0
0
0
0
0
0
0
0
0
0
0
0
0
0
0
0
0
0
0
0
0
0
0
0
0
0
0
0
0
0
0
0
0
0
0
0
0
0
0
0
0
0
0
0
0
0
0
0
0
0
0
0
0
0
0
0
0
0
0
0
0
0
0
0
0
0
0
0
0
0
0
0
0
0
0
0
0
0
0
0
0
0
0
0
0
0
0
0
0
0
0
0
0
0
0
0
0
0
0
0
0
0
0
0
0
0
0
0
0
0
0
0
0
0
0
0
0
0
0
0
0
0
0
0
0
0
0
0
0
0
0
0
0
0
0
0
0
0
0
0
0
0
0
0
0
0
0
0
0
0
0
0
0
0
0
0
0
0
0
0
0
0
0
0
0
0
0
0
0
0
0
0
0
0
0
0
0
0
0
0
0
0
0
0
0
0
0
0
0
0
0
0
0
0
0
0
0
0
0
0
0
0
0
0
0
0
0
0
0
0
0
0
0
0
0
0
0
0
0
0
0
0
0
0
0
0
0
0
0
0
0
0
0
0
0
0
0
0
0
0
0
0
0
0
0
0
0
0
0
0
0
0
0
0
0
0
0
0
0
0
0
0
0
0
0
0
0
0
0
0
0
0
0
0
0
0
0
0
0
0
0
0
0
0
0
0
0
0
0
0
0
0
0
0
0
0
0
0
0
0
0
0
0
0
0
0
0
0
0
0
0
0
0
0
0
0
0
0
0
0
0
0
0
0
0
0
0
0
0
0
0
0
0
0
0
0
0
0
0
0
0
0
0
0
0
0
0
0
0
0
0
0
0
0
0
0
0
0
0
0
0
0
0
0
0
0
0
0
0
0
0
0
0
0
0
0
0
0
0
0
0
0
0
0
0
0
0
0
0
0
0
0
0
0
0
0
0
0
0
0
0
0
0
0
0
0
0
0
0
0
0
0
0
0
0
0
0
0
0
0
0
0
0
0
0
0
0
0
0
0
0
0
0
0
0
0
0
0
0
0
0
0
0
0
0
0
0
0
0
0
0
0
0
0
0
0
0
0
0
0
0
0
0
0
0
0
0
0
0
0
0
0
0
0
0
0
0
0
0
0
0
0
0
0
0
0
0
0
0
0
0
0
0
0
0
0
0
0
0
0
0
0
0
0
0
0
0
0
0
0
0
0
0
0
0
0
0
0
0
0
0
0
0
0
0
0
0
0
0
0
0
0
0
0
0
0
0
0
0
0
0
0
0
0
0
0
0
0
0
0
0
0
0
0
0
0
0
0
0
0
0
0
0
0
0
0
0
0
0
0
0
0
0
0
0
0
0
0
0
0
0
0
0
0
0
0
0
0
0
0
0
0
0
0
0
0
0
0
0
0
0
0
0
0
0
0
0
0
0
0
0
0
0
0
0
0
0
0
0
0
0
0
0
0
0
0
0
0
0
0
0
0
0
0
0
0
0
0
0
0
0
0
0
0
0
0
0
0
0
0
0
0
0
0
0
0
0
0
0
0
0
0
0
0
0
0
0
0
0
0
0
0
0
0
0
0
0
0
0
0
0
0
0
0
0
0
0
0
0
0
0
0
0
0
0
0
0
0
0
0
0
0
0
0
0
0
0
0
0
0
0
0
0
0
0
0
0
0
0
0
0
0
0
0
0
0
0
0
0
0
0
0
0
0
0
0
0
0
0
0
0
0
0
0
0
0
0
0
0
0
0
0
0
0
0
0
0
0
0
0
0
0
0
0
0
0
0
0
0
0
0
0
0
0
0
0
0
0
0
0
0
0
0
0
0
0
0
0
0
0
0
0
0
0
0
0
0
0
0
0
0
0
0
0
0
0
0
0
0
0
0
0
0
0
0
0
0
0
0
0
0
0
0
0
0
0
0
0
0
0
0
0
0
0
0
0
0
0
0
0
0
0
0
0
0
0
0
0
0
0
0
0
0
0
0
0
0
0
0
0
0
0
0
0
0
0
0
0
0
0
0
0
0
0
0
0
0
0
0
0
0
0
0
0
0
0
0
0
0
0
0
0
0
0
0
0
0
0
0
0
0
0
0
0
0
0
0
0
0
0
0
0
0
0
0
0
0
0
0
0
0
0
0
0
0
0
0
0
0
0
0
0
0
0
0
0
0
0
0
0
0
0
0
0
0
0
0
0
0
0
0
0
0
0
0
0
0
0
0
0
0
0
0
0
0
0
0
0
0
0
0
0
0
0
0
0
0
0
0
0
0
0
0
0
0
0
0
0
0
0
0
0
0
0
0
0
0
0
0
0
0
0
0
0
0
0
0
0
0
0
0
0
0
0
0
0
0
0
0
0
0
0
0
0
0
0
0
0
0
0
0
0
0
0
0
0
0
0
0
0
0
0
0
0
0
0
0
0
0
0
0
0
0
0
0
0
0
0
0
0
0
0
0
0
0
0
0
0
0
0
0
0
0
0
0
0
0
0
0
0
0
0
0
0
0
0
0
0
0
0
0
0
0
0
0
0
0
0
0
0
0
0
0
0
0
0
0
0
0
0
0
0
0
0
0
0
0
0
0
0
0
0
0
0
0
0
0
0
0
0
0
0
0
0
0
0
0
0
0
0
0
0
0
0
0
0
0
0
0
0
0
0
0
0
0
0
0
0
0
0
0
0
0
0
0
0
0
0
0
0
0
0
0
0
0
0
0
0
0
0
0
0
0
0
0
0
0
0
0
0
0
0
0
0
0
0
0
0
0
0
0
0
0
0
0
0
0
0
0
0
0
0
0
0
0
0
0
0
0
0
0
0
0
0
0
0
0
0
0
0
0
0
0
0
0
0
0
0
0
0
0
0
0
0
0
0
0
0
0
0
0
0
0
0
0
0
0
0
0
0
0
0
0
0
0
0
0
0
0
0
0
0
0
0
0
0
0
0
0
0
0
0
0
0
0
0
0
0
0
0
0
0
0
0
0
0
0
0
0
0
0
0
0
0
0
0
0
0
0
0
0
0
0
0
0
0
0
0
0
0
0
0
0
0
0
0
0
0
0
0
0
0
0
0
0
0
0
0
0
0
0
0
0
0
0
0
0
0
0
0
0
0
0
0
0
0
0
0
0
0
0
0
0
0
0
0
0
0
0
0
0
0
0
0
0
0
0
0
0
0
0
0
0
0
0
0
0
0
0
0
0
0
0
0
0
0
0
0
0
0
0
0
0
0
0
0
0
0
0
0
0
0
0
0
0
0
0
0
0
0
0
0
0
0
0
0
0
0
0
0
0
0
0
0
0
0
0
0
0
0
0
0
0
0
0
0
0
0
0
0
0
0
0
0
0
0
0
0
0
0
0
0
0
0
0
0
0
0
0
0
0
0
0
0
0
0
0
0
0
0
0
0
0
0
0
0
0
0
0
0
0
0
0
0
0
0
0
0
0
0
0
0
0
0
0
0
0
0
0
0
0
0
0
0
0
0
0
0
0
0
0
0
0
0
0
0
0
0
0
0
0
0
0
0
0
0
0
0
0
0
0
0
0
0
0
0
0
0
0
0
0
0
0
0
0
0
0
0
0
0
0
0
0
0
0
0
0
0
0
0
0
0
0
0
0
0
0
0
0
0
0
0
0
0
0
0
0
0
0
0
0
0
0
0
0
0
0
0
0
0
0
0
0
0
0
0
0
0
0
0
0
0
0
0
0
0
0
0
0
0
0
0
0
0
0
0
0
0
0
0
0
0
0
0
0
0
0
0
0
0
0
0
0
0
0
0
0
0
0
0
0
0
0
0
0
0
0
0
0
0
0
0
0
0
0
0
0
0
0
0
0
0
0
0
0
0
0
0
0
0
0
0
0
0
0
0
0
0
0
0
0
0
0
0
0
0
0
0
0
0
0
0
0
0
0
0
0
0
0
0
0
0
0
0
0
0
0
0
0
0
0
0
0
0
0
0
0
0
0
0
0
0
0
0
0
0
0
0
0
0
0
0
0
0
0
0
0
0
0
0
0
0
0
0
0
0
0
0
0
0
0
0
0
0
0
0
0
0
0
0
0
0
0
0
0
0
0
0
0
0
0
0
0
0
0
0
0
0
0
0
0
0
0
0
0
0
0
0
0
0
0
0
0
0
0
0
0
0
0
0
0
0
0
0
0
0
0
0
0
0
0
0
0
0
0
0
0
0
0
0
0
0
0
0
0
0
0
0
0
0
0
0
0
0
0
0
0
0
0
0
0
0
0
0
0
0
0
0
0
0
0
0
0
0
0
0
0
0
0
0
0
0
0
0
0
0
0
0
0
0
0
0
0
0
0
0
0
0
0
0
0
0
0
0
0
0
0
0
0
0
0
0
0
0
0
0
0
0
0
0
0
0
0
0
0
0
0
0
0
0
0
0
0
0
0
0
0
0
0
0
0
0
0
0
0
0
0
0
0
0
0
0
0
0
0
0
0
0
0
0
0
0
0
0
0
0
0
0
0
0
0
0
0
0
0
0
0
0
0
0
0
0
0
0
0
0
0
0
0
0
0
0
0
0
0
0
0
0
0
0
0
0
0
0
0
0
0
0
0
0
0
0
0
0
0
0
0
0
0
0
0
0
0
0
0
0
0
0
0
0
0
0
0
0
0
0
0
0
0
0
0
0
0
0
0
0
0
0
0
0
0
0
0
0
0
0
0
0
0
0
0
0
0
0
0
0
0
0
0
0
0
0
0
0
0
0
0
0
0
0
0
0
0
0
0
0
0
0
0
0
0
0
0
0
0
0
0
0
0
0
0
0
0
0
0
0
0
0
0
0
0
0
0
0
0
0
0
0
0
0
0
0
0
0
0
0
0
0
0
0
0
0
0
0
0
0
0
0
0
0
0
0
0
0
0
0
0
0
0
0
0
0
0
0
0
0
0
0
0
0
0
0
0
0
0
0
0
0
0
0
0
0
0
0
0
0
0
0
0
0
0
0
0
0
0
0
0
0
0
0
0
0
0
0
0
0
0
0
0
0
0
0
0
0
0
0
0
0
0
0
0
0
0
0
0
0
0
0
0
0
0
0
0
0
0
0
0
0
0
0
0
0
0
0
0
0
0
0
0
0
0
0
0
0
0
0
0
0
0
0
0
0
0
0
0
0
0
0
0
0
0
0
0
0
0
0
0
0
0
0
0
0
0
0
0
0
0
0
0
0
0
0
0
0
0
0
0
0
0
0
0
0
0
0
0
0
0
0
0
0
0
0
0
0
0
0
0
0
0
0
0
0
0
0
0
0
0
0
0
0
0
0
0
0
0
0
0
0
0
0
0
0
0
0
0
0
0
0
0
0
0
0
0
0
0
0
0
0
0
0
0
0
0
0
0
0
0
0
0
0
0
0
0
0
0
0
0
0
0
0
0
0
0
0
0
0
0
0
0
0
0
0
0
0
0
0
0
0
0
0
0
0
0
0
0
0
0
0
0
0
0
0
0
0
0
0
0
0
0
0
0
0
0
0
0
0
0
0
0
0
0
0
0
0
0
0
0
0
0
0
0
0
0
0
0
0
0
0
0
0
0
0
0
0
0
0
0
0
0
0
0
0
0
0
0
0
0
0
0
0
0
0
0
0
0
0
0
0
0
0
0
0
0
0
0
0
0
0
0
0
0
0
0
0
0
0
0
0
0
0
0
0
0
0
0
0
0
0
0
0
0
0
0
0
0
0
0
0
0
0
0
0
0
0
0
0
0
0
0
0
0
0
0
0
0
0
0
0
0
0
0
0
0
0
0
0
0
0
0
0
0
0
0
0
0
0
0
0
0
0
0
0
0
0
0
0
0
0
0
0
0
0
0
0
0
0
0
0
0
0
0
0
0
0
0
0
0
0
0
0
0
0
0
0
0
0
0
0
0
0
0
0
0
0
0
0
0
0
0
0
0
0
0
0
0
0
0
0
0
0
0
0
0
0
0
0
0
0
0
0
0
0
0
0
0
0
0
0
0
0
0
0
0
0
0
0
0
0
0
0
0
0
0
0
0
0
0
0
0
0
0
0
0
0
0
0
0
0
0
0
0
0
0
0
0
0
0
0
0
0
0
0
0
0
0
0
0
0
0
0
0
0
0
0
0
0
0
0
0
0
0
0
0
0
0
0
0
0
0
0
0
0
0
0
0
0
0
0
0
0
0
0
0
0
0
0
0
0
0
0
0
0
0
0
0
0
0
0
0
0
0
0
0
0
0
0
0
0
0
0
0
0
0
0
0
0
0
0
0
0
0
0
0
0
0
0
0
0
0
0
0
0
0
0
0
0
0
0
0
0
0
0
0
0
0
0
0
0
0
0
0
0
0
0
0
0
0
0
0
0
0
0
0
0
0
0
0
0
0
0
0
0
0
0
0
0
0
0
0
0
0
0
0
0
0
0
0
0
0
0
0
0
0
0
0
0
0
0
0
0
0
0
0
0
0
0
0
0
0
0
0
0
0
0
0
0
0
0
0
0
0
0
0
0
0
0
0
0
0
0
0
0
0
0
0
0
0
0
0
0
0
0
0
0
0
0
0
0
0
0
0
0
0
0
0
0
0
0
0
0
0
0
0
0
0
0
0
0
0
0
0
0
0
0
0
0
0
0
0
0
0
0
0
0
0
0
0
0
0
0
0
0
0
0
0
0
0
0
0
0
0
0
0
0
0
0
0
0
0
0
0
0
0
0
0
0
0
0
0
0
0
0
0
0
0
0
0
0
0
0
0
0
0
0
0
0
0
0
0
0
0
0
0
0
0
0
0
0
0
0
0
0
0
0
0
0
0
0
0
0
0
0
0
0
0
0
0
0
0
0
0
0
0
0
0
0
0
0
0
0
0
0
0
0
0
0
0
0
0
0
0
0
0
0
0
0
0
0
0
0
0
0
0
0
0
0
0
0
0
0
0
0
0
0
0
0
0
0
0
0
0
0
0
0
0
0
0
0
0
0
0
0
0
0
0
0
0
0
0
0
0
0
0
0
0
0
0
0
0
0
0
0
0
0
0
0
0
0
0
0
0
0
0
0
0
0
0
0
0
0
0
0
0
0
0
0
0
0
0
0
0
0
0
0
0
0
0
0
0
0
0
0
0
0
0
0
0
0
0
0
0
0
0
0
0
0
0
0
0
0
0
0
0
0
0
0
0
0
0
0
0
0
0
0
0
0
0
0
0
0
0
0
0
0
0
0
0
0
0
0
0
0
0
0
0
0
0
0
0
0
0
0
0
0
0
0
0
0
0
0
0
0
0
0
0
0
0
0
0
0
0
0
0
0
0
0
0
0
0
0
0
0
0
0
0
0
0
0
0
0
0
0
0
0
0
0
0
0
0
0
0
0
0
0
0
0
0
0
0
0
0
0
0
0
0
0
0
0
0
0
0
0
0
0
0
0
0
0
0
0
0
0
0
0
0
0
0
0
0
0
0
0
0
0
0
0
0
0
0
0
0
0
0
0
0
0
0
0
0
0
0
0
0
0
0
0
0
0
0
0
0
0
0
0
0
0
0
0
0
0
0
0
0
0
0
0
0
0
0
0
0
0
0
0
0
0
0
0
0
0
0
0
0
0
0
0
0
0
0
0
0
0
0
0
0
0
0
0
0
0
0
0
0
0
0
0
0
0
0
0
0
0
0
0
0
0
0
0
0
0
0
0
0
0
0
0
0
0
0
0
0
0
0
0
0
0
0
0
0
0
0
0
0
0
0
0
0
0
0
0
0
0
0
0
0
0
0
0
0
0
0
0
0
0
0
0
0
0
0
0
0
0
0
0
0
0
0
0
0
0
0
0
0
0
0
0
0
0
0
0
0
0
0
0
0
0
0
0
0
0
0
0
0
0
0
0
0
0
0
0
0
0
0
0
0
0
0
0
0
0
0
0
0
0
0
0
0
0
0
0
0
0
0
0
0
0
0
0
0
0
0
0
0
0
0
0
0
0
0
0
0
0
0
0
0
0
0
0
0
0
0
0
0
0
0
0
0
0
0
0
0
0
0
0
0
0
0
0
0
0
0
0
0
0
0
0
0
0
0
0
0
0
0
0
0
0
0
0
0
0
0
0
0
0
0
0
0
0
0
0
0
0
0
0
0
0
0
0
0
0
0
0
0
0
0
0
0
0
0
0
0
0
0
0
0
0
0
0
0
0
0
0
0
0
0
0
0
0
0
0
0
0
0
0
0
0
0
0
0
0
0
0
0
0
0
0
0
0
0
0
0
0
0
0
0
0
0
0
0
0
0
0
0
0
0
0
0
0
0
0
0
0
0
0
0
0
0
0
0
0
0
0
0
0
0
0
0
0
0
0
0
0
0
0
0
0
0
0
0
0
0
0
0
0
0
0
0
0
0
0
0
0
0
0
0
0
0
0
0
0
0
0
0
0
0
0
0
0
0
0
0
0
0
0
0
0
0
0
0
0
0
0
0
0
0
0
0
0
