1.8109
1.68428
1.54408
1.41517
1.31567
1.27673
1.33098
1.43904
1.53313
1.54878
1.45876
1.28918
1.10511
0.972053
0.916489
0.896097
0.87745
0.830427
0.740376
0.613358
0.471085
0.339274
0.236147
0.156326
0.0905823
0.0351757
-0.0128418
-0.0514034
0
0.421979
1.33517
2.62677
3.95238
4.82626
4.82648
3.82225
2.08582
0.194875
-1.23589
-1.83973
-1.53996
-1.12953
-0.755049
-0.457013
-0.262326
-0.179577
-0.199071
-0.29697
-0.441862
-0.601981
-0.751841
-0.880463
-0.988007
-1.07829
-1.15487
-1.21973
-1.27458
-1.32095
-1.36021
-1.39368
-1.42272
-1.44898
-1.4742
-1.49976
-1.52622
-1.55306
-1.57878
-1.60133
-1.61881
-1.63011
-1.63489
-1.63412
-1.62898
-1.61979
-1.6051
-1.58151
-1.54425
-1.48859
-1.41158
-1.3142
-1.20155
-1.07979
-0.957051
-0.841683
-0.740685
-0.658426
-0.595979
-0.551132
-0.51898
-0.492905
-0.465707
-0.430935
-0.383332
-0.318805
-0.233957
-0.127531
0
0.126322
0.264021
0.392675
0.485269
0.510251
0.439616
0.264474
0.00764742
-0.27861
-0.533504
-0.717656
-0.847639
-0.958351
-1.06276
-1.16832
-1.27528
-1.37637
-1.45933
-1.51148
-1.52424
-1.49292
-1.41967
-1.31755
-1.21178
-1.13256
-1.10331
-1.13893
-1.24375
-1.40831
-1.60792
-1.80695
-1.96936
-2.07092
-2.12147
-2.14214
-2.14379
-2.13088
-2.10707
-2.07489
-2.03598
-1.99162
-1.94334
-1.8933
-1.84397
-1.79793
-1.75749
-1.72433
-1.6994
-1.68296
-1.67488
-1.67439
-1.68024
-1.69058
-1.70273
-1.71301
-1.71684
-1.70913
-1.68506
-1.64108
-1.57633
-1.49006
-1.3829
-1.26849
-1.1644
-1.08678
-1.04582
-1.04296
-1.07071
-1.11479
-1.1578
-1.18289
-1.18292
-1.15597
-1.10028
-1.01575
-0.905126
-0.773874
-0.628604
-0.479562
-0.33883
-0.216938
-0.121003
-0.0535503
-0.0123642
0.00854054
0.0170738
0.0208763
0.0254478
0.0333714
0.0423061
0.0473349
0.0441994
0.0321133
0.0149036
0
-0.0410557
-0.0650852
-0.0711008
-0.0638512
-0.0476841
-0.0259613
-0.00147514
0.0239876
0.0497829
0.0892811
0.387104
1.00636
1.93459
2.98323
3.78307
3.92658
3.19193
1.6968
-0.134998
-1.77452
-2.82204
-2.8845
-2.54647
-1.95817
-1.22974
-0.567633
-0.222705
-0.0985085
-0.0543686
-0.080267
-0.158747
-0.269444
-0.393659
-0.51694
-0.631819
-0.734178
-0.818231
-0.878621
-0.910526
-0.910667
-0.878414
-0.81652
-0.730254
-0.627401
-0.520195
-0.425691
-0.359902
-0.33374
-0.35172
-0.410728
-0.499511
-0.599729
-0.68923
-0.747285
-0.760387
-0.733187
-0.679844
-0.60955
-0.533846
-0.463211
-0.404465
-0.359142
-0.323297
-0.288771
-0.24553
-0.184419
-0.0999161
0.0119072
0.150603
0.305565
0.458837
0.587953
0.673113
0.702541
0.671845
0.584956
0.455538
0.306756
0.166833
0.0600105
0
-0.0528069
-0.109158
-0.212389
-0.39432
-0.661404
-0.992465
-1.34796
-1.68469
-1.92772
-1.78895
-1.3079
-0.728311
-0.28527
-0.193845
-0.561772
-1.31181
-2.18861
-2.85947
-3.02061
-2.87957
-2.68234
-2.46965
-2.25141
-2.03824
-1.84524
-1.68487
-1.56674
-1.4959
-1.47145
-1.48637
-1.52876
-1.58428
-1.63891
-1.68161
-1.70886
-1.71907
-1.7109
-1.68457
-1.64154
-1.58401
-1.5146
-1.43561
-1.3489
-1.25595
-1.15794
-1.05604
-0.951569
-0.845894
-0.740155
-0.634888
-0.52977
-0.423562
-0.314367
-0.200185
-0.0795906
0.047628
0.180098
0.314877
0.447627
0.573289
0.686982
0.784743
0.864015
0.922596
0.959483
0.977061
0.979144
0.970776
0.958008
0.947451
0.945502
0.957285
0.985535
1.03103
1.09215
1.15898
1.21424
1.24135
1.22913
1.17505
1.08535
0.972028
0.847578
0.72018
0.591998
0.462323
0.331319
0.202705
0.0870697
0
-0.118001
-0.179245
-0.179985
-0.0518463
0.384995
1.00009
1.62875
2.1383
2.35389
2.13769
1.49545
0.616541
-0.197
-0.657417
-0.652853
-0.516472
-0.356393
-0.190337
-0.0256271
0.130766
0.272601
0.395694
0.49817
0.580614
0.645665
0.697154
0.738931
0.773639
0.801093
0.818976
0.823209
0.809105
0.773079
0.713916
0.63325
0.535205
0.425562
0.310858
0.197816
0.0921417
0
-0.0772705
-0.130934
-0.157489
-0.154887
-0.122581
-0.0612686
0.027536
0.14169
0.276689
0.436227
0.614374
0.787164
0.926187
1.00884
1.02889
1.00144
0.95927
0.942178
0.984374
1.09202
1.24622
1.46708
1.77478
2.11825
2.42122
2.61427
2.65624
2.55017
2.34361
2.10913
1.91234
1.78306
1.68749
1.59899
1.50655
1.40219
1.28117
1.14276
0.99008
0.82915
0.667369
0.511795
0.367355
0.237369
0.123145
0.0240005
-0.0622803
-0.138751
-0.209552
-0.278734
-0.34924
-0.422141
-0.496208
-0.568047
-0.632861
-0.685709
-0.721356
-0.735275
-0.729913
-0.710312
-0.681432
-0.645641
-0.601685
-0.545651
-0.473587
-0.380966
-0.27318
-0.163884
-0.0696457
-0.00391693
0.0278122
0.0297012
0.0137146
-0.00471954
-0.0115631
0
0.0532593
0.123444
0.210544
0.315613
0.440533
0.592421
0.803189
1.12525
1.51602
1.88805
2.14762
2.23669
2.15781
1.97088
1.76607
1.62823
1.60945
1.66358
1.75215
1.86022
1.98162
2.10972
2.23653
2.35439
2.45645
2.53691
2.59104
2.6153
2.60736
2.56643
2.49389
2.39338
2.27073
2.13386
1.99188
1.85379
1.72622
1.61259
1.5149
1.43257
1.36267
1.30037
1.23962
1.17389
1.09699
1.00378
0.890793
0.756734
0.602644
0.431329
0.241116
0
0.208833
1.00048
2.21538
3.47003
4.29043
4.31573
3.4715
2.02906
0.504732
-0.576317
-0.923538
-0.675139
-0.484027
-0.315334
-0.175813
-0.0672607
0.0190186
0.0907349
0.15222
0.206976
0.256577
0.300108
0.334258
0.354147
0.355241
0.335248
0.29519
0.239377
0.174178
0.106146
0.0401367
-0.0223572
-0.0822189
-0.141116
-0.201015
-0.263425
-0.328658
-0.395337
-0.460255
-0.518599
-0.564616
-0.592517
-0.596721
-0.56852
-0.497902
-0.385597
-0.252936
-0.128773
-0.0392151
0
0.0237488
0.0126251
-0.00475616
0.00503082
0.0694901
0.191528
0.368974
0.576515
0.77923
0.945377
1.05793
1.11965
1.14932
1.17124
1.2032
1.24774
1.29524
1.33567
1.35899
1.35824
1.33131
1.28082
1.21257
1.13322
1.04875
0.961981
0.873267
0.781427
0.684493
0.580571
0.468785
0.350147
0.228122
0.10869
0
-0.06353
-0.0687134
0.0213974
0.178922
0.347316
0.463902
0.485742
0.406223
0.256093
0.0902267
-0.0335815
-0.0835281
-0.0811935
-0.045462
0.0186737
0.104338
0.204248
0.311819
0.4215
0.529547
0.632842
0.728406
0.813403
0.885001
0.94068
0.978755
0.998921
1.00262
0.993119
0.975142
0.95416
0.935225
0.922305
0.918822
0.924828
0.937562
0.953604
0.970734
0.989178
1.0116
1.04175
1.0855
1.14175
1.2034
1.25988
1.30134
1.32253
1.32459
1.31403
1.29974
1.28957
1.28566
1.28662
1.28992
1.29134
1.28507
1.26481
1.22486
1.16129
1.0728
0.96114
0.830959
0.689098
0.543596
0.402299
0.271938
0.15826
0.0656181
-0.00322037
-0.0462433
-0.059465
-0.040564
0
0.0666199
0.122251
0.154292
0.157716
0.136444
0.100279
0.0772797
0.468835
1.25762
2.19706
2.91332
3.05032
2.46545
1.33202
0.0652496
-0.881246
-1.06468
-0.965443
-0.829696
-0.663882
-0.476868
-0.279149
-0.0819962
0.105441
0.274857
0.419559
0.535043
0.61931
0.672881
0.698636
0.701577
0.688853
0.669067
0.650163
0.63959
0.643559
0.665334
0.706175
0.767658
0.845286
0.930547
1.01548
1.09542
1.17066
1.24627
1.33014
1.4298
1.54922
1.68799
1.83865
1.98702
2.11771
2.21829
2.28246
2.31126
2.3125
2.29865
2.28399
2.28085
2.29571
2.32982
2.38156
2.44809
2.52656
2.61385
2.70697
2.80334
2.90057
2.99583
3.08359
3.15342
3.19215
3.18513
3.12039
2.99329
2.80963
2.58569
2.34458
2.10998
1.89731
1.71445
1.56058
1.42869
1.30981
1.1971
1.08793
0.983524
0.886549
0.798383
0.71695
0.638761
0.55974
0.477097
0.390621
0.302916
0.218688
0.143578
0.0804424
0.0317718
0
0.0182354
0.0656254
0.137629
0.210143
0.253738
0.244947
0.177633
0.067712
-0.0526432
-0.149018
-0.199474
-0.215763
-0.209317
-0.188529
-0.161189
-0.132086
-0.102189
-0.0693729
-0.030098
0.0175865
0.0734417
0.137271
0.207016
0.277282
0.341208
0.39262
0.427929
0.447535
0.456239
0.462395
0.475944
0.505844
0.561193
0.646833
0.752514
0.859876
0.947649
0.99638
0.99195
0.927642
0.805205
0.635281
0.436903
0.235511
0.053743
-0.0926842
-0.198673
-0.258225
-0.262678
-0.216474
-0.141337
-0.0619125
0
0.0405903
0.0437876
0.0134752
-0.039225
-0.0988682
-0.148843
-0.177452
-0.179971
-0.154992
-0.0910816
0.0905205
0.610039
1.3852
2.17971
2.76896
2.97901
2.76152
2.22464
1.59143
1.10497
0.911999
0.785938
0.636633
0.472653
0.298358
0.120087
-0.0518881
-0.205706
-0.330805
-0.413166
-0.447484
-0.44416
-0.420186
-0.393798
-0.379522
-0.385263
-0.412011
-0.455572
-0.509084
-0.564983
-0.617121
-0.660082
-0.688339
-0.697495
-0.684706
-0.649611
-0.594932
-0.526274
-0.45106
-0.376919
-0.310089
-0.252857
-0.206288
-0.169282
-0.138825
-0.110301
-0.0782315
-0.0368546
0.018916
0.0923984
0.184492
0.294678
0.416256
0.54004
0.656034
0.754769
0.827808
0.863266
0.852911
0.789107
0.666425
0.484335
0.249804
-0.0216118
-0.306998
-0.579462
-0.772158
-0.657438
-0.159136
0.447349
0.945113
1.19495
1.13769
0.803605
0.318255
-0.119565
-0.307158
-0.241628
-0.114179
0.0189188
0.140307
0.23667
0.299537
0.32477
0.311678
0.262733
0.187186
0.0954987
0
-0.00555121
0.239883
0.863769
1.64844
2.28012
2.51667
2.31279
1.83595
1.36947
1.16633
1.31909
1.5243
1.70988
1.84446
1.90779
1.89558
1.82012
1.7059
1.5812
1.46818
1.37077
1.28536
1.20687
1.12779
1.04051
0.939449
0.822121
0.689142
0.54313
0.38716
0.224203
0.055397
-0.119105
-0.29912
-0.483518
-0.669521
-0.852493
-1.02633
-1.1844
-1.32054
-1.43021
-1.51116
-1.56365
-1.59011
-1.5945
-1.58127
-1.55433
-1.51635
-1.4685
-1.41066
-1.34169
-1.25911
-1.16157
-1.05498
-0.949599
-0.856545
-0.78402
-0.734237
-0.702412
-0.678344
-0.649936
-0.607262
-0.549152
-0.479002
-0.400446
-0.319486
-0.24358
-0.181081
-0.139427
-0.124097
-0.137496
-0.17805
-0.245322
-0.326646
-0.398942
-0.439223
-0.431393
-0.371114
-0.266774
-0.136105
0
0.131502
0.244191
0.339183
0.417032
0.480182
0.532031
0.575352
0.607307
0.779862
1.45041
2.60105
3.8402
4.55495
4.27953
3.01438
1.25494
-0.293908
-1.09202
-0.828744
-0.502378
-0.185671
0.0957932
0.320034
0.473436
0.57417
0.624613
0.630675
0.600489
0.543375
0.469947
0.390325
0.313277
0.246579
0.19753
0.172198
0.174736
0.206809
0.268296
0.359876
0.478495
0.610377
0.733295
0.82656
0.87563
0.875877
0.834231
0.767767
0.699193
0.650689
0.636868
0.655382
0.699037
0.763304
0.845479
0.942976
1.05427
1.17862
1.31053
1.43594
1.53894
1.60693
1.63686
1.63927
1.63732
1.66035
1.7343
1.87249
2.05707
2.2823
2.53454
2.79659
3.04124
3.25217
3.43616
3.55561
3.52466
3.26224
2.76163
2.12503
1.53354
1.16131
0.995229
0.90213
0.849459
0.829721
0.835035
0.858873
0.895405
0.928284
0.935505
0.895008
0.792101
0.627327
0.420143
0.205256
0.0219673
-0.0992645
-0.16604
-0.175986
-0.14459
-0.0926125
-0.0386505
0.00636215
0.0407684
0.0697929
0.100602
0.137222
0.177462
0.212764
0.231039
0.221043
0.176628
0.0995331
0
-0.0717674
-0.126778
-0.0747444
0.250342
0.755608
1.24395
1.51563
1.47657
1.1861
0.809344
0.510876
0.369736
0.329523
0.326046
0.342462
0.376258
0.428345
0.50046
0.592841
0.697516
0.798477
0.878138
0.92231
0.924657
0.888629
0.825888
0.751803
0.679958
0.617114
0.562447
0.514551
0.472206
0.434564
0.401616
0.374014
0.352338
0.336114
0.323207
0.309009
0.287141
0.250607
0.193301
0.11144
0.00451508
-0.124493
-0.26967
-0.423236
-0.577296
-0.725577
-0.863596
-0.989101
-1.10201
-1.20393
-1.29732
-1.38455
-1.46699
-1.54432
-1.61397
-1.67095
-1.70957
-1.72432
-1.71134
-1.66964
-1.59976
-1.50707
-1.40075
-1.29125
-1.18783
-1.09684
-1.02077
-0.95811
-0.904135
-0.852159
-0.795154
-0.727568
-0.646997
-0.554053
-0.450775
-0.340413
-0.227988
-0.118658
-0.0167419
0.0749695
0.155426
0.225043
0.285068
0.3368
0.380972
0.417651
0.445813
0.463785
0.469728
0.46207
0.439902
0.403242
0.353229
0.29225
0.223648
0.151434
0.0800156
0.0137894
-0.043428
-0.0888931
-0.121262
-0.140503
-0.148128
-0.146593
-0.138695
-0.126985
-0.113312
-0.0986084
-0.0828308
-0.0629044
0
0.326096
1.02135
2.07834
3.25071
4.08508
4.15577
3.35293
1.9916
0.637726
-0.229387
-0.45844
-0.213728
0.0137802
0.224286
0.403587
0.540561
0.628854
0.668332
0.665286
0.631056
0.579184
0.521947
0.467439
0.417667
0.37063
0.323132
0.271623
0.213466
0.147774
0.0756577
0
-0.108667
-0.213329
-0.311153
-0.39873
-0.476193
-0.551155
-0.633083
-0.728108
-0.834125
-0.939046
-1.02366
-1.06845
-1.06127
-1.00957
-0.92868
-0.830772
-0.729436
-0.636258
-0.557811
-0.499226
-0.461656
-0.443288
-0.439984
-0.445944
-0.45437
-0.458113
-0.450366
-0.42538
-0.379686
-0.312589
-0.225188
-0.120107
0
0.12039
0.231516
0.320389
0.378165
0.401598
0.392422
0.355058
0.293936
0.211954
0.112302
-0.00305176
-0.13026
-0.263211
-0.394463
-0.517105
-0.626503
-0.723689
-0.809694
-0.887361
-0.960875
-1.03542
-1.11678
-1.21006
-1.31832
-1.44135
-1.5756
-1.71212
-1.83929
-1.94549
-2.02167
-2.06315
-2.06994
-2.046
-1.99783
-1.93338
-1.86102
-1.78991
-1.73078
-1.6934
-1.68457
-1.70581
-1.75197
-1.81153
-1.86888
-1.90797
-1.91719
-1.89711
-1.8525
-1.78736
-1.70539
-1.61474
-1.52575
-1.44726
-1.38473
-1.33916
-1.30716
-1.28224
-1.25688
-1.2248
-1.18343
-1.13304
-1.07711
-1.02354
-0.981
-0.956168
-0.951694
-0.965457
-0.991284
-1.02086
-1.04609
-1.06106
-1.0647
-1.05857
-1.04417
-1.02301
-0.996613
-0.96628
-0.932991
-0.897517
-0.860608
-0.823224
-0.786833
-0.753775
-0.726738
-0.708441
-0.701024
-0.705499
-0.721381
-0.746561
-0.777362
-0.808652
-0.834195
-0.847275
-0.840549
-0.807144
-0.741945
-0.64299
-0.502219
-0.321449
-0.127736
0.0471504
0.176602
0.247179
0.26189
0.237616
0.197758
0.162973
0.14365
0.135587
0.129301
0.113593
0.0817558
0.0357178
-0.0138496
-0.0515305
-0.0633598
-0.0421669
0.00331726
0.0656181
0.139404
0.220143
0.305051
0.393611
0.485728
0.569832
0.619679
0.601157
0.488328
0.279099
0
-0.641919
-0.654334
0.274145
1.92878
3.67246
4.74739
4.66814
3.47099
1.67306
-0.0204025
-1.06847
-1.29866
-0.862284
-0.51993
-0.206364
0.0605301
0.2713
0.42716
0.538719
0.62213
0.693889
0.766142
0.841972
0.910485
0.954821
0.96265
0.934017
0.882941
0.83243
0.805703
0.817953
0.862253
0.926571
1.00337
1.08661
1.17039
1.24897
1.31757
1.3734
1.41571
1.44573
1.46641
1.48188
1.4966
1.51453
1.53836
1.56889
1.60559
1.6476
1.69408
1.74453
1.79896
1.85783
1.92171
1.99096
2.06567
2.14545
2.22961
2.31772
2.40992
2.50696
2.60994
2.71965
2.83613
2.95782
3.08066
3.1982
3.30123
3.37859
3.42239
3.42775
3.39355
3.32267
3.22153
3.0988
2.96358
2.82359
2.68413
2.54758
2.41501
2.2882
2.16983
2.0632
1.97197
1.8994
1.84743
1.81588
1.80221
1.80186
1.8088
1.81646
1.81921
1.81333
1.7974
1.77223
1.74021
1.70453
1.66845
1.6347
1.60521
1.58166
1.56551
1.55815
1.56114
1.57621
1.60498
1.6492
1.71081
1.79379
1.9058
2.05671
2.24457
2.43669
2.58929
2.66239
2.63247
2.50225
2.30372
2.09082
1.92224
1.84007
1.82863
1.85408
1.89781
1.95019
2.00393
2.05306
2.09353
2.12333
2.14228
2.15188
2.15463
2.15348
2.15125
2.15009
2.15117
2.15418
2.15627
2.15223
2.13598
2.10232
2.04859
1.97582
1.88892
1.79592
1.70662
1.63075
1.5743
1.54136
1.53585
1.55955
1.61677
1.71476
1.84767
1.98798
2.10469
2.17159
2.17491
2.11738
2.01757
1.90461
1.81018
1.76034
1.75696
1.78973
1.86399
1.98379
2.13363
2.27771
2.37985
2.41156
2.36022
2.23457
2.06397
1.8892
1.74648
1.64884
1.57472
1.5041
1.41989
1.30826
1.16277
0.986141
0.7889
0.585538
0.389839
0.20786
0.041135
-0.0903244
0
0.460398
1.29856
2.37986
3.40587
4.02727
3.99591
3.28323
2.11041
0.860247
-0.101225
-0.60353
-0.749458
-0.824542
-0.873402
-0.891347
-0.873216
-0.821586
-0.74692
-0.665143
-0.593125
-0.543598
-0.520682
-0.52088
-0.53433
-0.548496
-0.552175
-0.541582
-0.517466
-0.480503
-0.433343
-0.38083
-0.328589
-0.282234
-0.247132
-0.227051
-0.223173
-0.234161
-0.256179
-0.283364
-0.308759
-0.325676
-0.329156
-0.317122
-0.291788
-0.257658
-0.218937
-0.179868
-0.143412
-0.110278
-0.0785244
-0.0437645
0
0.0634502
0.1766
0.347482
0.535011
0.679131
0.730907
0.680945
0.568252
0.461724
0.422789
0.470965
0.557013
0.647416
0.717508
0.754835
0.762381
0.754563
0.748388
0.7544
0.7698
0.7861
0.792096
0.775899
0.727723
0.641911
0.518102
0.361659
0.183884
0
-0.174388
-0.326003
-0.443021
-0.517558
-0.546567
-0.531771
-0.478698
-0.395242
-0.290284
-0.170655
-0.0450436
0.0696785
0.153528
0.187043
0.158611
0.0726971
-0.0470238
-0.163641
-0.24061
-0.256202
-0.226561
-0.174879
-0.10999
-0.0407059
0.0258778
0.0850906
0.13454
0.173372
0.201889
0.220876
0.231372
0.2347
0.232507
0.226686
0.219143
0.211498
0.204877
0.199894
0.19699
0.1966
0.199264
0.205555
0.215876
0.230351
0.248487
0.26944
0.292389
0.316963
0.343508
0.37306
0.407012
0.446626
0.492645
0.544907
0.60304
0.667004
0.737463
0.81634
0.911198
1.05257
1.30361
1.62925
1.92934
2.08015
2.0025
1.71267
1.32193
0.981604
0.803869
0.771482
0.77556
0.785381
0.780457
0.745935
0.675612
0.573162
0.451286
0.328925
0.227053
0.190874
0.270478
0.422858
0.563972
0.608729
0.511854
0.287878
0
-0.28959
-0.511752
-0.617926
-0.279877
0.326837
1.08306
1.90365
2.60114
2.90748
2.61425
1.73221
0.534644
-0.562861
-1.20859
-1.21929
-0.995797
-0.794278
-0.614765
-0.466514
-0.353749
-0.275333
-0.225686
-0.196775
-0.180939
-0.17425
-0.175012
-0.186147
-0.211458
-0.251319
-0.300147
-0.347131
-0.380019
-0.390108
-0.376691
-0.35019
-0.318126
-0.287873
-0.265682
-0.255457
-0.258331
-0.273016
-0.296654
-0.325669
-0.356659
-0.38671
-0.413166
-0.433403
-0.444709
-0.444439
-0.430495
-0.401947
-0.357796
-0.300189
-0.234112
-0.164658
-0.0952938
-0.0268265
0.0424601
0.115535
0.19485
0.280909
0.371288
0.462759
0.551969
0.635704
0.711193
0.775102
0.822841
0.848232
0.844778
0.805118
0.72282
0.594904
0.424162
0.220401
0
-0.214891
-0.40009
-0.491983
-0.462287
-0.365204
-0.287741
-0.307414
-0.456543
-0.711134
-1.00875
-1.28322
-1.4935
-1.65673
-1.79379
-1.9073
-1.99535
-2.05327
-2.05801
-1.97946
-1.84436
-1.70139
-1.60321
-1.58328
-1.64066
-1.74097
-1.83219
-1.86676
-1.82284
-1.73074
-1.61325
-1.48137
-1.34294
-1.20549
-1.07645
-0.963107
-0.870956
-0.802899
-0.759726
-0.739767
-0.738623
-0.749292
-0.762889
-0.769962
-0.762125
-0.734753
-0.687945
-0.621885
-0.538241
-0.443122
-0.349652
-0.273484
-0.228546
-0.223966
-0.261569
-0.334685
-0.428894
-0.524791
-0.602227
-0.648094
-0.662083
-0.643214
-0.589484
-0.509469
-0.418823
-0.334195
-0.26982
-0.234851
-0.231811
-0.256231
-0.297411
-0.34021
-0.368036
-0.367221
-0.330088
-0.257117
-0.146704
-0.000534058
0.165588
0.326127
0.456904
0.53999
0.566785
0.539092
0.46836
0.373256
0.275761
0.19621
0.144287
0.117982
0.116341
0.130989
0.149712
0.160719
0.156239
0.134652
0.100355
0.0614721
0.0264139
0.000836754
-0.0154785
-0.0246481
-0.0280991
-0.0264561
-0.0185183
0
0.0416813
0.198224
0.540481
0.96512
1.30649
1.40833
1.19188
0.69141
0.0426258
-0.561408
-0.924986
-1.07436
-1.1471
-1.17757
-1.17395
-1.14603
-1.104
-1.05744
-1.01434
-0.981641
-0.965143
-0.968293
-0.991985
-1.03396
-1.08865
-1.1475
-1.20051
-1.23808
-1.25296
-1.2413
-1.2028
-1.13976
-1.05586
-0.955616
-0.84174
-0.714992
-0.58313
-0.464982
-0.384258
-0.362176
-0.408172
-0.513616
-0.65247
-0.789563
-0.893108
-0.94792
-0.968435
-0.968781
-0.95404
-0.929031
-0.897308
-0.860911
-0.820797
-0.777579
-0.732036
-0.685463
-0.639033
-0.592891
-0.545321
-0.492481
-0.428975
-0.34922
-0.240664
-0.0920706
0.0792332
0.239827
0.354461
0.398784
0.367156
0.272858
0.141391
0
-0.136686
-0.261584
-0.379316
-0.493243
-0.604098
-0.709939
-0.806035
-0.885735
-0.942382
-0.95866
-0.932998
-0.883391
-0.835402
-0.81225
-0.826065
-0.87434
-0.942641
-1.01161
-1.06488
-1.10002
-1.12208
-1.13341
-1.14131
-1.15418
-1.17858
-1.2171
-1.26728
-1.32223
-1.37261
-1.40946
-1.42681
-1.42636
-1.41009
-1.38169
-1.34552
-1.30552
-1.2641
-1.22224
-1.18003
-1.13731
-1.09415
-1.05132
-1.01032
-0.972921
-0.940623
-0.913999
-0.892299
-0.87338
-0.854024
-0.830538
-0.799614
-0.758947
-0.707466
-0.64552
-0.574832
-0.497958
-0.417812
-0.337377
-0.259638
-0.186926
-0.120605
-0.0610065
-0.00756865
0.0407214
0.0843054
0.121358
0.148211
0.159002
0.148021
0.113447
0.0605176
0.00241232
-0.041111
-0.00643263
0.165903
0.417302
0.631663
0.702234
0.590702
0.344688
0.0665035
-0.145261
-0.244364
-0.282872
-0.300927
-0.308875
-0.310535
-0.307399
-0.298973
-0.283646
-0.259691
-0.2264
-0.184096
-0.132892
-0.0724942
0
0.0996895
0.296621
0.662861
1.11288
1.47184
1.56502
1.31591
0.792152
0.17564
-0.313556
-0.494662
-0.488489
-0.427462
-0.331035
-0.214493
-0.0938932
0.0163104
0.10863
0.178766
0.225015
0.248955
0.254747
0.248103
0.235104
0.221088
0.209558
0.20211
0.198414
0.196767
0.195012
0.191566
0.186287
0.18094
0.179126
0.185688
0.205725
0.24476
0.315319
0.4247
0.549933
0.65797
0.718013
0.715182
0.658962
0.581408
0.524959
0.525263
0.593377
0.700969
0.827781
0.963513
1.10011
1.23091
1.3511
1.4565
1.54363
1.61176
1.66157
1.69495
1.71555
1.72927
1.74406
1.76907
1.8129
1.88206
1.99038
2.14136
2.30871
2.45573
2.54885
2.56816
2.51271
2.39898
2.25305
2.09981
1.9544
1.81772
1.68633
1.5587
1.43546
1.31898
1.2128
1.12097
1.04704
0.993213
0.959855
0.945542
0.947458
0.961942
0.984707
1.012
1.03979
1.06371
1.08005
1.0863
1.08158
1.06668
1.0433
1.01299
0.974994
0.926858
0.86422
0.78291
0.681554
0.563533
0.437331
0.31502
0.209428
0.128692
0.0726763
0.0427217
0.0378382
0.0552485
0.0885817
0.129271
0.168717
0.199344
0.215423
0.213956
0.195191
0.162901
0.124213
0.08884
0.0676424
0.0704688
0.103958
0.169823
0.265207
0.380972
0.503793
0.619207
0.714061
0.778244
0.805507
0.793553
0.743769
0.660875
0.553576
0.431418
0.305223
0.185734
0.0818785
-0.00207763
-0.0633421
-0.102783
-0.124696
-0.136085
-0.144209
-0.153953
-0.166336
-0.178108
-0.182643
-0.171931
-0.139133
-0.0808897
0
0.0917231
0.192429
0.295564
0.396281
0.492763
0.586162
0.689269
0.929579
1.34731
1.81095
2.05982
1.8496
1.1197
0.0702254
-0.912172
-1.43964
-1.45559
-1.30627
-1.07078
-0.836305
-0.668535
-0.588817
-0.544703
-0.520734
-0.509654
-0.505561
-0.504798
-0.50591
-0.508849
-0.513749
-0.519747
-0.524284
-0.523117
-0.511028
-0.482995
-0.436258
-0.370828
-0.288568
-0.192282
-0.0867064
0.0223417
0.128237
0.22331
0.300689
0.35687
0.391627
0.408423
0.414248
0.41857
0.431369
0.460732
0.510827
0.579311
0.65995
0.747679
0.837897
0.926599
1.01071
1.08714
1.15235
1.20387
1.23974
1.259
1.26284
1.25533
1.24302
1.23338
1.23271
1.24418
1.26543
1.2924
1.32064
1.34489
1.35936
1.35739
1.33386
1.28503
1.20922
1.1075
0.98407
0.845955
0.70207
0.561771
0.43287
0.319625
0.225902
0.154224
0.107344
0.0878733
0.09738
0.137062
0.208317
0.324608
0.482107
0.650412
0.793748
0.883676
0.909794
0.88274
0.827699
0.771525
0.72984
0.698245
0.665994
0.621819
0.557885
0.474023
0.37901
0.288312
0.219076
0.193985
0.224483
0.289891
0.35572
0.388851
0.370885
0.304069
0.208529
0.11321
0.0445076
0.00995829
0
0.0114744
0.0279708
0.0323497
0.011977
-0.0359459
-0.102017
-0.166123
-0.134775
0.171307
0.65904
1.08868
1.22632
0.986531
0.483917
-0.0305922
-0.301477
-0.203151
0.0166847
0.249169
0.469821
0.659675
0.806036
0.902967
0.95005
0.950108
0.907019
0.824631
0.711499
0.573338
0.418179
0.257479
0.111169
0.0919646
0.430076
0.988419
1.51656
1.82513
1.87149
1.72394
1.46726
1.15044
0.822658
0.588058
0.481837
0.465562
0.494644
0.541817
0.594996
0.646584
0.695635
0.747345
0.809967
0.893779
1.00532
1.12843
1.23586
1.30093
1.30927
1.26491
1.18879
1.11118
1.062
1.05727
1.0912
1.15617
1.25509
1.39919
1.59558
1.81531
2.01204
2.13881
2.16318
2.07988
1.91279
1.70363
1.49358
1.30975
1.15301
1.01636
0.89788
0.799917
0.729309
0.702576
0.748698
0.87601
1.0375
1.16988
1.21519
1.1416
0.95605
0.703969
0.454468
0.275231
0.195546
0.18173
0.208402
0.271864
0.367813
0.502947
0.705041
0.98925
1.30798
1.58948
1.76721
1.80811
1.71778
1.52386
1.25628
0.941426
0.610749
0.292435
0
-0.113144
0.369758
1.19107
2.019
2.51786
2.50715
2.03785
1.33326
0.644253
0.131842
-0.0872691
-0.0979934
-0.0585263
-0.00373297
0.0535154
0.0991707
0.122044
0.117473
0.0887777
0.0456329
0
-0.0507113
-0.0903163
-0.122391
-0.150249
-0.174434
-0.266049
0.0983953
1.06241
2.41203
3.66165
4.28949
3.99322
2.83032
1.18231
-0.424678
-1.54627
-1.97508
-1.72931
-1.50439
-1.30383
-1.14468
-1.03954
-0.982667
-0.960606
-0.969999
-1.00533
-1.05948
-1.12426
-1.19082
-1.25061
-1.29602
-1.32046
-1.31899
-1.28904
-1.2277
-1.13113
-1.00199
-0.863595
-0.748853
-0.685716
-0.688461
-0.75191
-0.851508
-0.950836
-1.01463
-1.02167
-0.982124
-0.918402
-0.842707
-0.761986
-0.681318
-0.603634
-0.529719
-0.458792
-0.389423
-0.320514
-0.2521
-0.185973
-0.125329
-0.073468
-0.0321369
0
0.0275581
0.0596294
0.106612
0.195484
0.370758
0.598392
0.807367
0.923463
0.907642
0.776426
0.591464
0.42443
0.320263
0.274315
0.251684
0.242202
0.242886
0.253844
0.277296
0.320573
0.387049
0.46187
0.520937
0.540531
0.508144
0.428745
0.323193
0.219487
0.141227
0.0962799
0.072683
0.0611912
0.0555256
0.0499565
0.0404922
0.0254284
0.00529747
-0.0176167
-0.0399834
-0.0585983
-0.0706062
-0.0739845
-0.0679039
-0.0531757
-0.0318401
-0.00689163
0.0169739
0.0331669
0.0354176
0.0192074
-0.0166592
-0.0690025
-0.130276
-0.189871
-0.236451
-0.260625
-0.260011
-0.233243
-0.181868
-0.109653
-0.0275166
0.0450626
0.0899555
0.0946358
0.0566166
-0.0136917
-0.094405
-0.158788
-0.184644
-0.161877
-0.10794
-0.0377243
0.0416687
0.124255
0.204943
0.279957
0.346787
0.403782
0.44897
0.480748
0.499121
0.505223
0.501832
0.493535
0.486261
0.48618
0.498283
0.52516
0.565693
0.617084
0.674828
0.733568
0.787896
0.831055
0.855701
0.855729
0.826297
0.765315
0.67495
0.562346
0.438938
0.318362
0.213522
0.130213
0.0693981
0.0330906
0.0202637
0.0241886
0.0348537
0.0433376
0.0440361
0.0358227
0.0217796
0.00757675
-0.000928116
0
0.00428314
0.0142021
0.0254559
0.0330536
0.0295662
-0.14868
-0.0316608
0.785531
2.20728
3.70831
4.57597
4.31853
2.97706
1.12463
-0.458273
-1.21408
-1.05205
-0.678033
-0.339087
-0.0416279
0.202797
0.397197
0.547654
0.656825
0.728707
0.768042
0.780033
0.770175
0.744022
0.706868
0.663457
0.617968
0.573634
0.53308
0.498698
0.472412
0.455554
0.449218
0.452071
0.458146
0.459702
0.44982
0.424946
0.386542
0.34114
0.298762
0.270337
0.265191
0.285314
0.329145
0.397254
0.490075
0.607349
0.747964
0.910067
1.09473
1.29955
1.5062
1.69116
1.83348
1.92147
1.95658
1.95262
1.93038
1.91016
1.90503
1.91376
1.93069
1.95033
1.9665
1.97379
1.96833
1.94785
1.91133
1.85857
1.79032
1.70885
1.61683
1.51839
1.41887
1.32396
1.23896
1.1685
1.11129
1.06073
1.00739
0.941893
0.857578
0.75211
0.627649
0.489904
0.346754
0.206673
0.0760193
-0.0377075
-0.128177
-0.190551
-0.22229
-0.22146
-0.184692
-0.124993
-0.0590279
-0.00242271
0.034597
0.0494881
0.0466782
0.034362
0.0204025
0.00918083
0
0.00179367
-0.000415421
-0.0103321
-0.0307991
-0.0629955
-0.105804
-0.155028
-0.204679
-0.24704
-0.273998
-0.269706
-0.216897
-0.12953
-0.0356148
0.0343433
0.0608589
0.0440186
0.00269547
-0.0351124
-0.0460655
-0.0240295
0.0180321
0.0611927
0.085577
0.0795361
0.0453056
-0.00148964
-0.0384113
-0.0459419
-0.0169788
0.0438416
0.117954
0.183512
0.225824
0.244689
0.255392
0.282893
0.351643
0.475278
0.640297
0.837165
1.04134
1.2259
1.36846
1.4556
1.48401
1.45883
1.39079
1.29312
1.18028
1.06349
0.949318
0.840979
0.739162
0.643003
0.551253
0.462681
0.376373
0.292098
0.210415
0.132553
0.0604015
0
-1.90735e-006
0.33937
1.03608
2.01315
3.07849
3.95186
4.35965
4.13466
3.28734
2.02327
0.688857
-0.352744
-0.830923
-0.631058
-0.386538
-0.130811
0.13061
0.391967
0.64823
0.896058
1.1266
1.32755
1.4852
1.58637
1.6247
1.60617
1.55041
1.48599
1.441
1.43356
1.45985
1.50513
1.56018
1.61962
1.6787
1.73385
1.78262
1.82413
1.85886
1.8887
1.91697
1.94836
1.98849
2.04315
2.11726
2.21349
2.33135
2.47055
2.62615
2.7903
2.95425
3.10844
3.24093
3.34146
3.40497
3.4301
3.42062
3.38695
3.34596
3.31815
3.32243
3.37033
3.45503
3.56122
3.67998
3.80003
3.90934
3.99742
4.05639
4.08133
4.0701
4.0228
3.94118
3.82827
3.68825
3.52768
3.35404
3.17494
2.99833
2.83269
2.68632
2.5662
2.47967
2.44058
2.45524
2.50386
2.56049
2.60096
2.61007
2.58495
2.53351
2.46921
2.40529
2.35053
2.30645
2.27358
2.2544
2.25142
2.26713
2.30699
2.37546
2.46818
2.56874
2.65712
2.71502
2.73058
2.70101
2.63226
2.53608
2.42577
2.31212
2.20094
2.09355
1.99006
1.89106
1.79825
1.71447
1.6433
1.58855
1.55335
1.5394
1.5477
1.57883
1.62771
1.6852
1.74293
1.79558
1.84215
1.88544
1.93012
1.97991
2.03593
2.09267
2.1405
2.1694
2.17257
2.14798
2.09736
2.02345
1.92762
1.81225
1.68119
1.53592
1.37945
1.21734
1.05719
0.907428
0.774948
0.664212
0.578602
0.518049
0.477117
0.446935
0.417801
0.381151
0.331123
0.265425
0.185392
0.0953215
0
-0.0649971
0.210821
0.912898
1.90902
2.91803
3.56425
3.54546
2.79155
1.5214
0.164475
-0.81606
-1.0303
-0.881574
-0.753844
-0.654312
-0.587323
-0.544755
-0.509454
-0.462238
-0.389603
-0.28866
-0.167409
-0.0401768
0.0788292
0.180479
0.261966
0.324179
0.368848
0.395842
0.403647
0.391927
0.363994
0.327234
0.291014
0.263315
0.247424
0.239977
0.239394
0.24391
0.252576
0.265772
0.28507
0.312539
0.349504
0.395802
0.451068
0.513287
0.579019
0.644999
0.709124
0.770998
0.83178
0.893361
0.957183
1.02342
1.08958
1.15115
1.20322
1.24224
1.26755
1.2819
1.29079
1.30096
1.3186
1.34654
1.38457
1.4309
1.48221
1.53313
1.5764
1.6032
1.60419
1.57107
1.4976
1.38109
1.22363
1.0328
0.821387
0.605977
0.40462
0.23603
0.130334
0.115154
0.191414
0.324013
0.461001
0.558235
0.587695
0.540463
0.427127
0.275314
0.121954
0
-0.0750545
-0.12245
-0.159806
-0.195792
-0.235808
-0.280633
-0.325745
-0.362004
-0.378262
-0.36473
-0.316092
-0.23335
-0.123775
0.00104876
0.128442
0.24801
0.354373
0.447034
0.529445
0.606642
0.682364
0.756679
0.823256
0.872306
0.895629
0.891158
0.864891
0.829403
0.799627
0.787694
0.796003
0.819568
0.853102
0.886974
0.910234
0.914031
0.894311
0.853643
0.801666
0.753744
0.727833
0.741256
0.852998
1.04082
1.2469
1.404
1.46738
1.43332
1.33241
1.20308
1.06512
0.912597
0.743972
0.557044
0.353934
0.143817
-0.0583521
-0.2359
-0.37467
-0.466248
-0.509361
-0.509346
-0.476172
-0.421755
-0.357456
-0.291726
-0.228964
-0.170029
-0.113922
-0.0589499
0
0.136931
0.535046
1.28123
2.34521
3.44304
4.11187
3.96273
2.94574
1.42847
0.0081583
-0.826071
-0.914855
-0.630358
-0.360919
-0.120324
0.0687495
0.193354
0.242609
0.209098
0.0958264
-0.0752834
-0.261711
-0.410988
-0.480653
-0.463712
-0.370549
-0.2517
-0.166889
-0.161546
-0.250386
-0.413097
-0.602329
-0.760556
-0.839761
-0.810144
-0.641325
-0.406392
-0.201981
-0.110118
-0.170406
-0.368284
-0.639518
-0.888998
-1.02164
-1.0065
-0.905477
-0.764263
-0.602225
-0.429191
-0.254325
-0.0846722
0.0760247
0.227479
0.372199
0.514147
0.657078
0.803067
0.951659
1.09772
1.23323
1.34939
1.43878
1.49671
1.52158
1.51421
1.47693
1.41341
1.32983
1.23009
1.11856
1.0006
0.882421
0.770478
0.67007
0.585391
0.520742
0.479427
0.457449
0.442439
0.419751
0.376603
0.305949
0.208791
0.0940568
-0.0239144
-0.12939
-0.211325
-0.268134
-0.298389
-0.302283
-0.28188
-0.240207
-0.180623
-0.105976
-0.0173899
0.0788137
0.169062
0.237166
0.268233
0.253585
0.1945
0.103097
0
-0.071801
-0.104497
-0.00506673
0.277728
0.641965
0.937432
1.02664
0.849537
0.461218
0.0173053
-0.291524
-0.331002
-0.19441
0.0501639
0.292591
0.429601
0.412516
0.266378
0.069488
-0.0937028
-0.176691
-0.204734
-0.214648
-0.217888
-0.218353
-0.216973
-0.211439
-0.196732
-0.166301
-0.11383
-0.0345306
0.0769243
0.229592
0.414409
0.605134
0.772772
0.893208
0.952433
0.947718
0.885179
0.775882
0.632971
0.473043
0.311409
0.159365
0.0278139
-0.072489
-0.132825
-0.141815
-0.0780062
0.0564457
0.229618
0.403961
0.546013
0.632688
0.652964
0.606421
0.500992
0.351225
0.176902
0
-0.174184
-0.281067
0.0791819
0.918984
1.88867
2.67061
3.01214
2.82721
2.22714
1.45762
0.77672
0.361738
0.203184
0.0848572
-0.0301619
-0.145133
-0.259249
-0.368191
-0.464034
-0.536888
-0.577233
-0.578767
-0.540707
-0.468868
-0.375127
-0.274917
-0.186346
-0.124791
-0.0997536
-0.113133
-0.159296
-0.226747
-0.300808
-0.366488
-0.4127
-0.435285
-0.432734
-0.401525
-0.330514
-0.195763
0.0264646
0.299471
0.550434
0.704697
0.708997
0.554479
0.287984
0
-0.213363
-0.292316
-0.284248
-0.242223
-0.184721
-0.116113
-0.0376364
0.0526855
0.161442
0.314937
0.551879
0.833755
1.08655
1.23329
1.23001
1.0862
0.859947
0.630038
0.459518
0.367835
0.312838
0.271397
0.235855
0.200336
0.160162
0.111398
0.0500988
-0.0275628
-0.124846
-0.243225
-0.381041
-0.532701
-0.688952
-0.838299
-0.969196
-1.0746
-1.15022
-1.19468
-1.21023
-1.20212
-1.17647
-1.14148
-1.10668
-1.0803
-1.0681
-1.0725
-1.09226
-1.1228
-1.1572
-1.18779
-1.20788
-1.21425
-1.20725
-1.18899
-1.16255
-1.13192
-1.10116
-1.07373
-1.05216
-1.03795
-1.03182
-1.03381
-1.04324
-1.05884
-1.07874
-1.10049
-1.12137
-1.13886
-1.15075
-1.15615
-1.15658
-1.1548
-1.15353
-1.15395
-1.15471
-1.15183
-1.13965
-1.11262
-1.066
-0.99421
-0.905288
-0.815844
-0.744438
-0.705766
-0.706472
-0.743802
-0.806918
-0.87971
-0.943879
-0.98611
-1.0007
-0.980934
-0.900497
-0.74463
-0.548477
-0.360647
-0.226741
-0.174821
-0.20902
-0.312404
-0.455442
-0.605089
-0.732277
-0.826209
-0.887185
-0.917152
-0.917804
-0.890613
-0.836575
-0.757929
-0.658327
-0.542812
-0.416845
-0.287545
-0.162135
-0.0472286
0.0517734
0.131066
0.187979
0.22201
0.234052
0.226112
0.201083
0.162571
0.114749
0.0621815
0.00964117
-0.0382326
-0.0774051
-0.10416
-0.115125
-0.107529
-0.0781151
-0.0200685
0.0754713
0.197744
0.315311
0.392391
0.4014
0.3346
0.208663
0.0588722
-0.0747536
-0.162416
-0.199666
0
0.56008
1.28651
2.20549
3.25078
4.18364
4.66329
4.42961
3.47747
2.09351
0.726399
-0.228502
-0.59293
-0.466252
-0.353507
-0.243445
-0.135029
-0.0249366
0.0919062
0.222309
0.38481
0.607712
0.877069
1.13773
1.32638
1.39767
1.34156
1.18565
0.983657
0.796989
0.678124
0.633752
0.642471
0.689941
0.770035
0.879044
1.01266
1.1673
1.33316
1.494
1.63409
1.74124
1.80936
1.83946
1.83907
1.82034
1.79746
1.78397
1.78797
1.81369
1.86452
1.95032
2.09167
2.28553
2.48966
2.65403
2.73956
2.73455
2.66012
2.56063
2.48333
2.45777
2.47293
2.50445
2.54078
2.57166
2.5888
2.58701
2.56447
2.52225
2.46355
2.39297
2.31576
2.23604
2.15654
2.07879
2.00261
1.92581
1.84462
1.75444
1.65076
1.5301
1.39067
1.23269
1.0584
0.871145
0.675456
0.480102
0.297668
0.141561
0.0240277
-0.0449409
-0.0588927
-0.0161673
0.0789501
0.215488
0.376088
0.538956
0.682346
0.791905
0.860067
0.8839
0.866885
0.81718
0.745123
0.660947
0.573749
0.489141
0.410743
0.341624
0.28409
0.239437
0.208492
0.1906
0.182142
0.17758
0.170815
0.156358
0.130325
0.0909811
0.0387229
-0.0243854
-0.0953067
-0.170519
-0.246888
-0.321844
-0.393055
-0.458274
-0.515197
-0.561206
-0.59298
-0.607618
-0.603227
-0.579251
-0.537078
-0.480378
-0.414964
-0.348139
-0.287653
-0.24057
-0.211914
-0.205059
-0.221391
-0.26054
-0.320617
-0.397597
-0.487528
-0.584952
-0.678245
-0.753105
-0.796597
-0.801022
37
114
210
289
374
420
494
540
594
625
704
798
861
950
1038
1146
1259
1292
1328
1453
1643
1695
1733
1814
1888
1992
2072
2160
2321
2444
2550
2576
2635
2754
2868
2923
3082
3185
3246
3350
3411
3466
3604
0
0
0
0
0
0
0
0
0
0
0
0
0
0
0
0
0
0
0
0
0
0
0
0
0
0
0
0
0
0
0
0
0
0
0
0
0
0
0
0
0
0
0
0
0
0
0
0
0
0
0
0
0
0
0
0
0
0
0
0
0
0
0
0
0
0
0
0
0
0
0
0
0
0
0
0
0
0
0
0
0
0
0
0
0
0
0
0
0
0
0
0
0
0
0
0
0
0
0
0
0
0
0
0
0
0
0
0
0
0
0
0
0
0
0
0
0
0
0
0
0
0
0
0
0
0
0
0
0
0
0
0
0
0
0
0
0
0
0
0
0
0
0
0
0
0
0
0
0
0
0
0
0
0
0
0
0
0
0
0
0
0
0
0
0
0
0
0
0
0
0
0
0
0
0
0
0
0
0
0
0
0
0
0
0
0
0
0
0
0
0
0
0
0
0
0
0
0
0
0
0
0
0
0
0
0
0
0
0
0
0
0
0
0
0
0
0
0
0
0
0
0
0
0
0
0
0
0
0
0
0
0
0
0
0
0
0
0
0
0
0
0
0
0
0
0
0
0
0
0
0
0
0
0
0
0
0
0
0
0
0
0
0
0
0
0
0
0
0
0
0
0
0
0
0
0
0
0
0
0
0
0
0
0
0
0
0
0
0
0
0
0
0
0
0
0
0
0
0
0
0
0
0
0
0
0
0
0
0
0
0
0
0
0
0
0
0
0
0
0
0
0
0
0
0
0
0
0
0
0
0
0
0
0
0
0
0
0
0
0
0
0
0
0
0
0
0
0
0
0
0
0
0
0
0
0
0
0
0
0
0
0
0
0
0
0
0
0
0
0
0
0
0
0
0
0
0
0
0
0
0
0
0
0
0
0
0
0
0
0
0
0
0
0
0
0
0
0
0
0
0
0
0
0
0
0
0
0
0
0
0
0
0
0
0
0
0
0
0
0
0
0
0
0
0
0
0
0
0
0
0
0
0
0
0
0
0
0
0
0
0
0
0
0
0
0
0
0
0
0
0
0
0
0
0
0
0
0
0
0
0
0
0
0
0
0
0
0
0
0
0
0
0
0
0
0
0
0
0
0
0
0
0
0
0
0
0
0
0
0
0
0
0
0
0
0
0
0
0
0
0
0
0
0
0
0
0
0
0
0
0
0
0
0
0
0
0
0
0
0
0
0
0
0
0
0
0
0
0
0
0
0
0
0
0
0
0
0
0
0
0
0
0
0
0
0
0
0
0
0
0
0
0
0
0
0
0
0
0
0
0
0
0
0
0
0
0
0
0
0
0
0
0
0
0
0
0
0
0
0
0
0
0
0
0
0
0
0
0
0
0
0
0
0
0
0
0
0
0
0
0
0
0
0
0
0
0
0
0
0
0
0
0
0
0
0
0
0
0
0
0
0
0
0
0
0
0
0
0
0
0
0
0
0
0
0
0
0
0
0
0
0
0
0
0
0
0
0
0
0
0
0
0
0
0
0
0
0
0
0
0
0
0
0
0
0
0
0
0
0
0
0
0
0
0
0
0
0
0
0
0
0
0
0
0
0
0
0
0
0
0
0
0
0
0
0
0
0
0
0
0
0
0
0
0
0
0
0
0
0
0
0
0
0
0
0
0
0
0
0
0
0
0
0
0
0
0
0
0
0
0
0
0
0
0
0
0
0
0
0
0
0
0
0
0
0
0
0
0
0
0
0
0
0
0
0
0
0
0
0
0
0
0
0
0
0
0
0
0
0
0
0
0
0
0
0
0
0
0
0
0
0
0
0
0
0
0
0
0
0
0
0
0
0
0
0
0
0
0
0
0
0
0
0
0
0
0
0
0
0
0
0
0
0
0
0
0
0
0
0
0
0
0
0
0
0
0
0
0
0
0
0
0
0
0
0
0
0
0
0
0
0
0
0
0
0
0
0
0
0
0
0
0
0
0
0
0
0
0
0
0
0
0
0
0
0
0
0
0
0
0
0
0
0
0
0
0
0
0
0
0
0
0
0
0
0
0
0
0
0
0
0
0
0
0
0
0
0
0
0
0
0
0
0
0
0
0
0
0
0
0
0
0
0
0
0
0
0
0
0
0
0
0
0
0
0
0
0
0
0
0
0
0
0
0
0
0
0
0
0
0
0
0
0
0
0
0
0
0
0
0
0
0
0
0
0
0
0
0
0
0
0
0
0
0
0
0
0
0
0
0
0
0
0
0
0
0
0
0
0
0
0
0
0
0
0
0
0
0
0
0
0
0
0
0
0
0
0
0
0
0
0
0
0
0
0
0
0
0
0
0
0
0
0
0
0
0
0
0
0
0
0
0
0
0
0
0
0
0
0
0
0
0
0
0
0
0
0
0
0
0
0
0
0
0
0
0
0
0
0
0
0
0
0
0
0
0
0
0
0
0
0
0
0
0
0
0
0
0
0
0
0
0
0
0
0
0
0
0
0
0
0
0
0
0
0
0
0
0
0
0
0
0
0
0
0
0
0
0
0
0
0
0
0
0
0
0
0
0
0
0
0
0
0
0
0
0
0
0
0
0
0
0
0
0
0
0
0
0
0
0
0
0
0
0
0
0
0
0
0
0
0
0
0
0
0
0
0
0
0
0
0
0
0
0
0
0
0
0
0
0
0
0
0
0
0
0
0
0
0
0
0
0
0
0
0
0
0
0
0
0
0
0
0
0
0
0
0
0
0
0
0
0
0
0
0
0
0
0
0
0
0
0
0
0
0
0
0
0
0
0
0
0
0
0
0
0
0
0
0
0
0
0
0
0
0
0
0
0
0
0
0
0
0
0
0
0
0
0
0
0
0
0
0
0
0
0
0
0
0
0
0
0
0
0
0
0
0
0
0
0
0
0
0
0
0
0
0
0
0
0
0
0
0
0
0
0
0
0
0
0
0
0
0
0
0
0
0
0
0
0
0
0
0
0
0
0
0
0
0
0
0
0
0
0
0
0
0
0
0
0
0
0
0
0
0
0
0
0
0
0
0
0
0
0
0
0
0
0
0
0
0
0
0
0
0
0
0
0
0
0
0
0
0
0
0
0
0
0
0
0
0
0
0
0
0
0
0
0
0
0
0
0
0
0
0
0
0
0
0
0
0
0
0
0
0
0
0
0
0
0
0
0
0
0
0
0
0
0
0
0
0
0
0
0
0
0
0
0
0
0
0
0
0
0
0
0
0
0
0
0
0
0
0
0
0
0
0
0
0
0
0
0
0
0
0
0
0
0
0
0
0
0
0
0
0
0
0
0
0
0
0
0
0
0
0
0
0
0
0
0
0
0
0
0
0
0
0
0
0
0
0
0
0
0
0
0
0
0
0
0
0
0
0
0
0
0
0
0
0
0
0
0
0
0
0
0
0
0
0
0
0
0
0
0
0
0
0
0
0
0
0
0
0
0
0
0
0
0
0
0
0
0
0
0
0
0
0
0
0
0
0
0
0
0
0
0
0
0
0
0
0
0
0
0
0
0
0
0
0
0
0
0
0
0
0
0
0
0
0
0
0
0
0
0
0
0
0
0
0
0
0
0
0
0
0
0
0
0
0
0
0
0
0
0
0
0
0
0
0
0
0
0
0
0
0
0
0
0
0
0
0
0
0
0
0
0
0
0
0
0
0
0
0
0
0
0
0
0
0
0
0
0
0
0
0
0
0
0
0
0
0
0
0
0
0
0
0
0
0
0
0
0
0
0
0
0
0
0
0
0
0
0
0
0
0
0
0
0
0
0
0
0
0
0
0
0
0
0
0
0
0
0
0
0
0
0
0
0
0
0
0
0
0
0
0
0
0
0
0
0
0
0
0
0
0
0
0
0
0
0
0
0
0
0
0
0
0
0
0
0
0
0
0
0
0
0
0
0
0
0
0
0
0
0
0
0
0
0
0
0
0
0
0
0
0
0
0
0
0
0
0
0
0
0
0
0
0
0
0
0
0
0
0
0
0
0
0
0
0
0
0
0
0
0
0
0
0
0
0
0
0
0
0
0
0
0
0
0
0
0
0
0
0
0
0
0
0
0
0
0
0
0
0
0
0
0
0
0
0
0
0
0
0
0
0
0
0
0
0
0
0
0
0
0
0
0
0
0
0
0
0
0
0
0
0
0
0
0
0
0
0
0
0
0
0
0
0
0
0
0
0
0
0
0
0
0
0
0
0
0
0
0
0
0
0
0
0
0
0
0
0
0
0
0
0
0
0
0
0
0
0
0
0
0
0
0
0
0
0
0
0
0
0
0
0
0
0
0
0
0
0
0
0
0
0
0
0
0
0
0
0
0
0
0
0
0
0
0
0
0
0
0
0
0
0
0
0
0
0
0
0
0
0
0
0
0
0
0
0
0
0
0
0
0
0
0
0
0
0
0
0
0
0
0
0
0
0
0
0
0
0
0
0
0
0
0
0
0
0
0
0
0
0
0
0
0
0
0
0
0
0
0
0
0
0
0
0
0
0
0
0
0
0
0
0
0
0
0
0
0
0
0
0
0
0
0
0
0
0
0
0
0
0
0
0
0
0
0
0
0
0
0
0
0
0
0
0
0
0
0
0
0
0
0
0
0
0
0
0
0
0
0
0
0
0
0
0
0
0
0
0
0
0
0
0
0
0
0
0
0
0
0
0
0
0
0
0
0
0
0
0
0
0
0
0
0
0
0
0
0
0
0
0
0
0
0
0
0
0
0
0
0
0
0
0
0
0
0
0
0
0
0
0
0
0
0
0
0
0
0
0
0
0
0
0
0
0
0
0
0
0
0
0
0
0
0
0
0
0
0
0
0
0
0
0
0
0
0
0
0
0
0
0
0
0
0
0
0
0
0
0
0
0
0
0
0
0
0
0
0
0
0
0
0
0
0
0
0
0
0
0
0
0
0
0
0
0
0
0
0
0
0
0
0
0
0
0
0
0
0
0
0
0
0
0
0
0
0
0
0
0
0
0
0
0
0
0
0
0
0
0
0
0
0
0
0
0
0
0
0
0
0
0
0
0
0
0
0
0
0
0
0
0
0
0
0
0
0
0
0
0
0
0
0
0
0
0
0
0
0
0
0
0
0
0
0
0
0
0
0
0
0
0
0
0
0
0
0
0
0
0
0
0
0
0
0
0
0
0
0
0
0
0
0
0
0
0
0
0
0
0
0
0
0
0
0
0
0
0
0
0
0
0
0
0
0
0
0
0
0
0
0
0
0
0
0
0
0
0
0
0
0
0
0
0
0
0
0
0
0
0
0
0
0
0
0
0
0
0
0
0
0
0
0
0
0
0
0
0
0
0
0
0
0
0
0
0
0
0
0
0
0
0
0
0
0
0
0
0
0
0
0
0
0
0
0
0
0
0
0
0
0
0
0
0
0
0
0
0
0
0
0
0
0
0
0
0
0
0
0
0
0
0
0
0
0
0
0
0
0
0
0
0
0
0
0
0
0
0
0
0
0
0
0
0
0
0
0
0
0
0
0
0
0
0
0
0
0
0
0
0
0
0
0
0
0
0
0
0
0
0
0
0
0
0
0
0
0
0
0
0
0
0
0
0
0
0
0
0
0
0
0
0
0
0
0
0
0
0
0
0
0
0
0
0
0
0
0
0
0
0
0
0
0
0
0
0
0
0
0
0
0
0
0
0
0
0
0
0
0
0
0
0
0
0
0
0
0
0
0
0
0
0
0
0
0
0
0
0
0
0
0
0
0
0
0
0
0
0
0
0
0
0
0
0
0
0
0
0
0
0
0
0
0
0
0
0
0
0
0
0
0
0
0
0
0
0
0
0
0
0
0
0
0
0
0
0
0
0
0
0
0
0
0
0
0
0
0
0
0
0
0
0
0
0
0
0
0
0
0
0
0
0
0
0
0
0
0
0
0
0
0
0
0
0
0
0
0
0
0
0
0
0
0
0
0
0
0
0
0
0
0
0
0
0
0
0
0
0
0
0
0
0
0
0
0
0
0
0
0
0
0
0
0
0
0
0
0
0
0
0
0
0
0
0
0
0
0
0
0
0
0
0
0
0
0
0
0
0
0
0
0
0
0
0
0
0
0
0
0
0
0
0
0
0
0
0
0
0
0
0
0
0
0
0
0
0
0
0
0
0
0
0
0
0
0
0
0
0
0
0
0
0
0
0
0
0
0
0
0
0
0
0
0
0
0
0
0
0
0
0
0
0
0
0
0
0
0
0
0
0
0
0
0
0
0
0
0
0
0
0
0
0
0
0
0
0
0
0
0
0
0
0
0
0
0
0
0
0
0
0
0
0
0
0
0
0
0
0
0
0
0
0
0
0
0
0
0
0
0
0
0
0
0
0
0
0
0
0
0
0
0
0
0
0
0
0
0
0
0
0
0
0
0
0
0
0
0
0
0
0
0
0
0
0
0
0
0
0
0
0
0
0
0
0
0
0
0
0
0
0
0
0
0
0
0
0
0
0
0
0
0
0
0
0
0
0
0
0
0
0
0
0
0
0
0
0
0
0
0
0
0
0
0
0
0
0
0
0
0
0
0
0
0
0
0
0
0
0
0
0
0
0
0
0
0
0
0
0
0
0
0
0
0
0
0
0
0
0
0
0
0
0
0
0
0
0
0
0
0
0
0
0
0
0
0
0
0
0
0
0
0
0
0
0
0
0
0
0
0
0
0
0
0
0
0
0
0
0
0
0
0
0
0
0
0
0
0
0
0
0
0
0
0
0
0
0
0
0
0
0
0
0
0
0
0
0
0
0
0
0
0
0
0
0
0
0
0
0
0
0
0
0
0
0
0
0
0
0
0
0
0
0
0
0
0
0
0
0
0
0
0
0
0
0
0
0
0
0
0
0
0
0
0
0
0
0
0
0
0
0
0
0
0
0
0
0
0
0
0
0
0
0
0
0
0
0
0
0
0
0
0
0
0
0
0
0
0
0
0
0
0
0
0
0
0
0
0
0
0
0
0
0
0
0
0
0
0
0
0
0
0
0
0
0
0
0
0
0
0
0
0
0
0
0
0
0
0
0
0
0
0
0
0
0
0
0
0
0
0
0
0
0
0
0
0
0
0
0
0
0
0
0
0
0
0
0
0
0
0
0
0
0
0
0
0
0
0
0
0
0
0
0
0
0
0
0
0
0
0
0
0
0
0
0
0
0
0
0
0
0
0
0
0
0
0
0
0
0
0
0
0
0
0
0
0
0
0
0
0
0
0
0
0
0
0
0
0
0
0
0
0
0
0
0
0
0
0
0
0
0
0
0
0
0
0
0
0
0
0
0
0
0
0
0
0
0
0
0
0
0
0
0
0
0
0
0
0
0
0
0
0
0
0
0
0
0
0
0
0
0
0
0
0
0
0
0
0
0
0
0
0
0
0
0
0
0
0
0
0
0
0
0
0
0
0
0
0
0
0
0
0
0
0
0
0
0
0
0
0
0
0
0
0
0
0
0
0
0
0
0
0
0
0
0
0
0
0
0
0
0
0
0
0
0
0
0
0
0
0
0
0
0
0
0
0
0
0
0
0
0
0
0
0
0
0
0
0
0
0
0
0
0
0
0
0
0
0
0
0
0
0
0
0
0
0
0
0
0
0
0
0
0
0
0
0
0
0
0
0
0
0
0
0
0
0
0
0
0
0
0
0
0
0
0
0
0
0
0
0
0
0
0
0
0
0
0
0
0
0
0
0
0
0
0
0
0
0
0
0
0
0
0
0
0
0
0
0
0
0
0
0
0
0
0
0
0
0
0
0
0
0
0
0
0
0
0
0
0
0
0
0
0
0
0
0
0
0
0
0
0
0
0
0
0
0
0
0
0
0
0
0
0
0
0
0
0
0
0
0
0
0
0
0
0
0
0
0
0
0
0
0
0
0
0
0
0
0
0
0
0
0
0
0
0
0
0
0
0
0
0
0
0
0
0
0
0
0
0
0
0
0
0
0
0
0
0
0
0
0
0
0
0
0
0
0
0
0
0
0
0
0
0
0
0
0
0
0
0
0
0
0
0
0
0
0
0
0
0
0
0
0
0
0
0
0
0
0
0
0
0
0
0
0
0
0
0
0
0
0
0
0
0
0
0
0
0
0
0
0
0
0
0
0
0
0
0
0
0
0
0
0
0
0
0
0
0
0
0
0
0
0
0
0
0
0
0
0
0
0
0
0
0
0
0
0
0
0
0
0
0
0
0
0
0
0
0
0
0
0
0
0
0
0
0
0
0
0
0
0
0
0
0
0
0
0
0
0
0
0
0
0
0
0
0
0
0
0
0
0
0
0
0
0
0
0
0
0
0
0
0
0
0
0
0
0
0
0
0
0
0
0
0
0
0
0
0
0
0
0
0
0
0
0
0
0
0
0
0
0
0
0
0
0
0
0
0
0
0
0
0
0
0
0
0
0
0
0
0
0
0
0
0
0
0
0
0
0
0
