-0.53068
-0.536931
-0.553224
-0.58063
-0.619306
-0.668378
-0.725874
-0.788312
-0.851716
-0.911967
-0.964281
-0.99919
-0.991929
-0.904731
-0.747882
-0.575585
-0.443415
-0.388457
-0.42224
-0.533561
-0.693624
-0.859352
-0.980144
-1.03435
-1.04366
-1.03144
-1.00841
-0.980638
-0.95243
-0.925575
-0.899586
-0.872871
-0.843937
-0.815142
-0.792474
-0.782913
-0.790613
-0.814053
-0.845733
-0.874661
-0.890435
-0.887681
-0.871001
-0.845781
-0.81557
-0.783692
-0.753095
-0.725929
-0.703411
-0.685939
-0.673377
-0.665426
-0.661899
-0.662537
-0.667058
-0.67492
-0.685092
-0.695992
-0.705517
-0.711467
-0.712027
-0.706192
-0.693996
-0.676435
-0.655137
-0.631879
-0.608157
-0.584878
-0.56245
-0.541008
-0.520839
-0.502727
-0.488072
-0.47865
-0.476022
-0.480707
-0.491488
-0.505161
-0.516892
-0.521189
-0.513231
-0.490914
-0.454741
-0.4068
-0.351345
-0.293659
-0.23894
-0.191334
-0.153344
-0.125681
-0.107467
-0.0966034
-0.0900063
-0.0844517
-0.0767431
-0.0639172
-0.0411989
-0.00415344
0.0396101
0.0754538
0.0874552
0.0657284
0.0122866
-0.0578674
-0.121644
-0.15697
-0.151901
-0.121518
-0.0770968
-0.0263653
0.023111
0.0656324
0.0983444
0.121308
0.136792
0.148134
0.158628
0.170454
0.184679
0.201848
0.222135
0.245761
0.273442
0.306682
0.34784
0.399948
0.466269
0.549679
0.653127
0.790929
0.974589
1.17386
1.34954
1.46732
1.50987
1.48181
1.40559
1.31049
1.22013
1.14382
1.07368
1.00396
0.931504
0.85402
0.770426
0.68118
0.588258
0.494829
0.404693
0.321653
0.248955
0.188762
0.141836
0.107506
0.0839003
0.0681212
0.0558628
0.0419973
0.0220842
-0.00679874
-0.0454622
-0.0924337
-0.144307
-0.27209
0
0.974823
2.83834
5.48923
8.45607
10.9758
12.2642
11.8701
9.91463
7.0544
4.17446
1.99173
0.797652
0.456389
0.601457
0.66719
0.671881
0.655142
0.619036
0.570592
0.519877
0.477165
0.449695
0.436805
0.437247
0.449792
0.472318
0.50249
0.537968
0.577142
0.619181
0.663696
0.710569
0.759812
0.811469
0.865549
0.921986
0.980611
1.04113
1.10314
1.16619
1.2299
1.29419
1.35949
1.42692
1.49839
1.57637
1.66365
1.76285
1.87591
2.00378
2.14605
2.3014
2.46782
2.64315
2.82557
3.0141
3.20887
3.41111
3.62293
3.84681
4.08501
4.34622
4.65421
5.01654
5.37881
5.67797
5.879
5.97768
5.98829
5.92781
5.80485
5.6179
5.36327
5.05572
4.73036
4.41691
4.12654
3.85757
3.60671
3.37491
3.16289
2.97078
2.79837
2.64518
2.51058
2.3937
2.29274
2.2049
2.12684
2.0551
1.98664
1.91934
1.85239
1.78653
1.72429
1.66927
1.62513
1.59472
1.57926
1.57812
1.58901
1.60862
1.63339
1.6603
1.68739
1.71397
1.74014
1.76653
1.79403
1.82364
1.85624
1.89245
1.93249
1.97616
2.0227
2.06973
2.11272
2.14637
2.16592
2.16852
2.15413
2.12566
2.08815
2.04726
2.00791
1.97268
1.9419
1.91528
1.89243
1.87248
1.85407
1.83522
1.81317
1.7849
1.74773
1.70002
1.64181
1.57513
1.50379
1.43273
1.36695
1.30987
1.26318
1.2276
1.20232
1.18551
1.17494
1.16857
1.16491
1.16314
1.16306
1.16477
1.16839
1.1739
1.18105
1.18945
1.1987
1.20855
1.21907
1.2307
1.24406
1.25975
1.2781
1.29887
1.31952
1.33454
1.33759
1.32395
1.29292
1.24895
1.20081
1.15883
1.13133
1.12096
1.12373
1.13495
1.14869
1.15963
1.16501
1.16352
1.15523
1.14091
1.12155
1.09805
1.07083
1.04021
1.00693
0.972245
0.938575
0.908967
0.88639
0.873012
0.869674
0.875765
0.889517
0.908589
0.930704
0.954005
0.977356
1.00002
1.02131
1.04039
1.05617
1.06732
1.07249
1.07056
1.06086
1.04332
1.01855
0.987711
0.952566
0.915244
0.878151
0.844025
0.815747
0.79575
0.785764
0.786544
0.797794
0.818407
0.846982
0.882519
0.925018
0.975219
1.03479
1.10623
1.19181
1.29746
1.43571
1.60297
1.76903
1.89955
1.96832
1.96623
1.90303
1.80094
1.68301
1.56284
1.44202
1.31919
1.19446
1.06864
0.943564
0.822081
0.707564
0.603361
0.512117
0.435089
0.372263
0.322612
0.284499
0.25604
0.23528
0.220144
0.208405
0.196983
0.181448
0.156972
0.119245
0.06559
-0.00408154
-0.0868694
-0.179191
0
0.884499
2.6833
5.33637
8.42228
11.2099
12.8933
12.9355
11.3418
8.68322
5.82708
3.52347
2.09725
1.41866
1.12597
0.932366
0.816659
0.706421
0.603415
0.50867
0.422452
0.344391
0.273758
0.209772
0.151847
0.0997352
0.053547
0.01367
-0.0191589
-0.0438098
-0.0588409
-0.0629301
-0.0549394
-0.0341823
-0.000777245
0.0440779
0.0981126
0.158592
0.22142
0.282922
0.340751
0.39452
0.445959
0.498539
0.556699
0.624901
0.706763
0.803213
0.913956
1.03828
1.17455
1.32028
1.47234
1.62728
1.78176
1.93292
2.07877
2.21839
2.35196
2.48056
2.60582
2.72949
2.8531
2.97783
3.10437
3.23269
3.36025
3.47878
3.5749
3.6311
3.63065
3.56421
3.43397
3.25161
3.03146
2.78435
2.52154
2.25387
1.98714
1.72573
1.47446
1.23812
1.0209
0.825947
0.655084
0.508816
0.386493
0.286586
0.206958
0.14539
0.100256
0.0694132
0.0485157
0.0331296
0.0194147
0.00468988
-0.0122392
-0.0311616
-0.0509531
-0.0702905
-0.0883064
-0.105077
-0.121127
-0.137198
-0.153868
-0.171174
-0.188395
-0.204052
-0.216137
-0.222708
-0.222209
-0.213689
-0.196673
-0.171814
-0.142061
-0.112002
-0.086408
-0.0691773
-0.0624885
-0.0663778
-0.0788434
-0.096417
-0.115015
-0.13087
-0.14154
-0.14597
-0.143927
-0.135539
-0.121068
-0.100824
-0.0750728
-0.0440637
-0.00813088
0.0323811
0.0764993
0.121606
0.163755
0.198612
0.222329
0.232375
0.228093
0.210844
0.183731
0.15104
0.117555
0.0874032
0.0634918
0.0476913
0.0408975
0.0431745
0.0539742
0.0720058
0.0954839
0.122025
0.14865
0.171891
0.187987
0.193644
0.186413
0.165206
0.130728
0.0856398
0.0343228
-0.0178052
-0.065297
-0.10376
-0.131557
-0.148644
-0.156338
-0.157088
-0.153736
-0.148773
-0.143782
-0.139213
-0.134453
-0.12816
-0.118706
-0.104669
-0.0851583
-0.0599331
-0.0293562
0.00576673
0.0441247
0.0835015
0.120526
0.151569
0.173497
0.184419
0.184306
0.17521
0.16093
0.146149
0.135258
0.13094
0.133188
0.140938
0.151766
0.162298
0.168887
0.168229
0.157831
0.136289
0.103389
0.0601143
0.00859027
-0.0477793
-0.105303
-0.159678
-0.206633
-0.242493
-0.264691
-0.272137
-0.26532
-0.24617
-0.217701
-0.183592
-0.147667
-0.113521
-0.0845429
-0.0631226
-0.0503296
-0.0458059
-0.0477536
-0.053168
-0.058351
-0.0596385
-0.0541548
-0.0403579
-0.0189082
0.00861096
0.0410281
0.0773584
0.117159
0.160835
0.209597
0.26523
0.329645
0.404361
0.491246
0.594153
0.710681
0.828378
0.932467
1.00997
1.05294
1.05949
1.03237
0.976399
0.896208
0.797105
0.685799
0.567009
0.444402
0.321673
0.202642
0.0905488
-0.0121349
-0.103531
-0.182867
-0.250535
-0.307963
-0.357372
-0.401387
-0.442553
-0.482859
-0.523511
-0.564272
-0.602736
-0.634916
-0.656358
-0.663376
-0.65405
-0.62874
-0.519672
0
1.03701
2.82586
5.42715
8.54458
11.491
13.3993
13.6147
12.0446
9.23017
6.07996
3.42868
1.69686
0.829313
0.486942
0.320463
0.228175
0.139717
0.0579887
-0.014887
-0.0781856
-0.131969
-0.1765
-0.210738
-0.233166
-0.241764
-0.234323
-0.209485
-0.167707
-0.111742
-0.046436
0.0221221
0.0878173
0.146542
0.195683
0.234412
0.2637
0.285898
0.304137
0.321716
0.341547
0.365832
0.396124
0.433561
0.479204
0.53424
0.600097
0.678418
0.770854
0.87873
1.00268
1.14235
1.29625
1.46201
1.63667
1.81714
2.00069
2.18525
2.36955
2.55292
2.73487
2.9142
3.08728
3.24825
3.38977
3.50454
3.58729
3.63596
3.65125
3.63508
3.58877
3.51186
3.40785
3.2792
3.12418
2.94203
2.73341
2.50076
2.24974
1.98692
1.71872
1.45238
1.19535
0.954619
0.736027
0.543748
0.379973
0.244908
0.13704
0.0535743
-0.00898228
-0.0543274
-0.0861864
-0.10802
-0.122682
-0.132323
-0.138419
-0.141922
-0.143526
-0.143987
-0.144479
-0.147054
-0.154451
-0.169664
-0.195226
-0.232417
-0.282468
-0.343624
-0.408327
-0.467378
-0.51209
-0.536091
-0.536272
-0.512793
-0.468478
-0.408051
-0.337636
-0.264246
-0.193372
-0.129693
-0.0769312
-0.0373246
-0.0113132
0.00246077
0.00680103
0.00533047
0.0017416
-0.000948238
-0.00105095
0.00192146
0.00761318
0.015019
0.0224979
0.0282839
0.0310791
0.0305088
0.0273777
0.0236456
0.0220892
0.0257103
0.0370367
0.0571865
0.0860804
0.122234
0.16308
0.204986
0.243933
0.276263
0.299152
0.310878
0.310874
0.29962
0.278451
0.249352
0.214912
0.177908
0.140928
0.106371
0.0763502
0.0525177
0.0359615
0.027174
0.0260925
0.0321768
0.0444796
0.0617453
0.0825891
0.104916
0.126283
0.144324
0.157101
0.163467
0.163296
0.157553
0.148186
0.137854
0.129449
0.125462
0.127969
0.138152
0.156954
0.183791
0.215017
0.246058
0.272601
0.291681
0.302277
0.305178
0.302229
0.295285
0.285381
0.272727
0.256644
0.23617
0.210709
0.180448
0.146532
0.111011
0.0765799
0.04611
0.0226336
0.00930843
0.0082756
0.0207146
0.0465481
0.0847235
0.133257
0.186909
0.23963
0.285611
0.320257
0.340804
0.346507
0.338457
0.319213
0.292667
0.263089
0.233959
0.20827
0.188232
0.175015
0.16832
0.167649
0.172278
0.1816
0.195445
0.214213
0.238801
0.270354
0.309831
0.357635
0.413599
0.476878
0.545924
0.61865
0.69268
0.765636
0.835386
0.900238
0.958998
1.01092
1.05542
1.09172
1.11888
1.13602
1.14194
1.13524
1.11446
1.07829
1.0257
0.95615
0.869699
0.767666
0.652755
0.528036
0.397247
0.264944
0.136151
0.0158915
-0.0913485
-0.182103
-0.254291
-0.307468
-0.342545
-0.360805
-0.364925
-0.361563
-0.35878
-0.363724
-0.381206
-0.412649
-0.45575
-0.505051
-0.486303
0
1.17265
3.16459
5.87807
8.89674
11.5334
13.052
12.9795
11.3378
8.64919
5.69905
3.19339
1.50406
0.620564
0.289008
0.212683
0.15986
0.108989
0.0615829
0.0187109
-0.0191338
-0.0521263
-0.0813599
-0.108727
-0.136382
-0.166199
-0.19924
-0.235481
-0.273356
-0.309298
-0.338403
-0.355705
-0.357318
-0.341402
-0.308684
-0.262379
-0.207478
-0.149538
-0.0932562
-0.0408661
0.00806427
0.0557861
0.106265
0.164359
0.23478
0.320944
0.423956
0.542966
0.675912
0.820105
0.972562
1.13045
1.29142
1.45368
1.61587
1.77676
1.93501
2.08913
2.23756
2.37901
2.5128
2.63914
2.75907
2.87424
2.98739
3.10389
3.22854
3.35097
3.44822
3.4931
3.4641
3.35371
3.17194
2.94303
2.69612
2.45438
2.22347
1.99992
1.7819
1.56945
1.36276
1.16216
0.968168
0.781454
0.602854
0.433435
0.274581
0.128057
-0.00365925
-0.11835
-0.214087
-0.289687
-0.345077
-0.381083
-0.400048
-0.405531
-0.401988
-0.394209
-0.386191
-0.380477
-0.377866
-0.37745
-0.376966
-0.373412
-0.363787
-0.345826
-0.318917
-0.284083
-0.243233
-0.19875
-0.153565
-0.110837
-0.0735365
-0.0440649
-0.0240665
-0.0142881
-0.0145004
-0.0234692
-0.0390066
-0.0581387
-0.0774235
-0.0934315
-0.103356
-0.104991
-0.0963877
-0.0792917
-0.058865
-0.0412413
-0.0316977
-0.0331219
-0.0452715
-0.0649809
-0.0871141
-0.105837
-0.116654
-0.117629
-0.10779
-0.0866034
-0.0538616
-0.00952892
0.0439325
0.100048
0.150982
0.189521
0.210587
0.212222
0.195756
0.165135
0.125701
0.0828806
0.0410852
0.00274792
-0.030913
-0.0590899
-0.0810862
-0.0962832
-0.104209
-0.104599
-0.0972912
-0.0824116
-0.0618202
-0.0402246
-0.02302
-0.0147177
-0.0174866
-0.0303
-0.0491037
-0.0680414
-0.0813337
-0.0851267
-0.0801567
-0.0689831
-0.0540499
-0.0382153
-0.0239796
-0.0128727
-0.00514069
0.000224686
0.00516434
0.0120462
0.0230522
0.0396364
0.0623526
0.090888
0.124151
0.160444
0.197511
0.232691
0.263437
0.287642
0.303856
0.311377
0.3102
0.300899
0.284473
0.262242
0.235948
0.207452
0.178645
0.15148
0.127742
0.108916
0.0961149
0.0894077
0.0870588
0.0864857
0.0851671
0.0814741
0.0752007
0.0676109
0.0610031
0.0579823
0.0607319
0.0699471
0.0852837
0.106327
0.132567
0.163419
0.198397
0.237231
0.279939
0.326874
0.37872
0.436538
0.501808
0.578279
0.67487
0.800895
0.94236
1.07024
1.15328
1.17065
1.12115
1.02467
0.915031
0.826332
0.778097
0.755108
0.739457
0.721964
0.694597
0.65191
0.592241
0.517886
0.434236
0.348196
0.266257
0.191735
0.125535
0.0680202
0.0183233
-0.0255856
-0.0666658
-0.10851
-0.154934
-0.210467
-0.283125
-0.383487
-0.510304
-0.657682
-0.816242
-0.698493
0
1.52059
3.89694
6.80591
9.56884
11.3616
11.5702
10.1048
7.47624
4.56604
2.21467
0.864771
0.453289
0.57585
0.66127
0.604105
0.539803
0.471774
0.403027
0.335626
0.27043
0.206929
0.144421
0.0822998
0.0205145
-0.0394678
-0.093716
-0.136517
-0.16165
-0.164046
-0.141392
-0.0951351
-0.0304983
0.0446144
0.121566
0.193193
0.256666
0.313181
0.364376
0.412561
0.460639
0.511622
0.568019
0.631841
0.704656
0.787405
0.880332
0.982996
1.09437
1.21303
1.33749
1.46653
1.59944
1.73614
1.87707
2.02292
2.17422
2.331
2.49265
2.65791
2.82515
2.99277
3.15938
3.32367
3.48394
3.6382
3.78086
3.89801
3.97136
3.98602
3.93604
3.82435
3.6584
3.44598
3.19476
2.92229
2.64219
2.36209
2.08669
1.81973
1.56474
1.32457
1.10137
0.89663
0.711304
0.545871
0.400389
0.274503
0.167438
0.0780174
0.0047184
-0.0542206
-0.100668
-0.136449
-0.163225
-0.182425
-0.195259
-0.20275
-0.205817
-0.205357
-0.20236
-0.197926
-0.193245
-0.189503
-0.187733
-0.188607
-0.192259
-0.198143
-0.20499
-0.210895
-0.21353
-0.21057
-0.200137
-0.181201
-0.153824
-0.119158
-0.0792051
-0.0363892
0.00692749
0.0488993
0.0883671
0.124764
0.15792
0.187777
0.21407
0.236054
0.252419
0.261605
0.26205
0.252678
0.233354
0.205183
0.17057
0.132998
0.0965837
0.0654745
0.0427624
0.0300194
0.0281212
0.037347
0.0572247
0.0840862
0.112055
0.135331
0.149518
0.152599
0.14526
0.130458
0.112399
0.0952993
0.0820322
0.0734095
0.0692413
0.0689888
0.0718088
0.0767101
0.0827412
0.0890614
0.0949112
0.0995031
0.10184
0.100837
0.095569
0.0854887
0.0707148
0.0521786
0.0315174
0.0107105
-0.00842533
-0.0245905
-0.0376484
-0.0484243
-0.0582291
-0.0682131
-0.0787998
-0.0894257
-0.098683
-0.104816
-0.106514
-0.103296
-0.0951704
-0.0845182
-0.0747589
-0.0690031
-0.0688599
-0.0737556
-0.0810717
-0.0870657
-0.0882069
-0.0823841
-0.0705353
-0.0546028
-0.0365583
-0.018643
-0.00299149
0.00882816
0.0162973
0.0199869
0.0214613
0.0229727
0.026967
0.0354832
0.0496048
0.0691532
0.0926825
0.118193
0.14374
0.168184
0.191728
0.216059
0.244073
0.279243
0.32464
0.381827
0.451243
0.532194
0.622709
0.719876
0.819408
0.915211
1.00026
1.06823
1.11387
1.13318
1.12355
1.08364
1.01345
0.914438
0.789914
0.646282
0.492132
0.33555
0.186569
0.0547743
-0.0522093
-0.129862
-0.177182
-0.196246
-0.191159
-0.166862
-0.12844
-0.0806547
-0.0264332
0.0271076
0.0694778
0.0893206
0.0774805
0.0305977
-0.0465746
-0.141456
-0.293029
0
1.03194
2.96629
5.68344
8.70457
11.2715
12.6056
12.2508
10.3132
7.43545
4.50412
2.25501
1.00355
0.627815
0.75833
0.874192
0.847079
0.79311
0.711101
0.605127
0.483891
0.358666
0.240579
0.13514
0.0433653
-0.0319094
-0.0872272
-0.121758
-0.135355
-0.128417
-0.102089
-0.058499
-0.000821304
0.0669626
0.140574
0.216041
0.290331
0.361629
0.428603
0.490014
0.544621
0.592106
0.632838
0.668189
0.700953
0.735519
0.777607
0.833563
0.909358
1.00957
1.13397
1.28052
1.44727
1.63128
1.82859
2.03467
2.24488
2.45485
2.66089
2.8602
3.05096
3.23223
3.40315
3.56156
3.70371
3.82538
3.92262
3.98992
4.02132
4.01146
3.95619
3.85274
3.70003
3.49952
3.25896
2.99252
2.71306
2.43109
2.15525
1.89218
1.64714
1.42329
1.22177
1.04209
0.882729
0.7418
0.617482
0.508205
0.412602
0.329352
0.256878
0.193091
0.135677
0.0824962
0.0320664
-0.0160138
-0.0607373
-0.0996819
-0.129604
-0.147093
-0.14946
-0.131118
-0.0865492
-0.0225258
0.0441797
0.0960778
0.120689
0.114605
0.0843968
0.0440303
0.00974445
-0.00569353
-0.00081358
0.017372
0.0438888
0.0734391
0.100429
0.11992
0.128539
0.124918
0.109819
0.0859297
0.057361
0.0289126
0.00521984
-0.0100263
-0.0149727
-0.010015
0.00374346
0.0253591
0.0535437
0.0870395
0.124669
0.164128
0.201371
0.231441
0.24928
0.250845
0.234182
0.20005
0.151908
0.0953241
0.037054
-0.0164223
-0.0608813
-0.094039
-0.114346
-0.121257
-0.113859
-0.0942097
-0.0677652
-0.0407552
-0.0189041
-0.0062686
-0.00448618
-0.0126072
-0.0275163
-0.0448154
-0.0599867
-0.069915
-0.0732918
-0.070233
-0.0617887
-0.0503662
-0.0387528
-0.0293853
-0.0238012
-0.0224409
-0.0248366
-0.030094
-0.0374535
-0.0466128
-0.0579427
-0.0721962
-0.0900516
-0.111602
-0.13596
-0.161135
-0.184249
-0.202058
-0.211652
-0.211134
-0.19881
-0.174926
-0.143372
-0.111368
-0.0864313
-0.0745317
-0.0786581
-0.0980601
-0.128329
-0.162304
-0.191605
-0.208444
-0.20922
-0.194447
-0.166266
-0.126566
-0.0780601
-0.0248502
0.0275455
0.0729626
0.106375
0.124621
0.126973
0.115394
0.0943621
0.0701989
0.0499956
0.0403172
0.0449752
0.0638108
0.0951715
0.137757
0.190191
0.248418
0.307792
0.365222
0.420306
0.475769
0.536966
0.610481
0.702183
0.832465
1.00469
1.18778
1.34308
1.44065
1.46916
1.43571
1.3575
1.25136
1.12719
0.990954
0.847871
0.701567
0.555152
0.412104
0.276177
0.150836
0.0393425
-0.0556514
-0.132288
-0.190457
-0.231752
-0.259073
-0.27636
-0.288026
-0.299504
-0.317351
-0.347915
-0.396689
-0.467572
-0.566422
-0.691204
-0.835958
-0.99156
-0.816113
0
1.67374
4.23279
7.37503
10.4408
12.5866
13.1293
11.888
9.30443
6.24368
3.58198
1.82934
0.999153
0.758268
0.70389
0.546684
0.393223
0.246961
0.111207
-0.011237
-0.118483
-0.209659
-0.284208
-0.34303
-0.388239
-0.422111
-0.446526
-0.462582
-0.470488
-0.469774
-0.459685
-0.439634
-0.40957
-0.370038
-0.322165
-0.267485
-0.207992
-0.145386
-0.0810219
-0.0159519
0.0492987
0.114855
0.181526
0.250702
0.324119
0.403548
0.490496
0.586025
0.690604
0.804492
0.927921
1.06123
1.2049
1.3595
1.52537
1.70237
1.88961
2.08532
2.28693
2.4913
2.695
2.89442
3.08573
3.26465
3.42554
3.56163
3.66744
3.73758
3.76323
3.73439
3.64386
3.49115
3.28441
3.03922
2.77451
2.50795
2.24807
1.99698
1.75712
1.5313
1.32199
1.13117
0.96043
0.810925
0.681676
0.570197
0.472942
0.385878
0.30516
0.227732
0.15171
0.0764868
0.00258989
-0.0687187
-0.135692
-0.196322
-0.248465
-0.289804
-0.317991
-0.331129
-0.327584
-0.306199
-0.261517
-0.180117
-0.0556098
0.0854077
0.208804
0.283645
0.292703
0.238665
0.143297
0.0393845
-0.041716
-0.0816403
-0.0938741
-0.0926725
-0.0845243
-0.0725157
-0.0590612
-0.0457328
-0.0333917
-0.0225116
-0.0135914
-0.00727406
-0.00439029
-0.00572476
-0.0116622
-0.0218639
-0.0351125
-0.0493999
-0.062257
-0.0712673
-0.0747575
-0.071911
-0.0624555
-0.0475481
-0.0302019
-0.0142521
-0.00306635
0.00133772
-0.00127044
-0.00952358
-0.0212261
-0.0344042
-0.0481767
-0.063003
-0.0801551
-0.100622
-0.123948
-0.147591
-0.167213
-0.177904
-0.175892
-0.159884
-0.131069
-0.0953052
-0.0599045
-0.0311902
-0.0125879
-0.0039875
-0.00253386
-0.00439415
-0.00666704
-0.00863633
-0.0115464
-0.0178104
-0.0298096
-0.0487809
-0.0742141
-0.103904
-0.134517
-0.162372
-0.184889
-0.200949
-0.209565
-0.210203
-0.202623
-0.188546
-0.170894
-0.153015
-0.138033
-0.128199
-0.124394
-0.125904
-0.130512
-0.13491
-0.135606
-0.129748
-0.115251
-0.0914379
-0.0592499
-0.0210728
0.0199662
0.0605704
0.0979812
0.130531
0.15793
0.18125
0.202665
0.225007
0.251136
0.283668
0.324603
0.375133
0.43562
0.505551
0.584003
0.669996
0.762711
0.862074
0.968444
1.07984
1.18745
1.27766
1.33619
1.35332
1.32817
1.26956
1.1924
1.11094
1.03229
0.954082
0.872419
0.785304
0.691487
0.591895
0.489645
0.38934
0.295878
0.212407
0.141515
0.0837421
0.0369523
-0.00212312
-0.0367006
-0.0689005
-0.0991695
-0.126321
-0.148138
-0.162303
-0.16765
-0.164357
-0.154021
-0.138565
0
0.444781
1.45659
3.16301
5.4057
7.70281
9.38529
9.87409
8.96459
6.95163
4.50508
2.35732
0.980875
0.43721
0.457961
0.595968
0.610458
0.61788
0.619134
0.615666
0.609298
0.601949
0.59533
0.590593
0.588451
0.589384
0.593705
0.601669
0.61348
0.629175
0.648805
0.671775
0.695698
0.716816
0.731353
0.736931
0.733845
0.725663
0.718813
0.721192
0.740225
0.779471
0.837167
0.910338
0.996482
1.09245
1.1949
1.30094
1.40873
1.51754
1.62775
1.74044
1.85693
1.97817
2.1043
2.23437
2.36643
2.49781
2.62572
2.74794
2.86347
2.97295
3.07843
3.18358
3.30221
3.46259
3.64992
3.82041
3.9252
3.93529
3.85235
3.70103
3.51034
3.29834
3.07116
2.83588
2.59697
2.35658
2.11616
1.87723
1.64176
1.41229
1.19202
0.985205
0.796246
0.628863
0.485788
0.368273
0.275898
0.20673
0.157762
0.125487
0.106417
0.097065
0.0948256
0.0974836
0.103119
0.110045
0.116819
0.122316
0.125851
0.127201
0.126645
0.124955
0.123342
0.123383
0.126944
0.136085
0.152947
0.179516
0.217353
0.267298
0.329198
0.40176
0.482563
0.568313
0.65511
0.738944
0.816096
0.883337
0.93756
0.975975
0.997238
1.00064
0.986175
0.954691
0.908047
0.849147
0.781781
0.710277
0.639047
0.571825
0.511383
0.459902
0.418667
0.388122
0.368158
0.357955
0.355223
0.356158
0.356974
0.354734
0.34805
0.337387
0.324836
0.313361
0.305746
0.303887
0.307701
0.314661
0.320786
0.321829
0.314475
0.297183
0.270468
0.236642
0.199158
0.161776
0.127321
0.0975379
0.0732454
0.0545892
0.0412702
0.0327557
0.0285834
0.0285613
0.032794
0.0415245
0.0548499
0.0724152
0.0933295
0.115771
0.137245
0.154958
0.166217
0.168789
0.161173
0.142754
0.113888
0.0759414
0.0310352
-0.0180036
-0.0658103
-0.105987
-0.1327
-0.141993
-0.132825
-0.107423
-0.0707549
-0.0292748
0.0106166
0.0443449
0.0704773
0.0888426
0.0991179
0.101518
0.0966175
0.0853017
0.0686862
0.048164
0.0257053
0.00382037
-0.0145887
-0.0265713
-0.0294275
-0.0209825
0.000229979
0.0349052
0.0830257
0.143995
0.216793
0.300087
0.391985
0.490287
0.593129
0.698089
0.801636
0.899265
0.98544
1.05335
1.09607
1.1079
1.0841
1.0218
0.921195
0.786536
0.626254
0.451961
0.276463
0.110539
-0.0413793
-0.177465
-0.294992
-0.392299
-0.468603
-0.522403
-0.549456
-0.544654
-0.509587
-0.457744
-0.406957
-0.374379
-0.372808
-0.408433
-0.480596
-0.583211
-0.706967
-0.841259
-0.683069
0
1.42479
3.64446
6.42202
9.20474
11.2693
12.0053
11.1966
9.13385
6.4796
3.96451
2.08852
0.986157
0.492155
0.324763
0.263641
0.204282
0.146622
0.0912779
0.0387156
-0.0107347
-0.0568303
-0.0993586
-0.138077
-0.172687
-0.202836
-0.228119
-0.248096
-0.262299
-0.270272
-0.271719
-0.266589
-0.255122
-0.237885
-0.215709
-0.189522
-0.160155
-0.127975
-0.0926138
-0.0528411
-0.00665207
0.0484169
0.114815
0.194459
0.28801
0.395051
0.514353
0.64394
0.781391
0.924187
1.06999
1.21679
1.36293
1.50709
1.64826
1.78583
1.91963
2.05006
2.17808
2.30517
2.43305
2.56358
2.69882
2.84113
2.99263
3.15231
3.30965
3.44716
3.54369
3.57654
3.52741
3.38974
3.17313
2.90125
2.60408
2.30903
2.02863
1.76271
1.511
1.2769
1.06339
0.872616
0.705555
0.56102
0.436312
0.327634
0.230735
0.141627
0.0572207
-0.0242313
-0.102984
-0.177986
-0.247178
-0.308122
-0.358612
-0.397127
-0.422345
-0.434768
-0.43712
-0.432797
-0.424957
-0.415738
-0.405834
-0.394591
-0.380568
-0.362368
-0.339286
-0.311607
-0.28228
-0.255317
-0.234427
-0.221667
-0.216677
-0.216798
-0.218042
-0.216532
-0.209856
-0.198513
-0.184057
-0.168797
-0.155213
-0.145213
-0.139687
-0.138437
-0.140465
-0.14443
-0.149059
-0.153371
-0.156642
-0.158184
-0.157205
-0.152796
-0.144085
-0.130499
-0.112022
-0.0894837
-0.0641741
-0.0376631
-0.0116627
0.0121819
0.0323074
0.0473804
0.0564902
0.0590652
0.0548747
0.0439852
0.0266244
0.00294361
-0.027256
-0.0647145
-0.110424
-0.165577
-0.233802
-0.323689
-0.428109
-0.523395
-0.581191
-0.580578
-0.518578
-0.412838
-0.294296
-0.193444
-0.127756
-0.0837821
-0.054198
-0.0336332
-0.0176331
-0.00379896
0.00844316
0.0184284
0.0253396
0.0287711
0.0289983
0.026905
0.0236462
0.0202094
0.0170255
0.0139057
0.0101265
0.00468321
-0.00331841
-0.0142508
-0.0276501
-0.0420992
-0.0553612
-0.0647577
-0.0677203
-0.0625187
-0.0472448
-0.0210519
0.0124873
0.0459861
0.0715897
0.0831761
0.0780078
0.0572978
0.0256011
-0.010611
-0.0445756
-0.0713786
-0.0894844
-0.0983871
-0.0975609
-0.0864344
-0.0653048
-0.0369976
-0.00666742
0.0201781
0.0388887
0.0467861
0.0438378
0.032684
0.01804
0.00570898
0.00141726
0.00894365
0.0301895
0.0662893
0.118193
0.186481
0.2709
0.370128
0.481636
0.602491
0.727818
0.850885
0.964928
1.064
1.14353
1.20054
1.23289
1.24007
1.22227
1.18023
1.11523
1.02926
0.925125
0.806403
0.677278
0.542509
0.40653
0.272871
0.14472
0.0248839
-0.0843142
-0.181129
-0.264497
-0.334123
-0.39052
-0.434906
-0.469038
-0.494983
-0.514857
-0.530568
-0.543687
-0.555356
-0.566344
-0.487195
0
1.20217
3.30103
6.15566
9.21379
11.6418
12.666
11.9539
9.79608
6.95955
4.29949
2.37471
1.28995
0.81018
0.610768
0.479367
0.359491
0.244247
0.136535
0.0391879
-0.045235
-0.114794
-0.167963
-0.203516
-0.221594
-0.224923
-0.21871
-0.208723
-0.199848
-0.195032
-0.194694
-0.196774
-0.197441
-0.192271
-0.17757
-0.151983
-0.116708
-0.0741318
-0.0264166
0.0243505
0.0768678
0.131118
0.188509
0.251617
0.3236
0.40745
0.505091
0.616794
0.741544
0.877197
1.02074
1.16885
1.31853
1.46759
1.61493
1.76061
1.90553
2.05106
2.19854
2.34881
2.50195
2.65722
2.81287
2.9653
3.10829
3.23398
3.33554
3.40663
3.44176
3.43649
3.38764
3.29359
3.1547
2.97387
2.75696
2.51511
2.26037
2.00272
1.74902
1.5044
1.27337
1.05925
0.863977
0.688153
0.531197
0.391401
0.266589
0.154672
0.0541227
-0.0357498
-0.114824
-0.182471
-0.237382
-0.278438
-0.306139
-0.323006
-0.332523
-0.338365
-0.343523
-0.349588
-0.356413
-0.362202
-0.364013
-0.358537
-0.343253
-0.316975
-0.277502
-0.225091
-0.164457
-0.104073
-0.053382
-0.0204067
-0.0100381
-0.0229245
-0.0551496
-0.0988517
-0.143834
-0.179946
-0.200062
-0.203409
-0.194056
-0.176208
-0.153192
-0.128577
-0.105257
-0.0848935
-0.0676932
-0.0525818
-0.0377006
-0.0211082
-0.00087595
0.0234354
0.0490354
0.0711893
0.0846325
0.0851688
0.0708858
0.0426235
0.00366058
-0.0411489
-0.0864337
-0.127868
-0.162977
-0.190402
-0.209547
-0.220419
-0.223647
-0.220479
-0.212555
-0.201763
-0.189923
-0.178532
-0.168564
-0.160359
-0.153617
-0.147509
-0.140875
-0.132484
-0.12136
-0.106972
-0.0892621
-0.0687314
-0.0467947
-0.0253175
-0.00608368
0.00961189
0.0211821
0.0286986
0.0326038
0.0333207
0.0309418
0.0252161
0.0156091
0.00171337
-0.016384
-0.0378719
-0.0612161
-0.0843804
-0.105175
-0.121814
-0.133052
-0.137876
-0.135484
-0.125286
-0.106848
-0.0799522
-0.0443774
0.000294399
0.0533686
0.111765
0.170022
0.221142
0.258271
0.275988
0.271435
0.245088
0.201027
0.146526
0.0909123
0.0438115
0.0128311
-1.30653e-005
0.00267811
0.0185065
0.0448515
0.0781991
0.11472
0.150906
0.18394
0.211888
0.233718
0.249186
0.258483
0.262486
0.262503
0.260267
0.257933
0.257961
0.262831
0.274621
0.294556
0.322664
0.358232
0.399283
0.443664
0.489967
0.538236
0.590247
0.649222
0.719037
0.803114
0.909073
1.04565
1.20071
1.34944
1.46692
1.53606
1.55136
1.51753
1.44467
1.34313
1.22056
1.08501
0.942799
0.798298
0.655155
0.516928
0.387031
0.26862
0.164492
0.0764733
0.00545797
-0.0479288
-0.084302
-0.108166
-0.125609
-0.142412
-0.162847
-0.188878
-0.220017
-0.253859
-0.287099
-0.316665
-0.341202
-0.360802
-0.346579
0
0.967139
2.86972
5.71508
9.02706
11.9195
13.451
13.0905
11.0086
7.99497
5.04708
2.88572
1.69343
1.19428
0.959596
0.753509
0.607732
0.471816
0.348206
0.23804
0.14123
0.0567137
-0.0170619
-0.0815928
-0.137636
-0.184876
-0.222302
-0.248714
-0.263031
-0.264935
-0.255306
-0.236305
-0.210956
-0.182705
-0.154474
-0.127961
-0.103286
-0.0790933
-0.0530671
-0.0226531
0.0142704
0.058589
0.11033
0.169465
0.236279
0.311518
0.396561
0.493359
0.604118
0.73079
0.874496
1.03497
1.21033
1.39699
1.59009
1.78395
1.97268
2.15138
2.31683
2.4677
2.60433
2.72809
2.84063
2.94299
3.03552
3.11748
3.18714
3.24086
3.27249
3.27678
3.24867
3.18349
3.07788
2.9309
2.7448
2.52521
2.2806
2.02108
1.75764
1.49782
1.24768
1.0121
0.794805
0.598489
0.424888
0.274867
0.149203
0.0489199
-0.0271041
-0.0833568
-0.124924
-0.156565
-0.181877
-0.202849
-0.219974
-0.232845
-0.241
-0.244791
-0.24542
-0.244827
-0.245281
-0.248749
-0.256327
-0.267878
-0.281953
-0.295968
-0.306638
-0.310835
-0.30594
-0.289957
-0.261804
-0.221628
-0.170755
-0.111531
-0.0469614
0.0197649
0.0857146
0.148511
0.206284
0.257288
0.299748
0.332569
0.355122
0.367107
0.36882
0.361328
0.346394
0.326141
0.302621
0.277527
0.252253
0.228065
0.206628
0.190454
0.182445
0.185458
0.20146
0.230713
0.271321
0.319585
0.369849
0.415911
0.452225
0.474799
0.481668
0.472939
0.450513
0.417665
0.378601
0.338105
0.300781
0.270909
0.251997
0.246305
0.254484
0.275437
0.306495
0.343903
0.383513
0.421531
0.45543
0.483906
0.506325
0.522841
0.534159
0.541276
0.545254
0.547039
0.547434
0.547104
0.546598
0.546386
0.546845
0.548196
0.550427
0.553151
0.55543
0.556029
0.553776
0.547957
0.538582
0.526413
0.512755
0.499121
0.486944
0.477257
0.470976
0.469113
0.472735
0.482852
0.500152
0.524901
0.556791
0.593664
0.63113
0.663722
0.686342
0.69542
0.689707
0.67051
0.641349
0.607175
0.573392
0.544742
0.524007
0.512312
0.510159
0.51782
0.535287
0.56222
0.597979
0.641603
0.691746
0.746807
0.80462
0.861759
0.914113
0.957653
0.98902
1.00603
1.00802
0.995944
0.972373
0.94149
0.909068
0.882221
0.869784
0.880594
0.922333
0.999816
1.11343
1.25828
1.42944
1.60962
1.77676
1.91179
2.00271
2.04595
2.04505
2.00713
1.93925
1.84602
1.73401
1.60851
1.47242
1.3286
1.18134
1.03609
0.898738
0.774771
0.668377
0.581879
0.516108
0.469348
0.438438
0.419409
0.408042
0.400235
0.392157
0.379864
0.359965
0.329876
0.288253
0.235445
0.173698
0.106924
0
0.335565
1.36209
3.17106
5.59322
8.15899
10.1895
11.0296
10.3425
8.3054
5.57059
2.98238
1.20033
0.441707
0.4768
0.821155
0.789985
0.743649
0.678814
0.600596
0.520348
0.450317
0.398465
0.359383
0.329709
0.308013
0.293182
0.284953
0.283953
0.291258
0.307655
0.332934
0.365277
0.401856
0.439105
0.473492
0.502315
0.524269
0.539669
0.550331
0.559217
0.569975
0.586165
0.611077
0.647746
0.698539
0.764934
0.847387
0.945328
1.05714
1.18079
1.31415
1.45524
1.60236
1.75424
1.90986
2.06835
2.2288
2.39018
2.55133
2.71102
2.86806
3.02128
3.16973
3.31256
3.44851
3.57493
3.68684
3.77783
3.83702
3.84972
3.80275
3.69065
3.51922
3.30403
3.06457
2.81731
2.57157
2.32951
2.09241
1.86255
1.6427
1.43609
1.24606
1.07555
0.926603
0.800003
0.69512
0.609903
0.541362
0.486229
0.441561
0.40518
0.375854
0.353166
0.337171
0.328437
0.32735
0.332057
0.337473
0.337588
0.327261
0.304004
0.269025
0.227117
0.185381
0.151283
0.130251
0.122355
0.126255
0.140671
0.163124
0.190703
0.219809
0.246956
0.269614
0.28665
0.298527
0.307187
0.315593
0.326987
0.344053
0.367883
0.398883
0.435211
0.472226
0.504363
0.526411
0.534637
0.527544
0.506125
0.473687
0.435307
0.397061
0.364565
0.3418
0.331293
0.334162
0.350461
0.378781
0.416512
0.460256
0.506292
0.551164
0.592006
0.626754
0.654273
0.674355
0.687582
0.695093
0.698294
0.698578
0.6971
0.694684
0.691798
0.688673
0.685434
0.682188
0.679045
0.676041
0.673007
0.669425
0.664319
0.656475
0.644774
0.628689
0.608736
0.586726
0.565666
0.549278
0.541815
0.550171
0.580108
0.625505
0.671381
0.70095
0.701501
0.668696
0.607797
0.531514
0.455492
0.393251
0.348706
0.31815
0.297906
0.285874
0.280484
0.280233
0.28389
0.29067
0.300173
0.312281
0.32697
0.344138
0.363449
0.384132
0.404671
0.422897
0.436518
0.443653
0.443354
0.435944
0.423039
0.407231
0.391535
0.378796
0.370946
0.368921
0.373279
0.384647
0.40374
0.431484
0.469033
0.517618
0.578259
0.651368
0.736375
0.832335
0.93781
1.04649
1.14823
1.23314
1.29398
1.32791
1.3369
1.32661
1.30408
1.2751
1.24253
1.20649
1.16547
1.11742
1.06102
0.996384
0.925035
0.849429
0.772029
0.694412
0.616765
0.538197
0.457195
0.371117
0.277038
0.179679
0.0917361
0.0281891
0
0.00881662
0.0476499
0.10308
0.161959
0.216872
0.268856
0.340046
0.892552
2.21718
4.41134
7.2327
10.0781
12.1527
12.792
11.7769
9.45779
6.59587
4.00665
2.2141
1.30373
1.02305
1.0172
0.958188
0.898603
0.83848
0.778376
0.719462
0.663466
0.612348
0.567966
0.531738
0.504398
0.485933
0.475673
0.47253
0.475277
0.48279
0.494183
0.508955
0.526929
0.548142
0.572763
0.601042
0.633307
0.66999
0.711656
0.759028
0.812995
0.874581
0.944891
1.02501
1.1159
1.21823
1.3323
1.45796
1.59457
1.74112
1.8963
2.05867
2.22669
2.39883
2.57346
2.74884
2.92303
3.09388
3.25901
3.41596
3.56209
3.69465
3.81104
3.90903
3.98681
4.04286
4.07582
4.08443
4.06751
4.02407
3.95359
3.85636
3.73369
3.588
3.42257
3.24138
3.04865
2.84802
2.64204
2.43279
2.22225
2.01269
1.80695
1.60854
1.42143
1.24963
1.09699
0.966511
0.858679
0.772091
0.704
0.650996
0.609707
0.577314
0.551771
0.531752
0.516396
0.504881
0.496398
0.490136
0.48515
0.480416
0.474897
0.467605
0.457658
0.444355
0.427296
0.406515
0.382649
0.357002
0.331655
0.309349
0.29294
0.284828
0.286394
0.297837
0.318045
0.344083
0.371675
0.396373
0.414644
0.42455
0.426011
0.420593
0.410918
0.399866
0.389808
0.382019
0.376491
0.372547
0.369176
0.365329
0.360242
0.353665
0.345953
0.338062
0.331383
0.327536
0.328142
0.334511
0.347344
0.366507
0.390862
0.418657
0.447619
0.475333
0.499659
0.519039
0.53266
0.540439
0.542863
0.540745
0.534963
0.526293
0.515301
0.502365
0.487829
0.472195
0.456283
0.441319
0.428907
0.42074
0.41825
0.422281
0.433297
0.450162
0.470052
0.489479
0.505066
0.514298
0.516048
0.510734
0.500121
0.486846
0.473806
0.46344
0.457399
0.456627
0.46148
0.471975
0.487936
0.50907
0.535008
0.565292
0.599294
0.636142
0.674657
0.713401
0.750711
0.784687
0.813246
0.834412
0.846564
0.848565
0.839984
0.821315
0.794087
0.760839
0.724882
0.68988
0.659213
0.635288
0.619564
0.61272
0.61417
0.62178
0.632821
0.644858
0.656413
0.667346
0.678845
0.693049
0.712415
0.739024
0.774097
0.818165
0.87042
0.927649
0.982186
1.02438
1.0456
1.04075
1.01061
0.962946
0.91173
0.874164
0.866782
1.00986
1.3923
1.84735
2.2117
2.37049
2.29134
2.03201
1.71235
1.46308
1.37208
1.3683
1.37114
1.36736
1.34914
1.31173
1.25413
1.17889
1.09128
0.99794
0.905422
0.817889
0.737656
0.666164
0.603483
0.54848
0.498854
0.451099
0.401331
0.345659
0.278257
0.197216
0.103447
0
-0.112442
0.336888
1.46151
3.37917
6.0089
8.97826
11.6382
13.2526
13.3137
11.8102
9.26164
6.47135
4.14433
2.60537
1.77078
1.33814
1.04426
0.845206
0.653928
0.475479
0.314098
0.17288
0.0535654
-0.0434482
-0.118679
-0.173524
-0.210756
-0.234422
-0.248393
-0.255729
-0.258211
-0.256155
-0.248583
-0.233719
-0.209694
-0.17528
-0.130816
-0.077945
-0.019008
0.0432014
0.105727
0.165953
0.222019
0.273163
0.319826
0.363596
0.407009
0.453245
0.505754
0.567872
0.642461
0.731592
0.836304
0.956703
1.09197
1.24047
1.39988
1.56743
1.74004
1.91454
2.08771
2.25644
2.41782
2.56908
2.70772
2.83182
2.93975
3.0297
3.09902
3.14396
3.16092
3.1465
3.0971
3.00984
2.88369
2.72039
2.52484
2.30467
2.06914
1.82807
1.58869
1.35583
1.13283
0.921686
0.723563
0.539319
0.369963
0.216828
0.0814175
-0.0349132
-0.130752
-0.204489
-0.256548
-0.292158
-0.317683
-0.339255
-0.361487
-0.386688
-0.414816
-0.444172
-0.472531
-0.498298
-0.521552
-0.543191
-0.564692
-0.587485
-0.612241
-0.638412
-0.664198
-0.686989
-0.704145
-0.713566
-0.713821
-0.706564
-0.694864
-0.682025
-0.670399
-0.660706
-0.652106
-0.642907
-0.631552
-0.617619
-0.601916
-0.585642
-0.570294
-0.557401
-0.548234
-0.543643
-0.544039
-0.54948
-0.559796
-0.574682
-0.593682
-0.616071
-0.640809
-0.666213
-0.689339
-0.706386
-0.713309
-0.706617
-0.684203
-0.645978
-0.594095
-0.532359
-0.46627
-0.403206
-0.350658
-0.314417
-0.297738
-0.300797
-0.320586
-0.35138
-0.385869
-0.416832
-0.438957
-0.451033
-0.455016
-0.4541
-0.452446
-0.453858
-0.460694
-0.473334
-0.490348
-0.509219
-0.527322
-0.543025
-0.555997
-0.56649
-0.575304
-0.583401
-0.591476
-0.599656
-0.607426
-0.613827
-0.617834
-0.618655
-0.616221
-0.611696
-0.607013
-0.60429
-0.605182
-0.610381
-0.619464
-0.631116
-0.643634
-0.655519
-0.666014
-0.675197
-0.683654
-0.692291
-0.70201
-0.713404
-0.726583
-0.741154
-0.756363
-0.771342
-0.785417
-0.79829
-0.810039
-0.821217
-0.832613
-0.844826
-0.857887
173
438
712
985
1247
1498
1756
2001
2249
2507
2773
3040
3293
3555
3484
3737
3366
3575
3544
3737
3555
3726
3540
3709
3409
3556
3701
0
0
0
0
0
0
0
0
0
0
0
0
0
0
0
0
0
0
0
0
0
0
0
0
0
0
0
0
0
0
0
0
0
0
0
0
0
0
0
0
0
0
0
0
0
0
0
0
0
0
0
0
0
0
0
0
0
0
0
0
0
0
0
0
0
0
0
0
0
0
0
0
0
0
0
0
0
0
0
0
0
0
0
0
0
0
0
0
0
0
0
0
0
0
0
0
0
0
0
0
0
0
0
0
0
0
0
0
0
0
0
0
0
0
0
0
0
0
0
0
0
0
0
0
0
0
0
0
0
0
0
0
0
0
0
0
0
0
0
0
0
0
0
0
0
0
0
0
0
0
0
0
0
0
0
0
0
0
0
0
0
0
0
0
0
0
0
0
0
0
0
0
0
0
0
0
0
0
0
0
0
0
0
0
0
0
0
0
0
0
0
0
0
0
0
0
0
0
0
0
0
0
0
0
0
0
0
0
0
0
0
0
0
0
0
0
0
0
0
0
0
0
0
0
0
0
0
0
0
0
0
0
0
0
0
0
0
0
0
0
0
0
0
0
0
0
0
0
0
0
0
0
0
0
0
0
0
0
0
0
0
0
0
0
0
0
0
0
0
0
0
0
0
0
0
0
0
0
0
0
0
0
0
0
0
0
0
0
0
0
0
0
0
0
0
0
0
0
0
0
0
0
0
0
0
0
0
0
0
0
0
0
0
0
0
0
0
0
0
0
0
0
0
0
0
0
0
0
0
0
0
0
0
0
0
0
0
0
0
0
0
0
0
0
0
0
0
0
0
0
0
0
0
0
0
0
0
0
0
0
0
0
0
0
0
0
0
0
0
0
0
0
0
0
0
0
0
0
0
0
0
0
0
0
0
0
0
0
0
0
0
0
0
0
0
0
0
0
0
0
0
0
0
0
0
0
0
0
0
0
0
0
0
0
0
0
0
0
0
0
0
0
0
0
0
0
0
0
0
0
0
0
0
0
0
0
0
0
0
0
0
0
0
0
0
0
0
0
0
0
0
0
0
0
0
0
0
0
0
0
0
0
0
0
0
0
0
0
0
0
0
0
0
0
0
0
0
0
0
0
0
0
0
0
0
0
0
0
0
0
0
0
0
0
0
0
0
0
0
0
0
0
0
0
0
0
0
0
0
0
0
0
0
0
0
0
0
0
0
0
0
0
0
0
0
0
0
0
0
0
0
0
0
0
0
0
0
0
0
0
0
0
0
0
0
0
0
0
0
0
0
0
0
0
0
0
0
0
0
0
0
0
0
0
0
0
0
0
0
0
0
0
0
0
0
0
0
0
0
0
0
0
0
0
0
0
0
0
0
0
0
0
0
0
0
0
0
0
0
0
0
0
0
0
0
0
0
0
0
0
0
0
0
0
0
0
0
0
0
0
0
0
0
0
0
0
0
0
0
0
0
0
0
0
0
0
0
0
0
0
0
0
0
0
0
0
0
0
0
0
0
0
0
0
0
0
0
0
0
0
0
0
0
0
0
0
0
0
0
0
0
0
0
0
0
0
0
0
0
0
0
0
0
0
0
0
0
0
0
0
0
0
0
0
0
0
0
0
0
0
0
0
0
0
0
0
0
0
0
0
0
0
0
0
0
0
0
0
0
0
0
0
0
0
0
0
0
0
0
0
0
0
0
0
0
0
0
0
0
0
0
0
0
0
0
0
0
0
0
0
0
0
0
0
0
0
0
0
0
0
0
0
0
0
0
0
0
0
0
0
0
0
0
0
0
0
0
0
0
0
0
0
0
0
0
0
0
0
0
0
0
0
0
0
0
0
0
0
0
0
0
0
0
0
0
0
0
0
0
0
0
0
0
0
0
0
0
0
0
0
0
0
0
0
0
0
0
0
0
0
0
0
0
0
0
0
0
0
0
0
0
0
0
0
0
0
0
0
0
0
0
0
0
0
0
0
0
0
0
0
0
0
0
0
0
0
0
0
0
0
0
0
0
0
0
0
0
0
0
0
0
0
0
0
0
0
0
0
0
0
0
0
0
0
0
0
0
0
0
0
0
0
0
0
0
0
0
0
0
0
0
0
0
0
0
0
0
0
0
0
0
0
0
0
0
0
0
0
0
0
0
0
0
0
0
0
0
0
0
0
0
0
0
0
0
0
0
0
0
0
0
0
0
0
0
0
0
0
0
0
0
0
0
0
0
0
0
0
0
0
0
0
0
0
0
0
0
0
0
0
0
0
0
0
0
0
0
0
0
0
0
0
0
0
0
0
0
0
0
0
0
0
0
0
0
0
0
0
0
0
0
0
0
0
0
0
0
0
0
0
0
0
0
0
0
0
0
0
0
0
0
0
0
0
0
0
0
0
0
0
0
0
0
0
0
0
0
0
0
0
0
0
0
0
0
0
0
0
0
0
0
0
0
0
0
0
0
0
0
0
0
0
0
0
0
0
0
0
0
0
0
0
0
0
0
0
0
0
0
0
0
0
0
0
0
0
0
0
0
0
0
0
0
0
0
0
0
0
0
0
0
0
0
0
0
0
0
0
0
0
0
0
0
0
0
0
0
0
0
0
0
0
0
0
0
0
0
0
0
0
0
0
0
0
0
0
0
0
0
0
0
0
0
0
0
0
0
0
0
0
0
0
0
0
0
0
0
0
0
0
0
0
0
0
0
0
0
0
0
0
0
0
0
0
0
0
0
0
0
0
0
0
0
0
0
0
0
0
0
0
0
0
0
0
0
0
0
0
0
0
0
0
0
0
0
0
0
0
0
0
0
0
0
0
0
0
0
0
0
0
0
0
0
0
0
0
0
0
0
0
0
0
0
0
0
0
0
0
0
0
0
0
0
0
0
0
0
0
0
0
0
0
0
0
0
0
0
0
0
0
0
0
0
0
0
0
0
0
0
0
0
0
0
0
0
0
0
0
0
0
0
0
0
0
0
0
0
0
0
0
0
0
0
0
0
0
0
0
0
0
0
0
0
0
0
0
0
0
0
0
0
0
0
0
0
0
0
0
0
0
0
0
0
0
0
0
0
0
0
0
0
0
0
0
0
0
0
0
0
0
0
0
0
0
0
0
0
0
0
0
0
0
0
0
0
0
0
0
0
0
0
0
0
0
0
0
0
0
0
0
0
0
0
0
0
0
0
0
0
0
0
0
0
0
0
0
0
0
0
0
0
0
0
0
0
0
0
0
0
0
0
0
0
0
0
0
0
0
0
0
0
0
0
0
0
0
0
0
0
0
0
0
0
0
0
0
0
0
0
0
0
0
0
0
0
0
0
0
0
0
0
0
0
0
0
0
0
0
0
0
0
0
0
0
0
0
0
0
0
0
0
0
0
0
0
0
0
0
0
0
0
0
0
0
0
0
0
0
0
0
0
0
0
0
0
0
0
0
0
0
0
0
0
0
0
0
0
0
0
0
0
0
0
0
0
0
0
0
0
0
0
0
0
0
0
0
0
0
0
0
0
0
0
0
0
0
0
0
0
0
0
0
0
0
0
0
0
0
0
0
0
0
0
0
0
0
0
0
0
0
0
0
0
0
0
0
0
0
0
0
0
0
0
0
0
0
0
0
0
0
0
0
0
0
0
0
0
0
0
0
0
0
0
0
0
0
0
0
0
0
0
0
0
0
0
0
0
0
0
0
0
0
0
0
0
0
0
0
0
0
0
0
0
0
0
0
0
0
0
0
0
0
0
0
0
0
0
0
0
0
0
0
0
0
0
0
0
0
0
0
0
0
0
0
0
0
0
0
0
0
0
0
0
0
0
0
0
0
0
0
0
0
0
0
0
0
0
0
0
0
0
0
0
0
0
0
0
0
0
0
0
0
0
0
0
0
0
0
0
0
0
0
0
0
0
0
0
0
0
0
0
0
0
0
0
0
0
0
0
0
0
0
0
0
0
0
0
0
0
0
0
0
0
0
0
0
0
0
0
0
0
0
0
0
0
0
0
0
0
0
0
0
0
0
0
0
0
0
0
0
0
0
0
0
0
0
0
0
0
0
0
0
0
0
0
0
0
0
0
0
0
0
0
0
0
0
0
0
0
0
0
0
0
0
0
0
0
0
0
0
0
0
0
0
0
0
0
0
0
0
0
0
0
0
0
0
0
0
0
0
0
0
0
0
0
0
0
0
0
0
0
0
0
0
0
0
0
0
0
0
0
0
0
0
0
0
0
0
0
0
0
0
0
0
0
0
0
0
0
0
0
0
0
0
0
0
0
0
0
0
0
0
0
0
0
0
0
0
0
0
0
0
0
0
0
0
0
0
0
0
0
0
0
0
0
0
0
0
0
0
0
0
0
0
0
0
0
0
0
0
0
0
0
0
0
0
0
0
0
0
0
0
0
0
0
0
0
0
0
0
0
0
0
0
0
0
0
0
0
0
0
0
0
0
0
0
0
0
0
0
0
0
0
0
0
0
0
0
0
0
0
0
0
0
0
0
0
0
0
0
0
0
0
0
0
0
0
0
0
0
0
0
0
0
0
0
0
0
0
0
0
0
0
0
0
0
0
0
0
0
0
0
0
0
0
0
0
0
0
0
0
0
0
0
0
0
0
0
0
0
0
0
0
0
0
0
0
0
0
0
0
0
0
0
0
0
0
0
0
0
0
0
0
0
0
0
0
0
0
0
0
0
0
0
0
0
0
0
0
0
0
0
0
0
0
0
0
0
0
0
0
0
0
0
0
0
0
0
0
0
0
0
0
0
0
0
0
0
0
0
0
0
0
0
0
0
0
0
0
0
0
0
0
0
0
0
0
0
0
0
0
0
0
0
0
0
0
0
0
0
0
0
0
0
0
0
0
0
0
0
0
0
0
0
0
0
0
0
0
0
0
0
0
0
0
0
0
0
0
0
0
0
0
0
0
0
0
0
0
0
0
0
0
0
0
0
0
0
0
0
0
0
0
0
0
0
0
0
0
0
0
0
0
0
0
0
0
0
0
0
0
0
0
0
0
0
0
0
0
0
0
0
0
0
0
0
0
0
0
0
0
0
0
0
0
0
0
0
0
0
0
0
0
0
0
0
0
0
0
0
0
0
0
0
0
0
0
0
0
0
0
0
0
0
0
0
0
0
0
0
0
0
0
0
0
0
0
0
0
0
0
0
0
0
0
0
0
0
0
0
0
0
0
0
0
0
0
0
0
0
0
0
0
0
0
0
0
0
0
0
0
0
0
0
0
0
0
0
0
0
0
0
0
0
0
0
0
0
0
0
0
0
0
0
0
0
0
0
0
0
0
0
0
0
0
0
0
0
0
0
0
0
0
0
0
0
0
0
0
0
0
0
0
0
0
0
0
0
0
0
0
0
0
0
0
0
0
0
0
0
0
0
0
0
0
0
0
0
0
0
0
0
0
0
0
0
0
0
0
0
0
0
0
0
0
0
0
0
0
0
0
0
0
0
0
0
0
0
0
0
0
0
0
0
0
0
0
0
0
0
0
0
0
0
0
0
0
0
0
0
0
0
0
0
0
0
0
0
0
0
0
0
0
0
0
0
0
0
0
0
0
0
0
0
0
0
0
0
0
0
0
0
0
0
0
0
0
0
0
0
0
0
0
0
0
0
0
0
0
0
0
0
0
0
0
0
0
0
0
0
0
0
0
0
0
0
0
0
0
0
0
0
0
0
0
0
0
0
0
0
0
0
0
0
0
0
0
0
0
0
0
0
0
0
0
0
0
0
0
0
0
0
0
0
0
0
0
0
0
0
0
0
0
0
0
0
0
0
0
0
0
0
0
0
0
0
0
0
0
0
0
0
0
0
0
0
0
0
0
0
0
0
0
0
0
0
0
0
0
0
0
0
0
0
0
0
0
0
0
0
0
0
0
0
0
0
0
0
0
0
0
0
0
0
0
0
0
0
0
0
0
0
0
0
0
0
0
0
0
0
0
0
0
0
0
0
0
0
0
0
0
0
0
0
0
0
0
0
0
0
0
0
0
0
0
0
0
0
0
0
0
0
0
0
0
0
0
0
0
0
0
0
0
0
0
0
0
0
0
0
0
0
0
0
0
0
0
0
0
0
0
0
0
0
0
0
0
0
0
0
0
0
0
0
0
0
0
0
0
0
0
0
0
0
0
0
0
0
0
0
0
0
0
0
0
0
0
0
0
0
0
0
0
0
0
0
0
0
0
0
0
0
0
0
0
0
0
0
0
0
0
0
0
0
0
0
0
0
0
0
0
0
0
0
0
0
0
0
0
0
0
0
0
0
0
0
0
0
0
0
0
0
0
0
0
0
0
0
0
0
0
0
0
0
0
0
0
0
0
0
0
0
0
0
0
0
0
0
0
0
0
0
0
0
0
0
0
0
0
0
0
0
0
0
0
0
0
0
0
0
0
0
0
0
0
0
0
0
0
0
0
0
0
0
0
0
0
0
0
0
0
0
0
0
0
0
0
0
0
0
0
0
0
0
0
0
0
0
0
0
0
0
0
0
0
0
0
0
0
0
0
0
0
0
0
0
0
0
0
0
0
0
0
0
0
0
0
0
0
0
0
0
0
0
0
0
0
0
0
0
0
0
0
0
0
0
0
0
0
0
0
0
0
0
0
0
0
0
0
0
0
0
0
0
0
0
0
0
0
0
0
0
0
0
0
0
0
0
0
0
0
0
0
0
0
0
0
0
0
0
0
0
0
0
0
0
0
0
0
0
0
0
0
0
0
0
0
0
0
0
0
0
0
0
0
0
0
0
0
0
0
0
0
0
0
0
0
0
0
0
0
0
0
0
0
0
0
0
0
0
0
0
0
0
0
0
0
0
0
0
0
0
0
0
0
0
0
0
0
0
0
0
0
0
0
0
0
0
0
0
0
0
0
0
0
0
0
0
0
0
0
0
0
0
0
0
0
0
0
0
0
0
0
0
0
0
0
0
0
0
0
0
0
0
0
0
0
0
0
0
0
0
0
0
0
0
0
0
0
0
0
0
0
0
0
0
0
0
0
0
0
0
0
0
0
0
0
0
0
0
0
0
0
0
0
0
0
0
0
0
0
0
0
0
0
0
0
0
0
0
0
0
0
0
0
0
0
0
0
0
0
0
0
0
0
0
0
0
0
0
0
0
0
0
0
0
0
0
0
0
0
0
0
0
0
0
0
0
0
0
0
0
0
0
0
0
0
0
0
0
0
0
0
0
0
0
0
0
0
0
0
0
0
0
0
0
0
0
0
0
0
0
0
0
0
0
0
0
0
0
0
0
0
0
0
0
0
0
0
0
0
0
0
0
0
0
0
0
0
0
0
0
0
0
0
0
0
0
0
0
0
0
0
0
0
0
0
0
0
0
0
0
0
0
0
0
0
0
0
0
0
0
0
0
0
0
0
0
0
0
0
0
0
0
0
0
0
0
0
0
0
0
0
0
0
0
0
0
0
0
0
0
0
0
0
0
0
0
0
0
0
0
0
0
0
0
0
0
0
0
0
0
0
0
0
0
0
0
0
0
0
0
0
0
0
0
0
0
0
0
0
0
0
0
0
0
0
0
0
0
0
0
0
0
0
0
0
0
0
0
0
0
0
0
0
0
0
0
0
0
0
0
0
0
0
0
0
0
0
0
0
0
0
0
0
0
0
0
0
0
0
0
0
0
0
0
0
0
0
0
0
0
0
0
0
0
0
0
0
0
0
0
0
0
0
0
0
0
0
0
0
0
0
0
0
0
0
0
0
0
0
0
0
0
0
0
0
0
0
0
0
0
0
0
0
0
0
0
0
0
0
0
0
0
0
0
0
0
0
0
0
0
0
0
0
0
0
0
0
0
0
0
0
0
0
0
0
0
0
0
0
0
0
0
0
0
0
0
0
0
0
0
0
0
0
0
0
0
0
0
0
0
0
0
0
0
0
0
0
0
0
0
0
0
0
0
0
0
0
0
0
0
0
0
0
0
0
0
0
0
0
0
0
0
0
0
0
0
0
0
0
0
0
0
0
0
0
0
0
0
0
0
0
0
0
0
0
0
0
0
0
0
0
0
0
0
0
0
0
0
0
0
0
0
0
0
0
0
0
0
0
0
0
0
0
0
0
0
0
0
0
0
0
0
0
0
0
0
0
0
0
0
0
0
0
0
0
0
0
0
0
0
0
0
0
0
0
0
0
0
0
0
0
0
0
0
0
0
0
0
0
0
0
0
0
0
0
0
0
0
0
0
0
0
0
0
0
0
0
0
0
0
0
0
0
0
0
0
0
0
0
0
0
0
0
0
0
0
0
0
0
0
0
0
0
0
0
0
0
0
0
0
0
0
0
0
0
0
0
0
0
0
0
0
0
0
0
0
0
0
0
0
0
0
0
0
0
0
0
0
0
0
0
0
0
0
0
0
0
0
0
0
0
0
0
0
0
0
0
0
0
0
0
0
0
0
0
0
0
0
0
0
0
0
0
0
0
0
0
0
0
0
0
0
0
0
