4.19842
4.10654
3.99113
3.86
3.72104
3.58165
3.4481
3.32495
3.21522
3.11824
3.03138
2.95152
2.87654
2.8063
2.74279
2.68934
2.6493
2.62431
2.61319
2.61372
2.622
2.63323
2.64261
2.64614
2.64122
2.62692
2.60401
2.5747
2.54233
2.51086
2.48438
2.4664
2.45924
2.46402
2.48068
2.50796
2.54356
2.58376
2.62449
2.6621
2.69372
2.71746
2.73213
2.73684
2.7301
2.71046
2.67664
2.62826
2.56677
2.49605
2.42235
2.35325
2.29607
2.25919
2.24796
2.25623
2.27267
2.28518
2.28533
2.27091
2.24561
2.21628
2.18937
2.16791
2.15091
2.13729
2.1262
2.11826
2.11595
2.12299
2.14449
2.18825
2.24936
2.30929
2.34542
2.34132
2.29558
2.22486
2.1591
2.13077
2.16265
2.25339
2.40168
2.5732
2.72702
2.8288
2.85973
2.81877
2.7192
2.58196
2.42887
2.27752
2.13587
2.00498
1.8839
1.77117
1.66499
1.56323
1.4635
1.36333
1.26035
1.15247
1.03801
0.91572
0.784797
0.644473
0.49434
0.335857
0.17128
0
0.0443459
0.620341
1.97698
4.14662
6.83932
9.48503
11.394
11.96
10.8619
8.21427
4.59148
0.861517
-2.13299
-3.88336
-4.33952
-3.81
-2.7461
-1.55845
-0.526232
0.219474
0.665752
0.825005
0.886939
0.937783
0.985274
1.03153
1.07793
1.12549
1.17488
1.22634
1.27979
1.33493
1.39141
1.4489
1.50716
1.56603
1.62544
1.68537
1.74594
1.80752
1.87088
1.93726
2.00827
2.08573
2.17136
2.26641
2.37146
2.48619
2.60963
2.74029
2.87624
3.01525
3.15488
3.29253
3.4255
3.55108
3.66667
3.76988
3.85865
3.93125
3.98631
4.02301
4.04086
4.03968
4.01954
3.98081
3.92402
3.84988
3.75918
3.65291
3.53259
3.40022
3.25823
3.10985
2.95919
2.81103
2.67055
2.54293
2.43329
2.34623
2.28429
2.24822
2.23677
2.24753
2.27644
2.31593
2.35783
2.39465
2.42061
2.43228
2.4286
2.41051
2.38021
2.34075
2.29565
2.24801
2.20084
2.15742
2.1214
2.0966
2.0867
2.09547
2.12859
2.19376
2.2912
2.40252
2.5031
2.56955
2.58667
2.55182
2.47492
2.37417
2.2696
2.1772
2.10176
2.04142
1.99436
1.9601
1.93857
1.92948
1.93292
1.94702
1.96371
1.97191
1.96118
1.92567
1.8671
1.79552
1.72709
1.67938
1.68192
1.747
1.84584
1.93339
1.97029
1.9413
1.86125
1.76601
1.69342
1.66429
1.66436
1.67531
1.68455
1.6831
1.66892
1.64728
1.62827
1.62254
1.63725
1.66977
1.71505
1.77022
1.83235
1.89945
1.97093
2.04744
2.1307
2.223
2.32343
2.42368
2.51019
2.56774
2.58346
2.55005
2.46743
2.3426
2.18783
2.01793
1.84716
1.68407
1.53188
1.39096
1.26077
1.1402
1.02765
0.921599
0.820898
0.724778
0.632661
0.543872
0.457179
0.370925
0.28335
0.192952
0.0992065
0
-0.121985
0.305033
1.5667
3.72285
6.49659
9.27992
11.2946
11.8637
10.6855
7.97092
4.37142
0.73353
-2.19991
-4.00212
-4.61724
-4.2743
-3.33201
-2.14502
-0.989771
-0.0484093
0.573108
0.739263
0.745303
0.733277
0.712776
0.686993
0.65976
0.635542
0.618678
0.613459
0.623812
0.652413
0.700128
0.765403
0.844563
0.934141
1.03098
1.13266
1.23787
1.34642
1.45892
1.57625
1.69913
1.8277
1.96166
2.10038
2.24312
2.3893
2.53854
2.69055
2.8449
3.00072
3.15657
3.31036
3.45951
3.6012
3.73265
3.85102
3.9528
4.0338
4.09114
4.12315
4.12919
4.11029
4.0694
4.01121
3.94117
3.86415
3.78308
3.6986
3.60925
3.51246
3.40589
3.28855
3.16151
3.02797
2.89275
2.76124
2.6379
2.52605
2.42776
2.3436
2.27292
2.21425
2.16582
2.12593
2.09319
2.06655
2.0452
2.02836
2.01508
2.0041
1.99372
1.98209
1.96735
1.94801
1.92315
1.89256
1.85674
1.81681
1.77431
1.73088
1.68804
1.64695
1.60833
1.57235
1.53878
1.50706
1.47668
1.4474
1.41949
1.39381
1.3716
1.35418
1.34261
1.33737
1.33795
1.34284
1.34995
1.35713
1.36278
1.3662
1.36761
1.36797
1.36846
1.36989
1.37222
1.37439
1.37436
1.36952
1.35732
1.33593
1.30475
1.26475
1.21836
1.16912
1.12099
1.07753
1.0411
1.01291
0.992655
0.978093
0.965714
0.951894
0.93391
0.910717
0.883263
0.854246
0.827366
0.80631
0.793471
0.789691
0.794411
0.804867
0.816965
0.826717
0.831451
0.830741
0.826774
0.824097
0.828761
0.847043
0.883578
0.939841
1.01503
1.10812
1.2145
1.32505
1.4282
1.51254
1.5683
1.58827
1.56831
1.5074
1.4076
1.27397
1.11447
0.940382
0.763329
0.593421
0.438515
0.304428
0.196233
0.114446
0.0524467
0
-0.0445328
-0.101283
-0.177363
-0.275603
-0.394495
-0.529054
-0.672266
-0.822613
-0.580283
0.132279
1.41094
3.23026
5.38731
7.48466
8.98553
9.35929
8.29455
5.88355
2.65429
-0.608218
-3.17604
-4.65268
-5.05122
-4.67554
-3.89396
-2.99674
-2.16211
-1.49037
-1.04172
-0.779568
-0.566843
-0.379547
-0.227551
-0.120076
-0.0596138
-0.0384926
-0.0383812
-0.0343208
-0.00259018
0.0707909
0.179694
0.306667
0.441056
0.573209
0.696211
0.807166
0.907038
0.999421
1.08884
1.17936
1.27348
1.37282
1.47875
1.59253
1.71528
1.84771
1.98966
2.1398
2.29536
2.45277
2.60809
2.75741
2.89709
3.02347
3.13309
3.2242
3.29625
3.34968
3.38608
3.40808
3.41897
3.42191
3.41903
3.41078
3.39588
3.37193
3.33668
3.28931
3.23135
3.16663
3.10033
3.03731
2.98171
2.93263
2.88524
2.83321
2.77194
2.70119
2.62594
2.55492
2.49754
2.46025
2.44626
2.45035
2.46286
2.47377
2.47682
2.47213
2.46635
2.47013
2.49411
2.55186
2.64739
2.7604
2.86166
2.92466
2.93611
2.90109
2.84094
2.78451
2.75613
2.76283
2.79191
2.82933
2.85857
2.86692
2.85011
2.81326
2.76797
2.72693
2.69866
2.68162
2.67129
2.66327
2.65306
2.63755
2.61587
2.58949
2.5615
2.53569
2.51512
2.50129
2.49467
2.49481
2.50017
2.50831
2.51589
2.51879
2.51314
2.49609
2.4667
2.42653
2.37972
2.33235
2.29125
2.26242
2.25038
2.25816
2.28285
2.3147
2.3425
2.35724
2.35511
2.33868
2.31607
2.29828
2.29561
2.31396
2.35129
2.40301
2.46585
2.53607
2.60998
2.68424
2.75565
2.82021
2.8733
2.90989
2.92485
2.91398
2.87506
2.8085
2.71725
2.6059
2.47959
2.34356
2.20185
2.05709
1.91127
1.7665
1.62512
1.4896
1.36213
1.2441
1.13535
1.03357
0.934763
0.834027
0.726675
0.609344
0.480812
0.34227
0.194327
0
0.220165
1.11417
2.8203
5.21401
7.8559
10.0664
11.139
10.6155
8.49805
5.27544
1.73531
-1.33918
-3.42921
-4.37943
-4.33361
-3.59608
-2.50725
-1.37321
-0.4278
0.195869
0.446576
0.515785
0.588793
0.665691
0.746378
0.83064
0.917207
1.00398
1.08848
1.16834
1.24176
1.30783
1.36662
1.4191
1.46691
1.51206
1.55661
1.6025
1.65145
1.70496
1.76442
1.83122
1.9068
1.99269
2.09035
2.20103
2.32557
2.46419
2.61623
2.78005
2.95289
3.13095
3.30949
3.4827
3.64411
3.7876
3.90797
4.00133
4.06533
4.09908
4.10297
4.07834
4.02718
3.95192
3.85563
3.74185
3.61428
3.47669
3.33275
3.18604
3.03988
2.89729
2.76087
2.63274
2.51446
2.40693
2.31032
2.22398
2.14636
2.07529
2.00836
1.94345
1.87926
1.81564
1.75369
1.69555
1.64385
1.6011
1.56918
1.54885
1.53957
1.53954
1.54601
1.55571
1.56552
1.57303
1.57675
1.57619
1.57153
1.56329
1.55182
1.5371
1.5187
1.49593
1.46819
1.43544
1.39848
1.35901
1.31944
1.28237
1.24996
1.22352
1.20334
1.18833
1.17621
1.16412
1.14939
1.13004
1.10518
1.07505
1.04084
1.00431
0.967351
0.931571
0.89809
0.867524
0.839939
0.814923
0.791687
0.769263
0.7468
0.723846
0.700557
0.67774
0.656717
0.638996
0.625879
0.618113
0.615736
0.618056
0.623968
0.632352
0.642466
0.6542
0.668134
0.685422
0.707553
0.73602
0.772138
0.817033
0.871615
0.936584
1.01244
1.09951
1.19824
1.3095
1.43349
1.56558
1.69314
1.79876
1.86392
1.8729
1.81649
1.69454
1.51683
1.30201
1.07448
0.858494
0.668083
0.506139
0.37078
0.26178
0.176031
0.108261
0.0519075
0
-0.0525215
-0.112915
-0.185495
-0.272842
-0.375365
-0.491948
-0.619506
-0.757788
-0.940636
-0.67232
0.369019
2.36383
5.1755
8.26243
10.7747
11.8411
10.941
8.17011
4.24195
0.206836
-2.97235
-4.76693
-5.18986
-4.64963
-3.67161
-2.66017
-1.80792
-1.1478
-0.678134
-0.487689
-0.379795
-0.292006
-0.212753
-0.137437
-0.0620558
0.0172691
0.103655
0.199025
0.304313
0.418334
0.534872
0.643349
0.733406
0.798315
0.837647
0.858087
0.871864
0.893165
0.933832
0.999991
1.08703
1.1882
1.29984
1.41897
1.54412
1.6754
1.81376
1.95989
2.11299
2.27023
2.42648
2.57494
2.70903
2.82405
2.91809
2.99218
3.04929
3.09292
3.12456
3.14423
3.14931
3.13539
3.09788
3.03379
2.94307
2.82919
2.69868
2.56003
2.42198
2.29098
2.17079
2.06314
1.96801
1.88356
1.80672
1.7339
1.66168
1.5875
1.51005
1.42953
1.34753
1.26668
1.19018
1.12131
1.06293
1.01688
0.984051
0.964631
0.958333
0.96456
0.982359
1.01111
1.04932
1.09221
1.13209
1.1608
1.17177
1.16219
1.13425
1.09495
1.05448
1.02352
1.00967
1.01397
1.03367
1.06572
1.1049
1.14505
1.1803
1.20605
1.21954
1.22003
1.2085
1.18719
1.15901
1.12715
1.09443
1.06311
1.03483
1.01053
0.990477
0.974184
0.960364
0.947331
0.933558
0.918214
0.901544
0.884938
0.870612
0.860951
0.857727
0.862196
0.873257
0.887059
0.898786
0.904215
0.901119
0.889987
0.87387
0.857481
0.845969
0.843461
0.851782
0.871864
0.904653
0.950814
1.01064
1.084
1.17026
1.26801
1.37529
1.4891
1.60495
1.71695
1.81802
1.89949
1.95148
1.96604
1.93683
1.86047
1.73774
1.5744
1.3809
1.17098
0.959373
0.759018
0.576521
0.415213
0.278064
0.166387
0.0802094
0.0196007
-0.0119495
-0.0138536
0
0.0215832
0.0223007
-0.0105703
-0.0802416
-0.180003
-0.511498
-0.471232
0.338343
2.0736
4.59083
7.41037
9.81961
11.0931
10.7568
8.77447
5.5698
1.8791
-1.49767
-3.93536
-5.13091
-5.13346
-4.27439
-3.02701
-1.84777
-1.03544
-0.669496
-0.601272
-0.514662
-0.426958
-0.340121
-0.255857
-0.175927
-0.101765
-0.0341238
0.0271559
0.0831766
0.135779
0.187156
0.239377
0.29397
0.351869
0.413273
0.477543
0.544167
0.61361
0.687875
0.770497
0.865882
0.978124
1.10968
1.26035
1.42579
1.6004
1.77855
1.95481
2.12468
2.28515
2.43488
2.57389
2.70299
2.82307
2.93441
3.03635
3.12721
3.2046
3.26562
3.30729
3.32705
3.323
3.29405
3.24001
3.16159
3.06049
2.94002
2.8046
2.65918
2.50906
2.35962
2.21589
2.08199
1.96061
1.85282
1.75816
1.67497
1.60107
1.5344
1.4736
1.41837
1.36944
1.3282
1.29613
1.27485
1.26472
1.26471
1.27294
1.28723
1.30562
1.32664
1.34931
1.37277
1.39591
1.41709
1.4341
1.44454
1.44631
1.43824
1.42048
1.39462
1.36346
1.33048
1.29926
1.27278
1.25306
1.24151
1.23893
1.24554
1.26107
1.28467
1.31502
1.34967
1.38421
1.4128
1.42938
1.42891
1.40846
1.36794
1.31011
1.23988
1.16327
1.08628
1.01345
0.947774
0.891769
0.847583
0.816624
0.799512
0.796112
0.8054
0.825434
0.853535
0.886713
0.922265
0.958395
0.994675
1.03221
1.07342
1.12157
1.17994
1.25208
1.34302
1.45649
1.58169
1.6937
1.76444
1.77177
1.70754
1.58075
1.41384
1.23352
1.06099
0.903251
0.756814
0.61944
0.491367
0.373516
0.267364
0.17456
0.0970801
0.0356823
-0.0112335
-0.0466606
-0.0742744
-0.097543
-0.118999
-0.13992
-0.160467
-0.18015
-0.194384
0
0.521423
1.67088
3.60894
6.11965
8.56174
10.0836
10.0124
8.18532
5.02651
1.34092
-2.03122
-4.49227
-5.7839
-5.93459
-5.16397
-3.81778
-2.31537
-1.06243
-0.325355
-0.145125
-0.149707
-0.108455
-0.0510817
0.0282068
0.126432
0.228637
0.3166
0.375151
0.397791
0.389524
0.3658
0.347828
0.355849
0.401398
0.479586
0.580372
0.696635
0.822665
0.953893
1.08788
1.22445
1.36506
1.51154
1.66481
1.82387
1.98571
2.14624
2.30086
2.44543
2.57708
2.69463
2.79857
2.89056
2.97278
3.04727
3.11538
3.17752
3.23311
3.28072
3.31816
3.34269
3.35187
3.34356
3.31622
3.26918
3.20276
3.1183
3.01791
2.90418
2.7798
2.64762
2.51005
2.36914
2.227
2.08593
1.94852
1.81753
1.69565
1.58521
1.48781
1.40417
1.33407
1.27655
1.23026
1.19386
1.16642
1.14769
1.13806
1.13842
1.14986
1.17314
1.20833
1.25492
1.31105
1.37188
1.42935
1.47527
1.50343
1.51128
1.50058
1.47672
1.44693
1.41809
1.39505
1.37904
1.36964
1.36674
1.37028
1.38049
1.39767
1.42175
1.45188
1.48618
1.52226
1.55772
1.5907
1.62036
1.64676
1.67038
1.69099
1.70687
1.71479
1.71068
1.69163
1.65806
1.61481
1.57044
1.53508
1.51738
1.52063
1.54127
1.57707
1.62484
1.68175
1.74636
1.81917
1.90211
1.9974
2.10939
2.24091
2.37959
2.50522
2.5966
2.63811
2.62361
2.55635
2.4456
2.30273
2.13897
1.9677
1.79751
1.63454
1.4847
1.35379
1.24697
1.16488
1.10318
1.05437
1.00922
0.95852
0.894538
0.811987
0.708383
0.583929
0.441698
0.286458
0.121926
-0.0831039
0
0.694348
2.2653
4.74346
7.75926
10.5381
12.134
11.8278
9.48693
5.67694
1.4449
-2.10885
-4.24314
-4.78497
-4.07898
-2.75768
-1.4575
-0.596382
-0.272149
-0.249014
-0.10228
0.0453643
0.187503
0.318513
0.43455
0.534747
0.621712
0.700895
0.778938
0.861563
0.951799
1.04833
1.14822
1.24813
1.34472
1.43557
1.5196
1.59713
1.66946
1.73838
1.80561
1.87256
1.94026
2.00962
2.08172
2.15795
2.24014
2.33028
2.43018
2.54092
2.66242
2.79304
2.92953
3.06723
3.20012
3.32189
3.42687
3.51059
3.57014
3.60399
3.61159
3.59281
3.54762
3.47662
3.38074
3.26081
3.11869
2.95755
2.78175
2.59654
2.40755
2.22003
2.03852
1.8666
1.70686
1.56099
1.42989
1.31386
1.21266
1.12567
1.05172
0.989186
0.936368
0.891877
0.85498
0.82575
0.804832
0.793178
0.791523
0.79987
0.817142
0.841115
0.868652
0.896155
0.920155
0.937799
0.947249
0.947884
0.940343
0.926413
0.908812
0.890882
0.876268
0.8684
0.869892
0.882039
0.904471
0.935596
0.971651
1.00811
1.0407
1.06635
1.08379
1.09365
1.09802
1.09962
1.10095
1.10343
1.10718
1.1112
1.11355
1.11187
1.10411
1.08927
1.0679
1.04204
1.01602
0.995514
0.986014
0.991515
1.0135
1.05068
1.09956
1.15575
1.2155
1.27702
1.34114
1.41097
1.49109
1.58617
1.70488
1.8574
2.03892
2.22213
2.37433
2.46768
2.4869
2.43217
2.31684
2.16175
1.98889
1.81687
1.65555
1.50765
1.3741
1.25594
1.15424
1.06978
1.00241
0.950798
0.912316
0.882952
0.856501
0.824313
0.777248
0.707408
0.6099
0.484252
0.335009
0.161032
-0.218826
0
1.19202
3.45695
6.48127
9.5561
11.7896
12.4327
11.1801
8.30168
4.53884
0.817834
-2.08346
-3.75964
-4.2147
-3.7403
-2.72834
-1.53088
-0.402963
0.489616
0.979861
0.988294
0.972832
0.957639
0.952326
0.965676
1.00373
1.06647
1.14858
1.24489
1.35064
1.46093
1.57127
1.67806
1.77885
1.87239
1.95843
2.03761
2.11119
2.18088
2.24875
2.31712
2.38852
2.46564
2.5511
2.64731
2.75603
2.87801
3.01269
3.15796
3.31034
3.46526
3.61772
3.7628
3.89621
4.01432
4.11393
4.19228
4.24729
4.27745
4.2815
4.25872
4.20925
4.13438
4.03653
3.91898
3.78539
3.63941
3.48414
3.32174
3.15356
2.9807
2.80442
2.62638
2.44885
2.2746
2.10683
1.9489
1.8045
1.67722
1.56955
1.48303
1.4181
1.37398
1.34889
1.34026
1.34526
1.36106
1.38499
1.41468
1.44831
1.48416
1.52055
1.55598
1.58924
1.6196
1.64674
1.67055
1.69085
1.70694
1.71717
1.71909
1.71009
1.68807
1.65244
1.60484
1.54855
1.49198
1.44558
1.41913
1.41931
1.44785
1.50114
1.57105
1.64703
1.71845
1.77826
1.82188
1.8474
1.85548
1.84853
1.82954
1.80117
1.76478
1.72015
1.66587
1.60031
1.52273
1.43403
1.33739
1.24098
1.15477
1.08819
1.04775
1.0356
1.04926
1.08268
1.12812
1.178
1.22716
1.27354
1.31725
1.36035
1.40647
1.4601
1.52597
1.61163
1.7274
1.87507
2.03435
2.17608
2.27191
2.30238
2.2613
2.15553
2.00129
1.81929
1.63072
1.4526
1.29281
1.15428
1.03827
0.9454
0.876176
0.830134
0.804803
0.794073
0.787866
0.774978
0.744971
0.689792
0.60499
0.490299
0.349481
0.189514
0.0193293
-0.157389
0
0.699563
2.19533
4.52734
7.35763
9.97711
11.5316
11.3765
9.3723
5.96278
2.00686
-1.54412
-3.96928
-4.97292
-4.70066
-3.60248
-2.22123
-0.996109
-0.151327
0.298795
0.435104
0.535491
0.62836
0.715206
0.795813
0.870315
0.939186
1.00322
1.06353
1.12147
1.17866
1.23683
1.29779
1.36324
1.43465
1.5131
1.59918
1.6929
1.79374
1.90074
2.01273
2.12853
2.24729
2.36873
2.49327
2.62197
2.75624
2.89738
3.04592
3.2011
3.36066
3.52082
3.67656
3.82299
3.95655
4.07581
4.18176
4.27721
4.36432
4.44417
4.51378
4.5628
4.57562
4.53787
4.44291
4.29504
4.10811
3.90024
3.68774
3.48032
3.28009
3.08794
2.90587
2.73627
2.58188
2.44573
2.33159
2.24248
2.17615
2.12588
2.08379
2.04326
2.00091
1.95722
1.91573
1.88099
1.85615
1.84197
1.83474
1.82827
1.81643
1.79561
1.76602
1.7314
1.69713
1.66758
1.64381
1.62343
1.60173
1.57323
1.53378
1.48227
1.42126
1.35645
1.2952
1.2447
1.20838
1.18659
1.17901
1.18454
1.19997
1.21982
1.23822
1.24988
1.25095
1.23951
1.2157
1.18146
1.13989
1.09454
1.04867
1.00444
0.962916
0.924304
0.888027
0.85326
0.819529
0.787223
0.757861
0.734015
0.718875
0.715575
0.726399
0.752373
0.792968
0.846237
0.909272
0.978801
1.05184
1.1263
1.20105
1.27579
1.35065
1.42571
1.50027
1.57158
1.63409
1.6806
1.70369
1.69771
1.66038
1.59334
1.50156
1.39194
1.27188
1.14857
1.02737
0.911944
0.805488
0.710972
0.63111
0.568366
0.522839
0.490516
0.465378
0.440595
0.409931
0.368939
0.315642
0.25058
0.17638
0.0959807
0
0.14734
0.906158
2.60147
5.21849
8.22924
10.691
11.6259
10.4952
7.49474
3.49426
-0.352593
-3.10499
-4.37128
-4.33669
-3.52828
-2.49313
-1.58205
-0.910756
-0.451695
-0.164847
0.0346865
0.213017
0.378942
0.533835
0.677151
0.808375
0.928284
1.03901
1.14375
1.24612
1.34929
1.45512
1.56388
1.67288
1.77697
1.8707
1.95045
2.016
2.07086
2.12128
2.17437
2.23605
2.30927
2.39339
2.48758
2.59109
2.7037
2.82601
2.95915
3.10395
3.26013
3.42546
3.59581
3.76623
3.93105
4.08411
4.21867
4.32791
4.40758
4.4548
4.46807
4.44739
4.39454
4.31305
4.20787
4.08466
3.94895
3.80601
3.65944
3.5114
3.36344
3.21695
3.07356
2.93531
2.80463
2.68415
2.57643
2.48361
2.40721
2.34799
2.30585
2.2799
2.26862
2.26959
2.27889
2.29122
2.3008
2.30213
2.29075
2.26397
2.22137
2.16493
2.09883
2.02885
1.96144
1.90226
1.8554
1.82445
1.81247
1.8178
1.83193
1.84506
1.8494
1.84179
1.82473
1.80508
1.791
1.78821
1.79847
1.81524
1.82708
1.82194
1.79169
1.73492
1.65724
1.56913
1.48243
1.40573
1.34129
1.28824
1.2449
1.2088
1.17682
1.14602
1.11428
1.0808
1.04616
1.01211
0.981057
0.955366
0.937014
0.926813
0.924129
0.927337
0.934357
0.943229
0.952541
0.961621
0.970501
0.979769
0.990434
1.00385
1.02189
1.04694
1.08189
1.12981
1.19353
1.27526
1.37828
1.50494
1.65129
1.802
1.93617
2.03361
2.07899
2.06459
1.99108
1.86655
1.70444
1.521
1.33331
1.15355
0.987973
0.839862
0.711443
0.604422
0.519008
0.453821
0.406104
0.372089
0.347078
0.325633
0.30267
0.274138
0.237534
0.192085
0.136146
-0.0822916
0
0.818542
2.61391
5.2921
8.31791
10.8229
11.9219
11.0952
8.44126
4.65377
0.735775
-2.39574
-4.21677
-4.68741
-4.13592
-3.04008
-1.82872
-0.779017
-0.0103109
0.442568
0.510192
0.538873
0.563431
0.589297
0.620536
0.65992
0.708437
0.764797
0.826864
0.892391
0.959186
1.02549
1.09017
1.15264
1.21279
1.27101
1.32823
1.38601
1.44671
1.51336
1.58934
1.67789
1.78136
1.90067
2.03472
2.18097
2.33608
2.49632
2.65824
2.81914
2.9773
3.13176
3.28178
3.42592
3.56142
3.68425
3.78962
3.8728
3.93047
3.96185
3.96907
3.95662
3.93016
3.89501
3.85501
3.81179
3.76518
3.71392
3.65625
3.59052
3.51564
3.43134
3.33829
3.23801
3.13278
3.02532
2.91858
2.81551
2.71874
2.63039
2.55184
2.48372
2.4261
2.37866
2.34083
2.31198
2.29141
2.27833
2.27177
2.27059
2.27371
2.28028
2.28984
2.30228
2.31763
2.3357
2.3557
2.37564
2.3919
2.40012
2.39625
2.37789
2.34538
2.3021
2.25407
2.20849
2.17203
2.14822
2.13966
2.14438
2.1555
2.16446
2.16364
2.14851
2.11889
2.07879
2.03502
1.99493
1.96399
1.94324
1.93135
1.92485
1.91888
1.90865
1.89082
1.86436
1.83087
1.79407
1.75891
1.73048
1.71252
1.70675
1.71381
1.73338
1.76394
1.80323
1.84737
1.89033
1.92502
1.94476
1.94465
1.92285
1.88143
1.82638
1.76669
1.71267
1.67361
1.6542
1.65593
1.68127
1.72841
1.78723
1.84363
1.88397
1.8978
1.87959
1.82907
1.75035
1.65028
1.53683
1.41841
1.30129
1.18959
1.08637
0.993721
0.91253
0.842102
0.779428
0.718802
0.65292
0.574055
0.475399
0.352333
0.203356
0.030455
-0.161043
-0.373957
-0.460796
0
1.25753
3.3945
6.17581
9.04069
11.2346
12.061
11.1512
8.62824
5.08112
1.35177
-1.76117
-3.74622
-4.47773
-4.16289
-3.20071
-2.01628
-0.936355
-0.127621
0.375174
0.539588
0.654449
0.758721
0.856305
0.947922
1.03389
1.11399
1.18778
1.25468
1.31442
1.36732
1.41444
1.45745
1.49839
1.53933
1.58211
1.62828
1.67922
1.73632
1.80102
1.87486
1.95938
2.05591
2.16532
2.28772
2.42225
2.5669
2.71843
2.8725
3.02388
3.1669
3.29618
3.40732
3.49743
3.5654
3.61192
3.63914
3.65021
3.6486
3.6374
3.61878
3.59351
3.56063
3.51793
3.46225
3.39026
3.29925
3.18795
3.05689
2.90858
2.74718
2.57801
2.40675
2.23835
2.07685
1.92511
1.78479
1.6565
1.54033
1.43636
1.34538
1.26883
1.20795
1.16361
1.13713
1.12885
1.13355
1.14455
1.15571
1.16319
1.16628
1.16685
1.16769
1.1707
1.17554
1.18018
1.18194
1.1785
1.16879
1.15336
1.13403
1.11311
1.09243
1.07275
1.05386
1.0349
1.01492
0.993396
0.970639
0.947842
0.92688
0.909946
0.899053
0.895567
0.900411
0.913891
0.935418
0.963872
0.996786
1.02955
1.05667
1.07292
1.07453
1.05997
1.03033
0.988907
0.940338
0.889531
0.840584
0.795957
0.757002
0.72441
0.69835
0.67856
0.664516
0.655548
0.65096
0.650117
0.652608
0.658402
0.667966
0.682315
0.702963
0.731767
0.770674
0.821369
0.885007
0.961987
1.05173
1.15258
1.262
1.37657
1.49218
1.60424
1.70752
1.79581
1.86221
1.90127
1.90861
1.8816
1.82033
1.72839
1.61292
1.48381
1.35208
1.22785
1.11731
1.02208
0.943118
0.879891
0.830491
0.792054
0.760982
0.733138
0.703286
0.665444
0.613706
0.54321
0.451238
0.338096
0.207419
0.0620413
-0.18166
0
0.904626
2.70799
5.28629
8.12974
10.4446
11.4385
10.6626
8.21656
4.70497
0.982877
-2.1617
-4.23252
-5.09076
-4.89342
-3.97212
-2.71517
-1.47012
-0.475058
0.171463
0.44052
0.54808
0.637583
0.718195
0.790349
0.85504
0.913945
0.969182
1.02296
1.0772
1.13323
1.19164
1.25231
1.31469
1.37811
1.44213
1.50673
1.57235
1.63975
1.70974
1.78295
1.85976
1.94027
2.02451
2.11274
2.20557
2.30397
2.4089
2.52086
2.63938
2.76268
2.88764
3.01014
3.12539
3.22843
3.31478
3.38112
3.4253
3.44627
3.44397
3.41904
3.37265
3.3062
3.22123
3.11926
3.00207
2.87151
2.7296
2.57854
2.42085
2.2595
2.09786
1.93951
1.78799
1.64659
1.51808
1.40454
1.3073
1.22681
1.16272
1.11384
1.07825
1.05342
1.03641
1.02402
1.01298
1.00059
0.985347
0.967227
0.947776
0.929773
0.916521
0.910928
0.915344
0.92985
0.951416
0.975136
0.995472
1.00768
1.00899
0.999327
0.981264
0.959391
0.93916
0.925332
0.920988
0.926989
0.941806
0.962584
0.985705
1.00754
1.02521
1.03706
1.04271
1.04285
1.03882
1.0322
1.02446
1.01679
1.01035
1.00634
1.00616
1.0115
1.02407
1.04531
1.07599
1.11587
1.16362
1.21693
1.27288
1.32844
1.38097
1.42844
1.46943
1.50299
1.52886
1.54743
1.55971
1.56746
1.5733
1.58063
1.59337
1.61538
1.6499
1.69861
1.76153
1.8377
1.92509
2.02037
2.11849
2.21201
2.29117
2.34639
2.36906
2.35297
2.29574
2.1998
2.07246
1.92492
1.77031
1.62107
1.48484
1.3639
1.25867
1.16813
1.08917
1.01715
0.946578
0.871681
0.787066
0.688217
0.571918
0.436589
0.282465
0.11156
-0.0736259
-0.288689
-0.403078
0
1.19527
3.26957
5.96154
8.63656
10.4661
10.7545
9.25361
6.28724
2.61701
-0.871143
-3.4863
-4.91182
-5.20365
-4.66634
-3.69197
-2.63129
-1.71088
-1.01066
-0.522627
-0.351899
-0.284679
-0.241533
-0.213033
-0.191365
-0.168189
-0.137116
-0.0956173
-0.0464912
0.00558605
0.0562516
0.101736
0.139864
0.170517
0.195542
0.218285
0.242943
0.273593
0.314053
0.367806
0.437537
0.5248
0.629732
0.750902
0.885385
1.02924
1.17804
1.32757
1.47446
1.61652
1.75263
1.88238
2.00527
2.11977
2.22341
2.31326
2.38609
2.43917
2.47098
2.48132
2.47108
2.44151
2.39366
2.32878
2.24835
2.1528
2.04283
1.92
1.78673
1.64617
1.50184
1.35716
1.21505
1.07788
0.947456
0.825114
0.712029
0.6095
0.519217
0.443528
0.385253
0.347137
0.331632
0.344244
0.392045
0.471411
0.562121
0.640392
0.686038
0.688964
0.652331
0.59108
0.526315
0.477745
0.455306
0.453962
0.466734
0.488576
0.514385
0.540685
0.566682
0.594369
0.627657
0.670797
0.726598
0.795945
0.876147
0.95791
1.02974
1.08107
1.10513
1.10045
1.07091
1.02436
0.97059
0.919127
0.876262
0.84516
0.827542
0.824057
0.834147
0.855897
0.886214
0.920523
0.952313
0.974874
0.98293
0.973889
0.948634
0.911511
0.869364
0.829842
0.799491
0.781642
0.775278
0.778676
0.789595
0.805354
0.823428
0.842075
0.860467
0.878749
0.898003
0.920083
0.947378
0.982467
1.0277
1.08477
1.15433
1.23582
1.32748
1.42681
1.53091
1.63686
1.74188
1.84302
1.93634
2.01567
2.07217
2.0966
2.07966
2.01483
1.90128
1.74599
1.56384
1.37528
1.20199
1.06058
0.954954
0.886649
0.850731
0.837563
0.835394
0.83288
0.821254
0.794387
0.748662
0.682435
0.595606
0.490746
0.370951
0.23961
0.0937043
-0.247495
0
1.22782
3.51976
6.51198
9.46056
11.4906
11.9159
10.4938
7.51295
3.69263
-0.054177
-2.90781
-4.38493
-4.45841
-3.51682
-2.16403
-0.965884
-0.244872
-0.0248746
0.00815229
0.109791
0.22407
0.347363
0.475552
0.599496
0.708179
0.791986
0.845689
0.870401
0.87378
0.868339
0.868293
0.885868
0.926512
0.987955
1.06478
1.15136
1.24239
1.3333
1.42119
1.5055
1.58798
1.67214
1.76235
1.86264
1.97561
2.10172
2.23918
2.38443
2.53198
2.67609
2.81182
2.93584
3.04655
3.14289
3.22288
3.28492
3.32742
3.34753
3.34228
3.31015
3.25212
3.17179
3.07457
2.96629
2.85225
2.73617
2.61995
2.50474
2.39143
2.28092
2.17424
2.0725
1.97673
1.88769
1.80559
1.73005
1.65997
1.59368
1.52919
1.46454
1.39834
1.33021
1.26115
1.19369
1.13188
1.08038
1.0434
1.02367
1.02248
1.03961
1.07
1.10752
1.14691
1.18523
1.22236
1.26024
1.30124
1.34654
1.39471
1.4407
1.47789
1.50042
1.5054
1.49368
1.46927
1.43757
1.40354
1.3705
1.33994
1.31304
1.29106
1.27564
1.26871
1.27193
1.28608
1.31022
1.34217
1.37779
1.41185
1.43898
1.4546
1.4556
1.44075
1.41066
1.36753
1.31471
1.25619
1.19627
1.13914
1.0888
1.04933
1.02417
1.01598
1.02627
1.05498
1.1002
1.15825
1.22403
1.29176
1.356
1.4128
1.45977
1.49656
1.5248
1.54776
1.56982
1.59576
1.63009
1.67639
1.73788
1.81843
1.9229
2.05377
2.20246
2.34584
2.45571
2.5055
2.47672
2.36425
2.17891
1.94593
1.69858
1.46842
1.26979
1.09834
0.946639
0.81179
0.692814
0.589167
0.500869
0.428191
0.371757
0.332173
0.306389
0.288811
0.272824
0.252246
0.222744
0.149977
0
0.427875
1.77743
4.11745
7.09267
9.94662
11.7452
11.7369
9.68844
6.02685
1.70649
-2.15158
-4.68153
-5.56286
-5.05491
-3.78363
-2.41532
-1.38762
-0.816064
-0.576823
-0.433166
-0.301386
-0.179818
-0.0689214
0.0289219
0.112451
0.182258
0.240564
0.290635
0.336016
0.379825
0.424312
0.470724
0.519723
0.571858
0.6279
0.689062
0.756974
0.83345
0.920103
1.0179
1.12689
1.24608
1.37344
1.50607
1.64061
1.77361
1.90197
2.02326
2.13593
2.23926
2.33323
2.41831
2.49509
2.56415
2.62606
2.68122
2.72989
2.77212
2.80759
2.83518
2.85284
2.85758
2.84563
2.81288
2.75562
2.67151
2.56042
2.42493
2.27031
2.10404
1.93468
1.77051
1.61792
1.48149
1.36358
1.26448
1.18282
1.11633
1.06253
1.01918
0.984629
0.957925
0.938697
0.927028
0.923269
0.927882
0.941292
0.963748
0.995189
1.03512
1.08251
1.1358
1.19296
1.25164
1.30934
1.36368
1.41254
1.45407
1.48681
1.51002
1.52359
1.52807
1.52462
1.51495
1.5011
1.48519
1.46908
1.45407
1.4407
1.42885
1.41791
1.40704
1.39537
1.38233
1.36773
1.35176
1.33499
1.31809
1.30172
1.28622
1.27156
1.25714
1.24184
1.22409
1.20202
1.17394
1.13873
1.09625
1.04763
0.995269
0.943197
0.896107
0.858536
0.834125
0.825154
0.832455
0.855674
0.893723
0.94523
1.00828
1.08128
1.1631
1.25265
1.34878
1.45021
1.55547
1.66279
1.76946
1.87011
1.95599
2.01707
2.04343
2.02811
1.96983
1.87423
1.75292
1.62054
1.49089
1.3726
1.26695
1.17368
1.09243
1.02203
0.960814
0.906681
0.857217
0.807871
0.752013
0.682177
0.591643
0.476325
0.336308
0.176451
0
-0.0243801
0.489155
1.64399
3.47585
5.84516
8.35872
10.3933
11.2697
10.5339
8.19624
4.77935
1.13263
-1.8981
-3.77282
-4.38835
-4.00803
-3.06394
-1.95956
-0.960636
-0.186167
0.340773
0.5954
0.717728
0.819026
0.911716
0.998516
1.08085
1.16017
1.23774
1.31436
1.39028
1.46516
1.53828
1.60873
1.67571
1.7388
1.79806
1.85428
1.90903
1.96465
2.02419
2.09125
2.16965
2.26296
2.37399
2.50416
2.65291
2.81776
2.9943
3.17677
3.35752
3.52822
3.68125
3.81059
3.91233
3.98484
4.02849
4.04527
4.03827
4.01153
3.96889
3.914
3.85
3.77909
3.70235
3.61991
3.53101
3.43427
3.32838
3.21275
3.08792
2.95585
2.81978
2.68382
2.55231
2.42907
2.31682
2.21692
2.12876
2.05
1.97764
1.90899
1.84254
1.77825
1.71755
1.66265
1.61573
1.57828
1.55057
1.53124
1.51798
1.50832
1.50038
1.49333
1.48749
1.48402
1.48443
1.49011
1.5018
1.51974
1.54377
1.57322
1.60694
1.64305
1.67766
1.70549
1.72111
1.72031
1.70161
1.66692
1.6214
1.57217
1.52657
1.48972
1.46312
1.44653
1.439
1.4386
1.44275
1.44865
1.4536
1.4552
1.45144
1.44081
1.42235
1.39589
1.36207
1.32243
1.27995
1.23923
1.2057
1.18475
1.18077
1.19625
1.23119
1.28294
1.34653
1.41548
1.48303
1.54342
1.59298
1.63093
1.65958
1.68387
1.71042
1.74602
1.79996
1.88312
1.99217
2.10394
2.18862
2.21982
2.18323
2.08082
1.92945
1.75506
1.58493
1.43787
1.31581
1.21465
1.13095
1.06206
1.00418
0.952472
0.901633
0.846517
0.782701
0.706956
0.617562
0.513629
0.396073
0.268234
0.134602
0
0.0231399
0.447574
1.42709
3.1265
5.5033
8.16799
10.4079
11.4191
10.6609
8.13843
4.44196
0.514359
-2.72665
-4.70947
-5.32999
-4.86441
-3.77111
-2.50149
-1.383
-0.579495
-0.108935
0.0577051
0.0994455
0.129103
0.15501
0.179283
0.203421
0.228647
0.255847
0.285571
0.31825
0.354462
0.395135
0.441579
0.495299
0.557613
0.629236
0.709968
0.798517
0.893041
0.991571
1.09246
1.19478
1.2985
1.40436
1.51352
1.62711
1.7458
1.86958
1.99775
2.12906
2.26202
2.39506
2.52677
2.65588
2.78121
2.90138
3.01462
3.11861
3.21037
3.28629
3.34249
3.37531
3.38152
3.35882
3.30627
3.2247
3.11681
2.98714
2.84155
2.68675
2.52927
2.37439
2.22594
2.08652
1.95757
1.83958
1.73255
1.63649
1.55189
1.47991
1.42254
1.3819
1.3604
1.3631
1.3945
1.4468
1.50452
1.55136
1.57568
1.57469
1.5552
1.53071
1.51603
1.52191
1.54748
1.58665
1.63455
1.68712
1.74043
1.79117
1.83675
1.87522
1.90497
1.92466
1.9334
1.93077
1.91717
1.89409
1.86422
1.83121
1.79913
1.77165
1.7513
1.73909
1.73397
1.73322
1.73289
1.72864
1.71656
1.69398
1.66008
1.61614
1.56549
1.51301
1.46427
1.42446
1.39728
1.38483
1.38678
1.39921
1.41652
1.43276
1.44296
1.44402
1.43511
1.41744
1.39367
1.36717
1.34116
1.31802
1.29936
1.28601
1.27816
1.2754
1.27701
1.28224
1.29051
1.30158
1.31552
1.33272
1.35378
1.37954
1.41115
1.4502
1.49882
1.55966
1.6356
1.73048
1.85322
2.01766
2.22464
2.44404
2.63738
2.76995
2.82024
2.78308
2.66673
2.48699
2.26302
2.01655
1.77195
1.54405
1.34017
1.16304
1.01219
0.887131
0.786062
0.70437
0.636122
0.575094
0.515721
0.453772
0.38666
0.313383
0.234214
0.150317
0.0629512
-0.0332826
0
0.543569
1.9544
4.32538
7.30055
10.1051
11.8079
11.7084
9.65223
6.11398
2.00704
-1.67555
-4.21042
-5.33153
-5.21034
-4.28789
-3.06693
-1.94835
-1.15032
-0.706424
-0.525358
-0.388243
-0.262912
-0.147826
-0.0491534
0.0273926
0.0775368
0.0999051
0.0972225
0.0767688
0.0497363
0.0294215
0.0285608
0.0553623
0.110827
0.190528
0.288225
0.398038
0.513662
0.629482
0.741554
0.847948
0.948723
1.04552
1.14093
1.23779
1.33864
1.44531
1.55877
1.67914
1.80582
1.93767
2.07314
2.21036
2.34705
2.48031
2.60602
2.71918
2.81499
2.88911
2.93836
2.96132
2.95848
2.93194
2.88465
2.81944
2.73848
2.64344
2.53518
2.41413
2.28085
2.13673
1.98453
1.82842
1.6737
1.52611
1.3911
1.27301
1.1746
1.09679
1.03841
0.996288
0.966046
0.942955
0.922706
0.902046
0.879214
0.854086
0.828034
0.80354
0.783587
0.770902
0.767323
0.773666
0.78914
0.811918
0.839691
0.8702
0.90157
0.932336
0.961234
0.986864
1.00765
1.02189
1.02809
1.02533
1.01358
0.993777
0.967755
0.937993
0.907402
0.878826
0.855048
0.838421
0.830575
0.83211
0.842389
0.859526
0.880621
0.902183
0.920642
0.932992
0.936967
0.931046
0.914608
0.887949
0.852342
0.810015
0.76393
0.718034
0.676938
0.645153
0.626355
0.622645
0.634013
0.658599
0.69256
0.729764
0.763901
0.789753
0.804141
0.80633
0.797834
0.781811
0.762292
0.743473
0.728837
0.721187
0.722915
0.73571
0.76043
0.797042
0.844706
0.902038
0.967536
1.04005
1.11907
1.20496
1.29877
1.40196
1.5165
1.64411
1.78462
1.93259
2.07376
2.18902
2.25933
2.26978
2.21347
2.09403
1.92587
1.73127
1.53504
1.35762
1.20477
1.07274
0.957788
0.85807
0.771477
0.695572
0.627925
0.566268
0.508521
0.452716
0.39692
0.33929
0.278194
0.212385
0.141138
0.0626875
-0.0906337
0
0.717224
2.29289
4.67671
7.4367
9.8315
11.067
10.6222
8.48132
5.14504
1.4241
-1.8649
-4.15103
-5.21541
-5.15861
-4.29409
-3.02498
-1.73733
-0.714506
-0.0847719
0.15383
0.203716
0.259121
0.318441
0.382032
0.450351
0.523288
0.600385
0.681144
0.765255
0.852694
0.943627
1.03816
120
306
500
685
870
1052
1224
1393
1564
1740
1913
2091
2269
2452
2630
2814
2994
3170
3344
3532
3723
3626
0
0
0
0
0
0
0
0
0
0
0
0
0
0
0
0
0
0
0
0
0
0
0
0
0
0
0
0
0
0
0
0
0
0
0
0
0
0
0
0
0
0
0
0
0
0
0
0
0
0
0
0
0
0
0
0
0
0
0
0
0
0
0
0
0
0
0
0
0
0
0
0
0
0
0
0
0
0
0
0
0
0
0
0
0
0
0
0
0
0
0
0
0
0
0
0
0
0
0
0
0
0
0
0
0
0
0
0
0
0
0
0
0
0
0
0
0
0
0
0
0
0
0
0
0
0
0
0
0
0
0
0
0
0
0
0
0
0
0
0
0
0
0
0
0
0
0
0
0
0
0
0
0
0
0
0
0
0
0
0
0
0
0
0
0
0
0
0
0
0
0
0
0
0
0
0
0
0
0
0
0
0
0
0
0
0
0
0
0
0
0
0
0
0
0
0
0
0
0
0
0
0
0
0
0
0
0
0
0
0
0
0
0
0
0
0
0
0
0
0
0
0
0
0
0
0
0
0
0
0
0
0
0
0
0
0
0
0
0
0
0
0
0
0
0
0
0
0
0
0
0
0
0
0
0
0
0
0
0
0
0
0
0
0
0
0
0
0
0
0
0
0
0
0
0
0
0
0
0
0
0
0
0
0
0
0
0
0
0
0
0
0
0
0
0
0
0
0
0
0
0
0
0
0
0
0
0
0
0
0
0
0
0
0
0
0
0
0
0
0
0
0
0
0
0
0
0
0
0
0
0
0
0
0
0
0
0
0
0
0
0
0
0
0
0
0
0
0
0
0
0
0
0
0
0
0
0
0
0
0
0
0
0
0
0
0
0
0
0
0
0
0
0
0
0
0
0
0
0
0
0
0
0
0
0
0
0
0
0
0
0
0
0
0
0
0
0
0
0
0
0
0
0
0
0
0
0
0
0
0
0
0
0
0
0
0
0
0
0
0
0
0
0
0
0
0
0
0
0
0
0
0
0
0
0
0
0
0
0
0
0
0
0
0
0
0
0
0
0
0
0
0
0
0
0
0
0
0
0
0
0
0
0
0
0
0
0
0
0
0
0
0
0
0
0
0
0
0
0
0
0
0
0
0
0
0
0
0
0
0
0
0
0
0
0
0
0
0
0
0
0
0
0
0
0
0
0
0
0
0
0
0
0
0
0
0
0
0
0
0
0
0
0
0
0
0
0
0
0
0
0
0
0
0
0
0
0
0
0
0
0
0
0
0
0
0
0
0
0
0
0
0
0
0
0
0
0
0
0
0
0
0
0
0
0
0
0
0
0
0
0
0
0
0
0
0
0
0
0
0
0
0
0
0
0
0
0
0
0
0
0
0
0
0
0
0
0
0
0
0
0
0
0
0
0
0
0
0
0
0
0
0
0
0
0
0
0
0
0
0
0
0
0
0
0
0
0
0
0
0
0
0
0
0
0
0
0
0
0
0
0
0
0
0
0
0
0
0
0
0
0
0
0
0
0
0
0
0
0
0
0
0
0
0
0
0
0
0
0
0
0
0
0
0
0
0
0
0
0
0
0
0
0
0
0
0
0
0
0
0
0
0
0
0
0
0
0
0
0
0
0
0
0
0
0
0
0
0
0
0
0
0
0
0
0
0
0
0
0
0
0
0
0
0
0
0
0
0
0
0
0
0
0
0
0
0
0
0
0
0
0
0
0
0
0
0
0
0
0
0
0
0
0
0
0
0
0
0
0
0
0
0
0
0
0
0
0
0
0
0
0
0
0
0
0
0
0
0
0
0
0
0
0
0
0
0
0
0
0
0
0
0
0
0
0
0
0
0
0
0
0
0
0
0
0
0
0
0
0
0
0
0
0
0
0
0
0
0
0
0
0
0
0
0
0
0
0
0
0
0
0
0
0
0
0
0
0
0
0
0
0
0
0
0
0
0
0
0
0
0
0
0
0
0
0
0
0
0
0
0
0
0
0
0
0
0
0
0
0
0
0
0
0
0
0
0
0
0
0
0
0
0
0
0
0
0
0
0
0
0
0
0
0
0
0
0
0
0
0
0
0
0
0
0
0
0
0
0
0
0
0
0
0
0
0
0
0
0
0
0
0
0
0
0
0
0
0
0
0
0
0
0
0
0
0
0
0
0
0
0
0
0
0
0
0
0
0
0
0
0
0
0
0
0
0
0
0
0
0
0
0
0
0
0
0
0
0
0
0
0
0
0
0
0
0
0
0
0
0
0
0
0
0
0
0
0
0
0
0
0
0
0
0
0
0
0
0
0
0
0
0
0
0
0
0
0
0
0
0
0
0
0
0
0
0
0
0
0
0
0
0
0
0
0
0
0
0
0
0
0
0
0
0
0
0
0
0
0
0
0
0
0
0
0
0
0
0
0
0
0
0
0
0
0
0
0
0
0
0
0
0
0
0
0
0
0
0
0
0
0
0
0
0
0
0
0
0
0
0
0
0
0
0
0
0
0
0
0
0
0
0
0
0
0
0
0
0
0
0
0
0
0
0
0
0
0
0
0
0
0
0
0
0
0
0
0
0
0
0
0
0
0
0
0
0
0
0
0
0
0
0
0
0
0
0
0
0
0
0
0
0
0
0
0
0
0
0
0
0
0
0
0
0
0
0
0
0
0
0
0
0
0
0
0
0
0
0
0
0
0
0
0
0
0
0
0
0
0
0
0
0
0
0
0
0
0
0
0
0
0
0
0
0
0
0
0
0
0
0
0
0
0
0
0
0
0
0
0
0
0
0
0
0
0
0
0
0
0
0
0
0
0
0
0
0
0
0
0
0
0
0
0
0
0
0
0
0
0
0
0
0
0
0
0
0
0
0
0
0
0
0
0
0
0
0
0
0
0
0
0
0
0
0
0
0
0
0
0
0
0
0
0
0
0
0
0
0
0
0
0
0
0
0
0
0
0
0
0
0
0
0
0
0
0
0
0
0
0
0
0
0
0
0
0
0
0
0
0
0
0
0
0
0
0
0
0
0
0
0
0
0
0
0
0
0
0
0
0
0
0
0
0
0
0
0
0
0
0
0
0
0
0
0
0
0
0
0
0
0
0
0
0
0
0
0
0
0
0
0
0
0
0
0
0
0
0
0
0
0
0
0
0
0
0
0
0
0
0
0
0
0
0
0
0
0
0
0
0
0
0
0
0
0
0
0
0
0
0
0
0
0
0
0
0
0
0
0
0
0
0
0
0
0
0
0
0
0
0
0
0
0
0
0
0
0
0
0
0
0
0
0
0
0
0
0
0
0
0
0
0
0
0
0
0
0
0
0
0
0
0
0
0
0
0
0
0
0
0
0
0
0
0
0
0
0
0
0
0
0
0
0
0
0
0
0
0
0
0
0
0
0
0
0
0
0
0
0
0
0
0
0
0
0
0
0
0
0
0
0
0
0
0
0
0
0
0
0
0
0
0
0
0
0
0
0
0
0
0
0
0
0
0
0
0
0
0
0
0
0
0
0
0
0
0
0
0
0
0
0
0
0
0
0
0
0
0
0
0
0
0
0
0
0
0
0
0
0
0
0
0
0
0
0
0
0
0
0
0
0
0
0
0
0
0
0
0
0
0
0
0
0
0
0
0
0
0
0
0
0
0
0
0
0
0
0
0
0
0
0
0
0
0
0
0
0
0
0
0
0
0
0
0
0
0
0
0
0
0
0
0
0
0
0
0
0
0
0
0
0
0
0
0
0
0
0
0
0
0
0
0
0
0
0
0
0
0
0
0
0
0
0
0
0
0
0
0
0
0
0
0
0
0
0
0
0
0
0
0
0
0
0
0
0
0
0
0
0
0
0
0
0
0
0
0
0
0
0
0
0
0
0
0
0
0
0
0
0
0
0
0
0
0
0
0
0
0
0
0
0
0
0
0
0
0
0
0
0
0
0
0
0
0
0
0
0
0
0
0
0
0
0
0
0
0
0
0
0
0
0
0
0
0
0
0
0
0
0
0
0
0
0
0
0
0
0
0
0
0
0
0
0
0
0
0
0
0
0
0
0
0
0
0
0
0
0
0
0
0
0
0
0
0
0
0
0
0
0
0
0
0
0
0
0
0
0
0
0
0
0
0
0
0
0
0
0
0
0
0
0
0
0
0
0
0
0
0
0
0
0
0
0
0
0
0
0
0
0
0
0
0
0
0
0
0
0
0
0
0
0
0
0
0
0
0
0
0
0
0
0
0
0
0
0
0
0
0
0
0
0
0
0
0
0
0
0
0
0
0
0
0
0
0
0
0
0
0
0
0
0
0
0
0
0
0
0
0
0
0
0
0
0
0
0
0
0
0
0
0
0
0
0
0
0
0
0
0
0
0
0
0
0
0
0
0
0
0
0
0
0
0
0
0
0
0
0
0
0
0
0
0
0
0
0
0
0
0
0
0
0
0
0
0
0
0
0
0
0
0
0
0
0
0
0
0
0
0
0
0
0
0
0
0
0
0
0
0
0
0
0
0
0
0
0
0
0
0
0
0
0
0
0
0
0
0
0
0
0
0
0
0
0
0
0
0
0
0
0
0
0
0
0
0
0
0
0
0
0
0
0
0
0
0
0
0
0
0
0
0
0
0
0
0
0
0
0
0
0
0
0
0
0
0
0
0
0
0
0
0
0
0
0
0
0
0
0
0
0
0
0
0
0
0
0
0
0
0
0
0
0
0
0
0
0
0
0
0
0
0
0
0
0
0
0
0
0
0
0
0
0
0
0
0
0
0
0
0
0
0
0
0
0
0
0
0
0
0
0
0
0
0
0
0
0
0
0
0
0
0
0
0
0
0
0
0
0
0
0
0
0
0
0
0
0
0
0
0
0
0
0
0
0
0
0
0
0
0
0
0
0
0
0
0
0
0
0
0
0
0
0
0
0
0
0
0
0
0
0
0
0
0
0
0
0
0
0
0
0
0
0
0
0
0
0
0
0
0
0
0
0
0
0
0
0
0
0
0
0
0
0
0
0
0
0
0
0
0
0
0
0
0
0
0
0
0
0
0
0
0
0
0
0
0
0
0
0
0
0
0
0
0
0
0
0
0
0
0
0
0
0
0
0
0
0
0
0
0
0
0
0
0
0
0
0
0
0
0
0
0
0
0
0
0
0
0
0
0
0
0
0
0
0
0
0
0
0
0
0
0
0
0
0
0
0
0
0
0
0
0
0
0
0
0
0
0
0
0
0
0
0
0
0
0
0
0
0
0
0
0
0
0
0
0
0
0
0
0
0
0
0
0
0
0
0
0
0
0
0
0
0
0
0
0
0
0
0
0
0
0
0
0
0
0
0
0
0
0
0
0
0
0
0
0
0
0
0
0
0
0
0
0
0
0
0
0
0
0
0
0
0
0
0
0
0
0
0
0
0
0
0
0
0
0
0
0
0
0
0
0
0
0
0
0
0
0
0
0
0
0
0
0
0
0
0
0
0
0
0
0
0
0
0
0
0
0
0
0
0
0
0
0
0
0
0
0
0
0
0
0
0
0
0
0
0
0
0
0
0
0
0
0
0
0
0
0
0
0
0
0
0
0
0
0
0
0
0
0
0
0
0
0
0
0
0
0
0
0
0
0
0
0
0
0
0
0
0
0
0
0
0
0
0
0
0
0
0
0
0
0
0
0
0
0
0
0
0
0
0
0
0
0
0
0
0
0
0
0
0
0
0
0
0
0
0
0
0
0
0
0
0
0
0
0
0
0
0
0
0
0
0
0
0
0
0
0
0
0
0
0
0
0
0
0
0
0
0
0
0
0
0
0
0
0
0
0
0
0
0
0
0
0
0
0
0
0
0
0
0
0
0
0
0
0
0
0
0
0
0
0
0
0
0
0
0
0
0
0
0
0
0
0
0
0
0
0
0
0
0
0
0
0
0
0
0
0
0
0
0
0
0
0
0
0
0
0
0
0
0
0
0
0
0
0
0
0
0
0
0
0
0
0
0
0
0
0
0
0
0
0
0
0
0
0
0
0
0
0
0
0
0
0
0
0
0
0
0
0
0
0
0
0
0
0
0
0
0
0
0
0
0
0
0
0
0
0
0
0
0
0
0
0
0
0
0
0
0
0
0
0
0
0
0
0
0
0
0
0
0
0
0
0
0
0
0
0
0
0
0
0
0
0
0
0
0
0
0
0
0
0
0
0
0
0
0
0
0
0
0
0
0
0
0
0
0
0
0
0
0
0
0
0
0
0
0
0
0
0
0
0
0
0
0
0
0
0
0
0
0
0
0
0
0
0
0
0
0
0
0
0
0
0
0
0
0
0
0
0
0
0
0
0
0
0
0
0
0
0
0
0
0
0
0
0
0
0
0
0
0
0
0
0
0
0
0
0
0
0
0
0
0
0
0
0
0
0
0
0
0
0
0
0
0
0
0
0
0
0
0
0
0
0
0
0
0
0
0
0
0
0
0
0
0
0
0
0
0
0
0
0
0
0
0
0
0
0
0
0
0
0
0
0
0
0
0
0
0
0
0
0
0
0
0
0
0
0
0
0
0
0
0
0
0
0
0
0
0
0
0
0
0
0
0
0
0
0
0
0
0
0
0
0
0
0
0
0
0
0
0
0
0
0
0
0
0
0
0
0
0
0
0
0
0
0
0
0
0
0
0
0
0
0
0
0
0
0
0
0
0
0
0
0
0
0
0
0
0
0
0
0
0
0
0
0
0
0
0
0
0
0
0
0
0
0
0
0
0
0
0
0
0
0
0
0
0
0
0
0
0
0
0
0
0
0
0
0
0
0
0
0
0
0
0
0
0
0
0
0
0
0
0
0
0
0
0
0
0
0
0
0
0
0
0
0
0
0
0
0
0
0
0
0
0
0
0
0
0
0
0
0
0
0
0
0
0
0
0
0
0
0
0
0
0
0
0
0
0
0
0
0
0
0
0
0
0
0
0
0
0
0
0
0
0
0
0
0
0
0
0
0
0
0
0
0
0
0
0
0
0
0
0
0
0
0
0
0
0
0
0
0
0
0
0
0
0
0
0
0
0
0
0
0
0
0
0
0
0
0
0
0
0
0
0
0
0
0
0
0
0
0
0
0
0
0
0
0
0
0
0
0
0
0
0
0
0
0
0
0
0
0
0
0
0
0
0
0
0
0
0
0
0
0
0
0
0
0
0
0
0
0
0
0
0
0
0
0
0
0
0
0
0
0
0
0
0
0
0
0
0
0
0
0
0
0
0
0
0
0
0
0
0
0
0
0
0
0
0
0
0
0
0
0
0
0
0
0
0
0
0
0
0
0
0
0
0
0
0
0
0
0
0
0
0
0
0
0
0
0
0
0
0
0
0
0
0
0
0
0
0
0
0
0
0
0
0
0
0
0
0
0
0
0
0
0
0
0
0
0
0
0
0
0
0
0
0
0
0
0
0
0
0
0
0
0
0
0
0
0
0
0
0
0
0
0
0
0
0
0
0
0
0
0
0
0
0
0
0
0
0
0
0
0
0
0
0
0
0
0
0
0
0
0
0
0
0
0
0
0
0
0
0
0
0
0
0
0
0
0
0
0
0
0
0
0
0
0
0
0
0
0
0
0
0
0
0
0
0
0
0
0
0
0
0
0
0
0
0
0
0
0
0
0
0
0
0
0
0
0
0
0
0
0
0
0
0
0
0
0
0
0
0
0
0
0
0
0
0
0
0
0
0
0
0
0
0
0
0
0
0
0
0
0
0
0
0
0
0
0
0
0
0
0
0
0
0
0
0
0
0
0
0
0
0
0
0
0
0
0
0
0
0
0
0
0
0
0
0
0
0
0
0
0
0
0
0
0
0
0
0
0
0
0
0
0
0
0
0
0
0
0
0
0
0
0
0
0
0
0
0
0
0
0
0
0
0
0
0
0
0
0
0
0
0
0
0
0
0
0
0
0
0
0
0
0
0
0
0
0
0
0
0
0
0
0
0
0
0
0
0
0
0
0
0
0
0
0
0
0
0
0
0
0
0
0
0
0
0
0
0
0
0
0
0
0
0
0
0
0
0
0
0
0
0
0
0
0
0
0
0
0
0
0
0
0
0
0
0
0
0
0
0
0
0
0
0
0
0
0
0
0
0
0
0
0
0
0
0
0
0
0
0
0
0
0
0
0
0
0
0
0
0
0
0
0
0
0
0
0
0
0
0
0
0
0
0
0
0
0
0
0
0
0
0
0
0
0
0
0
0
0
0
0
0
0
0
0
0
0
0
0
0
0
0
0
0
0
0
0
0
0
0
0
0
0
0
0
0
0
0
0
0
0
0
0
0
0
0
0
0
0
0
0
0
0
0
0
0
0
0
0
0
0
0
0
0
0
0
0
0
0
0
0
0
0
0
0
0
0
0
0
0
0
0
0
0
0
0
0
0
0
0
0
0
0
0
0
0
0
0
0
0
0
0
0
0
0
0
0
0
0
0
0
0
0
0
0
0
0
0
0
0
0
0
0
0
0
0
0
0
0
0
0
0
