4.23112
4.51275
4.79018
5.05913
5.31643
5.56021
5.78981
6.00545
6.20767
6.39603
6.56901
6.72436
6.8592
6.97014
7.05399
7.10861
7.13304
7.1276
7.09375
7.03361
6.94924
6.84188
6.71123
6.55581
6.37471
6.16808
5.93547
5.67694
5.39468
5.09294
4.77758
4.45534
4.13295
3.81644
3.51089
3.2204
2.9482
2.69686
2.46842
2.26426
2.085
1.93024
1.79853
1.68743
1.59347
1.51265
1.44091
1.37441
1.30971
1.24372
1.17344
1.09567
1.00682
0.902898
0.773559
0.571215
0.265964
-0.122821
-0.584852
-0.715978
0
1.886
4.91153
8.56729
11.9252
13.9526
13.9597
11.941
8.60082
5.02611
2.18879
0.562476
0.0463207
0.182541
0.380159
0.462639
0.53391
0.594441
0.646967
0.694617
0.740087
0.786312
0.836083
0.891613
0.954134
1.02363
1.09881
1.17724
1.256
1.33212
1.4033
1.46838
1.52761
1.58261
1.63606
1.69118
1.75128
1.8192
1.89701
1.98591
2.08644
2.19851
2.32155
2.4547
2.5969
2.74706
2.90412
3.06716
3.23542
3.40831
3.58534
3.76594
3.94931
4.13421
4.31876
4.4997
4.67156
4.82674
4.95712
5.0553
5.1146
5.12969
5.09699
5.01517
4.88559
4.71277
4.5046
4.2729
4.03144
3.79211
3.56308
3.3503
3.15895
2.99229
2.85138
2.7353
2.64153
2.5659
2.50305
2.44756
2.39462
2.34058
2.28313
2.22126
2.15497
2.08488
2.01179
1.93649
1.85954
1.78149
1.70301
1.6251
1.54914
1.47685
1.41016
1.35096
1.3009
1.26117
1.23238
1.21446
1.20668
1.20794
1.21639
1.22845
1.23933
1.24466
1.24146
1.22899
1.209
1.18523
1.16231
1.14445
1.13403
1.13101
1.13496
1.14471
1.15886
1.17612
1.19529
1.21509
1.23343
1.24764
1.25472
1.25193
1.23739
1.21046
1.17172
1.12272
1.0655
1.00281
0.936916
0.869642
0.802826
0.738509
0.678965
0.626703
0.5843
0.55501
0.544745
0.558518
0.58501
0.602798
0.587413
0.519215
0.390527
0.209127
-0.00334892
-0.263417
0
1.06801
3.10537
5.9563
9.072
11.6127
12.752
12.0533
9.70842
6.47864
3.35125
1.10324
0.0146782
-0.130599
0.193299
0.36062
0.508117
0.622346
0.69784
0.752627
0.795126
0.828762
0.856525
0.881297
0.905556
0.931155
0.959194
0.989998
1.02322
1.05814
1.09387
1.12974
1.16545
1.20124
1.23798
1.27699
1.31987
1.36821
1.42328
1.48578
1.55573
1.63256
1.7153
1.803
1.89507
1.99156
2.09329
2.20174
2.31866
2.44564
2.58363
2.73267
2.89177
3.05921
3.23304
3.4111
3.59
3.7631
3.91969
4.04556
4.1225
4.13279
4.06469
3.916
3.69469
3.41754
3.10813
2.79448
2.49547
2.21664
1.95872
1.72387
1.51437
1.33086
1.17253
1.03751
0.923398
0.828115
0.7498
0.686538
0.636944
0.599983
0.574713
0.560016
0.554414
0.555991
0.562451
0.571461
0.580287
0.586493
0.58849
0.585852
0.579369
0.570795
0.562312
0.555907
0.552913
0.553678
0.558211
0.566683
0.579683
0.598346
0.624124
0.658265
0.701154
0.751604
0.807137
0.864134
0.917904
0.963947
0.998946
1.02149
1.03235
1.03429
1.03139
1.02814
1.02842
1.03446
1.04736
1.06606
1.08647
1.1026
1.10832
1.09892
1.07221
1.02907
0.973234
0.910417
0.84693
0.788252
0.737346
0.694576
0.659028
0.62959
0.604465
0.581381
0.557717
0.530474
0.496469
0.452493
0.395653
0.323816
0.233245
0.122625
-0.00356312
-0.138225
-0.282288
0
1.04036
3.03182
5.80875
8.77983
11.084
11.9379
11.0074
8.58956
5.48411
2.61749
0.637877
-0.294355
-0.434199
-0.199956
-0.00710888
0.172816
0.330959
0.460909
0.57047
0.664912
0.745897
0.81377
0.869176
0.913507
0.94883
0.977664
1.00265
1.02621
1.05025
1.07607
1.10432
1.13537
1.16943
1.20686
1.24822
1.29439
1.3464
1.40533
1.47216
1.54756
1.63189
1.72518
1.82724
1.93784
2.05677
2.184
2.31957
2.46339
2.61493
2.77294
2.93519
3.09843
3.25857
3.41093
3.55074
3.67341
3.77455
3.84999
3.89603
3.9101
3.89
3.83404
3.74152
3.61343
3.45301
3.2659
3.05988
2.84397
2.62736
2.41729
2.21927
2.03726
1.87363
1.72946
1.6049
1.49955
1.41265
1.34322
1.29025
1.25216
1.22586
1.20725
1.19239
1.17827
1.16335
1.14769
1.13272
1.1205
1.11297
1.11101
1.11409
1.12103
1.13012
1.1395
1.14765
1.15384
1.15836
1.16257
1.16863
1.17914
1.19661
1.22282
1.25842
1.3027
1.35432
1.41024
1.46602
1.51728
1.56056
1.59391
1.61696
1.63052
1.63594
1.63435
1.62639
1.61211
1.59136
1.56448
1.53275
1.49853
1.46499
1.4355
1.41273
1.39781
1.39098
1.39127
1.39684
1.40543
1.41477
1.42294
1.42834
1.42955
1.42514
1.41362
1.3933
1.36067
1.30004
1.14126
0.806521
0.363531
-0.112663
-0.36488
0
1.29409
3.61478
6.66954
9.75476
11.9664
12.5775
11.3885
8.84035
5.80589
3.17572
1.47924
0.747844
0.656293
0.788089
0.866036
0.939271
1.00477
1.06028
1.10436
1.13663
1.15792
1.17023
1.17647
1.17993
1.18382
1.1908
1.20251
1.21977
1.24323
1.27331
1.31033
1.3545
1.40591
1.46443
1.52973
1.60129
1.67858
1.76111
1.84851
1.94046
2.03666
2.13682
2.24063
2.3479
2.45864
2.57319
2.69223
2.81669
2.94756
3.08564
3.23141
3.38501
3.54661
3.71714
3.89817
4.08722
4.27033
4.42517
4.52631
4.55356
4.49903
4.36862
4.17766
3.94471
3.68785
3.42622
3.17033
2.92423
2.69012
2.47012
2.26564
2.07677
1.90246
1.741
1.59062
1.4501
1.31918
1.19868
1.09013
0.995434
0.916391
0.854286
0.809653
0.782497
0.77177
0.775745
0.792073
0.818307
0.85137
0.887018
0.921135
0.950341
0.972531
0.987157
0.995142
0.998427
0.999352
1.00006
1.00201
1.00596
1.01239
1.02162
1.03403
1.05017
1.07081
1.09685
1.12924
1.16881
1.21623
1.27182
1.33559
1.40725
1.48587
1.56904
1.65221
1.72853
1.79023
1.83016
1.84299
1.82656
1.78285
1.71801
1.64142
1.56361
1.49372
1.43622
1.39013
1.35443
1.32706
1.30619
1.29133
1.28355
1.28487
1.29985
1.33241
1.37023
1.39101
1.36783
1.27704
1.06941
0.755617
0.370523
-0.0958584
0
0.978626
2.99939
5.89582
9.12099
11.8548
13.2874
12.965
11.0133
8.09557
5.1091
2.79366
1.46971
1.0264
1.11292
1.22626
1.29034
1.34182
1.37977
1.40516
1.42054
1.4295
1.43596
1.44342
1.45429
1.46984
1.49046
1.51595
1.5457
1.5789
1.61476
1.65255
1.69171
1.73182
1.77258
1.81379
1.85535
1.89735
1.94008
1.98418
2.03074
2.08137
2.13818
2.20363
2.28025
2.3703
2.47535
2.59598
2.73156
2.88029
3.03939
3.20544
3.37475
3.54375
3.70898
3.86639
4.01079
4.13683
4.24008
4.31566
4.35854
4.36394
4.32792
4.24791
4.12347
3.95689
3.75403
3.52506
3.28159
3.03536
2.796
2.56981
2.36189
2.1757
2.01271
1.87271
1.75419
1.65489
1.57226
1.50375
1.44703
1.39999
1.36083
1.32786
1.29921
1.27318
1.24854
1.2247
1.20182
1.18071
1.16256
1.14863
1.13987
1.13649
1.13833
1.14473
1.15467
1.16693
1.18036
1.19393
1.20683
1.21861
1.22925
1.23916
1.24915
1.26027
1.27359
1.28998
1.30984
1.3331
1.35926
1.3875
1.41688
1.44658
1.47604
1.50513
1.53407
1.56334
1.59342
1.6246
1.65674
1.68911
1.72032
1.74846
1.77114
1.78582
1.79031
1.783
1.76317
1.73118
1.68854
1.63785
1.58242
1.52588
1.47155
1.42182
1.37778
1.33961
1.3066
1.27718
1.24919
1.22003
1.18689
1.14692
1.09632
1.02567
0.903074
0.677381
0.367799
0.0139279
-0.257871
0
1.12854
3.30585
6.34302
9.61861
12.2272
13.3257
12.524
10.0981
6.87961
3.86524
1.76814
0.767938
0.577491
0.729869
0.771155
0.811807
0.851448
0.889147
0.923307
0.951551
0.97139
0.980778
0.978882
0.966871
0.948279
0.928681
0.914633
0.912157
0.925237
0.953468
0.9944
1.04491
1.10123
1.16007
1.2193
1.27834
1.33788
1.39925
1.46383
1.53238
1.60496
1.68137
1.76155
1.84583
1.9352
2.03124
2.1359
2.25099
2.37774
2.51638
2.66599
2.82448
2.98877
3.15512
3.31908
3.47528
3.61761
3.73931
3.83378
3.89597
3.92111
3.90491
3.84401
3.73672
3.58394
3.38992
3.16262
2.91374
2.65767
2.40666
2.16922
1.95224
1.76079
1.59743
1.46233
1.35346
1.26667
1.1971
1.14006
1.09181
1.05006
1.01398
0.983979
0.961275
0.947285
0.943075
0.948935
0.964146
0.98705
1.01539
1.0456
1.07351
1.09543
1.10884
1.1129
1.10847
1.09786
1.08413
1.07035
1.05891
1.05088
1.04638
1.04522
1.04698
1.05123
1.05772
1.06649
1.07792
1.09269
1.1116
1.13537
1.16441
1.19877
1.23762
1.27865
1.31793
1.35105
1.37437
1.386
1.38647
1.3786
1.36656
1.35458
1.34545
1.33983
1.33602
1.33118
1.32316
1.31216
1.30156
1.29745
1.30684
1.33565
1.39568
1.47842
1.56363
1.62882
1.65846
1.65002
1.61418
1.5694
1.53359
1.51683
1.5132
1.51633
1.51954
1.5165
1.50292
1.47729
1.44048
1.39446
1.34062
1.27881
1.20779
1.12352
1.00773
0.818492
0.562013
0.260942
-0.0715707
0
0.799392
2.58372
5.3266
8.57869
11.5155
13.2205
13.0935
11.1636
8.10339
4.91533
2.46338
1.12535
0.746908
0.873902
0.918
0.932243
0.941175
0.945647
0.946969
0.946601
0.945958
0.946318
0.948906
0.954963
0.965744
0.982398
1.00576
1.03613
1.07297
1.11502
1.16055
1.20756
1.25414
1.29891
1.34138
1.38223
1.42324
1.46708
1.51689
1.57567
1.64577
1.72841
1.82353
1.9298
2.04516
2.16747
2.29481
2.42567
2.55901
2.69403
2.82988
2.96546
3.09938
3.22998
3.35563
3.47465
3.58489
3.68295
3.76421
3.82386
3.85596
3.85371
3.81085
3.7234
3.5911
3.41831
3.21388
2.99002
2.76093
2.5376
2.32677
2.13337
1.96049
1.80912
1.67843
1.56632
1.47001
1.38652
1.31312
1.24755
1.18823
1.13424
1.08526
1.04137
1.0029
0.970152
0.943207
0.92181
0.905438
0.893447
0.885281
0.880674
0.879785
0.883218
0.891935
0.907059
0.92962
0.960339
0.999416
1.04649
1.10054
1.1596
1.22046
1.27857
1.32857
1.36569
1.38644
1.38936
1.37538
1.34771
1.31116
1.2711
1.23247
1.19893
1.17219
1.15302
1.14274
1.14253
1.15338
1.1766
1.21476
1.26543
1.31961
1.36655
1.39726
1.40781
1.40091
1.38504
1.37152
1.37056
1.3861
1.41805
1.4625
1.5085
1.54386
1.55899
1.54968
1.51801
1.47105
1.41791
1.36647
1.3207
1.28002
1.24278
1.20812
1.17553
1.14518
1.11769
1.09361
1.07283
1.054
1.03428
1.00949
0.974674
0.924751
0.855309
0.759944
0.623065
0.448656
0.245765
-0.0129805
0
0.684141
2.28723
4.783
7.75827
10.4605
12.0501
11.9703
10.2342
7.44387
4.5031
2.1915
0.854591
0.374387
0.383878
0.465458
0.525281
0.579722
0.628399
0.671517
0.70996
0.744176
0.774227
0.800177
0.822111
0.840313
0.855483
0.868798
0.881765
0.895854
0.912084
0.930758
0.95135
0.972739
0.993851
1.01431
1.03485
1.05742
1.08475
1.11987
1.16541
1.22265
1.29178
1.37283
1.46573
1.57018
1.68565
1.81134
1.94612
2.0885
2.2367
2.38871
2.54251
2.69602
2.84706
2.99269
3.12887
3.25063
3.35276
3.43009
3.47767
3.49122
3.46752
3.40454
3.30178
3.16058
2.98454
2.78059
2.55792
2.32609
2.09378
1.86787
1.65382
1.45612
1.27787
1.12083
0.985532
0.871555
0.777813
0.702766
0.644566
0.601195
0.570579
0.550393
0.537909
0.53028
0.524848
0.519418
0.512514
0.503576
0.493021
0.482162
0.472982
0.467752
0.46859
0.477094
0.494055
0.519297
0.551711
0.589419
0.630022
0.670977
0.709978
0.745279
0.775901
0.801716
0.823349
0.841977
0.859052
0.876006
0.893997
0.913741
0.935483
0.959029
0.98391
1.00954
1.03532
1.06072
1.08512
1.1078
1.12802
1.14524
1.15949
1.17168
1.18392
1.19938
1.22185
1.25533
1.30688
1.38289
1.47872
1.57623
1.65392
1.6933
1.68374
1.62474
1.52555
1.40264
1.27631
1.16622
1.08224
1.02493
0.992127
0.991701
1.03996
1.14811
1.29244
1.43204
1.52652
1.54585
1.47646
1.32159
1.09661
0.822514
0.520745
0.212374
0
0.254528
1.26202
3.21026
5.97248
9.02484
11.5589
12.7811
12.2705
10.1977
7.26262
4.36921
2.22347
1.08146
0.764991
0.879501
0.916868
0.950277
0.980575
1.0064
1.02576
1.03582
1.03404
1.01808
0.986689
0.940561
0.882826
0.818767
0.754802
0.697003
0.649481
0.614563
0.591274
0.576829
0.568127
0.563196
0.562079
0.566896
0.581164
0.608718
0.651623
0.709816
0.782672
0.869429
0.968949
1.0798
1.20052
1.32976
1.4664
1.60959
1.75863
1.91304
2.07236
2.23617
2.40388
2.57481
2.74795
2.92108
3.08873
3.24121
3.36746
3.4561
3.49765
3.48623
3.42015
3.30127
3.13399
2.92483
2.68534
2.43085
2.17339
1.92135
1.68112
1.45817
1.25681
1.07956
0.92731
0.799636
0.696182
0.615686
0.556564
0.517313
0.496346
0.491716
0.500879
0.520594
0.547299
0.576826
0.60466
0.62689
0.640738
0.644896
0.639653
0.626776
0.609168
0.590381
0.57409
0.563317
0.560002
0.565333
0.579905
0.603459
0.634917
0.672758
0.714451
0.756844
0.797011
0.832732
0.862782
0.886966
0.90588
0.92055
0.932073
0.941454
0.949492
0.956896
0.964332
0.97237
0.981344
0.991244
1.00162
1.01181
1.02135
1.03043
1.04014
1.05247
1.06993
1.09489
1.12879
1.17119
1.22113
1.27626
1.332
1.38249
1.42212
1.44645
1.45297
1.44146
1.41385
1.3737
1.32557
1.27421
1.22388
1.17749
1.13698
1.10356
1.07777
1.0593
1.04683
1.0379
1.02876
1.01459
0.98997
0.949461
0.887068
0.784225
0.624748
0.419179
0.187942
0
0.40473
1.72932
4.07212
7.14589
10.2758
12.5914
13.3619
12.3262
9.83832
6.72544
3.9153
2.03105
1.17948
1.03258
1.10259
1.07143
1.04561
1.03049
1.02913
1.04179
1.06612
1.098
1.13271
1.16614
1.19599
1.22166
1.24327
1.26178
1.27867
1.29568
1.31463
1.33726
1.36509
1.39925
1.44039
1.48857
1.5433
1.60391
1.6697
1.74004
1.8145
1.89286
1.97504
2.06103
2.15076
2.24401
2.3404
2.4394
2.54051
2.64338
2.74805
2.85501
2.96533
3.08058
3.20266
3.33439
3.48264
3.66004
3.86766
4.07615
4.24696
4.34595
4.3552
4.27702
4.12888
3.93281
3.70622
3.46027
3.20524
2.94752
2.69112
2.4394
2.19599
1.96519
1.75232
1.56383
1.40503
1.27881
1.18615
1.1257
1.0939
1.08534
1.09364
1.11238
1.13605
1.16055
1.18351
1.20365
1.22023
1.23274
1.2406
1.24309
1.23949
1.22933
1.21263
1.19001
1.16276
1.13269
1.10207
1.07321
1.04843
1.02991
1.01941
1.01806
1.02615
1.04299
1.06706
1.09609
1.12664
1.15528
1.17921
1.19678
1.20765
1.21267
1.21339
1.21147
1.20818
1.20421
1.19969
1.19454
1.18885
1.1832
1.17883
1.17757
1.1816
1.19293
1.21299
1.24247
1.28105
1.32755
1.37983
1.43501
1.48956
1.53927
1.57967
1.60727
1.61979
1.6166
1.59901
1.57028
1.53514
1.499
1.46694
1.44254
1.42684
1.41954
1.42
1.42683
1.43812
1.4516
1.46462
1.47374
1.47496
1.46382
1.43567
1.37757
1.23891
0.972323
0.612502
0.207887
0
0.406767
1.73725
4.10448
7.25916
10.5493
13.0839
14.0697
13.1714
10.6913
7.44666
4.39925
2.2459
1.18967
0.987765
1.19024
1.19198
1.19512
1.20099
1.21115
1.22692
1.24885
1.27648
1.30832
1.34231
1.37648
1.40954
1.44124
1.47212
1.50304
1.53459
1.56663
1.59839
1.62886
1.65723
1.68328
1.70772
1.73231
1.75963
1.79275
1.83469
1.88788
1.95394
2.03344
2.12585
2.22973
2.34308
2.46374
2.58983
2.71994
2.8533
2.98957
3.1286
3.27007
3.41315
3.55628
3.69699
3.83171
3.95601
4.06518
4.15438
4.21834
4.25151
4.24956
4.20882
4.12674
4.00273
3.83886
3.64044
3.41597
3.1764
2.93378
2.69874
2.47826
2.27772
2.09999
1.94557
1.81308
1.70003
1.6035
1.52083
1.4499
1.38922
1.33788
1.29542
1.2616
1.23627
1.2193
1.21045
1.20944
1.21579
1.22884
1.24766
1.27095
1.29712
1.32429
1.35043
1.37352
1.39184
1.40409
1.40953
1.40796
1.39969
1.38546
1.36628
1.3434
1.31819
1.29209
1.26662
1.24337
1.22396
1.20998
1.20289
1.20379
1.21335
1.23161
1.2579
1.29088
1.32861
1.36882
1.4092
1.44777
1.48307
1.51418
1.54073
1.56272
1.58062
1.59518
1.6074
1.61851
1.62986
1.64286
1.65874
1.67832
1.70181
1.7286
1.75744
1.78646
1.81333
1.83571
1.85167
1.85984
1.85952
1.85051
1.8329
1.80674
1.77198
1.72856
1.67691
1.61794
1.5535
1.48655
1.42074
1.35974
1.30638
1.26282
1.22786
1.1936
1.14815
1.07854
0.974091
0.811467
0.59768
0.353622
0
0.232647
1.4275
3.72555
6.87521
10.2069
12.8115
13.8783
13.0472
10.5873
7.29005
4.11989
1.80662
0.598322
0.285131
0.433101
0.481395
0.52515
0.562137
0.590852
0.611654
0.625964
0.636091
0.644616
0.653781
0.66504
0.678907
0.695114
0.7129
0.731394
0.749954
0.768349
0.786775
0.805729
0.825843
0.847758
0.872059
0.899375
0.930398
0.965892
1.00664
1.05335
1.10652
1.16644
1.23315
1.3068
1.38764
1.4762
1.57327
1.6798
1.79666
1.92442
2.06304
2.21169
2.36862
2.53116
2.69594
2.85823
3.01135
3.14796
3.26115
3.34384
3.38936
3.39271
3.35017
3.25978
3.12201
2.94034
2.72155
2.47529
2.21319
1.94778
1.68863
1.44192
1.21355
1.00809
0.828662
0.676808
0.552501
0.454238
0.379513
0.325115
0.286614
0.258615
0.236235
0.215708
0.194774
0.172789
0.150482
0.129462
0.111567
0.0981877
0.0897034
0.0857637
0.0854403
0.0873144
0.0898949
0.0920084
0.0930908
0.0933224
0.0935802
0.0952282
0.0997938
0.108606
0.122442
0.141339
0.164598
0.190895
0.218407
0.245087
0.268945
0.288307
0.302061
0.309789
0.311807
0.309116
0.303271
0.296153
0.289688
0.28555
0.284914
0.288343
0.295777
0.30668
0.320243
0.335552
0.351678
0.367646
0.382289
0.394312
0.402377
0.405363
0.402715
0.394785
0.383008
0.369851
0.358501
0.352348
0.353998
0.365182
0.38811
0.423384
0.465664
0.504855
0.530215
0.533474
0.511399
0.466826
0.407702
0.344449
0.28662
0.238954
0.200429
0.168806
0.142054
0.117865
0.094376
0.0706215
0.0465902
0.0228725
0
-0.0169588
-0.0351759
-0.058382
-0.0920212
-0.149987
-0.301298
-0.58476
-0.975475
-1.42338
-1.51336
-0.714463
1.27927
4.3874
8.03184
11.2567
13.0788
12.9153
10.8614
7.65034
4.3054
1.68049
0.144431
-0.438176
-0.473044
-0.373525
-0.302896
-0.23715
-0.177749
-0.125635
-0.0804585
-0.0416061
-0.00821247
0.0208994
0.0471018
0.0718798
0.0967455
0.123151
0.152411
0.185624
0.22356
0.266513
0.314381
0.366578
0.420965
0.473939
0.522053
0.563291
0.598094
0.62969
0.663475
0.705632
0.761482
0.833648
0.920248
1.0189
1.12787
1.24552
1.37044
1.50175
1.63905
1.78239
1.932
2.08814
2.25093
2.42055
2.59743
2.78237
2.97655
3.1802
3.38673
3.57828
3.72893
3.80841
3.7911
3.66679
3.44628
3.15817
2.83864
2.52142
2.22421
1.94669
1.68683
1.44683
1.23033
1.04019
0.878276
0.745411
0.641021
0.563266
0.509971
0.478111
0.462983
0.459907
0.464763
0.474401
0.486822
0.501081
0.51694
0.534398
0.553224
0.57265
0.591342
0.607554
0.619539
0.626029
0.62669
0.622399
0.615275
0.608401
0.605284
0.609128
0.621972
0.644806
0.677314
0.716224
0.756699
0.793911
0.824324
0.846579
0.861713
0.872652
0.883164
0.896616
0.914636
0.937455
0.963397
0.989364
1.01212
1.02939
1.04054
1.04665
1.0499
1.05256
1.05603
1.06027
1.06411
1.06592
1.06477
1.06128
1.05798
1.05897
1.06893
1.09181
1.12857
1.17775
1.2376
1.30501
1.37598
1.44619
1.5112
1.56692
1.61017
1.63872
1.6513
1.64762
1.62837
1.59508
1.55
1.49598
1.4363
1.37464
1.31455
1.25933
1.21203
1.17511
1.15089
1.14099
1.1424
1.14521
1.13649
1.10281
1.03309
0.921045
0.752488
0.537868
0.295493
0
0.0970017
0.883203
2.59904
5.2377
8.42073
11.4228
13.3892
13.6738
12.1366
9.23702
5.8522
2.90414
0.990371
0.206556
0.230894
0.519724
0.568671
0.609626
0.643005
0.6705
0.695036
0.720273
0.749817
0.785885
0.829121
0.879183
0.934773
0.992945
1.04965
1.10107
1.14451
1.17896
1.20521
1.22556
1.2432
1.2615
1.28338
1.31059
1.34428
1.38545
1.43488
1.49321
1.5609
1.63822
1.72521
1.82168
1.92725
2.04146
2.16382
2.29385
2.43102
2.57472
2.7242
2.87856
3.03685
3.19823
3.36216
3.52857
3.69806
3.87198
4.04973
4.22014
4.36016
4.43987
4.43099
4.31649
4.09774
3.79624
3.44875
3.09751
2.77116
2.47025
2.18973
1.93059
1.69549
1.48658
1.30571
1.15449
1.03357
0.943064
0.885107
0.860849
0.865068
0.886454
0.912943
0.933913
0.942098
0.934659
0.913211
0.882846
0.850503
0.823037
0.804782
0.797052
0.799165
0.809463
0.826137
0.846775
0.868993
0.890998
0.911877
0.931656
0.951099
0.971343
0.993474
1.01817
1.04549
1.07483
1.10528
1.13567
1.16469
1.19101
1.21333
1.23056
1.24185
1.24674
1.24534
1.23837
1.22723
1.2138
1.20018
1.18832
1.17969
1.1752
1.1752
1.17962
1.18824
1.20089
1.21774
1.23936
1.26674
1.30104
1.34363
1.39661
1.46204
1.53615
1.60732
1.66152
1.6864
1.67525
1.62904
1.55579
1.46776
1.37785
1.29596
1.22512
1.16552
1.11738
1.08089
1.05579
1.04104
1.03487
1.03479
1.03765
1.03937
1.03464
1.01761
0.982421
0.923871
0.837094
0.703179
0.528015
0.324595
-0.0222365
0
0.784093
2.57059
5.29399
8.48284
11.3312
12.968
12.8258
10.9214
7.87743
4.64904
2.09762
0.650424
0.221789
0.399723
0.558303
0.660131
0.74527
0.812374
0.864938
0.906419
0.939226
0.965898
0.988763
1.00968
1.03001
1.05065
1.07219
1.09507
1.11969
1.1465
1.17606
1.20904
1.24615
1.28811
1.33553
1.38872
1.44756
1.51149
1.5795
1.65026
1.72253
1.79555
1.8692
1.94396
2.02071
2.10036
2.18359
2.27062
2.36141
2.45587
2.55395
2.65557
2.76062
2.86867
2.97887
3.08967
3.19856
3.30168
3.39345
3.46715
3.51625
3.53413
3.51458
3.4525
3.34478
3.19109
2.99458
2.76213
2.50425
2.2344
1.9649
1.70493
1.46213
1.24252
1.04995
0.886011
0.750314
0.641088
0.556097
0.492842
0.448319
0.419858
0.405222
0.402451
0.409648
0.424834
0.445916
0.470784
0.4975
0.524482
0.550699
0.575616
0.599122
0.62137
0.642564
0.662719
0.681474
0.698118
0.711911
0.722465
0.730219
0.736689
0.744321
0.75593
0.773872
0.799248
0.831078
0.866984
0.904069
0.939115
0.969213
0.992262
1.00724
1.0142
1.01412
1.00864
0.999581
0.988681
0.977365
0.966631
0.957037
0.948866
0.94239
0.938165
0.93728
0.941467
0.952999
0.974353
1.00802
1.05851
1.13098
1.2225
1.31756
1.3974
1.44556
1.45264
1.41872
1.35252
1.26794
1.17939
1.09749
1.02524
0.961617
0.905504
0.856559
0.815091
0.78168
0.756937
0.74143
0.734967
0.73484
0.733591
0.720055
0.681791
0.607672
0.490526
0.314006
0.0889345
-0.163231
-0.396763
0
1.29395
3.51829
6.36151
9.19111
11.2314
11.8521
10.848
8.55598
5.72028
3.15893
1.41314
0.577154
0.384776
0.44205
0.459668
0.478203
0.499752
0.526346
0.559661
0.601072
0.651375
0.710677
0.77837
0.853213
0.933463
1.01705
1.10175
1.18503
1.26364
1.33372
1.39199
1.43591
1.46438
1.47854
1.48211
1.48128
1.48384
1.49788
1.53025
1.58336
1.65609
1.74609
1.8507
1.96679
2.09113
2.22098
2.3546
2.49149
2.6324
2.779
2.93335
3.09726
3.27307
3.4645
3.66987
3.8752
4.0609
4.20887
4.30659
4.34832
4.3337
4.26537
4.14721
3.98402
3.78389
3.55759
3.31574
3.06819
2.8227
2.58447
2.35782
2.14753
1.95788
1.79223
1.65308
1.54204
1.45897
1.40091
1.36126
1.33133
1.30284
1.26934
1.22715
1.1757
1.11705
1.05502
0.99411
0.938364
0.890276
0.852601
0.827292
0.815678
0.818454
0.835547
0.865962
0.907717
0.957941
1.01313
1.06955
1.12373
1.17273
1.2144
1.24756
1.27196
1.28825
1.29772
1.30198
1.30264
1.30109
1.29839
1.29521
1.29202
1.2893
1.28775
1.28844
1.29298
1.30341
1.32216
1.35174
1.39431
1.4523
1.52933
1.62737
1.74157
1.85763
1.95725
2.02394
2.04641
2.02096
1.95227
1.85279
1.7401
1.63285
1.54491
1.47872
1.42951
1.39233
1.36399
1.34103
1.31976
1.29651
1.26786
1.23065
1.18189
1.11884
1.03869
0.931568
0.772722
0.565177
0.319907
0.00919127
0
0.724483
2.43661
5.08934
8.23978
11.1191
12.8799
12.9378
11.2449
8.34088
5.13111
2.49657
0.939693
0.448094
0.623465
0.79818
0.854415
0.898683
0.933906
0.964523
0.993905
1.02485
1.05927
1.09798
1.14085
1.18688
1.2344
1.28145
1.32613
1.36697
1.40317
1.43476
1.46258
1.48818
1.51353
1.5408
1.57203
1.60885
1.65237
1.70311
1.76101
1.82569
1.89666
1.97364
2.05671
2.1465
2.24414
2.35101
2.46852
2.59776
2.73918
2.89245
3.0564
3.22908
3.4082
3.59098
3.77333
3.94834
4.10523
4.23342
4.32283
4.36495
4.35471
4.29175
4.18025
4.02729
3.84083
3.62865
3.40223
3.17115
2.94167
2.71877
2.50719
2.31111
2.13359
1.97637
1.83982
1.72324
1.62527
1.54432
1.47886
1.42752
1.38902
1.36206
1.3452
1.3369
1.33532
1.33855
1.34497
1.35346
1.3636
1.37552
1.38973
1.40671
1.42655
1.44878
1.47208
1.49443
1.51375
1.52851
1.53815
1.54323
1.54525
1.54613
1.54771
1.55129
1.55733
1.56582
1.57668
1.58983
1.60547
1.62403
1.6461
1.67217
1.70237
1.73642
1.77344
1.81173
1.84938
1.88498
1.91795
1.94868
1.97823
2.00768
2.03743
2.06579
2.0887
2.10071
2.09679
2.07425
2.03396
1.98045
1.92081
1.86278
1.81228
1.77132
1.7394
1.71525
1.69645
1.68008
1.66333
1.64368
1.61887
1.58658
1.5441
1.48783
1.39478
1.18029
0.850356
0.445122
0
0.0514807
0.96406
2.94848
5.86747
9.16349
11.9777
13.4578
13.1263
11.1139
8.11104
5.05218
2.70595
1.398
0.991731
1.08707
1.11862
1.1294
1.13797
1.14774
1.16215
1.18372
1.21349
1.25081
1.29378
1.33984
1.38645
1.43162
1.47394
1.51207
1.54515
1.57277
1.59504
1.61284
1.62788
1.64258
1.65973
1.68207
1.71169
1.74952
1.79592
1.85096
1.91439
1.98576
2.06468
2.151
2.24496
2.34716
2.45841
2.57951
2.71091
2.85237
3.00276
3.15997
3.32106
3.48249
3.64018
3.78969
3.92669
4.04706
4.1464
4.21942
4.26069
4.26566
4.22971
4.1491
4.02213
3.85043
3.63969
3.39961
3.14288
2.88365
2.63304
2.39821
2.18539
1.99855
1.83935
1.70786
1.6023
1.51869
1.45254
1.39958
1.35637
1.32066
1.29135
1.26832
1.252
1.24283
1.24122
1.24717
1.26031
1.27982
1.30437
1.33253
1.36258
1.39265
1.42106
1.44663
1.46883
1.48778
1.50408
1.51846
1.53137
1.54275
1.55204
1.5584
1.56121
1.56053
1.55739
1.5537
1.55188
1.55419
1.56208
1.5757
1.59409
1.61525
1.63698
1.65768
1.67699
1.696
1.71698
1.74268
1.77544
1.81608
1.86437
1.91784
1.97091
2.01706
2.05033
2.06666
2.06452
2.04496
2.0109
1.96625
1.91513
1.86143
1.80776
1.75581
1.70677
1.66141
1.61985
1.58162
1.5458
1.51122
1.47661
1.44057
1.40147
1.35722
1.30508
1.24106
1.14767
0.969845
0.708442
0.393401
0
0.148701
1.26243
3.52879
6.69316
10.0357
12.5929
13.5498
12.6058
10.1107
6.89379
3.88182
1.72398
0.612087
0.345234
0.541632
0.614663
0.683661
0.745785
0.799397
0.844415
0.881487
0.911312
0.935114
0.954017
0.96919
0.982137
0.994876
1.00984
1.02943
1.05547
1.08834
1.12686
1.1692
1.21308
1.25596
1.29567
1.33086
1.36129
1.388
1.41312
1.43966
1.47113
1.51106
1.5625
1.62779
1.70843
1.80496
1.91688
2.04274
2.18029
2.32677
2.47924
2.63493
2.79154
2.9475
3.10191
3.25443
3.40477
3.55182
3.69051
3.80922
3.88982
3.91256
3.86255
3.73488
3.53617
3.28253
2.9956
2.69946
2.41188
2.13924
1.88588
1.65718
1.45706
1.28852
1.15267
1.0467
0.966176
0.905945
0.861089
0.827654
0.803036
0.785959
0.776111
0.773527
0.77777
0.788204
0.803941
0.823237
0.843356
0.86151
0.87556
0.884568
0.889063
0.890909
0.892794
0.897482
0.907052
0.921937
0.941323
0.963908
0.987664
1.01021
1.02943
1.04392
1.05329
1.05823
1.06038
1.0619
1.065
1.07141
1.08186
1.09632
1.11362
1.1321
1.15025
1.16722
1.18314
1.19912
1.21688
1.23831
1.26494
1.29724
1.33494
1.37734
1.42317
1.47023
1.51519
1.5541
1.58291
1.59802
1.59682
1.57825
1.54302
1.49358
1.4338
1.36839
1.30235
1.23987
1.18403
1.13697
1.10022
1.07451
1.05969
1.05468
1.05751
1.06476
1.07072
1.06799
1.04848
1.00435
0.922036
0.761822
0.52931
0.242322
-0.0764761
0
0.860168
2.7368
5.56693
8.88436
11.8872
13.7062
13.7681
12.0664
9.17673
5.9974
3.3576
1.70948
1.04902
1.06001
1.26512
1.34899
1.42188
1.48367
1.53607
1.58293
1.62806
1.67545
1.72847
1.78891
1.8571
1.93209
2.01181
2.09358
2.17452
2.25217
2.32483
2.39169
2.45267
2.50788
2.5573
2.60041
2.63592
2.66184
2.67585
2.67603
2.6617
2.6341
2.59676
2.5553
2.51696
2.48961
2.48002
2.49371
2.53466
2.60473
2.70367
2.82947
2.97875
3.14646
3.3312
3.53141
3.73782
3.9313
4.09052
4.19621
4.23566
4.20523
4.10945
3.95725
3.75831
3.52203
3.26447
3.00035
2.73918
2.48729
2.24937
2.02974
1.83192
1.65801
1.50863
1.38303
1.27946
1.19538
1.12774
1.07344
1.02958
0.993671
0.963741
0.938404
0.916811
0.89862
0.8839
0.873002
0.866377
0.864361
0.86715
0.874455
0.88506
0.896988
0.908241
0.917457
0.924446
0.930382
0.937542
0.948625
0.965869
0.990119
1.02023
1.05418
1.0887
1.12007
1.1448
1.16031
1.1654
1.16041
1.14721
1.12894
1.10956
1.09323
1.08367
1.08357
1.09428
1.11604
1.14786
1.1877
1.23287
1.28041
1.32747
1.3716
1.41078
1.44343
1.46836
1.48466
1.4916
1.48864
1.47543
1.45195
1.41867
1.3766
1.32747
1.27362
1.21791
1.16341
1.113
1.06904
1.03313
1.00588
0.986522
0.972816
0.961484
0.948536
0.929629
0.900409
0.856827
0.795431
0.703826
0.559317
0.369747
0.151999
-0.155393
0
0.964829
2.88444
5.58265
8.53975
11.0089
12.2589
11.8669
9.92608
7.04216
4.08867
1.83235
0.630609
0.361236
0.596752
0.654367
0.707126
0.755504
0.798863
0.837723
0.873251
0.907227
0.94183
0.979375
1.02198
1.0711
1.12709
1.18888
1.25404
1.31835
1.37723
1.42687
1.46532
1.49301
1.51275
1.52906
1.5472
1.57177
1.60559
1.65021
1.70634
1.77384
1.85199
1.93996
2.03716
2.14351
2.2595
2.38604
2.52413
2.67438
2.83665
3.00963
3.19075
3.37655
3.56157
3.73765
3.89652
4.03073
4.13434
4.20311
4.23431
4.22627
4.17793
4.08885
3.95987
3.79499
3.59844
3.37634
3.137
2.89095
2.64774
2.41509
2.20003
2.00809
1.84288
1.70583
1.5963
1.51182
1.44882
1.40291
1.36881
1.34169
1.3177
1.29435
1.27059
1.24658
1.22334
1.20224
1.18461
1.17135
1.16312
1.16033
1.16321
1.17192
1.18644
1.20659
1.23181
1.26114
1.29321
1.32629
1.35845
1.3875
1.4115
1.42904
1.43947
1.44314
1.44149
1.43694
1.43249
1.43125
1.43587
1.4478
1.46744
1.49474
1.52911
1.5696
1.61512
1.66456
1.71689
1.77098
1.8255
1.8788
1.92872
1.97229
2.00613
2.02737
2.0339
2.02499
2.00175
1.96724
1.92613
1.88383
1.84542
1.81415
1.79076
1.775
1.76411
1.75396
1.74001
1.71816
1.68526
1.63936
1.57943
1.50491
1.41535
1.3095
1.1724
0.962047
0.683319
0.353917
-0.00241394
0
0.749509
2.53907
5.3554
8.72918
11.7919
13.5821
13.479
11.5213
8.40668
5.15503
2.6337
1.22022
0.769994
0.84562
0.907149
0.947005
0.986227
1.02826
1.07585
1.13094
1.19417
1.26486
1.34134
1.42139
1.5028
1.58398
1.66409
1.74295
1.82096
1.89898
1.97809
2.05937
2.14372
2.23186
2.32424
2.42114
2.52269
2.62883
2.73927
2.85336
2.97011
3.08831
3.20675
3.32464
3.44192
3.55946
3.679
3.8028
3.93313
4.07166
4.21905
4.37459
4.53633
4.70135
4.86576
5.02459
5.17163
5.29913
5.39903
5.46552
5.49345
5.47873
5.41916
5.31509
5.16988
4.9898
4.78335
4.56098
4.33336
4.10781
3.88932
3.68234
3.49043
3.31611
3.16088
3.02513
2.90834
2.80925
2.72601
2.65649
2.59874
2.55136
2.51366
2.48567
2.4678
2.46151
2.46902
2.48999
2.51722
2.54127
2.55336
2.54849
2.52744
2.4967
2.46627
2.44605
2.44223
2.45203
2.47127
2.49413
2.51399
2.52521
2.52431
2.51043
2.48489
2.45019
2.40885
2.36281
2.31323
2.26056
2.20497
2.14706
2.08816
2.03078
1.97841
1.93484
1.90351
1.88689
1.88614
1.90092
1.92961
1.9695
2.01711
2.06827
2.11857
2.16234
2.19392
2.20818
2.20126
2.17134
2.11918
2.04813
1.9638
1.87328
1.7842
1.70259
1.63246
1.57722
1.54032
1.5248
1.53129
1.55578
1.58932
1.62038
1.63788
1.63296
1.60013
1.53765
1.41103
1.07607
0.573744
0.0098433
-0.52762
-0.645493
0
1.70034
4.46593
7.87006
11.0851
13.1559
13.4121
11.796
8.90311
5.69149
3.02878
1.34666
0.586124
0.404959
0.452691
0.47054
0.484737
0.494206
0.499009
0.500508
0.501167
0.504031
0.512036
0.527363
0.550676
0.581466
0.618623
0.660486
0.705234
0.751278
0.797516
0.8434
0.888939
0.93461
0.981237
1.02983
1.08144
1.13698
1.19721
1.26268
1.33398
1.41176
1.49707
1.59139
1.69663
1.81479
1.94754
2.09575
2.25915
2.43597
2.62334
2.81744
3.01378
3.20724
3.39078
3.5569
3.69955
3.81375
3.89578
3.94313
3.95408
3.92722
3.86116
3.75492
3.61164
3.43593
3.23279
3.00993
2.77709
2.54476
2.32166
2.11313
1.92346
1.75487
1.60764
1.48059
1.37159
1.27805
1.19738
1.12726
1.06587
1.01202
0.965268
0.925871
0.894533
0.871983
0.858806
0.855116
0.860347
0.873228
0.891949
0.914458
0.938781
0.963256
0.986698
1.00826
1.0273
1.04342
1.05631
1.06588
1.0722
1.07561
1.07662
1.07581
1.07383
1.07127
1.06875
1.06704
1.06711
1.07022
1.07779
1.09112
1.1111
1.13787
1.17069
1.20801
1.24735
1.28609
1.32204
1.35388
1.38139
1.40532
1.42706
1.4482
1.47007
1.49349
1.51871
1.5456
1.57372
1.60243
1.6309
1.65803
1.68252
1.70296
1.71798
1.72653
1.72804
1.72257
1.71068
1.6933
1.67139
1.64584
1.61732
1.58642
1.55372
1.51999
1.48622
1.45348
1.42259
1.39375
1.36607
1.3373
1.30389
1.26136
1.20483
1.12078
0.969016
0.733628
0.432822
0.0966654
0
0.603555
2.23146
4.9389
8.35264
11.6807
13.9576
14.4444
12.9785
10.0646
6.64103
3.65433
1.68198
0.793868
0.677509
0.874019
0.94475
1.01169
1.07551
1.13775
1.20024
1.26401
1.32933
1.3952
1.45854
1.51493
1.55997
1.59063
1.60641
1.60963
1.60498
1.59836
1.59538
1.59994
1.61303
1.6341
1.66234
1.69702
1.73763
1.78419
1.83732
1.89814
1.96806
2.0484
2.14014
2.24373
2.359
2.48527
2.62149
2.76647
2.91896
3.07777
3.24173
3.40967
3.58041
3.75272
3.92541
4.09723
4.26663
4.43087
4.58426
4.7172
4.81485
4.85772
4.82725
4.71245
4.51466
4.24817
3.93717
3.61035
3.29266
2.99227
2.71083
2.45244
2.22078
2.01818
1.84568
1.70316
1.58939
1.50227
1.43899
1.39623
1.37051
1.35812
1.35523
1.35822
1.36386
1.36947
1.37295
1.37303
1.3693
1.3622
1.35299
69
217
364
507
651
802
963
1125
1282
1441
1602
1766
1935
2104
2267
2428
2581
2731
2885
3042
3197
3348
3503
3664
3725
3722
0
0
0
0
0
0
0
0
0
0
0
0
0
0
0
0
0
0
0
0
0
0
0
0
0
0
0
0
0
0
0
0
0
0
0
0
0
0
0
0
0
0
0
0
0
0
0
0
0
0
0
0
0
0
0
0
0
0
0
0
0
0
0
0
0
0
0
0
0
0
0
0
0
0
0
0
0
0
0
0
0
0
0
0
0
0
0
0
0
0
0
0
0
0
0
0
0
0
0
0
0
0
0
0
0
0
0
0
0
0
0
0
0
0
0
0
0
0
0
0
0
0
0
0
0
0
0
0
0
0
0
0
0
0
0
0
0
0
0
0
0
0
0
0
0
0
0
0
0
0
0
0
0
0
0
0
0
0
0
0
0
0
0
0
0
0
0
0
0
0
0
0
0
0
0
0
0
0
0
0
0
0
0
0
0
0
0
0
0
0
0
0
0
0
0
0
0
0
0
0
0
0
0
0
0
0
0
0
0
0
0
0
0
0
0
0
0
0
0
0
0
0
0
0
0
0
0
0
0
0
0
0
0
0
0
0
0
0
0
0
0
0
0
0
0
0
0
0
0
0
0
0
0
0
0
0
0
0
0
0
0
0
0
0
0
0
0
0
0
0
0
0
0
0
0
0
0
0
0
0
0
0
0
0
0
0
0
0
0
0
0
0
0
0
0
0
0
0
0
0
0
0
0
0
0
0
0
0
0
0
0
0
0
0
0
0
0
0
0
0
0
0
0
0
0
0
0
0
0
0
0
0
0
0
0
0
0
0
0
0
0
0
0
0
0
0
0
0
0
0
0
0
0
0
0
0
0
0
0
0
0
0
0
0
0
0
0
0
0
0
0
0
0
0
0
0
0
0
0
0
0
0
0
0
0
0
0
0
0
0
0
0
0
0
0
0
0
0
0
0
0
0
0
0
0
0
0
0
0
0
0
0
0
0
0
0
0
0
0
0
0
0
0
0
0
0
0
0
0
0
0
0
0
0
0
0
0
0
0
0
0
0
0
0
0
0
0
0
0
0
0
0
0
0
0
0
0
0
0
0
0
0
0
0
0
0
0
0
0
0
0
0
0
0
0
0
0
0
0
0
0
0
0
0
0
0
0
0
0
0
0
0
0
0
0
0
0
0
0
0
0
0
0
0
0
0
0
0
0
0
0
0
0
0
0
0
0
0
0
0
0
0
0
0
0
0
0
0
0
0
0
0
0
0
0
0
0
0
0
0
0
0
0
0
0
0
0
0
0
0
0
0
0
0
0
0
0
0
0
0
0
0
0
0
0
0
0
0
0
0
0
0
0
0
0
0
0
0
0
0
0
0
0
0
0
0
0
0
0
0
0
0
0
0
0
0
0
0
0
0
0
0
0
0
0
0
0
0
0
0
0
0
0
0
0
0
0
0
0
0
0
0
0
0
0
0
0
0
0
0
0
0
0
0
0
0
0
0
0
0
0
0
0
0
0
0
0
0
0
0
0
0
0
0
0
0
0
0
0
0
0
0
0
0
0
0
0
0
0
0
0
0
0
0
0
0
0
0
0
0
0
0
0
0
0
0
0
0
0
0
0
0
0
0
0
0
0
0
0
0
0
0
0
0
0
0
0
0
0
0
0
0
0
0
0
0
0
0
0
0
0
0
0
0
0
0
0
0
0
0
0
0
0
0
0
0
0
0
0
0
0
0
0
0
0
0
0
0
0
0
0
0
0
0
0
0
0
0
0
0
0
0
0
0
0
0
0
0
0
0
0
0
0
0
0
0
0
0
0
0
0
0
0
0
0
0
0
0
0
0
0
0
0
0
0
0
0
0
0
0
0
0
0
0
0
0
0
0
0
0
0
0
0
0
0
0
0
0
0
0
0
0
0
0
0
0
0
0
0
0
0
0
0
0
0
0
0
0
0
0
0
0
0
0
0
0
0
0
0
0
0
0
0
0
0
0
0
0
0
0
0
0
0
0
0
0
0
0
0
0
0
0
0
0
0
0
0
0
0
0
0
0
0
0
0
0
0
0
0
0
0
0
0
0
0
0
0
0
0
0
0
0
0
0
0
0
0
0
0
0
0
0
0
0
0
0
0
0
0
0
0
0
0
0
0
0
0
0
0
0
0
0
0
0
0
0
0
0
0
0
0
0
0
0
0
0
0
0
0
0
0
0
0
0
0
0
0
0
0
0
0
0
0
0
0
0
0
0
0
0
0
0
0
0
0
0
0
0
0
0
0
0
0
0
0
0
0
0
0
0
0
0
0
0
0
0
0
0
0
0
0
0
0
0
0
0
0
0
0
0
0
0
0
0
0
0
0
0
0
0
0
0
0
0
0
0
0
0
0
0
0
0
0
0
0
0
0
0
0
0
0
0
0
0
0
0
0
0
0
0
0
0
0
0
0
0
0
0
0
0
0
0
0
0
0
0
0
0
0
0
0
0
0
0
0
0
0
0
0
0
0
0
0
0
0
0
0
0
0
0
0
0
0
0
0
0
0
0
0
0
0
0
0
0
0
0
0
0
0
0
0
0
0
0
0
0
0
0
0
0
0
0
0
0
0
0
0
0
0
0
0
0
0
0
0
0
0
0
0
0
0
0
0
0
0
0
0
0
0
0
0
0
0
0
0
0
0
0
0
0
0
0
0
0
0
0
0
0
0
0
0
0
0
0
0
0
0
0
0
0
0
0
0
0
0
0
0
0
0
0
0
0
0
0
0
0
0
0
0
0
0
0
0
0
0
0
0
0
0
0
0
0
0
0
0
0
0
0
0
0
0
0
0
0
0
0
0
0
0
0
0
0
0
0
0
0
0
0
0
0
0
0
0
0
0
0
0
0
0
0
0
0
0
0
0
0
0
0
0
0
0
0
0
0
0
0
0
0
0
0
0
0
0
0
0
0
0
0
0
0
0
0
0
0
0
0
0
0
0
0
0
0
0
0
0
0
0
0
0
0
0
0
0
0
0
0
0
0
0
0
0
0
0
0
0
0
0
0
0
0
0
0
0
0
0
0
0
0
0
0
0
0
0
0
0
0
0
0
0
0
0
0
0
0
0
0
0
0
0
0
0
0
0
0
0
0
0
0
0
0
0
0
0
0
0
0
0
0
0
0
0
0
0
0
0
0
0
0
0
0
0
0
0
0
0
0
0
0
0
0
0
0
0
0
0
0
0
0
0
0
0
0
0
0
0
0
0
0
0
0
0
0
0
0
0
0
0
0
0
0
0
0
0
0
0
0
0
0
0
0
0
0
0
0
0
0
0
0
0
0
0
0
0
0
0
0
0
0
0
0
0
0
0
0
0
0
0
0
0
0
0
0
0
0
0
0
0
0
0
0
0
0
0
0
0
0
0
0
0
0
0
0
0
0
0
0
0
0
0
0
0
0
0
0
0
0
0
0
0
0
0
0
0
0
0
0
0
0
0
0
0
0
0
0
0
0
0
0
0
0
0
0
0
0
0
0
0
0
0
0
0
0
0
0
0
0
0
0
0
0
0
0
0
0
0
0
0
0
0
0
0
0
0
0
0
0
0
0
0
0
0
0
0
0
0
0
0
0
0
0
0
0
0
0
0
0
0
0
0
0
0
0
0
0
0
0
0
0
0
0
0
0
0
0
0
0
0
0
0
0
0
0
0
0
0
0
0
0
0
0
0
0
0
0
0
0
0
0
0
0
0
0
0
0
0
0
0
0
0
0
0
0
0
0
0
0
0
0
0
0
0
0
0
0
0
0
0
0
0
0
0
0
0
0
0
0
0
0
0
0
0
0
0
0
0
0
0
0
0
0
0
0
0
0
0
0
0
0
0
0
0
0
0
0
0
0
0
0
0
0
0
0
0
0
0
0
0
0
0
0
0
0
0
0
0
0
0
0
0
0
0
0
0
0
0
0
0
0
0
0
0
0
0
0
0
0
0
0
0
0
0
0
0
0
0
0
0
0
0
0
0
0
0
0
0
0
0
0
0
0
0
0
0
0
0
0
0
0
0
0
0
0
0
0
0
0
0
0
0
0
0
0
0
0
0
0
0
0
0
0
0
0
0
0
0
0
0
0
0
0
0
0
0
0
0
0
0
0
0
0
0
0
0
0
0
0
0
0
0
0
0
0
0
0
0
0
0
0
0
0
0
0
0
0
0
0
0
0
0
0
0
0
0
0
0
0
0
0
0
0
0
0
0
0
0
0
0
0
0
0
0
0
0
0
0
0
0
0
0
0
0
0
0
0
0
0
0
0
0
0
0
0
0
0
0
0
0
0
0
0
0
0
0
0
0
0
0
0
0
0
0
0
0
0
0
0
0
0
0
0
0
0
0
0
0
0
0
0
0
0
0
0
0
0
0
0
0
0
0
0
0
0
0
0
0
0
0
0
0
0
0
0
0
0
0
0
0
0
0
0
0
0
0
0
0
0
0
0
0
0
0
0
0
0
0
0
0
0
0
0
0
0
0
0
0
0
0
0
0
0
0
0
0
0
0
0
0
0
0
0
0
0
0
0
0
0
0
0
0
0
0
0
0
0
0
0
0
0
0
0
0
0
0
0
0
0
0
0
0
0
0
0
0
0
0
0
0
0
0
0
0
0
0
0
0
0
0
0
0
0
0
0
0
0
0
0
0
0
0
0
0
0
0
0
0
0
0
0
0
0
0
0
0
0
0
0
0
0
0
0
0
0
0
0
0
0
0
0
0
0
0
0
0
0
0
0
0
0
0
0
0
0
0
0
0
0
0
0
0
0
0
0
0
0
0
0
0
0
0
0
0
0
0
0
0
0
0
0
0
0
0
0
0
0
0
0
0
0
0
0
0
0
0
0
0
0
0
0
0
0
0
0
0
0
0
0
0
0
0
0
0
0
0
0
0
0
0
0
0
0
0
0
0
0
0
0
0
0
0
0
0
0
0
0
0
0
0
0
0
0
0
0
0
0
0
0
0
0
0
0
0
0
0
0
0
0
0
0
0
0
0
0
0
0
0
0
0
0
0
0
0
0
0
0
0
0
0
0
0
0
0
0
0
0
0
0
0
0
0
0
0
0
0
0
0
0
0
0
0
0
0
0
0
0
0
0
0
0
0
0
0
0
0
0
0
0
0
0
0
0
0
0
0
0
0
0
0
0
0
0
0
0
0
0
0
0
0
0
0
0
0
0
0
0
0
0
0
0
0
0
0
0
0
0
0
0
0
0
0
0
0
0
0
0
0
0
0
0
0
0
0
0
0
0
0
0
0
0
0
0
0
0
0
0
0
0
0
0
0
0
0
0
0
0
0
0
0
0
0
0
0
0
0
0
0
0
0
0
0
0
0
0
0
0
0
0
0
0
0
0
0
0
0
0
0
0
0
0
0
0
0
0
0
0
0
0
0
0
0
0
0
0
0
0
0
0
0
0
0
0
0
0
0
0
0
0
0
0
0
0
0
0
0
0
0
0
0
0
0
0
0
0
0
0
0
0
0
0
0
0
0
0
0
0
0
0
0
0
0
0
0
0
0
0
0
0
0
0
0
0
0
0
0
0
0
0
0
0
0
0
0
0
0
0
0
0
0
0
0
0
0
0
0
0
0
0
0
0
0
0
0
0
0
0
0
0
0
0
0
0
0
0
0
0
0
0
0
0
0
0
0
0
0
0
0
0
0
0
0
0
0
0
0
0
0
0
0
0
0
0
0
0
0
0
0
0
0
0
0
0
0
0
0
0
0
0
0
0
0
0
0
0
0
0
0
0
0
0
0
0
0
0
0
0
0
0
0
0
0
0
0
0
0
0
0
0
0
0
0
0
0
0
0
0
0
0
0
0
0
0
0
0
0
0
0
0
0
0
0
0
0
0
0
0
0
0
0
0
0
0
0
0
0
0
0
0
0
0
0
0
0
0
0
0
0
0
0
0
0
0
0
0
0
0
0
0
0
0
0
0
0
0
0
0
0
0
0
0
0
0
0
0
0
0
0
0
0
0
0
0
0
0
0
0
0
0
0
0
0
0
0
0
0
0
0
0
0
0
0
0
0
0
0
0
0
0
0
0
0
0
0
0
0
0
0
0
0
0
0
0
0
0
0
0
0
0
0
0
0
0
0
0
0
0
0
0
0
0
0
0
0
0
0
0
0
0
0
0
0
0
0
0
0
0
0
0
0
0
0
0
0
0
0
0
0
0
0
0
0
0
0
0
0
0
0
0
0
0
0
0
0
0
0
0
0
0
0
0
0
0
0
0
0
0
0
0
0
0
0
0
0
0
0
0
0
0
0
0
0
0
0
0
0
0
0
0
0
0
0
0
0
0
0
0
0
0
0
0
0
0
0
0
0
0
0
0
0
0
0
0
0
0
0
0
0
0
0
0
0
0
0
0
0
0
0
0
0
0
0
0
0
0
0
0
0
0
0
0
0
0
0
0
0
0
0
0
0
0
0
0
0
0
0
0
0
0
0
0
0
0
0
0
0
0
0
0
0
0
0
0
0
0
0
0
0
0
0
0
0
0
0
0
0
0
0
0
0
0
0
0
0
0
0
0
0
0
0
0
0
0
0
0
0
0
0
0
0
0
0
0
0
0
0
0
0
0
0
0
0
0
0
0
0
0
0
0
0
0
0
0
0
0
0
0
0
0
0
0
0
0
0
0
0
0
0
0
0
0
0
0
0
0
0
0
0
0
0
0
0
0
0
0
0
0
0
0
0
0
0
0
0
0
0
0
0
0
0
0
0
0
0
0
0
0
0
0
0
0
0
0
0
0
0
0
0
0
0
0
0
0
0
0
0
0
0
0
0
0
0
0
0
0
0
0
0
0
0
0
0
0
0
0
0
0
0
0
0
0
0
0
0
0
0
0
0
0
0
0
0
0
0
0
0
0
0
0
0
0
0
0
0
0
0
0
0
0
0
0
0
0
0
0
0
0
0
0
0
0
0
0
0
0
0
0
0
0
0
0
0
0
0
0
0
0
0
0
0
0
0
0
0
0
0
0
0
0
0
0
0
0
0
0
0
0
0
0
0
0
0
0
0
0
0
0
0
0
0
0
0
0
0
0
0
0
0
0
0
0
0
0
0
0
0
0
0
0
0
0
0
0
0
0
0
0
0
0
0
0
0
0
0
0
0
0
0
0
0
0
0
0
0
0
0
0
0
0
0
0
0
0
0
0
0
0
0
0
0
0
0
0
0
0
0
0
0
0
0
0
0
0
0
0
0
0
0
0
0
0
0
0
0
0
0
0
0
0
0
0
0
0
0
0
0
0
0
0
0
0
0
0
0
0
0
0
0
0
0
0
0
0
0
0
0
0
0
0
0
0
0
0
0
0
0
0
0
0
0
0
0
0
0
0
0
0
0
0
0
0
0
0
0
0
0
0
0
0
0
0
0
0
0
0
0
0
0
0
0
0
0
0
0
0
0
0
0
0
0
0
0
0
0
0
0
0
0
0
0
0
0
0
0
0
0
0
0
0
0
0
0
0
0
0
0
0
0
0
0
0
0
0
0
0
0
0
0
0
0
0
0
0
0
0
0
0
0
0
0
0
0
0
0
0
0
0
0
0
0
0
0
0
0
0
0
0
0
0
0
0
0
0
0
0
0
0
0
0
0
0
0
0
0
0
0
0
0
0
0
0
0
0
0
0
0
0
0
0
0
0
0
0
0
0
0
0
0
0
0
0
0
0
0
0
0
0
0
0
0
0
0
0
0
0
0
0
0
0
0
0
0
0
0
0
0
0
0
0
0
0
0
0
0
0
0
0
0
0
0
0
0
0
0
0
0
0
0
0
0
0
0
0
0
0
0
0
0
0
0
0
0
0
0
0
0
0
0
0
0
0
0
0
0
0
0
0
0
0
0
0
0
0
0
0
0
0
0
0
0
0
0
0
0
0
0
0
0
0
0
0
0
0
0
0
0
0
0
0
0
0
0
0
0
0
0
0
0
0
0
0
0
0
0
0
0
0
0
0
0
0
0
0
0
0
0
0
0
0
0
0
0
0
0
0
0
0
0
0
0
0
0
0
0
0
0
0
0
0
0
0
0
0
0
0
0
0
0
0
0
0
0
0
0
0
0
0
0
0
0
0
0
0
0
0
0
0
0
0
0
0
0
0
0
0
0
0
0
0
0
0
0
0
0
0
0
0
0
0
0
0
0
0
0
0
0
0
0
0
0
0
0
0
0
0
0
0
0
0
0
0
0
0
0
0
0
0
0
0
0
0
0
0
0
0
0
0
0
0
0
0
0
0
0
0
0
0
0
0
0
0
0
0
0
0
0
0
0
0
0
0
0
0
0
0
0
0
0
0
0
0
0
0
0
0
0
0
0
0
0
0
0
0
0
0
0
0
0
0
0
0
0
0
0
0
0
0
0
0
0
0
0
0
0
0
0
0
0
0
0
0
0
0
0
0
0
0
0
0
0
0
0
0
0
0
0
0
0
0
0
0
0
0
0
0
0
0
0
0
0
