0.187265
0.0601078
-0.0360321
-0.0764225
-0.0705578
-0.0384537
0.0103664
0.0649433
0.114674
0.151455
0.171015
0.173113
0.160689
0.138397
0.111129
0.0831139
0.0571823
0.0354267
0.0199417
0.0128609
0.0162506
0.0317886
0.0603756
0.101881
0.155191
0.218582
0.290318
0.369204
0.454831
0.548057
0.650474
0.76386
0.889534
1.02873
1.1824
1.34826
1.51853
1.68092
1.82037
1.92199
1.97382
1.96652
1.89438
1.7573
1.56314
1.32896
1.07955
0.84278
0.639182
0.470608
0.331414
0.221077
0.134578
0.0640217
0
-0.0611691
-0.134661
-0.242406
-0.452052
-0.783294
-1.19911
-1.65169
-1.78221
-0.999549
1.13424
4.76063
9.47737
14.3233
18.0607
19.659
18.7354
15.708
11.5767
7.46774
4.19856
2.0719
0.943098
0.448886
0.268442
0.143782
0.0231632
-0.0913334
-0.196692
-0.288554
-0.361684
-0.411449
-0.433801
-0.426399
-0.389648
-0.327286
-0.246144
-0.155001
-0.0627358
0.0238129
0.102068
0.172266
0.236613
0.298821
0.363043
0.433019
0.511046
0.598416
0.696328
0.80552
0.92622
1.05792
1.19906
1.34687
1.4974
1.6461
1.78846
1.92062
2.04009
2.14602
2.23918
2.32161
2.39603
2.46511
2.53094
2.59455
2.65576
2.71319
2.76446
2.80659
2.83664
2.85209
2.85122
2.83344
2.79946
2.75132
2.69227
2.62636
2.55795
2.49094
2.42804
2.37063
2.31867
2.27053
2.2235
2.17453
2.12093
2.06096
1.99419
1.92148
1.84471
1.76629
1.68854
1.61332
1.54187
1.47476
1.41204
1.35348
1.29891
1.24844
1.20275
1.16328
1.13237
1.11224
1.10474
1.11069
1.13043
1.16212
1.20038
1.23883
1.27163
1.29482
1.307
1.30903
1.30311
1.29161
1.27656
1.2594
1.24111
1.22323
1.20835
1.20034
1.20368
1.22257
1.25982
1.31599
1.38908
1.47494
1.56827
1.66396
1.75833
1.84983
1.93867
2.02663
2.11641
2.21098
2.31306
2.42524
2.55032
2.68991
2.83712
2.9724
3.0712
3.10925
3.06933
2.9471
2.75377
2.51409
2.26038
2.02419
1.8176
1.63673
1.47771
1.33956
1.21986
1.11458
1.01845
0.925529
0.82934
0.720279
0.58179
0.411174
0.213366
0
0.126102
1.22984
3.73084
7.60709
12.2258
16.4641
19.119
19.4208
17.3737
13.7334
9.6421
6.13122
3.76033
2.53991
2.10979
2.00673
1.88011
1.75807
1.64536
1.54592
1.46256
1.39671
1.34841
1.31644
1.29865
1.2925
1.29556
1.30601
1.32292
1.34639
1.37746
1.41793
1.46986
1.53522
1.61532
1.71032
1.81891
1.93828
2.06465
2.19321
2.3193
2.43956
2.55254
2.65902
2.76165
2.86418
2.97048
3.08357
3.2049
3.33427
3.47038
3.61118
3.75424
3.89672
4.03433
4.16011
4.26692
4.34704
4.39399
4.40485
4.38186
4.3323
4.26657
4.19509
4.12547
4.05999
3.99786
3.93764
3.87765
3.81613
3.75155
3.68268
3.60856
3.52835
3.44121
3.3463
3.24298
3.13111
3.01143
2.88585
2.75756
2.63082
2.51048
2.40133
2.3082
2.23412
2.17949
2.14272
2.12076
2.10973
2.1055
2.10417
2.10219
2.09673
2.08594
2.06921
2.04737
2.02264
1.99829
1.97795
1.96475
1.95989
1.96362
1.97496
1.98989
2.00237
2.00629
1.99698
1.97247
1.93405
1.88612
1.83532
1.7893
1.75455
1.73651
1.73848
1.76129
1.80331
1.86097
1.92954
2.00409
2.08038
2.15554
2.22839
2.29873
2.36709
2.43456
2.50249
2.57227
2.64508
2.72179
2.80264
2.88527
2.96202
3.02151
3.051
3.03936
2.97985
2.87165
2.7198
2.53399
2.32675
2.11271
1.90226
1.70167
1.51597
1.34862
1.20078
1.07128
0.95644
0.850209
0.745326
0.633745
0.504154
0.352771
0.182068
0
0.160971
1.36975
4.03551
8.09777
12.8545
17.1086
19.6187
19.6395
17.2577
13.3336
9.08915
5.58007
3.32702
2.25976
1.93459
1.8191
1.60837
1.40136
1.20465
1.02488
0.868381
0.739903
0.642249
0.578816
0.554148
0.563389
0.59221
0.625379
0.650578
0.6614
0.65854
0.648881
0.642913
0.651463
0.680752
0.730181
0.797575
0.880839
0.977169
1.08305
1.19474
1.30887
1.42281
1.53491
1.64447
1.75153
1.85669
1.96086
2.0651
2.17064
2.27887
2.39122
2.50919
2.63493
2.77033
2.91119
3.04421
3.15241
3.22048
3.23995
3.21225
3.14824
3.06485
2.98016
2.90812
2.85179
2.80826
2.77372
2.74428
2.7146
2.67869
2.63076
2.56613
2.48202
2.37817
2.25697
2.12327
1.98381
1.84604
1.71668
1.60161
1.50536
1.42993
1.37416
1.33433
1.30557
1.28298
1.26262
1.2422
1.22108
1.2
1.18037
1.16365
1.15072
1.14188
1.13678
1.13465
1.13439
1.13472
1.13419
1.13125
1.12448
1.11296
1.09659
1.07638
1.05438
1.0333
1.01595
1.0046
1.00008
1.00278
1.01232
1.02787
1.04827
1.07246
1.0997
1.12942
1.16136
1.19552
1.23202
1.27098
1.31235
1.35579
1.40075
1.44666
1.49329
1.54124
1.59216
1.64926
1.7246
1.87461
2.23291
2.7271
3.20441
3.51582
3.57109
3.3724
3.00303
2.57687
2.18466
1.87995
1.64471
1.44359
1.26042
1.0894
0.927839
0.773519
0.623674
0.474381
0.320397
0.156436
-0.0204496
-0.205536
-0.387659
-0.558448
-0.711076
-0.697175
0
1.79691
4.96617
9.33011
14.1258
18.1703
20.3084
19.9262
17.2365
13.1575
8.86429
5.29079
2.85829
1.51121
0.939002
0.790137
0.639604
0.493591
0.357595
0.237162
0.137276
0.0617968
0.0126365
-0.0107943
-0.0116097
0.00511427
0.03336
0.0673719
0.10269
0.137031
0.170325
0.204596
0.243469
0.291318
0.35244
0.430203
0.526265
0.639905
0.768194
0.906838
1.05082
1.19498
1.3347
1.46644
1.58782
1.69751
1.79606
1.88525
1.96786
2.04734
2.12742
2.21162
2.30265
2.40225
2.51063
2.62477
2.73814
2.8414
2.92512
2.98142
3.00532
2.99544
2.95399
2.88621
2.79932
2.70123
2.59935
2.4991
2.40306
2.31208
2.22615
2.14441
2.06524
1.98655
1.90627
1.82293
1.7361
1.64676
1.5573
1.47119
1.39237
1.32437
1.26978
1.22976
1.20364
1.18813
1.17784
1.16713
1.15145
1.12832
1.09781
1.06224
1.02539
0.991394
0.963521
0.943146
0.930647
0.925615
0.927056
0.933816
0.944875
0.959462
0.976998
0.996941
1.01861
1.04114
1.06347
1.0844
1.10266
1.11712
1.12686
1.13135
1.13053
1.12485
1.11544
1.10418
1.09363
1.08687
1.08761
1.10007
1.12794
1.17424
1.24088
1.3282
1.43483
1.55771
1.6925
1.83412
1.97735
2.11742
2.24928
2.36734
2.46605
2.54026
2.58467
2.59419
2.56472
2.49416
2.38323
2.23611
2.0604
1.86671
1.66694
1.47121
1.28633
1.1163
0.962976
0.82546
0.700611
0.583858
0.469402
0.349238
0.209969
0.0334625
-0.176264
-0.408436
-0.650252
-0.638712
0
1.69396
4.74347
9.00448
13.7002
17.5712
19.3837
18.5352
15.3766
11.0316
6.83127
3.72319
1.98594
1.33206
1.23651
1.07352
0.864926
0.658099
0.462004
0.285356
0.135487
0.0171486
-0.0650097
-0.109669
-0.124852
-0.121091
-0.108666
-0.0950871
-0.0836266
-0.0732418
-0.0597881
-0.0379753
-0.00374489
0.0434212
0.102505
0.172315
0.251211
0.337615
0.430537
0.529785
0.635789
0.74914
0.869981
0.997527
1.12983
1.264
1.39664
1.52444
1.6446
1.75508
1.85396
1.93934
2.01026
2.06671
2.10908
2.13865
2.15791
2.17062
2.18124
2.194
2.21171
2.23533
2.26251
2.28753
2.30319
2.30272
2.28137
2.23726
2.17129
2.08641
1.98662
1.87662
1.76113
1.64393
1.52817
1.4169
1.31312
1.2196
1.13835
1.0705
1.01616
0.974464
0.943748
0.921684
0.905453
0.891873
0.877535
0.858946
0.832996
0.797436
0.75141
0.695651
0.632261
0.566936
0.507314
0.460875
0.433194
0.426651
0.439992
0.468879
0.507185
0.548577
0.587978
0.62264
0.651028
0.67227
0.685427
0.689708
0.684429
0.669081
0.643844
0.610077
0.570531
0.529182
0.490676
0.459603
0.439526
0.433112
0.441874
0.466385
0.50665
0.562223
0.632479
0.716901
0.814919
0.925689
1.048
1.18025
1.32045
1.46642
1.6159
1.76638
1.91426
2.05342
2.17481
2.26822
2.32241
2.32744
2.27743
2.17286
2.02151
1.83746
1.63819
1.44022
1.25256
1.07645
0.910092
0.751683
0.5992
0.449297
0.298602
0.146284
-0.00640335
-0.157005
-0.305381
-0.464589
-0.645058
-0.842464
-0.827303
0
2.10355
5.61748
10.1024
14.5324
17.6104
18.3233
16.4496
12.6979
8.36513
4.70786
2.40575
1.40918
1.18976
1.14248
0.897538
0.658778
0.432796
0.226833
0.0477722
-0.0995419
-0.212168
-0.289468
-0.333261
-0.346693
-0.335511
-0.306773
-0.268287
-0.228723
-0.195477
-0.172755
-0.160925
-0.156429
-0.152404
-0.139966
-0.10998
-0.054826
0.0292694
0.139289
0.27118
0.42207
0.591842
0.779065
0.968343
1.13646
1.26165
1.33176
1.35106
1.34135
1.33519
1.36362
1.44378
1.5615
1.70348
1.84954
1.97848
2.07313
2.12329
2.12655
2.08778
2.0177
1.93097
1.84355
1.76948
1.71673
1.684
1.66488
1.65423
1.64627
1.63495
1.61489
1.58226
1.53525
1.4742
1.40131
1.32008
1.23445
1.14801
1.0632
0.981206
0.902366
0.826544
0.753778
0.684865
0.621826
0.567561
0.525441
0.498494
0.48855
0.495607
0.51756
0.550796
0.590018
0.627825
0.656634
0.670253
0.66491
0.639932
0.597933
0.54445
0.487067
0.434222
0.393531
0.369477
0.364141
0.3793
0.418145
0.486006
0.583739
0.694821
0.795045
0.861174
0.87787
0.842978
0.768746
0.678253
0.598319
0.551598
0.541305
0.558701
0.596778
0.65118
0.718284
0.794575
0.877027
0.963454
1.05266
1.14446
1.23947
1.33905
1.4453
1.56235
1.69866
1.86014
2.02359
2.14801
2.18483
2.0962
1.8729
1.54263
1.16372
0.806412
0.528239
0.310797
0.128073
-0.0260374
-0.155804
-0.267421
-0.368263
-0.466057
-0.568819
-0.687711
-0.837968
-1.02047
-1.22896
-1.45183
-1.23984
0
2.67646
6.74631
11.5479
15.9414
18.7331
19.1773
17.2814
13.7556
9.65696
5.94427
3.17407
1.44697
0.549781
0.159941
0.0145288
-0.127477
-0.263968
-0.39241
-0.510453
-0.615725
-0.70546
-0.776617
-0.827518
-0.857448
-0.866669
-0.856666
-0.830182
-0.790931
-0.742969
-0.689906
-0.634203
-0.57692
-0.517831
-0.455808
-0.389327
-0.316797
-0.236904
-0.148505
-0.0505796
0.0576464
0.176531
0.305728
0.443859
0.588414
0.735681
0.879426
1.01277
1.1299
1.22741
1.30493
1.36497
1.41173
1.4497
1.48233
1.51162
1.538
1.56104
1.58024
1.59551
1.6072
1.61587
1.62189
1.62514
1.62482
1.61955
1.60772
1.58792
1.5592
1.5214
1.47512
1.42169
1.36295
1.301
1.23793
1.1756
1.11551
1.05868
1.00551
0.955737
0.908468
0.862198
0.815292
0.766642
0.716242
0.665516
0.617208
0.574762
0.54272
0.526348
0.524242
0.529066
0.531067
0.521818
0.49739
0.459505
0.41428
0.36938
0.331011
0.300431
0.275986
0.256175
0.23907
0.222555
0.204749
0.184353
0.160936
0.135153
0.108702
0.0847258
0.0670311
0.0593287
0.0645035
0.0841873
0.118801
0.168007
0.231318
0.308478
0.398014
0.499354
0.611565
0.733467
0.858795
0.977
1.07776
1.15449
1.20701
1.24214
1.27178
1.30986
1.37699
1.47127
1.56743
1.62977
1.62787
1.54829
1.39729
1.19533
0.967951
0.738439
0.51982
0.314237
0.122007
-0.0560602
-0.219932
-0.371302
-0.513619
-0.651541
-0.791279
-0.945819
-1.13777
-1.36246
-1.59991
-1.83167
-2.05373
-1.49822
0
2.75471
6.73993
11.3909
15.6418
18.2949
18.5556
16.4207
12.6722
8.48079
4.87099
2.35712
0.910569
0.183596
-0.18316
-0.312568
-0.434646
-0.545617
-0.642921
-0.726439
-0.798267
-0.861541
-0.919255
-0.973127
-1.02251
-1.06417
-1.09301
-1.10323
-1.09009
-1.05136
-0.988133
-0.904816
-0.808152
-0.70569
-0.604025
-0.506939
-0.41507
-0.327277
-0.240583
-0.150896
-0.0539059
0.053825
0.174274
0.307618
0.452031
0.604001
0.758721
0.910796
1.05527
1.1883
1.30751
1.41167
1.49933
1.57038
1.62623
1.66864
1.70008
1.72404
1.74516
1.76877
1.79985
1.84394
1.90484
1.97404
2.03498
2.06929
2.06299
2.01123
1.91936
1.80046
1.67045
1.54319
1.42463
1.3143
1.21088
1.11296
1.01854
0.925377
0.831448
0.735396
0.636823
0.536414
0.435851
0.337504
0.243991
0.157792
0.0807205
0.0136314
-0.0435158
-0.0914887
-0.131556
-0.165302
-0.194512
-0.221023
-0.246867
-0.273905
-0.303387
-0.335496
-0.369054
-0.401559
-0.429664
-0.450023
-0.460009
-0.457307
-0.444097
-0.425129
-0.406229
-0.392714
-0.388218
-0.394321
-0.410968
-0.437286
-0.472266
-0.513971
-0.56077
-0.611185
-0.661409
-0.704715
-0.732931
-0.738065
-0.714117
-0.658361
-0.571648
-0.45771
-0.321899
-0.16997
-0.00862961
0.156718
0.321716
0.479594
0.622695
0.743094
0.833647
0.888863
0.905208
0.88089
0.815571
0.710534
0.571749
0.409002
0.2311
0.0475826
-0.131272
-0.296135
-0.441391
-0.561988
-0.658988
-0.73717
-0.803542
-0.865516
-0.929313
-0.998981
-1.07617
-1.16046
-1.24995
-1.34183
-1.0314
0
2.11562
5.41248
9.54086
13.6998
16.8703
18.197
17.3356
14.5882
10.7611
6.82763
3.57314
1.37749
0.201133
-0.269607
-0.409048
-0.538649
-0.662635
-0.778558
-0.884565
-0.979462
-1.06291
-1.13548
-1.19805
-1.25118
-1.29385
-1.32523
-1.34386
-1.34826
-1.33757
-1.31183
-1.27186
-1.21863
-1.15269
-1.07387
-0.982214
-0.876858
-0.757551
-0.625022
-0.481685
-0.32943
-0.169848
-0.0036747
0.169426
0.350618
0.54126
0.742125
0.952762
1.17117
1.39413
1.6178
1.83831
2.05227
2.25698
2.45019
2.6286
2.78872
2.92801
3.04395
3.13475
3.20012
3.24174
3.2633
3.26997
3.2676
3.26187
3.25718
3.25619
3.26014
3.26902
3.28173
3.29615
3.3092
3.31712
3.31592
3.30186
3.27196
3.22465
3.16021
3.08112
2.99204
2.89937
2.81098
2.73481
2.67717
2.64154
2.63025
2.64001
2.66268
2.68895
2.71082
2.72351
2.72618
2.72147
2.71397
2.70843
2.70762
2.71189
2.72091
2.73275
2.74436
2.75275
2.75575
2.7526
2.744
2.73178
2.71817
2.70514
2.69381
2.68428
2.67633
2.66963
2.66423
2.66089
2.66117
2.66734
2.68196
2.70717
2.74433
2.79376
2.85451
2.92494
3.00136
3.07808
3.14973
3.21259
3.26556
3.31036
3.35094
3.39221
3.4388
3.49398
3.55639
3.61688
3.6591
3.66422
3.61529
3.50174
3.32324
3.09172
2.83024
2.5682
2.33383
2.13773
1.97321
1.83929
1.73208
1.64473
1.56876
1.49515
1.41531
1.32071
1.18604
0.949878
0.618415
0.217089
-0.219363
0
1.41375
4.37432
8.72116
13.6641
17.9558
20.3564
20.1793
17.6112
13.6117
9.45151
6.15575
4.15418
3.2771
3.02314
2.81849
2.58421
2.35639
2.14333
1.95197
1.78715
1.65137
1.54487
1.46616
1.41266
1.38129
1.36857
1.37113
1.38602
1.41056
1.4417
1.47543
1.50689
1.53227
1.55024
1.56295
1.57644
1.59973
1.64299
1.71494
1.82036
1.95556
2.1116
2.27982
2.45174
2.61869
2.77327
2.91079
3.02998
3.13301
3.22498
3.31203
3.4056
3.5267
3.6724
3.80936
3.89256
3.88705
3.78454
3.60733
3.39943
3.2098
3.07522
2.98877
2.92966
2.88617
2.85315
2.82511
2.79658
2.76294
2.72088
2.66846
2.605
2.53074
2.4465
2.35334
2.25254
2.14582
2.03507
1.92214
1.80919
1.6985
1.59247
1.49316
1.40238
1.32182
1.25324
1.1985
1.15987
1.14406
1.15873
1.19594
1.23373
1.24648
1.2148
1.13411
1.01762
0.891728
0.785971
0.722047
0.696292
0.694309
0.70874
0.735153
0.769149
0.80679
0.84481
0.879855
0.909066
0.930247
0.942332
0.945922
0.943531
0.939251
0.937864
0.943695
0.959542
0.985339
1.01984
1.06189
1.11014
1.16335
1.22061
1.28142
1.34578
1.4141
1.48742
1.56743
1.65637
1.75668
1.87362
2.01621
2.18448
2.35985
2.51621
2.62841
2.6788
2.6597
2.57213
2.42336
2.22488
1.9915
1.74215
1.49326
1.25586
1.03448
0.829797
0.642276
0.471857
0.316853
0.174495
0.0415981
-0.0854111
-0.210181
-0.33524
-0.461262
-0.587357
-0.53795
0
1.44951
4.15563
8.0438
12.4094
16.0491
17.747
16.87
13.7125
9.36356
5.1702
2.12407
0.523292
0.0510468
0.136869
0.165368
0.184976
0.192211
0.183059
0.155812
0.11141
0.0534341
-0.0126764
-0.0790507
-0.136773
-0.177658
-0.195553
-0.187274
-0.152956
-0.0957461
-0.020909
0.0654075
0.157348
0.250483
0.342482
0.432576
0.521042
0.60902
0.698247
0.790807
0.888904
0.994638
1.10974
1.23528
1.37134
1.51679
1.66912
1.82464
1.97809
2.1223
2.25064
2.35809
2.4422
2.50358
2.54564
2.57363
2.59335
2.6098
2.62632
2.64409
2.6629
2.68161
2.69836
2.71065
2.7156
2.71042
2.69263
2.66044
2.61308
2.55099
2.47575
2.3898
2.29605
2.19762
2.0972
1.99679
1.89793
1.80165
1.70854
1.61879
1.53235
1.44921
1.36972
1.29512
1.2276
1.16977
1.12433
1.09327
1.0773
1.07538
1.08485
1.10186
1.12205
1.1412
1.15611
1.16426
1.16424
1.15582
1.14001
1.11899
1.09594
1.07454
1.05832
1.05024
1.05243
1.06437
1.08096
1.09428
1.09633
1.08144
1.04819
1.00009
0.944811
0.892188
0.851789
0.829099
0.824944
0.840275
0.874408
0.92579
0.992694
1.07272
1.16392
1.26507
1.37475
1.49117
1.6123
1.73605
1.86043
1.98367
2.10392
2.21826
2.32102
2.40449
2.45923
2.47513
2.44415
2.36312
2.23513
2.06923
1.87847
1.67734
1.47867
1.28884
1.1118
0.950193
0.804323
0.672023
0.548775
0.428234
0.302254
0.154539
-0.0290331
-0.246632
-0.48457
-0.606541
0
1.69466
4.61697
8.50919
12.6438
15.9674
17.4768
16.6701
13.8172
9.85918
5.97525
3.07162
1.4801
0.989005
1.11037
1.12558
1.11975
1.10161
1.0694
1.02346
0.965797
0.899308
0.827369
0.752916
0.678156
0.605175
0.536643
0.477285
0.434751
0.417081
0.432818
0.488641
0.586768
0.723251
0.888052
1.06716
1.24607
1.41416
1.56922
1.71128
1.84102
1.96048
2.07225
2.17887
2.28252
2.38472
2.4865
2.58848
2.69091
2.79365
2.89619
2.99759
3.09658
3.19155
3.28053
3.36094
3.42968
3.48435
3.52311
3.54503
3.55055
3.54176
3.52218
3.49627
3.46845
3.44222
3.41915
3.39912
3.38092
3.36245
3.34114
3.31432
3.27947
3.23426
3.17657
3.10472
3.018
2.91683
2.80273
2.67897
2.55056
2.42386
2.30587
2.2032
2.12156
2.06529
2.03753
2.03992
2.06963
2.11423
2.15589
2.17861
2.17216
2.13477
2.07363
2.00254
1.93719
1.88971
1.86253
1.8495
1.8458
1.84546
1.84316
1.83526
1.81996
1.79681
1.76605
1.72872
1.68643
1.64082
1.59466
1.55196
1.51723
1.49455
1.48677
1.49489
1.51809
1.55404
1.59947
1.65032
1.70274
1.75338
1.79915
1.83775
1.86824
1.89137
1.90982
1.92796
1.96837
2.17941
2.65482
3.22213
3.69281
3.90598
3.78219
3.35571
2.76749
2.21413
1.87113
1.69068
1.50062
1.29838
1.08788
0.870321
0.649961
0.433629
0.227985
0.0374233
-0.1372
-0.298066
-0.4474
-0.593136
-0.740397
-0.890019
-0.851759
0
2.10936
5.62726
10.1573
14.7304
18.0934
19.2215
17.7927
14.3431
10.0039
5.97373
3.03033
1.33052
0.547267
0.187346
-0.15473
-0.479712
-0.788827
-1.07362
-1.32644
-1.54215
-1.71802
-1.85403
-1.95285
-2.01927
-2.05933
-2.07935
-2.08497
-2.08077
-2.06947
-2.05234
-2.02936
-1.99957
-1.96137
-1.91279
-1.85192
-1.77741
-1.68901
-1.58811
-1.47752
-1.36206
-1.2483
-1.14251
-1.04918
-0.969982
-0.90354
-0.845958
-0.792052
-0.736791
-0.676814
-0.611028
-0.53989
-0.465137
-0.389408
-0.315631
-0.246428
-0.183618
-0.127898
-0.0787519
-0.0345654
0.00704632
0.0487553
0.093071
0.142044
0.196452
0.253347
0.304462
0.33908
0.347335
0.323656
0.269288
0.192899
0.108837
0.033386
-0.0198181
-0.04774
-0.0529198
-0.0391108
-0.0161276
0.00456505
0.0125612
0.000642967
-0.0341038
-0.0902315
-0.162659
-0.243792
-0.324736
-0.397757
-0.457341
-0.499225
-0.520158
-0.518857
-0.49616
-0.454951
-0.398999
-0.333661
-0.267081
-0.210296
-0.173219
-0.162677
-0.180501
-0.222238
-0.277331
-0.33126
-0.369247
-0.380207
-0.362906
-0.324395
-0.269257
-0.200588
-0.121278
-0.0335527
0.0615939
0.164064
0.274311
0.392838
0.519878
0.655261
0.798143
0.946926
1.09929
1.25235
1.40283
1.54737
1.68262
1.80499
1.9108
1.99676
2.05996
2.09726
2.10523
2.08043
2.01993
1.92202
1.78701
1.61774
1.42008
1.20228
0.973709
0.743612
0.519447
0.306206
0.106506
-0.0794537
-0.253284
-0.418396
-0.583506
-0.773483
-1.02638
-1.32169
-1.6221
-1.90268
-1.94325
-1.43382
0
2.73777
6.77429
11.5349
15.8826
18.5143
18.553
15.9885
11.6917
6.99182
3.0752
0.54785
-0.644892
-0.979939
-1.02511
-1.24895
-1.47121
-1.68732
-1.88912
-2.06397
-2.2004
-2.28788
-2.31906
-2.29137
-2.20702
-2.07158
-1.89149
-1.67186
-1.4157
-1.13103
-0.826271
-0.507523
-0.180211
0.149311
0.473868
0.786308
1.08043
1.35174
1.59785
1.81848
2.01509
2.19029
2.34724
2.48907
2.61857
2.73797
2.84889
2.9525
3.04957
3.14051
3.22527
3.30324
3.37284
3.43088
3.47388
3.49851
3.50213
3.4839
3.44549
3.39136
3.32826
3.26421
3.20702
3.1616
3.13052
3.11498
3.11466
3.12691
3.14576
3.16466
3.1778
3.18123
3.17349
3.15537
3.12914
3.0972
3.06085
3.01971
2.97172
2.91419
2.84506
2.7642
2.67401
2.57928
2.48627
2.40145
2.32882
2.27116
2.23004
2.20534
2.19559
2.19795
2.20803
2.22042
2.22924
2.22905
2.21571
2.18734
2.14494
2.09257
2.03678
1.98555
1.94877
1.94082
1.96634
2.01348
2.06247
2.09287
2.09049
2.05138
1.98187
1.89561
1.80958
1.73825
1.68876
1.67013
1.68967
1.75253
1.86112
2.01445
2.20765
2.44447
2.71512
2.98294
3.21023
3.36773
3.44193
3.43741
3.37271
3.27165
3.15397
3.02953
2.89977
2.76374
2.62027
2.46848
2.30854
2.14201
1.97174
1.80136
1.63459
1.47438
1.32234
1.17859
1.04201
0.909917
0.777368
0.634451
0.456271
0.222741
-0.0590805
-0.37097
-0.534155
0
1.77769
5.07698
9.55803
14.2104
17.666
18.7803
17.1754
13.4267
8.78369
4.59365
1.75398
0.466426
0.348629
0.748853
0.690151
0.62118
0.538326
0.443027
0.341039
0.239938
0.146442
0.061882
-0.0132072
-0.0768059
-0.127132
-0.161961
-0.17869
-0.174863
-0.148936
-0.101017
-0.0333542
0.0496147
0.142766
0.238329
0.329099
0.409946
0.478895
0.537479
0.590224
0.643503
0.704073
0.777578
0.866048
0.969808
1.08825
1.2192
1.35891
1.5026
1.64383
1.77541
1.89102
1.98618
2.05901
2.11035
2.1433
2.16222
2.17172
2.17575
2.17736
2.17821
2.17915
2.18039
2.18147
2.18104
2.17638
2.16356
2.13789
2.09472
2.03064
1.94441
1.83761
1.71459
1.58179
1.44665
1.31537
1.19217
1.08061
0.981516
0.893653
0.814729
0.742387
0.675079
0.612504
0.555567
0.50595
0.46552
0.435027
0.415252
0.406454
0.408276
0.419613
0.438755
0.463705
0.49202
0.520838
0.547172
0.568275
0.582008
0.587082
0.583147
0.57069
0.55079
0.524807
0.494083
0.459763
0.422729
0.383656
0.343152
0.301928
0.260935
0.221461
0.185185
0.154141
0.130965
0.118179
0.118101
0.132489
0.162245
0.207309
0.266811
0.33947
0.424132
0.520124
0.627167
0.747359
0.887984
1.06434
1.29099
1.5505
1.79307
1.97213
2.05571
2.02808
1.88808
1.65006
1.34755
1.03364
0.769806
0.579268
0.440359
0.328675
0.231443
0.142529
0.0561302
-0.033424
-0.131259
-0.242327
-0.374804
-0.540235
-0.736535
-0.956781
-1.19004
-1.06496
0
2.40722
6.21891
10.9164
15.4575
18.6224
19.5222
17.992
14.6418
10.5405
6.73363
3.86828
2.08609
1.15919
0.725449
0.527636
0.381371
0.245438
0.12303
0.0165737
-0.0725254
-0.144555
-0.200369
-0.240702
-0.265601
-0.274211
-0.265024
-0.236544
-0.188121
-0.120704
-0.0376873
0.0566627
0.157351
0.259481
0.359207
0.454311
0.544381
0.63057
0.714984
0.799932
0.887214
0.977637
1.0709
1.16579
1.26065
1.35394
1.44482
1.53342
1.62086
1.70889
1.79929
1.89334
1.99134
2.09099
2.18599
2.26762
2.3269
2.3567
2.3534
2.31772
2.25467
2.17253
2.08139
1.99109
1.90849
1.83601
1.77322
1.71789
1.66456
1.60678
1.53888
1.45767
1.36341
1.25981
1.15312
1.05052
0.957873
0.877688
0.811152
0.758274
0.7178
0.687784
0.666107
0.650806
0.640159
0.632632
0.626664
0.620462
0.612227
0.600429
0.584143
0.563319
0.538849
0.512425
0.486225
0.462511
0.443106
0.429318
0.42205
0.421708
0.428292
0.441547
0.461136
0.486794
0.518421
0.556045
0.599677
0.649101
0.703643
0.762028
0.822407
0.882465
0.93975
0.99236
1.03949
1.08179
1.1215
1.16215
1.20808
1.26377
1.33316
1.41892
1.52218
1.64327
1.78325
1.94718
2.14547
2.38507
2.64652
2.88719
3.06344
3.14277
3.10974
2.9648
2.7209
2.40308
2.05163
1.72068
1.44399
1.21979
1.0337
0.876124
0.74327
0.62837
0.522872
0.417647
0.30421
0.174541
0.0159018
-0.174533
-0.390107
-0.61902
-0.714911
0
2.01643
5.51227
10.0652
14.6632
18.0381
19.196
17.8672
14.6186
10.5581
6.81217
4.08146
2.49648
1.77891
1.52725
1.36468
1.189
1.01209
0.835797
0.662654
0.49574
0.33842
0.194019
0.0654492
-0.0452076
-0.136926
-0.208354
-0.257577
-0.291133
-0.32446
-0.373453
-0.448845
-0.55126
-0.669905
-0.783136
-0.866613
-0.901931
-0.882821
-0.816243
-0.718164
-0.606336
-0.493548
-0.38306
-0.273712
-0.163274
-0.0489776
0.0715113
0.199243
0.333899
0.473712
0.615654
0.755848
0.889986
1.01389
1.12433
1.21939
1.29874
1.36358
1.41628
1.45981
1.4966
1.52815
1.55437
1.57302
1.58031
1.57178
1.54377
1.49457
1.42508
1.33865
1.24034
1.13569
1.02977
0.926123
0.826569
0.732248
0.64403
0.562513
0.488091
0.420955
0.360931
0.307463
0.259656
0.216427
0.17675
0.139922
0.105796
0.0749108
0.0485446
0.0284554
0.0165822
0.0146971
0.0240421
0.0450569
0.0772453
0.119194
0.168712
0.223041
0.279096
0.333605
0.383147
0.42506
0.457821
0.481463
0.497813
0.510353
0.523655
0.542414
0.570351
0.60918
0.657719
0.713354
0.772783
0.832405
0.889435
0.942689
0.992937
1.04275
1.09587
1.15629
1.22731
1.31053
1.40551
1.51041
1.62234
1.73801
1.85423
1.96885
2.08126
2.19246
2.3049
2.42408
2.56034
2.71175
2.8546
2.95431
2.98077
2.92159
2.78549
2.5951
2.37556
2.14746
1.92516
1.7136
1.51472
1.33051
1.16264
1.0115
0.873977
0.744785
0.617364
0.484424
0.338289
0.176254
0
-0.19212
0.292926
1.91333
4.94952
9.21551
13.9573
18.0378
20.3562
20.3019
17.9991
14.2179
10.0199
6.33864
3.69831
2.1631
1.47082
1.24689
1.09414
0.946316
0.807914
0.683043
0.575121
0.486642
0.418914
0.371961
0.344636
0.334908
0.340241
0.357959
0.385242
0.41973
0.459698
0.503832
0.55136
0.60211
0.656485
0.715318
0.779615
0.850235
0.92761
1.01157
1.10144
1.19635
1.29559
1.39889
1.5067
1.62008
1.74049
1.86925
2.00698
2.15317
2.30631
2.46192
2.61112
2.74344
2.84932
2.92235
2.96073
2.96751
2.94964
2.91601
2.87515
2.83332
2.79323
2.75481
2.71683
2.67753
2.63503
2.58772
2.53457
2.47525
2.41011
2.34014
2.2667
2.19127
2.11527
2.03972
1.96513
1.89138
1.81785
1.74372
1.66837
1.59175
1.51467
1.43882
1.36661
1.30084
1.24416
1.19869
1.16558
1.14509
1.13655
1.13746
1.14347
1.15015
1.15398
1.15317
1.14814
1.14127
1.13628
1.13709
1.14653
1.16501
1.19254
1.22636
1.26021
1.28664
1.2991
1.29385
1.27127
1.23636
1.19794
1.16685
1.15344
1.16288
1.1945
1.24693
1.31664
1.39744
1.48261
1.56634
1.64468
1.71584
1.77996
1.83853
1.89387
1.9489
2.00687
2.07153
2.147
2.23797
2.35748
2.5242
2.73237
2.94557
3.12106
3.22554
3.24454
3.18215
3.05358
2.87682
2.66874
2.4481
2.23001
2.02241
1.82898
1.65065
1.48635
1.33434
1.19174
1.05494
0.919159
0.777746
0.624703
0.462121
0.301778
0.156519
0.0345574
0
0.593397
2.11876
4.95294
9.08512
13.8823
18.1673
20.6556
20.5506
17.9431
13.7609
9.29405
5.599
3.13347
1.78392
1.16672
0.977113
0.965968
0.948875
0.91826
0.869209
0.800358
0.714179
0.616572
0.515881
0.42152
0.342158
0.285687
0.256957
0.25765
0.286117
0.339972
0.414194
0.497226
0.578332
0.65051
0.712462
0.768725
0.82769
0.898172
0.98586
1.08975
1.20341
1.32128
1.43826
1.55034
1.65547
1.7538
1.84727
1.93884
2.03153
2.12762
2.22837
2.33382
2.44278
2.55176
2.65209
2.73218
2.77939
2.78372
2.74237
2.66315
2.56387
2.46704
2.39138
2.34405
2.31477
2.28932
2.25091
2.1864
2.0905
1.96648
1.8236
1.67269
1.52221
1.37535
1.2326
1.09445
0.961434
0.834446
0.714837
0.604295
0.504518
0.416927
0.342278
0.28022
0.229582
0.188651
0.155521
0.128409
0.105838
0.0866766
0.0700543
0.0552118
0.0413909
0.0278348
0.0138116
-0.00125071
-0.0175945
-0.0349949
-0.0527064
-0.0695073
-0.0838727
-0.0942092
-0.099098
-0.0974989
-0.0888969
-0.073413
-0.0519107
-0.0258873
0.00207624
0.0269979
0.0425255
0.0425833
0.02328
-0.0152591
-0.0679296
-0.125155
-0.174921
-0.205734
-0.210204
-0.185751
-0.133473
-0.0573056
0.0380202
0.148633
0.270064
0.400823
0.539173
0.6824
0.826513
0.96697
1.0991
1.21875
1.32269
1.40724
1.46863
1.50595
1.51881
1.50752
1.47358
1.4202
1.35221
1.2755
1.19581
1.11758
1.04269
0.971118
0.901721
0.832575
0.761552
0.686803
0.606888
0.520845
0.428119
0.328541
0.222942
0.1129
0
-0.118651
0.112649
1.06006
3.14681
6.54152
10.8878
15.2516
18.4086
19.3684
17.8513
14.4277
10.2342
6.44658
3.82053
2.51928
2.23901
2.47685
2.43724
2.38985
2.33102
2.25914
2.17571
2.08457
1.99089
1.89991
1.81682
1.74651
1.6936
1.66225
1.65583
1.67655
1.7251
1.80049
1.89994
2.01894
2.15041
2.28782
2.4255
2.55849
2.68321
2.79808
2.90378
3.0032
3.10083
3.20181
3.31076
3.43077
3.56266
3.70468
3.85308
4.003
4.14923
4.28698
4.41207
4.52008
4.60643
4.66904
4.70728
4.7214
4.71299
4.68542
4.64378
4.59411
4.54226
4.49256
4.4465
4.40331
4.3612
4.31746
4.26897
4.21277
4.14632
4.06772
3.97578
3.87022
3.75152
3.62082
3.47988
3.33102
3.17716
3.02165
2.8681
2.7202
2.58145
2.45495
2.34298
2.24759
2.17006
2.1087
2.06049
2.02164
1.98812
1.95623
1.92289
1.88571
1.84296
1.79366
1.73788
1.67599
1.60909
1.53898
1.46788
1.3982
1.33199
1.27074
1.21545
1.1665
1.12368
1.08623
1.05287
1.02185
0.990984
0.957787
0.919984
0.876007
0.825342
0.768544
0.709132
0.652694
0.605526
0.573397
0.56055
0.569247
0.599885
0.651533
0.722567
0.810005
0.910842
1.02284
1.14409
1.27254
1.40585
1.54142
1.6765
1.80814
1.93323
2.04828
2.14897
2.22994
2.28628
2.31414
2.31062
2.27451
2.20698
2.1117
1.99442
1.86195
1.72094
1.5772
1.43433
1.29437
1.15876
1.02805
0.90196
0.77951
0.659181
0.538644
0.413837
0.281998
0.143042
0
0.0850609
0.979475
3.14316
6.74103
11.4039
16.2051
19.9243
21.5119
20.5402
17.4017
13.1346
8.95564
5.75479
3.81791
2.89314
2.49484
2.26186
2.10695
1.96135
1.82815
1.70937
1.60588
1.51782
1.44506
1.38768
1.34608
1.32089
1.3132
1.32593
1.35867
1.40331
1.44988
1.48972
1.51856
1.53834
1.55667
1.58422
1.63107
1.70274
1.79515
1.90193
2.01767
2.13708
2.2549
2.36625
2.46642
2.55119
2.61821
2.66628
2.69549
2.70742
2.70538
2.69421
2.67969
2.66755
2.66219
2.66577
2.67828
2.69336
2.69976
2.68496
2.63856
2.5553
2.43664
2.29037
2.12847
1.96387
1.80617
1.65837
1.5207
1.3918
1.26825
1.14538
1.01816
0.882188
0.734431
0.573766
0.401159
0.21952
0.0333011
-0.152062
-0.330766
-0.497219
-0.646504
-0.774759
-0.879492
-0.9596
-1.0153
-1.04865
-1.06321
-1.06381
-1.05604
-1.04657
-1.04378
-1.05591
-1.08976
-1.14942
-1.23499
-1.34186
-1.46088
-1.57949
-1.68382
-1.76192
-1.80721
-1.80425
-1.73269
-1.5857
-1.3986
-1.22264
-1.10138
-1.06145
-1.10702
-1.2185
-1.35751
-1.47807
-1.54051
-1.53901
-1.49423
-1.42127
-1.32672
-1.21403
-1.08615
-0.945355
-0.79303
-0.629562
-0.454585
-0.267436
-0.0677547
0.143904
0.365579
0.593655
0.822969
1.04602
1.25331
1.43612
1.58734
1.70228
1.77891
1.81742
1.8194
1.78696
1.72223
1.62924
1.51292
1.37679
1.22475
1.06177
0.893552
0.725952
0.564247
0.413044
0.275675
0.153404
0.0455727
-0.0493144
-0.132833
-0.207833
-0.277827
-0.345721
-0.414664
0
1.46813
4.37883
8.62072
13.4238
17.5522
19.7923
19.4887
16.8311
12.7424
8.45007
4.98488
2.85364
1.991
1.94122
1.99336
1.77371
1.55235
1.34039
1.14841
0.985323
0.857471
0.768079
0.717269
0.702586
0.719845
0.76398
0.828244
0.90674
0.994835
1.08827
1.18314
1.27618
1.3652
1.44943
1.52974
1.60868
1.6901
1.77865
1.87899
1.99477
2.12812
2.27914
2.4455
2.62283
2.80494
2.98388
3.15195
3.30316
3.43409
3.54415
3.63522
3.71067
3.7743
3.82904
3.87723
3.92016
3.95854
3.993
4.02439
4.05364
4.08103
4.10516
4.12143
4.12241
4.09883
4.04208
3.94707
3.81434
3.65069
3.46792
3.28002
3.0994
2.93171
2.77984
2.64452
2.52421
2.41614
2.31745
2.22602
2.14091
2.06238
1.99139
1.92888
1.8754
1.83084
1.7941
1.76317
1.73533
1.70731
1.67601
1.63925
1.59626
1.54807
1.49748
1.44849
1.40551
1.37227
1.35242
1.34648
1.35086
1.35993
1.36759
1.36888
1.36108
1.34408
1.32003
1.29257
1.26579
1.24277
1.22536
1.21459
1.21029
1.21033
1.21077
1.20671
1.19327
1.16669
1.12551
1.06986
1.00295
0.942474
0.912251
0.93486
1.02432
1.18077
1.38963
1.62591
1.86213
2.07635
2.26753
2.43678
2.58101
2.69844
2.78782
2.84755
2.87459
2.86567
2.81892
2.73536
2.61952
2.47897
2.323
2.16067
1.99907
1.84155
1.68908
1.5416
1.39797
1.25647
1.11513
0.971734
0.823415
0.666693
0.498903
0.32111
0.142478
-0.0260588
-0.178918
-0.308608
0
1.14796
3.55723
7.25194
11.6429
15.622
17.9863
17.9799
15.6502
11.8103
7.63954
4.16252
1.8937
0.79383
0.482735
0.494147
0.382374
0.266718
0.147699
0.0270241
-0.0923893
-0.206819
-0.312478
-0.405833
-0.484307
-0.547639
-0.596885
-0.633737
-0.659844
-0.676419
-0.684248
-0.683976
-0.676223
-0.662168
-0.643063
-0.619702
-0.591876
-0.558098
-0.515738
-0.461575
-0.392555
-0.307576
-0.206917
-0.0914873
0.0366447
0.174179
0.316846
0.45977
0.597841
0.726338
0.841468
0.940795
1.02344
1.09001
1.14226
1.18254
1.21322
1.236
1.25188
1.26101
1.26276
1.25609
1.23989
1.21341
1.17648
1.12977
1.07477
1.01379
0.949527
0.884587
0.821209
0.761026
0.704459
0.650852
0.598934
0.547436
0.495678
0.443932
0.393452
0.346205
0.304405
0.269581
0.24279
0.224712
0.215695
0.215508
0.223447
0.238734
0.260631
0.288421
0.321271
0.358062
0.397441
0.437571
0.476681
0.51354
0.547852
0.580373
0.612662
0.646512
0.683274
0.723216
0.765467
0.808463
0.850202
0.888762
0.922759
0.951649
0.975792
0.996396
1.01544
1.03539
1.05897
1.08889
1.12762
1.17709
1.23845
1.31194
1.39666
1.49104
1.59326
1.70121
1.81271
1.92557
2.03782
2.14783
2.2546
2.35802
2.45903
2.55962
2.66267
2.77236
2.8953
3.04151
3.22213
3.43425
3.64527
3.8146
3.90091
3.86901
3.70391
3.42416
3.08211
2.74561
2.46894
2.24764
2.05502
1.87856
1.71793
1.5726
1.44173
1.32353
1.21454
1.1097
0.995536
0.811613
0.528151
0.1613
-0.246606
0
1.33771
4.01472
7.92295
12.506
16.818
19.7843
20.6035
19.0968
15.7961
11.7005
7.83555
4.86936
2.97386
1.9438
1.43993
1.30556
1.17636
1.05204
0.934483
0.825274
0.725877
0.637405
0.56069
0.496419
0.445144
0.407281
0.38309
0.37272
0.37599
0.392378
0.420948
0.460353
0.508948
0.565052
0.62727
0.6948
0.767447
0.845714
0.930535
1.02285
1.12323
1.2316
1.34716
1.46853
1.59384
1.72095
1.84763
1.97166
2.09097
2.20373
2.30841
2.40381
2.48908
2.56328
2.62552
2.67597
2.71552
2.7457
2.76879
2.78756
2.80479
2.82262
2.84188
2.86007
2.87118
2.86763
2.84289
2.79379
2.72159
2.63122
2.52928
2.42166
2.31234
2.2029
2.09401
72
228
385
541
699
858
1015
1171
1328
1485
1643
1799
1954
2108
2261
2415
2568
2724
2882
3042
3202
3361
3521
3681
3689
2114
2515
2562
2659
2724
2895
3074
3259
3433
3482
3596
3684
2764
2855
3046
3079
3112
3145
3228
3261
3355
3403
3441
3538
3612
3658
3726
3722
0
0
0
0
0
0
0
0
0
0
0
0
0
0
0
0
0
0
0
0
0
0
0
0
0
0
0
0
0
0
0
0
0
0
0
0
0
0
0
0
0
0
0
0
0
0
0
0
0
0
0
0
0
0
0
0
0
0
0
0
0
0
0
0
0
0
0
0
0
0
0
0
0
0
0
0
0
0
0
0
0
0
0
0
0
0
0
0
0
0
0
0
0
0
0
0
0
0
0
0
0
0
0
0
0
0
0
0
0
0
0
0
0
0
0
0
0
0
0
0
0
0
0
0
0
0
0
0
0
0
0
0
0
0
0
0
0
0
0
0
0
0
0
0
0
0
0
0
0
0
0
0
0
0
0
0
0
0
0
0
0
0
0
0
0
0
0
0
0
0
0
0
0
0
0
0
0
0
0
0
0
0
0
0
0
0
0
0
0
0
0
0
0
0
0
0
0
0
0
0
0
0
0
0
0
0
0
0
0
0
0
0
0
0
0
0
0
0
0
0
0
0
0
0
0
0
0
0
0
0
0
0
0
0
0
0
0
0
0
0
0
0
0
0
0
0
0
0
0
0
0
0
0
0
0
0
0
0
0
0
0
0
0
0
0
0
0
0
0
0
0
0
0
0
0
0
0
0
0
0
0
0
0
0
0
0
0
0
0
0
0
0
0
0
0
0
0
0
0
0
0
0
0
0
0
0
0
0
0
0
0
0
0
0
0
0
0
0
0
0
0
0
0
0
0
0
0
0
0
0
0
0
0
0
0
0
0
0
0
0
0
0
0
0
0
0
0
0
0
0
0
0
0
0
0
0
0
0
0
0
0
0
0
0
0
0
0
0
0
0
0
0
0
0
0
0
0
0
0
0
0
0
0
0
0
0
0
0
0
0
0
0
0
0
0
0
0
0
0
0
0
0
0
0
0
0
0
0
0
0
0
0
0
0
0
0
0
0
0
0
0
0
0
0
0
0
0
0
0
0
0
0
0
0
0
0
0
0
0
0
0
0
0
0
0
0
0
0
0
0
0
0
0
0
0
0
0
0
0
0
0
0
0
0
0
0
0
0
0
0
0
0
0
0
0
0
0
0
0
0
0
0
0
0
0
0
0
0
0
0
0
0
0
0
0
0
0
0
0
0
0
0
0
0
0
0
0
0
0
0
0
0
0
0
0
0
0
0
0
0
0
0
0
0
0
0
0
0
0
0
0
0
0
0
0
0
0
0
0
0
0
0
0
0
0
0
0
0
0
0
0
0
0
0
0
0
0
0
0
0
0
0
0
0
0
0
0
0
0
0
0
0
0
0
0
0
0
0
0
0
0
0
0
0
0
0
0
0
0
0
0
0
0
0
0
0
0
0
0
0
0
0
0
0
0
0
0
0
0
0
0
0
0
0
0
0
0
0
0
0
0
0
0
0
0
0
0
0
0
0
0
0
0
0
0
0
0
0
0
0
0
0
0
0
0
0
0
0
0
0
0
0
0
0
0
0
0
0
0
0
0
0
0
0
0
0
0
0
0
0
0
0
0
0
0
0
0
0
0
0
0
0
0
0
0
0
0
0
0
0
0
0
0
0
0
0
0
0
0
0
0
0
0
0
0
0
0
0
0
0
0
0
0
0
0
0
0
0
0
0
0
0
0
0
0
0
0
0
0
0
0
0
0
0
0
0
0
0
0
0
0
0
0
0
0
0
0
0
0
0
0
0
0
0
0
0
0
0
0
0
0
0
0
0
0
0
0
0
0
0
0
0
0
0
0
0
0
0
0
0
0
0
0
0
0
0
0
0
0
0
0
0
0
0
0
0
0
0
0
0
0
0
0
0
0
0
0
0
0
0
0
0
0
0
0
0
0
0
0
0
0
0
0
0
0
0
0
0
0
0
0
0
0
0
0
0
0
0
0
0
0
0
0
0
0
0
0
0
0
0
0
0
0
0
0
0
0
0
0
0
0
0
0
0
0
0
0
0
0
0
0
0
0
0
0
0
0
0
0
0
0
0
0
0
0
0
0
0
0
0
0
0
0
0
0
0
0
0
0
0
0
0
0
0
0
0
0
0
0
0
0
0
0
0
0
0
0
0
0
0
0
0
0
0
0
0
0
0
0
0
0
0
0
0
0
0
0
0
0
0
0
0
0
0
0
0
0
0
0
0
0
0
0
0
0
0
0
0
0
0
0
0
0
0
0
0
0
0
0
0
0
0
0
0
0
0
0
0
0
0
0
0
0
0
0
0
0
0
0
0
0
0
0
0
0
0
0
0
0
0
0
0
0
0
0
0
0
0
0
0
0
0
0
0
0
0
0
0
0
0
0
0
0
0
0
0
0
0
0
0
0
0
0
0
0
0
0
0
0
0
0
0
0
0
0
0
0
0
0
0
0
0
0
0
0
0
0
0
0
0
0
0
0
0
0
0
0
0
0
0
0
0
0
0
0
0
0
0
0
0
0
0
0
0
0
0
0
0
0
0
0
0
0
0
0
0
0
0
0
0
0
0
0
0
0
0
0
0
0
0
0
0
0
0
0
0
0
0
0
0
0
0
0
0
0
0
0
0
0
0
0
0
0
0
0
0
0
0
0
0
0
0
0
0
0
0
0
0
0
0
0
0
0
0
0
0
0
0
0
0
0
0
0
0
0
0
0
0
0
0
0
0
0
0
0
0
0
0
0
0
0
0
0
0
0
0
0
0
0
0
0
0
0
0
0
0
0
0
0
0
0
0
0
0
0
0
0
0
0
0
0
0
0
0
0
0
0
0
0
0
0
0
0
0
0
0
0
0
0
0
0
0
0
0
0
0
0
0
0
0
0
0
0
0
0
0
0
0
0
0
0
0
0
0
0
0
0
0
0
0
0
0
0
0
0
0
0
0
0
0
0
0
0
0
0
0
0
0
0
0
0
0
0
0
0
0
0
0
0
0
0
0
0
0
0
0
0
0
0
0
0
0
0
0
0
0
0
0
0
0
0
0
0
0
0
0
0
0
0
0
0
0
0
0
0
0
0
0
0
0
0
0
0
0
0
0
0
0
0
0
0
0
0
0
0
0
0
0
0
0
0
0
0
0
0
0
0
0
0
0
0
0
0
0
0
0
0
0
0
0
0
0
0
0
0
0
0
0
0
0
0
0
0
0
0
0
0
0
0
0
0
0
0
0
0
0
0
0
0
0
0
0
0
0
0
0
0
0
0
0
0
0
0
0
0
0
0
0
0
0
0
0
0
0
0
0
0
0
0
0
0
0
0
0
0
0
0
0
0
0
0
0
0
0
0
0
0
0
0
0
0
0
0
0
0
0
0
0
0
0
0
0
0
0
0
0
0
0
0
0
0
0
0
0
0
0
0
0
0
0
0
0
0
0
0
0
0
0
0
0
0
0
0
0
0
0
0
0
0
0
0
0
0
0
0
0
0
0
0
0
0
0
0
0
0
0
0
0
0
0
0
0
0
0
0
0
0
0
0
0
0
0
0
0
0
0
0
0
0
0
0
0
0
0
0
0
0
0
0
0
0
0
0
0
0
0
0
0
0
0
0
0
0
0
0
0
0
0
0
0
0
0
0
0
0
0
0
0
0
0
0
0
0
0
0
0
0
0
0
0
0
0
0
0
0
0
0
0
0
0
0
0
0
0
0
0
0
0
0
0
0
0
0
0
0
0
0
0
0
0
0
0
0
0
0
0
0
0
0
0
0
0
0
0
0
0
0
0
0
0
0
0
0
0
0
0
0
0
0
0
0
0
0
0
0
0
0
0
0
0
0
0
0
0
0
0
0
0
0
0
0
0
0
0
0
0
0
0
0
0
0
0
0
0
0
0
0
0
0
0
0
0
0
0
0
0
0
0
0
0
0
0
0
0
0
0
0
0
0
0
0
0
0
0
0
0
0
0
0
0
0
0
0
0
0
0
0
0
0
0
0
0
0
0
0
0
0
0
0
0
0
0
0
0
0
0
0
0
0
0
0
0
0
0
0
0
0
0
0
0
0
0
0
0
0
0
0
0
0
0
0
0
0
0
0
0
0
0
0
0
0
0
0
0
0
0
0
0
0
0
0
0
0
0
0
0
0
0
0
0
0
0
0
0
0
0
0
0
0
0
0
0
0
0
0
0
0
0
0
0
0
0
0
0
0
0
0
0
0
0
0
0
0
0
0
0
0
0
0
0
0
0
0
0
0
0
0
0
0
0
0
0
0
0
0
0
0
0
0
0
0
0
0
0
0
0
0
0
0
0
0
0
0
0
0
0
0
0
0
0
0
0
0
0
0
0
0
0
0
0
0
0
0
0
0
0
0
0
0
0
0
0
0
0
0
0
0
0
0
0
0
0
0
0
0
0
0
0
0
0
0
0
0
0
0
0
0
0
0
0
0
0
0
0
0
0
0
0
0
0
0
0
0
0
0
0
0
0
0
0
0
0
0
0
0
0
0
0
0
0
0
0
0
0
0
0
0
0
0
0
0
0
0
0
0
0
0
0
0
0
0
0
0
0
0
0
0
0
0
0
0
0
0
0
0
0
0
0
0
0
0
0
0
0
0
0
0
0
0
0
0
0
0
0
0
0
0
0
0
0
0
0
0
0
0
0
0
0
0
0
0
0
0
0
0
0
0
0
0
0
0
0
0
0
0
0
0
0
0
0
0
0
0
0
0
0
0
0
0
0
0
0
0
0
0
0
0
0
0
0
0
0
0
0
0
0
0
0
0
0
0
0
0
0
0
0
0
0
0
0
0
0
0
0
0
0
0
0
0
0
0
0
0
0
0
0
0
0
0
0
0
0
0
0
0
0
0
0
0
0
0
0
0
0
0
0
0
0
0
0
0
0
0
0
0
0
0
0
0
0
0
0
0
0
0
0
0
0
0
0
0
0
0
0
0
0
0
0
0
0
0
0
0
0
0
0
0
0
0
0
0
0
0
0
0
0
0
0
0
0
0
0
0
0
0
0
0
0
0
0
0
0
0
0
0
0
0
0
0
0
0
0
0
0
0
0
0
0
0
0
0
0
0
0
0
0
0
0
0
0
0
0
0
0
0
0
0
0
0
0
0
0
0
0
0
0
0
0
0
0
0
0
0
0
0
0
0
0
0
0
0
0
0
0
0
0
0
0
0
0
0
0
0
0
0
0
0
0
0
0
0
0
0
0
0
0
0
0
0
0
0
0
0
0
0
0
0
0
0
0
0
0
0
0
0
0
0
0
0
0
0
0
0
0
0
0
0
0
0
0
0
0
0
0
0
0
0
0
0
0
0
0
0
0
0
0
0
0
0
0
0
0
0
0
0
0
0
0
0
0
0
0
0
0
0
0
0
0
0
0
0
0
0
0
0
0
0
0
0
0
0
0
0
0
0
0
0
0
0
0
0
0
0
0
0
0
0
0
0
0
0
0
0
0
0
0
0
0
0
0
0
0
0
0
0
0
0
0
0
0
0
0
0
0
0
0
0
0
0
0
0
0
0
0
0
0
0
0
0
0
0
0
0
0
0
0
0
0
0
0
0
0
0
0
0
0
0
0
0
0
0
0
0
0
0
0
0
0
0
0
0
0
0
0
0
0
0
0
0
0
0
0
0
0
0
0
0
0
0
0
0
0
0
0
0
0
0
0
0
0
0
0
0
0
0
0
0
0
0
0
0
0
0
0
0
0
0
0
0
0
0
0
0
0
0
0
0
0
0
0
0
0
0
0
0
0
0
0
0
0
0
0
0
0
0
0
0
0
0
0
0
0
0
0
0
0
0
0
0
0
0
0
0
0
0
0
0
0
0
0
0
0
0
0
0
0
0
0
0
0
0
0
0
0
0
0
0
0
0
0
0
0
0
0
0
0
0
0
0
0
0
0
0
0
0
0
0
0
0
0
0
0
0
0
0
0
0
0
0
0
0
0
0
0
0
0
0
0
0
0
0
0
0
0
0
0
0
0
0
0
0
0
0
0
0
0
0
0
0
0
0
0
0
0
0
0
0
0
0
0
0
0
0
0
0
0
0
0
0
0
0
0
0
0
0
0
0
0
0
0
0
0
0
0
0
0
0
0
0
0
0
0
0
0
0
0
0
0
0
0
0
0
0
0
0
0
0
0
0
0
0
0
0
0
0
0
0
0
0
0
0
0
0
0
0
0
0
0
0
0
0
0
0
0
0
0
0
0
0
0
0
0
0
0
0
0
0
0
0
0
0
0
0
0
0
0
0
0
0
0
0
0
0
0
0
0
0
0
0
0
0
0
0
0
0
0
0
0
0
0
0
0
0
0
0
0
0
0
0
0
0
0
0
0
0
0
0
0
0
0
0
0
0
0
0
0
0
0
0
0
0
0
0
0
0
0
0
0
0
0
0
0
0
0
0
0
0
0
0
0
0
0
0
0
0
0
0
0
0
0
0
0
0
0
0
0
0
0
0
0
0
0
0
0
0
0
0
0
0
0
0
0
0
0
0
0
0
0
0
0
0
0
0
0
0
0
0
0
0
0
0
0
0
0
0
0
0
0
0
0
0
0
0
0
0
0
0
0
0
0
0
0
0
0
0
0
0
0
0
0
0
0
0
0
0
0
0
0
0
0
0
0
0
0
0
0
0
0
0
0
0
0
0
0
0
0
0
0
0
0
0
0
0
0
0
0
0
0
0
0
0
0
0
0
0
0
0
0
0
0
0
0
0
0
0
0
0
0
0
0
0
0
0
0
0
0
0
0
0
0
0
0
0
0
0
0
0
0
0
0
0
0
0
0
0
0
0
0
0
0
0
0
0
0
0
0
0
0
0
0
0
0
0
0
0
0
0
0
0
0
0
0
0
0
0
0
0
0
0
0
0
0
0
0
0
0
0
0
0
0
0
0
0
0
0
0
0
0
0
0
0
0
0
0
0
0
0
0
0
0
0
0
0
0
0
0
0
0
0
0
0
0
0
0
0
0
0
0
0
0
0
0
0
0
0
0
0
0
0
0
0
0
0
0
0
0
0
0
0
0
0
0
0
0
0
0
0
0
0
0
0
0
0
0
0
0
0
0
0
0
0
0
0
0
0
0
0
0
0
0
0
0
0
0
0
0
0
0
0
0
0
0
0
0
0
0
0
0
0
0
0
0
0
0
0
0
0
0
0
0
0
0
0
0
0
0
0
0
0
0
0
0
0
0
0
0
0
0
0
0
0
0
0
0
0
0
0
0
0
0
0
0
0
0
0
0
0
0
0
0
0
0
0
0
0
0
0
0
0
0
0
0
0
0
0
0
0
0
0
0
0
0
0
0
0
0
0
0
0
0
0
0
0
0
0
0
0
0
0
0
0
0
0
0
0
0
0
0
0
0
0
0
0
0
0
0
0
0
0
0
0
0
0
0
0
0
0
0
0
0
0
0
0
0
0
0
0
0
0
0
0
0
0
0
0
0
0
0
0
0
0
0
0
0
0
0
0
0
0
0
0
0
0
0
0
0
0
0
0
0
0
0
0
0
0
0
0
0
0
0
0
0
0
0
0
0
0
0
0
0
0
0
0
0
0
0
0
0
0
0
0
0
0
0
0
0
0
0
0
0
0
0
0
0
0
0
0
0
0
0
0
0
0
0
0
0
0
0
0
0
0
0
0
0
0
0
0
0
0
0
0
0
0
0
0
0
0
0
0
0
0
0
0
0
0
0
0
0
0
0
0
0
0
0
0
0
0
0
0
0
0
0
0
0
0
0
0
0
0
0
0
0
0
0
0
0
0
0
0
0
0
0
0
0
0
0
0
0
0
0
0
0
0
0
0
0
0
0
0
0
0
0
0
0
0
0
0
0
0
0
0
0
0
0
0
0
0
0
0
0
0
0
0
0
0
0
0
0
0
0
0
0
0
0
0
0
0
0
0
0
0
0
0
0
0
0
0
0
0
0
0
0
0
0
0
0
0
0
0
0
0
0
0
0
0
0
0
0
0
0
0
0
0
0
0
0
0
0
0
0
0
0
0
0
0
0
0
0
0
0
0
0
0
0
0
0
0
0
0
0
0
0
0
0
0
0
0
0
0
0
0
0
0
0
0
0
0
0
0
0
0
0
0
0
0
0
0
0
0
0
0
0
0
0
0
0
0
0
0
0
0
0
0
0
0
0
0
0
0
0
0
0
0
0
0
0
0
0
0
0
0
0
0
0
0
0
0
0
0
0
0
0
0
0
0
0
0
0
0
0
0
0
0
0
0
0
0
0
0
0
0
0
0
0
0
0
0
0
0
0
0
0
0
0
0
0
0
0
0
0
0
0
0
0
0
0
0
0
0
0
0
0
0
0
0
0
0
0
0
0
0
0
0
0
0
0
0
0
0
0
0
0
0
0
0
0
0
0
0
0
0
0
0
0
0
0
0
0
0
0
0
0
0
0
0
0
0
0
0
0
