0.265256
0.31283
0.361882
0.414793
0.474291
0.543497
0.620214
0.69464
0.753318
0.783525
0.777442
0.734417
0.6607
0.567159
0.466202
0.368928
0.281599
0.206641
0.14548
0.099206
0.0674837
0.0485399
0.0397255
0.0369634
0.0360045
0.033291
0.0267037
0.0159235
-0.000661874
0
0.420782
1.27106
2.41232
3.58703
4.52131
5.02251
5.00924
4.46614
3.3937
1.82633
-0.0845309
-2.0089
-3.49875
-4.18339
-3.96135
-3.06787
-1.94419
-1.00233
-0.443157
-0.242021
-0.192285
-0.145528
-0.0960801
-0.042146
0.0182487
0.0865794
0.163325
0.247774
0.338063
0.431479
0.524998
0.615904
0.702333
0.783583
0.860117
0.933231
1.00452
1.0753
1.14611
1.21654
1.28533
1.35073
1.41108
1.46539
1.51368
1.55712
1.59785
1.63866
1.68256
1.7324
1.79063
1.85929
1.93987
2.0332
2.13939
2.25765
2.38624
2.52269
2.66396
2.80698
2.94925
3.08917
3.22625
3.36091
3.49411
3.62691
3.7599
3.89288
4.02404
4.14839
4.2563
4.33613
4.37505
4.36208
4.29153
4.16584
3.9963
3.80101
3.60014
3.40937
3.23248
3.06635
2.90563
2.74218
2.5674
2.37463
2.16093
1.92777
1.68066
1.42791
1.17875
0.940516
0.719819
0.521623
0.349457
0.206886
0.0944932
0.00814689
-0.0574652
-0.107513
-0.14588
-0.174602
-0.194066
-0.203899
-0.204136
-0.196297
-0.18333
-0.169885
-0.161119
-0.161317
-0.172742
-0.195033
-0.225327
-0.259044
-0.291065
-0.316924
-0.334003
-0.341976
-0.341651
-0.333896
-0.319734
-0.300137
-0.275855
-0.247392
-0.215063
-0.179096
-0.139619
-0.0966743
-0.0502168
-0.000134575
0.053642
0.110941
0.171128
0.232985
0.294219
0.351725
0.40228
0.443256
0.473189
0.491992
0.500734
0.50109
0.494731
0.483
0.466883
0.446974
0.424036
0.399251
0.374226
0.350734
0.33029
0.313557
0.300217
0.289235
0.278867
0.266934
0.251478
0.231406
0.206993
0.180087
0.153896
0.132342
0.119095
0.116954
0.127713
0.148797
0.174461
0.197886
0.213191
0.217153
0.210062
0.195526
0.179359
0.167967
0.165991
0.175312
0.195898
0.226584
0.264719
0.306368
0.347135
0.383106
0.411555
0.431354
0.443053
0.44863
0.451008
0.453482
0.459254
0.471105
0.491283
0.521875
0.56526
0.626499
0.723286
0.892262
1.1149
1.32806
1.44672
1.40286
1.18274
0.839296
0.472059
0.185767
0.049449
-0.00310327
0
0.0486788
0.131457
0.236723
0.353576
0.474769
0.596641
0.717524
0.836855
0.954399
1.07475
1.4049
2.04785
2.94732
3.93497
4.73532
5.03327
4.5813
3.31131
1.40518
-0.723855
-2.55551
-3.66247
-3.87454
-3.33773
-2.41544
-1.49217
-0.79691
-0.346954
-0.0537513
0.0967432
0.205167
0.29378
0.366083
0.427362
0.484687
0.544915
0.612843
0.689813
0.773577
0.861456
0.950773
1.03898
1.12398
1.20368
1.27633
1.34143
1.39955
1.45299
1.5062
1.56571
1.63904
1.73282
1.85067
1.99096
2.14767
2.31142
2.46916
2.60839
2.71997
2.80011
2.85102
2.88016
2.89848
2.91809
2.94957
2.99922
3.06955
3.16062
3.27088
3.39783
3.53834
3.68903
3.84653
4.00743
4.16811
4.32397
4.46938
4.5988
4.70718
4.79068
4.84699
4.87499
4.874
4.84276
4.77882
4.68153
4.54771
4.37489
4.1628
3.9142
3.63514
3.33459
3.02383
2.71364
2.41362
2.13176
1.87387
1.64338
1.44153
1.2677
1.11989
0.995213
0.890248
0.801364
0.724897
0.657272
0.595057
0.534978
0.473923
0.408975
0.337517
0.257438
0.167438
0.0668623
-0.0443044
-0.163006
-0.280868
-0.386537
-0.468477
-0.517395
-0.528179
-0.500809
-0.440095
-0.354435
-0.254021
-0.149196
-0.047751
0.0457391
0.128883
0.200502
0.259591
0.305477
0.337811
0.356476
0.3617
0.35429
0.335934
0.309409
0.278521
0.248124
0.223494
0.209614
0.21048
0.228537
0.264343
0.316524
0.383604
0.462251
0.542427
0.609762
0.650821
0.65681
0.626841
0.569113
0.498976
0.434356
0.390345
0.37176
0.372219
0.386891
0.41255
0.443923
0.473911
0.496243
0.506814
0.50447
0.491075
0.47065
0.447667
0.425006
0.40238
0.375064
0.335782
0.278359
0.201795
0.111427
0.0251082
-0.0337554
-0.0437846
0.00659586
0.114328
0.261874
0.422359
0.567696
0.676523
0.738818
0.756017
0.737128
0.693089
0.632106
0.56045
0.481039
0.393728
0.299467
0.205071
0.121116
0.0591902
0.0287493
0.0347684
0.0771283
0.151713
0.252429
0.37732
0.561858
0.960255
1.60625
2.31028
2.84689
3.04799
2.87762
2.42783
1.84726
1.25979
0.747808
0.407657
0.222389
0.109833
0.0373962
0.00227287
0
0.0241101
0.0675183
0.124508
0.190734
0.263858
0.345315
0.455827
0.915618
1.6616
2.64594
3.83422
5.12507
6.31753
7.12315
7.23065
6.41553
4.66334
2.24705
-0.305246
-2.37873
-3.51618
-3.63316
-3.00016
-2.08262
-1.27745
-0.743848
-0.41257
-0.123023
0.107448
0.301984
0.471302
0.619677
0.750909
0.867786
0.97397
1.0725
1.16454
1.24918
1.32295
1.38108
1.41987
1.43897
1.44238
1.43811
1.43641
1.4472
1.47646
1.52429
1.58797
1.66418
1.74864
1.83589
1.92117
2.00141
2.07577
2.14564
2.21412
2.28517
2.36261
2.44928
2.54607
2.65264
2.76766
2.889
3.01417
3.14067
3.26651
3.39044
3.51199
3.63121
3.74817
3.8624
3.97222
4.07495
4.16734
4.24628
4.30972
4.35708
4.38911
4.4071
4.41194
4.40319
4.37932
4.33708
4.27275
4.18302
4.06589
3.92124
3.75091
3.55891
3.35088
3.1321
2.90729
2.68077
2.45639
2.23758
2.02732
1.82813
1.64202
1.47029
1.3134
1.17105
1.04226
0.925838
0.820675
0.726164
0.642391
0.570144
0.510639
0.465261
0.435101
0.420704
0.42181
0.436737
0.461343
0.488587
0.5103
0.519027
0.509499
0.479711
0.431315
0.369203
0.30036
0.232278
0.171035
0.119579
0.0785393
0.0483238
0.027893
0.0159551
0.0117901
0.0157836
0.029479
0.055094
0.0946358
0.148901
0.218172
0.298447
0.383381
0.465526
0.537759
0.594533
0.632693
0.651726
0.653564
0.642043
0.622179
0.599243
0.577915
0.56152
0.551535
0.547043
0.546028
0.545982
0.54417
0.538139
0.526072
0.506961
0.480583
0.447392
0.408327
0.364731
0.318336
0.271352
0.226435
0.186676
0.155434
0.135904
0.13154
0.146211
0.181037
0.229263
0.279051
0.317661
0.334964
0.326307
0.293844
0.246033
0.195497
0.155889
0.136505
0.139542
0.163138
0.204082
0.25779
0.316961
0.373768
0.421163
0.453802
0.468413
0.463621
0.439474
0.396948
0.33848
0.265625
0.180074
0.0867049
-0.00550996
-0.0855103
-0.142556
-0.16848
-0.159555
-0.117402
-0.0486436
0.036648
0.12734
0.213956
0.291671
0.360555
0.423227
0.483169
0.544486
0.611489
0.687874
0.777039
0.882146
1.00378
1.13535
1.26204
1.36616
1.43142
1.44641
1.40695
1.31672
1.18614
1.0299
0.863811
0.7017
0.551371
0.415463
0.29669
0.197298
0.118496
0.060514
0.0226427
0.00327493
0
0.0106797
0.0333845
0.120247
0.547169
1.41972
2.80855
4.60752
6.49008
7.96933
8.56138
7.98653
6.29825
3.87035
1.25267
-1.0224
-2.59076
-3.3163
-3.28471
-2.70975
-1.86072
-0.976687
-0.215183
0.347679
0.631833
0.733372
0.809743
0.879908
0.94806
1.01598
1.08413
1.1511
1.214
1.26959
1.31569
1.35225
1.3818
1.40917
1.44056
1.48235
1.53871
1.6113
1.7012
1.81207
1.94472
2.08378
2.20809
2.29748
2.33933
2.33319
2.29136
2.23526
2.18925
2.17431
2.19258
2.23957
2.31313
2.41164
2.53246
2.67204
2.82621
2.99038
3.15958
3.32838
3.48968
3.63563
3.75929
3.85552
3.92223
3.96126
3.9786
3.98376
3.98844
4.02959
4.26523
4.7541
5.32772
5.78258
5.94733
5.75633
5.28007
4.69049
4.18237
3.88947
3.71014
3.54715
3.38549
3.22275
3.05848
2.89341
2.72887
2.56611
2.40579
2.24769
2.09089
1.9343
1.77728
1.62022
1.46492
1.31454
1.1733
1.04617
0.938355
0.853623
0.793988
0.760122
0.753048
0.767242
0.793324
0.821805
0.845261
0.859819
0.865439
0.86497
0.862427
0.861228
0.862754
0.866648
0.872078
0.878002
0.883657
0.88888
0.894133
0.900268
0.908097
0.918004
0.929695
0.941841
0.95229
0.958558
0.958469
0.95081
0.935834
0.915457
0.893062
0.87291
0.859178
0.855137
0.862538
0.881964
0.910281
0.942722
0.974096
0.999881
1.01683
1.02297
1.01721
0.998998
0.968873
0.927969
0.879069
0.826719
0.778814
0.744095
0.729794
0.739299
0.771382
0.819037
0.872086
0.92017
0.955628
0.975256
0.980464
0.975969
0.967678
0.960532
0.956711
0.956357
0.958367
0.960684
0.960982
0.957283
0.948401
0.934111
0.915079
0.892594
0.868231
0.843557
0.819963
0.798689
0.780951
0.76804
0.76129
0.761839
0.770314
0.787125
0.810409
0.836282
0.860002
0.877107
0.884563
0.881538
0.86959
0.85229
0.834441
0.820871
0.815139
0.81957
0.835861
0.864698
0.903956
0.947198
0.985314
1.0091
1.01148
0.989531
0.945665
0.887715
0.827821
0.780329
0.75821
0.768157
0.81106
0.886893
0.99444
1.13378
1.29168
1.44563
1.57422
1.66214
1.70353
1.70272
1.6723
1.62948
1.592
1.57247
1.57454
1.60375
1.6762
1.79962
1.94265
2.06209
2.11625
2.0803
1.95665
1.77446
1.57813
1.40992
1.29056
1.2017
1.1271
1.05816
0.984549
0.896395
0.78609
0.649848
0.48815
0.306785
0.108862
0
0.548553
1.68344
3.17906
4.69581
5.91158
6.61496
6.7163
6.20243
5.09255
3.44731
1.42375
-0.688718
-2.5087
-3.6822
-4.01807
-3.55906
-2.55689
-1.36943
-0.329846
0.358697
0.664484
0.832096
1.01867
1.20645
1.3882
1.55262
1.68674
1.77947
1.82519
1.82609
1.79243
1.7406
1.68962
1.65686
1.65041
1.67002
1.71204
1.77195
1.84511
1.92693
2.01322
2.10078
2.18776
2.27375
2.35954
2.4467
2.53711
2.63241
2.73355
2.8405
2.95207
3.06606
3.17897
3.28675
3.38625
3.47633
3.55852
3.63706
3.71794
3.80737
3.90996
4.02723
4.15622
4.2915
4.42707
4.55685
4.67578
4.78068
4.87041
4.94551
5.0072
5.05505
5.08663
5.09919
5.08819
5.04889
4.97823
4.87615
4.74569
4.59188
4.41974
4.23249
4.03295
3.82124
3.59559
3.35477
3.09913
2.83141
2.55688
2.283
2.01833
1.77129
1.54949
1.35923
1.20247
1.07595
0.973752
0.889151
0.816277
0.751282
0.692634
0.640604
0.596209
0.559775
0.530487
0.506732
0.485818
0.464778
0.441202
0.413965
0.383627
0.352405
0.323746
0.301635
0.289749
0.290579
0.305836
0.33602
0.380527
0.437846
0.505638
0.581043
0.661017
0.741834
0.818757
0.886326
0.939619
0.974809
0.989897
0.985198
0.963386
0.929049
0.887875
0.845673
0.807368
0.775882
0.752494
0.737529
0.730487
0.730043
0.733679
0.737661
0.738463
0.733762
0.723227
0.708787
0.694184
0.683877
0.681607
0.689121
0.70513
0.726461
0.74846
0.766161
0.775421
0.773671
0.760136
0.735558
0.701679
0.660776
0.615532
0.568952
0.524441
0.486687
0.46062
0.450694
0.459995
0.494211
0.54625
0.604107
0.654688
0.688201
0.701097
0.696226
0.680321
0.660245
0.639917
0.61941
0.597262
0.571997
0.543558
0.514152
0.488208
0.471432
0.469299
0.484488
0.516355
0.563663
0.622331
0.685574
0.746148
0.79786
0.836805
0.862097
0.875989
0.883398
0.890983
0.905878
0.933868
0.980988
1.0572
1.16141
1.27152
1.35955
1.40128
1.38482
1.31388
1.20416
1.07492
0.940565
0.806993
0.674534
0.543397
0.415581
0.295376
0.188963
0.10294
0.0423025
0.00875858
0
0.0136566
0.132089
0.503175
1.27066
2.51172
4.08132
5.61805
6.67483
6.89846
6.15968
4.57793
2.46176
0.215373
-1.7541
-3.12501
-3.73997
-3.65062
-3.06788
-2.27201
-1.49887
-0.876212
-0.431609
-0.13735
0.0893235
0.288675
0.470027
0.63474
0.781701
0.908377
1.01328
1.0962
1.15834
1.20225
1.23167
1.25116
1.26571
1.28033
1.29958
1.32722
1.36601
1.41762
1.48257
1.56015
1.64839
1.74435
1.844
1.94193
2.03209
2.10955
2.17157
2.21842
2.25365
2.28366
2.31659
2.36086
2.42363
2.50847
2.61499
2.74158
2.88604
3.04505
3.21434
3.38908
3.56426
3.73497
3.89677
4.04584
4.17903
4.29362
4.38733
4.45879
4.50746
4.53319
4.53618
4.51706
4.47691
4.41716
4.33937
4.24486
4.13472
4.00959
3.86925
3.71264
3.53825
3.34472
3.13136
2.89865
2.64866
2.38528
2.1141
1.84199
1.57631
1.32397
1.09059
0.88005
0.693375
0.529295
0.385069
0.257508
0.14394
0.0428566
-0.0459179
-0.12152
-0.182671
-0.228766
-0.259791
-0.276972
-0.28242
-0.279521
-0.273924
-0.271764
-0.277716
-0.293711
-0.318167
-0.346071
-0.370013
-0.381972
-0.375353
-0.341396
-0.275581
-0.189279
-0.108114
-0.0586337
-0.0594444
-0.114181
-0.208445
-0.312297
-0.3883
-0.402849
-0.346151
-0.238531
-0.0986895
0.0642046
0.240616
0.416649
0.576554
0.707136
0.799111
0.847784
0.853043
0.818742
0.751691
0.660568
0.555035
0.445443
0.340678
0.247666
0.172965
0.121566
0.0979746
0.110794
0.154993
0.213825
0.268478
0.304204
0.314929
0.304307
0.282881
0.262917
0.253474
0.255446
0.265599
0.281896
0.302262
0.32491
0.348423
0.371417
0.391787
0.406404
0.411321
0.40252
0.3771
0.334401
0.276623
0.208708
0.137485
0.0703675
0.0133314
-0.0302413
-0.05788
-0.068886
-0.0640455
-0.0451763
-0.0146707
0.0247069
0.0701597
0.118935
0.168173
0.214365
0.253937
0.2838
0.302065
0.308753
0.306242
0.299237
0.294208
0.298394
0.31861
0.35882
0.420359
0.505241
0.615684
0.752956
0.912486
1.07581
1.21617
1.30746
1.33023
1.27777
1.1592
0.997249
0.82056
0.654063
0.509953
0.385044
0.274656
0.180879
0.104945
0.0485852
0.0134022
0
0.0080379
0.0339384
0.0734105
0.121674
0.18559
0.461901
1.13277
2.21014
3.55863
4.89835
5.87698
6.17952
5.63928
4.3015
2.4162
0.36401
-1.45597
-2.73286
-3.30591
-3.25097
-2.71402
-1.92885
-1.12911
-0.498011
-0.167018
-0.0697266
-0.00568128
0.0538512
0.114204
0.178422
0.249253
0.328617
0.417145
0.513864
0.61659
0.720483
0.819394
0.907392
0.980087
1.03561
1.07495
1.10157
1.12054
1.13735
1.15678
1.18195
1.2148
1.25625
1.30631
1.36436
1.42951
1.50083
1.57757
1.65914
1.74507
1.83487
1.92795
2.02355
2.12089
2.21924
2.3181
2.41727
2.51682
2.61703
2.71823
2.82076
2.92492
3.03099
3.13919
3.24954
3.36165
3.47442
3.58568
3.69211
3.78937
3.87246
3.93575
3.97383
3.98228
3.95778
3.8985
3.8045
3.67794
3.52319
3.34637
3.15461
2.955
2.75329
2.55288
2.35509
2.15953
1.96474
1.76908
1.57162
1.37268
1.17403
0.978803
0.790972
0.614984
0.455268
0.315849
0.200279
0.110764
0.048188
0.0160273
0.0175518
0.0438601
0.0801099
0.111415
0.126722
0.121388
0.0972601
0.0602624
0.0168322
-0.028886
-0.0754504
-0.122535
-0.16924
-0.212935
-0.248965
-0.271307
-0.272081
-0.238124
-0.162085
-0.0549583
0.0583286
0.150398
0.199259
0.193636
0.135158
0.0377871
-0.0751241
-0.176024
-0.241248
-0.261846
-0.243789
-0.198182
-0.133814
-0.0568
0.0258307
0.106369
0.177638
0.234962
0.27667
0.304318
0.322405
0.337447
0.356453
0.385041
0.427593
0.48318
0.542122
0.59139
0.619438
0.62056
0.597005
0.558065
0.51665
0.48473
0.467627
0.462644
0.466043
0.471413
0.469274
0.450179
0.407216
0.338246
0.242972
0.133419
0.0335629
-0.0313101
-0.0426965
0.0048842
0.101984
0.227405
0.355133
0.462247
0.542516
0.596521
0.625517
0.63409
0.628432
0.614694
0.597767
0.58034
0.563319
0.546484
0.529075
0.510366
0.490089
0.46861
0.446832
0.425906
0.406878
0.390545
0.377219
0.367021
0.360263
0.357816
0.361268
0.372748
0.39443
0.427835
0.473201
0.529252
0.592593
0.657774
0.717125
0.761932
0.784812
0.780882
0.748935
0.69214
0.61801
0.537443
0.46289
0.406022
0.373518
0.367744
0.388511
0.432043
0.491978
0.560693
0.630539
0.695464
0.750944
0.793327
0.820839
0.833283
0.832078
0.820281
0.802509
0.784651
0.773354
0.776643
0.811629
0.922409
1.18379
1.56957
1.96936
2.26718
2.3598
2.19429
1.80018
1.28774
0.808361
0.499136
0.347362
0.256194
0.188581
0.134925
0.0916816
0.0560121
0.0258173
0
-0.0201251
0.0135946
0.486234
1.42529
2.7534
4.24272
5.59303
6.53069
6.8652
6.50002
5.42589
3.73294
1.64373
-0.47962
-2.20374
-3.16169
-3.23442
-2.56385
-1.50365
-0.447596
0.32613
0.696539
0.748169
0.786253
0.821789
0.85497
0.885058
0.911451
0.934434
0.955848
0.979263
1.00939
1.05077
1.10621
1.17557
1.25456
1.33778
1.41898
1.49269
1.55564
1.60748
1.65071
1.6897
1.72935
1.77344
1.82444
1.88251
1.94322
2.0007
2.0504
2.09133
2.12718
2.16547
2.21522
2.28362
2.37329
2.47864
2.59389
2.71045
2.8206
2.92013
3.00986
3.09555
3.1863
3.29182
3.41957
3.57054
3.74056
3.92637
4.11897
4.30252
4.46022
4.57825
4.64799
4.667
4.63868
4.57076
4.473
4.35471
4.22326
4.08353
3.93739
3.78493
3.62547
3.45829
3.28324
3.10104
2.91336
2.72258
2.53144
2.34245
2.15745
1.97729
1.80186
1.63045
1.46237
1.29758
1.13729
0.984004
0.841283
0.713091
0.603921
0.517731
0.45441
0.410035
0.379069
0.356072
0.337209
0.321011
0.308146
0.30038
0.299218
0.304408
0.314151
0.325936
0.336723
0.343686
0.344797
0.339099
0.326655
0.308307
0.285422
0.259861
0.233739
0.20958
0.190363
0.179191
0.17883
0.191152
0.216711
0.254594
0.302647
0.357963
0.417474
0.478346
0.538442
0.596025
0.649353
0.696407
0.735155
0.763335
0.778674
0.7792
0.763534
0.73112
0.682393
0.618973
0.543931
0.46069
0.377253
0.306422
0.261713
0.253881
0.287327
0.357905
0.453306
0.556161
0.648852
0.718869
0.764514
0.785483
0.78489
0.76714
0.736011
0.69468
0.644871
0.587323
0.523612
0.456447
0.391069
0.33368
0.289965
0.263621
0.25544
0.263254
0.282674
0.308286
0.334802
0.35848
0.376884
0.388497
0.392691
0.389543
0.379673
0.364121
0.344278
0.321838
0.298764
0.277172
0.259242
0.247041
0.242298
0.246146
0.258875
0.27979
0.30734
0.33872
0.369402
0.394339
0.409455
0.412795
0.405167
0.389936
0.371838
0.355258
0.34327
0.332334
0.314562
0.2826
0.235085
0.179496
0.130509
0.10449
0.113015
0.154312
0.218306
0.299151
0.390542
0.487007
0.585166
0.68309
0.779342
0.87227
0.959728
1.03833
1.10368
1.15096
1.17543
1.17273
1.13936
1.07325
0.974364
0.845264
0.685023
0.497545
0.308867
0.148332
0.0409371
0
0.0233837
0.093896
0.186106
0.27459
0.341551
0.388984
0.422904
0.443141
0.431385
0.642295
1.27341
2.3732
3.77458
5.10103
5.90032
5.8144
4.71181
2.74616
0.330388
-1.97182
-3.62581
-4.32156
-4.08054
-3.21281
-2.14542
-1.22516
-0.611836
-0.309742
-0.202086
-0.0899478
0.0250936
0.14186
0.259219
0.375426
0.48834
0.59599
0.697106
0.79143
0.87968
0.963157
1.04311
1.11997
1.19295
1.25962
1.31676
1.3613
1.39158
1.40843
1.41557
1.41925
1.42718
1.44697
1.48457
1.54173
1.61671
1.70662
1.80811
1.91748
2.03129
2.14697
2.26312
2.37948
2.49656
2.61512
2.7356
2.85776
2.98056
3.10233
3.22122
3.33579
3.44548
3.55099
3.65413
3.75755
3.86397
3.9759
4.09493
4.2197
4.34408
4.4577
4.54863
4.60572
4.62053
4.58856
4.50949
4.38655
4.22508
4.03077
3.80851
3.56346
3.30127
3.02722
2.74577
2.462
2.18209
1.9126
1.65999
1.42904
1.22107
1.03465
0.86638
0.712238
0.568863
0.434486
0.309229
0.194798
0.0932724
0.00651064
-0.0637985
-0.117064
-0.153928
-0.175987
-0.186018
-0.187347
-0.183468
-0.177721
-0.173063
-0.172004
-0.17629
-0.186784
-0.203319
-0.224596
-0.248212
-0.270868
-0.288782
-0.298247
-0.296362
-0.281353
-0.252884
-0.212206
-0.16181
-0.105466
-0.0478122
0.00635624
0.0531184
0.0903173
0.118121
0.139228
0.158578
0.182524
0.21754
0.273856
0.363809
0.47856
0.592125
0.673931
0.70064
0.665172
0.579013
0.467337
0.359762
0.280829
0.233848
0.210487
0.204222
0.211937
0.228381
0.247611
0.264488
0.27555
0.279478
0.277057
0.270646
0.26333
0.258011
0.256581
0.25953
0.266396
0.276243
0.287749
0.299466
0.309988
0.3181
0.322839
0.323517
0.319722
0.311309
0.298386
0.281306
0.260683
0.237455
0.212829
0.188264
0.165415
0.145962
0.131387
0.122743
0.120584
0.124917
0.135258
0.150897
0.171397
0.196901
0.228218
0.266612
0.313329
0.36899
0.433081
0.503808
0.578137
0.652354
0.723067
0.788068
0.846861
0.900683
0.95197
1.00344
1.0572
1.11384
1.17084
1.22211
1.25959
1.27526
1.26319
1.22105
1.15059
1.0572
0.948493
0.832516
0.716149
0.603431
0.496033
0.394652
0.29998
0.212547
0.13281
0.0614078
0
-0.0346369
0.165351
0.735513
1.60737
2.7199
3.92263
4.99231
5.67133
5.72273
4.99582
3.49945
1.45106
-0.745459
-2.61099
-3.7518
-4.01494
-3.49047
-2.45424
-1.23904
-0.134669
0.637348
0.768269
0.674981
0.565019
0.460948
0.385649
0.35703
0.380767
0.440478
0.523726
0.623595
0.734203
0.849815
0.965348
1.07673
1.18106
1.27656
1.36251
1.43897
1.50663
1.56658
1.62009
1.6685
1.71306
1.75492
1.79509
1.83461
1.87465
1.91681
1.96325
2.0168
2.08078
2.15862
2.25321
2.36617
2.4972
2.64383
2.80193
2.9657
3.12915
3.28759
3.43865
3.58274
3.72267
3.86259
4.00656
4.15763
4.31735
4.48021
4.63151
4.75385
4.83247
4.85963
4.83628
4.7708
4.67534
4.56164
4.43802
4.30964
4.17812
4.04331
3.90413
3.75895
3.60569
3.44188
3.26493
3.07257
2.86337
2.6372
2.39555
2.14153
1.87977
1.61582
1.35582
1.10611
0.872894
0.661976
0.478739
0.327024
0.208952
0.127217
0.0857411
0.0810276
0.0998436
0.127187
0.149473
0.157432
0.147784
0.123149
0.0902603
0.0571031
0.0297477
0.00965375
-0.0044197
-0.0158364
-0.0288688
-0.0468722
-0.0706915
-0.09788
-0.123062
-0.139373
-0.140508
-0.122708
-0.0871172
-0.0367343
0.0231365
0.0862235
0.146693
0.200661
0.245474
0.279771
0.303673
0.318382
0.326002
0.329379
0.331872
0.33695
0.347611
0.366317
0.394557
0.429698
0.46434
0.489817
0.499157
0.489621
0.463725
0.428306
0.392014
0.362342
0.342745
0.331634
0.326765
0.325517
0.324996
0.322597
0.316346
0.305185
0.289192
0.269827
0.250058
0.234198
0.227258
0.236054
0.271441
0.333391
0.407331
0.472414
0.509079
0.506128
0.464163
0.394509
0.314913
0.244227
0.193939
0.165633
0.158089
0.169928
0.199301
0.240828
0.28668
0.328626
0.359676
0.375418
0.374911
0.360939
0.339558
0.31896
0.307833
0.313185
0.33829
0.382169
0.443357
0.515906
0.590113
0.655658
0.703555
0.727653
0.725419
0.698035
0.650029
0.588729
0.523871
0.4663
0.427868
0.420447
0.454701
0.53868
0.691051
0.994085
1.4378
1.89964
2.24894
2.39706
2.33075
2.11029
1.82994
1.56322
1.33108
1.11021
0.891717
0.676436
0.471503
0.289295
0.14367
0.0455769
0
0.00483866
0.0528789
0.13298
0.255396
0.618388
1.28279
2.25505
3.50034
4.87593
6.1192
6.89778
6.91872
6.05337
4.4073
2.30086
0.171783
-1.55891
-2.6032
-2.87789
-2.56523
-1.89834
-1.14394
-0.485651
-0.0169072
0.203445
0.310159
0.394237
0.470383
0.542142
0.61077
0.677224
0.742507
0.808041
0.875944
0.949079
1.03073
1.12521
1.23932
1.37927
1.53684
1.68573
1.79575
1.8438
1.82342
1.74868
1.65048
1.56575
1.52428
1.5338
1.57793
1.64355
1.72616
1.82316
1.93277
2.05362
2.1844
2.32349
2.46362
2.59528
2.7102
2.80486
2.88265
2.95357
3.03126
3.12847
3.25266
3.39891
3.55894
3.72445
3.88439
4.02805
4.14718
4.23725
4.29785
4.33219
4.34588
4.34526
4.33569
4.32024
4.29857
4.26693
4.21913
4.14789
4.04659
3.91094
3.73999
3.5364
3.30588
3.05616
2.79679
2.53575
2.27965
2.0344
1.80516
1.59628
1.4112
1.25217
1.12025
1.01638
0.940162
0.885966
0.845125
0.808675
0.769011
0.721131
0.663095
0.595634
0.521207
0.443
0.364329
0.28788
0.216321
0.152624
0.0999547
0.061417
0.0409109
0.0428111
0.0680502
0.108589
0.150681
0.179846
0.184995
0.161704
0.113544
0.0510184
-0.0115613
-0.0603149
-0.0878167
-0.0948803
-0.0849938
-0.0617014
-0.0294294
0.00799839
0.0484359
0.0917164
0.139089
0.192015
0.251513
0.315842
0.378351
0.430197
0.463231
0.472817
0.459414
0.428328
0.387913
0.347054
0.31264
0.287063
0.27032
0.261936
0.260364
0.263322
0.267348
0.268176
0.261966
0.246309
0.221157
0.189347
0.156448
0.129828
0.11713
0.124469
0.153299
0.203292
0.271645
0.353157
0.437362
0.513251
0.571881
0.607958
0.620337
0.611353
0.58538
0.547277
0.501355
0.4517
0.401215
0.352654
0.309
0.273218
0.247745
0.2339
0.231407
0.238536
0.252257
0.26868
0.283604
0.292792
0.29272
0.281024
0.256995
0.221943
0.179164
0.133952
0.0926652
0.0616768
0.0462865
0.0498441
0.0732506
0.11488
0.170867
0.235655
0.302859
0.365425
0.417097
0.453284
0.471692
0.472586
0.458643
0.434447
0.405802
0.378992
0.35953
0.352013
0.360615
0.389034
0.440066
0.518272
0.634695
0.804797
1.02499
1.25695
1.45513
1.57963
1.60644
1.53237
1.37448
1.16566
0.94783
0.762515
0.626891
0.534106
0.471799
0.430778
0.405736
0.390935
0.379687
0.364972
0.340722
0.302608
0.248613
0.179337
0.0979299
0
-0.0390817
0.400174
1.3612
2.74295
4.30671
5.73822
6.70003
6.88397
6.08969
4.32738
1.89199
-0.667238
-2.71456
-3.77598
-3.73123
-2.9175
-1.84088
-0.984616
-0.562434
-0.456406
-0.280043
-0.0991622
0.0795876
0.252766
0.41652
0.567175
0.70145
0.816634
0.91125
0.985084
1.03894
1.07464
1.09509
1.1044
1.10787
1.11187
1.12336
1.14915
1.19486
1.26753
1.38121
1.54216
1.72291
1.88565
1.99624
2.03685
2.01322
1.95333
1.89729
1.88217
1.92844
2.01788
2.1296
2.25298
2.38114
2.50913
2.63456
2.75733
2.87873
3.00032
3.12306
3.24678
3.37049
3.49277
3.61218
3.72758
3.83811
3.94291
4.04051
4.12811
4.20112
4.25423
4.28147
4.27766
4.2397
4.16758
4.06455
3.93646
3.79048
3.63369
3.47197
3.30845
3.14419
2.97899
2.81191
2.64169
2.46723
2.28789
2.10376
1.91571
1.72544
1.53518
1.3475
1.16492
0.989755
0.823537
0.667143
0.521049
0.385647
0.26152
0.14954
0.0507728
-0.0330334
-0.100854
-0.15167
-0.184186
-0.196536
-0.186277
-0.145462
-0.0474837
0.126869
0.339267
0.529981
0.641722
0.645308
0.553075
0.4138
0.292351
0.243439
0.278032
0.400214
0.560317
0.691204
0.734934
0.665634
0.499714
0.289365
0.102257
-0.0033875
-0.0209769
0.0146618
0.0832044
0.178252
0.293678
0.424887
0.562927
0.693218
0.801454
0.876157
0.911019
0.906184
0.867762
0.805722
0.731119
0.653861
0.580808
0.515369
0.460385
0.418764
0.393215
0.387631
0.406322
0.44561
0.489013
0.516635
0.5118
0.467728
0.391337
0.302188
0.226495
0.188273
0.197027
0.240081
0.308667
0.392466
0.479208
0.556898
0.615562
0.648254
0.651337
0.624304
0.569429
0.491791
0.398964
0.299076
0.20294
0.122821
0.0699699
0.0526242
0.0741408
0.131853
0.222153
0.328539
0.430823
0.510612
0.555444
0.56102
0.530992
0.474766
0.404507
0.332581
0.268382
0.217094
0.183513
0.172299
0.192431
0.261301
0.396258
0.581373
0.770019
0.912295
0.971395
0.935984
0.825197
0.684803
0.57452
0.548547
0.617969
0.748383
0.926571
1.12747
1.31967
1.47509
1.57466
1.61063
1.58531
1.50776
1.39009
1.24472
1.08468
0.919123
0.753612
0.591339
0.433836
0.281542
0.13446
-0.00760164
-0.144991
-0.278517
-0.408684
-0.533564
-0.533095
0
1.1331
2.70487
4.35262
5.69602
6.4927
6.65152
6.14177
4.93162
3.05018
0.716181
-1.62075
-3.42394
-4.3279
-4.32251
-3.70902
-2.87898
-2.08572
-1.37688
-0.702235
-0.0778101
0.311604
0.562374
0.757542
0.919593
1.04594
1.13687
1.19594
1.22997
1.24841
1.26197
1.2807
1.31212
1.35906
1.41899
1.48816
1.56268
1.63842
1.71207
1.78155
1.84611
1.9058
1.96021
2.00812
2.04799
2.07794
2.09767
2.11058
2.12498
2.1537
2.21175
2.31273
2.46456
2.65921
2.88621
3.13792
3.40251
3.65889
3.88707
4.07306
4.21142
4.30559
4.36589
4.40592
4.43862
4.47332
4.51348
4.55887
4.60869
4.66138
4.71488
4.7665
4.81178
4.84531
4.86076
4.85188
4.81369
4.74345
4.64069
4.50662
4.34306
4.15217
3.93917
3.70784
3.46004
3.19803
2.92512
2.64568
2.36488
2.08832
1.82155
1.56944
1.33578
1.12288
0.931485
0.761016
0.610028
0.476912
0.360586
0.261031
0.17948
0.117776
0.0804949
0.0787994
0.117389
0.17818
0.23566
0.265332
0.25254
0.197351
0.113446
0.0222924
-0.0539544
-0.101371
-0.121311
-0.116002
-0.0848557
-0.0281996
0.0516995
0.150709
0.263777
0.383979
0.50427
0.618324
0.721065
0.808709
0.877009
0.920436
0.935318
0.91751
0.863377
0.752475
0.564024
0.337712
0.132025
0.003637
-0.0137617
0.0790088
0.249298
0.446994
0.623159
0.747499
0.83148
0.888397
0.922678
0.935677
0.92889
0.903794
0.861963
0.805422
0.736992
0.660479
0.580523
0.502154
0.430098
0.368512
0.31979
0.284092
0.260083
0.245773
0.239401
0.240052
0.247765
0.263118
0.286479
0.318153
0.356394
0.395981
0.430806
0.455859
0.468982
0.471583
0.468002
0.463797
0.463678
0.469578
0.479981
0.492606
0.504067
0.51021
0.507628
0.49452
0.471412
0.441476
0.41031
0.385093
0.373214
0.380666
0.414685
0.479506
0.569399
0.664477
0.739738
0.773038
0.750872
0.672505
0.5515
0.413678
0.291272
0.214545
0.194638
0.221178
0.281862
0.372149
0.486457
0.618356
0.760869
0.908195
1.05439
1.19215
1.31265
1.40732
1.46761
1.48595
1.45722
1.38027
1.25904
1.10283
0.925435
0.743176
0.571026
0.41779
0.287564
0.181994
0.0988694
0.0330845
-0.0218758
-0.0723438
-0.123229
-0.178014
-0.252681
0
0.714259
1.83243
3.24139
4.75889
6.1097
6.94048
6.91461
5.86496
3.91376
1.47217
-0.889305
-2.63928
-3.45779
-3.31574
-2.54009
-1.51455
-0.640389
-0.157061
-0.0586864
0.0383237
0.142584
0.250812
0.361684
0.472706
0.580033
0.679325
0.766739
0.839806
0.898033
0.943088
0.978568
1.00943
1.04121
1.07925
1.12772
1.1892
1.26484
1.35424
1.45535
1.5647
1.67779
1.78917
1.89295
1.98398
2.05856
2.11485
2.15318
2.17588
2.18699
2.19183
2.19643
2.20704
2.22915
2.26778
2.32701
2.40926
2.51487
2.6418
2.78582
2.94108
3.10104
3.25959
3.41213
3.55593
3.69036
3.81645
3.93621
4.05174
4.16431
4.27287
4.37153
4.44954
4.49321
4.4891
4.42792
4.30769
4.13522
3.92494
3.69538
3.4641
3.24133
3.02817
2.82276
2.62273
2.42509
2.22763
2.0301
1.83481
1.64647
1.47131
1.31647
1.19074
1.10084
1.04401
1.00969
0.983319
0.949628
0.896059
0.815497
0.707901
0.58061
0.447234
0.324693
0.228167
0.170143
0.173992
0.261067
0.401103
0.549222
0.662206
0.71258
0.694747
0.621974
0.517568
0.405639
0.30454
0.219644
0.151156
0.0998132
0.066729
0.0518278
0.0540439
0.0716609
0.102718
0.145342
0.197854
0.258308
0.325205
0.39672
0.46994
0.541642
0.608753
0.668737
0.719738
0.759768
0.786435
0.798491
0.795161
0.777048
0.747037
0.710606
0.675137
0.64835
0.63643
0.640537
0.659314
0.690631
0.730824
0.775373
0.819796
0.860087
0.892654
0.914596
0.923621
0.918031
0.896756
0.859454
0.806673
0.74005
0.662499
0.578335
0.49325
0.414012
0.354074
0.365331
0.585754
0.984027
1.41445
1.70358
1.72799
1.46862
1.01769
0.541321
0.222491
0.199741
0.321351
0.485698
0.672872
0.861511
1.02999
1.16035
1.24056
1.26531
1.2356
1.15759
1.04151
0.900877
0.75239
0.612432
0.497289
0.42051
0.390404
0.408375
0.468849
0.560995
0.671645
0.788292
0.901548
1.00716
1.10145
1.18164
1.24619
1.29447
1.32697
1.34543
1.35285
1.35325
1.35132
1.35209
1.36014
1.37972
1.41513
1.4711
1.55985
1.69605
1.87364
2.06241
2.22573
2.33156
2.36028
2.30695
2.17941
1.99497
1.77687
1.54999
1.33114
1.12513
0.929074
0.738123
0.548817
0.355121
0.154504
-0.0503334
-0.253445
-0.444218
0
0.943635
2.23657
3.77022
5.42085
6.9741
8.08537
8.3599
7.54169
5.68915
3.20659
0.697705
-1.2752
-2.39091
-2.61384
-2.22367
-1.51085
-0.757057
-0.128801
0.316336
0.583296
0.783829
0.969923
1.14983
1.3249
1.49335
1.65053
1.79054
1.90731
1.99625
2.05622
2.0906
2.10685
2.11453
2.12255
2.13682
2.15806
2.18447
2.21391
2.24447
2.27562
2.30868
2.34664
2.39337
2.45252
2.52606
2.61378
2.71427
2.82528
2.94382
3.06656
3.19033
3.31238
3.43057
3.54336
3.64975
3.7491
3.84084
3.92469
4.0013
4.07201
4.139
4.2052
4.27393
4.34834
4.43075
4.52205
4.62139
4.72617
4.83312
4.93821
5.03556
5.1182
5.18051
5.21821
5.2291
5.21336
5.17305
5.11055
5.02657
4.91855
4.78413
4.62064
4.42336
4.19056
3.92503
3.63461
3.33136
3.02964
2.74284
2.48108
2.25195
2.05789
1.89719
1.76503
1.65503
1.5607
1.4765
1.3984
1.32405
1.25254
1.18404
1.11958
1.06073
1.0094
0.967527
0.936771
0.918336
0.912945
0.919959
0.935852
0.954558
0.969246
0.973678
0.963548
0.937453
0.897246
0.84768
0.795427
0.747646
0.709985
0.685623
0.675445
0.678986
0.694554
0.719597
0.751397
0.787636
0.826769
0.86801
0.911069
0.955758
1.00162
1.04767
1.09241
1.13389
1.1699
1.19814
1.21625
1.22243
1.21589
1.19701
1.1677
1.13077
1.09179
1.05762
1.0348
1.02812
1.03951
1.06764
1.10816
1.15468
1.19985
1.23722
1.26151
1.26849
1.25579
1.22319
1.17301
1.1101
1.04157
0.975942
0.921896
0.886859
0.877784
0.8986
0.946611
1.01437
1.09057
1.15954
1.20637
1.22031
1.19646
1.13688
1.05082
0.953456
0.862818
0.795689
0.761888
0.757332
0.77479
0.809721
0.85735
0.911907
0.966909
1.01652
1.05639
1.08398
1.09858
1.10098
1.09288
1.07637
1.05346
1.02609
0.996069
0.965203
0.935678
0.910052
0.890967
0.880631
0.880179
0.89037
0.909963
0.934843
0.960248
0.982118
0.998182
1.00839
1.01461
1.01982
1.0272
1.0396
1.05896
1.08783
1.12921
1.18643
1.26303
1.37065
1.52124
1.70118
1.87701
2.01138
2.07556
2.05734
1.96173
1.80592
1.6126
1.40507
1.20279
1.01381
0.840201
0.682038
0.538564
0.40871
0.291636
0.184636
0.0857773
-0.00328965
0
0.570332
1.60021
2.91623
4.28726
5.48814
6.3223
6.60894
6.1855
4.95907
3.00002
0.613173
-1.69645
-3.38929
-4.11835
-3.87989
-2.98689
-1.88275
-0.920726
-0.243006
0.188967
0.449071
0.608896
0.743304
0.863294
0.971038
1.06717
1.15243
1.2282
1.29633
1.35899
1.4185
1.47714
1.53698
1.59966
1.66617
1.73664
1.8103
1.8855
1.95987
2.0307
2.09564
2.15328
2.20352
2.2477
2.28831
2.32845
2.37132
2.41967
2.47544
2.54016
2.61545
2.70322
2.80579
2.9256
3.06457
3.22317
3.39959
3.59027
3.78822
3.98182
4.15923
4.31095
4.43178
4.52157
4.58456
4.62763
4.6583
4.68307
4.70665
4.73168
4.75983
4.79224
4.82956
4.87207
4.91875
4.96261
4.9901
4.98379
4.92653
4.80644
4.62071
4.37693
4.09145
3.78537
3.47949
3.18514
2.90688
2.64789
2.40864
2.18731
1.98057
1.78449
1.59535
1.41024
1.22733
1.04602
0.866802
0.691185
0.521555
0.361129
0.214015
0.085762
-0.018234
-0.092908
-0.134288
-0.127448
-0.0498439
0.0906566
0.251132
0.383042
0.448301
0.431634
0.344328
0.218493
0.0950757
0.010996
-0.0210635
-0.0124963
0.0264248
0.0903405
0.175053
0.276393
0.388578
0.502351
0.608009
0.697018
0.763119
0.803006
0.816411
0.805663
0.77497
0.729718
0.676659
0.621883
0.570923
0.5293
0.502303
0.494387
0.508813
0.549115
0.622903
0.736751
0.87904
1.02162
1.13412
1.19183
1.18189
1.1055
0.976099
0.81522
0.64832
0.499446
0.380651
0.297616
0.258107
0.265083
0.316498
0.410608
0.530777
0.655783
0.765173
0.842957
0.879739
0.873122
0.826876
0.749559
0.6531
0.551731
0.458371
0.383508
0.333895
0.311782
0.317847
0.351421
0.409375
0.486606
0.576707
0.672634
0.76765
0.855212
0.929965
0.989019
1.03205
1.06138
1.08175
1.09947
1.12117
1.15362
1.20375
1.26608
1.3243
1.35766
1.34812
1.28645
1.17496
1.02646
0.860347
0.697598
0.551977
0.426925
0.322857
0.240453
0.178256
0.132934
0.100092
0.0752018
0.0544199
0.0350807
0.0157591
0
0.378378
1.23282
2.49064
3.91704
5.19783
6.04471
6.25164
5.70233
4.37764
2.39978
0.0832768
-2.08935
-3.61399
-4.18153
-3.82534
-2.89645
-1.87145
-1.10731
-0.696048
-0.484669
-0.272141
-0.101582
38
255
474
706
952
1174
1398
1650
1895
2117
2346
2587
2818
3049
3286
3524
3734
3712
3726
3263
3431
3601
3560
3712
0
0
0
0
0
0
0
0
0
0
0
0
0
0
0
0
0
0
0
0
0
0
0
0
0
0
0
0
0
0
0
0
0
0
0
0
0
0
0
0
0
0
0
0
0
0
0
0
0
0
0
0
0
0
0
0
0
0
0
0
0
0
0
0
0
0
0
0
0
0
0
0
0
0
0
0
0
0
0
0
0
0
0
0
0
0
0
0
0
0
0
0
0
0
0
0
0
0
0
0
0
0
0
0
0
0
0
0
0
0
0
0
0
0
0
0
0
0
0
0
0
0
0
0
0
0
0
0
0
0
0
0
0
0
0
0
0
0
0
0
0
0
0
0
0
0
0
0
0
0
0
0
0
0
0
0
0
0
0
0
0
0
0
0
0
0
0
0
0
0
0
0
0
0
0
0
0
0
0
0
0
0
0
0
0
0
0
0
0
0
0
0
0
0
0
0
0
0
0
0
0
0
0
0
0
0
0
0
0
0
0
0
0
0
0
0
0
0
0
0
0
0
0
0
0
0
0
0
0
0
0
0
0
0
0
0
0
0
0
0
0
0
0
0
0
0
0
0
0
0
0
0
0
0
0
0
0
0
0
0
0
0
0
0
0
0
0
0
0
0
0
0
0
0
0
0
0
0
0
0
0
0
0
0
0
0
0
0
0
0
0
0
0
0
0
0
0
0
0
0
0
0
0
0
0
0
0
0
0
0
0
0
0
0
0
0
0
0
0
0
0
0
0
0
0
0
0
0
0
0
0
0
0
0
0
0
0
0
0
0
0
0
0
0
0
0
0
0
0
0
0
0
0
0
0
0
0
0
0
0
0
0
0
0
0
0
0
0
0
0
0
0
0
0
0
0
0
0
0
0
0
0
0
0
0
0
0
0
0
0
0
0
0
0
0
0
0
0
0
0
0
0
0
0
0
0
0
0
0
0
0
0
0
0
0
0
0
0
0
0
0
0
0
0
0
0
0
0
0
0
0
0
0
0
0
0
0
0
0
0
0
0
0
0
0
0
0
0
0
0
0
0
0
0
0
0
0
0
0
0
0
0
0
0
0
0
0
0
0
0
0
0
0
0
0
0
0
0
0
0
0
0
0
0
0
0
0
0
0
0
0
0
0
0
0
0
0
0
0
0
0
0
0
0
0
0
0
0
0
0
0
0
0
0
0
0
0
0
0
0
0
0
0
0
0
0
0
0
0
0
0
0
0
0
0
0
0
0
0
0
0
0
0
0
0
0
0
0
0
0
0
0
0
0
0
0
0
0
0
0
0
0
0
0
0
0
0
0
0
0
0
0
0
0
0
0
0
0
0
0
0
0
0
0
0
0
0
0
0
0
0
0
0
0
0
0
0
0
0
0
0
0
0
0
0
0
0
0
0
0
0
0
0
0
0
0
0
0
0
0
0
0
0
0
0
0
0
0
0
0
0
0
0
0
0
0
0
0
0
0
0
0
0
0
0
0
0
0
0
0
0
0
0
0
0
0
0
0
0
0
0
0
0
0
0
0
0
0
0
0
0
0
0
0
0
0
0
0
0
0
0
0
0
0
0
0
0
0
0
0
0
0
0
0
0
0
0
0
0
0
0
0
0
0
0
0
0
0
0
0
0
0
0
0
0
0
0
0
0
0
0
0
0
0
0
0
0
0
0
0
0
0
0
0
0
0
0
0
0
0
0
0
0
0
0
0
0
0
0
0
0
0
0
0
0
0
0
0
0
0
0
0
0
0
0
0
0
0
0
0
0
0
0
0
0
0
0
0
0
0
0
0
0
0
0
0
0
0
0
0
0
0
0
0
0
0
0
0
0
0
0
0
0
0
0
0
0
0
0
0
0
0
0
0
0
0
0
0
0
0
0
0
0
0
0
0
0
0
0
0
0
0
0
0
0
0
0
0
0
0
0
0
0
0
0
0
0
0
0
0
0
0
0
0
0
0
0
0
0
0
0
0
0
0
0
0
0
0
0
0
0
0
0
0
0
0
0
0
0
0
0
0
0
0
0
0
0
0
0
0
0
0
0
0
0
0
0
0
0
0
0
0
0
0
0
0
0
0
0
0
0
0
0
0
0
0
0
0
0
0
0
0
0
0
0
0
0
0
0
0
0
0
0
0
0
0
0
0
0
0
0
0
0
0
0
0
0
0
0
0
0
0
0
0
0
0
0
0
0
0
0
0
0
0
0
0
0
0
0
0
0
0
0
0
0
0
0
0
0
0
0
0
0
0
0
0
0
0
0
0
0
0
0
0
0
0
0
0
0
0
0
0
0
0
0
0
0
0
0
0
0
0
0
0
0
0
0
0
0
0
0
0
0
0
0
0
0
0
0
0
0
0
0
0
0
0
0
0
0
0
0
0
0
0
0
0
0
0
0
0
0
0
0
0
0
0
0
0
0
0
0
0
0
0
0
0
0
0
0
0
0
0
0
0
0
0
0
0
0
0
0
0
0
0
0
0
0
0
0
0
0
0
0
0
0
0
0
0
0
0
0
0
0
0
0
0
0
0
0
0
0
0
0
0
0
0
0
0
0
0
0
0
0
0
0
0
0
0
0
0
0
0
0
0
0
0
0
0
0
0
0
0
0
0
0
0
0
0
0
0
0
0
0
0
0
0
0
0
0
0
0
0
0
0
0
0
0
0
0
0
0
0
0
0
0
0
0
0
0
0
0
0
0
0
0
0
0
0
0
0
0
0
0
0
0
0
0
0
0
0
0
0
0
0
0
0
0
0
0
0
0
0
0
0
0
0
0
0
0
0
0
0
0
0
0
0
0
0
0
0
0
0
0
0
0
0
0
0
0
0
0
0
0
0
0
0
0
0
0
0
0
0
0
0
0
0
0
0
0
0
0
0
0
0
0
0
0
0
0
0
0
0
0
0
0
0
0
0
0
0
0
0
0
0
0
0
0
0
0
0
0
0
0
0
0
0
0
0
0
0
0
0
0
0
0
0
0
0
0
0
0
0
0
0
0
0
0
0
0
0
0
0
0
0
0
0
0
0
0
0
0
0
0
0
0
0
0
0
0
0
0
0
0
0
0
0
0
0
0
0
0
0
0
0
0
0
0
0
0
0
0
0
0
0
0
0
0
0
0
0
0
0
0
0
0
0
0
0
0
0
0
0
0
0
0
0
0
0
0
0
0
0
0
0
0
0
0
0
0
0
0
0
0
0
0
0
0
0
0
0
0
0
0
0
0
0
0
0
0
0
0
0
0
0
0
0
0
0
0
0
0
0
0
0
0
0
0
0
0
0
0
0
0
0
0
0
0
0
0
0
0
0
0
0
0
0
0
0
0
0
0
0
0
0
0
0
0
0
0
0
0
0
0
0
0
0
0
0
0
0
0
0
0
0
0
0
0
0
0
0
0
0
0
0
0
0
0
0
0
0
0
0
0
0
0
0
0
0
0
0
0
0
0
0
0
0
0
0
0
0
0
0
0
0
0
0
0
0
0
0
0
0
0
0
0
0
0
0
0
0
0
0
0
0
0
0
0
0
0
0
0
0
0
0
0
0
0
0
0
0
0
0
0
0
0
0
0
0
0
0
0
0
0
0
0
0
0
0
0
0
0
0
0
0
0
0
0
0
0
0
0
0
0
0
0
0
0
0
0
0
0
0
0
0
0
0
0
0
0
0
0
0
0
0
0
0
0
0
0
0
0
0
0
0
0
0
0
0
0
0
0
0
0
0
0
0
0
0
0
0
0
0
0
0
0
0
0
0
0
0
0
0
0
0
0
0
0
0
0
0
0
0
0
0
0
0
0
0
0
0
0
0
0
0
0
0
0
0
0
0
0
0
0
0
0
0
0
0
0
0
0
0
0
0
0
0
0
0
0
0
0
0
0
0
0
0
0
0
0
0
0
0
0
0
0
0
0
0
0
0
0
0
0
0
0
0
0
0
0
0
0
0
0
0
0
0
0
0
0
0
0
0
0
0
0
0
0
0
0
0
0
0
0
0
0
0
0
0
0
0
0
0
0
0
0
0
0
0
0
0
0
0
0
0
0
0
0
0
0
0
0
0
0
0
0
0
0
0
0
0
0
0
0
0
0
0
0
0
0
0
0
0
0
0
0
0
0
0
0
0
0
0
0
0
0
0
0
0
0
0
0
0
0
0
0
0
0
0
0
0
0
0
0
0
0
0
0
0
0
0
0
0
0
0
0
0
0
0
0
0
0
0
0
0
0
0
0
0
0
0
0
0
0
0
0
0
0
0
0
0
0
0
0
0
0
0
0
0
0
0
0
0
0
0
0
0
0
0
0
0
0
0
0
0
0
0
0
0
0
0
0
0
0
0
0
0
0
0
0
0
0
0
0
0
0
0
0
0
0
0
0
0
0
0
0
0
0
0
0
0
0
0
0
0
0
0
0
0
0
0
0
0
0
0
0
0
0
0
0
0
0
0
0
0
0
0
0
0
0
0
0
0
0
0
0
0
0
0
0
0
0
0
0
0
0
0
0
0
0
0
0
0
0
0
0
0
0
0
0
0
0
0
0
0
0
0
0
0
0
0
0
0
0
0
0
0
0
0
0
0
0
0
0
0
0
0
0
0
0
0
0
0
0
0
0
0
0
0
0
0
0
0
0
0
0
0
0
0
0
0
0
0
0
0
0
0
0
0
0
0
0
0
0
0
0
0
0
0
0
0
0
0
0
0
0
0
0
0
0
0
0
0
0
0
0
0
0
0
0
0
0
0
0
0
0
0
0
0
0
0
0
0
0
0
0
0
0
0
0
0
0
0
0
0
0
0
0
0
0
0
0
0
0
0
0
0
0
0
0
0
0
0
0
0
0
0
0
0
0
0
0
0
0
0
0
0
0
0
0
0
0
0
0
0
0
0
0
0
0
0
0
0
0
0
0
0
0
0
0
0
0
0
0
0
0
0
0
0
0
0
0
0
0
0
0
0
0
0
0
0
0
0
0
0
0
0
0
0
0
0
0
0
0
0
0
0
0
0
0
0
0
0
0
0
0
0
0
0
0
0
0
0
0
0
0
0
0
0
0
0
0
0
0
0
0
0
0
0
0
0
0
0
0
0
0
0
0
0
0
0
0
0
0
0
0
0
0
0
0
0
0
0
0
0
0
0
0
0
0
0
0
0
0
0
0
0
0
0
0
0
0
0
0
0
0
0
0
0
0
0
0
0
0
0
0
0
0
0
0
0
0
0
0
0
0
0
0
0
0
0
0
0
0
0
0
0
0
0
0
0
0
0
0
0
0
0
0
0
0
0
0
0
0
0
0
0
0
0
0
0
0
0
0
0
0
0
0
0
0
0
0
0
0
0
0
0
0
0
0
0
0
0
0
0
0
0
0
0
0
0
0
0
0
0
0
0
0
0
0
0
0
0
0
0
0
0
0
0
0
0
0
0
0
0
0
0
0
0
0
0
0
0
0
0
0
0
0
0
0
0
0
0
0
0
0
0
0
0
0
0
0
0
0
0
0
0
0
0
0
0
0
0
0
0
0
0
0
0
0
0
0
0
0
0
0
0
0
0
0
0
0
0
0
0
0
0
0
0
0
0
0
0
0
0
0
0
0
0
0
0
0
0
0
0
0
0
0
0
0
0
0
0
0
0
0
0
0
0
0
0
0
0
0
0
0
0
0
0
0
0
0
0
0
0
0
0
0
0
0
0
0
0
0
0
0
0
0
0
0
0
0
0
0
0
0
0
0
0
0
0
0
0
0
0
0
0
0
0
0
0
0
0
0
0
0
0
0
0
0
0
0
0
0
0
0
0
0
0
0
0
0
0
0
0
0
0
0
0
0
0
0
0
0
0
0
0
0
0
0
0
0
0
0
0
0
0
0
0
0
0
0
0
0
0
0
0
0
0
0
0
0
0
0
0
0
0
0
0
0
0
0
0
0
0
0
0
0
0
0
0
0
0
0
0
0
0
0
0
0
0
0
0
0
0
0
0
0
0
0
0
0
0
0
0
0
0
0
0
0
0
0
0
0
0
0
0
0
0
0
0
0
0
0
0
0
0
0
0
0
0
0
0
0
0
0
0
0
0
0
0
0
0
0
0
0
0
0
0
0
0
0
0
0
0
0
0
0
0
0
0
0
0
0
0
0
0
0
0
0
0
0
0
0
0
0
0
0
0
0
0
0
0
0
0
0
0
0
0
0
0
0
0
0
0
0
0
0
0
0
0
0
0
0
0
0
0
0
0
0
0
0
0
0
0
0
0
0
0
0
0
0
0
0
0
0
0
0
0
0
0
0
0
0
0
0
0
0
0
0
0
0
0
0
0
0
0
0
0
0
0
0
0
0
0
0
0
0
0
0
0
0
0
0
0
0
0
0
0
0
0
0
0
0
0
0
0
0
0
0
0
0
0
0
0
0
0
0
0
0
0
0
0
0
0
0
0
0
0
0
0
0
0
0
0
0
0
0
0
0
0
0
0
0
0
0
0
0
0
0
0
0
0
0
0
0
0
0
0
0
0
0
0
0
0
0
0
0
0
0
0
0
0
0
0
0
0
0
0
0
0
0
0
0
0
0
0
0
0
0
0
0
0
0
0
0
0
0
0
0
0
0
0
0
0
0
0
0
0
0
0
0
0
0
0
0
0
0
0
0
0
0
0
0
0
0
0
0
0
0
0
0
0
0
0
0
0
0
0
0
0
0
0
0
0
0
0
0
0
0
0
0
0
0
0
0
0
0
0
0
0
0
0
0
0
0
0
0
0
0
0
0
0
0
0
0
0
0
0
0
0
0
0
0
0
0
0
0
0
0
0
0
0
0
0
0
0
0
0
0
0
0
0
0
0
0
0
0
0
0
0
0
0
0
0
0
0
0
0
0
0
0
0
0
0
0
0
0
0
0
0
0
0
0
0
0
0
0
0
0
0
0
0
0
0
0
0
0
0
0
0
0
0
0
0
0
0
0
0
0
0
0
0
0
0
0
0
0
0
0
0
0
0
0
0
0
0
0
0
0
0
0
0
0
0
0
0
0
0
0
0
0
0
0
0
0
0
0
0
0
0
0
0
0
0
0
0
0
0
0
0
0
0
0
0
0
0
0
0
0
0
0
0
0
0
0
0
0
0
0
0
0
0
0
0
0
0
0
0
0
0
0
0
0
0
0
0
0
0
0
0
0
0
0
0
0
0
0
0
0
0
0
0
0
0
0
0
0
0
0
0
0
0
0
0
0
0
0
0
0
0
0
0
0
0
0
0
0
0
0
0
0
0
0
0
0
0
0
0
0
0
0
0
0
0
0
0
0
0
0
0
0
0
0
0
0
0
0
0
0
0
0
0
0
0
0
0
0
0
0
0
0
0
0
0
0
0
0
0
0
0
0
0
0
0
0
0
0
0
0
0
0
0
0
0
0
0
0
0
0
0
0
0
0
0
0
0
0
0
0
0
0
0
0
0
0
0
0
0
0
0
0
0
0
0
0
0
0
0
0
0
0
0
0
0
0
0
0
0
0
0
0
0
0
0
0
0
0
0
0
0
0
0
0
0
0
0
0
0
0
0
0
0
0
0
0
0
0
0
0
0
0
0
0
0
0
0
0
0
0
0
0
0
0
0
0
0
0
0
0
0
0
0
0
0
0
0
0
0
0
0
0
0
0
0
0
0
0
0
0
0
0
0
0
0
0
0
0
0
0
0
0
0
0
0
0
0
0
0
0
0
0
0
0
0
0
0
0
0
0
0
0
0
0
0
0
0
0
0
0
0
0
0
0
0
0
0
0
0
0
0
0
0
0
0
0
0
0
0
0
0
0
0
0
0
0
0
0
0
0
0
0
0
0
0
0
0
0
0
0
0
0
0
0
0
0
0
0
0
0
0
0
0
0
0
0
0
0
0
0
0
0
0
0
0
0
0
0
0
0
0
0
0
0
0
0
0
0
0
0
0
0
0
0
0
0
0
0
0
0
0
0
0
0
0
0
0
0
0
0
0
0
0
0
0
0
0
0
0
0
0
0
0
0
0
0
0
0
0
0
0
0
0
0
0
0
0
0
0
0
0
0
0
0
0
0
0
0
0
0
0
0
0
0
0
0
0
0
0
0
0
0
0
0
0
0
0
0
0
0
0
0
0
0
0
0
0
0
0
0
0
0
0
0
0
0
0
0
0
0
0
0
0
0
0
0
0
0
0
0
0
0
0
0
0
0
0
0
0
0
0
0
0
0
0
0
0
0
0
0
0
0
0
0
0
0
0
0
0
0
0
0
0
0
0
0
0
0
0
0
0
0
0
0
0
0
0
0
0
0
0
0
0
0
0
0
0
0
0
0
0
0
0
0
0
0
0
0
0
0
0
0
0
0
0
0
0
0
0
0
0
0
0
0
0
0
0
0
0
0
0
0
0
0
0
0
0
0
0
0
0
0
0
0
0
0
0
0
0
0
0
0
0
0
0
0
0
0
0
0
0
0
0
0
0
0
0
0
0
0
