-1.17886
-1.01433
-0.843351
-0.668319
-0.491553
-0.314704
-0.138268
0.0385876
0.217792
0.402155
0.59973
0.815647
1.0315
1.21858
1.35075
1.41568
1.41775
1.37249
1.29732
1.20481
1.1025
0.993871
0.879395
0.758354
0.629809
0.492944
0.346781
0.190233
0.0225412
-0.156338
-0.345433
-0.542513
-0.744007
-0.945107
-1.14
-1.32204
-1.48418
-1.62079
-1.7278
-1.8026
-1.82157
-1.75222
-1.62816
-1.49621
-1.40158
-1.37246
-1.41068
-1.49337
-1.58421
-1.64861
-1.66559
-1.65109
-1.61863
-1.57389
-1.51898
-1.45573
-1.38591
-1.31148
-1.23463
-1.15839
-1.08718
-1.02535
-0.976221
-0.941261
-0.919675
-0.908673
-0.904265
-0.902248
-0.898959
-0.891952
-0.879863
-0.861228
-0.834891
-0.800212
-0.756867
-0.704165
-0.647621
-0.594734
-0.552745
-0.526124
-0.514948
-0.514921
-0.519054
-0.520194
-0.513513
-0.499603
-0.479541
-0.454674
-0.426844
-0.398008
-0.370084
-0.345333
-0.326846
-0.318012
-0.32233
-0.342645
-0.380003
-0.43271
-0.496115
-0.563366
-0.626975
-0.680647
-0.722041
-0.751132
-0.769176
-0.778619
-0.782153
-0.782207
-0.779927
-0.77553
-0.768471
-0.757844
-0.742527
-0.721305
-0.693009
-0.656597
-0.611241
-0.556451
-0.492218
-0.419159
-0.338611
-0.252548
-0.163717
-0.0753122
0.00910816
0.0852774
0.148867
0.196934
0.227527
0.239945
0.234964
0.214985
0.183929
0.146798
0.108876
0.0746201
0.0465736
0.0260738
0.0118769
0
0.00129032
-0.00465984
-0.020672
-0.0473314
-0.0832602
-0.125961
-0.172763
-0.221409
0.405464
1.55359
3.41791
6.09928
9.33807
12.4379
14.5296
15.0013
13.7798
11.3054
8.29591
5.47636
3.36847
2.158
1.68506
1.5945
1.5145
1.43417
1.35365
1.27392
1.19694
1.12559
1.06308
1.01235
0.975434
0.95348
0.946905
0.953274
0.969389
0.992326
1.0203
1.05313
1.09221
1.13996
1.19901
1.27136
1.35633
1.45247
1.55788
1.66985
1.7852
1.90074
2.01374
2.12225
2.22547
2.32378
2.4187
2.51259
2.60826
2.70845
2.81554
2.93357
3.06611
3.20421
3.33258
3.43545
3.50144
3.526
3.51061
3.45936
3.37554
3.26028
3.12133
2.96465
2.79329
2.60982
2.41768
2.22055
2.02145
1.82295
1.62721
1.43607
1.25108
1.07373
0.905489
0.747854
0.602255
0.470013
0.351884
0.248116
0.158639
0.0834081
0.022063
-0.02541
-0.0585796
-0.0772574
-0.0811467
-0.0701349
-0.0445685
-0.00544148
0.045527
0.105903
0.172723
0.242573
0.310373
0.369479
0.41354
0.437415
0.438487
0.41776
0.380205
0.333999
0.288737
0.253151
0.232692
0.226089
0.231922
0.248832
0.27487
0.307687
0.345156
0.385919
0.428731
0.472106
0.514525
0.554419
0.590189
0.61998
0.641716
0.653811
0.655024
0.644793
0.623583
0.593125
0.556396
0.517288
0.480052
0.448048
0.423236
0.406934
0.399626
0.401186
0.410493
0.423787
0.435944
0.442123
0.438978
0.425612
0.403937
0.378256
0.354169
0.337144
0.330284
0.334582
0.350194
0.3759
0.409498
0.448489
0.489941
0.529585
0.563375
0.588265
0.603164
0.609697
0.612325
0.617537
0.632228
0.661744
0.706183
0.762639
0.828833
0.899517
0.966977
1.02357
1.06295
1.08078
1.07504
1.04591
0.99568
0.928477
0.849972
0.767303
0.686261
0.611282
0.545464
0.490554
0.446491
0.41005
0.376526
0.340857
0.298733
0.247425
0.186173
0.116124
0.0399637
-0.0385556
0
0.509292
1.82629
4.07536
6.99167
9.97638
12.2983
13.3289
12.7594
10.764
7.99748
5.3323
3.43286
2.45331
2.08839
1.9039
1.64356
1.40649
1.18043
0.971132
0.784046
0.625762
0.503864
0.418984
0.369766
0.35297
0.363542
0.394874
0.439459
0.489994
0.540654
0.588148
0.632829
0.676264
0.720474
0.768046
0.82182
0.88469
0.959442
1.0486
1.15418
1.27749
1.41872
1.57666
1.74845
1.92976
2.11519
2.29906
2.47619
2.64254
2.79571
2.93488
3.06017
3.17224
3.27094
3.35447
3.42081
3.46692
3.48846
3.48082
3.44011
3.36364
3.25017
3.09989
2.91435
2.70102
2.4672
2.21728
1.95468
1.68293
1.40567
1.12716
0.852312
0.586632
0.335853
0.106002
-0.0955661
-0.265523
-0.403989
-0.51375
-0.599519
-0.666855
-0.72108
-0.766485
-0.805952
-0.84098
-0.872243
-0.899581
-0.922227
-0.938893
-0.947792
-0.947356
-0.936256
-0.913819
-0.880493
-0.836105
-0.784853
-0.733099
-0.687365
-0.652706
-0.631488
-0.623015
-0.624037
-0.629889
-0.635801
-0.638565
-0.636728
-0.629435
-0.61639
-0.597755
-0.573956
-0.54527
-0.511875
-0.473949
-0.431832
-0.386062
-0.337579
-0.288064
-0.239428
-0.193497
-0.15176
-0.115265
-0.0849957
-0.061473
-0.0452215
-0.0368497
-0.036969
-0.0459932
-0.0639064
-0.0900797
-0.12318
-0.161158
-0.201279
-0.240543
-0.275554
-0.302962
-0.319801
-0.323811
-0.313701
-0.289311
-0.251649
-0.202811
-0.146147
-0.0852873
-0.0233503
0.0366625
0.0926641
0.144221
0.192806
0.241678
0.295285
0.358237
0.434034
0.523904
0.626101
0.737671
0.849499
0.951343
1.03421
1.09206
1.12231
1.12524
1.10298
1.0586
0.997029
0.924241
0.844497
0.762424
0.682401
0.607734
0.539917
0.47842
0.42095
0.364219
0.304912
0.240542
0.169939
0.0933284
0.0120957
-0.0715364
0
0.591284
2.07787
4.54015
7.62753
10.672
12.9309
13.8219
13.1109
11.0268
8.21533
5.46874
3.35561
2.01202
1.24767
0.827786
0.788915
0.824389
0.864465
0.905569
0.943942
0.97592
0.997881
1.00754
1.00386
0.987384
0.960519
0.926383
0.892432
0.867252
0.858827
0.872818
0.91143
0.973263
1.05411
1.14831
1.25021
1.35456
1.45887
1.5619
1.66346
1.76429
1.86595
1.97051
2.08009
2.19643
2.32041
2.45176
2.58895
2.72938
2.86978
3.00649
3.13603
3.25505
3.35926
3.44327
3.50519
3.54344
3.55671
3.54411
3.5052
3.43978
3.34743
3.22701
3.07671
2.90026
2.70022
2.47726
2.23309
1.97142
1.69801
1.42031
1.14674
0.885775
0.64506
0.431529
0.248749
0.0978164
-0.0221986
-0.113527
-0.17893
-0.221107
-0.242434
-0.245059
-0.229584
-0.193352
-0.139379
-0.0793031
-0.0260684
0.00933075
0.0208639
0.00887551
-0.0206896
-0.0587804
-0.0963116
-0.127581
-0.151877
-0.169741
-0.181891
-0.189201
-0.192513
-0.192481
-0.189412
-0.183294
-0.173983
-0.160984
-0.144464
-0.126499
-0.110171
-0.0988058
-0.0949791
-0.099724
-0.112268
-0.130368
-0.151042
-0.171377
-0.189521
-0.20445
-0.215541
-0.2225
-0.225256
-0.224157
-0.219876
-0.21338
-0.205868
-0.198715
-0.193334
-0.19094
-0.192379
-0.198022
-0.207773
-0.221182
-0.237648
-0.256617
-0.277683
-0.300512
-0.324846
-0.350236
-0.375439
-0.397503
-0.412232
-0.414941
-0.401553
-0.369638
-0.318987
-0.251524
-0.170689
-0.0805838
0.0139878
0.109613
0.202719
0.288174
0.360455
0.413411
0.441035
0.438878
0.405655
0.344377
0.262468
0.17057
0.0802358
0.00045023
-0.0647764
-0.115583
-0.151516
-0.172993
-0.180517
-0.172795
-0.132821
-0.0186078
0.148378
0.305985
0.368314
0.268418
-0.000613022
-0.375809
-0.633062
0
1.79935
4.6564
8.10191
11.3832
13.64
14.2125
12.9764
10.4544
7.55131
5.0711
3.37235
2.38222
1.85156
1.56651
1.38442
1.22448
1.07692
0.948334
0.844192
0.768106
0.721305
0.702541
0.708513
0.734721
0.776522
0.830081
0.892429
0.962127
1.03917
1.1239
1.21654
1.31676
1.42358
1.53594
1.6528
1.77343
1.89764
2.02575
2.15838
2.29616
2.43931
2.5873
2.73882
2.89178
3.04351
3.1912
3.33244
3.4658
3.59118
3.7094
3.81968
3.93687
4.2114
4.62481
5.05254
5.31796
5.31278
5.08193
4.77693
4.52098
4.3234
4.11128
3.87635
3.63191
3.38269
3.13146
2.88078
2.6334
2.39212
2.15946
1.93734
1.72701
1.52908
1.34389
1.17178
1.01351
0.870459
0.744187
0.63639
0.548575
0.481777
0.436399
0.412182
0.408259
0.423187
0.456071
0.510333
0.585782
0.66915
0.74506
0.7999
0.825811
0.822606
0.796552
0.756895
0.712146
0.667767
0.625057
0.583926
0.543975
0.504416
0.464178
0.42216
0.377462
0.329674
0.279088
0.226745
0.174273
0.123531
0.0761856
0.0332737
-0.00508499
-0.0396809
-0.0719471
-0.103541
-0.135891
-0.169839
-0.205439
-0.241954
-0.278028
-0.312025
-0.342419
-0.367816
-0.387407
-0.401631
-0.412078
-0.421187
-0.431866
-0.447037
-0.46922
-0.500232
-0.541039
-0.591707
-0.651389
-0.718422
-0.790261
-0.863844
-0.935918
-1.00287
-1.06118
-1.10814
-1.14212
-1.16281
-1.17119
-1.1693
-1.15978
-1.14545
-1.12884
-1.11192
-1.09586
-1.08101
-1.06675
-1.05162
-1.03337
-1.0093
-0.976693
-0.933329
-0.877281
-0.807159
-0.724717
-0.633864
-0.542286
-0.463151
-0.408613
-0.387795
-0.404717
-0.456018
-0.530039
-0.608968
-0.673965
-0.71114
-0.722983
-0.71983
-0.707412
-0.689252
-0.668805
-0.64942
-0.633818
-0.623748
-0.619883
-0.621853
-0.628409
-0.638112
0
1.51115
3.9196
6.93773
10.0553
12.6312
14.0331
13.8723
12.2335
9.68729
7.00648
4.78207
3.2291
2.27639
1.76368
1.55834
1.4
1.24659
1.10284
0.975748
0.873813
0.804986
0.774906
0.786118
0.838082
0.927326
1.04749
1.18686
1.33609
1.48911
1.6431
1.79798
1.95527
2.11746
2.28712
2.46607
2.65479
2.85224
3.05595
3.26329
3.47201
3.68069
3.88895
4.09722
4.30608
4.51566
4.7251
4.93243
5.13488
5.32955
5.51423
5.68808
5.85209
6.00904
6.16233
6.32155
6.52148
6.79072
7.06208
7.26804
7.36286
7.31903
7.1354
6.85155
6.53857
6.26241
6.06313
5.92256
5.80965
5.71232
5.62831
5.55758
5.50051
5.45831
5.43331
5.42875
5.44817
5.4944
5.56868
5.66809
5.78981
5.9295
6.08209
6.24235
6.40595
6.56952
6.7305
6.88687
7.03682
7.17865
7.31076
7.43193
7.54165
7.64051
7.7303
7.81428
7.89668
7.98212
8.07493
8.17828
8.29367
8.42059
8.55673
8.69846
8.84185
8.98348
9.12114
9.25418
9.38346
9.51093
9.63903
9.77003
9.90561
10.0466
10.1932
10.3447
10.5005
10.6598
10.822
10.9865
11.1529
11.3207
11.4894
11.6584
11.8273
11.9955
12.1628
12.3286
12.4918
12.6508
12.803
12.9455
13.0759
13.1927
13.2957
13.3867
13.4686
13.5448
13.6185
13.6919
13.7656
13.8393
13.9119
13.9824
14.0501
14.1147
14.1771
14.2383
14.2999
14.363
14.4282
14.4959
14.5659
14.6382
14.713
14.7912
14.874
14.9631
15.0596
15.1635
15.2749
15.3899
15.498
15.5864
15.6441
15.6642
15.6463
15.5962
15.5236
15.44
15.3558
15.2779
15.209
15.1496
15.1009
15.0637
15.0389
15.0278
15.0323
15.0551
15.0998
15.1704
15.2708
15.404
15.5714
15.7712
15.9986
16.246
16.5025
16.7517
16.977
17.1641
17.3029
17.3874
17.4155
17.3872
17.3039
17.1686
16.9859
16.7585
16.4908
16.1894
15.8633
15.523
15.1796
14.8469
14.5441
14.288
14.0843
13.9343
13.8368
13.7873
13.7782
13.7976
13.8308
13.8628
13.8831
13.8895
13.8849
13.8732
13.8574
13.8414
13.8292
13.825
13.8322
13.8537
13.8909
13.9436
14.0102
14.0879
14.1733
14.2634
14.355
14.4461
14.535
14.6205
14.7016
14.777
14.8447
14.9017
14.9444
14.9693
14.9727
14.9509
14.8998
14.8156
14.694
14.5316
14.326
14.0774
13.79
13.4721
13.1347
12.7889
12.4459
12.1158
11.8063
11.521
11.2596
11.019
10.7948
10.5825
10.379
10.1826
9.99331
9.81201
9.64003
9.47906
9.33047
9.19508
9.07298
8.96354
8.86563
8.77749
8.69644
8.61997
8.54614
8.47394
8.40331
8.33482
8.26906
8.20612
8.14505
8.08307
8.01612
7.93989
7.85099
7.74802
7.63201
7.50623
7.37542
7.24463
7.11774
6.99677
6.88302
6.77684
6.67789
6.58559
6.49935
6.4189
6.34422
6.27561
6.21369
6.1593
6.11336
6.07655
6.05003
6.03664
6.03326
6.02533
5.99466
5.92593
5.81356
5.66493
5.49789
5.33318
5.18587
5.05424
4.93105
4.81314
4.6969
4.57924
4.4582
4.33315
4.20468
4.07425
3.94375
3.81513
3.69035
3.5714
3.46033
3.3592
3.27001
3.19496
3.13605
3.09341
3.06549
3.04969
3.04077
3.03063
3.01157
2.9778
2.92634
2.85713
2.77218
2.67415
2.56477
2.44458
2.31521
2.17757
2.03184
1.8794
1.72306
1.56669
1.41461
1.27065
1.13733
1.01531
0.903096
0.797612
0.694814
0.586417
0.461846
0.319298
0.162936
0
0.165349
0.735351
1.98704
4.10187
6.86645
9.62781
11.6087
12.3191
11.7221
10.1073
7.90292
5.59809
3.68893
2.51077
2.03828
1.90016
1.58174
1.28363
0.997193
0.731203
0.493513
0.290373
0.126134
0.00277939
-0.0800728
-0.123124
-0.120164
-0.0611305
0.0418602
0.163768
0.280423
0.373603
0.434789
0.465968
0.477386
0.483524
0.499004
0.531194
0.580329
0.64588
0.727242
0.823333
0.933082
1.05528
1.18844
1.33086
1.48064
1.63557
1.7931
1.95025
2.1038
2.2504
2.38684
2.51014
2.61753
2.70635
2.77292
2.81399
2.8263
2.80677
2.75291
2.66333
2.53809
2.37889
2.18904
1.97332
1.739
1.4925
1.24076
0.990896
0.749679
0.522924
0.314972
0.128509
-0.0367416
-0.18328
-0.315126
-0.436818
-0.55234
-0.664241
-0.773152
-0.87779
-0.975473
-1.06292
-1.13675
-1.19432
-1.2337
-1.25215
-1.25003
-1.23272
-1.20674
-1.17832
-1.15188
-1.12921
-1.10941
-1.08979
-1.06739
-1.04091
-1.01051
-0.979831
-0.954408
-0.939808
-0.939496
-0.953309
-0.977079
-1.00355
-1.02427
-1.03344
-1.02944
-1.01038
-0.97644
-0.929781
-0.874348
-0.814664
-0.75512
-0.699487
-0.650695
-0.61083
-0.581234
-0.562592
-0.55479
-0.556532
-0.56611
-0.581131
-0.598335
-0.613797
-0.623374
-0.622936
-0.607836
-0.572795
-0.514031
-0.436318
-0.354554
-0.28548
-0.242742
-0.232871
-0.253627
-0.295241
-0.34388
-0.385761
-0.412716
-0.425688
-0.422544
-0.402029
-0.363876
-0.308676
-0.237847
-0.153654
-0.0592226
0.041554
0.144184
0.244119
0.337005
0.419036
0.487205
0.539397
0.574389
0.591814
0.592176
0.577086
0.549746
0.513389
0.471452
0.427512
0.38483
0.345853
0.311991
0.283749
0.260552
0.240862
0.222408
0.202405
0.176766
0.137168
0.0810259
0.00985565
-0.070502
0
0.763752
2.50925
5.17508
8.31614
11.2425
13.2232
13.709
12.5591
10.1684
7.34343
4.9176
3.34545
2.57671
2.27123
2.11369
1.97092
1.83424
1.70829
1.5976
1.50573
1.43501
1.38588
1.35712
1.34592
1.34827
1.36018
1.37843
1.40112
1.42779
1.45933
1.49757
1.54474
1.60269
1.67258
1.75547
1.85176
1.961
2.08223
2.2141
2.35481
2.50227
2.65436
2.80914
2.96519
3.12179
3.27909
3.43797
3.59977
3.76585
3.93766
4.11663
4.30163
4.48653
4.65856
4.80388
4.91094
4.97248
4.98628
4.95459
4.88222
4.77369
4.63059
4.45187
4.24397
4.01437
3.7678
3.50842
3.24145
2.97341
2.71172
2.46378
2.23602
2.03304
1.8572
1.70854
1.58501
1.48315
1.39887
1.32823
1.26803
1.21616
1.17158
1.13405
1.10444
1.08381
1.07243
1.07038
1.0776
1.09395
1.11913
1.1543
1.19857
1.24626
1.28958
1.32049
1.33294
1.32466
1.29743
1.25617
1.20712
1.15631
1.10796
1.06411
1.02599
0.994927
0.972128
0.958343
0.953689
0.958369
0.972393
0.991304
1.00727
1.01224
1.00033
0.969817
0.924124
0.871017
0.820307
0.780763
0.756197
0.748609
0.752697
0.759987
0.762015
0.753212
0.732405
0.702542
0.668966
0.637163
0.610256
0.588606
0.571744
0.559331
0.550924
0.546244
0.54525
0.548001
0.554426
0.563843
0.575323
0.587444
0.598219
0.605422
0.606981
0.601506
0.588655
0.569354
0.545758
0.520929
0.498268
0.480863
0.470911
0.468991
0.474654
0.486734
0.503392
0.522298
0.540948
0.555856
0.562274
0.555568
0.531558
0.487621
0.423782
0.343287
0.252234
0.158246
0.0685144
-0.013666
-0.0850204
-0.148272
-0.209599
-0.276683
-0.356333
-0.4525
-0.565274
-0.694591
-0.833848
-0.971845
-1.10066
-1.21825
-1.32855
-0.955404
0
1.78074
4.47703
7.7274
10.7796
12.7957
13.2255
12.0076
9.53606
6.48165
3.56777
1.33832
-0.021475
-0.699877
-1.0614
-1.31908
-1.57182
-1.8148
-2.04262
-2.24942
-2.43109
-2.5847
-2.70895
-2.80144
-2.85386
-2.85752
-2.83029
-2.80433
-2.80881
-2.8614
-2.96167
-3.09
-3.21397
-3.30042
-3.32738
-3.31003
-3.26867
-3.21145
-3.14217
-3.064
-2.9796
-2.89087
-2.79893
-2.70412
-2.60611
-2.50399
-2.39648
-2.28212
-2.15968
-2.02846
-1.88775
-1.73522
-1.57345
-1.41738
-1.28858
-1.20681
-1.1854
-1.22892
-1.33315
-1.48688
-1.6753
-1.88472
-2.10686
-2.3388
-2.57935
-2.82727
-3.08226
-3.34433
-3.61276
-3.88581
-4.1606
-4.43312
-4.69712
-4.94583
-5.17339
-5.37543
-5.54959
-5.69551
-5.81197
-5.90108
-5.96528
-6.0072
-6.03016
-6.03857
-6.03813
-6.03525
-6.0359
-6.04399
-6.0596
-6.08177
-6.10767
-6.13326
-6.15419
-6.1666
-6.16819
-6.15867
-6.13826
-6.10751
-6.06744
-6.01918
-5.9637
-5.90164
-5.83316
-5.75802
-5.67571
-5.58584
-5.48793
-5.37986
-5.2658
-5.16041
-5.07996
-5.03479
-5.02277
-5.02767
-5.02447
-4.98965
-4.91188
-4.80104
-4.679
-4.55788
-4.44709
-4.35211
-4.27377
-4.20875
-4.15126
-4.09495
-4.03468
-3.96766
-3.89216
-3.80715
-3.7123
-3.60774
-3.49416
-3.37277
-3.24544
-3.11458
-2.9829
-2.85312
-2.72768
-2.60854
-2.49716
-2.39452
-2.30131
-2.21763
-2.14298
-2.07605
-2.01461
-1.95554
-1.89517
-1.82977
-1.75622
-1.67256
-1.57833
-1.47445
-1.36297
-1.24658
-1.12802
-1.00956
-0.892782
-0.778552
-0.667281
-0.559326
-0.455396
-0.356814
-0.265703
-0.185116
-0.11808
-0.0667145
-0.0319855
-0.013356
-0.00873184
-0.0147194
-0.0271172
-0.041536
-0.0540054
-0.0616249
-0.0628204
-0.0570107
-0.0445679
-0.0266586
-0.00492859
0.0178032
0.0376297
0.0507858
0.0543175
0.0466713
0.0279961
0
-0.0233482
-0.0505379
-0.079332
-0.108248
0.6276
2.19117
4.61474
7.62793
10.708
13.2213
14.6147
14.6058
13.2971
11.1318
8.69621
6.4818
4.75119
3.55204
2.8136
2.43412
2.31439
2.32886
2.46326
2.70226
3.01622
3.34339
3.61754
3.8238
3.97223
4.09272
4.20039
4.30088
4.39786
4.49589
4.59955
4.71253
4.83672
4.97103
5.11303
5.25933
5.40584
5.54841
5.68356
5.80923
5.92492
6.03145
6.13053
6.224
6.31334
6.39921
6.48148
6.55957
6.63291
6.70153
6.76651
6.8301
6.8959
6.9749
7.10677
7.32787
7.59043
7.81844
7.94953
7.96154
7.86709
7.69384
7.47433
7.24208
7.0119
6.77293
6.52428
6.27113
6.01801
5.77044
5.5402
5.33965
5.18027
5.06995
5.01071
4.99788
5.02107
5.06645
5.11947
5.16736
5.20214
5.21819
5.21262
5.18478
5.1366
5.07096
4.99064
4.89887
4.79909
4.69417
4.58627
4.47706
4.36798
4.26063
4.15694
4.05937
3.97132
3.89649
3.83809
3.79859
3.77931
3.78022
3.79998
3.83642
3.88675
3.94828
4.01886
4.09702
4.18186
4.27276
4.36899
4.46944
4.57249
4.67636
4.77941
4.88013
4.97731
5.06992
5.15692
5.23704
5.30855
5.3686
5.41296
5.43813
5.44107
5.42007
5.37553
5.31009
5.22822
5.13504
5.0349
4.93031
4.82196
4.70859
4.58813
4.4587
4.31934
4.17052
4.0142
3.85352
3.69226
3.53421
3.38267
3.24023
3.10868
2.98903
2.88171
2.78693
2.7043
2.63319
2.57305
2.52365
2.48529
2.45883
2.4456
2.44707
2.466
2.51086
2.60394
2.75377
2.9267
3.07749
3.1636
3.16376
3.08692
2.96291
2.82246
2.68259
2.54596
2.41183
2.2803
2.15215
2.02844
1.9101
1.7975
1.69093
1.59133
1.49595
1.34823
1.07204
0.75726
0.440203
0.151257
0
0.256676
1.13791
2.77903
5.1436
7.98381
10.8048
12.9159
13.6684
12.8046
10.6578
7.99265
5.57786
3.82368
2.72882
2.08271
1.67765
1.51441
1.36107
1.22092
1.09888
0.998366
0.921133
0.867419
0.8361
0.825393
0.832567
0.854545
0.888191
0.930454
0.978488
1.02966
1.08142
1.13158
1.17841
1.22096
1.25921
1.2942
1.32827
1.36538
1.41011
1.46688
1.53911
1.62865
1.73553
1.85818
1.99392
2.13922
2.29053
2.44549
2.60256
2.76052
2.91788
3.07179
3.21645
3.34438
3.44704
3.51699
3.54987
3.54498
3.50417
3.42921
3.31925
3.17016
2.9863
2.77409
2.53662
2.27608
1.99631
1.70312
1.40373
1.10574
0.816162
0.540548
0.282553
0.0438871
-0.175358
-0.376135
-0.559818
-0.727661
-0.880449
-1.01835
-1.14095
-1.24744
-1.33683
-1.40833
-1.46165
-1.49722
-1.51574
-1.51785
-1.50782
-1.49361
-1.48304
-1.48201
-1.493
-1.51461
-1.54218
-1.56949
-1.59076
-1.60358
-1.60783
-1.60392
-1.59335
-1.57816
-1.56058
-1.54283
-1.52728
-1.51658
-1.51379
-1.52182
-1.54379
-1.58213
-1.63792
-1.71033
-1.79636
-1.89097
-1.98765
-2.07911
-2.15848
-2.21385
-2.20753
-2.07503
-1.84669
-1.59923
-1.40861
-1.32313
-1.35014
-1.46026
-1.59894
-1.69932
-1.7048
-1.64221
-1.55472
-1.46025
-1.37746
-1.3204
-1.29525
-1.30009
-1.32706
-1.3653
-1.40331
-1.43307
-1.45066
-1.45424
-1.44366
-1.4178
-1.37638
-1.32449
-1.26838
-1.21371
-1.16374
-1.1183
-1.0737
-1.02384
-0.960215
-0.862491
-0.722621
-0.560617
-0.405357
-0.282153
-0.205767
-0.181461
-0.209526
-0.286646
-0.40229
-0.533928
-0.655127
-0.741256
-0.784584
-0.80052
-0.795359
-0.777738
-0.758433
-0.747983
-0.754411
-0.781761
-0.829896
-0.895505
-0.973761
-1.05975
-1.14874
-0.853988
0
1.63934
4.12582
7.24298
10.4012
12.742
13.5001
12.4349
9.99502
7.05785
4.44188
2.56942
1.46058
0.927087
0.729475
0.53208
0.322561
0.0968868
-0.117901
-0.281328
-0.361982
-0.350373
-0.256499
-0.101978
0.0831448
0.262178
0.408311
0.522124
0.616872
0.704137
0.790001
0.878522
0.973037
1.07565
1.18737
1.30824
1.43758
1.57447
1.71812
1.86819
2.02488
2.18871
2.36017
2.53925
2.72502
2.91536
3.10706
3.29604
3.47756
3.64688
3.79976
3.93196
4.03913
4.11998
4.17451
4.20315
4.20639
4.18432
4.13637
4.06107
3.95618
3.81925
3.65271
3.45961
3.2416
3.0012
2.74235
2.47008
2.19005
1.90813
1.63016
1.36175
1.10819
0.874223
0.663807
0.479752
0.323812
0.19696
0.0973949
0.0222507
-0.0316017
-0.0650681
-0.0806305
-0.0800201
-0.0647778
-0.035878
0.0045578
0.0500629
0.0930275
0.126384
0.145255
0.147832
0.135191
0.110247
0.0764336
0.0367931
-0.0058857
-0.0498169
-0.0936173
-0.135667
-0.173982
-0.206453
-0.231089
-0.246352
-0.251444
-0.246466
-0.232464
-0.211355
-0.185541
-0.158233
-0.133896
-0.117016
-0.111245
-0.11859
-0.138798
-0.169212
-0.205289
-0.24171
-0.273737
-0.298836
-0.316558
-0.328051
-0.335759
-0.342618
-0.351229
-0.36324
-0.379047
-0.39784
-0.417945
-0.43744
-0.454654
-0.468575
-0.479203
-0.486906
-0.492279
-0.495801
-0.497622
-0.49757
-0.495396
-0.491069
-0.485258
-0.479448
-0.47577
-0.476108
-0.481068
-0.48909
-0.49605
-0.495605
-0.480281
-0.443071
-0.378498
-0.262856
-0.0919739
0.0957756
0.256632
0.358387
0.390283
0.362593
0.297754
0.219041
0.143267
0.0772488
0.0195923
-0.0309654
-0.0747192
-0.11203
-0.144157
-0.172976
-0.200856
-0.230794
-0.266237
-0.31076
-0.370173
-0.455896
-0.567878
-0.701158
-0.846391
-0.791634
0
1.85987
4.74984
8.17768
11.3651
13.5362
14.1648
13.1271
10.7617
7.7905
5.04701
3.10564
2.05383
1.58276
1.30173
1.0702
0.884246
0.711255
0.555258
0.419511
0.30511
0.211824
0.13913
0.0864975
0.0527016
0.0370747
0.0395134
0.0602303
0.0993801
0.156708
0.231287
0.321387
0.423715
0.5348
0.651286
0.769709
0.886755
0.999637
1.10648
1.20664
1.30092
1.3915
1.4816
1.57508
1.67576
1.78688
1.91062
2.04783
2.19783
2.3586
2.52726
2.70032
2.87045
3.02745
3.16143
3.26397
3.32921
3.35404
3.33748
3.27932
3.17874
3.0338
2.84444
2.61561
2.35461
2.06881
1.7664
1.45742
1.15275
0.863901
0.607748
0.407158
0.269362
0.181092
0.12053
0.0648487
-0.00255966
-0.0876411
-0.185269
-0.28269
-0.365365
-0.425321
-0.465265
-0.486534
-0.49595
-0.502304
-0.513847
-0.536259
-0.571597
-0.618276
-0.671841
-0.726102
-0.774728
-0.813801
-0.840958
-0.850212
-0.837208
-0.805072
-0.763068
-0.723263
-0.69706
-0.69245
-0.71228
-0.753893
-0.810034
-0.870651
-0.925055
-0.964512
-0.986398
-0.992875
-0.979976
-0.945725
-0.898817
-0.853346
-0.823474
-0.81918
-0.842995
-0.889168
-0.945711
-0.998584
-1.03621
-1.05595
-1.06192
-1.05792
-1.04577
-1.0268
-1.00223
-0.972657
-0.93797
-0.89752
-0.850479
-0.796305
-0.733892
-0.662846
-0.588996
-0.522338
-0.472532
-0.445322
-0.440545
-0.452847
-0.474849
-0.500927
-0.529348
-0.560629
-0.595864
-0.634709
-0.674568
-0.711148
-0.740055
-0.758364
-0.765866
-0.76633
-0.765062
-0.766312
-0.771104
-0.776479
-0.7764
-0.763835
-0.733043
-0.685782
-0.624743
-0.551055
-0.466219
-0.371007
-0.265439
-0.154774
-0.0522518
0.0255608
0.0627613
0.0511658
-0.0042942
-0.0862751
-0.17249
-0.246414
-0.306902
-0.364519
-0.425995
-0.496388
-0.577652
-0.667644
-0.760602
-0.848966
-0.925918
-0.988977
-1.03826
-1.07727
-1.1117
-1.1475
-1.18908
-1.23742
-1.29975
-1.04741
0
1.99377
4.84343
8.1282
11.0992
12.8879
12.9084
11.1961
8.3941
5.38078
2.83792
1.06049
0.0343544
-0.410441
-0.520736
-0.672796
-0.821013
-0.960545
-1.08657
-1.19483
-1.28187
-1.34544
-1.38475
-1.40039
-1.39406
-1.36807
-1.32497
-1.26733
-1.19817
-1.12005
-1.03462
-0.943246
-0.847001
-0.746482
-0.641832
-0.532817
-0.41902
-0.300095
-0.175991
-0.0470867
0.0858295
0.2217
0.359415
0.498032
0.6369
0.775678
0.914246
1.05257
1.19057
1.32807
1.46476
1.60024
1.73371
1.86338
1.98559
2.09354
2.17685
2.22238
2.21781
2.15531
2.03366
1.85794
1.63727
1.38214
1.10491
0.818999
0.533055
0.252168
-0.0184917
-0.273928
-0.50972
-0.722398
-0.909722
-1.07083
-1.2062
-1.31754
-1.40749
-1.47895
-1.53534
-1.5809
-1.61958
-1.65471
-1.68861
-1.72241
-1.756
-1.78829
-1.81765
-1.84242
-1.86071
-1.87249
-1.88087
-1.89027
-1.90473
-1.92602
-1.95242
-1.9786
-1.99686
-1.99942
-1.975
-1.9161
-1.83546
-1.75467
-1.69573
-1.67358
-1.69199
-1.74311
-1.81031
-1.87341
-1.91514
-1.92992
-1.92438
-1.90814
-1.88724
-1.8675
-1.85311
-1.84577
-1.84465
-1.84711
-1.84984
-1.84997
-1.84597
-1.83801
-1.82662
-1.81224
-1.79516
-1.77538
-1.75253
-1.726
-1.69502
-1.65886
-1.61692
-1.56883
-1.51436
-1.45341
-1.38578
-1.31124
-1.23104
-1.15269
-1.08821
-1.0495
-1.04371
-1.06935
-1.11546
-1.16465
-1.199
-1.20607
-1.18934
-1.15879
-1.11985
-1.07632
-1.0319
-0.989811
-0.952413
-0.921175
-0.896549
-0.878087
-0.86457
-0.854216
-0.84488
-0.834296
-0.820378
-0.801549
-0.77703
-0.746875
-0.712165
-0.674648
-0.636214
-0.598365
-0.561838
-0.52649
-0.491499
-0.455803
-0.418509
-0.379502
-0.340014
-0.30246
-0.270129
-0.246789
-0.237924
-0.247581
-0.278936
-0.333509
-0.41023
-0.504687
-0.609039
-0.712899
-0.805235
-0.877252
-0.91281
-0.914569
-0.895593
-0.873994
-0.866994
-0.886249
-0.935904
-1.01328
-1.11104
-1.21936
-0.970712
0
1.89872
4.64465
7.83771
10.8131
12.8046
13.2368
12.0255
9.65448
6.91376
4.47251
2.61774
1.31949
0.466339
0.00515175
-0.0198048
-0.0570679
-0.104902
-0.172464
-0.285623
-0.458129
-0.651802
-0.815619
-0.908181
-0.914855
-0.850456
-0.746522
-0.633057
-0.528429
-0.437148
-0.35479
-0.278362
-0.205998
-0.135437
-0.0637867
0.0120781
0.0950237
0.187134
0.289222
0.401184
0.522417
0.652187
0.790047
0.936024
1.09048
1.25376
1.42568
1.60521
1.7901
1.97755
2.1643
2.34667
2.51968
2.67626
2.81062
2.91897
2.99742
3.04167
3.04708
3.00913
2.92414
2.79039
2.60946
2.38956
2.14164
1.87747
1.61018
1.34927
1.09994
0.866598
0.651622
0.455384
0.27656
0.112653
-0.0393703
-0.182408
-0.318628
-0.449015
-0.573153
-0.689251
-0.794226
-0.884829
-0.958166
-1.00845
-1.03189
-1.03314
-1.02065
-1.00396
-0.991069
-0.98655
-0.990697
-1.00011
-1.00933
-1.01297
-1.00813
-0.99492
-0.975594
-0.952872
-0.929159
-0.906683
-0.887019
-0.870829
-0.8578
-0.846761
-0.835925
-0.823193
-0.806483
-0.784093
-0.754214
-0.715651
-0.668781
-0.616114
-0.564067
-0.522226
-0.499988
-0.503935
-0.535435
-0.589347
-0.65456
-0.716561
-0.761314
-0.779694
-0.776789
-0.759003
-0.728749
-0.689147
-0.643419
-0.594335
-0.54375
-0.492609
-0.441225
-0.389722
-0.338657
-0.29001
-0.247111
-0.213788
-0.19304
-0.185936
-0.191228
-0.205769
-0.225418
-0.245898
-0.263856
-0.277277
-0.283942
-0.281905
-0.26936
-0.241563
-0.191786
-0.127119
-0.0638924
-0.0202484
-0.0089962
-0.031749
-0.077586
-0.127283
-0.161248
-0.167469
-0.1542
-0.12935
-0.0992474
-0.0704834
-0.0481976
-0.0348915
-0.0299713
-0.0300152
-0.0295742
-0.0225609
-0.0045929
0.027668
0.0767769
0.146021
0.243218
0.373169
0.524467
0.673163
0.795063
0.870698
0.886234
0.83402
0.7159
0.549076
0.367927
0.214191
0.116166
0.0622032
0.0251568
-0.00490532
-0.0352932
-0.0706055
-0.112118
-0.158343
-0.206382
-0.253526
-0.298705
-0.341989
-0.383344
0
1.14348
3.3749
6.57494
10.0866
12.9706
14.4339
14.1484
12.3229
9.57243
6.6764
4.29758
2.74675
1.92542
1.50232
1.2255
1.09031
0.961064
0.839983
0.728605
0.627696
0.537354
0.457504
0.389007
0.333259
0.290995
0.263568
0.25243
0.258424
0.28117
0.318789
0.368091
0.42519
0.486242
0.548351
0.6102
0.671685
0.733681
0.797841
0.866281
0.941221
1.02461
1.11781
1.22136
1.3348
1.45668
1.5847
1.71593
1.84722
1.97559
2.09858
2.21468
2.32371
2.4268
2.52572
2.62382
2.73558
2.86374
2.98332
3.04882
3.01958
2.88347
2.66068
2.38759
2.09716
1.81044
1.53198
1.26092
0.998366
0.746467
0.50696
0.281008
0.069133
-0.128716
-0.312957
-0.484107
-0.642541
-0.788364
-0.921438
-1.04151
-1.14838
-1.2421
-1.32292
-1.39079
-1.44628
-1.48989
-1.52178
-1.54173
-1.54909
-1.54297
-1.5224
-1.48666
-1.4357
-1.37106
-1.2924
-1.20052
-1.10649
-1.02462
-0.967714
-0.943347
-0.951879
-0.987248
-1.04017
-1.10228
-1.16919
-1.23983
-1.31472
-1.3979
-1.49324
-1.58929
-1.66601
-1.70212
-1.6847
-1.61595
-1.5133
-1.40239
-1.30678
-1.23727
-1.18353
-1.1406
-1.10816
-1.08551
-1.07177
-1.06768
-1.07463
-1.09344
-1.12333
-1.16163
-1.20403
-1.2452
-1.28023
-1.30607
-1.31915
-1.31621
-1.29494
-1.2544
-1.19548
-1.12102
-1.03501
-0.943668
-0.855153
-0.777469
-0.716678
-0.675972
-0.655349
-0.651903
-0.660586
-0.675232
-0.689631
-0.698569
-0.699292
-0.690664
-0.67211
-0.643533
-0.605235
-0.557645
-0.50119
-0.436368
-0.363986
-0.285464
-0.202949
-0.119506
-0.0392304
0.0338056
0.0963043
0.146285
0.183231
0.207805
0.221282
0.224945
0.219733
0.206058
0.184078
0.154052
0.116647
0.0730694
0.0250007
-0.0255913
-0.0766432
-0.126221
-0.172339
-0.21303
-0.246486
-0.271157
-0.285983
-0.290627
-0.285623
-0.272397
-0.253143
-0.228902
0
0.854982
2.64454
5.27527
8.20422
10.6744
12.0417
11.9922
10.6027
8.29682
5.71445
3.48293
1.96678
1.16092
0.814885
0.683161
0.576514
0.470282
0.364311
0.258945
0.155187
0.0548456
-0.0389874
-0.121481
-0.188081
-0.234472
-0.256863
-0.252503
-0.220129
-0.160242
-0.0751685
0.0311258
0.153393
0.284451
0.418233
0.548648
0.667603
0.768586
0.847009
0.901284
0.9338
0.951438
0.965286
0.989376
1.03852
1.12172
1.24007
1.39288
1.57721
1.79825
2.05978
2.33559
2.58523
2.77839
2.8996
2.94748
2.93031
2.86035
2.74951
2.60765
2.44385
2.26582
2.07676
1.87775
1.66963
1.45301
1.22768
0.993698
0.752302
0.506139
0.259266
0.0168256
-0.215592
-0.432789
-0.630256
-0.803195
-0.951426
-1.0784
-1.18914
-1.28862
-1.37958
-1.46244
-1.53491
-1.59259
-1.63083
-1.64661
-1.63971
-1.61296
-1.57158
-1.52188
-1.4698
-1.41923
-1.37164
-1.32663
-1.28232
-1.23624
-1.18477
-1.12906
-1.07572
-1.03439
-1.0138
-1.01825
-1.04608
-1.09073
-1.14309
-1.19389
-1.23742
-1.2711
-1.29265
-1.2962
-1.25864
-1.15038
-0.999435
-0.856409
-0.774739
-0.783974
-0.874396
-1.0027
-1.11288
-1.15912
-1.13689
-1.08077
-1.00697
-0.921723
-0.829016
-0.732612
-0.636021
-0.542371
-0.45399
-0.372186
-0.29713
-0.227921
-0.162877
-0.100061
-0.0380142
0.0237371
0.0821871
0.13141
0.165352
0.181146
0.181246
0.173148
0.166651
0.1699
0.186105
0.20985
0.236818
0.262367
0.283104
0.298168
0.309632
0.322012
0.347334
0.433338
0.661655
0.958835
1.26646
1.51198
1.57957
1.38449
0.963657
0.472309
0.0891236
-0.03201
0.0273398
0.113541
0.207032
0.29151
0.352117
0.379172
0.369849
0.327101
0.257046
0.166658
0.064022
-0.0430388
0
0.703552
2.32259
4.80435
7.78388
10.6564
12.7081
13.345
12.3749
10.147
7.39173
4.84497
2.93663
1.74549
1.15258
0.983687
0.953677
0.917285
0.874836
0.82464
0.766079
0.698411
0.621618
0.539828
0.461522
0.396439
0.353734
0.34008
0.35809
0.405614
0.476266
0.561205
0.651704
0.741652
0.82907
0.914775
1.00011
1.08627
1.17425
1.26468
1.35803
1.45491
1.55646
1.66463
1.78215
1.91207
2.05713
2.2189
2.39711
2.58923
2.79165
2.99816
3.20223
3.39811
3.58158
3.74475
3.87735
3.9741
4.02842
4.02891
3.96356
3.82626
3.62192
3.36746
3.0877
2.80773
2.54152
2.28876
2.04924
1.82299
1.60921
1.40701
1.21592
1.03599
0.868018
0.712859
0.570961
0.442503
0.327504
0.226073
0.138781
0.0665425
0.0100908
-0.030335
-0.0533299
-0.0594646
-0.0539899
-0.0432479
-0.0330766
-0.0273358
-0.0271506
-0.0311579
-0.0366234
-0.0409513
-0.0431821
-0.0439586
-0.0454013
-0.050352
-0.0612774
-0.0791859
-0.102874
-0.128707
-0.150985
-0.158801
-0.104399
0.0527165
0.265696
0.447362
0.519543
0.458335
0.301326
0.117619
-0.0283865
-0.0957618
-0.111077
-0.102809
-0.0805026
-0.047734
-0.00680037
0.0399008
0.0898368
0.140149
0.187991
0.230784
0.266466
0.293688
0.311922
0.321481
0.323457
0.319623
0.312363
0.304211
0.298101
0.296581
0.301451
0.313899
0.332388
0.353826
0.374448
0.390935
0.401446
0.406249
0.407807
0.41034
0.418619
0.436584
0.467712
0.514024
0.575015
0.648197
0.731007
0.819013
0.906568
0.98743
1.05526
1.10498
1.13283
1.13656
1.11564
1.07148
1.00761
0.929624
0.844701
0.760601
0.68401
0.622688
0.578918
0.547274
0.517878
0.479616
0.423492
0.344919
0.244397
0.126811
0
0.344516
1.36889
3.18719
5.72782
8.69652
11.5449
13.5552
14.1177
13.0715
10.8261
8.12396
5.62949
3.67831
2.32147
1.50314
1.14226
1.08668
1.02893
0.969289
0.907906
0.845766
0.78467
0.72695
0.675026
0.631021
0.596515
0.572484
0.559418
0.557517
0.566879
0.587463
0.618953
0.661245
0.714015
0.776716
0.848692
0.929307
1.0182
1.11551
1.2218
1.33778
1.46394
1.60018
1.74538
1.89732
2.05276
2.20778
2.35834
2.50085
2.63264
2.75225
2.85945
2.95493
3.03947
3.11341
3.17704
3.22994
3.2696
3.29057
3.28722
3.25322
3.18279
3.07184
2.91911
2.72685
2.50095
2.25048
1.98685
1.72243
1.46525
1.22231
0.999152
0.799496
0.626232
0.480049
0.357723
0.254472
0.16491
0.0840117
0.00789461
-0.0657112
-0.137354
-0.20608
-0.270087
-0.327054
-0.374824
-0.411897
-0.437746
-0.452917
-0.458884
-0.457726
-0.451721
-0.443006
-0.433315
-0.423885
-0.415582
-0.408966
-0.404379
-0.401956
-0.401565
-0.40271
-0.404455
-0.405423
-0.40391
-0.398055
-0.386115
-0.366757
-0.33933
-0.304029
-0.261102
-0.212557
-0.163092
-0.119595
-0.0894001
-0.0788897
-0.0920379
-0.129177
-0.186394
-0.255916
-0.327598
-0.391252
-0.439462
-0.471809
-0.488379
-0.492258
-0.48821
-0.480482
-0.471221
-0.459875
-0.443871
-0.417369
-0.377262
-0.331406
-0.294249
-0.280037
-0.29537
-0.335416
-0.385755
-0.428546
-0.449507
-0.446804
-0.427171
-0.395291
-0.3526
-0.299373
-0.235352
-0.1599
-0.0723906
0.0295053
0.151553
0.291606
0.436103
0.568818
0.673235
0.737784
0.755794
0.724484
0.644533
0.521201
0.36617
0.198085
0.0403265
-0.0840082
-0.171087
-0.211362
-0.194514
-0.139359
-0.0727114
-0.0203699
0
-0.01862
-0.0744543
-0.1608
-0.269533
-0.391796
-0.520667
-0.652192
-0.376452
0.620766
2.68767
5.81971
9.43822
12.5442
14.2054
14.0261
12.2727
9.63622
6.87141
4.53637
2.88567
1.87649
1.27101
0.827167
0.653957
0.485878
0.325559
0.175416
0.0372703
-0.0879439
-0.199922
-0.298018
-0.380587
-0.445677
-0.49196
-0.517696
-0.521132
-0.500982
-0.456835
-0.389432
-0.300717
-0.193712
-0.0725925
0.0576221
0.19255
0.328694
0.463257
0.594061
0.719713
0.839656
0.954098
1.06383
1.16997
1.27367
1.37597
1.47761
1.57907
1.68056
1.78213
1.88368
1.98499
2.08571
2.1852
2.28201
2.37208
2.44789
2.49869
2.51039
2.46938
2.36751
2.20507
1.98993
1.73378
1.44859
1.15055
0.849778
0.551386
0.260187
-0.0188158
-0.280722
-0.521135
-0.736557
-0.924705
-1.08464
-1.21675
-1.3225
-1.40424
-1.46486
-1.50757
-1.53422
-1.54731
-1.55219
-1.5539
-1.55656
-1.56278
-1.57345
-1.58799
-1.60507
-1.62356
-1.64321
-1.66465
-1.689
-1.71695
-1.74799
-1.77996
-1.80929
-1.83186
-1.84424
-1.8448
-1.8336
-1.81402
-1.79086
158
344
524
700
884
1251
1428
1611
1804
1988
2168
2346
2538
2737
2934
3124
3301
3476
3652
3678
3624
3512
3699
3512
3660
3631
0
0
0
0
0
0
0
0
0
0
0
0
0
0
0
0
0
0
0
0
0
0
0
0
0
0
0
0
0
0
0
0
0
0
0
0
0
0
0
0
0
0
0
0
0
0
0
0
0
0
0
0
0
0
0
0
0
0
0
0
0
0
0
0
0
0
0
0
0
0
0
0
0
0
0
0
0
0
0
0
0
0
0
0
0
0
0
0
0
0
0
0
0
0
0
0
0
0
0
0
0
0
0
0
0
0
0
0
0
0
0
0
0
0
0
0
0
0
0
0
0
0
0
0
0
0
0
0
0
0
0
0
0
0
0
0
0
0
0
0
0
0
0
0
0
0
0
0
0
0
0
0
0
0
0
0
0
0
0
0
0
0
0
0
0
0
0
0
0
0
0
0
0
0
0
0
0
0
0
0
0
0
0
0
0
0
0
0
0
0
0
0
0
0
0
0
0
0
0
0
0
0
0
0
0
0
0
0
0
0
0
0
0
0
0
0
0
0
0
0
0
0
0
0
0
0
0
0
0
0
0
0
0
0
0
0
0
0
0
0
0
0
0
0
0
0
0
0
0
0
0
0
0
0
0
0
0
0
0
0
0
0
0
0
0
0
0
0
0
0
0
0
0
0
0
0
0
0
0
0
0
0
0
0
0
0
0
0
0
0
0
0
0
0
0
0
0
0
0
0
0
0
0
0
0
0
0
0
0
0
0
0
0
0
0
0
0
0
0
0
0
0
0
0
0
0
0
0
0
0
0
0
0
0
0
0
0
0
0
0
0
0
0
0
0
0
0
0
0
0
0
0
0
0
0
0
0
0
0
0
0
0
0
0
0
0
0
0
0
0
0
0
0
0
0
0
0
0
0
0
0
0
0
0
0
0
0
0
0
0
0
0
0
0
0
0
0
0
0
0
0
0
0
0
0
0
0
0
0
0
0
0
0
0
0
0
0
0
0
0
0
0
0
0
0
0
0
0
0
0
0
0
0
0
0
0
0
0
0
0
0
0
0
0
0
0
0
0
0
0
0
0
0
0
0
0
0
0
0
0
0
0
0
0
0
0
0
0
0
0
0
0
0
0
0
0
0
0
0
0
0
0
0
0
0
0
0
0
0
0
0
0
0
0
0
0
0
0
0
0
0
0
0
0
0
0
0
0
0
0
0
0
0
0
0
0
0
0
0
0
0
0
0
0
0
0
0
0
0
0
0
0
0
0
0
0
0
0
0
0
0
0
0
0
0
0
0
0
0
0
0
0
0
0
0
0
0
0
0
0
0
0
0
0
0
0
0
0
0
0
0
0
0
0
0
0
0
0
0
0
0
0
0
0
0
0
0
0
0
0
0
0
0
0
0
0
0
0
0
0
0
0
0
0
0
0
0
0
0
0
0
0
0
0
0
0
0
0
0
0
0
0
0
0
0
0
0
0
0
0
0
0
0
0
0
0
0
0
0
0
0
0
0
0
0
0
0
0
0
0
0
0
0
0
0
0
0
0
0
0
0
0
0
0
0
0
0
0
0
0
0
0
0
0
0
0
0
0
0
0
0
0
0
0
0
0
0
0
0
0
0
0
0
0
0
0
0
0
0
0
0
0
0
0
0
0
0
0
0
0
0
0
0
0
0
0
0
0
0
0
0
0
0
0
0
0
0
0
0
0
0
0
0
0
0
0
0
0
0
0
0
0
0
0
0
0
0
0
0
0
0
0
0
0
0
0
0
0
0
0
0
0
0
0
0
0
0
0
0
0
0
0
0
0
0
0
0
0
0
0
0
0
0
0
0
0
0
0
0
0
0
0
0
0
0
0
0
0
0
0
0
0
0
0
0
0
0
0
0
0
0
0
0
0
0
0
0
0
0
0
0
0
0
0
0
0
0
0
0
0
0
0
0
0
0
0
0
0
0
0
0
0
0
0
0
0
0
0
0
0
0
0
0
0
0
0
0
0
0
0
0
0
0
0
0
0
0
0
0
0
0
0
0
0
0
0
0
0
0
0
0
0
0
0
0
0
0
0
0
0
0
0
0
0
0
0
0
0
0
0
0
0
0
0
0
0
0
0
0
0
0
0
0
0
0
0
0
0
0
0
0
0
0
0
0
0
0
0
0
0
0
0
0
0
0
0
0
0
0
0
0
0
0
0
0
0
0
0
0
0
0
0
0
0
0
0
0
0
0
0
0
0
0
0
0
0
0
0
0
0
0
0
0
0
0
0
0
0
0
0
0
0
0
0
0
0
0
0
0
0
0
0
0
0
0
0
0
0
0
0
0
0
0
0
0
0
0
0
0
0
0
0
0
0
0
0
0
0
0
0
0
0
0
0
0
0
0
0
0
0
0
0
0
0
0
0
0
0
0
0
0
0
0
0
0
0
0
0
0
0
0
0
0
0
0
0
0
0
0
0
0
0
0
0
0
0
0
0
0
0
0
0
0
0
0
0
0
0
0
0
0
0
0
0
0
0
0
0
0
0
0
0
0
0
0
0
0
0
0
0
0
0
0
0
0
0
0
0
0
0
0
0
0
0
0
0
0
0
0
0
0
0
0
0
0
0
0
0
0
0
0
0
0
0
0
0
0
0
0
0
0
0
0
0
0
0
0
0
0
0
0
0
0
0
0
0
0
0
0
0
0
0
0
0
0
0
0
0
0
0
0
0
0
0
0
0
0
0
0
0
0
0
0
0
0
0
0
0
0
0
0
0
0
0
0
0
0
0
0
0
0
0
0
0
0
0
0
0
0
0
0
0
0
0
0
0
0
0
0
0
0
0
0
0
0
0
0
0
0
0
0
0
0
0
0
0
0
0
0
0
0
0
0
0
0
0
0
0
0
0
0
0
0
0
0
0
0
0
0
0
0
0
0
0
0
0
0
0
0
0
0
0
0
0
0
0
0
0
0
0
0
0
0
0
0
0
0
0
0
0
0
0
0
0
0
0
0
0
0
0
0
0
0
0
0
0
0
0
0
0
0
0
0
0
0
0
0
0
0
0
0
0
0
0
0
0
0
0
0
0
0
0
0
0
0
0
0
0
0
0
0
0
0
0
0
0
0
0
0
0
0
0
0
0
0
0
0
0
0
0
0
0
0
0
0
0
0
0
0
0
0
0
0
0
0
0
0
0
0
0
0
0
0
0
0
0
0
0
0
0
0
0
0
0
0
0
0
0
0
0
0
0
0
0
0
0
0
0
0
0
0
0
0
0
0
0
0
0
0
0
0
0
0
0
0
0
0
0
0
0
0
0
0
0
0
0
0
0
0
0
0
0
0
0
0
0
0
0
0
0
0
0
0
0
0
0
0
0
0
0
0
0
0
0
0
0
0
0
0
0
0
0
0
0
0
0
0
0
0
0
0
0
0
0
0
0
0
0
0
0
0
0
0
0
0
0
0
0
0
0
0
0
0
0
0
0
0
0
0
0
0
0
0
0
0
0
0
0
0
0
0
0
0
0
0
0
0
0
0
0
0
0
0
0
0
0
0
0
0
0
0
0
0
0
0
0
0
0
0
0
0
0
0
0
0
0
0
0
0
0
0
0
0
0
0
0
0
0
0
0
0
0
0
0
0
0
0
0
0
0
0
0
0
0
0
0
0
0
0
0
0
0
0
0
0
0
0
0
0
0
0
0
0
0
0
0
0
0
0
0
0
0
0
0
0
0
0
0
0
0
0
0
0
0
0
0
0
0
0
0
0
0
0
0
0
0
0
0
0
0
0
0
0
0
0
0
0
0
0
0
0
0
0
0
0
0
0
0
0
0
0
0
0
0
0
0
0
0
0
0
0
0
0
0
0
0
0
0
0
0
0
0
0
0
0
0
0
0
0
0
0
0
0
0
0
0
0
0
0
0
0
0
0
0
0
0
0
0
0
0
0
0
0
0
0
0
0
0
0
0
0
0
0
0
0
0
0
0
0
0
0
0
0
0
0
0
0
0
0
0
0
0
0
0
0
0
0
0
0
0
0
0
0
0
0
0
0
0
0
0
0
0
0
0
0
0
0
0
0
0
0
0
0
0
0
0
0
0
0
0
0
0
0
0
0
0
0
0
0
0
0
0
0
0
0
0
0
0
0
0
0
0
0
0
0
0
0
0
0
0
0
0
0
0
0
0
0
0
0
0
0
0
0
0
0
0
0
0
0
0
0
0
0
0
0
0
0
0
0
0
0
0
0
0
0
0
0
0
0
0
0
0
0
0
0
0
0
0
0
0
0
0
0
0
0
0
0
0
0
0
0
0
0
0
0
0
0
0
0
0
0
0
0
0
0
0
0
0
0
0
0
0
0
0
0
0
0
0
0
0
0
0
0
0
0
0
0
0
0
0
0
0
0
0
0
0
0
0
0
0
0
0
0
0
0
0
0
0
0
0
0
0
0
0
0
0
0
0
0
0
0
0
0
0
0
0
0
0
0
0
0
0
0
0
0
0
0
0
0
0
0
0
0
0
0
0
0
0
0
0
0
0
0
0
0
0
0
0
0
0
0
0
0
0
0
0
0
0
0
0
0
0
0
0
0
0
0
0
0
0
0
0
0
0
0
0
0
0
0
0
0
0
0
0
0
0
0
0
0
0
0
0
0
0
0
0
0
0
0
0
0
0
0
0
0
0
0
0
0
0
0
0
0
0
0
0
0
0
0
0
0
0
0
0
0
0
0
0
0
0
0
0
0
0
0
0
0
0
0
0
0
0
0
0
0
0
0
0
0
0
0
0
0
0
0
0
0
0
0
0
0
0
0
0
0
0
0
0
0
0
0
0
0
0
0
0
0
0
0
0
0
0
0
0
0
0
0
0
0
0
0
0
0
0
0
0
0
0
0
0
0
0
0
0
0
0
0
0
0
0
0
0
0
0
0
0
0
0
0
0
0
0
0
0
0
0
0
0
0
0
0
0
0
0
0
0
0
0
0
0
0
0
0
0
0
0
0
0
0
0
0
0
0
0
0
0
0
0
0
0
0
0
0
0
0
0
0
0
0
0
0
0
0
0
0
0
0
0
0
0
0
0
0
0
0
0
0
0
0
0
0
0
0
0
0
0
0
0
0
0
0
0
0
0
0
0
0
0
0
0
0
0
0
0
0
0
0
0
0
0
0
0
0
0
0
0
0
0
0
0
0
0
0
0
0
0
0
0
0
0
0
0
0
0
0
0
0
0
0
0
0
0
0
0
0
0
0
0
0
0
0
0
0
0
0
0
0
0
0
0
0
0
0
0
0
0
0
0
0
0
0
0
0
0
0
0
0
0
0
0
0
0
0
0
0
0
0
0
0
0
0
0
0
0
0
0
0
0
0
0
0
0
0
0
0
0
0
0
0
0
0
0
0
0
0
0
0
0
0
0
0
0
0
0
0
0
0
0
0
0
0
0
0
0
0
0
0
0
0
0
0
0
0
0
0
0
0
0
0
0
0
0
0
0
0
0
0
0
0
0
0
0
0
0
0
0
0
0
0
0
0
0
0
0
0
0
0
0
0
0
0
0
0
0
0
0
0
0
0
0
0
0
0
0
0
0
0
0
0
0
0
0
0
0
0
0
0
0
0
0
0
0
0
0
0
0
0
0
0
0
0
0
0
0
0
0
0
0
0
0
0
0
0
0
0
0
0
0
0
0
0
0
0
0
0
0
0
0
0
0
0
0
0
0
0
0
0
0
0
0
0
0
0
0
0
0
0
0
0
0
0
0
0
0
0
0
0
0
0
0
0
0
0
0
0
0
0
0
0
0
0
0
0
0
0
0
0
0
0
0
0
0
0
0
0
0
0
0
0
0
0
0
0
0
0
0
0
0
0
0
0
0
0
0
0
0
0
0
0
0
0
0
0
0
0
0
0
0
0
0
0
0
0
0
0
0
0
0
0
0
0
0
0
0
0
0
0
0
0
0
0
0
0
0
0
0
0
0
0
0
0
0
0
0
0
0
0
0
0
0
0
0
0
0
0
0
0
0
0
0
0
0
0
0
0
0
0
0
0
0
0
0
0
0
0
0
0
0
0
0
0
0
0
0
0
0
0
0
0
0
0
0
0
0
0
0
0
0
0
0
0
0
0
0
0
0
0
0
0
0
0
0
0
0
0
0
0
0
0
0
0
0
0
0
0
0
0
0
0
0
0
0
0
0
0
0
0
0
0
0
0
0
0
0
0
0
0
0
0
0
0
0
0
0
0
0
0
0
0
0
0
0
0
0
0
0
0
0
0
0
0
0
0
0
0
0
0
0
0
0
0
0
0
0
0
0
0
0
0
0
0
0
0
0
0
0
0
0
0
0
0
0
0
0
0
0
0
0
0
0
0
0
0
0
0
0
0
0
0
0
0
0
0
0
0
0
0
0
0
0
0
0
0
0
0
0
0
0
0
0
0
0
0
0
0
0
0
0
0
0
0
0
0
0
0
0
0
0
0
0
0
0
0
0
0
0
0
0
0
0
0
0
0
0
0
0
0
0
0
0
0
0
0
0
0
0
0
0
0
0
0
0
0
0
0
0
0
0
0
0
0
0
0
0
0
0
0
0
0
0
0
0
0
0
0
0
0
0
0
0
0
0
0
0
0
0
0
0
0
0
0
0
0
0
0
0
0
0
0
0
0
0
0
0
0
0
0
0
0
0
0
0
0
0
0
0
0
0
0
0
0
0
0
0
0
0
0
0
0
0
0
0
0
0
0
0
0
0
0
0
0
0
0
0
0
0
0
0
0
0
0
0
0
0
0
0
0
0
0
0
0
0
0
0
0
0
0
0
0
0
0
0
0
0
0
0
0
0
0
0
0
0
0
0
0
0
0
0
0
0
0
0
0
0
0
0
0
0
0
0
0
0
0
0
0
0
0
0
0
0
0
0
0
0
0
0
0
0
0
0
0
0
0
0
0
0
0
0
0
0
0
0
0
0
0
0
0
0
0
0
0
0
0
0
0
0
0
0
0
0
0
0
0
0
0
0
0
0
0
0
0
0
0
0
0
0
0
0
0
0
0
0
0
0
0
0
0
0
0
0
0
0
0
0
0
0
0
0
0
0
0
0
0
0
0
0
0
0
0
0
0
0
0
0
0
0
0
0
0
0
0
0
0
0
0
0
0
0
0
0
0
0
0
0
0
0
0
0
0
0
0
0
0
0
0
0
0
0
0
0
0
0
0
0
0
0
0
0
0
0
0
0
0
0
0
0
0
0
0
0
0
0
0
0
0
0
0
0
0
0
0
0
0
0
0
0
0
0
0
0
0
0
0
0
0
0
0
0
0
0
0
0
0
0
0
0
0
0
0
0
0
0
0
0
0
0
0
0
0
0
0
0
0
0
0
0
0
0
0
0
0
0
0
0
0
0
0
0
0
0
0
0
0
0
0
0
0
0
0
0
0
0
0
0
0
0
0
0
0
0
0
0
0
0
0
0
0
0
0
0
0
0
0
0
0
0
0
0
0
0
0
0
0
0
0
0
0
0
0
0
0
0
0
0
0
0
0
0
0
0
0
0
0
0
0
0
0
0
0
0
0
0
0
0
0
0
0
0
0
0
0
0
0
0
0
0
0
0
0
0
0
0
0
0
0
0
0
0
0
0
0
0
0
0
0
0
0
0
0
0
0
0
0
0
0
0
0
0
0
0
0
0
0
0
0
0
0
0
0
0
0
0
0
0
0
0
0
0
0
0
0
0
0
0
0
0
0
0
0
0
0
0
0
0
0
0
0
0
0
0
0
0
0
0
0
0
0
0
0
0
0
0
0
0
0
0
0
0
0
0
0
0
0
0
0
0
0
0
0
0
0
0
0
0
0
0
0
0
0
0
0
0
0
0
0
0
0
0
0
0
0
0
0
0
0
0
0
0
0
0
0
0
0
0
0
0
0
0
0
0
0
0
0
0
0
0
0
0
0
0
0
0
0
0
0
0
0
0
0
0
0
0
0
0
0
0
0
0
0
0
0
0
0
0
0
0
0
0
0
0
0
0
0
0
0
0
0
0
0
0
0
0
0
0
0
0
0
0
0
0
0
0
0
0
0
0
0
0
0
0
0
0
0
0
0
0
0
0
0
0
0
0
0
0
0
0
0
0
0
0
0
0
0
0
0
0
0
0
0
0
0
0
0
0
0
0
0
0
0
0
0
0
0
0
0
0
0
0
0
0
0
0
0
0
0
0
0
0
0
0
0
0
0
0
0
0
0
0
0
0
0
0
0
0
0
0
0
0
0
0
0
0
0
0
0
0
0
0
0
0
0
0
0
0
0
0
0
0
0
0
0
0
0
0
0
0
0
0
0
0
0
0
0
0
0
0
0
0
0
0
0
0
0
0
0
0
0
0
0
0
0
0
0
0
0
0
0
0
0
0
0
0
0
0
0
0
0
0
0
0
0
0
0
0
0
0
0
0
0
0
0
0
0
0
0
0
0
0
0
0
0
0
0
0
0
0
0
0
0
0
0
0
0
0
0
0
0
