2.27782
2.32608
2.36699
2.40147
2.43048
2.45566
2.47986
2.50709
2.54202
2.58895
2.65088
2.72813
2.81877
2.9211
3.03351
3.15443
3.28237
3.41593
3.55353
3.69339
3.83352
3.97201
4.10733
4.23848
4.36497
4.48655
4.60272
4.71198
4.812
4.89985
4.97229
5.02627
5.05937
5.0698
5.05613
5.01688
4.95028
4.85556
4.73233
4.58035
4.40121
4.19862
3.97832
3.74764
3.51482
3.2878
3.07405
2.88045
2.71328
2.57644
2.47166
2.40257
2.37055
2.36559
2.37452
2.38401
2.38352
2.36731
2.33506
2.2909
2.24144
2.19368
2.15251
2.12026
2.0984
2.08805
2.08953
2.10236
2.12537
2.15665
2.19324
2.23099
2.26521
2.29176
2.30789
2.31295
2.30864
2.29876
2.28845
2.28301
2.28658
2.30051
2.32447
2.35563
2.38799
2.41452
2.4287
2.42577
2.4036
2.3628
2.30643
2.23937
2.16769
2.09746
2.03415
1.98244
1.94578
1.92588
1.92265
1.93431
1.95789
1.98987
2.02676
2.06529
2.10273
2.13617
2.16295
2.18064
2.18747
2.18285
2.16776
2.14482
2.11776
2.09073
2.06733
2.04938
2.03715
2.02984
2.02542
2.02059
2.01078
1.9905
1.95431
1.89753
1.81699
1.71164
1.58272
1.43346
1.26833
1.09209
0.909159
0.722863
0.535249
0.347694
0.161321
-0.0227341
-0.202044
-0.312948
0
0.783039
2.25223
4.47264
7.17185
9.64939
10.9736
10.423
7.92038
4.1538
0.271957
-2.66793
-4.1554
-4.32538
-3.70337
-2.8263
-1.99552
-1.27895
-0.657253
-0.227177
0.00121689
0.177095
0.328227
0.460294
0.573214
0.667525
0.744457
0.805742
0.853407
0.889571
0.916287
0.935441
0.948657
0.957293
0.962471
0.965134
0.966283
0.967082
0.96889
0.973228
0.981589
0.995097
1.01426
1.03913
1.06768
1.09649
1.1225
1.14471
1.16514
1.18892
1.22287
1.27332
1.34381
1.43218
1.53232
1.63842
1.74444
1.84548
1.93892
2.02479
2.10543
2.18401
2.26465
2.34888
2.429
2.48991
2.51391
2.4863
2.39934
2.25355
2.05648
1.82014
1.55865
1.2884
1.02116
0.764571
0.527669
0.318537
0.143256
0.00569153
-0.0929962
-0.154482
-0.18297
-0.184526
-0.166188
-0.135082
-0.0979744
-0.0599884
-0.0245041
0.00625992
0.0311447
0.049868
0.0627274
0.0702438
0.0725006
0.0696983
0.0622223
0.0509506
0.0377869
0.025943
0.0196648
0.0233475
0.040229
0.0711586
0.115823
0.166813
0.213618
0.245531
0.254383
0.236309
0.192044
0.125912
0.0442184
-0.0461792
-0.138313
-0.227016
-0.306957
-0.373309
-0.422004
-0.450475
-0.458393
-0.448052
-0.424135
-0.392823
-0.360464
-0.33215
-0.310667
-0.296496
-0.288116
-0.282913
-0.278255
-0.272443
-0.265099
-0.256961
-0.249592
-0.244471
-0.242002
-0.240791
-0.237396
-0.226775
-0.203374
-0.162633
-0.102068
-0.0177025
0.0827057
0.18496
0.275143
0.345013
0.395406
0.436096
0.482127
0.548032
0.642292
0.767359
0.911441
1.0536
1.17171
1.24842
1.27469
1.25015
1.18166
1.0808
0.961469
0.837935
0.720464
0.614821
0.522623
0.442506
0.372028
0.308691
0.249838
0.192905
0.135814
0.0770416
0.00863037
0
0.447432
1.70666
3.92946
6.82034
9.59426
11.2294
10.9343
8.5713
4.77121
0.648101
-2.71933
-4.7292
-5.38271
-5.08241
-4.29924
-3.34416
-2.34358
-1.35369
-0.46724
0.139892
0.22455
0.209086
0.180132
0.148948
0.123965
0.11132
0.113205
0.126888
0.149004
0.174545
0.198868
0.2192
0.235553
0.250816
0.269938
0.298498
0.341106
0.400114
0.474495
0.561955
0.660576
0.769012
0.887109
1.01584
1.15655
1.30972
1.47388
1.64579
1.81778
1.98003
2.12347
2.24242
2.33651
2.41124
2.47708
2.54727
2.63493
2.74923
2.89691
3.09043
3.31521
3.53487
3.71116
3.81583
3.83797
3.78407
3.67182
3.5207
3.34419
3.15042
2.94427
2.72852
2.50532
2.27771
2.05042
1.82949
1.62148
1.43249
1.26792
1.13178
1.02382
0.941338
0.87998
0.834558
0.799719
0.770255
0.741128
0.707206
0.663516
0.605634
0.530396
0.436734
0.326358
0.20405
0.0774178
-0.0437752
-0.148106
-0.225156
-0.266993
-0.269653
-0.234068
-0.158306
-0.0523857
0.0621658
0.163733
0.235833
0.270878
0.271338
0.248
0.215855
0.188982
0.175744
0.17504
0.181816
0.191187
0.197624
0.196283
0.183889
0.15907
0.122232
0.0751923
0.0209671
-0.0366882
-0.0940445
-0.147044
-0.191765
-0.224911
-0.244387
-0.249724
-0.242193
-0.224497
-0.20011
-0.172411
-0.143929
-0.115769
-0.087619
-0.0580215
-0.0249252
0.0136894
0.0592934
0.112528
0.17314
0.240366
0.313133
0.390147
0.470111
0.5508
0.628041
0.695974
0.747572
0.775705
0.774594
0.741274
0.676675
0.586088
0.478805
0.366977
0.262846
0.175877
0.112619
0.0756874
0.0631714
0.0692604
0.0856415
0.103236
0.113876
0.030674
0
0.579593
2.00617
4.17235
6.59195
8.50795
9.16308
8.14094
5.59983
2.2464
-0.973665
-3.30475
-4.47582
-4.69731
-4.40209
-3.93115
-3.39402
-2.74783
-1.97986
-1.21663
-0.689664
-0.52564
-0.478487
-0.45363
-0.435142
-0.418465
-0.399939
-0.376226
-0.344619
-0.303324
-0.251733
-0.190633
-0.122271
-0.0500381
0.0209068
0.084227
0.134142
0.166663
0.180648
0.178382
0.165488
0.150185
0.142039
0.15048
0.18166
0.238464
0.322053
0.431682
0.564239
0.71462
0.876458
1.04299
1.20796
1.36633
1.51473
1.65141
1.77601
1.8888
1.98969
2.07753
2.15011
2.20466
2.2381
2.24771
2.23188
2.19057
2.12523
2.03835
1.93279
1.81121
1.67641
1.53127
1.37862
1.22145
1.06333
0.908384
0.760722
0.62376
0.499892
0.38997
0.291993
0.201103
0.112037
0.0209343
-0.0731964
-0.167866
-0.257565
-0.335211
-0.394132
-0.429951
-0.441856
-0.432931
-0.409576
-0.37984
-0.353716
-0.34037
-0.345654
-0.370806
-0.411945
-0.460599
-0.50546
-0.535183
-0.541552
-0.521985
-0.482982
-0.432028
-0.378525
-0.331214
-0.296019
-0.275016
-0.266748
-0.267585
-0.273457
-0.281213
-0.289375
-0.297774
-0.306854
-0.317123
-0.328706
-0.341105
-0.353196
-0.363433
-0.370161
-0.371936
-0.36778
-0.357283
-0.340611
-0.318345
-0.291232
-0.260051
-0.22547
-0.187973
-0.14787
-0.105357
-0.0606327
-0.0140461
0.0337845
0.0819485
0.129309
0.174849
0.218077
0.259411
0.30034
0.343243
0.391038
0.447401
0.515508
0.593765
0.671354
0.731474
0.756983
0.735664
0.664337
0.550713
0.412398
0.273029
0.156306
0.0765114
0.0320408
0.0142735
0.0156261
0.0305088
0.052713
0.0762949
0.0948772
-0.0402332
0
0.667246
2.25828
4.74971
7.64718
10.0391
10.9235
9.69281
6.50107
2.25952
-1.77092
-4.55426
-5.67767
-5.37477
-4.23788
-2.86002
-1.6208
-0.662888
0.0172429
0.338209
0.522032
0.681066
0.821099
0.941831
1.04459
1.13199
1.20748
1.27476
1.33737
1.39842
1.46055
1.52592
1.5962
1.67253
1.75522
1.84365
1.93606
2.02973
2.12129
2.20729
2.28486
2.35245
2.41024
2.46036
2.50666
2.55425
2.60879
2.67559
2.75884
2.86096
2.98221
3.12094
3.27404
3.43743
3.60661
3.7772
3.9452
4.10688
4.25834
4.39524
4.51284
4.60623
4.67089
4.70295
4.69966
4.66003
4.58534
4.47937
4.34815
4.19925
4.04087
3.88073
3.72464
3.57592
3.43637
3.30681
3.18695
3.07563
2.97115
2.87136
2.77436
2.67897
2.58515
2.49422
2.40856
2.33103
2.2648
2.21353
2.17653
2.14529
2.10909
2.05961
1.99536
1.92378
1.85988
1.82157
1.82348
1.8723
1.97319
2.10337
2.22989
2.32195
2.36017
2.3413
2.27761
2.19178
2.10907
2.04892
2.01451
1.99864
1.99207
1.98266
1.95921
1.91496
1.84972
1.76995
1.68687
1.6133
1.55881
1.52536
1.51875
1.53573
1.56123
1.57814
1.57319
1.54165
1.48861
1.42662
1.3703
1.33061
1.30917
1.29942
1.29664
1.29685
1.2971
1.2963
1.29534
1.29659
1.30314
1.31747
1.34126
1.37539
1.41995
1.47433
1.53728
1.60736
1.68256
1.75751
1.82377
1.87206
1.89444
1.88629
1.84721
1.77999
1.68826
1.57414
1.43859
1.28483
1.1152
0.931602
0.736886
0.540813
0.357403
0.200488
0.0801136
0
-0.0392489
0.0858706
0.442702
1.01329
2.10682
3.93537
6.35485
8.75441
10.2261
9.9791
7.77272
4.09511
-0.0424997
-3.57127
-5.81155
-6.6586
-6.45804
-5.71435
-4.83054
-4.00064
-3.25443
-2.56996
-1.96415
-1.57619
-1.43644
-1.36244
-1.30984
-1.26694
-1.22929
-1.19346
-1.15672
-1.11747
-1.07524
-1.03102
-0.986933
-0.945138
-0.906731
-0.870919
-0.834695
-0.793195
-0.740677
-0.67188
-0.583778
-0.476984
-0.354047
-0.218541
-0.0757757
0.0686059
0.209607
0.343602
0.468671
0.584573
0.692084
0.793647
0.892602
0.992941
1.099
1.21501
1.34437
1.4889
1.64814
1.81999
1.99856
2.17468
2.3365
2.46979
2.56228
2.60561
2.59504
2.52999
2.41452
2.25708
2.06948
1.86471
1.65449
1.44691
1.24494
1.04958
0.861616
0.681526
0.509922
0.347701
0.195953
0.0556709
-0.0724624
-0.188339
-0.292509
-0.385721
-0.46818
-0.538513
-0.595071
-0.635786
-0.658742
-0.663251
-0.650654
-0.624503
-0.589978
-0.552728
-0.517517
-0.486751
-0.460947
-0.438739
-0.417503
-0.394226
-0.366419
-0.332594
-0.292014
-0.244692
-0.190982
-0.131257
-0.0658222
0.00526428
0.0819817
0.160606
0.231001
0.280056
0.296186
0.274621
0.220821
0.149872
0.0816519
0.0337397
0.0143293
0.0150858
0.0285364
0.0483643
0.0684984
0.0846149
0.0948681
0.0997625
0.10135
0.102119
0.103913
0.107426
0.112346
0.117381
0.120937
0.121818
0.119822
0.116087
0.113128
0.114575
0.124723
0.147827
0.186784
0.243884
0.320103
0.414443
0.524181
0.644835
0.768046
0.883927
0.983003
1.05765
1.10298
1.11703
1.10019
1.05435
0.982141
0.887826
0.776185
0.651522
0.517744
0.382382
0.255575
0.14748
0.0663828
0.0170698
0
0.012786
0.0474537
0.0957699
0.161672
0.285309
0.804686
2.00358
3.98706
6.5136
8.95551
10.4726
10.3577
8.39427
5.01381
1.14042
-2.20661
-4.33312
-5.08499
-4.77568
-3.91943
-2.95823
-2.127
-1.47771
-0.986072
-0.675844
-0.498835
-0.352832
-0.222077
-0.103028
0.00471582
0.100544
0.184521
0.257488
0.32099
0.377
0.427476
0.47374
0.516251
0.554419
0.587078
0.613212
0.633003
0.648689
0.664863
0.688036
0.725514
0.783904
0.867707
0.976485
1.10678
1.25498
1.41674
1.5872
1.76191
1.93725
2.11074
2.28107
2.44796
2.61183
2.77336
2.93305
3.09077
3.2454
3.39428
3.53324
3.65726
3.76111
3.83993
3.88974
3.90782
3.89271
3.84411
3.76274
3.65027
3.51012
3.347
3.16639
2.97441
2.77738
2.58126
2.3912
2.21125
2.04399
1.89049
1.75071
1.62404
1.50986
1.40786
1.318
1.24041
1.17513
1.12106
1.07529
1.03409
0.993768
0.951685
0.906979
0.860797
0.815903
0.775817
0.743803
0.721491
0.709302
0.706595
0.711754
0.722648
0.736982
0.752828
0.768683
0.78347
0.796502
0.807461
0.816407
0.823711
0.82996
0.835784
0.841626
0.847515
0.852826
0.856264
0.856201
0.851204
0.84056
0.82461
0.80477
0.783248
0.762625
0.745365
0.73319
0.727647
0.729692
0.739517
0.756998
0.780744
0.807158
0.832068
0.851955
0.865223
0.873063
0.879514
0.890657
0.913138
0.952485
1.0098
1.08335
1.17193
1.27189
1.3755
1.47113
1.54681
1.59232
1.60078
1.56981
1.50188
1.40374
1.28504
1.15636
1.02703
0.902271
0.78361
0.670751
0.562071
0.455005
0.346887
0.235735
0.120746
0
-0.161261
0.0820564
0.901542
2.39266
4.49628
6.89379
8.96336
9.92541
9.18042
6.66633
2.98484
-0.829352
-3.77947
-5.33185
-5.55121
-4.91185
-3.96077
-3.05865
-2.31691
-1.69197
-1.11338
-0.593055
-0.236492
0.0246277
0.232576
0.403149
0.536866
0.634055
0.697298
0.730732
0.739271
0.72797
0.701894
0.666064
0.624486
0.582066
0.544197
0.516106
0.502236
0.5056
0.527374
0.566915
0.622215
0.690633
0.769331
0.855966
0.949273
1.04881
1.15448
1.26614
1.38327
1.50488
1.62946
1.75511
1.87974
2.00128
2.11778
2.22753
2.32911
2.4213
2.50304
2.57317
2.63019
2.67189
2.69557
2.69867
2.67859
2.63319
2.56128
2.46289
2.33939
2.1932
2.02741
1.84552
1.65165
1.44962
1.24339
1.03779
0.838611
0.652633
0.486532
0.346266
0.240613
0.176673
0.148922
0.143862
0.145862
0.141483
0.122896
0.0892885
0.0459957
0.00189896
-0.0338373
-0.0561371
-0.0646067
-0.0607489
-0.0466297
-0.024534
0.00322933
0.0347359
0.0686997
0.104474
0.141796
0.180404
0.219625
0.257939
0.292397
0.318625
0.332296
0.330149
0.311346
0.278389
0.237144
0.195765
0.162753
0.144744
0.143655
0.156819
0.181324
0.212737
0.246641
0.279849
0.311097
0.341049
0.37167
0.405191
0.44308
0.485371
0.529828
0.572336
0.607731
0.631265
0.639867
0.633154
0.613953
0.588208
0.564259
0.551554
0.563126
0.625741
0.760127
0.933204
1.09268
1.18674
1.18288
1.0784
0.899083
0.687861
0.48933
0.336845
0.227477
0.147495
0.0890175
0.0484344
0.0230082
0.0090704
0.0026598
0
0.00174789
-0.0029808
-0.0369177
0.400981
1.62394
3.70665
6.31564
8.70826
9.9652
9.39503
6.90387
3.1011
-0.942167
-4.1528
-5.87676
-6.05436
-5.1113
-3.68383
-2.34325
-1.42403
-0.987406
-0.893186
-0.776345
-0.65149
-0.523521
-0.394328
-0.266812
-0.145407
-0.0354687
0.0582603
0.132384
0.185647
0.219344
0.237237
0.244988
0.249231
0.2565
0.272058
0.298751
0.33757
0.38849
0.450749
0.523227
0.604837
0.695043
0.794109
0.903033
1.02321
1.15587
1.30158
1.45982
1.62896
1.80649
1.98955
2.17542
2.36171
2.54626
2.72557
2.89313
3.04147
3.16209
3.24876
3.30107
3.32621
3.33738
3.34933
3.37282
3.4096
3.45356
3.49244
3.51099
3.49488
3.43415
3.32549
3.17305
2.98772
2.78505
2.58145
2.38976
2.21642
2.06224
1.92876
1.81619
1.72387
1.65066
1.59512
1.55648
1.53259
1.51959
1.51299
1.50825
1.50158
1.49052
1.47427
1.45361
1.4305
1.40752
1.38714
1.3714
1.36202
1.36022
1.36676
1.38197
1.40585
1.43814
1.47822
1.52505
1.57726
1.63197
1.68348
1.72461
1.74842
1.75011
1.72849
1.68648
1.63009
1.56655
1.5021
1.44037
1.38217
1.32789
1.27799
1.23372
1.19736
1.17203
1.16102
1.16665
1.19003
1.23172
1.28888
1.3526
1.41118
1.454
1.47421
1.47047
1.44718
1.41323
1.3796
1.35657
1.34967
1.35835
1.38111
1.41574
1.4555
1.49035
1.51054
1.50893
1.48254
1.4331
1.36609
1.28866
1.20706
1.12465
1.04138
0.955447
0.864161
0.764917
0.655982
0.536989
0.409066
0.274612
0.136094
0
0.173019
0.866427
2.2996
4.49673
7.13884
9.53619
10.8141
10.2882
7.84887
4.11393
0.207934
-2.74598
-4.13433
-4.06482
-3.18058
-2.21406
-1.5888
-1.28771
-1.01152
-0.478289
-0.00326347
0.36069
0.622015
0.808919
0.955798
1.07508
1.18071
1.28503
1.39623
1.51558
1.64205
1.77184
1.89597
2.00289
2.08234
2.12788
2.139
2.12212
2.08971
2.05767
2.04141
2.05231
2.09013
2.14977
2.22773
2.32183
2.43013
2.55105
2.68347
2.82639
2.97867
3.13862
3.30387
3.47142
3.6379
3.79984
3.95383
4.09624
4.22306
4.33051
4.41575
4.47617
4.50962
4.51466
4.49084
4.43873
4.35979
4.25607
4.12993
3.98467
3.8239
3.65123
3.47028
3.2848
3.09883
2.91653
2.74189
2.57835
2.42863
2.29457
2.17717
2.07655
1.99215
1.9228
1.86652
1.82047
1.78146
1.74629
1.71219
1.67715
1.64015
1.60114
1.56089
1.52069
1.48202
1.44641
1.41532
1.39025
1.37279
1.36462
1.36744
1.38281
1.4122
1.45707
1.51763
1.5888
1.65858
1.71357
1.74284
1.74143
1.71233
1.6658
1.61615
1.57699
1.55691
1.55387
1.56182
1.57656
1.59411
1.61166
1.62825
1.64464
1.66266
1.68423
1.71018
1.74014
1.77199
1.80148
1.82364
1.83436
1.83174
1.8168
1.79334
1.76683
1.74284
1.72546
1.71582
1.71277
1.71458
1.71931
1.72568
1.73349
1.74334
1.75582
1.77069
1.78551
1.79472
1.79115
1.76818
1.72196
1.65269
1.56438
1.46305
1.35416
1.24052
1.12224
0.996932
0.861337
0.712789
0.550344
0.375368
0.191498
0
0.0628515
0.46485
1.36675
3.0277
5.52609
8.48867
11.03
12.0618
10.8571
7.52118
3.03288
-1.20883
-4.05538
-5.08155
-4.6143
-3.38207
-2.07431
-1.0761
-0.45796
-0.130524
0.00898848
0.133353
0.25063
0.355209
0.439898
0.497933
0.5252
0.523528
0.502664
0.479273
0.472523
0.497579
0.559794
0.649129
0.752112
0.852682
0.937952
1.00258
1.05011
1.09102
1.1385
1.20368
1.28881
1.39079
1.50619
1.63175
1.76445
1.90228
2.04473
2.19289
2.34903
2.51581
2.69546
2.88892
3.09533
3.312
3.53441
3.7545
3.96101
4.14275
4.28997
4.39561
4.45587
4.47029
4.44137
4.37399
4.2748
4.15173
4.01385
3.86884
3.72214
3.57693
3.43428
3.2936
3.15313
3.01062
2.86422
2.71324
2.55842
2.40189
2.24658
2.09551
1.95114
1.81513
1.68834
1.5711
1.4637
1.36686
1.28194
1.21085
1.15566
1.11815
1.09928
1.09898
1.11583
1.14593
1.18185
1.21454
1.23598
1.24092
1.22812
1.2007
1.16532
1.13048
1.10414
1.09107
1.09129
1.10389
1.12524
1.15126
1.17902
1.20796
1.24006
1.2789
1.3293
1.3982
1.48052
1.55922
1.61322
1.62587
1.59181
1.51881
1.42388
1.32627
1.24089
1.17067
1.11256
1.06492
1.02757
1.00057
0.98442
0.979887
0.987727
1.00832
1.04133
1.08606
1.14022
1.19842
1.25311
1.29621
1.32035
1.31994
1.29197
1.23637
1.15597
1.05613
0.944258
0.828387
0.715268
0.609796
0.514682
0.431217
0.358061
0.292139
0.229529
0.166472
0.100259
0.029742
-0.0446041
-0.121047
-0.197138
-0.254772
0
0.620842
1.86177
3.86016
6.48537
9.21313
11.1847
11.5117
9.71566
6.05358
1.50026
-2.64906
-5.34953
-6.22476
-5.61123
-4.25001
-2.85921
-1.84402
-1.26289
-0.980424
-0.828089
-0.679785
-0.536565
-0.402188
-0.284625
-0.19238
-0.132694
-0.109941
-0.123381
-0.165915
-0.22461
-0.283179
-0.325801
-0.341071
-0.328144
-0.293807
-0.245149
-0.187992
-0.12754
-0.0678589
-0.0109957
0.0434132
0.0979689
0.156911
0.225237
0.307731
0.408112
0.528428
0.668659
0.82682
0.999658
1.18283
1.37125
1.55953
1.74232
1.91471
2.07259
2.21345
2.33649
2.44263
2.53412
2.61379
2.68337
2.74251
2.78923
2.81914
2.82622
2.8047
2.75084
2.66376
2.54549
2.40024
2.23362
2.05341
1.86697
1.68057
1.5013
1.33606
1.19069
1.06899
0.971944
0.897461
0.840873
0.795964
0.756302
0.716465
0.673275
0.625536
0.573326
0.518002
0.461911
0.408047
0.35974
0.320233
0.292268
0.277659
0.276922
0.289055
0.311517
0.340471
0.371232
0.398151
0.415636
0.41956
0.407823
0.380733
0.340952
0.293018
0.242545
0.195264
0.156159
0.128143
0.11215
0.108239
0.115645
0.133056
0.157796
0.183814
0.203017
0.20829
0.195808
0.166824
0.128005
0.0898567
0.0635704
0.057476
0.073671
0.106279
0.149035
0.197167
0.246673
0.295309
0.342907
0.390991
0.441889
0.497627
0.559358
0.626316
0.694068
0.753089
0.791843
0.799554
0.768871
0.697959
0.591506
0.460349
0.319784
0.187002
0.0779587
0
-0.0655693
-0.0997978
-0.102091
-0.0738541
-0.0186829
0.0579437
0.149161
0.249614
0.339969
0.431197
0.973424
2.31074
4.47745
7.00529
8.98278
9.4218
7.77065
4.27233
-0.079158
-3.98941
-6.46023
-7.18172
-6.51948
-5.17325
-3.77127
-2.64358
-1.84413
-1.3039
-0.971394
-0.823714
-0.692292
-0.568283
-0.452198
-0.349165
-0.264939
-0.204115
-0.16954
-0.160819
-0.173401
-0.19877
-0.225883
-0.243524
-0.242867
-0.220467
-0.17898
-0.122845
-0.0560951
0.0177322
0.0960648
0.177872
0.263731
0.355405
0.455086
0.564522
0.684266
0.81326
0.948985
1.08792
1.22551
1.3581
1.48403
1.60406
1.72095
1.83827
1.95872
2.08271
2.20761
2.32759
2.43522
2.52344
2.58732
2.62493
2.63709
2.62605
2.594
2.54178
2.46861
2.37288
2.25377
2.11291
1.95559
1.79075
1.62976
1.48407
1.36897
1.29854
1.26429
1.24102
1.19919
1.11625
0.985233
0.817798
0.640396
0.484943
0.377464
0.317412
0.289946
0.289426
0.306038
0.328549
0.347867
0.359109
0.362415
0.362393
0.366382
0.381915
0.414188
0.464203
0.527328
0.597034
0.665578
0.726001
0.77388
0.808205
0.831097
0.846582
0.858833
0.87049
0.88149
0.888464
0.885837
0.867863
0.830815
0.774644
0.703635
0.625912
0.551947
0.492105
0.452811
0.436819
0.44521
0.475743
0.523366
0.58123
0.641997
0.698741
0.746333
0.782036
0.805458
0.817876
0.821124
0.816147
0.801091
0.772902
0.727084
0.659929
0.570987
0.464684
0.350262
0.239807
0.145035
0.0730255
0.029895
0.010144
0
0.000138855
-0.0218765
-0.075499
-0.162817
-0.278905
-0.413881
-0.58544
-0.431197
0.215926
1.49538
3.39457
5.63894
7.6682
8.765
8.3388
6.24017
2.91083
-0.756114
-3.79403
-5.56162
-5.94031
-5.2568
-4.03091
-2.73169
-1.65076
-0.904623
-0.533972
-0.496713
-0.45309
-0.402116
-0.341058
-0.268663
-0.185542
-0.097113
-0.0107178
0.0664551
0.129376
0.176357
0.209044
0.231374
0.24796
0.262685
0.277838
0.294342
0.312671
0.333507
0.358295
0.389467
0.430309
0.484473
0.555014
0.643422
0.750333
0.875032
1.01512
1.16676
1.32522
1.48539
1.6426
1.79323
1.93515
2.06774
2.19164
2.30824
2.41906
2.52507
2.62641
2.72204
2.80974
2.88655
2.94923
2.99457
3.01975
3.02253
3.00125
2.95481
2.88268
2.78501
2.66366
2.52212
2.36467
2.19652
2.02392
1.85378
1.69287
1.54697
1.42019
1.31446
1.22961
1.16367
1.11356
1.07583
1.04736
1.0258
1.00973
0.998626
0.992494
0.991664
0.996475
1.00685
1.02252
1.04327
1.06909
1.10023
1.13699
1.17952
1.22764
1.27919
1.33099
1.37944
1.42138
1.45471
1.4785
1.49276
1.49785
1.49414
1.48281
1.46446
1.43979
1.40998
1.37659
1.34142
1.30623
1.2726
1.24215
1.21676
1.19927
1.19326
1.20242
1.23001
1.27782
1.34684
1.43479
1.53403
1.63408
1.72403
1.79448
1.83903
1.85502
1.84343
1.80829
1.7556
1.69249
1.62546
1.55933
1.49681
1.43875
1.38464
1.33292
1.28121
1.22666
1.16634
1.09756
1.01805
0.926197
0.82121
0.703261
0.573621
0.434686
0.289845
0.143053
0
-0.0754379
0.281944
0.971751
2.12503
3.87663
6.15203
8.48174
10.041
9.99794
7.99779
4.45611
0.424085
-2.91759
-4.81111
-5.17479
-4.47175
-3.32086
-2.19848
-1.33445
-0.791003
-0.643192
-0.586648
-0.536568
-0.484989
-0.427262
-0.360175
-0.281287
-0.191402
-0.0970566
-0.00825729
0.0648933
0.114961
0.139137
0.139735
0.123157
0.0977577
0.0715553
0.0502357
0.0362717
0.0308571
0.0361923
0.0556961
0.0925224
0.149808
0.229781
0.332814
0.456842
0.597401
0.748373
0.903201
1.05629
1.20444
1.34626
1.48209
1.61353
1.74267
1.87124
1.99995
2.12781
2.25187
2.36769
2.47008
2.55392
2.61468
2.64876
2.65354
2.62734
2.56941
2.4813
2.36421
2.22028
2.0525
1.86454
1.6609
1.44683
1.22688
1.00586
0.788702
0.58024
0.384832
0.206027
0.0463562
-0.0927063
-0.210567
-0.307219
-0.382943
-0.438124
-0.473241
-0.489048
-0.486729
-0.467818
-0.434602
-0.391238
-0.343617
-0.297644
-0.258256
-0.228529
-0.209119
-0.19821
-0.191975
-0.185484
-0.173886
-0.154002
-0.124564
-0.0851246
-0.0378101
0.0124153
0.0593937
0.09762
0.123783
0.137777
0.142826
0.144621
0.149641
0.163193
0.187346
0.221357
0.261517
0.302499
0.339072
0.367647
0.387159
0.3991
0.406834
0.414564
0.426054
0.443745
0.469317
0.503886
0.547839
0.600812
0.66169
0.728703
0.799445
0.870846
0.939666
1.00306
1.05896
1.10628
1.14481
1.17472
1.19599
1.20779
1.20803
1.19347
1.16063
1.10671
1.03077
0.934545
0.822713
0.702293
0.581366
0.467453
0.366754
0.281739
0.21151
0.152646
0.100587
0.0510212
0
-0.0462105
0.357527
1.48313
3.45167
6.0581
8.68384
10.4335
10.5015
8.5987
5.16546
1.20308
-2.19365
-4.31957
-5.06855
-4.79404
-3.99005
-3.01642
-2.04465
-1.14701
-0.433199
-0.215922
-0.183248
-0.18385
-0.2026
-0.226593
-0.243316
-0.243584
-0.226312
-0.195493
-0.154607
-0.106569
-0.0543362
-0.000726509
0.0519878
0.10243
0.150149
0.195488
0.239317
0.282701
0.326645
0.372001
0.41948
0.470116
0.525794
0.589556
0.665444
0.757764
0.869949
1.00338
1.1558
1.32211
1.4966
1.67325
1.84634
2.01126
2.16494
2.30567
2.43261
2.54514
2.64217
2.72195
2.78249
2.82135
2.83655
2.82728
2.79434
2.73995
2.66709
2.57862
2.47675
2.36347
2.2402
2.10767
1.96699
1.82019
1.67026
1.5207
1.37499
1.23598
1.10539
0.983684
0.87044
0.764865
0.666366
0.574937
0.491236
0.41639
0.351602
0.297727
0.255067
0.223349
0.201867
0.189706
0.185941
0.189768
0.200564
0.217799
0.241197
0.270616
0.305979
0.347147
0.393814
0.445384
0.500966
0.559242
0.618725
0.677943
0.735546
0.790273
0.840744
0.884786
0.919206
0.940606
0.945559
0.931636
0.898562
0.849018
0.788718
0.725548
0.667927
0.623317
0.599934
0.596758
0.604837
0.612498
0.610278
0.594763
0.569781
0.544646
0.53053
0.536746
0.563995
0.609041
0.670605
0.74763
0.838747
0.943709
1.06211
1.18855
1.31
1.4107
1.4756
1.4942
1.46302
1.38573
1.27131
1.13155
0.979333
0.827763
0.685234
0.557823
0.451004
0.370605
0.32461
0.318831
0.345401
0.38437
0.413172
0.412516
0.371182
0.288165
0.171649
-0.0409252
0
0.639232
2.08666
4.36086
7.11397
9.59163
10.8372
10.1192
7.35987
3.27255
-0.925383
-4.07782
-5.59075
-5.58173
-4.64359
-3.43291
-2.36607
-1.55865
-0.958062
-0.569198
-0.476097
-0.431442
-0.404722
-0.390114
-0.383985
-0.381728
-0.378313
-0.368996
-0.349992
-0.317987
-0.270098
-0.20443
-0.120413
-0.0191168
0.0967356
0.223098
0.353712
0.48055
0.59588
0.693886
0.771836
0.830693
0.875026
0.912219
0.951144
1.00059
1.0674
1.15458
1.26219
1.38888
1.53213
1.68839
1.85369
2.0241
2.19608
2.36649
2.53224
2.6892
2.83227
2.9569
3.05882
3.13484
3.18344
3.20485
3.20027
3.1709
3.11679
3.03764
2.93407
2.80476
2.64823
2.46473
2.25683
2.02962
1.79053
1.54817
1.31123
1.08766
0.883764
0.70355
0.548418
0.417303
0.307147
0.213613
0.131933
0.0577362
-0.0122366
-0.0796467
-0.144348
-0.204338
-0.256286
-0.29652
-0.321955
-0.331022
-0.323844
-0.303088
-0.273427
-0.240398
-0.209303
-0.184241
-0.167536
-0.159624
-0.159349
-0.164528
-0.172493
-0.180883
-0.18791
-0.19243
-0.193974
-0.192669
-0.189144
-0.184497
-0.180237
-0.17824
-0.180566
-0.189222
-0.205856
-0.231422
-0.265905
-0.308158
-0.355916
-0.405983
-0.454569
-0.497727
-0.531775
-0.55397
-0.562821
-0.557409
-0.53852
-0.508614
-0.470425
-0.426229
-0.377437
-0.324673
-0.268292
-0.208972
-0.148605
-0.0902872
-0.0379686
0.00420647
0.032556
0.044282
0.0376173
0.0118025
-0.0327009
-0.0934584
-0.168231
-0.253653
-0.345308
-0.438012
-0.526279
-0.604852
-0.669409
-0.71702
-0.746437
-0.75818
-0.754412
-0.738547
-0.703221
-0.497297
0
0.964244
2.5341
4.66482
6.97202
8.72952
9.11289
7.61809
4.4088
0.339157
-3.40629
-5.8531
-6.63584
-6.04307
-4.73615
-3.36041
-2.2859
-1.57367
-1.10968
-0.793072
-0.628183
-0.490098
-0.363764
-0.246282
-0.138575
-0.0430758
0.0388288
0.106457
0.161053
0.206816
0.25112
0.303527
0.375127
0.491183
0.658179
0.841542
0.991498
1.06618
1.0517
0.9693
0.866368
0.796114
0.795839
0.856115
0.948896
1.06003
1.18348
1.31569
1.45522
1.60274
1.76027
1.93002
2.11299
2.3079
2.51155
2.71639
2.91099
3.08357
3.22444
3.32785
3.39261
3.42162
3.42037
3.39512
3.35168
3.29502
3.22722
3.14811
3.05627
2.94979
2.82701
2.68721
2.53122
2.36174
2.1833
2.00191
1.82426
1.65685
1.50513
1.37292
1.26213
1.17276
1.10323
1.05081
1.01217
0.983755
0.961901
0.943361
0.925848
0.908333
0.891163
0.875913
0.864956
0.860804
0.865391
0.87931
0.901786
0.930615
0.962267
0.992241
1.0159
1.02937
1.03019
1.01781
0.993796
0.961732
0.926753
0.89482
0.8718
0.862026
0.867924
0.891555
0.932814
0.987224
1.04506
1.09475
1.12611
1.13281
1.1141
1.0751
1.02561
0.977497
0.94157
0.923497
0.922271
0.933908
0.954791
0.980677
1.00752
1.03222
1.05301
1.06944
1.08206
1.09196
1.1002
1.10723
1.11255
1.11423
1.10852
1.09073
1.05586
0.999953
0.921407
0.821941
0.706798
0.583996
0.462792
0.351764
0.255688
0.177251
0.116034
0.0688606
0.0305698
-0.00395813
-0.130607
0
0.773394
2.40251
4.79093
7.42637
9.45885
10.0111
8.59851
5.4243
1.34539
-2.49741
-5.17185
-6.29076
-6.03618
-4.92799
-3.52919
-2.25028
-1.30171
-0.733959
-0.500727
-0.391265
-0.276369
-0.163285
-0.0559383
0.0407471
0.122024
0.18439
0.226508
0.249654
0.257547
0.2556
0.249887
0.246122
0.248452
0.259528
0.281348
0.315521
0.363256
0.425393
0.502346
0.593958
0.699363
0.816922
0.94429
1.07862
1.21689
1.35622
1.49419
1.62908
1.75997
1.88679
2.01029
2.13192
2.25373
2.37815
2.50772
2.64463
2.7903
2.94574
3.11104
3.28103
3.44225
3.57784
3.67174
3.71256
3.69585
3.62406
3.50447
3.34639
3.15906
2.9538
2.74005
2.52429
2.3117
2.107
1.91432
1.73661
1.57523
1.42979
1.29842
1.17841
1.06699
0.962149
0.86333
0.771495
0.688712
0.617696
0.560986
0.520233
0.495786
0.486644
0.490725
0.505319
0.527465
0.554599
0.584995
0.617804
0.653125
0.691888
0.73552
0.785413
0.842287
0.906317
0.97566
1.04496
1.10709
1.15551
1.18627
1.19938
1.19887
1.19152
1.18463
1.18386
1.19105
1.20471
1.22266
1.24238
1.2614
1.27784
1.29054
1.29888
1.30237
1.30057
1.29342
1.28141
1.26613
1.25058
1.23906
1.2364
1.2469
1.27303
1.31403
1.36689
1.42645
1.48545
1.53642
1.5729
1.59028
1.58588
1.55865
1.50856
1.43595
1.34141
1.22695
1.09522
0.948896
0.791676
0.628222
0.463639
0.302713
0.149046
0.00469742
-0.13008
-0.256121
-0.368919
-0.363749
0
0.941744
2.63839
5.05774
7.83127
10.2128
11.2681
10.2899
7.23201
2.86162
-1.52721
-4.70089
-6.02401
-5.64416
-4.27045
-2.74258
-1.65479
-1.19607
-1.20292
-1.07086
-0.909449
-0.723106
-0.504424
-0.272464
-0.0644936
0.0821129
0.142977
0.114845
0.0172802
-0.112051
-0.227791
-0.291013
-0.292372
-0.251466
-0.187942
-0.111768
-0.0326695
0.0421291
0.109225
0.169093
0.225021
0.281487
0.342704
0.41138
0.48898
0.577405
0.678787
0.795546
0.929988
1.08355
1.25605
1.44471
1.64491
1.85144
2.05866
2.26111
2.45382
2.63135
2.78693
2.91489
3.01178
3.07473
3.1021
3.09398
3.05219
2.97964
2.8792
2.75275
2.60257
2.43176
2.24311
2.03979
1.82659
1.61039
1.39953
1.20351
1.03565
0.908318
0.815474
0.742049
0.669384
0.581917
0.47241
0.34377
0.207113
0.0772768
-0.0323856
-0.119287
-0.185242
-0.229543
-0.252764
-0.256492
-0.243118
-0.215162
-0.174572
-0.126778
-0.0805393
-0.0443903
-0.0243744
-0.0220291
-0.0336302
-0.051236
-0.0653206
-0.0680595
-0.056797
-0.0353064
-0.00795345
0.019281
0.0404125
0.0510408
0.0494675
0.0370924
0.0180635
-0.00169449
-0.0158058
-0.019112
-0.0086113
0.0193247
0.0645193
0.116102
0.156385
0.167459
0.136581
0.0605713
-0.0522596
-0.183447
-0.30862
-0.403351
-0.455764
-0.469427
-0.448411
-0.39498
-0.314764
-0.21595
-0.107619
-0.00012989
0.0973747
0.178017
0.237664
0.274768
0.289701
0.283208
0.257061
0.21299
0.1528
0.0787337
-0.00622568
-0.0983533
-0.193495
-0.287498
-0.376632
-0.457497
-0.524985
-0.574937
-0.603186
-0.606343
-0.582976
-0.534692
-0.466632
-0.380015
-0.278637
0
0.835464
2.51645
4.92356
7.467
9.25132
9.44929
7.70974
4.37515
0.369796
-3.19951
-5.51252
-6.32477
-5.94542
-4.96223
-3.91083
-3.0766
-2.49321
-2.07211
-1.7721
-1.65809
-1.60471
-1.57744
-1.56472
-1.56066
-1.55981
-1.55654
-1.54614
-1.52576
-1.4952
-1.45621
-1.41147
-1.3642
-1.31706
-1.27141
-1.22699
-1.18212
-1.13417
-1.08031
-1.01805
-0.94581
-0.862794
-0.768654
-0.6634
-0.547302
-0.42088
-0.28496
-0.140734
0.0102674
0.166303
0.325583
0.48639
0.647088
0.806037
0.961475
1.1113
1.25383
1.38816
1.51465
1.63521
1.75294
1.8721
1.99926
2.12882
2.23853
2.29827
2.28396
2.18867
2.02466
1.81617
1.58812
1.35759
1.13081
0.908399
0.691011
0.48103
0.282527
0.101016
-0.058041
-0.190023
-0.292052
-0.363721
-0.407295
-0.427338
-0.429909
-0.421545
-0.408282
-0.394907
-0.38411
-0.377062
-0.373908
-0.373781
-0.375061
-0.375724
-0.37375
-0.367499
-0.355978
-0.338958
-0.316822
-0.29021
-0.25982
-0.226246
-0.189981
-0.151567
-0.111792
-0.0718395
-0.0332962
0.0022728
0.0338177
0.0612259
0.0854698
0.108372
0.132039
0.158154
0.187371
0.218917
0.251038
0.281197
0.306524
0.324981
0.335884
0.340184
0.340315
0.33964
0.341642
0.349107
0.363594
0.38527
0.413193
0.44645
0.484447
0.527237
0.575486
0.630129
0.691882
0.760716
0.83559
0.914962
0.996755
1.07849
1.15726
1.2298
1.29233
1.3405
1.36994
1.37732
1.36033
1.3184
1.25316
1.1686
1.07074
0.966797
0.863864
0.767366
0.679779
0.601762
0.529842
0.458376
0.381181
0.293132
0.191291
0
-0.103651
0.4112
1.80635
4.13553
7.1135
10.067
12.0569
12.2102
10.1427
6.23604
1.56484
-2.53749
-5.05164
-5.66859
-4.80474
-3.27309
-1.83983
-0.915575
-0.510055
-0.419117
-0.360798
-0.300066
-0.234118
-0.159379
-0.0726814
0.0280823
0.14326
0.271609
0.409693
0.5485
0.675587
0.779239
0.851555
0.890647
0.901313
0.893933
0.882003
0.879081
0.895941
0.936237
0.999019
1.08265
1.18549
1.30541
1.43995
1.58648
1.7422
1.90397
2.0684
2.232
2.39168
2.54532
2.6924
2.83428
2.97418
3.11665
3.26666
3.42837
3.60407
3.79388
3.9964
4.20261
4.39661
4.56159
4.6834
4.75311
4.76773
4.7293
4.64306
4.51542
4.35267
4.16375
3.95558
3.7331
3.50061
3.2626
3.02382
2.78903
2.56321
2.35128
2.15777
1.98643
1.83989
1.71939
1.62471
1.55413
1.50489
1.47338
1.45486
1.44349
1.43299
1.41728
1.39095
1.34987
1.29177
1.21672
1.12678
1.02584
0.923214
0.830122
0.757143
0.712156
0.698941
0.71679
0.761131
0.824779
0.899328
0.976003
1.04758
1.10654
1.14657
1.16251
1.15096
1.11096
1.04437
0.955946
0.852776
0.743244
0.635802
0.537029
0.450824
0.379935
0.326269
0.290302
0.271367
0.267805
0.277142
0.296301
0.321872
0.350499
0.379281
0.406165
0.430216
0.451672
0.471822
0.492724
0.51679
0.546266
0.58274
0.627143
0.679707
0.738106
0.793899
0.834875
0.848721
0.826862
0.7676
0.677131
0.567778
0.454063
0.348386
0.256096
0.176324
0.109778
0.0570732
0.0197212
0
0.0141647
0.050679
0.109639
0.188424
0.29787
0.655117
1.10028
1.94527
3.53937
5.90429
8.50788
10.3739
10.538
8.59156
4.95965
0.723192
-2.90075
-5.09255
-5.67908
-5.02428
-3.7173
-2.2841
-1.05396
-0.172324
0.317079
0.310091
0.273883
0.238593
0.211372
0.198614
0.204678
0.229532
0.270045
0.323025
0.385242
0.453006
0.52201
0.587318
0.644317
0.689391
0.720599
0.738308
0.745501
0.747572
0.7515
0.764543
0.792757
0.838698
0.902283
0.981837
1.07401
1.17477
1.28042
1.38835
1.49733
1.60723
1.71856
1.83191
1.94758
2.06557
2.18582
2.30853
2.43425
2.56402
2.6995
2.8403
2.97889
3.10192
3.19393
3.24236
3.2416
3.19405
3.10799
2.99347
2.85816
2.70799
2.54606
2.37369
2.19167
2.00121
1.80468
1.60578
1.40922
1.22013
1.04333
0.882656
0.74045
0.617351
0.51237
0.423261
0.347076
0.280853
0.222277
0.170222
0.125003
0.0883041
0.0627358
0.0515282
0.0588478
0.0886147
0.139452
0.201791
0.263174
0.311598
0.338848
0.342674
0.32711
0.300884
0.274516
0.257039
0.252017
0.258401
0.273553
0.294682
0.31855
0.342281
0.363895
0.382517
0.398251
0.411819
0.424142
0.435909
0.447357
0.458263
0.46809
0.476309
0.482787
0.488156
0.494037
0.502979
0.518087
0.542362
0.578241
0.627562
0.689677
0.759334
0.828299
0.888059
0.931752
0.955334
0.957567
0.939005
0.900652
0.843106
0.768166
0.679227
0.578748
0.47112
0.362493
0.259732
0.169122
0.0968071
0.0428276
0
-0.0424767
-0.095385
-0.165867
-0.255096
-0.370026
-0.591815
-0.281258
0.868613
2.94462
5.65146
8.28715
9.93058
9.81845
7.7311
4.15527
0.10282
-3.32995
-5.40873
-5.97615
-5.37269
-4.17188
-2.91828
-1.97469
-1.48301
-1.37844
-1.23331
-1.07822
-0.91851
-0.756081
-0.59507
-0.441527
-0.302345
-0.184068
-0.0919846
-0.0295372
0.00185852
0.00270691
-0.0248024
-0.0769981
-0.148854
-0.233863
-0.325256
-0.414032
-0.490675
-0.546494
-0.57465
-0.570888
-0.533809
-0.464707
-0.367111
-0.246229
-0.109441
0.0361828
0.185069
0.332843
0.476531
0.614844
147
322
490
656
824
995
1159
1318
1479
1643
1805
1963
2116
2272
2432
2594
2754
2909
3065
3226
3389
3551
3704
3495
3634
0
0
0
0
0
0
0
0
0
0
0
0
0
0
0
0
0
0
0
0
0
0
0
0
0
0
0
0
0
0
0
0
0
0
0
0
0
0
0
0
0
0
0
0
0
0
0
0
0
0
0
0
0
0
0
0
0
0
0
0
0
0
0
0
0
0
0
0
0
0
0
0
0
0
0
0
0
0
0
0
0
0
0
0
0
0
0
0
0
0
0
0
0
0
0
0
0
0
0
0
0
0
0
0
0
0
0
0
0
0
0
0
0
0
0
0
0
0
0
0
0
0
0
0
0
0
0
0
0
0
0
0
0
0
0
0
0
0
0
0
0
0
0
0
0
0
0
0
0
0
0
0
0
0
0
0
0
0
0
0
0
0
0
0
0
0
0
0
0
0
0
0
0
0
0
0
0
0
0
0
0
0
0
0
0
0
0
0
0
0
0
0
0
0
0
0
0
0
0
0
0
0
0
0
0
0
0
0
0
0
0
0
0
0
0
0
0
0
0
0
0
0
0
0
0
0
0
0
0
0
0
0
0
0
0
0
0
0
0
0
0
0
0
0
0
0
0
0
0
0
0
0
0
0
0
0
0
0
0
0
0
0
0
0
0
0
0
0
0
0
0
0
0
0
0
0
0
0
0
0
0
0
0
0
0
0
0
0
0
0
0
0
0
0
0
0
0
0
0
0
0
0
0
0
0
0
0
0
0
0
0
0
0
0
0
0
0
0
0
0
0
0
0
0
0
0
0
0
0
0
0
0
0
0
0
0
0
0
0
0
0
0
0
0
0
0
0
0
0
0
0
0
0
0
0
0
0
0
0
0
0
0
0
0
0
0
0
0
0
0
0
0
0
0
0
0
0
0
0
0
0
0
0
0
0
0
0
0
0
0
0
0
0
0
0
0
0
0
0
0
0
0
0
0
0
0
0
0
0
0
0
0
0
0
0
0
0
0
0
0
0
0
0
0
0
0
0
0
0
0
0
0
0
0
0
0
0
0
0
0
0
0
0
0
0
0
0
0
0
0
0
0
0
0
0
0
0
0
0
0
0
0
0
0
0
0
0
0
0
0
0
0
0
0
0
0
0
0
0
0
0
0
0
0
0
0
0
0
0
0
0
0
0
0
0
0
0
0
0
0
0
0
0
0
0
0
0
0
0
0
0
0
0
0
0
0
0
0
0
0
0
0
0
0
0
0
0
0
0
0
0
0
0
0
0
0
0
0
0
0
0
0
0
0
0
0
0
0
0
0
0
0
0
0
0
0
0
0
0
0
0
0
0
0
0
0
0
0
0
0
0
0
0
0
0
0
0
0
0
0
0
0
0
0
0
0
0
0
0
0
0
0
0
0
0
0
0
0
0
0
0
0
0
0
0
0
0
0
0
0
0
0
0
0
0
0
0
0
0
0
0
0
0
0
0
0
0
0
0
0
0
0
0
0
0
0
0
0
0
0
0
0
0
0
0
0
0
0
0
0
0
0
0
0
0
0
0
0
0
0
0
0
0
0
0
0
0
0
0
0
0
0
0
0
0
0
0
0
0
0
0
0
0
0
0
0
0
0
0
0
0
0
0
0
0
0
0
0
0
0
0
0
0
0
0
0
0
0
0
0
0
0
0
0
0
0
0
0
0
0
0
0
0
0
0
0
0
0
0
0
0
0
0
0
0
0
0
0
0
0
0
0
0
0
0
0
0
0
0
0
0
0
0
0
0
0
0
0
0
0
0
0
0
0
0
0
0
0
0
0
0
0
0
0
0
0
0
0
0
0
0
0
0
0
0
0
0
0
0
0
0
0
0
0
0
0
0
0
0
0
0
0
0
0
0
0
0
0
0
0
0
0
0
0
0
0
0
0
0
0
0
0
0
0
0
0
0
0
0
0
0
0
0
0
0
0
0
0
0
0
0
0
0
0
0
0
0
0
0
0
0
0
0
0
0
0
0
0
0
0
0
0
0
0
0
0
0
0
0
0
0
0
0
0
0
0
0
0
0
0
0
0
0
0
0
0
0
0
0
0
0
0
0
0
0
0
0
0
0
0
0
0
0
0
0
0
0
0
0
0
0
0
0
0
0
0
0
0
0
0
0
0
0
0
0
0
0
0
0
0
0
0
0
0
0
0
0
0
0
0
0
0
0
0
0
0
0
0
0
0
0
0
0
0
0
0
0
0
0
0
0
0
0
0
0
0
0
0
0
0
0
0
0
0
0
0
0
0
0
0
0
0
0
0
0
0
0
0
0
0
0
0
0
0
0
0
0
0
0
0
0
0
0
0
0
0
0
0
0
0
0
0
0
0
0
0
0
0
0
0
0
0
0
0
0
0
0
0
0
0
0
0
0
0
0
0
0
0
0
0
0
0
0
0
0
0
0
0
0
0
0
0
0
0
0
0
0
0
0
0
0
0
0
0
0
0
0
0
0
0
0
0
0
0
0
0
0
0
0
0
0
0
0
0
0
0
0
0
0
0
0
0
0
0
0
0
0
0
0
0
0
0
0
0
0
0
0
0
0
0
0
0
0
0
0
0
0
0
0
0
0
0
0
0
0
0
0
0
0
0
0
0
0
0
0
0
0
0
0
0
0
0
0
0
0
0
0
0
0
0
0
0
0
0
0
0
0
0
0
0
0
0
0
0
0
0
0
0
0
0
0
0
0
0
0
0
0
0
0
0
0
0
0
0
0
0
0
0
0
0
0
0
0
0
0
0
0
0
0
0
0
0
0
0
0
0
0
0
0
0
0
0
0
0
0
0
0
0
0
0
0
0
0
0
0
0
0
0
0
0
0
0
0
0
0
0
0
0
0
0
0
0
0
0
0
0
0
0
0
0
0
0
0
0
0
0
0
0
0
0
0
0
0
0
0
0
0
0
0
0
0
0
0
0
0
0
0
0
0
0
0
0
0
0
0
0
0
0
0
0
0
0
0
0
0
0
0
0
0
0
0
0
0
0
0
0
0
0
0
0
0
0
0
0
0
0
0
0
0
0
0
0
0
0
0
0
0
0
0
0
0
0
0
0
0
0
0
0
0
0
0
0
0
0
0
0
0
0
0
0
0
0
0
0
0
0
0
0
0
0
0
0
0
0
0
0
0
0
0
0
0
0
0
0
0
0
0
0
0
0
0
0
0
0
0
0
0
0
0
0
0
0
0
0
0
0
0
0
0
0
0
0
0
0
0
0
0
0
0
0
0
0
0
0
0
0
0
0
0
0
0
0
0
0
0
0
0
0
0
0
0
0
0
0
0
0
0
0
0
0
0
0
0
0
0
0
0
0
0
0
0
0
0
0
0
0
0
0
0
0
0
0
0
0
0
0
0
0
0
0
0
0
0
0
0
0
0
0
0
0
0
0
0
0
0
0
0
0
0
0
0
0
0
0
0
0
0
0
0
0
0
0
0
0
0
0
0
0
0
0
0
0
0
0
0
0
0
0
0
0
0
0
0
0
0
0
0
0
0
0
0
0
0
0
0
0
0
0
0
0
0
0
0
0
0
0
0
0
0
0
0
0
0
0
0
0
0
0
0
0
0
0
0
0
0
0
0
0
0
0
0
0
0
0
0
0
0
0
0
0
0
0
0
0
0
0
0
0
0
0
0
0
0
0
0
0
0
0
0
0
0
0
0
0
0
0
0
0
0
0
0
0
0
0
0
0
0
0
0
0
0
0
0
0
0
0
0
0
0
0
0
0
0
0
0
0
0
0
0
0
0
0
0
0
0
0
0
0
0
0
0
0
0
0
0
0
0
0
0
0
0
0
0
0
0
0
0
0
0
0
0
0
0
0
0
0
0
0
0
0
0
0
0
0
0
0
0
0
0
0
0
0
0
0
0
0
0
0
0
0
0
0
0
0
0
0
0
0
0
0
0
0
0
0
0
0
0
0
0
0
0
0
0
0
0
0
0
0
0
0
0
0
0
0
0
0
0
0
0
0
0
0
0
0
0
0
0
0
0
0
0
0
0
0
0
0
0
0
0
0
0
0
0
0
0
0
0
0
0
0
0
0
0
0
0
0
0
0
0
0
0
0
0
0
0
0
0
0
0
0
0
0
0
0
0
0
0
0
0
0
0
0
0
0
0
0
0
0
0
0
0
0
0
0
0
0
0
0
0
0
0
0
0
0
0
0
0
0
0
0
0
0
0
0
0
0
0
0
0
0
0
0
0
0
0
0
0
0
0
0
0
0
0
0
0
0
0
0
0
0
0
0
0
0
0
0
0
0
0
0
0
0
0
0
0
0
0
0
0
0
0
0
0
0
0
0
0
0
0
0
0
0
0
0
0
0
0
0
0
0
0
0
0
0
0
0
0
0
0
0
0
0
0
0
0
0
0
0
0
0
0
0
0
0
0
0
0
0
0
0
0
0
0
0
0
0
0
0
0
0
0
0
0
0
0
0
0
0
0
0
0
0
0
0
0
0
0
0
0
0
0
0
0
0
0
0
0
0
0
0
0
0
0
0
0
0
0
0
0
0
0
0
0
0
0
0
0
0
0
0
0
0
0
0
0
0
0
0
0
0
0
0
0
0
0
0
0
0
0
0
0
0
0
0
0
0
0
0
0
0
0
0
0
0
0
0
0
0
0
0
0
0
0
0
0
0
0
0
0
0
0
0
0
0
0
0
0
0
0
0
0
0
0
0
0
0
0
0
0
0
0
0
0
0
0
0
0
0
0
0
0
0
0
0
0
0
0
0
0
0
0
0
0
0
0
0
0
0
0
0
0
0
0
0
0
0
0
0
0
0
0
0
0
0
0
0
0
0
0
0
0
0
0
0
0
0
0
0
0
0
0
0
0
0
0
0
0
0
0
0
0
0
0
0
0
0
0
0
0
0
0
0
0
0
0
0
0
0
0
0
0
0
0
0
0
0
0
0
0
0
0
0
0
0
0
0
0
0
0
0
0
0
0
0
0
0
0
0
0
0
0
0
0
0
0
0
0
0
0
0
0
0
0
0
0
0
0
0
0
0
0
0
0
0
0
0
0
0
0
0
0
0
0
0
0
0
0
0
0
0
0
0
0
0
0
0
0
0
0
0
0
0
0
0
0
0
0
0
0
0
0
0
0
0
0
0
0
0
0
0
0
0
0
0
0
0
0
0
0
0
0
0
0
0
0
0
0
0
0
0
0
0
0
0
0
0
0
0
0
0
0
0
0
0
0
0
0
0
0
0
0
0
0
0
0
0
0
0
0
0
0
0
0
0
0
0
0
0
0
0
0
0
0
0
0
0
0
0
0
0
0
0
0
0
0
0
0
0
0
0
0
0
0
0
0
0
0
0
0
0
0
0
0
0
0
0
0
0
0
0
0
0
0
0
0
0
0
0
0
0
0
0
0
0
0
0
0
0
0
0
0
0
0
0
0
0
0
0
0
0
0
0
0
0
0
0
0
0
0
0
0
0
0
0
0
0
0
0
0
0
0
0
0
0
0
0
0
0
0
0
0
0
0
0
0
0
0
0
0
0
0
0
0
0
0
0
0
0
0
0
0
0
0
0
0
0
0
0
0
0
0
0
0
0
0
0
0
0
0
0
0
0
0
0
0
0
0
0
0
0
0
0
0
0
0
0
0
0
0
0
0
0
0
0
0
0
0
0
0
0
0
0
0
0
0
0
0
0
0
0
0
0
0
0
0
0
0
0
0
0
0
0
0
0
0
0
0
0
0
0
0
0
0
0
0
0
0
0
0
0
0
0
0
0
0
0
0
0
0
0
0
0
0
0
0
0
0
0
0
0
0
0
0
0
0
0
0
0
0
0
0
0
0
0
0
0
0
0
0
0
0
0
0
0
0
0
0
0
0
0
0
0
0
0
0
0
0
0
0
0
0
0
0
0
0
0
0
0
0
0
0
0
0
0
0
0
0
0
0
0
0
0
0
0
0
0
0
0
0
0
0
0
0
0
0
0
0
0
0
0
0
0
0
0
0
0
0
0
0
0
0
0
0
0
0
0
0
0
0
0
0
0
0
0
0
0
0
0
0
0
0
0
0
0
0
0
0
0
0
0
0
0
0
0
0
0
0
0
0
0
0
0
0
0
0
0
0
0
0
0
0
0
0
0
0
0
0
0
0
0
0
0
0
0
0
0
0
0
0
0
0
0
0
0
0
0
0
0
0
0
0
0
0
0
0
0
0
0
0
0
0
0
0
0
0
0
0
0
0
0
0
0
0
0
0
0
0
0
0
0
0
0
0
0
0
0
0
0
0
0
0
0
0
0
0
0
0
0
0
0
0
0
0
0
0
0
0
0
0
0
0
0
0
0
0
0
0
0
0
0
0
0
0
0
0
0
0
0
0
0
0
0
0
0
0
0
0
0
0
0
0
0
0
0
0
0
0
0
0
0
0
0
0
0
0
0
0
0
0
0
0
0
0
0
0
0
0
0
0
0
0
0
0
0
0
0
0
0
0
0
0
0
0
0
0
0
0
0
0
0
0
0
0
0
0
0
0
0
0
0
0
0
0
0
0
0
0
0
0
0
0
0
0
0
0
0
0
0
0
0
0
0
0
0
0
0
0
0
0
0
0
0
0
0
0
0
0
0
0
0
0
0
0
0
0
0
0
0
0
0
0
0
0
0
0
0
0
0
0
0
0
0
0
0
0
0
0
0
0
0
0
0
0
0
0
0
0
0
0
0
0
0
0
0
0
0
0
0
0
0
0
0
0
0
0
0
0
0
0
0
0
0
0
0
0
0
0
0
0
0
0
0
0
0
0
0
0
0
0
0
0
0
0
0
0
0
0
0
0
0
0
0
0
0
0
0
0
0
0
0
0
0
0
0
0
0
0
0
0
0
0
0
0
0
0
0
0
0
0
0
0
0
0
0
0
0
0
0
0
0
0
0
0
0
0
0
0
0
0
0
0
0
0
0
0
0
0
0
0
0
0
0
0
0
0
0
0
0
0
0
0
0
0
0
0
0
0
0
0
0
0
0
0
0
0
0
0
0
0
0
0
0
0
0
0
0
0
0
0
0
0
0
0
0
0
0
0
0
0
0
0
0
0
0
0
0
0
0
0
0
0
0
0
0
0
0
0
0
0
0
0
0
0
0
0
0
0
0
0
0
0
0
0
0
0
0
0
0
0
0
0
0
0
0
0
0
0
0
0
0
0
0
0
0
0
0
0
0
0
0
0
0
0
0
0
0
0
0
0
0
0
0
0
0
0
0
0
0
0
0
0
0
0
0
0
0
0
0
0
0
0
0
0
0
0
0
0
0
0
0
0
0
0
0
0
0
0
0
0
0
0
0
0
0
0
0
0
0
0
0
0
0
0
0
0
0
0
0
0
0
0
0
0
0
0
0
0
0
0
0
0
0
0
0
0
0
0
0
0
0
0
0
0
0
0
0
0
0
0
0
0
0
0
0
0
0
0
0
0
0
0
0
0
0
0
0
0
0
0
0
0
0
0
0
0
0
0
0
0
0
0
0
0
0
0
0
0
0
0
0
0
0
0
0
0
0
0
0
0
0
0
0
0
0
0
0
0
0
0
0
0
0
0
0
0
0
0
0
0
0
0
0
0
0
0
0
0
0
0
0
0
0
0
0
0
0
0
0
0
0
0
0
0
0
0
0
0
0
0
0
0
0
0
0
0
0
0
0
0
0
0
0
0
0
0
0
0
0
0
0
0
0
0
0
0
0
0
0
0
0
0
0
0
0
0
0
0
0
0
0
0
0
0
0
0
0
0
0
0
0
0
0
0
0
0
0
0
0
0
0
0
0
0
0
0
0
0
0
0
0
0
0
0
0
0
0
0
0
0
0
0
0
0
0
0
0
0
0
0
0
0
0
0
0
0
0
0
0
0
0
0
0
0
0
0
0
0
0
0
0
0
0
0
0
0
0
0
0
0
0
0
0
0
0
0
0
0
0
0
0
0
0
0
0
0
0
0
0
0
0
0
0
0
0
0
0
0
0
0
0
0
0
0
0
0
0
0
0
0
0
0
0
0
0
0
0
0
0
0
0
0
0
0
0
0
0
0
0
0
0
0
0
0
0
0
0
0
0
0
0
0
0
0
0
0
0
0
0
0
0
0
0
0
0
0
0
0
0
0
0
0
0
0
0
0
0
0
0
0
0
0
0
0
0
0
0
0
0
0
0
0
0
0
0
0
0
0
0
0
0
0
0
0
0
0
0
0
0
0
0
0
0
0
0
0
0
0
0
0
0
0
0
0
0
0
0
0
0
0
0
0
0
0
0
0
0
0
0
0
0
0
0
0
0
0
0
0
0
0
0
0
0
0
0
0
0
0
0
0
0
0
0
0
0
0
0
0
0
0
0
0
0
0
0
0
0
0
0
0
0
0
0
0
0
0
0
0
0
0
0
0
0
0
0
0
0
0
0
0
0
0
0
0
0
0
0
0
0
0
0
0
0
0
0
0
0
0
0
0
0
0
0
0
0
0
0
0
0
