0.665786
0.646568
0.632091
0.624411
0.6241
0.630933
0.643932
0.661323
0.680821
0.699955
0.716162
0.727148
0.731591
0.729468
0.722423
0.713803
0.709264
0.715416
0.738295
0.781783
0.846472
0.929437
1.02504
1.1265
1.22774
1.32545
1.41852
1.50697
1.59189
1.67551
1.7599
1.84453
1.92303
1.98358
2.01182
1.99387
1.92029
1.79072
1.6173
1.42419
1.24165
1.09626
0.987798
0.902281
0.836186
0.784821
0.742426
0.703263
0.66248
0.61664
0.563843
0.503561
0.43605
0.360535
0.27899
0.193759
0
-0.011763
0.620994
2.39306
5.51518
9.61106
13.6691
16.365
16.6474
14.2723
9.96079
5.06999
0.968855
-1.5215
-2.3349
-1.97321
-1.11477
-0.276195
0.323574
0.700277
0.948143
1.039
1.1053
1.16069
1.20493
1.23999
1.26954
1.29801
1.3294
1.36635
1.40903
1.45619
1.5062
1.55733
1.60817
1.65817
1.70779
1.75853
1.81256
1.87235
1.94008
2.01725
2.10435
2.20075
2.30492
2.41465
2.5274
2.64064
2.75225
2.86077
2.96565
3.06724
3.16674
3.26598
3.36714
3.47243
3.58386
3.70302
3.83109
3.96874
4.11622
4.27328
4.43918
4.61253
4.79129
4.97266
5.15322
5.32849
5.49266
5.63887
5.76056
5.85333
5.9137
5.93899
5.92714
5.87674
5.78713
5.65882
5.49378
5.29594
5.07239
4.83082
4.57774
4.31788
4.05447
3.78999
3.52656
3.26629
3.01162
2.76554
2.53147
2.31295
2.1131
1.93413
1.77697
1.64114
1.52499
1.42597
1.34121
1.2679
1.20375
1.14721
1.09778
1.05564
1.02141
0.995907
0.97974
0.972951
0.974809
0.98379
0.997887
1.01472
1.03198
1.04791
1.06166
1.07322
1.08324
1.09263
1.10212
1.1119
1.12123
1.12878
1.13306
1.13297
1.12809
1.11846
1.10425
1.08522
1.06068
1.02989
0.992335
0.948617
0.900943
0.853092
0.809841
0.776011
0.75462
0.746205
0.751903
0.771795
0.802989
0.838011
0.868348
0.886832
0.88918
0.874866
0.84707
0.811699
0.775726
0.745326
0.723147
0.708458
0.699842
0.695471
0.692321
0.687316
0.678181
0.664088
0.645946
0.626227
0.608366
0.595888
0.591542
0.596135
0.609713
0.631392
0.659964
0.694553
0.734882
0.781689
0.836243
0.899822
0.97312
1.05569
1.14581
1.24114
1.33899
1.43658
1.53125
1.62015
1.69966
1.76568
1.81528
1.84536
1.85318
1.83697
1.79643
1.73275
1.6483
1.54617
1.43048
1.30685
1.17995
1.0538
0.932398
0.819605
0.719054
0.634032
0.565784
0.511805
0.467282
0.426581
0.384683
0.338384
0.286917
0.23042
0
-0.030829
0.564841
2.25465
5.23816
9.14176
12.9691
15.4252
15.5009
12.9939
8.64738
3.81264
-0.16758
-2.50125
-3.14225
-2.6052
-1.58226
-0.611773
0.0591715
0.422194
0.546407
0.616889
0.686629
0.757171
0.829547
0.904402
0.982003
1.06232
1.14518
1.23033
1.31755
1.40664
1.4973
1.58913
1.68155
1.77387
1.86532
1.95534
2.04362
2.13032
2.21601
2.30166
2.38833
2.477
2.56828
2.66229
2.75861
2.8565
2.95515
3.05405
3.1533
3.25382
3.3574
3.46657
3.58433
3.71375
3.85752
4.01758
4.1947
4.38822
4.59597
4.81433
5.03843
5.26265
5.48115
5.68844
5.87999
6.05253
6.20451
6.33592
6.44807
6.5427
6.62036
6.67969
6.71717
6.72827
6.70524
6.6385
6.51903
6.34082
6.10293
5.81057
5.47498
5.11192
4.74094
4.37552
4.02578
3.69993
3.40356
3.13964
2.90871
2.70948
2.53937
2.39515
2.27329
2.17024
2.08255
2.00713
1.94052
1.87859
1.81775
1.75541
1.69056
1.62392
1.55777
1.49525
1.4396
1.3931
1.35699
1.33123
1.31484
1.30641
1.30453
1.30802
1.31602
1.32779
1.3426
1.35972
1.37863
1.39911
1.42127
1.44545
1.47209
1.5014
1.53173
1.55842
1.57515
1.57573
1.55615
1.51599
1.45878
1.391
1.32039
1.25415
1.19598
1.14674
1.10746
1.07862
1.0599
1.05018
1.04788
1.05054
1.05528
1.05906
1.05895
1.05216
1.0362
1.00885
0.968374
0.913843
0.845699
0.762159
0.666036
0.570742
0.492251
0.444538
0.435149
0.462725
0.517483
0.584406
0.647886
0.697632
0.732065
0.751072
0.758215
0.759655
0.762684
0.774158
0.798098
0.835404
0.885121
0.945246
1.0129
1.08454
1.15631
1.22464
1.28661
1.34009
1.38373
1.41653
1.43725
1.44487
1.43845
1.41698
1.37963
1.3261
1.2569
1.1735
1.07828
0.974323
0.865403
0.755063
0.646427
0.542223
0.444548
0.354677
0.272925
0.198585
0.129995
0.0647612
0
-0.0608356
-0.126592
-0.199255
-0.28147
-0.372229
-0.746225
-0.972861
-0.522826
1.10113
4.11339
8.15443
12.2278
15.0014
15.3928
13.128
8.92008
4.13593
0.146255
-2.24956
-3.01699
-2.67026
-1.86711
-1.09068
-0.54634
-0.237999
-0.114944
-0.0571671
-0.00211735
0.0522724
0.106372
0.160344
0.214294
0.268426
0.323197
0.379412
0.438161
0.500611
0.567702
0.639838
0.716714
0.797383
0.880445
0.964473
1.04838
1.13166
1.21441
1.2971
1.38036
1.46469
1.55037
1.63759
1.72667
1.81828
1.91356
2.01417
2.1221
2.23937
2.36769
2.50805
2.66047
2.82387
2.99604
3.17399
3.35436
3.53398
3.71045
3.88269
4.05113
4.21764
4.38512
4.55679
4.73542
4.92422
5.12664
5.33829
5.5428
5.72039
5.85465
5.93612
5.96276
5.93794
5.86706
5.75418
5.59972
5.40427
5.17223
4.91079
4.62747
4.32909
4.02239
3.71474
3.41401
3.12758
2.86132
2.61895
2.40174
2.20892
2.03836
1.88746
1.75406
1.63692
1.53584
1.45148
1.38581
1.34254
1.32376
1.32394
1.33425
1.34536
1.34986
1.34398
1.3282
1.3064
1.28428
1.26734
1.25813
1.25643
1.26132
1.2718
1.28621
1.30241
1.31835
1.33251
1.3441
1.35311
1.36023
1.36659
1.37341
1.38172
1.39195
1.40395
1.41695
1.42956
1.4397
1.44497
1.44303
1.43208
1.41127
1.38104
1.34314
1.30039
1.2561
1.21342
1.17455
1.14086
1.11223
1.08749
1.06503
1.04342
1.02192
1.00075
0.980903
0.963772
0.950564
0.941706
0.937111
0.935579
0.935247
0.934113
0.930541
0.923596
0.913126
0.899588
0.883735
0.866298
0.847879
0.828925
0.809965
0.79198
0.776808
0.767258
0.766629
0.778229
0.804598
0.846806
0.904024
0.973523
1.05115
1.1322
1.21245
1.28937
1.36229
1.43208
1.50106
1.57289
1.65529
1.76733
1.92917
2.1147
2.28095
2.3859
2.40416
2.33498
2.19947
2.02903
1.85212
1.6865
1.53244
1.38612
1.24592
1.11205
0.985869
0.869585
0.7658
0.677491
0.610089
0.575107
0.584843
0.629991
0.684931
0.72055
0.713265
0.651909
0.539857
0.300486
0
0.199824
1.43224
4.05861
7.94149
12.2865
15.8345
17.3633
16.255
12.8085
8.11301
3.55558
0.238634
-1.38843
-1.53732
-0.804814
0.169877
0.976205
1.45319
1.46984
1.46016
1.44842
1.44045
1.44167
1.45575
1.48268
1.51938
1.56303
1.61107
1.66085
1.70989
1.7561
1.79795
1.83458
1.86592
1.89262
1.91611
1.93845
1.96221
1.99016
2.02496
2.06884
2.12327
2.18881
2.26525
2.35184
2.44748
2.55088
2.66078
2.77612
2.89612
3.02035
3.14865
3.28101
3.41732
3.55723
3.69993
3.84415
3.9883
4.13084
4.27067
4.40752
4.54217
4.67638
4.81252
4.95298
5.09954
5.25312
5.41424
5.57936
5.73833
5.87881
5.98962
6.06277
6.09383
6.08099
6.02344
5.92028
5.77034
5.57591
5.34263
5.07625
4.78342
4.47289
4.15371
3.83282
3.51623
3.20955
2.91762
2.64436
2.39268
2.16463
1.96157
1.78434
1.63352
1.50913
1.41217
1.34968
1.33101
1.34595
1.37426
1.39519
1.39377
1.36541
1.31654
1.26092
1.21328
1.18326
1.16704
1.15824
1.15256
1.14476
1.13036
1.10693
1.07472
1.0367
0.99779
0.963547
0.938655
0.925131
0.921842
0.927119
0.938218
0.952153
0.966427
0.97952
0.990718
0.999795
1.0064
1.00966
1.00833
1.00085
0.986072
0.963948
0.936
0.905221
0.875454
0.850414
0.832587
0.82202
0.817973
0.818631
0.821566
0.824355
0.825177
0.822947
0.81738
0.80886
0.798215
0.786502
0.774766
0.763986
0.755095
0.749015
0.746679
0.748985
0.756665
0.77007
0.788971
0.81282
0.839859
0.867444
0.892883
0.914071
0.929983
0.940839
0.947928
0.953171
0.958653
0.966191
0.977135
0.992897
1.01497
1.04499
1.08472
1.13577
1.1993
1.27566
1.36413
1.463
1.57002
1.68269
1.7984
1.91419
2.02569
2.12675
2.21062
2.26995
2.29718
2.28606
2.23339
2.14048
2.01379
1.86454
1.70687
1.55438
1.41441
1.28817
1.17505
1.07442
0.984257
0.901804
0.824123
0.748551
0.672905
0.595482
0.514942
0.430368
0.340812
0.245117
0.143095
0
-0.142493
0.135392
1.28004
3.65679
7.2474
11.4276
15.0406
16.8241
16.0086
12.7427
8.06472
3.41803
-0.0094698
-1.73591
-2.00833
-1.46671
-0.720934
-0.0996359
0.339649
0.609279
0.649083
0.668028
0.675523
0.676152
0.677297
0.687065
0.711902
0.753092
0.80683
0.869688
0.93895
1.01178
1.08541
1.15748
1.22619
1.29058
1.3506
1.40711
1.46184
1.51715
1.57569
1.63995
1.71182
1.79223
1.88099
1.97704
2.07875
2.18423
2.29178
2.40009
2.50843
2.61653
2.72446
2.83248
2.94092
3.0502
3.16089
3.27385
3.39027
3.5117
3.63994
3.77689
3.92429
4.08338
4.25462
4.43737
4.6301
4.83121
5.03536
5.22964
5.39902
5.53017
5.61393
5.64653
5.62895
5.56488
5.45785
5.30912
5.11819
4.8916
4.6377
4.36319
4.07365
3.77483
3.47309
3.17523
2.88802
2.61766
2.36929
2.14666
1.95185
1.78555
1.64787
1.53687
1.4472
1.37272
1.30753
1.24697
1.18829
1.13091
1.07604
1.02601
0.983091
0.948188
0.921993
0.90384
0.891305
0.880915
0.869416
0.854703
0.83644
0.816155
0.79679
0.781806
0.77414
0.775089
0.78448
0.80062
0.820932
0.842808
0.864441
0.885319
0.906094
0.928318
0.953913
0.984448
1.02172
1.06681
1.11625
1.16117
1.1914
1.19891
1.18101
1.14205
1.09271
1.04696
1.01768
1.01036
1.02784
1.06458
1.1075
1.14202
1.15656
1.14546
1.10986
1.05668
0.996437
0.940725
0.897813
0.870151
0.857567
0.859158
0.873972
0.899953
0.93417
0.973262
1.0139
1.0532
1.08893
1.1195
1.14413
1.1627
1.17575
1.18426
1.18957
1.19321
1.19671
1.20143
1.20852
1.21885
1.23317
1.25224
1.27695
1.30829
1.34723
1.39443
1.44996
1.5131
1.58226
1.6555
1.73079
1.80613
1.87974
1.95004
2.01536
2.07347
2.12141
2.15606
2.17367
2.17029
2.14249
2.08804
2.00657
1.89987
1.77198
1.62895
1.47876
1.3287
1.18438
1.05034
0.930158
0.826499
0.738908
0.664169
0.597799
0.535099
0.472093
0.406109
0.33568
0.260146
0.180608
0.0986518
0
-0.000962162
0.503987
2.00363
4.75803
8.49331
12.3299
15.0483
15.6068
13.6437
9.68059
4.90056
0.625464
-2.21959
-3.3813
-3.20067
-2.30034
-1.25498
-0.404068
0.155169
0.471777
0.633626
0.697045
0.760621
0.824551
0.888596
0.952125
1.01377
1.07184
1.12484
1.17207
1.21415
1.25298
1.29139
1.33234
1.37818
1.4299
1.48687
1.54818
1.61297
1.68047
1.75015
1.82179
1.89536
1.97087
2.04824
2.12725
2.20768
2.28943
2.37274
2.45828
2.54724
2.64115
2.74172
2.85059
2.9691
3.09814
3.23805
3.38866
3.54934
3.71911
3.89674
4.0808
4.26975
4.4619
4.65542
4.84829
5.03806
5.22125
5.39264
5.54521
5.67195
5.76721
5.82534
5.84088
5.80896
5.72592
5.59013
5.40285
5.16873
4.89717
4.60122
4.29229
3.97845
3.66491
3.35601
3.0558
2.76808
2.49641
2.24399
2.01339
1.80628
1.62333
1.46412
1.32734
1.21111
1.11322
1.03147
0.963853
0.908735
0.865146
0.832339
0.809588
0.796365
0.792197
0.79651
0.808502
0.827088
0.850918
0.878469
0.908153
0.938514
0.968388
0.996943
1.02374
1.04871
1.07212
1.09435
1.1157
1.1361
1.15483
1.17049
1.18128
1.18549
1.18214
1.1714
1.15475
1.13461
1.11378
1.09468
1.0786
1.06563
1.05535
1.04687
1.03907
1.03095
1.02183
1.01151
1.00028
0.988955
0.978707
0.970875
0.966708
0.967367
0.973557
0.984533
0.997732
1.00992
1.01814
1.02055
1.01698
1.00871
0.997818
0.98618
0.974626
0.962679
0.949041
0.932378
0.912283
0.890014
0.868724
0.853069
0.848339
0.859391
0.888405
0.936881
1.00439
1.08869
1.18591
1.2909
1.39925
1.50708
1.61138
1.71019
1.80275
1.88883
1.96753
2.03672
2.09274
2.12949
2.13897
2.11432
2.05296
1.95849
1.84042
1.71189
1.58621
1.4714
1.36826
1.27666
1.19657
1.12692
1.06594
1.01154
0.961522
0.913865
0.866594
0.817969
0.766749
0.712345
0.654897
0.594985
0.196735
0
0.4839
2.09709
4.99816
8.81185
12.5959
15.1214
15.3944
13.1505
9.02358
4.26716
0.186013
-2.39018
-3.31903
-2.99957
-2.04037
-0.969511
-0.100448
0.458904
0.737438
0.787151
0.818574
0.848791
0.879391
0.911904
0.947766
0.98814
1.03382
1.08522
1.1425
1.20563
1.2746
1.34938
1.42989
1.51572
1.606
1.69931
1.79369
1.88701
1.97732
2.06318
2.14397
2.21999
2.29233
2.36267
2.43299
2.50536
2.58182
2.66428
2.75454
2.85429
2.96497
3.0877
3.22304
3.37092
3.53044
3.69992
3.877
4.0589
4.24279
4.42622
4.60752
4.78615
4.96277
5.1392
5.31821
5.50664
5.72365
5.9847
6.25367
6.48059
6.62651
6.67764
6.64422
6.54651
6.3979
6.19725
5.9359
5.63068
5.30186
4.9626
4.62075
4.28058
3.94479
3.61631
3.29813
2.99324
2.70454
2.43451
2.18501
1.95706
1.75077
1.56554
1.40038
1.25423
1.12634
1.01623
0.923665
0.848509
0.790485
0.748675
0.720802
0.70333
0.692625
0.685595
0.680191
0.675613
0.672198
0.671041
0.673505
0.680661
0.692812
0.70972
0.730794
0.755089
0.781034
0.806264
0.828277
0.845002
0.855258
0.859036
0.857469
0.852459
0.846072
0.839926
0.834735
0.830389
0.826452
0.822451
0.818283
0.814498
0.812383
0.813811
0.820877
0.835299
0.857983
0.888795
0.926593
0.969265
1.01357
1.05569
1.09191
1.11905
1.13482
1.13805
1.1287
1.10777
1.07727
1.03998
0.999274
0.958633
0.921186
0.889736
0.86744
0.855206
0.848573
0.841224
0.827523
0.805072
0.776151
0.747363
0.727504
0.724547
0.741245
0.773093
0.817399
0.870984
0.930358
0.992469
1.05552
1.11897
1.18329
1.24955
1.31893
1.3923
1.46978
1.5507
1.63357
1.71612
1.79545
1.86832
1.93125
1.98015
2.01014
2.01747
1.99919
1.95346
1.88017
1.78164
1.66284
1.53119
1.39571
1.26583
1.14839
1.04705
0.965765
0.910378
0.891641
0.910628
0.943511
0.961037
0.936354
0.853234
0.711414
0.526258
0.152538
0
0.452299
1.88593
4.50746
8.10308
11.9061
14.7624
15.5982
13.9562
10.2673
5.67257
1.49342
-1.33191
-2.53982
-2.46287
-1.71142
-0.844514
-0.182349
0.207719
0.41661
0.555677
0.661511
0.756181
0.839652
0.909977
0.966441
1.00963
1.04133
1.06422
1.08148
1.09642
1.11202
1.13071
1.15415
1.18323
1.21804
1.25815
1.30289
1.35139
1.40275
1.45616
1.51106
1.56722
1.62488
1.68471
1.74776
1.81525
1.88831
1.9677
2.05367
2.14584
2.24342
2.34546
2.45117
2.56025
2.67306
2.79056
2.91411
3.0451
3.18465
3.33339
3.4914
3.65838
3.83384
4.01719
4.2078
4.4058
4.61235
4.82853
5.05185
5.2696
5.46172
5.61568
5.71827
5.7532
5.70413
5.55926
5.31542
4.9832
4.5938
4.20012
3.83466
3.4906
3.15827
2.8346
2.51936
2.21307
1.91745
1.63551
1.37119
1.12872
0.911878
0.723211
0.563456
0.431543
0.324855
0.239701
0.171861
0.117123
0.0716929
0.0320872
-0.00449562
-0.0400772
-0.0758543
-0.112201
-0.148735
-0.184453
-0.217935
-0.247562
-0.271852
-0.289471
-0.299361
-0.300891
-0.293585
-0.276736
-0.250566
-0.219855
-0.192845
-0.177785
-0.180251
-0.200991
-0.235392
-0.275021
-0.310685
-0.335663
-0.349352
-0.355447
-0.35665
-0.35486
-0.351513
-0.347247
-0.341922
-0.334933
-0.325703
-0.313959
-0.300482
-0.288104
-0.2812
-0.28425
-0.300395
-0.330302
-0.371778
-0.420333
-0.470488
-0.51733
-0.55802
-0.592844
-0.622831
-0.648871
-0.67207
-0.693449
-0.713771
-0.733457
-0.752546
-0.770684
-0.787085
-0.800551
-0.809559
-0.812441
-0.80762
-0.793828
-0.770325
-0.736747
-0.692851
-0.638381
-0.572911
-0.495989
-0.40697
-0.3055
-0.191861
-0.0672443
0.0661432
0.205246
0.34645
0.485971
0.620148
0.745316
0.85736
0.951761
1.02517
1.07586
1.10254
1.10464
1.08249
1.03747
0.971925
0.888926
0.792044
0.685774
0.574879
0.463456
0.355207
0.253774
0.16268
0.085042
0.023452
-0.0202614
-0.0451082
-0.0506868
-0.0381701
-0.0152924
0.00266304
0
-0.0453987
-0.131355
-0.256686
-0.470868
-0.824939
-0.668882
0.485743
2.94658
6.57861
10.6697
14.0712
15.6206
14.671
11.4333
6.91103
2.44435
-0.877372
-2.60198
-2.92459
-2.39742
-1.57445
-0.802565
-0.205989
0.124202
0.250447
0.36367
0.470498
0.572479
0.671384
0.768935
0.866496
0.964812
1.06386
1.1628
1.26014
1.35387
1.44179
1.52168
1.59164
1.65057
1.69827
1.7356
1.76446
1.78765
1.80861
1.83101
1.85839
1.89366
1.93877
1.99474
2.06164
2.13861
2.22419
2.31664
2.41439
2.51642
2.62251
2.73333
2.85032
2.97534
3.11022
3.25624
3.41368
3.58148
3.75724
3.93733
4.11736
4.29267
4.45894
4.61271
4.75171
4.87506
4.98318
5.07752
5.16016
5.23298
5.297
5.35161
5.39306
5.4135
5.4008
5.33969
5.215
5.01553
4.73789
4.38927
3.98801
3.56151
3.14045
2.74182
2.38477
2.10966
1.93772
1.83801
1.76492
1.67517
1.54243
1.36482
1.1631
0.970652
0.819334
0.712513
0.637252
0.592653
0.57151
0.563193
0.55753
0.547084
0.528589
0.503338
0.476503
0.455538
0.447969
0.459056
0.488857
0.53267
0.585299
0.641211
0.694956
0.742307
0.780989
0.810827
0.833297
0.850723
0.865415
0.879063
0.892461
0.905709
0.918566
0.930745
0.942089
0.952583
0.962228
0.970857
0.977972
0.98274
0.984153
0.981259
0.973438
0.960623
0.943394
0.922947
0.900941
0.879309
0.860014
0.844784
0.83502
0.831858
0.836
0.84764
0.866423
0.891453
0.921334
0.954268
0.987922
1.01895
1.04375
1.05939
1.06421
1.0584
1.04422
1.02571
1.00779
0.995126
0.991077
0.995812
1.00803
1.02668
1.05075
1.07935
1.112
1.1487
1.18991
1.23626
1.28825
1.34601
1.40904
1.47619
1.54583
1.61611
1.68525
1.75184
1.81493
1.87409
1.92909
1.97948
2.02375
2.05842
2.07855
2.0783
2.05172
1.99469
1.90666
1.79159
1.65766
1.5157
1.37687
1.24832
1.13171
1.02809
0.937296
0.857507
0.785414
0.717055
0.648475
0.576327
0.498312
0.413431
0.321997
0.225476
0.12449
0
0.0473137
0.621057
2.17338
4.94142
8.63689
12.3547
14.8501
15.0963
12.8215
8.69636
4.03741
0.191934
-2.03754
-2.62148
-2.11529
-1.2395
-0.506108
-0.079998
0.127806
0.260255
0.337254
0.402031
0.458497
0.505852
0.545083
0.578905
0.611276
0.646573
0.688599
0.739301
0.798787
0.866431
0.938143
1.00907
1.07515
1.13454
1.18813
1.23938
1.29314
1.35417
1.42529
1.50711
1.60057
1.70086
1.79684
1.8771
1.93361
1.96464
1.97614
1.98091
1.99555
2.036
2.11219
2.21882
2.34782
2.49422
2.65471
2.82623
3.00632
3.19335
3.38642
3.58499
3.78832
3.99487
4.20194
4.40469
4.59598
4.76851
4.91592
5.03382
5.12005
5.17405
5.19563
5.18373
5.13571
5.05141
4.92712
4.76019
4.55031
4.30021
4.01583
3.70581
3.38264
3.05606
2.73479
2.42635
2.13636
1.86822
1.623
1.39985
1.19655
1.01032
0.838626
0.679684
0.532751
0.398032
0.27638
0.168866
0.0763931
-0.000559998
-0.0620567
-0.108695
-0.141547
-0.162068
-0.17179
-0.172453
-0.166775
-0.157973
-0.149243
-0.143407
-0.142576
-0.147904
-0.159496
-0.176461
-0.197074
-0.218954
-0.239711
-0.257147
-0.269348
-0.274788
-0.272518
-0.262876
-0.247713
-0.229516
-0.210762
-0.193299
-0.177936
-0.164359
-0.151411
-0.13759
-0.121637
-0.103082
-0.0822422
-0.0599602
-0.0375893
-0.0167809
0.000702667
0.0134743
0.0208122
0.0229404
0.0211769
0.0178505
0.0159325
0.0187656
0.0311649
0.05564
0.0865543
0.114262
0.128992
0.125196
0.104282
0.0744282
0.0475201
0.0346058
0.0396877
0.0578308
0.0862259
0.120958
0.157568
0.192076
0.221743
0.245408
0.263399
0.277094
0.288315
0.29876
0.3095
0.320954
0.333138
0.345915
0.359335
0.37395
0.391037
0.412338
0.439703
0.474542
0.517363
0.567582
0.623704
0.683843
0.746393
0.81054
0.876578
0.9458
1.02081
1.10688
1.2128
1.33964
1.46823
1.5713
1.62215
1.60336
1.51189
1.35915
1.16736
0.964689
0.777984
0.614632
0.472063
0.351222
0.253298
0.177285
0.120468
0.0789375
0.04814
0.023328
0
-0.0160482
-0.0395349
-0.0735275
-0.119843
-0.179042
-0.528902
-0.783494
-0.380699
1.12396
3.92219
7.7125
11.6331
14.4891
15.2354
13.4794
9.70822
5.09091
0.957674
-1.74838
-2.76509
-2.45123
-1.48034
-0.499776
0.0981862
0.223089
0.155972
0.153911
0.174606
0.219857
0.286646
0.36431
0.44631
0.527365
0.603326
0.671696
0.731717
0.784109
0.830604
0.873534
0.915181
0.957551
1.00231
1.05068
1.10346
1.16097
1.22314
1.28957
1.35971
1.433
1.50903
1.58769
1.66914
1.75378
1.8421
1.93458
2.03157
2.13335
2.24013
2.35219
2.47001
2.59433
2.72614
2.8667
3.0174
3.17966
3.35472
3.54336
3.74558
3.96021
4.18463
4.41486
4.64469
4.864
5.06242
5.23131
5.36528
5.46268
5.52483
5.55427
5.55276
5.51993
5.45803
5.36553
5.23888
5.07537
4.8739
4.63544
4.36315
4.06356
3.74455
3.41344
3.07835
2.74781
2.43024
2.13337
1.86368
1.62591
1.42278
1.25489
1.12101
1.01877
0.944572
0.893823
0.86189
0.844445
0.837674
0.838314
0.84373
0.851478
0.859318
0.865287
0.867787
0.86573
0.858672
0.846863
0.831172
0.812884
0.793451
0.774085
0.755595
0.738324
0.722165
0.706713
0.691521
0.676424
0.661845
0.649064
0.640475
0.639222
0.648695
0.671888
0.710717
0.770708
0.854204
0.950235
1.04185
1.11262
1.15141
1.15511
1.12857
1.08205
1.02732
0.974308
0.927849
0.888296
0.855287
0.828718
0.808517
0.79448
0.785563
0.779956
0.775836
0.771845
0.767472
0.763172
0.760121
0.759694
0.762855
0.769531
0.778911
0.789476
0.799439
0.807261
0.812094
0.814013
0.814015
0.813767
0.815121
0.819617
0.828216
0.841156
0.857796
0.876697
0.89609
0.914329
0.930298
0.943644
0.954806
0.964876
0.975348
0.987812
1.00371
1.02437
1.05102
1.08473
1.12635
1.17649
1.23541
1.30307
1.37907
1.46273
1.5532
1.64962
1.75135
1.85837
1.97011
2.08162
2.18242
2.25897
2.29798
2.29055
2.23477
2.13582
2.00366
1.84988
1.68618
1.52174
1.36122
1.20762
1.06408
0.933613
0.8186
0.720588
0.640422
0.5773
0.527283
0.484528
0.44248
0.394937
0.33704
0.265992
0.181354
0.0848972
-0.0522785
-0.217324
0
1.0721
3.38751
6.9169
10.9933
14.4244
15.9643
14.9185
11.5266
6.87982
2.41013
-0.748772
-2.17413
-2.15891
-1.38738
-0.527925
0.0413162
0.267925
0.308297
0.374841
0.440379
0.504586
0.566862
0.626803
0.684204
0.7388
0.790276
0.838767
0.884647
0.928726
0.972356
1.01733
1.06549
1.11828
1.17628
1.23902
1.30517
1.37354
1.44306
1.51297
1.58291
1.65276
1.7226
1.7927
1.86367
1.93652
2.01272
2.09399
2.18202
2.27802
2.38233
2.49425
2.61272
2.73641
2.86409
2.99509
3.12953
3.26846
3.41366
3.56728
3.73125
3.9067
4.09357
4.29036
4.49431
4.70186
4.90925
5.11314
5.31053
5.49758
5.66874
5.81898
5.94373
6.03147
6.06675
6.03565
5.93031
5.75059
5.50319
5.20006
4.8589
4.50353
4.1477
3.79832
3.46142
3.14237
2.84547
2.57392
2.32976
2.11401
1.92677
1.76729
1.63408
1.52499
1.43735
1.368
1.31361
1.2709
1.23694
1.20937
1.1866
1.1678
1.15297
1.14276
1.13826
1.1408
1.15181
1.17322
1.20746
1.25458
1.30807
1.35717
1.39094
1.40172
1.3879
1.35484
1.31336
1.27603
1.25268
1.24474
1.24906
1.25865
1.26518
1.26246
1.24895
1.22852
1.209
1.19924
1.20577
1.22693
1.25952
1.29928
1.34076
1.37877
1.40953
1.43127
1.44406
1.44908
1.4477
1.44084
1.42934
1.41321
1.39266
1.36852
1.34231
1.31604
1.29173
1.27081
1.25376
1.24035
1.22972
1.22074
1.21245
1.20429
1.19627
1.18884
1.18264
1.17814
1.17542
1.17403
1.17305
1.17113
1.16657
1.15776
1.14359
1.12382
1.0994
1.07251
1.04633
1.02452
1.01069
1.00958
1.025
1.05426
1.08814
1.116
1.12949
1.12563
1.10817
1.08682
1.07465
1.08436
1.12214
1.18445
1.26522
1.35936
1.46213
1.56847
1.67313
1.77155
1.86043
1.93803
2.004
2.05911
2.10443
2.14047
2.16699
2.18248
2.18419
2.16839
2.13111
2.06924
1.9814
1.86869
1.73491
1.58638
1.43118
1.27799
1.13357
1.00304
0.890847
0.800917
0.733614
0.681857
0.635099
0.582444
0.515237
0.429079
0.32467
0.207215
-0.20203
-0.4459
0
1.67623
4.82623
9.06389
13.3249
16.2136
16.6228
14.2915
9.96397
5.04236
0.931197
-1.54589
-2.35359
-2.03158
-1.2687
-0.553774
-0.06119
0.244104
0.364571
0.408913
0.442617
0.469603
0.491712
0.511389
0.531395
0.554496
0.583041
0.618608
0.662479
0.71539
0.777289
0.847203
0.923201
1.00255
1.08194
1.15799
1.22796
1.29028
1.34485
1.3931
1.43768
1.48195
1.52935
1.58277
1.64413
1.71434
1.79342
1.88079
1.97559
2.07695
2.18432
2.29755
2.41699
2.54337
2.67769
2.82107
2.97451
3.13873
3.31392
3.49967
3.69486
3.89779
4.10631
4.31811
4.53094
4.74271
4.9508
5.15084
5.33631
5.49908
5.63003
5.71888
5.75648
5.7364
5.65552
5.51438
5.31761
5.07417
4.79785
4.5041
4.20433
3.90481
3.60873
3.319
3.03838
2.76936
2.51407
2.27423
2.05113
1.84566
1.65852
1.49031
1.3417
1.21335
1.10574
1.01908
0.953357
0.908292
0.882377
0.870902
0.866537
0.862197
0.852388
0.83424
0.807945
0.776446
0.744464
0.717138
0.698296
0.688778
0.687724
0.694303
0.706494
0.721832
0.737907
0.752752
0.765017
0.773951
0.779143
0.780578
0.778495
0.773406
0.766199
0.758199
0.751088
0.746653
0.746413
0.751246
0.760884
0.77445
0.790651
0.807934
0.824805
0.840078
0.852979
0.863147
0.870557
0.875362
0.877725
0.877686
0.875099
0.869549
0.860595
0.847899
0.831454
0.811748
0.789829
0.767582
0.74728
0.731195
0.721183
0.718383
0.723108
0.734909
0.75279
0.775409
0.801166
0.828586
0.85634
0.883161
0.907898
0.929587
0.947534
0.961348
0.970929
0.97639
0.977948
0.975839
0.970271
0.961431
0.949553
0.935012
0.918418
0.900702
0.883194
0.867667
0.856559
0.853105
0.860514
0.881849
0.919495
0.97465
1.047
1.13469
1.23473
1.34358
1.45781
1.5745
1.6919
1.80882
1.92394
2.0346
2.13579
2.22078
2.28176
2.31193
2.30727
2.26738
2.19491
2.09439
1.97111
1.83197
1.68503
1.5365
1.39129
1.25389
1.12849
1.01893
0.928697
0.859342
0.808357
0.770471
0.739035
0.70726
0.669427
0.621832
0.562988
0.493081
0.416608
0.0938728
0
0.674243
2.65575
6.10403
10.4972
14.6456
17.1234
16.9342
14.0333
9.37452
4.44514
0.57485
-1.57575
-2.10361
-1.58189
-0.664143
0.188155
0.7683
1.05167
1.04359
1.01517
0.988676
0.968377
0.958257
0.961387
0.978502
1.00885
1.05113
1.10336
1.16288
1.22679
1.29231
1.35726
1.42031
1.48107
1.54006
1.59845
1.6578
1.71965
1.78529
1.8555
1.93047
2.00987
2.09294
2.17879
2.26663
2.35596
2.44673
2.53934
2.63462
2.73365
2.83765
2.94778
3.06507
3.19027
3.32379
3.46565
3.61555
3.7729
3.937
4.10707
4.28232
4.46192
4.64484
4.82965
5.01436
5.19604
5.37016
5.5315
5.67499
5.79595
5.8889
5.94765
5.96934
5.95161
5.89261
5.79136
5.64831
5.46576
5.24777
4.99976
4.72813
4.442
4.14813
3.85109
3.5558
3.26764
2.9923
2.73544
2.50205
2.29593
2.11914
1.97178
1.85201
1.75643
1.68063
1.61985
1.56959
1.52619
1.48713
1.45117
1.41817
1.38879
1.36402
1.34493
1.33211
1.32516
1.32241
1.32181
1.32162
1.32101
1.32032
1.32091
1.32448
1.33229
1.34472
1.3603
1.37577
1.3872
1.39121
1.38596
1.37163
1.35026
1.32503
1.2994
1.27605
1.25643
1.24131
1.23111
1.22591
1.22552
1.22952
1.23735
1.24828
1.26144
1.27577
1.29011
1.30326
1.31417
1.32191
1.32596
1.3263
1.32341
1.31818
1.31175
1.30524
1.29938
1.29433
1.28914
1.28198
1.27087
1.25447
1.23278
1.20736
1.18102
1.1571
1.1386
1.12676
1.12162
1.12313
1.13069
1.14336
1.15994
1.17932
1.20011
1.22039
1.2379
1.25041
1.25619
1.25455
1.24625
1.23366
1.22054
1.21147
1.21075
1.22114
1.24371
1.27801
1.3235
1.37697
1.43483
1.49416
1.55366
1.61396
1.67743
1.74738
1.82704
1.91838
2.02076
2.13482
2.25801
2.38003
2.48708
2.56663
2.61011
2.61438
2.58153
2.51725
2.4284
2.32095
2.20051
2.07205
1.93873
1.80288
1.66691
1.53372
1.40658
1.28901
1.18401
1.09355
1.01933
0.961955
0.916695
0.875718
0.830678
0.772402
0.692514
0.597821
0.143307
0
0.729446
2.83564
6.41224
10.8814
15.0505
17.5449
17.4323
14.684
10.1951
5.3546
1.42489
-0.921547
-1.70394
-1.41003
-0.645206
0.135168
0.724058
1.10506
1.27989
1.36692
1.4432
1.51221
1.57405
1.62929
1.67885
1.72385
1.76547
1.80477
1.84267
1.8799
1.91708
1.95474
1.99333
2.03323
2.07468
2.11778
2.16254
2.20894
2.25711
2.30754
2.36116
2.41929
2.48342
2.55486
2.63443
2.72218
2.81729
2.91855
3.02469
3.13471
3.2483
3.3659
3.48862
3.61789
3.75497
3.90046
4.054
4.21426
4.37912
4.5462
4.71334
4.87908
5.04283
5.20485
5.36583
5.52645
5.68693
5.84599
5.99986
6.14188
6.26254
6.3525
6.40554
6.41579
6.3777
6.28745
6.14471
5.9531
5.71876
5.44815
5.15087
4.83943
4.52229
4.20465
3.89192
3.58997
3.30474
3.04157
2.80468
2.59681
2.419
2.2707
2.15009
2.05464
1.98067
1.92356
1.87863
1.84151
1.80847
1.77665
1.7442
1.71029
1.67504
1.63935
1.60462
1.57251
1.54472
1.52268
1.50737
1.49928
1.49804
1.50204
1.5086
1.51465
1.51739
1.51481
1.50617
1.49215
1.47468
1.45648
1.44041
1.42856
1.42261
1.42242
1.4243
1.42346
1.41594
1.40049
1.37955
1.35882
1.34545
1.3456
1.36437
1.40248
1.44928
1.49034
1.5127
1.50937
1.48138
1.43698
1.38845
1.34793
1.32241
1.31027
1.30749
1.31173
1.31913
1.32535
1.32665
1.32073
1.30717
1.28756
1.26516
1.24411
1.22853
1.22136
1.22354
1.23445
1.25323
1.27837
1.30811
1.34069
1.37457
1.40836
1.44043
1.46901
1.49245
1.50955
1.51995
1.52442
1.52473
1.52321
1.52209
1.52301
1.52664
1.53343
1.54393
1.55915
1.58073
1.61067
1.65087
1.7025
1.76487
1.83603
1.914
1.99649
2.08088
2.16434
2.24383
2.31621
2.37841
2.4278
2.46242
2.48086
2.48225
2.46606
2.43187
2.37906
2.30667
2.21357
2.09954
1.96611
1.81599
1.65299
1.48256
1.31174
1.14881
1.00657
0.911036
0.888288
0.916179
0.95433
0.958502
0.894682
0.748395
0.527512
0.25864
-0.207378
-0.443999
0
1.5966
4.60057
8.75463
13.1675
16.5288
17.6313
15.9529
11.9575
6.91254
2.31038
-0.774913
-2.04521
-1.90481
-1.08133
-0.21586
0.381842
0.685705
0.745619
0.776897
0.800712
0.819068
0.83611
0.857487
0.889073
0.935374
0.998093
1.07819
1.16977
1.26029
1.33682
1.39007
1.41727
1.42313
1.41855
1.41756
1.43327
1.47301
1.53455
1.6117
1.69907
1.79286
1.88987
1.98814
2.08713
2.1876
2.29104
2.39896
2.51236
2.63117
2.75459
2.88123
3.00954
3.13811
3.26607
3.39317
3.51982
3.64693
3.77578
3.90776
4.04417
4.18602
4.33386
4.48761
4.64645
4.80899
4.97309
5.13522
5.28903
5.4251
5.53527
5.61246
5.6512
5.6487
5.60518
5.52312
5.40515
5.25158
5.05915
4.83003
4.57026
4.28496
3.9777
3.65252
3.3154
2.97413
2.63756
2.3147
2.01375
1.74131
1.50197
1.29851
1.13088
0.996426
0.891031
0.809807
0.747819
0.700616
0.664519
0.636695
0.615047
0.597935
0.584174
0.572859
0.563239
0.554691
0.546705
0.538882
0.530928
0.522647
0.513942
0.504799
0.495256
0.485362
0.475106
0.464374
0.452938
0.440513
0.426874
0.41201
0.396265
0.380405
0.365594
0.353209
0.344574
0.34064
0.34173
0.347428
0.356679
0.367666
0.378276
0.38657
0.391145
0.391348
0.387282
0.379647
0.369464
0.357781
0.345455
0.332982
0.320491
0.307792
0.294407
0.279636
0.262592
0.24242
0.218563
0.191013
0.160538
0.128718
0.0980148
0.0712446
0.0509754
0.0389238
0.0355293
0.0398441
0.0497715
0.0626125
0.0756212
0.0866615
0.0946476
0.0996853
0.102918
0.106132
0.111238
0.119757
0.13248
0.149378
0.169874
0.193319
0.219586
0.249551
0.285283
0.329831
0.386626
0.458624
0.547229
0.65129
0.76796
0.893061
1.0213
1.14652
1.26272
1.36474
1.44874
1.51231
1.5543
1.57446
1.57303
1.55043
1.50713
1.44374
1.36106
1.26055
1.14467
1.01711
0.882871
0.747718
0.617824
0.499086
0.396381
0.315511
0.263737
0.241673
0.237286
0.236041
0.225227
0.197227
0.150395
-0.156941
-0.384323
0
1.46714
4.25617
8.08393
12.0593
14.9258
15.5932
13.6843
9.75986
5.06394
0.936489
-1.75034
-2.82864
-2.6871
-1.92214
-1.0361
-0.307208
0.183649
0.457321
0.510609
0.553962
0.595798
0.637869
0.682214
0.730883
0.78557
0.847325
0.916339
0.991998
1.07314
1.15819
1.24535
1.33278
1.41879
1.50191
1.58113
1.65601
1.72668
1.79391
1.85889
1.92306
1.98785
2.05443
2.12362
2.19584
2.27123
2.34979
2.43154
2.51666
2.60558
2.69902
2.79791
2.9033
3.01617
3.1372
3.26666
3.40427
3.54922
3.70031
3.85625
4.0159
4.17859
4.34421
4.51316
4.68608
4.86339
5.04594
5.23219
5.41296
5.5742
5.70139
5.78361
5.81583
5.79867
5.73596
5.63136
5.48564
5.29893
5.07373
4.81443
4.52661
4.21591
3.8879
3.54893
3.20633
2.86775
2.54037
2.23031
1.9422
1.6791
1.4425
1.23253
1.0482
0.887582
0.748335
0.629275
0.530692
0.45252
0.393567
0.353551
0.332275
0.328705
0.34039
0.363516
0.393604
0.42661
0.460003
0.493418
0.527966
0.565732
0.609379
0.661565
0.724306
0.798413
0.883107
0.976125
1.07383
1.17075
1.26134
1.34094
1.4065
1.45687
1.49256
1.51512
1.52646
1.52818
1.52126
1.506
1.48217
1.44918
1.40633
1.35284
1.288
1.21148
1.12411
1.02734
0.923243
0.815008
0.70669
0.602692
0.507667
0.426001
0.359231
0.306803
0.266711
0.236465
0.214125
0.199081
0.192367
0.196464
0.214676
0.249021
0.300598
0.369774
0.455717
0.556096
0.6673
0.785062
0.904953
1.02281
1.13508
1.23873
1.33095
1.41004
1.47522
1.52653
1.56492
1.59232
1.6116
1.6264
1.64083
1.65907
1.68476
1.72077
1.76944
1.83252
1.91099
2.00493
2.11351
2.23597
2.3719
2.51915
2.66971
2.80829
2.91905
2.98854
3.00819
2.97613
2.89763
2.78346
2.64642
2.49763
2.3449
2.19221
2.04146
1.89426
1.75276
1.61967
1.4978
1.38977
1.299
1.23023
1.18129
1.1385
1.0846
1.00332
0.884089
0.72487
0.441766
-0.0454398
0
1.1105
3.64086
7.45406
11.7581
15.2745
16.7479
15.5522
12.0319
7.35369
2.94409
-0.143841
-1.58079
-1.68986
-1.09055
-0.358584
0.242285
0.629538
0.717314
0.77118
0.818204
0.860147
0.898692
0.935455
0.971811
1.00884
1.04737
1.08814
1.13184
1.17913
1.23058
1.28657
1.34723
1.41232
1.48143
1.55396
1.62914
1.70601
1.78346
1.8602
1.93483
2.006
2.07273
2.13461
2.19205
2.24637
2.29974
2.35493
2.41504
2.48312
2.56173
2.65278
2.7574
2.87587
3.00762
3.15145
3.30573
3.46864
3.63838
3.81324
3.99157
4.17161
4.35142
4.52867
4.70077
4.86478
5.01778
5.15754
5.28257
5.39183
5.48352
5.55362
5.59601
5.60644
5.57815
5.50336
5.37581
5.19325
4.95904
4.68213
4.37537
4.05356
3.72976
3.41058
3.10093
2.80429
2.52292
67
273
479
688
900
1113
1315
1521
1728
1936
2149
2367
2589
2809
3028
3248
3459
3669
0
0
0
0
0
0
0
0
0
0
0
0
0
0
0
0
0
0
0
0
0
0
0
0
0
0
0
0
0
0
0
0
0
0
0
0
0
0
0
0
0
0
0
0
0
0
0
0
0
0
0
0
0
0
0
0
0
0
0
0
0
0
0
0
0
0
0
0
0
0
0
0
0
0
0
0
0
0
0
0
0
0
0
0
0
0
0
0
0
0
0
0
0
0
0
0
0
0
0
0
0
0
0
0
0
0
0
0
0
0
0
0
0
0
0
0
0
0
0
0
0
0
0
0
0
0
0
0
0
0
0
0
0
0
0
0
0
0
0
0
0
0
0
0
0
0
0
0
0
0
0
0
0
0
0
0
0
0
0
0
0
0
0
0
0
0
0
0
0
0
0
0
0
0
0
0
0
0
0
0
0
0
0
0
0
0
0
0
0
0
0
0
0
0
0
0
0
0
0
0
0
0
0
0
0
0
0
0
0
0
0
0
0
0
0
0
0
0
0
0
0
0
0
0
0
0
0
0
0
0
0
0
0
0
0
0
0
0
0
0
0
0
0
0
0
0
0
0
0
0
0
0
0
0
0
0
0
0
0
0
0
0
0
0
0
0
0
0
0
0
0
0
0
0
0
0
0
0
0
0
0
0
0
0
0
0
0
0
0
0
0
0
0
0
0
0
0
0
0
0
0
0
0
0
0
0
0
0
0
0
0
0
0
0
0
0
0
0
0
0
0
0
0
0
0
0
0
0
0
0
0
0
0
0
0
0
0
0
0
0
0
0
0
0
0
0
0
0
0
0
0
0
0
0
0
0
0
0
0
0
0
0
0
0
0
0
0
0
0
0
0
0
0
0
0
0
0
0
0
0
0
0
0
0
0
0
0
0
0
0
0
0
0
0
0
0
0
0
0
0
0
0
0
0
0
0
0
0
0
0
0
0
0
0
0
0
0
0
0
0
0
0
0
0
0
0
0
0
0
0
0
0
0
0
0
0
0
0
0
0
0
0
0
0
0
0
0
0
0
0
0
0
0
0
0
0
0
0
0
0
0
0
0
0
0
0
0
0
0
0
0
0
0
0
0
0
0
0
0
0
0
0
0
0
0
0
0
0
0
0
0
0
0
0
0
0
0
0
0
0
0
0
0
0
0
0
0
0
0
0
0
0
0
0
0
0
0
0
0
0
0
0
0
0
0
0
0
0
0
0
0
0
0
0
0
0
0
0
0
0
0
0
0
0
0
0
0
0
0
0
0
0
0
0
0
0
0
0
0
0
0
0
0
0
0
0
0
0
0
0
0
0
0
0
0
0
0
0
0
0
0
0
0
0
0
0
0
0
0
0
0
0
0
0
0
0
0
0
0
0
0
0
0
0
0
0
0
0
0
0
0
0
0
0
0
0
0
0
0
0
0
0
0
0
0
0
0
0
0
0
0
0
0
0
0
0
0
0
0
0
0
0
0
0
0
0
0
0
0
0
0
0
0
0
0
0
0
0
0
0
0
0
0
0
0
0
0
0
0
0
0
0
0
0
0
0
0
0
0
0
0
0
0
0
0
0
0
0
0
0
0
0
0
0
0
0
0
0
0
0
0
0
0
0
0
0
0
0
0
0
0
0
0
0
0
0
0
0
0
0
0
0
0
0
0
0
0
0
0
0
0
0
0
0
0
0
0
0
0
0
0
0
0
0
0
0
0
0
0
0
0
0
0
0
0
0
0
0
0
0
0
0
0
0
0
0
0
0
0
0
0
0
0
0
0
0
0
0
0
0
0
0
0
0
0
0
0
0
0
0
0
0
0
0
0
0
0
0
0
0
0
0
0
0
0
0
0
0
0
0
0
0
0
0
0
0
0
0
0
0
0
0
0
0
0
0
0
0
0
0
0
0
0
0
0
0
0
0
0
0
0
0
0
0
0
0
0
0
0
0
0
0
0
0
0
0
0
0
0
0
0
0
0
0
0
0
0
0
0
0
0
0
0
0
0
0
0
0
0
0
0
0
0
0
0
0
0
0
0
0
0
0
0
0
0
0
0
0
0
0
0
0
0
0
0
0
0
0
0
0
0
0
0
0
0
0
0
0
0
0
0
0
0
0
0
0
0
0
0
0
0
0
0
0
0
0
0
0
0
0
0
0
0
0
0
0
0
0
0
0
0
0
0
0
0
0
0
0
0
0
0
0
0
0
0
0
0
0
0
0
0
0
0
0
0
0
0
0
0
0
0
0
0
0
0
0
0
0
0
0
0
0
0
0
0
0
0
0
0
0
0
0
0
0
0
0
0
0
0
0
0
0
0
0
0
0
0
0
0
0
0
0
0
0
0
0
0
0
0
0
0
0
0
0
0
0
0
0
0
0
0
0
0
0
0
0
0
0
0
0
0
0
0
0
0
0
0
0
0
0
0
0
0
0
0
0
0
0
0
0
0
0
0
0
0
0
0
0
0
0
0
0
0
0
0
0
0
0
0
0
0
0
0
0
0
0
0
0
0
0
0
0
0
0
0
0
0
0
0
0
0
0
0
0
0
0
0
0
0
0
0
0
0
0
0
0
0
0
0
0
0
0
0
0
0
0
0
0
0
0
0
0
0
0
0
0
0
0
0
0
0
0
0
0
0
0
0
0
0
0
0
0
0
0
0
0
0
0
0
0
0
0
0
0
0
0
0
0
0
0
0
0
0
0
0
0
0
0
0
0
0
0
0
0
0
0
0
0
0
0
0
0
0
0
0
0
0
0
0
0
0
0
0
0
0
0
0
0
0
0
0
0
0
0
0
0
0
0
0
0
0
0
0
0
0
0
0
0
0
0
0
0
0
0
0
0
0
0
0
0
0
0
0
0
0
0
0
0
0
0
0
0
0
0
0
0
0
0
0
0
0
0
0
0
0
0
0
0
0
0
0
0
0
0
0
0
0
0
0
0
0
0
0
0
0
0
0
0
0
0
0
0
0
0
0
0
0
0
0
0
0
0
0
0
0
0
0
0
0
0
0
0
0
0
0
0
0
0
0
0
0
0
0
0
0
0
0
0
0
0
0
0
0
0
0
0
0
0
0
0
0
0
0
0
0
0
0
0
0
0
0
0
0
0
0
0
0
0
0
0
0
0
0
0
0
0
0
0
0
0
0
0
0
0
0
0
0
0
0
0
0
0
0
0
0
0
0
0
0
0
0
0
0
0
0
0
0
0
0
0
0
0
0
0
0
0
0
0
0
0
0
0
0
0
0
0
0
0
0
0
0
0
0
0
0
0
0
0
0
0
0
0
0
0
0
0
0
0
0
0
0
0
0
0
0
0
0
0
0
0
0
0
0
0
0
0
0
0
0
0
0
0
0
0
0
0
0
0
0
0
0
0
0
0
0
0
0
0
0
0
0
0
0
0
0
0
0
0
0
0
0
0
0
0
0
0
0
0
0
0
0
0
0
0
0
0
0
0
0
0
0
0
0
0
0
0
0
0
0
0
0
0
0
0
0
0
0
0
0
0
0
0
0
0
0
0
0
0
0
0
0
0
0
0
0
0
0
0
0
0
0
0
0
0
0
0
0
0
0
0
0
0
0
0
0
0
0
0
0
0
0
0
0
0
0
0
0
0
0
0
0
0
0
0
0
0
0
0
0
0
0
0
0
0
0
0
0
0
0
0
0
0
0
0
0
0
0
0
0
0
0
0
0
0
0
0
0
0
0
0
0
0
0
0
0
0
0
0
0
0
0
0
0
0
0
0
0
0
0
0
0
0
0
0
0
0
0
0
0
0
0
0
0
0
0
0
0
0
0
0
0
0
0
0
0
0
0
0
0
0
0
0
0
0
0
0
0
0
0
0
0
0
0
0
0
0
0
0
0
0
0
0
0
0
0
0
0
0
0
0
0
0
0
0
0
0
0
0
0
0
0
0
0
0
0
0
0
0
0
0
0
0
0
0
0
0
0
0
0
0
0
0
0
0
0
0
0
0
0
0
0
0
0
0
0
0
0
0
0
0
0
0
0
0
0
0
0
0
0
0
0
0
0
0
0
0
0
0
0
0
0
0
0
0
0
0
0
0
0
0
0
0
0
0
0
0
0
0
0
0
0
0
0
0
0
0
0
0
0
0
0
0
0
0
0
0
0
0
0
0
0
0
0
0
0
0
0
0
0
0
0
0
0
0
0
0
0
0
0
0
0
0
0
0
0
0
0
0
0
0
0
0
0
0
0
0
0
0
0
0
0
0
0
0
0
0
0
0
0
0
0
0
0
0
0
0
0
0
0
0
0
0
0
0
0
0
0
0
0
0
0
0
0
0
0
0
0
0
0
0
0
0
0
0
0
0
0
0
0
0
0
0
0
0
0
0
0
0
0
0
0
0
0
0
0
0
0
0
0
0
0
0
0
0
0
0
0
0
0
0
0
0
0
0
0
0
0
0
0
0
0
0
0
0
0
0
0
0
0
0
0
0
0
0
0
0
0
0
0
0
0
0
0
0
0
0
0
0
0
0
0
0
0
0
0
0
0
0
0
0
0
0
0
0
0
0
0
0
0
0
0
0
0
0
0
0
0
0
0
0
0
0
0
0
0
0
0
0
0
0
0
0
0
0
0
0
0
0
0
0
0
0
0
0
0
0
0
0
0
0
0
0
0
0
0
0
0
0
0
0
0
0
0
0
0
0
0
0
0
0
0
0
0
0
0
0
0
0
0
0
0
0
0
0
0
0
0
0
0
0
0
0
0
0
0
0
0
0
0
0
0
0
0
0
0
0
0
0
0
0
0
0
0
0
0
0
0
0
0
0
0
0
0
0
0
0
0
0
0
0
0
0
0
0
0
0
0
0
0
0
0
0
0
0
0
0
0
0
0
0
0
0
0
0
0
0
0
0
0
0
0
0
0
0
0
0
0
0
0
0
0
0
0
0
0
0
0
0
0
0
0
0
0
0
0
0
0
0
0
0
0
0
0
0
0
0
0
0
0
0
0
0
0
0
0
0
0
0
0
0
0
0
0
0
0
0
0
0
0
0
0
0
0
0
0
0
0
0
0
0
0
0
0
0
0
0
0
0
0
0
0
0
0
0
0
0
0
0
0
0
0
0
0
0
0
0
0
0
0
0
0
0
0
0
0
0
0
0
0
0
0
0
0
0
0
0
0
0
0
0
0
0
0
0
0
0
0
0
0
0
0
0
0
0
0
0
0
0
0
0
0
0
0
0
0
0
0
0
0
0
0
0
0
0
0
0
0
0
0
0
0
0
0
0
0
0
0
0
0
0
0
0
0
0
0
0
0
0
0
0
0
0
0
0
0
0
0
0
0
0
0
0
0
0
0
0
0
0
0
0
0
0
0
0
0
0
0
0
0
0
0
0
0
0
0
0
0
0
0
0
0
0
0
0
0
0
0
0
0
0
0
0
0
0
0
0
0
0
0
0
0
0
0
0
0
0
0
0
0
0
0
0
0
0
0
0
0
0
0
0
0
0
0
0
0
0
0
0
0
0
0
0
0
0
0
0
0
0
0
0
0
0
0
0
0
0
0
0
0
0
0
0
0
0
0
0
0
0
0
0
0
0
0
0
0
0
0
0
0
0
0
0
0
0
0
0
0
0
0
0
0
0
0
0
0
0
0
0
0
0
0
0
0
0
0
0
0
0
0
0
0
0
0
0
0
0
0
0
0
0
0
0
0
0
0
0
0
0
0
0
0
0
0
0
0
0
0
0
0
0
0
0
0
0
0
0
0
0
0
0
0
0
0
0
0
0
0
0
0
0
0
0
0
0
0
0
0
0
0
0
0
0
0
0
0
0
0
0
0
0
0
0
0
0
0
0
0
0
0
0
0
0
0
0
0
0
0
0
0
0
0
0
0
0
0
0
0
0
0
0
0
0
0
0
0
0
0
0
0
0
0
0
0
0
0
0
0
0
0
0
0
0
0
0
0
0
0
0
0
0
0
0
0
0
0
0
0
0
0
0
0
0
0
0
0
0
0
0
0
0
0
0
0
0
0
0
0
0
0
0
0
0
0
0
0
0
0
0
0
0
0
0
0
0
0
0
0
0
0
0
0
0
0
0
0
0
0
0
0
0
0
0
0
0
0
0
0
0
0
0
0
0
0
0
0
0
0
0
0
0
0
0
0
0
0
0
0
0
0
0
0
0
0
0
0
0
0
0
0
0
0
0
0
0
0
0
0
0
0
0
0
0
0
0
0
0
0
0
0
0
0
0
0
0
0
0
0
0
0
0
0
0
0
0
0
0
0
0
0
0
0
0
0
0
0
0
0
0
0
0
0
0
0
0
0
0
0
0
0
0
0
0
0
0
0
0
0
0
0
0
0
0
0
0
0
0
0
0
0
0
0
0
0
0
0
0
0
0
0
0
0
0
0
0
0
0
0
0
0
0
0
0
0
0
0
0
0
0
0
0
0
0
0
0
0
0
0
0
0
0
0
0
0
0
0
0
0
0
0
0
0
0
0
0
0
0
0
0
0
0
0
0
0
0
0
0
0
0
0
0
0
0
0
0
0
0
0
0
0
0
0
0
0
0
0
0
0
0
0
0
0
0
0
0
0
0
0
0
0
0
0
0
0
0
0
0
0
0
0
0
0
0
0
0
0
0
0
0
0
0
0
0
0
0
0
0
0
0
0
0
0
0
0
0
0
0
0
0
0
0
0
0
0
0
0
0
0
0
0
0
0
0
0
0
0
0
0
0
0
0
0
0
0
0
0
0
0
0
0
0
0
0
0
0
0
0
0
0
0
0
0
0
0
0
0
0
0
0
0
0
0
0
0
0
0
0
0
0
0
0
0
0
0
0
0
0
0
0
0
0
0
0
0
0
0
0
0
0
0
0
0
0
0
0
0
0
0
0
0
0
0
0
0
0
0
0
0
0
0
0
0
0
0
0
0
0
0
0
0
0
0
0
0
0
0
0
0
0
0
0
0
0
0
0
0
0
0
0
0
0
0
0
0
0
0
0
0
0
0
0
0
0
0
0
0
0
0
0
0
0
0
0
0
0
0
0
0
0
0
0
0
0
0
0
0
0
0
0
0
0
0
0
0
0
0
0
0
0
0
0
0
0
0
0
0
0
0
0
0
0
0
0
0
0
0
0
0
0
0
0
0
0
0
0
0
0
0
0
0
0
0
0
0
0
0
0
0
0
0
0
0
0
0
0
0
0
0
0
0
0
0
0
0
0
0
0
0
0
0
0
0
0
0
0
0
0
0
0
0
0
0
0
0
0
0
0
0
0
0
0
0
0
0
0
0
0
0
0
0
0
0
0
0
0
0
0
0
0
0
0
0
0
0
0
0
0
0
0
0
0
0
0
0
0
0
0
0
0
0
0
0
0
0
0
0
0
0
0
0
0
0
0
0
0
0
0
0
0
0
0
0
0
0
0
0
0
0
0
0
0
0
0
0
0
0
0
0
0
0
0
0
0
0
0
0
0
0
0
0
0
0
0
0
0
0
0
0
0
0
0
0
0
0
0
0
0
0
0
0
0
0
0
0
0
0
0
0
0
0
0
0
0
0
0
0
0
0
0
0
0
0
0
0
0
0
0
0
0
0
0
0
0
0
0
0
0
0
0
0
0
0
0
0
0
0
0
0
0
0
0
0
0
0
0
0
0
0
0
0
0
0
0
0
0
0
0
0
0
0
0
0
0
0
0
0
0
0
0
0
0
0
0
0
0
0
0
0
0
0
0
0
0
0
0
0
0
0
0
0
0
0
0
0
0
0
0
0
0
0
0
0
0
0
0
0
0
0
0
0
0
0
0
0
0
0
0
0
0
0
0
0
0
0
0
0
0
0
0
0
0
0
0
0
0
0
0
0
0
0
0
0
0
0
0
0
0
0
0
0
0
0
0
0
0
0
0
0
0
0
0
0
0
0
0
0
0
0
0
0
0
0
0
0
0
0
0
0
0
0
0
0
0
0
0
0
0
0
0
0
0
0
0
0
0
0
0
0
0
0
0
0
0
0
0
0
0
0
0
0
0
0
0
0
0
0
0
0
0
0
0
0
0
0
0
0
0
0
0
0
0
0
0
0
0
0
0
0
0
0
0
0
0
0
0
0
0
0
0
0
0
0
0
0
0
0
0
0
0
0
0
0
0
0
0
0
0
0
0
0
0
0
0
0
0
0
0
0
0
0
0
0
0
0
0
0
0
0
0
0
0
0
0
0
0
0
0
0
0
0
0
0
0
0
0
0
0
0
0
0
0
0
0
0
0
0
0
0
0
0
0
0
0
0
0
0
0
0
0
0
0
0
0
0
0
0
0
0
0
0
0
0
0
0
0
0
0
0
0
0
0
0
0
0
0
0
0
0
0
0
0
0
0
0
0
0
0
0
0
0
0
0
0
0
0
0
0
0
0
0
0
0
0
0
0
0
0
0
0
0
0
0
0
0
0
0
0
0
0
0
0
0
0
0
0
0
0
0
0
0
0
0
0
0
0
0
