0.693428
0.77654
0.852118
0.909019
0.938153
0.934702
0.89955
0.839397
0.765303
0.689911
0.624041
0.572376
0.532813
0.502092
0.472768
0.436413
0.386276
0.319553
0.238561
0.150374
0.0649757
-0.00749397
-0.059639
-0.0897839
-0.0990643
-0.0917103
-0.0732487
-0.0485874
-0.0206318
0.0101635
0.0453197
0.0872715
0.138108
0.198222
0.267129
0.343834
0.426809
0.514228
0.604141
0.694511
0.783011
0.866731
0.942258
1.00578
1.05311
1.07984
1.08138
1.05302
0.989964
0.887539
0.730405
0.464573
0.0840828
-0.384186
-0.895209
-1.05287
0
2.45607
6.22604
10.7467
15.1245
18.3618
19.6492
18.6316
15.5523
11.1941
6.61832
2.79174
0.265512
-0.947186
-1.23362
-1.13147
-1.02142
-0.897837
-0.756855
-0.599076
-0.43295
-0.268948
-0.116779
0.0165066
0.129798
0.226806
0.311871
0.387545
0.455001
0.513676
0.560873
0.591888
0.602416
0.591633
0.564255
0.530494
0.503684
0.496424
0.516691
0.561681
0.623554
0.695052
0.76883
0.837792
0.896266
0.940763
0.970263
0.98605
0.99126
0.990234
0.987803
0.988581
0.996321
1.01341
1.04058
1.0768
1.11964
1.16581
1.21172
1.25411
1.29063
1.32025
1.34325
1.36107
1.37584
1.38988
1.40512
1.42269
1.44259
1.46363
1.48343
1.49838
1.50405
1.49591
1.46979
1.42248
1.35225
1.25923
1.1455
1.01498
0.873029
0.725992
0.579926
0.439975
0.310383
0.194152
0.092914
0.00721683
-0.0631226
-0.118573
-0.159926
-0.18819
-0.204744
-0.211403
-0.210586
-0.205153
-0.197796
-0.190398
-0.18348
-0.175911
-0.16502
-0.147109
-0.118245
-0.0753415
-0.016836
0.0571742
0.145056
0.24354
0.348138
0.45379
0.555256
0.646816
0.721893
0.774713
0.801324
0.799538
0.769779
0.715724
0.644285
0.564664
0.486619
0.418424
0.364164
0.324777
0.299118
0.284565
0.278468
0.279406
0.287766
0.305402
0.334412
0.378163
0.435673
0.490349
0.514843
0.47908
0.360254
0.151787
-0.132269
-0.459238
-0.79208
0
2.3583
6.23974
11.0323
15.6885
19.0755
20.3544
19.2376
16.0412
11.5469
6.74559
2.54891
-0.440611
-2.03522
-2.39099
-1.87438
-1.3315
-0.814497
-0.399009
-0.132289
0.0488407
0.196468
0.326856
0.44525
0.553857
0.653903
0.746282
0.831737
0.911093
0.985359
1.05563
1.12283
1.18732
1.24877
1.30617
1.35818
1.40366
1.44238
1.47551
1.50578
1.53727
1.57476
1.62285
1.68476
1.76187
1.85386
1.95863
2.07258
2.19094
2.30846
2.42038
2.52316
2.61487
2.69531
2.76571
2.82826
2.88544
2.93939
2.99146
3.04188
3.0897
3.13292
3.16879
3.19421
3.20618
3.20234
3.18136
3.14324
3.08943
3.02275
2.94709
2.8669
2.78658
2.70994
2.63994
2.57849
2.52643
2.48375
2.44986
2.42394
2.40511
2.39261
2.38586
2.38442
2.38798
2.39635
2.4094
2.42701
2.44893
2.47473
2.50365
2.53449
2.56565
2.59556
2.62305
2.64769
2.66988
2.69075
2.71172
2.73406
2.75851
2.78516
2.81365
2.84344
2.87416
2.90577
2.9385
2.97269
3.00858
3.04626
3.08587
3.12782
3.17305
3.22295
3.27892
3.34177
3.41155
3.48448
3.55136
3.60028
3.61973
3.60183
3.54481
3.45351
3.33799
3.21064
3.08285
2.96135
2.84769
2.74149
2.64112
2.5437
2.44577
2.34374
2.23434
2.11488
1.98283
1.83272
1.64345
1.31775
0.710782
-0.103099
-0.972297
-1.67743
-1.5156
0
3.14095
7.72587
13.0291
17.9351
21.2605
22.1466
20.363
16.3916
11.2432
6.08748
1.8634
-0.960293
-2.40133
-2.77025
-2.45912
-2.07482
-1.64793
-1.23724
-0.887801
-0.604836
-0.36987
-0.171523
-0.00484276
0.130016
0.229941
0.294436
0.32628
0.331551
0.318847
0.297778
0.277107
0.263064
0.257571
0.259256
0.265671
0.273645
0.280086
0.282808
0.281071
0.275719
0.268992
0.264085
0.264624
0.274186
0.295828
0.331888
0.384103
0.453635
0.540887
0.645338
0.765386
0.898273
1.04014
1.18627
1.33147
1.47054
1.59861
1.71136
1.80497
1.87641
1.92408
1.94739
1.94674
1.92359
1.8806
1.82152
1.75096
1.6739
1.5952
1.51888
1.44772
1.38326
1.32611
1.276
1.2321
1.19335
1.1588
1.12779
1.09997
1.07516
1.05318
1.03364
1.01578
0.998484
0.98055
0.961082
0.939774
0.917032
0.893851
0.871473
0.850965
0.832909
0.817286
0.803659
0.791547
0.78082
0.771981
0.766224
0.765264
0.771037
0.785183
0.808747
0.842308
0.885734
0.93811
0.997962
1.06326
1.13181
1.20167
1.27151
1.3407
1.40926
1.47764
1.54651
1.61663
1.68895
1.76471
1.84555
1.93334
2.0299
2.1375
2.25669
2.38187
2.4999
2.59405
2.64796
2.64964
2.59415
2.48453
2.33093
2.14839
1.95395
1.76333
1.58623
1.42655
1.28501
1.16102
1.05337
0.959667
0.876824
0.801386
0.729671
0.657662
0.580724
0.493179
0.388517
0.259633
0.0897049
-0.159762
-0.488871
-0.882901
-1.31332
-1.29044
0
2.92105
7.37929
12.7151
17.8156
21.4172
22.5236
20.7842
16.6598
11.2646
5.93211
1.70752
-0.976342
-2.29274
-2.71576
-2.57193
-2.39524
-2.17338
-1.91428
-1.64553
-1.40437
-1.21411
-1.07285
-0.966013
-0.881511
-0.813399
-0.758258
-0.713417
-0.677323
-0.649656
-0.630718
-0.620601
-0.618434
-0.621922
-0.627346
-0.629998
-0.625009
-0.608356
-0.577495
-0.53176
-0.472353
-0.401649
-0.322239
-0.236435
-0.145791
-0.0509342
0.0482128
0.151916
0.260004
0.371391
0.483903
0.59419
0.698541
0.794011
0.879365
0.955618
1.02591
1.09465
1.16622
1.24347
1.32697
1.41388
1.49768
1.57057
1.62575
1.65933
1.6711
1.66411
1.64317
1.61305
1.57726
1.53733
1.49285
1.44237
1.38433
1.31791
1.24367
1.16405
1.08344
1.00786
0.944205
0.899036
0.877203
0.882722
0.917721
0.975922
1.04242
1.10068
1.13678
1.14287
1.11881
1.0716
1.01298
0.956049
0.911694
0.884354
0.873669
0.877701
0.893765
0.918246
0.946877
0.975352
0.999946
1.01791
1.02769
1.02889
1.0222
1.00907
0.991432
0.971484
0.951521
0.933862
0.920864
0.914967
0.918475
0.93327
0.960394
0.999625
1.04965
1.10744
1.16786
1.22479
1.27299
1.30953
1.33491
1.35338
1.37244
1.40138
1.4527
1.54978
1.70934
1.89947
2.06808
2.16218
2.14748
2.02104
1.81229
1.57268
1.35839
1.21277
1.1293
1.0862
1.07003
1.07364
1.09026
1.11235
1.13217
1.14216
1.13492
1.10342
1.04115
0.942339
0.796351
0.569661
0.249088
-0.14443
-0.576309
-0.830745
0
2.3115
6.17416
11.1294
16.2445
20.3384
22.3427
21.6735
18.4639
13.5423
8.14287
3.46331
0.262812
-1.32442
-1.6914
-1.58961
-1.49635
-1.41152
-1.33609
-1.26869
-1.20556
-1.14272
-1.07647
-1.00408
-0.924228
-0.837512
-0.748147
-0.664173
-0.594866
-0.548241
-0.528849
-0.536442
-0.565964
-0.608888
-0.655493
-0.69733
-0.729562
-0.751584
-0.764937
-0.771247
-0.772247
-0.769072
-0.76195
-0.750336
-0.73337
-0.710437
-0.681785
-0.648394
-0.611801
-0.573859
-0.536309
-0.50026
-0.465872
-0.432294
-0.397897
-0.360761
-0.319285
-0.272746
-0.221643
-0.167697
-0.113458
-0.0617476
-0.0149903
0.0252734
0.0585383
0.0850923
0.105441
0.119301
0.125072
0.11985
0.0998434
0.0613017
0.0019783
-0.0775875
-0.173416
-0.278325
-0.38301
-0.477684
-0.554553
-0.607796
-0.634636
-0.63536
-0.612822
-0.571645
-0.517469
-0.456256
-0.393018
-0.331628
-0.274843
-0.224113
-0.179543
-0.140066
-0.10384
-0.0687876
-0.0331352
0.00431576
0.0439301
0.0854773
0.128742
0.174021
0.222234
0.274508
0.33137
0.392222
0.453861
0.5109
0.557395
0.588733
0.603177
0.602423
0.591013
0.574989
0.560398
0.551591
0.550892
0.560233
0.580678
0.612496
0.655142
0.7072
0.76632
0.829359
0.892719
0.952427
1.0042
1.0434
1.06527
1.06611
1.04317
0.995284
0.923433
0.831066
0.724039
0.610023
0.497446
0.394133
0.305358
0.233916
0.180759
0.144344
0.120054
0.100945
0.079336
0.0478178
0
-0.0588564
-0.14238
-0.252457
-0.390254
-0.563499
-0.771805
-1.00547
-1.25131
-1.46738
-0.785865
1.13632
4.36276
8.51851
12.8485
16.4155
18.3735
18.2255
15.9869
12.1925
7.73114
3.55945
0.404435
-1.42187
-2.02714
-1.66203
-1.33737
-1.04562
-0.80419
-0.623988
-0.496641
-0.405527
-0.343405
-0.301461
-0.270813
-0.243624
-0.214064
-0.178356
-0.133887
-0.0788197
-0.0118853
0.0677208
0.160267
0.265295
0.381488
0.506569
0.636875
0.766401
0.886378
0.987896
1.06364
1.10992
1.12835
1.12639
1.11642
1.11328
1.13082
1.1782
1.25488
1.3554
1.47466
1.60726
1.74775
1.89172
2.03648
2.18104
2.32564
2.47108
2.61798
2.76617
2.91424
3.05945
3.19791
3.32479
3.43459
3.52163
3.58093
3.60822
3.60024
3.55518
3.47317
3.35662
3.21048
3.04205
2.86041
2.67533
2.49549
2.32789
2.17748
2.04615
1.93334
1.83676
1.75349
1.68091
1.61729
1.562
1.51526
1.47767
1.44961
1.43135
1.42282
1.42366
1.43345
1.45186
1.47881
1.51435
1.55844
1.61073
1.67029
1.73487
1.80031
1.86135
1.91297
1.95173
1.97679
1.99028
1.99678
2.00215
2.01191
2.02968
2.05615
2.09016
2.12976
2.17223
2.21461
2.25391
2.28713
2.31077
2.32139
2.31573
2.29135
2.24753
2.18604
2.11151
2.03105
1.9533
1.88684
1.83803
1.81066
1.80593
1.82072
1.84846
1.88123
1.91138
1.93269
1.94077
1.93268
1.90614
1.85857
1.78754
1.68122
1.48914
1.12466
0.614581
0.0276588
-0.47156
0
1.9058
5.4312
10.2492
15.4873
19.9216
22.3647
22.1049
19.2027
14.4825
9.1993
4.5367
1.1942
-0.738343
-1.59977
-1.59976
-1.52493
-1.35218
-1.08703
-0.762185
-0.425187
-0.124859
0.117525
0.308806
0.463126
0.590743
0.697521
0.786636
0.859554
0.917489
0.960977
0.989929
1.00389
1.00246
0.985757
0.954888
0.912259
0.861146
0.807211
0.757863
0.720629
0.701935
0.705998
0.734119
0.784546
0.852914
0.933097
1.01822
1.1018
1.17904
1.24641
1.30193
1.34532
1.37804
1.40312
1.42478
1.44781
1.47689
1.51565
1.56594
1.62752
1.69861
1.77513
1.85098
1.91984
1.97635
2.01711
2.04115
2.04985
2.04628
2.03433
2.01785
1.99998
1.98277
1.96758
1.95545
1.94756
1.94574
1.95272
1.97125
2.0037
2.05115
2.11253
2.18495
2.26229
2.33727
2.40298
2.45448
2.48966
2.50937
2.51661
2.51538
2.50948
2.50171
2.49361
2.48605
2.47971
2.4756
2.47519
2.48023
2.49228
2.51215
2.53938
2.57251
2.60904
2.64621
2.68174
2.71446
2.7446
2.77365
2.80385
2.83745
2.876
2.9199
2.96858
3.02064
3.07449
3.12877
3.18273
3.23609
3.28857
3.33912
3.38496
3.42087
3.43992
3.43445
3.39796
3.32702
3.22277
3.09152
2.94411
2.79418
2.65555
2.53795
2.44541
2.38112
2.34412
2.32846
2.32627
2.32967
2.33233
2.33022
2.32142
2.30511
2.28028
2.24467
2.19466
2.11816
1.9451
1.49577
0.795456
-0.0437357
-0.626674
0
2.36541
6.53531
11.9468
17.5217
21.9924
24.2975
23.9034
20.947
16.1721
10.6864
5.6144
1.76643
-0.548904
-1.50382
-1.43343
-1.08924
-0.71208
-0.345447
-0.027133
0.217711
0.409399
0.565226
0.693829
0.799779
0.886341
0.956549
1.01318
1.05945
1.09849
1.13286
1.16435
1.1941
1.22297
1.25195
1.28254
1.31681
1.35708
1.40547
1.46327
1.53034
1.60536
1.68612
1.76994
1.85424
1.93713
2.0178
2.09652
2.17426
2.2521
2.33059
2.40922
2.4862
2.5587
2.62356
2.67809
2.7208
2.75175
2.77238
2.78491
2.79162
2.79396
2.79208
2.78447
2.76846
2.74078
2.69845
2.63959
2.56412
2.47403
2.37323
2.26697
2.1609
2.06005
1.96784
1.88629
1.81556
1.75424
1.70007
1.65064
1.60409
1.55945
1.51676
1.47688
1.44108
1.41061
1.38639
1.36888
1.35807
1.35354
1.35459
1.36036
1.36992
1.38225
1.39616
1.41028
1.42293
1.43231
1.43664
1.43443
1.42471
1.40724
1.3826
1.35216
1.31803
1.28293
1.24999
1.22265
1.20436
1.19798
1.20535
1.2269
1.26136
1.30587
1.35645
1.40873
1.4589
1.50461
1.5454
1.58277
1.62007
1.66198
1.71382
1.78065
1.86667
1.97497
2.10886
2.27169
2.46218
2.66475
2.85176
2.99496
3.07217
3.07297
3.00145
2.87516
2.72037
2.56491
2.43021
2.32093
2.23173
2.15622
2.08897
2.0244
1.95705
1.88238
1.79706
1.69892
1.5866
1.45837
1.30955
1.12722
0.889372
0.598426
0.267256
-0.0811968
0
1.15366
3.69036
7.65422
12.5961
17.5831
21.439
23.1495
22.2486
18.9975
14.2714
9.21689
4.85097
1.77577
0.0973546
-0.462002
-0.241932
-0.0208677
0.200384
0.420003
0.635497
0.84312
1.0397
1.22214
1.38723
1.53272
1.65873
1.76778
1.86339
1.9491
2.0288
2.10623
2.1843
2.26462
2.34715
2.42957
2.50797
2.5787
2.64
2.69312
2.74234
2.79385
2.85369
2.92569
3.00961
3.10107
3.19494
3.28553
3.36747
3.43661
3.49049
3.52829
3.55057
3.55903
3.55618
3.5445
3.52656
3.50486
3.48153
3.45804
3.43498
3.41201
3.38802
3.3614
3.33045
3.29377
3.25048
3.20023
3.14315
3.07956
3.00976
2.93389
2.85185
2.76334
2.66802
2.56559
2.45594
2.33937
2.21686
2.09032
1.96287
1.83886
1.72397
1.624
1.54404
1.48738
1.45578
1.44692
1.45586
1.47604
1.50056
1.52327
1.53963
1.54706
1.54487
1.5342
1.51755
1.49777
1.47787
1.46065
1.44828
1.4421
1.44247
1.44904
1.46106
1.47776
1.49864
1.52359
1.55284
1.58677
1.6257
1.66977
1.71897
1.77297
1.83116
1.89257
1.95592
2.01946
2.0811
2.13876
2.19069
2.2357
2.27324
2.30322
2.32575
2.34077
2.34785
2.34652
2.33586
2.31511
2.28403
2.24307
2.19333
2.13631
2.07333
2.00486
1.92989
1.84575
1.74829
1.63232
1.49256
1.32469
1.1262
0.896971
0.63929
0.357408
0.0544514
-0.267293
-0.603918
-0.945901
-1.28346
-1.6095
-1.89123
-1.43516
0
2.69004
6.53411
10.9903
15.1039
17.7909
18.2476
16.2925
12.449
7.72077
3.18402
-0.384415
-2.67602
-3.78968
-3.68232
-3.45136
-3.17767
-2.87482
-2.56651
-2.28065
-2.03497
-1.82973
-1.66194
-1.53349
-1.44284
-1.38553
-1.35515
-1.34444
-1.34636
-1.35439
-1.36387
-1.37171
-1.37571
-1.37429
-1.36638
-1.35121
-1.32826
-1.29733
-1.25865
-1.2128
-1.16132
-1.10715
-1.05371
-1.00414
-0.96048
-0.923032
-0.890188
-0.858775
-0.824849
-0.784685
-0.736198
-0.678925
-0.613351
-0.541072
-0.464646
-0.386799
-0.309914
-0.235744
-0.165427
-0.0997604
-0.0396904
0.0133186
0.0573524
0.0900887
0.109268
0.11328
0.10167
0.0754112
0.0368652
-0.0105194
-0.062542
-0.115119
-0.164745
-0.208582
-0.244706
-0.272226
-0.291248
-0.302706
-0.308006
-0.308606
-0.305607
-0.299475
-0.289981
-0.276387
-0.257816
-0.233628
-0.203891
-0.169766
-0.133378
-0.0972481
-0.0636017
-0.0336784
-0.00724258
0.0175392
0.043795
0.0752876
0.115482
0.166649
0.229556
0.304167
0.388866
0.481549
0.580669
0.685972
0.79875
0.92145
1.05672
1.20613
1.37088
1.54838
1.72839
1.89633
2.03719
2.1387
2.19366
2.20061
2.1633
2.08928
1.98825
1.87172
1.74989
1.63028
1.51833
1.41777
1.33069
1.25806
1.19981
1.1551
1.12272
1.10127
1.08913
1.08415
1.08326
1.08077
1.0677
1.033
0.96507
0.853935
0.68465
0.443031
0.143675
-0.187645
-0.519821
0
1.80539
5.16583
9.82218
14.918
19.209
21.5166
21.2
18.4002
13.937
8.93978
4.42331
1.01359
-1.10396
-2.06877
-1.95568
-1.64398
-1.16004
-0.635992
-0.186592
0.109498
0.291519
0.413391
0.499472
0.559354
0.597762
0.617786
0.623434
0.61936
0.610347
0.600715
0.593839
0.591895
0.595928
0.606173
0.622417
0.644408
0.672141
0.705946
0.746312
0.793542
0.847391
0.906799
0.969835
1.03396
1.09638
1.15447
1.20614
1.25003
1.28556
1.31288
1.33285
1.34688
1.35682
1.36492
1.37361
1.3853
1.40206
1.42526
1.45521
1.49095
1.53031
1.56978
1.60444
1.62896
1.63826
1.62833
1.59674
1.54289
1.46806
1.37514
1.26836
1.15311
1.03532
0.921747
0.819325
0.734444
0.672084
0.634959
0.622869
0.632497
0.657831
0.691166
0.724516
0.751328
0.767313
0.770993
0.763584
0.748232
0.728889
0.709194
0.691614
0.677116
0.665731
0.6571
0.650832
0.646833
0.645422
0.647242
0.653023
0.663338
0.678525
0.698757
0.724044
0.754663
0.791399
0.835564
0.888712
0.952084
1.02596
1.10913
1.19875
1.29047
1.37936
1.46042
1.52922
1.58206
1.61607
1.62964
1.6223
1.59439
1.54714
1.48277
1.40458
1.31688
1.22463
1.13295
1.04634
0.968092
0.90016
0.843343
0.797198
0.760495
0.731627
0.708904
0.690582
0.674657
0.65844
0.637768
0.606967
0.558947
0.475603
0.257951
-0.294019
-1.09179
-1.97987
-2.62417
-2.10463
0
3.83933
9.05956
14.737
19.5963
22.4031
22.399
19.585
14.7203
9.03615
3.79255
-0.123647
-2.39851
-3.24364
-3.1324
-2.72774
-2.34739
-2.02947
-1.78481
-1.58799
-1.40898
-1.23971
-1.07921
-0.928872
-0.790839
-0.667129
-0.559225
-0.468128
-0.393935
-0.335564
-0.290909
-0.257153
-0.23116
-0.20987
-0.190619
-0.171366
-0.150806
-0.128351
-0.103971
-0.0779617
-0.0505939
-0.0216454
0.00997582
0.0463745
0.0904713
0.145449
0.21395
0.297242
0.394635
0.503156
0.618332
0.735106
0.848687
0.955468
1.05369
1.14363
1.22734
1.30797
1.38883
1.47277
1.56107
1.65051
1.73021
1.78515
1.80119
1.77032
1.69432
1.58483
1.45958
1.33618
1.22628
1.13029
1.04294
0.960585
0.879844
0.79896
0.718244
0.639701
0.566167
0.500026
0.442487
0.394609
0.357028
0.329903
0.312923
0.305216
0.305439
0.311235
0.31912
0.325174
0.325923
0.319162
0.304549
0.283747
0.260029
0.237449
0.219824
0.209662
0.207571
0.212695
0.223362
0.23743
0.25289
0.268392
0.283559
0.299023
0.316237
0.337138
0.363776
0.397956
0.441023
0.49376
0.556258
0.627853
0.707105
0.791853
0.879414
0.966813
1.0512
1.1303
1.20268
1.26782
1.32577
1.37647
1.41876
1.44989
1.46599
1.462
1.43289
1.37516
1.28824
1.17523
1.04283
0.900403
0.758632
0.62701
0.511953
0.418058
0.348425
0.303445
0.280357
0.273598
0.275094
0.273932
0.257487
0.213083
0.12915
-0.00463753
-0.24748
-0.653147
-1.17659
-1.75676
-2.34866
-1.82596
0
3.30222
7.90012
13.1313
17.9142
21.0249
21.5374
19.233
14.7448
9.32351
4.32207
0.668443
-1.39634
-2.21444
-2.31365
-2.15479
-1.97719
-1.77972
-1.56949
-1.36124
-1.17104
-1.00866
-0.875602
-0.767312
-0.678233
-0.603901
-0.540186
-0.482089
-0.42447
-0.362932
-0.294674
-0.219073
-0.137703
-0.0552197
0.0216995
0.0861759
0.132801
0.158993
0.165738
0.157571
0.141859
0.127593
0.123886
0.137869
0.173914
0.233952
0.317715
0.422699
0.544275
0.676313
0.811428
0.941665
1.05964
1.15985
1.23934
1.29803
1.33872
1.36654
1.38801
1.4098
1.43737
1.47384
1.52035
1.57373
1.62666
1.67071
1.69888
1.7076
1.69739
1.67218
1.63739
1.59778
1.55588
1.51181
1.46414
1.41138
1.35337
1.29215
1.23211
1.17926
1.13996
1.11888
1.11808
1.13761
1.17502
1.22602
1.28556
1.34886
1.41275
1.47601
1.5394
1.60527
1.67684
1.75843
1.85317
1.95467
2.04478
2.10042
2.10126
2.0374
1.91422
1.75235
1.58279
1.43873
1.34264
1.29426
1.28514
1.31268
1.37092
1.45205
1.54798
1.65108
1.75592
1.85876
1.95676
2.0472
2.12651
2.19011
2.23357
2.25254
2.24391
2.20694
2.14408
2.06083
1.96497
1.86511
1.76911
1.682
1.6061
1.54246
1.491
1.45057
1.41934
1.39518
1.37592
1.35951
1.34396
1.3272
1.30682
1.27982
1.24252
1.19068
1.11967
1.02157
0.87484
0.621766
0.199412
-0.324769
-0.872558
-1.392
-1.25749
0
2.57105
6.40064
10.9543
15.3198
18.4754
19.6318
18.5033
15.3995
11.1074
6.61375
2.77757
0.0834983
-1.42383
-2.00744
-1.93368
-1.85476
-1.76868
-1.67433
-1.57177
-1.46244
-1.34992
-1.23811
-1.13083
-1.03171
-0.943887
-0.869333
-0.808488
-0.760967
-0.724618
-0.695567
-0.668568
-0.637486
-0.595997
-0.538429
-0.460606
-0.360544
-0.23879
-0.098672
0.0549699
0.216795
0.381653
0.545354
0.705124
0.859619
1.00854
1.15203
1.29003
1.42176
1.5457
1.65993
1.76251
1.85194
1.9275
1.98921
2.03684
2.07049
2.09096
2.09929
2.0971
2.08713
2.07343
2.06104
2.05514
2.0599
2.07714
2.10547
2.14165
2.18042
2.21518
2.23925
2.24684
2.23379
2.19802
2.13965
2.06086
1.96567
1.85957
1.74888
1.63997
1.5386
1.44928
1.37493
1.31662
1.27374
1.24446
1.22647
1.21764
1.21648
1.22221
1.23449
1.25288
1.27631
1.30279
1.32927
1.35219
1.36835
1.37571
1.37406
1.36514
1.35235
1.34003
1.33252
1.33306
1.34328
1.36321
1.39146
1.42562
1.46268
1.49964
1.53388
1.5634
1.58677
1.60294
1.61122
1.61105
1.60189
1.58322
1.55459
1.51555
1.46569
1.40453
1.33155
1.24632
1.14868
1.03896
0.918352
0.789267
0.655507
0.522091
0.394774
0.279234
0.180186
0.100809
0.0419827
0
-0.0286209
-0.0711464
-0.147755
-0.275491
-0.463914
-0.714228
-1.01356
-1.33925
-1.63525
-0.854858
1.32781
4.89253
9.34331
13.796
17.2204
18.7621
18.0233
15.1955
10.9891
6.38627
2.3158
-0.622773
-2.28116
-2.88942
-2.70043
-2.47382
-2.19754
-1.88187
-1.54889
-1.2295
-0.947242
-0.709846
-0.516473
-0.361938
-0.241146
-0.152675
-0.0921932
-0.0531429
-0.0279091
-0.00919952
0.00872917
0.0292606
0.0532936
0.0803604
0.109299
0.138914
0.168572
0.198563
0.230153
0.265366
0.306552
0.355879
0.41484
0.483939
0.562615
0.649328
0.742123
0.839017
0.938175
1.03795
1.13666
1.23217
1.32176
1.40272
1.4728
1.5311
1.57876
1.61904
1.65668
1.69662
1.74258
1.79588
1.8549
1.91665
1.97745
2.03383
2.08326
2.12437
2.15666
2.18
2.19403
2.19836
2.19173
2.17278
2.14052
2.09471
2.03618
1.96682
1.88954
1.8078
1.72514
1.64507
1.57093
1.50595
1.45324
1.41556
1.39515
1.39377
1.41248
1.45129
1.50907
1.58348
1.67122
1.76846
1.87139
1.97677
2.08235
2.18685
2.2896
2.39015
2.48766
2.58046
2.66595
2.74136
2.80438
2.85413
2.89178
2.92041
2.94414
2.9666
2.98945
3.0113
3.02736
3.03087
3.01546
2.97767
2.9186
2.84413
2.7634
2.68612
2.61947
2.5657
2.52322
2.4863
2.44748
2.40009
2.34018
2.26724
2.18333
2.09111
1.99141
1.88219
1.75893
1.60463
1.36106
0.997782
0.528507
0
-0.111846
1.05608
3.80489
7.97942
12.9
17.546
20.878
22.1522
21.1073
18.0138
13.5999
8.8549
4.72441
1.79866
0.161685
-0.490457
-0.336742
-0.153521
0.0736441
0.339513
0.622039
0.891007
1.12392
1.31599
1.47172
1.59639
1.69234
1.76046
1.80314
1.82401
1.82771
1.81941
1.80439
1.78747
1.77254
1.76214
1.7575
1.75866
1.76479
1.77438
1.78561
1.79669
1.8061
1.81278
1.81627
1.81685
1.81558
1.81441
1.81621
1.82471
1.84382
1.87707
1.92679
1.99349
2.07546
2.1689
2.26855
2.36863
2.46391
2.55053
2.6262
2.69003
2.74189
2.78112
2.80651
2.8165
2.80925
2.78361
2.74008
2.68144
2.61263
2.5399
2.46942
2.4057
2.351
2.30455
2.26329
2.22307
2.18013
2.13222
2.07918
2.02264
1.96519
1.90918
1.85572
1.80444
1.75402
1.70265
1.64888
1.59252
1.53509
1.47978
1.43091
1.3929
1.36924
1.36312
1.37479
1.40059
1.4359
1.47708
1.52303
1.57571
1.63933
1.71849
1.81594
1.93037
2.057
2.18869
2.31741
2.43654
2.54262
2.63624
2.72152
2.8044
2.891
2.98579
3.08334
3.16745
3.21751
3.21628
3.1565
3.04393
2.89563
2.73449
2.5822
2.45061
2.33925
2.24443
2.16368
2.09411
2.03244
1.97542
1.91989
1.86267
1.80036
1.7293
1.6456
1.54472
1.42016
1.25922
1.03452
0.726389
0.358986
-0.0404613
-0.451527
0
1.78224
5.17295
9.89767
15.1397
19.7999
22.8353
23.5244
21.6513
17.6161
12.3929
7.22835
3.15383
0.598926
-0.626252
-0.981359
-0.792212
-0.579271
-0.338585
-0.0776603
0.188326
0.442547
0.675487
0.884953
1.07154
1.23599
1.37889
1.50056
1.60299
1.68954
1.76423
1.83092
1.89265
1.95121
2.00738
2.06135
2.11334
2.16409
2.2149
2.2673
2.3225
2.38095
2.44217
2.5052
2.5693
2.63471
2.70317
2.77794
2.86322
2.96309
3.08032
3.21504
3.3645
3.52386
3.6869
3.84668
3.99679
4.13222
4.24992
4.34879
4.42914
4.49192
4.53857
4.57035
4.58786
4.59106
4.57953
4.55279
4.51075
4.45394
4.38373
4.30261
4.21393
4.1217
4.03035
3.94447
3.8683
3.80529
3.75758
3.72622
3.7107
3.70784
3.71235
3.71858
3.72175
3.71892
3.70937
3.69436
3.67619
3.65711
3.63821
3.61905
3.5978
3.57198
3.5394
3.49912
3.45205
3.4011
3.35064
3.30572
3.27077
3.24836
3.23954
3.24393
3.25913
3.28021
3.30032
3.31281
3.31268
3.29799
3.27049
3.23559
3.20133
3.17664
3.1693
3.18295
3.21691
3.26864
3.33324
3.40418
3.47452
3.53793
3.58925
3.62468
3.64115
3.637
3.61141
3.56431
3.49658
3.4102
3.30829
3.19498
3.07496
2.95296
2.83308
2.71833
2.61055
2.51021
2.41645
2.32716
2.23929
2.14912
2.05263
1.94558
1.82371
1.68234
1.51375
1.30178
1.03189
0.714781
0.365355
0
0.368485
1.99115
5.15087
9.62063
14.6271
19.0537
21.8086
22.2004
20.1682
16.2755
11.4834
6.80941
3.02032
0.473958
-0.857024
-1.15992
-0.819156
-0.40149
0.052282
0.45982
0.739864
0.900609
1.00052
1.06934
1.11902
1.15552
1.18323
1.20613
1.2275
1.24967
1.2739
1.3005
1.3292
1.3595
1.39123
1.42491
1.46194
1.5044
1.55465
1.61472
1.68566
1.76709
1.85711
1.95255
2.0496
2.14444
2.23368
2.3148
2.38607
2.44651
2.49568
2.53347
2.55993
2.57518
2.57962
2.57398
2.55957
2.53836
2.513
2.48677
2.46327
2.44605
2.43803
2.44122
2.4566
2.48251
2.51221
2.53526
2.54054
2.51888
2.46532
2.38028
2.26922
2.14101
2.00566
1.87194
1.74496
1.62688
1.5186
1.42049
1.33236
1.25378
1.1843
1.12345
1.07069
1.02536
0.986758
0.954197
0.927085
0.904939
0.887305
0.873688
0.863371
0.855227
0.847895
0.83994
0.830009
0.816937
0.799737
0.777542
0.749603
0.715454
0.675158
0.629703
0.581283
0.533404
0.490665
0.458031
0.440018
0.439935
0.459406
0.498263
0.55477
0.626047
0.708356
0.797511
0.889475
0.979455
1.06163
1.12944
1.17662
1.19755
1.18814
1.14651
1.07344
0.972316
0.848762
0.710065
0.564642
0.421052
0.286524
0.167083
0.0682407
-0.00402927
-0.0432848
-0.0493919
-0.0333746
-0.0110428
0
-0.00624447
-0.0514851
-0.141463
-0.275705
-0.448244
-0.648612
-0.877886
-0.77245
0.339498
2.86151
6.75174
11.3999
15.7596
18.698
19.4058
17.6898
14.0268
9.37074
4.8031
1.17544
-1.1144
-2.13973
-2.20756
-1.88244
-1.55585
-1.2445
-0.966759
-0.740028
-0.561901
-0.42344
-0.318266
-0.244574
-0.199531
-0.17878
-0.176627
-0.186101
-0.199644
-0.209366
-0.207764
-0.188691
-0.148291
-0.0857081
-0.00332365
0.0941444
0.199281
0.303203
0.39769
0.476864
0.538198
0.582823
0.615049
0.641208
0.668073
0.701262
0.743957
0.796275
0.856872
0.923534
0.994471
1.0694
1.14999
1.23954
1.34195
1.46032
1.59544
1.74477
1.90411
2.06719
2.22578
2.37044
2.49213
2.5838
2.64075
2.66101
2.6455
2.59786
2.52402
2.43157
2.32894
2.22471
2.12614
2.03879
1.9674
1.91586
1.88642
1.87971
1.89464
1.92858
1.97795
2.03636
2.09661
2.15198
2.19727
2.22933
2.24705
2.25074
2.24137
2.2198
2.18711
2.14413
2.09126
2.02973
1.962
1.89188
1.82493
1.76759
1.72587
1.70428
1.70488
1.72681
1.76654
1.8185
1.87627
1.93368
1.98606
2.03075
2.06645
2.09306
2.11121
2.12171
2.12501
2.12088
2.10832
2.08569
2.05115
2.0032
1.94125
1.86609
1.78014
1.68733
1.59266
1.5015
1.41882
1.3486
1.29298
1.25201
1.2239
1.20533
1.19177
1.1777
1.15668
1.12104
1.06284
0.974423
0.837074
0.621591
0.338212
0.0123408
-0.463786
0
1.90801
5.38478
10.0197
14.9236
18.9583
21.0815
20.6942
17.8671
13.3368
8.24614
3.72079
0.473253
-1.37149
-2.1557
-2.15971
-2.11881
-2.00109
-1.79709
-1.52302
-1.21692
-0.927274
-0.69218
-0.518396
-0.391331
-0.297832
-0.233061
-0.194521
-0.178252
-0.178885
-0.189788
-0.203424
-0.211938
-0.207995
-0.186129
-0.143539
-0.0798258
0.00289526
0.100715
0.207327
0.315271
0.418015
0.511236
0.593542
0.666418
0.733466
0.799173
0.867598
0.941251
1.02064
1.10488
1.19227
1.28085
1.36898
1.45583
1.54146
1.62674
1.71293
1.80125
1.8924
1.98623
2.08155
2.17621
2.26729
2.35145
2.42533
2.48581
2.53018
2.55586
2.56063
2.54341
2.50404
2.44368
2.36518
2.27314
2.17381
2.07503
1.98485
1.91035
1.85659
1.82586
1.81749
1.82816
1.85267
1.88487
1.91893
1.95023
1.97581
1.99439
2.00617
2.01221
2.0138
2.01201
2.00753
2.00071
1.99199
1.98225
1.97304
1.96657
1.96543
1.97214
1.98856
2.01561
2.05349
2.10168
2.15918
2.2248
2.2974
2.37614
2.46047
2.55015
2.64503
2.7449
2.84928
2.95725
3.06716
3.17626
3.27997
3.37072
3.43783
3.47043
3.45812
3.39345
3.27439
3.1062
2.90155
2.67896
2.45939
2.26141
2.09316
1.95567
1.85138
1.77768
1.72584
1.68469
1.64293
1.59069
1.5205
1.42738
1.30847
1.16246
0.989141
0.782734
0.543037
0.278121
0
-0.183627
0.691013
3.12438
7.15196
12.2108
17.2939
21.2758
23.2317
22.6695
19.6683
14.9063
9.50341
4.65642
1.20694
-0.613055
-1.11872
-0.779301
-0.451573
-0.152437
0.100876
0.299274
0.457838
0.593311
0.712287
0.816786
0.907188
0.983517
1.04608
1.09554
1.13278
1.1595
1.17801
1.19116
1.202
1.21356
1.22836
1.24812
1.2735
1.30397
1.33808
1.37396
1.40968
1.44373
1.47534
1.50467
1.53281
1.56166
1.59359
1.63122
1.67709
1.73336
1.80162
1.88281
1.97707
2.08381
2.20173
2.3289
2.46279
2.60038
2.73796
2.87051
2.99185
3.09568
3.17586
3.22708
3.24553
3.22949
3.17971
3.09957
2.995
2.87432
2.74716
2.62252
2.50801
2.40909
2.32835
2.2667
2.22266
2.19313
2.17427
2.16234
2.15419
2.14759
2.14113
2.13399
2.12575
2.11634
2.10605
2.09583
2.08747
2.08378
2.0882
2.10408
2.13384
2.17812
2.23531
2.30157
2.37142
2.43879
2.49817
2.54562
2.57928
2.59949
2.60848
2.60981
2.60786
2.6069
2.6108
2.62276
2.64498
2.67854
2.72324
2.77786
2.84039
2.9085
2.98005
3.05349
3.12819
3.20437
3.28284
3.36448
3.44978
3.53802
3.62634
3.70927
3.77915
3.82752
3.8464
3.82972
3.77461
3.68216
3.55769
3.41027
3.25155
3.09401
2.94799
2.81974
2.71256
2.628
2.56365
2.51422
2.47302
2.43322
2.38873
2.33469
2.26734
2.18359
2.0804
1.94866
1.75196
1.4266
0.983387
0.470274
0
0.534086
2.62267
6.37023
11.2305
16.1917
20.1883
22.4295
22.4879
20.2867
16.1597
10.928
5.75886
1.73268
-0.622332
-1.46082
-1.19875
-0.784914
-0.356835
0.0342297
0.340408
0.548263
0.701405
0.824441
0.928102
1.0177
1.09621
1.16499
1.22427
1.27319
1.31051
1.33521
1.34743
1.3492
1.3446
1.33908
1.33829
1.34657
1.36751
1.39945
1.43617
1.46997
1.49494
1.50947
1.51745
1.52726
1.54923
1.59241
1.65934
1.74703
1.85102
1.96661
2.08849
2.21197
2.33393
2.45309
2.56979
2.68513
2.8
2.91415
3.02524
3.12893
3.21962
3.29182
3.34143
3.36679
3.36909
3.35216
3.3218
3.28469
3.24728
3.21452
3.18941
3.17298
3.16458
3.16252
3.16413
3.16624
3.16559
3.15935
3.1454
3.12264
3.09109
3.05192
3.00731
2.9601
2.91339
2.86998
2.83197
2.80053
2.7755
2.75557
2.73883
2.72345
2.70817
2.6926
2.67717
2.66271
2.64995
2.63915
2.62992
2.62148
2.61315
2.60497
2.59811
2.59479
2.5979
2.6102
2.63361
2.66828
2.71313
2.76625
2.82516
2.88741
2.95113
3.01524
3.07937
3.14363
3.20807
3.27217
3.33408
3.38961
3.43236
3.45471
3.44926
3.41072
3.33766
3.23365
3.10717
2.97035
2.83668
2.71742
2.61851
2.54633
2.50125
2.47546
2.45822
2.43921
2.41144
2.37272
2.32511
2.27256
2.2175
2.15763
2.08421
1.98268
1.83562
1.60755
1.26305
0.818835
0.318937
0
0.928926
3.37851
7.21003
11.8291
16.3207
19.6892
21.1297
20.2642
17.2725
12.8604
8.03915
3.77902
0.686773
-1.13108
-1.95748
-2.07663
-2.07474
-1.9141
-1.59973
-1.16268
-0.669683
-0.223235
0.0982935
0.301278
0.431726
0.521118
0.584382
0.628028
0.658736
0.68315
0.706836
0.733428
0.764194
0.798369
0.833211
0.86484
0.889763
0.906218
0.915148
0.920575
0.929204
0.949257
0.988755
1.05361
1.14527
1.26012
1.39319
1.53523
1.67427
1.79853
1.89842
1.96796
2.00549
2.01351
1.99797
1.96703
1.92959
1.89386
1.86603
1.8494
1.84415
1.84838
1.85919
1.8733
1.88735
1.89836
1.90394
1.90246
1.89292
1.87488
1.84828
1.81338
1.77068
1.72093
1.66516
1.60473
1.54143
1.47731
1.41458
1.35537
1.30145
1.2541
1.2137
1.18001
1.15264
1.13154
1.11724
1.11079
1.11341
1.12583
1.14777
1.1774
1.21185
1.2476
1.2808
1.30787
1.3257
1.33225
1.3274
1.31296
1.29264
1.27183
1.25708
1.25466
1.26899
1.30154
1.35146
1.41187
1.47378
1.52885
1.57173
1.60127
1.62009
1.63267
1.64279
1.65124
1.65402
1.64257
1.60598
1.53454
1.42329
1.2742
1.09643
0.904323
0.714158
0.540448
0.389589
0.263487
0.164018
0.0908201
0.0417564
0.0135654
0.0029398
0.00261822
0
-0.0134445
-0.0594925
-0.150897
-0.295245
-0.493151
-0.740368
-1.02269
-1.3214
-1.58616
-1.00837
0.691779
3.67418
7.67391
11.9553
15.4953
17.3424
16.991
14.5792
10.8077
6.63367
2.90744
0.131763
-1.57928
-2.38578
-2.23373
-2.0518
-1.86103
-1.67076
-1.49314
-1.33891
-1.20959
-1.10034
-1.0066
-0.925805
-0.855848
-0.795121
-0.742504
-0.697479
-0.659481
-0.627242
-0.598464
-0.569992
-0.538432
-0.500972
-0.456271
-0.40467
-0.347432
-0.286297
-0.223056
-0.159027
-0.0947519
-0.0299713
0.0361488
0.104639
0.176329
0.251515
0.329814
0.410145
0.490821
0.569736
0.644605
0.713303
0.774146
0.826127
0.869046
0.903514
0.930799
0.952582
0.970663
0.986694
1.00198
1.01735
1.03322
1.0495
1.06575
1.0811
1.09432
1.10384
1.10794
1.1049
1.09333
1.07241
1.04215
1.00349
0.958186
0.908721
0.857995
0.809118
0.765234
0.729612
0.705674
0.696198
0.703098
0.727024
0.766917
0.820251
0.882203
0.946617
1.00723
1.0588
1.09805
1.12408
1.13819
1.14334
1.14329
1.14184
1.14205
1.14623
1.15625
1.17389
1.20111
1.24026
1.29402
1.36498
1.45505
1.56469
1.69304
1.83716
1.99035
2.1419
2.27903
2.38933
2.46239
2.49097
2.47182
2.40598
2.29873
2.15907
1.99885
1.83159
1.66962
1.52202
1.39411
1.28866
1.20639
1.14503
1.09965
1.06343
1.02855
0.98696
0.931263
0.855374
0.75184
0.610019
0.429925
0.221645
0
-0.15807
0.574993
2.55892
5.9005
10.2387
14.7598
18.4046
20.2109
19.6576
16.8664
12.5617
7.80127
3.59648
0.594461
-1.04842
-1.57571
-1.28211
-0.985191
-0.690083
-0.408836
-0.154451
0.0688129
0.268013
0.447558
0.608754
0.751392
0.873193
0.972383
1.04801
1.10052
1.13225
1.14765
1.15303
1.15583
1.16352
1.18221
1.21491
1.2616
1.3205
1.38631
1.45235
1.51206
1.56043
1.5949
1.6157
1.62553
1.62873
1.63038
1.63519
1.6468
1.66787
1.7003
1.74534
1.80375
1.87598
1.96216
2.06196
2.17448
2.29813
2.43053
2.56867
2.70889
2.84711
2.97873
3.09829
3.19945
3.27638
3.32432
3.33991
3.32198
3.27221
3.19514
3.09772
2.98819
2.87485
2.76478
2.66262
2.57179
2.49538
2.43604
2.39581
2.37583
2.3762
2.39559
2.43115
2.47891
2.53265
2.58588
2.63309
2.67069
2.69758
2.71503
2.72605
2.73443
2.74386
2.75697
2.77532
2.79969
2.8301
2.86591
2.90605
2.9491
2.99351
3.03772
3.08044
3.12076
3.15809
3.19204
3.22202
3.24675
3.2639
3.27029
3.26198
3.23499
3.18606
3.11338
3.01707
2.89917
2.76328
2.61394
2.45622
2.29483
2.13403
1.97794
1.83087
1.69727
1.58146
1.48812
1.42471
1.39602
1.38463
1.3581
65
206
351
505
663
817
963
1116
1273
1426
1569
1717
1871
2022
2167
2307
2452
2604
2750
2891
3038
3192
3342
3486
3625
3595
3713
0
0
0
0
0
0
0
0
0
0
0
0
0
0
0
0
0
0
0
0
0
0
0
0
0
0
0
0
0
0
0
0
0
0
0
0
0
0
0
0
0
0
0
0
0
0
0
0
0
0
0
0
0
0
0
0
0
0
0
0
0
0
0
0
0
0
0
0
0
0
0
0
0
0
0
0
0
0
0
0
0
0
0
0
0
0
0
0
0
0
0
0
0
0
0
0
0
0
0
0
0
0
0
0
0
0
0
0
0
0
0
0
0
0
0
0
0
0
0
0
0
0
0
0
0
0
0
0
0
0
0
0
0
0
0
0
0
0
0
0
0
0
0
0
0
0
0
0
0
0
0
0
0
0
0
0
0
0
0
0
0
0
0
0
0
0
0
0
0
0
0
0
0
0
0
0
0
0
0
0
0
0
0
0
0
0
0
0
0
0
0
0
0
0
0
0
0
0
0
0
0
0
0
0
0
0
0
0
0
0
0
0
0
0
0
0
0
0
0
0
0
0
0
0
0
0
0
0
0
0
0
0
0
0
0
0
0
0
0
0
0
0
0
0
0
0
0
0
0
0
0
0
0
0
0
0
0
0
0
0
0
0
0
0
0
0
0
0
0
0
0
0
0
0
0
0
0
0
0
0
0
0
0
0
0
0
0
0
0
0
0
0
0
0
0
0
0
0
0
0
0
0
0
0
0
0
0
0
0
0
0
0
0
0
0
0
0
0
0
0
0
0
0
0
0
0
0
0
0
0
0
0
0
0
0
0
0
0
0
0
0
0
0
0
0
0
0
0
0
0
0
0
0
0
0
0
0
0
0
0
0
0
0
0
0
0
0
0
0
0
0
0
0
0
0
0
0
0
0
0
0
0
0
0
0
0
0
0
0
0
0
0
0
0
0
0
0
0
0
0
0
0
0
0
0
0
0
0
0
0
0
0
0
0
0
0
0
0
0
0
0
0
0
0
0
0
0
0
0
0
0
0
0
0
0
0
0
0
0
0
0
0
0
0
0
0
0
0
0
0
0
0
0
0
0
0
0
0
0
0
0
0
0
0
0
0
0
0
0
0
0
0
0
0
0
0
0
0
0
0
0
0
0
0
0
0
0
0
0
0
0
0
0
0
0
0
0
0
0
0
0
0
0
0
0
0
0
0
0
0
0
0
0
0
0
0
0
0
0
0
0
0
0
0
0
0
0
0
0
0
0
0
0
0
0
0
0
0
0
0
0
0
0
0
0
0
0
0
0
0
0
0
0
0
0
0
0
0
0
0
0
0
0
0
0
0
0
0
0
0
0
0
0
0
0
0
0
0
0
0
0
0
0
0
0
0
0
0
0
0
0
0
0
0
0
0
0
0
0
0
0
0
0
0
0
0
0
0
0
0
0
0
0
0
0
0
0
0
0
0
0
0
0
0
0
0
0
0
0
0
0
0
0
0
0
0
0
0
0
0
0
0
0
0
0
0
0
0
0
0
0
0
0
0
0
0
0
0
0
0
0
0
0
0
0
0
0
0
0
0
0
0
0
0
0
0
0
0
0
0
0
0
0
0
0
0
0
0
0
0
0
0
0
0
0
0
0
0
0
0
0
0
0
0
0
0
0
0
0
0
0
0
0
0
0
0
0
0
0
0
0
0
0
0
0
0
0
0
0
0
0
0
0
0
0
0
0
0
0
0
0
0
0
0
0
0
0
0
0
0
0
0
0
0
0
0
0
0
0
0
0
0
0
0
0
0
0
0
0
0
0
0
0
0
0
0
0
0
0
0
0
0
0
0
0
0
0
0
0
0
0
0
0
0
0
0
0
0
0
0
0
0
0
0
0
0
0
0
0
0
0
0
0
0
0
0
0
0
0
0
0
0
0
0
0
0
0
0
0
0
0
0
0
0
0
0
0
0
0
0
0
0
0
0
0
0
0
0
0
0
0
0
0
0
0
0
0
0
0
0
0
0
0
0
0
0
0
0
0
0
0
0
0
0
0
0
0
0
0
0
0
0
0
0
0
0
0
0
0
0
0
0
0
0
0
0
0
0
0
0
0
0
0
0
0
0
0
0
0
0
0
0
0
0
0
0
0
0
0
0
0
0
0
0
0
0
0
0
0
0
0
0
0
0
0
0
0
0
0
0
0
0
0
0
0
0
0
0
0
0
0
0
0
0
0
0
0
0
0
0
0
0
0
0
0
0
0
0
0
0
0
0
0
0
0
0
0
0
0
0
0
0
0
0
0
0
0
0
0
0
0
0
0
0
0
0
0
0
0
0
0
0
0
0
0
0
0
0
0
0
0
0
0
0
0
0
0
0
0
0
0
0
0
0
0
0
0
0
0
0
0
0
0
0
0
0
0
0
0
0
0
0
0
0
0
0
0
0
0
0
0
0
0
0
0
0
0
0
0
0
0
0
0
0
0
0
0
0
0
0
0
0
0
0
0
0
0
0
0
0
0
0
0
0
0
0
0
0
0
0
0
0
0
0
0
0
0
0
0
0
0
0
0
0
0
0
0
0
0
0
0
0
0
0
0
0
0
0
0
0
0
0
0
0
0
0
0
0
0
0
0
0
0
0
0
0
0
0
0
0
0
0
0
0
0
0
0
0
0
0
0
0
0
0
0
0
0
0
0
0
0
0
0
0
0
0
0
0
0
0
0
0
0
0
0
0
0
0
0
0
0
0
0
0
0
0
0
0
0
0
0
0
0
0
0
0
0
0
0
0
0
0
0
0
0
0
0
0
0
0
0
0
0
0
0
0
0
0
0
0
0
0
0
0
0
0
0
0
0
0
0
0
0
0
0
0
0
0
0
0
0
0
0
0
0
0
0
0
0
0
0
0
0
0
0
0
0
0
0
0
0
0
0
0
0
0
0
0
0
0
0
0
0
0
0
0
0
0
0
0
0
0
0
0
0
0
0
0
0
0
0
0
0
0
0
0
0
0
0
0
0
0
0
0
0
0
0
0
0
0
0
0
0
0
0
0
0
0
0
0
0
0
0
0
0
0
0
0
0
0
0
0
0
0
0
0
0
0
0
0
0
0
0
0
0
0
0
0
0
0
0
0
0
0
0
0
0
0
0
0
0
0
0
0
0
0
0
0
0
0
0
0
0
0
0
0
0
0
0
0
0
0
0
0
0
0
0
0
0
0
0
0
0
0
0
0
0
0
0
0
0
0
0
0
0
0
0
0
0
0
0
0
0
0
0
0
0
0
0
0
0
0
0
0
0
0
0
0
0
0
0
0
0
0
0
0
0
0
0
0
0
0
0
0
0
0
0
0
0
0
0
0
0
0
0
0
0
0
0
0
0
0
0
0
0
0
0
0
0
0
0
0
0
0
0
0
0
0
0
0
0
0
0
0
0
0
0
0
0
0
0
0
0
0
0
0
0
0
0
0
0
0
0
0
0
0
0
0
0
0
0
0
0
0
0
0
0
0
0
0
0
0
0
0
0
0
0
0
0
0
0
0
0
0
0
0
0
0
0
0
0
0
0
0
0
0
0
0
0
0
0
0
0
0
0
0
0
0
0
0
0
0
0
0
0
0
0
0
0
0
0
0
0
0
0
0
0
0
0
0
0
0
0
0
0
0
0
0
0
0
0
0
0
0
0
0
0
0
0
0
0
0
0
0
0
0
0
0
0
0
0
0
0
0
0
0
0
0
0
0
0
0
0
0
0
0
0
0
0
0
0
0
0
0
0
0
0
0
0
0
0
0
0
0
0
0
0
0
0
0
0
0
0
0
0
0
0
0
0
0
0
0
0
0
0
0
0
0
0
0
0
0
0
0
0
0
0
0
0
0
0
0
0
0
0
0
0
0
0
0
0
0
0
0
0
0
0
0
0
0
0
0
0
0
0
0
0
0
0
0
0
0
0
0
0
0
0
0
0
0
0
0
0
0
0
0
0
0
0
0
0
0
0
0
0
0
0
0
0
0
0
0
0
0
0
0
0
0
0
0
0
0
0
0
0
0
0
0
0
0
0
0
0
0
0
0
0
0
0
0
0
0
0
0
0
0
0
0
0
0
0
0
0
0
0
0
0
0
0
0
0
0
0
0
0
0
0
0
0
0
0
0
0
0
0
0
0
0
0
0
0
0
0
0
0
0
0
0
0
0
0
0
0
0
0
0
0
0
0
0
0
0
0
0
0
0
0
0
0
0
0
0
0
0
0
0
0
0
0
0
0
0
0
0
0
0
0
0
0
0
0
0
0
0
0
0
0
0
0
0
0
0
0
0
0
0
0
0
0
0
0
0
0
0
0
0
0
0
0
0
0
0
0
0
0
0
0
0
0
0
0
0
0
0
0
0
0
0
0
0
0
0
0
0
0
0
0
0
0
0
0
0
0
0
0
0
0
0
0
0
0
0
0
0
0
0
0
0
0
0
0
0
0
0
0
0
0
0
0
0
0
0
0
0
0
0
0
0
0
0
0
0
0
0
0
0
0
0
0
0
0
0
0
0
0
0
0
0
0
0
0
0
0
0
0
0
0
0
0
0
0
0
0
0
0
0
0
0
0
0
0
0
0
0
0
0
0
0
0
0
0
0
0
0
0
0
0
0
0
0
0
0
0
0
0
0
0
0
0
0
0
0
0
0
0
0
0
0
0
0
0
0
0
0
0
0
0
0
0
0
0
0
0
0
0
0
0
0
0
0
0
0
0
0
0
0
0
0
0
0
0
0
0
0
0
0
0
0
0
0
0
0
0
0
0
0
0
0
0
0
0
0
0
0
0
0
0
0
0
0
0
0
0
0
0
0
0
0
0
0
0
0
0
0
0
0
0
0
0
0
0
0
0
0
0
0
0
0
0
0
0
0
0
0
0
0
0
0
0
0
0
0
0
0
0
0
0
0
0
0
0
0
0
0
0
0
0
0
0
0
0
0
0
0
0
0
0
0
0
0
0
0
0
0
0
0
0
0
0
0
0
0
0
0
0
0
0
0
0
0
0
0
0
0
0
0
0
0
0
0
0
0
0
0
0
0
0
0
0
0
0
0
0
0
0
0
0
0
0
0
0
0
0
0
0
0
0
0
0
0
0
0
0
0
0
0
0
0
0
0
0
0
0
0
0
0
0
0
0
0
0
0
0
0
0
0
0
0
0
0
0
0
0
0
0
0
0
0
0
0
0
0
0
0
0
0
0
0
0
0
0
0
0
0
0
0
0
0
0
0
0
0
0
0
0
0
0
0
0
0
0
0
0
0
0
0
0
0
0
0
0
0
0
0
0
0
0
0
0
0
0
0
0
0
0
0
0
0
0
0
0
0
0
0
0
0
0
0
0
0
0
0
0
0
0
0
0
0
0
0
0
0
0
0
0
0
0
0
0
0
0
0
0
0
0
0
0
0
0
0
0
0
0
0
0
0
0
0
0
0
0
0
0
0
0
0
0
0
0
0
0
0
0
0
0
0
0
0
0
0
0
0
0
0
0
0
0
0
0
0
0
0
0
0
0
0
0
0
0
0
0
0
0
0
0
0
0
0
0
0
0
0
0
0
0
0
0
0
0
0
0
0
0
0
0
0
0
0
0
0
0
0
0
0
0
0
0
0
0
0
0
0
0
0
0
0
0
0
0
0
0
0
0
0
0
0
0
0
0
0
0
0
0
0
0
0
0
0
0
0
0
0
0
0
0
0
0
0
0
0
0
0
0
0
0
0
0
0
0
0
0
0
0
0
0
0
0
0
0
0
0
0
0
0
0
0
0
0
0
0
0
0
0
0
0
0
0
0
0
0
0
0
0
0
0
0
0
0
0
0
0
0
0
0
0
0
0
0
0
0
0
0
0
0
0
0
0
0
0
0
0
0
0
0
0
0
0
0
0
0
0
0
0
0
0
0
0
0
0
0
0
0
0
0
0
0
0
0
0
0
0
0
0
0
0
0
0
0
0
0
0
0
0
0
0
0
0
0
0
0
0
0
0
0
0
0
0
0
0
0
0
0
0
0
0
0
0
0
0
0
0
0
0
0
0
0
0
0
0
0
0
0
0
0
0
0
0
0
0
0
0
0
0
0
0
0
0
0
0
0
0
0
0
0
0
0
0
0
0
0
0
0
0
0
0
0
0
0
0
0
0
0
0
0
0
0
0
0
0
0
0
0
0
0
0
0
0
0
0
0
0
0
0
0
0
0
0
0
0
0
0
0
0
0
0
0
0
0
0
0
0
0
0
0
0
0
0
0
0
0
0
0
0
0
0
0
0
0
0
0
0
0
0
0
0
0
0
0
0
0
0
0
0
0
0
0
0
0
0
0
0
0
0
0
0
0
0
0
0
0
0
0
0
0
0
0
0
0
0
0
0
0
0
0
0
0
0
0
0
0
0
0
0
0
0
0
0
0
0
0
0
0
0
0
0
0
0
0
0
0
0
0
0
0
0
0
0
0
0
0
0
0
0
0
0
0
0
0
0
0
0
0
0
0
0
0
0
0
0
0
0
0
0
0
0
0
0
0
0
0
0
0
0
0
0
0
0
0
0
0
0
0
0
0
0
0
0
0
0
0
0
0
0
0
0
0
0
0
0
0
0
0
0
0
0
0
0
0
0
0
0
0
0
0
0
0
0
0
0
0
0
0
0
0
0
0
0
0
0
0
0
0
0
0
0
0
0
0
0
0
0
0
0
0
0
0
0
0
0
0
0
0
0
0
0
0
0
0
0
0
0
0
0
0
0
0
0
0
0
0
0
0
0
0
0
0
0
0
0
0
0
0
0
0
0
0
0
0
0
0
0
0
0
0
0
0
0
0
0
0
0
0
0
0
0
0
0
0
0
0
0
0
0
0
0
0
0
0
0
0
0
0
0
0
0
0
0
0
0
0
0
0
0
0
0
0
0
0
0
0
0
0
0
0
0
0
0
0
0
0
0
0
0
0
0
0
0
0
0
0
0
0
0
0
0
0
0
0
0
0
0
0
0
0
0
0
0
0
0
0
0
0
0
0
0
0
0
0
0
0
0
0
0
0
0
0
0
0
0
0
0
0
0
0
0
0
0
0
0
0
0
0
0
0
0
0
0
0
0
0
0
0
0
0
0
0
0
0
0
0
0
0
0
0
0
0
0
0
0
0
0
0
0
0
0
0
0
0
0
0
0
0
0
0
0
0
0
0
0
0
0
0
0
0
0
0
0
0
0
0
0
0
0
0
0
0
0
0
0
0
0
0
0
0
0
0
0
0
0
0
0
0
0
0
0
0
0
0
0
0
0
0
0
0
0
0
0
0
0
0
0
0
0
0
0
0
0
0
0
0
0
0
0
0
0
0
0
0
0
0
0
0
0
0
0
0
0
0
0
0
0
0
0
0
0
0
0
0
0
0
0
0
0
0
0
0
0
0
0
0
0
0
0
0
0
0
0
0
0
0
0
0
0
0
0
0
0
0
0
0
0
0
0
0
0
0
0
0
0
0
0
0
0
0
0
0
0
0
0
0
0
0
0
0
0
0
0
0
0
0
0
0
0
0
0
0
0
0
0
0
0
0
0
0
0
0
0
0
0
0
0
0
0
0
0
0
0
0
0
0
0
0
0
0
0
0
0
0
0
0
0
0
0
0
0
0
0
0
0
0
0
0
0
0
0
0
0
0
0
0
0
0
0
0
0
0
0
0
0
0
0
0
0
0
0
0
0
0
0
0
0
0
0
0
0
0
0
0
0
0
0
0
0
0
0
0
0
0
0
0
0
0
0
0
0
0
0
0
0
0
0
0
0
0
0
0
0
0
0
0
0
0
0
0
0
0
0
0
0
0
0
0
0
0
0
0
0
0
0
0
0
0
0
0
0
0
0
0
0
0
0
0
0
0
0
0
0
0
0
0
0
0
0
0
0
0
0
0
0
0
0
0
0
0
0
0
0
0
0
0
0
0
0
0
0
0
0
0
0
0
0
0
0
0
0
0
0
0
0
0
0
0
0
0
0
0
0
0
0
0
0
0
0
0
0
0
0
0
0
0
0
0
0
0
0
0
0
0
0
0
0
0
0
0
0
0
0
0
0
0
0
0
0
0
0
0
0
0
0
0
0
0
0
0
0
0
0
0
0
0
0
0
0
0
0
0
0
0
0
0
0
0
0
0
0
0
0
0
0
0
0
0
0
0
0
0
0
0
0
0
0
0
0
0
0
0
0
0
0
0
0
0
0
0
0
0
0
0
0
0
0
0
0
0
0
0
0
0
0
0
0
0
0
0
0
0
0
0
0
0
0
0
0
0
0
0
0
0
0
0
0
0
0
0
0
0
0
0
0
0
0
0
0
0
0
0
0
0
0
0
0
0
0
0
0
0
0
0
0
0
0
0
0
0
0
0
0
0
0
0
0
0
0
0
0
0
0
0
0
0
0
0
0
0
0
0
0
0
0
0
0
0
0
0
0
0
0
0
0
0
0
0
0
0
0
0
0
0
0
0
0
0
0
0
0
0
