-2.1538
-2.10652
-2.04089
-1.96054
-1.86951
-1.77323
-1.67927
-1.59468
-1.5242
-1.46907
-1.42658
-1.39061
-1.35325
-1.3072
-1.24809
-1.17673
-1.09797
-1.01807
-0.94426
-0.883067
-0.839138
-0.81477
-0.810134
-0.823923
-0.854023
-0.89718
-0.949974
-1.00949
-1.07235
-1.13483
-1.1932
-1.24413
-1.28523
-1.31519
-1.33384
-1.34202
-1.34123
-1.33344
-1.31955
-1.25809
-0.869045
0
1.42609
3.31067
5.36628
7.17218
8.27401
8.30903
7.13637
4.92263
2.12836
-0.625648
-2.76567
-3.9532
-4.16511
-3.64407
-2.73935
-1.75633
-0.86485
-0.108661
0.414648
0.643299
0.822841
0.970227
1.08726
1.1806
1.25981
1.33455
1.41184
1.4942
1.58011
1.66725
1.75324
1.83692
1.91911
2.00256
2.09118
2.18872
2.29751
2.41705
2.54513
2.67849
2.81274
2.94421
3.07139
3.19582
3.32232
3.45839
3.6129
3.79435
4.00913
4.25864
4.54037
4.84881
5.17536
5.50974
5.83609
6.13287
6.38253
6.57266
6.69709
6.75554
6.75217
6.69335
6.58549
6.43372
6.24556
6.02951
5.79021
5.52978
5.24964
4.95111
4.63558
4.30396
3.95729
3.59721
3.2265
2.84955
2.47254
2.10336
1.75156
1.42817
1.14218
0.900267
0.705792
0.558492
0.454749
0.388398
0.351775
0.336689
0.334768
0.339206
0.342716
0.338699
0.321843
0.288672
0.238136
0.17198
0.0946625
0.0127272
-0.0662724
-0.135452
-0.189076
-0.223374
-0.23675
-0.229488
-0.203082
-0.159402
-0.0999546
-0.0256971
0.065234
0.18407
0.347075
0.532451
0.692695
0.770508
0.724247
0.552343
0.302361
0.0567165
-0.101269
-0.125673
-0.0677136
0.0391315
0.149929
0.224424
0.239671
0.194345
0.104629
-0.00441437
-0.107213
-0.187178
-0.242795
-0.2764
-0.290037
-0.285599
-0.264907
-0.233231
-0.197364
-0.163755
-0.137325
-0.120767
-0.114526
-0.117442
-0.127749
-0.144008
-0.165249
-0.19121
-0.221905
-0.256782
-0.294311
-0.331983
-0.366771
-0.395895
-0.416717
-0.428747
-0.433867
-0.434956
-0.434547
-0.433686
-0.431509
-0.425713
-0.413682
-0.393731
-0.366564
-0.334283
-0.298986
-0.262792
-0.22716
-0.192466
-0.157978
-0.122228
-0.0836212
-0.0410904
0.00532761
0.0545473
0.104505
0.152526
0.195854
0.232168
0.26001
0.279053
0.290215
0.295601
0.298309
0.302071
0.310758
0.328033
0.357776
0.402797
0.462087
0.528145
0.587839
0.626886
0.633283
0.600302
0.528298
0.424808
0.302798
0.177446
0.0624449
-0.0356533
-0.117673
-0.185884
-0.241394
-0.28562
-0.3201
-0.346277
-0.365321
-0.378123
-0.385416
-0.387934
-0.386517
-0.381993
-0.373174
-0.32553
0
0.836112
2.26812
4.13013
5.99311
7.28569
7.49845
6.38777
4.09851
1.14384
-1.76533
-3.98048
-5.1458
-5.2826
-4.69413
-3.76431
-2.78065
-1.87458
-1.0735
-0.386185
0.0741245
0.177399
0.216401
0.220018
0.197039
0.165631
0.149338
0.17087
0.239503
0.347477
0.483749
0.642108
0.813274
0.982299
1.1355
1.26346
1.36297
1.43742
1.49573
1.5502
1.61409
1.69878
1.80914
1.948
2.11856
2.32256
2.55962
2.82713
3.1203
3.4326
3.75649
4.0843
4.40926
4.72622
5.03184
5.32371
5.59929
5.85614
6.09226
6.30218
6.47296
6.5855
6.62125
6.56809
6.42381
6.19659
5.90281
5.56243
5.19593
4.8172
4.43211
4.04269
3.64946
3.2532
2.85576
2.46047
2.07219
1.69704
1.34183
1.01326
0.717161
0.457818
0.237519
0.0563969
-0.0874435
-0.197697
-0.279418
-0.338414
-0.38065
-0.411679
-0.43616
-0.45754
-0.477921
-0.498108
-0.517806
-0.535915
-0.550832
-0.560735
-0.563793
-0.558321
-0.542956
-0.516841
-0.478839
-0.427867
-0.366549
-0.303688
-0.249962
-0.215164
-0.205299
-0.220703
-0.256059
-0.302339
-0.349914
-0.391665
-0.426157
-0.454984
-0.480014
-0.503138
-0.525984
-0.549414
-0.57335
-0.596915
-0.618818
-0.63779
-0.652806
-0.663359
-0.669199
-0.669975
-0.664911
-0.652705
-0.631804
-0.599384
-0.550901
-0.48982
-0.430972
-0.392751
-0.389444
-0.423938
-0.484867
-0.55022
-0.5961
-0.606402
-0.58691
-0.550058
-0.503383
-0.455246
-0.412907
-0.381212
-0.362056
-0.354541
-0.355604
-0.360711
-0.36553
-0.366662
-0.361223
-0.34745
-0.328912
-0.311721
-0.302333
-0.305144
-0.320874
-0.346426
-0.376138
-0.403686
-0.423674
-0.434655
-0.43522
-0.423999
-0.400271
-0.362701
-0.310756
-0.249045
-0.185992
-0.131286
-0.0933979
-0.07719
-0.0825031
-0.104189
-0.133553
-0.160702
-0.177654
-0.180812
-0.170398
-0.148722
-0.118602
-0.0827087
-0.0434464
-0.00254974
0.0392418
0.0822811
0.127895
0.178115
0.235307
0.301849
0.38035
0.47445
0.588803
0.723849
0.866053
0.991033
1.072
1.08687
1.02524
0.893177
0.713857
0.52268
0.357219
0.239087
0.161682
0.111185
0.0815739
0.0669395
0.0605709
0.0558063
0.0465614
0.0275795
-0.00546036
-0.0556458
-0.124784
-0.21322
-0.319547
-0.440651
-0.573561
-0.730151
-0.564509
0
0.992929
2.39799
4.1221
5.94392
7.47103
8.18467
7.62962
5.67775
2.69009
-0.570879
-3.2651
-4.83908
-5.20334
-4.64609
-3.59431
-2.41331
-1.34161
-0.519352
-0.0208199
0.126662
0.254119
0.379959
0.504625
0.62714
0.745694
0.858138
0.962595
1.05815
1.1453
1.22596
1.30318
1.38047
1.46117
1.5478
1.64186
1.74434
1.85583
1.97692
2.10851
2.25204
2.40964
2.58407
2.77845
2.99586
3.23881
3.50857
3.8046
4.12426
4.4627
4.81324
5.16807
5.51915
5.85911
6.18193
6.48268
6.75708
7.00096
7.20957
7.37791
7.50295
7.5815
7.60895
7.58072
7.49383
7.34804
7.14613
6.89324
6.59555
6.26234
5.90311
5.52417
5.12852
4.71803
4.29538
3.86461
3.43123
3.00209
2.58466
2.18617
1.8125
1.46742
1.15213
0.86549
0.604923
0.371171
0.16813
-0.0012886
-0.133136
-0.221833
-0.263843
-0.260811
-0.220684
-0.156235
-0.0816528
-0.00870399
0.0569115
0.114974
0.165482
0.207513
0.240136
0.260903
0.266017
0.252022
0.21762
0.164707
0.0981789
0.0247124
-0.0488285
-0.117294
-0.178061
-0.229235
-0.268584
-0.293174
-0.293444
-0.232479
-0.0343613
0.25859
0.549254
0.721285
0.697591
0.486287
0.181432
-0.0877068
-0.229986
-0.245193
-0.226254
-0.201354
-0.178624
-0.163644
-0.159798
-0.168439
-0.189218
-0.220242
-0.258051
-0.298828
-0.337851
-0.36974
-0.388888
-0.383688
-0.314817
-0.0977089
0.235157
0.578381
0.808842
0.832273
0.633129
0.291755
-0.0502369
-0.259302
-0.275937
-0.217506
-0.141269
-0.0612038
0.0163898
0.0869392
0.147585
0.196775
0.23417
0.261045
0.27958
0.292684
0.303833
0.316771
0.33501
0.36154
0.399504
0.447967
0.499484
0.543721
0.570342
0.571957
0.546139
0.495977
0.429269
0.356878
0.290596
0.23885
0.205742
0.193942
0.204345
0.239589
0.294892
0.360238
0.425973
0.48609
0.540353
0.594353
0.657444
0.739317
0.855513
1.01461
1.20347
1.39112
1.54432
1.63933
1.66142
1.60198
1.45909
1.24249
0.978531
0.709279
0.482935
0.325761
0.225285
0.161576
0.130415
0.129613
0.152137
0.18403
0.209146
0.213274
0.186384
0.124271
0.0292473
-0.090395
-0.222076
-0.322768
0
0.804973
2.11363
3.82596
5.70237
7.36437
8.34857
8.24353
6.86986
4.41078
1.39662
-1.47586
-3.60119
-4.6668
-4.70362
-3.9865
-2.87367
-1.67971
-0.628738
0.134159
0.514249
0.531184
0.571944
0.623245
0.688283
0.768497
0.863053
0.968322
1.08087
1.19766
1.3163
1.43529
1.55401
1.67237
1.79055
1.90872
2.02699
2.14551
2.26469
2.38532
2.50876
2.6369
2.77207
2.91679
3.07351
3.24437
3.43086
3.63371
3.85272
4.08666
4.33322
4.58893
4.84918
5.10838
5.36018
5.59768
5.81502
6.00783
6.17376
6.31247
6.42511
6.51122
6.56705
6.58919
6.57251
6.50941
6.39215
6.21542
5.97837
5.68519
5.34435
4.96685
4.5678
4.15904
3.74828
3.34269
2.94922
2.57466
2.22521
1.9065
1.62467
1.38242
1.17623
0.999359
0.843317
0.699766
0.56235
0.427936
0.297368
0.175788
0.0706059
-0.0106342
-0.0626072
-0.0837677
-0.0767971
-0.0479099
-0.00531578
0.0426807
0.0894554
0.131812
0.169189
0.202186
0.23203
0.260263
0.288124
0.315995
0.342714
0.364882
0.377205
0.373642
0.348904
0.300146
0.228355
0.138934
0.040506
-0.054213
-0.132761
-0.18597
-0.210113
-0.207405
-0.184651
-0.150582
-0.112895
-0.0760441
-0.040934
-0.00645714
0.0292873
0.0677818
0.108564
0.147333
0.17661
0.188237
0.1762
0.139047
0.0811161
0.0121376
-0.0547539
-0.106081
-0.132095
-0.125025
-0.0769741
0.00280724
0.0878563
0.149657
0.165505
0.124304
0.0293098
-0.102609
-0.245171
-0.369416
-0.453879
-0.498716
-0.513589
-0.505872
-0.479525
-0.439145
-0.39003
-0.336988
-0.283681
-0.232353
-0.183979
-0.138889
-0.0977531
-0.0619881
-0.0338074
-0.0160297
-0.0107437
-0.0178467
-0.0341404
-0.0534546
-0.0678329
-0.0694088
-0.0529449
-0.0184944
0.031562
0.094566
0.167086
0.24476
0.322828
0.396245
0.459215
0.505387
0.530386
0.531341
0.507687
0.461894
0.399674
0.329346
0.260337
0.201163
0.157076
0.12742
0.110805
0.103961
0.102359
0.10118
0.0961399
0.0839447
0.062476
0.0307884
-0.0109814
-0.0614628
-0.118871
-0.1866
-0.290229
0
0.862198
2.27384
3.97921
5.57458
6.62583
6.78497
5.89087
4.04478
1.61509
-0.864932
-2.88386
-4.13123
-4.56505
-4.3434
-3.69003
-2.79657
-1.81029
-0.871877
-0.130146
0.217796
0.229381
0.217532
0.200473
0.181117
0.162438
0.147331
0.138351
0.137835
0.148393
0.17278
0.213782
0.273999
0.355516
0.459513
0.586009
0.733738
0.900163
1.08165
1.27377
1.47163
1.67031
1.86516
2.05207
2.22875
2.39511
2.55348
2.7085
2.86645
3.03414
3.21747
3.42008
3.64175
3.87894
4.12604
4.37547
4.61848
4.84609
5.05007
5.2232
5.35965
5.45572
5.50905
5.51766
5.4794
5.39167
5.25149
5.0561
4.80379
4.49494
4.13405
3.72932
3.29166
2.83419
2.37135
1.91797
1.48779
1.09197
0.738254
0.429958
0.166335
-0.0566904
-0.245404
-0.407038
-0.548614
-0.676055
-0.793627
-0.903409
-1.00514
-1.09662
-1.17476
-1.23598
-1.27732
-1.29749
-1.29753
-1.28094
-1.25321
-1.22092
-1.19051
-1.16675
-1.15224
-1.14831
-1.15493
-1.17084
-1.19378
-1.22075
-1.24818
-1.27228
-1.28901
-1.29428
-1.28308
-1.24519
-1.15786
-1.00197
-0.815231
-0.652959
-0.569335
-0.595486
-0.724493
-0.912698
-1.09887
-1.23183
-1.2937
-1.31898
-1.32834
-1.32846
-1.3222
-1.31079
-1.29383
-1.26965
-1.23591
-1.19064
-1.13082
-1.05165
-0.949651
-0.835663
-0.733463
-0.669025
-0.661842
-0.717058
-0.822435
-0.952486
-1.07826
-1.1778
-1.24811
-1.29837
-1.33384
-1.35453
-1.35976
-1.34819
-1.31842
-1.26977
-1.2031
-1.12113
-1.0284
-0.930771
-0.834648
-0.746058
-0.67048
-0.611993
-0.573337
-0.555962
-0.560112
-0.584857
-0.628033
-0.686159
-0.754493
-0.827541
-0.897215
-0.955125
-0.994287
-1.01045
-1.00289
-0.974223
-0.929318
-0.873432
-0.810364
-0.741727
-0.666574
-0.582472
-0.487169
-0.376917
-0.252921
-0.127541
-0.0174264
0.0616186
0.0994292
0.0939614
0.0507669
-0.0198459
-0.106445
-0.199101
-0.291477
-0.380787
-0.465483
-0.544053
-0.614706
-0.675278
-0.723195
-0.755931
-0.771259
-0.767559
-0.744188
-0.701734
-0.642099
-0.568379
-0.484581
-0.393866
-0.293598
0
0.706358
1.89712
3.4355
5.00917
6.24147
6.79964
6.46597
5.18219
3.09107
0.550281
-1.932
-3.85123
-4.88584
-4.99583
-4.38592
-3.37325
-2.2529
-1.23232
-0.432579
0.090852
0.273174
0.311566
0.35214
0.399378
0.457331
0.528852
0.616753
0.720792
0.835493
0.95088
1.05432
1.13393
1.18162
1.19468
1.17734
1.14145
1.10585
1.09359
1.127
1.22173
1.37451
1.56777
1.78672
2.02187
2.26422
2.50714
2.74762
2.98642
3.22741
3.47625
3.73863
4.01863
4.31753
4.6376
4.97654
5.31572
5.62336
5.87076
6.03846
6.11881
6.1152
6.0391
5.90557
5.72874
5.51853
5.28389
5.0319
4.76727
4.49296
4.21089
3.92254
3.62912
3.33163
3.03085
2.72754
2.42281
2.11851
1.81752
1.52375
1.24185
0.976711
0.732891
0.514166
0.323264
0.161805
0.0303954
-0.0712572
-0.140687
-0.172257
-0.169547
-0.148624
-0.127275
-0.120078
-0.133693
-0.164684
-0.201063
-0.227039
-0.228939
-0.203833
-0.15915
-0.0990826
-0.0291453
0.0422006
0.103836
0.145508
0.15933
0.141042
0.0910904
0.0151875
-0.0760578
-0.168698
-0.248034
-0.30334
-0.333002
-0.33585
-0.314037
-0.273147
-0.220972
-0.165936
-0.115573
-0.0749021
-0.0468867
-0.0322468
-0.0298482
-0.0372486
-0.0509128
-0.0674706
-0.083877
-0.0975864
-0.106764
-0.110602
-0.109467
-0.104729
-0.0985464
-0.0936369
-0.0930896
-0.100869
-0.120466
-0.154773
-0.205369
-0.271775
-0.350963
-0.437361
-0.523408
-0.600559
-0.661101
-0.697939
-0.706393
-0.684661
-0.632029
-0.542292
-0.429551
-0.316896
-0.227011
-0.175458
-0.166068
-0.19055
-0.2324
-0.273086
-0.2976
-0.303324
-0.292733
-0.266719
-0.225247
-0.16755
-0.0898469
0.0143128
0.13851
0.257845
0.341566
0.364503
0.31929
0.22245
0.109961
0.0233075
-0.00772285
0.00977173
0.0508855
0.10373
0.158575
0.206467
0.240485
0.256247
0.251755
0.226842
0.182612
0.121904
0.048562
-0.0337683
-0.120778
-0.207507
-0.288881
-0.36048
-0.418629
-0.460785
-0.488396
-0.506765
-0.522501
-0.541564
-0.567533
-0.600609
-0.637588
-0.672113
-0.567994
0
0.904611
2.09095
3.48065
4.92894
6.16639
6.81422
6.51326
5.11505
2.81474
0.124133
-2.31319
-3.96572
-4.5949
-4.2987
-3.4186
-2.37773
-1.51682
-0.990249
-0.760264
-0.649809
-0.562424
-0.481201
-0.403875
-0.326966
-0.245171
-0.152726
-0.0453936
0.0776344
0.213619
0.354038
0.487845
0.604463
0.696587
0.761895
0.803403
0.828722
0.848764
0.875564
0.918778
0.988017
1.09099
1.23255
1.41409
1.63105
1.87827
2.14936
2.43706
2.73394
3.03371
3.33098
3.62126
3.90091
4.16705
4.41724
4.6493
4.86119
5.05101
5.21633
5.35325
5.45582
5.51817
5.53314
5.49287
5.39122
5.22624
5.0017
4.72687
4.41435
4.0766
3.72499
3.36588
3.00113
2.63092
2.25549
1.87617
1.49603
1.12015
0.755414
0.409711
0.0910103
-0.193704
-0.439316
-0.643245
-0.805538
-0.92803
-1.01438
-1.07039
-1.1022
-1.11555
-1.11533
-1.1055
-1.08926
-1.06915
-1.04865
-1.03184
-1.02262
-1.02386
-1.03657
-1.05943
-1.08909
-1.12111
-1.15116
-1.17636
-1.19596
-1.20983
-1.21818
-1.22132
-1.21943
-1.21238
-1.19983
-1.18155
-1.15763
-1.12852
-1.09541
-1.05979
-1.02319
-0.986936
-0.952207
-0.920305
-0.893535
-0.874748
-0.866982
-0.872745
-0.892844
-0.925636
-0.967184
-1.01238
-1.05655
-1.09673
-1.13213
-1.16282
-1.18852
-1.2076
-1.21692
-1.2128
-1.19278
-1.15522
-1.10498
-1.05058
-1.00203
-0.968206
-0.954904
-0.964008
-0.993733
-1.03942
-1.09375
-1.14928
-1.19947
-1.23813
-1.26019
-1.26245
-1.24413
-1.20708
-1.15545
-1.09504
-1.03244
-0.97416
-0.926826
-0.895239
-0.882145
-0.887955
-0.910536
-0.945295
-0.985727
-1.02446
-1.05465
-1.07129
-1.07382
-1.06332
-1.04159
-1.01127
-0.974947
-0.934618
-0.891229
-0.844933
-0.795539
-0.743086
-0.688317
-0.632845
-0.579152
-0.530051
-0.487891
-0.453861
-0.427508
-0.406635
-0.387612
-0.366062
-0.33777
-0.29959
-0.24875
-0.18506
-0.112989
-0.0425705
0.0138618
0.0452631
0.0445637
0.0103758
-0.0527983
-0.13607
-0.229046
-0.323187
-0.414575
-0.504336
-0.595222
-0.690122
-0.79249
-0.90559
-1.0309
-1.16514
-1.29696
-1.40988
-1.48742
-1.51624
-1.48874
-1.40523
-1.2747
-1.08257
-0.626319
0
0.89053
2.1211
3.62574
5.1179
6.12745
6.16918
4.97989
2.69538
-0.146458
-2.80141
-4.62219
-5.31157
-4.99536
-4.0901
-3.05843
-2.20175
-1.59766
-1.18253
-0.909419
-0.78918
-0.690595
-0.598738
-0.510217
-0.423694
-0.338572
-0.254747
-0.172555
-0.0926537
-0.0158293
0.0572214
0.126089
0.190806
0.251956
0.310735
0.368982
0.429178
0.49438
0.568108
0.654127
0.756162
0.87755
1.02091
1.18789
1.37905
1.59397
1.83147
2.08994
2.36759
2.66257
2.97288
3.29602
3.62867
3.96717
4.30256
4.61552
4.88478
5.09129
5.22339
5.28004
5.2709
5.21283
5.12357
5.01471
4.88742
4.73821
4.56428
4.35924
4.11676
3.83338
3.50927
3.14824
2.75775
2.34938
1.93339
1.52065
1.12182
0.746432
0.401973
0.09321
-0.178015
-0.412987
-0.615335
-0.790089
-0.942646
-1.07791
-1.19975
-1.31086
-1.41255
-1.50566
-1.59052
-1.66683
-1.7323
-1.78358
-1.81738
-1.83053
-1.82142
-1.79126
-1.74453
-1.68856
-1.63202
-1.5832
-1.54773
-1.52909
-1.52814
-1.54355
-1.5726
-1.61143
-1.65685
-1.70653
-1.75886
-1.81275
-1.86741
-1.92206
-1.97571
-2.02705
-2.0746
-2.11703
-2.15336
-2.18369
-2.20986
-2.23483
-2.26205
-2.2947
-2.33493
-2.38342
-2.43921
-2.49995
-2.56231
-2.62259
-2.67732
-2.72319
-2.75776
-2.77951
-2.78807
-2.78414
-2.76938
-2.74607
-2.7167
-2.68363
-2.64891
-2.61423
-2.58125
-2.55216
-2.52997
-2.51805
-2.51977
-2.53756
-2.57174
-2.61972
-2.67644
-2.73293
-2.77853
-2.80393
-2.80358
-2.7772
-2.7298
-2.67022
-2.60856
-2.55354
-2.50878
-2.47517
-2.45023
-2.42857
-2.4028
-2.36542
-2.31016
-2.23119
-2.12435
-1.98797
-1.8232
-1.63446
-1.42729
-1.20886
-0.987817
-0.772951
-0.573372
-0.400053
-0.264708
-0.171426
-0.123049
-0.119935
-0.157208
-0.222466
-0.296098
-0.355216
-0.380058
-0.361151
-0.311082
-0.242752
-0.163922
-0.0835159
-0.0101116
0.05023
0.0949219
0.125064
0.145013
0.16142
0.181892
0.213488
0.262051
0.335197
0.434382
0.547595
0.653506
0.730697
0.763463
0.745727
0.682334
0.587368
0.479628
0.376299
0.286494
0.208088
0.135309
0.064402
-0.00663071
-0.0775988
-0.145979
-0.207758
-0.258945
-0.297174
-0.32281
-0.338973
-0.350752
-0.363759
-0.382611
-0.409839
-0.470326
-0.456078
0
1.02911
2.60665
4.49453
6.26484
7.4043
7.47241
6.27049
3.95259
1.01471
-1.85255
-3.99857
-5.0322
-4.92995
-3.99698
-2.71239
-1.53457
-0.741642
-0.368232
-0.270214
-0.196092
-0.119015
-0.0373411
0.0520657
0.152195
0.26542
0.397046
0.551557
0.718365
0.875907
1.001
1.07657
1.09751
1.07273
1.02313
0.977043
0.9643
1.00152
1.0884
1.21978
1.39008
1.59308
1.82134
2.06671
2.32094
2.57732
2.8319
3.08395
3.33545
3.59002
3.85135
4.1217
4.40083
4.68559
4.97038
5.24711
5.50483
5.72964
5.90964
6.03924
6.11597
6.13991
6.11307
6.03861
5.91992
5.75945
5.55767
5.31586
5.03773
4.72592
4.38128
4.00454
3.59809
3.16685
2.71833
2.26232
1.81016
1.37388
0.965046
0.593639
0.267225
-0.00731049
-0.222314
-0.376212
-0.480684
-0.550797
-0.601997
-0.647427
-0.696036
-0.75182
-0.814148
-0.878872
-0.939774
-0.991028
-1.02859
-1.04962
-1.0496
-1.02146
-0.959302
-0.871569
-0.781453
-0.714809
-0.692957
-0.72637
-0.811504
-0.931912
-1.06322
-1.18022
-1.26671
-1.32356
-1.35693
-1.37102
-1.3675
-1.34844
-1.31599
-1.2724
-1.21984
-1.16008
-1.09549
-1.03015
-0.969213
-0.918128
-0.881822
-0.863872
-0.865897
-0.887278
-0.925262
-0.975355
-1.03173
-1.08844
-1.14022
-1.18275
-1.21337
-1.23135
-1.2363
-1.22823
-1.21063
-1.19105
-1.1774
-1.17583
-1.18895
-1.21495
-1.24798
-1.27983
-1.30219
-1.30974
-1.30305
-1.28266
-1.25009
-1.21201
-1.17805
-1.15768
-1.15826
-1.18338
-1.23209
-1.299
-1.37513
-1.44927
-1.51061
-1.55207
-1.56624
-1.54639
-1.44862
-1.19102
-0.835147
-0.49065
-0.266871
-0.228965
-0.369927
-0.615043
-0.857254
-1.00308
-1.00592
-0.942782
-0.830606
-0.696241
-0.579081
-0.51636
-0.53286
-0.631103
-0.786666
-0.953013
-1.07641
-1.11576
-1.08343
-1.01255
-0.920072
-0.813398
-0.699916
-0.586116
-0.476953
-0.376593
-0.288833
-0.216339
-0.160487
-0.122021
-0.100863
-0.0958984
-0.104948
-0.125073
-0.153137
-0.186442
-0.223052
-0.262009
-0.303266
-0.347328
-0.394907
-0.446671
-0.503008
-0.563768
-0.62816
-0.694341
-0.757873
-0.81249
-0.851152
-0.867378
-0.85657
-0.816927
-0.74973
-0.659012
-0.55084
-0.400805
0
0.646446
1.5748
2.7934
4.20382
5.53846
6.38284
6.32067
5.14032
2.98336
0.329281
-2.18639
-4.02335
-4.9261
-4.96382
-4.42581
-3.64741
-2.86245
-2.15362
-1.50781
-0.920824
-0.534995
-0.420576
-0.334522
-0.24823
-0.156547
-0.0563306
0.0537524
0.170092
0.284387
0.387356
0.471967
0.536025
0.58324
0.622468
0.665406
0.723514
0.804011
0.907483
1.03083
1.16988
1.32022
1.47755
1.63849
1.80141
1.96669
2.13657
2.31451
2.5044
2.70953
2.93189
3.17152
3.42634
3.69225
3.96342
4.23281
4.49126
4.72624
4.92738
5.08702
5.2004
5.26586
5.28455
5.25942
5.19384
5.09039
4.95013
4.77756
4.57635
4.34755
4.09145
3.80937
3.50373
3.17841
2.83801
2.48802
2.13465
1.78448
1.44419
1.12005
0.817517
0.540808
0.292596
0.073906
-0.115816
-0.278443
-0.416777
-0.534027
-0.633395
-0.717588
-0.788481
-0.846445
-0.891175
-0.922271
-0.93952
-0.94198
-0.930722
-0.909967
-0.8847
-0.859252
-0.836086
-0.815312
-0.795139
-0.772965
-0.746547
-0.715213
-0.679288
-0.638808
-0.593702
-0.543592
-0.487929
-0.426086
-0.35748
-0.284981
-0.216138
-0.160587
-0.127485
-0.122888
-0.148137
-0.199758
-0.27065
-0.351833
-0.433934
-0.509823
-0.575036
-0.625976
-0.659267
-0.670545
-0.654032
-0.604332
-0.522928
-0.425384
-0.335442
-0.275804
-0.26245
-0.30037
-0.381765
-0.487379
-0.591088
-0.666907
-0.700822
-0.698685
-0.66692
-0.609843
-0.542961
-0.483675
-0.447255
-0.443527
-0.475048
-0.537028
-0.618662
-0.705237
-0.780573
-0.83361
-0.859659
-0.854472
-0.815697
-0.736788
-0.613409
-0.469798
-0.335577
-0.237378
-0.191407
-0.19988
-0.252514
-0.331846
-0.419467
-0.500372
-0.568878
-0.623775
-0.66278
-0.680099
-0.661953
-0.58177
-0.423216
-0.229169
-0.059387
0.0297746
0.00565863
-0.126178
-0.318515
-0.494847
-0.577009
-0.518999
-0.373494
-0.188038
0.0204562
0.250091
0.502719
0.77554
1.04795
1.28025
1.42021
1.42893
1.30187
1.06958
0.783875
0.50415
0.287809
0.134023
0.0221558
-0.0599719
-0.115961
-0.150716
-0.170399
-0.181329
-0.189022
-0.197561
-0.209379
-0.225372
-0.245172
-0.267552
-0.291596
-0.313827
0
0.698068
1.75726
3.11425
4.65528
6.15137
7.21825
7.40286
6.39073
4.21458
1.31646
-1.5942
-3.81233
-4.89648
-4.79793
-3.82424
-2.47844
-1.24962
-0.44014
-0.0967562
-0.0714002
-0.0281213
0.0304516
0.101303
0.187566
0.291264
0.41229
0.548571
0.696268
0.850353
1.00543
1.15663
1.30042
1.43516
1.56125
1.68087
1.79741
1.9147
2.03622
2.16452
2.30087
2.44538
2.59736
2.75587
2.92037
3.09116
3.26967
3.45838
3.66049
3.87944
4.11831
4.37927
4.66309
4.96891
5.29834
5.65599
6.03536
6.40224
6.71283
6.9297
7.0302
7.01192
6.89378
6.71098
6.50196
6.29069
6.07465
5.84154
5.58795
5.31286
5.01417
4.69162
4.34784
3.98787
3.61844
3.24658
2.87895
2.52115
2.17742
1.85064
1.54262
1.25446
0.986922
0.740729
0.516635
0.315417
0.137766
-0.015228
-0.142934
-0.245659
-0.324207
-0.37989
-0.414534
-0.430437
-0.430327
-0.417284
-0.394673
-0.365687
-0.334014
-0.30342
-0.277077
-0.257136
-0.244374
-0.23806
-0.236145
-0.235767
-0.233917
-0.228067
-0.216712
-0.199115
-0.174812
-0.143378
-0.10422
-0.0565679
0.00278249
0.0756759
0.151375
0.209447
0.226196
0.183691
0.0782618
-0.0756679
-0.248455
-0.403839
-0.509922
-0.554463
-0.502792
-0.384116
-0.252905
-0.163542
-0.150965
-0.219858
-0.34523
-0.48344
-0.589273
-0.63248
-0.628239
-0.598926
-0.55615
-0.506642
-0.457603
-0.416115
-0.387307
-0.373823
-0.37553
-0.389579
-0.41089
-0.433118
-0.449982
-0.456684
-0.451363
-0.436021
-0.413832
-0.388795
-0.365503
-0.34836
-0.340914
-0.345349
-0.362154
-0.389929
-0.425325
-0.463269
-0.497
-0.51889
-0.521607
-0.493132
-0.408634
-0.264321
-0.0949373
0.055396
0.149492
0.169202
0.118565
0.0186348
-0.101429
-0.212208
-0.294
-0.345052
-0.36865
-0.367696
-0.345252
-0.30499
-0.250827
-0.187056
-0.117626
-0.0456366
0.0270667
0.0996941
0.172137
0.244426
0.316066
0.384989
0.446971
0.496668
0.529017
0.540995
0.532795
0.507869
0.471778
0.430348
0.387916
0.346292
0.305298
0.264182
0.222125
0.178706
0.1342
0.0896485
0.0467287
0.00736773
-0.0264866
-0.0532188
-0.0718624
-0.0822042
-0.0845911
-0.0808079
-0.0732067
-0.064258
-0.0561437
-0.0523054
-0.181026
0
0.759719
2.13471
3.88596
5.57645
6.71738
6.92281
6.02501
4.13503
1.63314
-0.924881
-2.97612
-4.1399
-4.33871
-3.78838
-2.86431
-1.92075
-1.16736
-0.65383
-0.350804
-0.204772
-0.0462195
0.122428
0.300085
0.486614
0.681912
0.878816
1.063
1.2193
1.33669
1.41216
1.45196
1.46978
1.48278
1.50697
1.55166
1.61616
1.69827
1.79645
1.90862
2.03252
2.16649
2.31005
2.46433
2.63215
2.81774
3.02611
3.26214
3.5295
3.82959
4.16075
4.51787
4.89249
5.27361
5.64716
5.99753
6.31095
6.57696
6.78901
6.94428
7.03944
7.07402
7.04952
6.96728
6.82879
6.6368
6.39619
6.11446
5.80116
5.4668
5.12268
4.77627
4.43235
4.09407
3.76321
3.44083
3.1279
2.82587
2.5369
2.26391
2.01025
1.7793
1.57409
1.397
1.24957
1.13243
1.04598
0.994867
0.991356
1.03361
1.08907
1.11819
1.08703
0.981241
0.814402
0.624869
0.461366
0.363505
0.329073
0.34572
0.399393
0.471987
0.547506
0.617366
0.681199
0.740296
0.796479
0.851758
0.907503
0.963731
1.01793
1.06563
1.10222
1.12493
1.13409
1.13322
1.12769
1.1224
1.11981
1.1172
1.10749
1.08209
1.03486
0.965337
0.879855
0.790224
0.710445
0.652665
0.618276
0.605981
0.614287
0.639114
0.674629
0.714138
0.750988
0.779223
0.793189
0.788278
0.761095
0.709654
0.633732
0.53523
0.41838
0.289083
0.155722
0.0288869
-0.0811794
-0.166079
-0.220454
-0.242641
-0.234708
-0.201937
-0.151912
-0.093406
-0.0351342
0.0156127
0.0533131
0.0747469
0.0792153
0.0684176
0.045991
0.0167638
-0.0141828
-0.0425632
-0.0657715
-0.0829096
-0.0948018
-0.104305
-0.115032
-0.130116
-0.151095
-0.17723
-0.20547
-0.231096
-0.248838
-0.2541
-0.244763
-0.221044
-0.18385
-0.134344
-0.0739398
-0.0039959
0.0744941
0.160792
0.254883
0.355135
0.455032
0.544772
0.613772
0.653263
0.658428
0.62936
0.570771
0.490889
0.400041
0.309136
0.225856
0.154982
0.0994423
0.0603435
0.0365435
0.0251013
0.0220493
0.023254
0.025098
0.0250589
0.0214596
0.0132832
0
-0.0343878
-0.0738993
-0.11806
-0.166032
-0.217779
-0.281406
-0.13557
0.404468
1.46662
2.98749
4.63766
5.88682
6.20652
5.32154
3.36926
0.868102
-1.49663
-3.15695
-3.86737
-3.73377
-3.11007
-2.35271
-1.70332
-1.23644
-0.939
-0.790217
-0.678816
-0.582367
-0.496817
-0.421795
-0.357722
-0.304937
-0.262931
-0.230573
-0.205863
-0.185714
-0.165976
-0.141777
-0.108128
-0.0605787
0.00429001
0.0878422
0.190477
0.312737
0.455233
0.618489
0.802665
1.00701
1.22921
1.46501
1.70922
1.95304
2.18641
2.40211
2.59823
2.77935
2.95592
3.14189
3.35148
3.59841
3.93984
4.45219
5.05622
5.5685
5.92775
6.1283
6.16229
6.01371
5.68879
5.24533
4.79035
4.4474
4.24992
4.09842
3.94311
3.77163
3.57658
3.34997
3.08757
2.78991
2.46264
2.11609
1.76386
1.42188
1.1055
0.827149
0.59475
0.411005
0.273589
0.176105
0.110556
0.0687096
0.0395256
0.0130665
-0.0176414
-0.056123
-0.102554
-0.154435
-0.207731
-0.258176
-0.302412
-0.339317
-0.369382
-0.393105
-0.411393
-0.42522
-0.435389
-0.442421
-0.446532
-0.447665
-0.445425
-0.439108
-0.427759
-0.410314
-0.385815
-0.353636
-0.313685
-0.266637
-0.213717
-0.15669
-0.0978287
-0.0398106
0.0142139
0.0609032
0.0973824
0.121548
0.132469
0.130628
0.117937
0.0974831
0.0730537
0.0485924
0.0276207
0.0126442
0.00513687
0.0057869
0.014344
0.0302414
0.0520256
0.0777062
0.105714
0.135403
0.167271
0.202805
0.243973
0.292545
0.349475
0.414112
0.484832
0.559734
0.636628
0.713323
0.787894
0.858865
0.925307
0.986813
1.04336
1.09512
1.14194
1.18286
1.21646
1.24138
1.25636
1.26098
1.25606
1.24363
1.22615
1.2056
1.18253
1.15585
1.12314
1.08159
1.02907
0.964762
0.88932
0.804579
0.71298
0.617425
0.520391
0.42379
0.329311
0.238539
0.152956
0.0738731
0.0024498
-0.0602058
-0.112916
-0.154746
-0.184866
-0.202709
-0.208193
-0.20192
-0.185306
-0.160538
-0.130397
-0.0979378
-0.0661285
-0.0376114
-0.0140961
0.00408249
0.0180748
0.0304207
0.0446472
0.0645073
0.0930145
0.132794
0.184597
0.241116
0.291582
0.324784
0.332124
0.309554
0.257802
0.181292
0.0867188
-0.017662
-0.122574
-0.217883
-0.292675
-0.337154
-0.345332
-0.317514
-0.261237
-0.189883
-0.11916
-0.062648
-0.0247192
-0.0049881
0
0.00161514
-0.000752258
0.379459
1.0796
2.06909
3.27622
4.55389
5.65656
6.26316
6.0642
4.89649
2.86545
0.375432
-1.97895
-3.63435
-4.28526
-4.00288
-3.1432
-2.1388
-1.28202
-0.647195
-0.239142
-0.172895
-0.153622
-0.169639
-0.202398
-0.222226
-0.201748
-0.128477
-0.0175369
0.109216
0.243133
0.377596
0.508579
0.634444
0.754475
0.869401
0.980605
1.09062
1.2036
1.32503
1.4605
1.6141
1.78749
1.97765
2.1835
2.40542
2.64555
2.90734
3.19412
3.50703
3.84327
4.19472
4.55067
4.90076
5.23521
5.54645
5.8299
6.08336
6.30599
6.49782
6.6594
6.79075
6.89001
6.9521
6.96914
6.93278
6.83644
6.67702
6.45579
6.17821
5.85288
5.49222
5.10979
4.71619
4.31805
3.92051
3.52834
3.14578
2.77628
2.42224
2.08476
1.76374
1.45824
1.16714
0.889815
0.626809
0.380063
0.152971
-0.0499878
-0.224125
-0.366216
-0.474603
-0.54947
-0.592729
-0.607606
-0.59807
-0.568318
-0.522433
-0.464349
-0.397212
-0.324791
-0.252489
-0.186467
-0.132717
-0.0961212
-0.0794922
-0.0830002
-0.104176
-0.138532
-0.180584
-0.224963
-0.26768
-0.306682
-0.341379
-0.371999
-0.399144
-0.423492
-0.445386
-0.464506
-0.479742
-0.489294
-0.490989
-0.482779
-0.463026
-0.430962
-0.387205
-0.33468
-0.279369
-0.229234
-0.192282
-0.175152
-0.181855
-0.21291
-0.265037
-0.331512
-0.40318
-0.469948
-0.52348
-0.559289
-0.575401
-0.571339
-0.549205
-0.512457
-0.466865
-0.418715
-0.373424
-0.334616
-0.30366
-0.279738
-0.26039
-0.242352
-0.222434
-0.198476
-0.169499
-0.13503
-0.0951653
-0.0504738
-0.00137634
0.0521256
0.110452
0.174119
0.243727
0.319324
0.39661
0.467755
0.523981
0.558474
0.568937
0.558627
0.535525
0.510144
0.492989
0.490075
0.502608
0.531131
0.577847
0.645741
0.735078
0.835271
0.927171
0.99026
1.00825
0.974342
0.894135
0.784802
0.670699
0.576721
0.516977
0.488326
0.484437
0.505239
0.547312
0.602412
0.66023
0.71142
0.749227
0.770563
0.776392
0.771371
0.76285
0.759418
0.768729
0.795159
0.844453
0.925304
1.037
1.15643
1.25478
1.30645
1.29818
1.23503
1.14007
1.04683
0.986682
0.975658
0.997717
1.03933
1.08041
1.09967
1.08003
1.01266
0.898824
0.74957
0.583167
0.420989
0.279784
0.165915
0.0789886
0.0198006
-0.0126587
-0.0221886
-0.0151405
0
0.0302345
0.0510254
0.056292
0.042844
0.0107349
-0.0368824
-0.0987514
-0.235181
-0.0299152
0.743428
2.16768
4.07094
5.98861
7.26208
7.28558
5.80974
3.13094
0.0171627
-2.62708
-4.17288
-4.50763
-3.97146
-3.07019
-2.18519
-1.45475
-0.847817
-0.314606
0.0264915
0.162321
0.244728
0.304617
0.349557
0.384026
0.41343
0.443414
0.478875
0.523053
0.577975
0.645298
0.726144
0.818692
0.916867
1.01298
1.10037
1.17571
1.24071
1.30252
1.37255
1.46385
1.58774
1.74874
1.94343
2.16437
2.4042
2.6569
2.91744
3.18242
3.45037
3.72137
3.99619
4.27518
4.55734
4.83985
5.11733
5.38201
5.62489
5.83686
6.00923
6.1351
6.21044
6.23271
6.20059
6.11384
5.97319
5.78006
5.53627
5.2438
4.90712
4.5352
4.13574
3.71435
3.27853
2.83744
2.40121
1.98005
1.58319
1.21815
0.890246
0.602465
0.355566
0.148493
-0.0211893
-0.157747
-0.266387
-0.352776
-0.422515
-0.480633
-0.531177
-0.57697
-0.619539
-0.659203
-0.695317
-0.726492
-0.750945
-0.766895
-0.772925
-0.767915
-0.75141
-0.725505
-0.695013
-0.665519
-0.642015
-0.627548
-0.622347
-0.623687
-0.626518
-0.624693
-0.612929
-0.588809
-0.551635
-0.500674
-0.438121
-0.369716
-0.302617
-0.244246
-0.201154
-0.17807
-0.177235
-0.198066
-0.237169
-0.288701
-0.345105
-0.399338
-0.445495
-0.477546
-0.493462
-0.494483
-0.48388
-0.465598
-0.443141
-0.419105
-0.395424
-0.373998
-0.357162
-0.347256
-0.346603
-0.35646
-0.376388
-0.404137
-0.436167
-0.468626
-0.498527
-0.524587
-0.546484
-0.564815
-0.580579
-0.59464
-0.607412
-0.61886
-0.62873
-0.636837
-0.643683
-0.6501
-0.656629
-0.662751
-0.666391
-0.664017
-0.651447
-0.625089
-0.583623
-0.527679
-0.46069
-0.389075
-0.321176
-0.265441
-0.228658
-0.214688
-0.223679
-0.251868
-0.292067
-0.334839
-0.370218
-0.389622
-0.389083
-0.36845
-0.328873
-0.274322
-0.211243
-0.148979
-0.0977908
-0.0661794
-0.0593971
-0.0782139
-0.11821
-0.169983
-0.220558
-0.255917
-0.264125
-0.2401
-0.170986
-0.0629512
0.0605893
0.172816
0.251382
0.28384
0.269408
0.217589
0.145033
0.0719089
0.0164228
-0.0121135
-0.0105735
0.0420425
0.209776
0.563264
1.02688
1.46621
1.79602
1.96814
1.96329
1.78609
1.46446
1.0535
0.643153
0.3583
0.226318
0.177596
0.166382
0.178482
0.208276
0.243461
0.267668
0.265257
0.224239
0.138624
0.0094409
-0.155948
-0.34594
-0.547292
-0.746913
-0.579687
0
0.973568
2.39489
4.21657
6.19167
7.87095
8.71742
8.30925
6.54267
3.73061
0.526538
-2.31058
-4.20294
-4.94457
-4.7057
-3.87176
-2.83251
-1.84276
-1.00503
-0.336061
0.163013
0.432382
0.549418
0.64804
0.740256
0.828227
0.912189
0.992427
1.0695
1.1445
1.21919
1.29591
1.37722
1.46534
1.56159
1.66607
1.77777
1.89503
2.0163
2.14106
2.27034
2.40682
2.55442
2.71731
2.89895
3.10111
3.32266
3.56084
3.81172
4.07039
4.33158
4.5901
4.84118
5.08057
5.30418
5.50834
5.69031
5.84791
5.97942
6.08286
6.15574
6.19582
6.20075
6.16766
6.09353
5.97575
5.81289
5.60544
5.35622
5.0704
4.75597
4.42214
4.0772
3.72826
3.3813
3.04093
2.71041
2.39187
2.08683
1.79662
1.52278
1.26712
1.03173
0.818572
0.62922
0.464437
0.324044
0.206955
0.111388
0.0352259
-0.0237936
-0.0678083
-0.0987457
-0.118346
-0.128252
-0.130108
-0.125637
-0.116619
-0.10488
-0.0922264
-0.0802074
-0.0698454
-0.0613905
-0.0541386
-0.0463867
-0.035577
-0.0186455
0.00746403
0.0451111
0.0967629
0.164366
0.246936
0.336841
0.420974
0.485868
0.521096
0.52209
0.491448
0.43816
0.374851
0.31398
0.264332
0.227632
0.201864
0.186699
0.182546
0.190668
0.212897
0.257713
0.332132
0.422061
0.504399
0.556473
0.567085
0.542292
0.502006
0.469122
0.457322
0.461491
0.468829
0.467501
0.447598
0.404736
0.341637
0.267279
0.194029
0.133821
0.0922287
0.0681561
0.0591583
0.0622276
0.0729904
0.0865669
0.098349
0.104414
0.1022
0.0907272
0.0707481
0.0447193
0.0165127
-0.00920982
-0.0279388
-0.0340511
-0.0234627
-0.00131912
0.0200283
0.0260983
0.00557938
-0.0450603
-0.119429
-0.202382
-0.274187
-0.316301
-0.323201
-0.299825
-0.248523
-0.175518
-0.0892826
0.00144844
0.0896702
0.17174
0.24609
0.313258
0.375294
0.434964
0.494967
0.557288
0.622784
0.690911
0.759137
0.82103
0.865396
0.879623
0.851846
0.774762
0.649268
0.486293
0.305525
0.130926
-0.0156345
-0.127027
-0.198908
-0.235218
-0.247329
-0.249713
-0.256123
-0.276481
-0.315025
-0.369916
-0.434213
-0.497976
-0.551067
-0.586354
-0.602744
-0.604343
-0.582637
-0.380394
0
0.758314
2.04822
3.79518
5.63482
7.0038
7.35978
6.42009
4.29686
1.46204
-1.43042
-3.77215
-5.17612
-5.55025
-5.07246
-4.09491
-3.00931
-2.11108
-1.51036
-1.13653
-0.857705
-0.677874
-0.531823
-0.407218
-0.302722
-0.219048
-0.154728
-0.106341
-0.0689533
-0.0366955
-0.00344429
0.0363743
0.0873054
0.152325
0.232523
0.326842
0.4327
0.547266
0.667892
0.792935
0.922354
1.05794
1.2031
1.36217
1.53952
1.73853
1.96066
2.20485
2.46755
2.74293
3.0235
3.30102
3.56749
3.81603
4.04147
4.24056
4.41071
4.55112
4.66315
4.74852
4.80872
4.8444
4.85508
4.83812
4.79035
4.70779
4.58643
4.42314
4.2165
3.96737
3.67904
3.35704
3.00936
2.64565
2.27405
1.90284
1.54002
1.19292
0.867749
0.569265
0.300499
0.0627033
-0.144521
-0.32293
-0.475194
-0.60449
-0.714095
-0.807013
-0.88576
-0.952301
-1.00811
-1.05393
-1.09031
-1.11857
-1.14011
-1.15619
-1.16777
-1.1753
-1.17878
-1.17786
-1.17206
-1.16096
-1.1441
-1.12107
-1.09164
-1.05583
-1.0136
-0.968578
-0.928276
-0.901641
-0.896195
-0.915028
-0.954962
-1.00672
-1.05705
-1.09196
-1.10304
-1.09033
-1.05525
-0.997169
-0.915998
-0.81691
-0.712064
-0.615815
-0.541401
-0.49887
-0.493737
-0.526513
-0.592986
-0.684956
-0.791151
-0.898193
-0.994319
-1.07102
-1.12262
-1.14371
-1.12145
-1.04143
-0.899554
-0.711234
-0.51201
-0.340858
-0.226757
-0.190067
-0.242225
-0.379952
-0.577614
-0.785966
-0.943521
-0.999273
-0.959937
-0.817215
-0.629683
-0.472327
-0.40444
-0.445225
-0.568492
-0.718338
-0.837386
-0.892835
-0.90594
-0.902387
-0.891039
-0.876706
-0.861417
-0.844125
-0.821451
-0.789213
-0.744181
-0.685901
-0.617192
-0.541918
-0.46456
-0.389676
-0.321042
-0.26109
-0.210698
-0.169207
-0.134658
-0.104089
-0.0738915
-0.0402325
0.000416946
0.0506844
0.111736
0.182648
0.26148
0.344202
0.425568
0.500635
0.565921
0.620254
0.665087
50
265
490
708
913
1122
1327
1546
1776
1998
2213
2433
2648
2873
3112
3346
3563
0
0
0
0
0
0
0
0
0
0
0
0
0
0
0
0
0
0
0
0
0
0
0
0
0
0
0
0
0
0
0
0
0
0
0
0
0
0
0
0
0
0
0
0
0
0
0
0
0
0
0
0
0
0
0
0
0
0
0
0
0
0
0
0
0
0
0
0
0
0
0
0
0
0
0
0
0
0
0
0
0
0
0
0
0
0
0
0
0
0
0
0
0
0
0
0
0
0
0
0
0
0
0
0
0
0
0
0
0
0
0
0
0
0
0
0
0
0
0
0
0
0
0
0
0
0
0
0
0
0
0
0
0
0
0
0
0
0
0
0
0
0
0
0
0
0
0
0
0
0
0
0
0
0
0
0
0
0
0
0
0
0
0
0
0
0
0
0
0
0
0
0
0
0
0
0
0
0
0
0
0
0
0
0
0
0
0
0
0
0
0
0
0
0
0
0
0
0
0
0
0
0
0
0
0
0
0
0
0
0
0
0
0
0
0
0
0
0
0
0
0
0
0
0
0
0
0
0
0
0
0
0
0
0
0
0
0
0
0
0
0
0
0
0
0
0
0
0
0
0
0
0
0
0
0
0
0
0
0
0
0
0
0
0
0
0
0
0
0
0
0
0
0
0
0
0
0
0
0
0
0
0
0
0
0
0
0
0
0
0
0
0
0
0
0
0
0
0
0
0
0
0
0
0
0
0
0
0
0
0
0
0
0
0
0
0
0
0
0
0
0
0
0
0
0
0
0
0
0
0
0
0
0
0
0
0
0
0
0
0
0
0
0
0
0
0
0
0
0
0
0
0
0
0
0
0
0
0
0
0
0
0
0
0
0
0
0
0
0
0
0
0
0
0
0
0
0
0
0
0
0
0
0
0
0
0
0
0
0
0
0
0
0
0
0
0
0
0
0
0
0
0
0
0
0
0
0
0
0
0
0
0
0
0
0
0
0
0
0
0
0
0
0
0
0
0
0
0
0
0
0
0
0
0
0
0
0
0
0
0
0
0
0
0
0
0
0
0
0
0
0
0
0
0
0
0
0
0
0
0
0
0
0
0
0
0
0
0
0
0
0
0
0
0
0
0
0
0
0
0
0
0
0
0
0
0
0
0
0
0
0
0
0
0
0
0
0
0
0
0
0
0
0
0
0
0
0
0
0
0
0
0
0
0
0
0
0
0
0
0
0
0
0
0
0
0
0
0
0
0
0
0
0
0
0
0
0
0
0
0
0
0
0
0
0
0
0
0
0
0
0
0
0
0
0
0
0
0
0
0
0
0
0
0
0
0
0
0
0
0
0
0
0
0
0
0
0
0
0
0
0
0
0
0
0
0
0
0
0
0
0
0
0
0
0
0
0
0
0
0
0
0
0
0
0
0
0
0
0
0
0
0
0
0
0
0
0
0
0
0
0
0
0
0
0
0
0
0
0
0
0
0
0
0
0
0
0
0
0
0
0
0
0
0
0
0
0
0
0
0
0
0
0
0
0
0
0
0
0
0
0
0
0
0
0
0
0
0
0
0
0
0
0
0
0
0
0
0
0
0
0
0
0
0
0
0
0
0
0
0
0
0
0
0
0
0
0
0
0
0
0
0
0
0
0
0
0
0
0
0
0
0
0
0
0
0
0
0
0
0
0
0
0
0
0
0
0
0
0
0
0
0
0
0
0
0
0
0
0
0
0
0
0
0
0
0
0
0
0
0
0
0
0
0
0
0
0
0
0
0
0
0
0
0
0
0
0
0
0
0
0
0
0
0
0
0
0
0
0
0
0
0
0
0
0
0
0
0
0
0
0
0
0
0
0
0
0
0
0
0
0
0
0
0
0
0
0
0
0
0
0
0
0
0
0
0
0
0
0
0
0
0
0
0
0
0
0
0
0
0
0
0
0
0
0
0
0
0
0
0
0
0
0
0
0
0
0
0
0
0
0
0
0
0
0
0
0
0
0
0
0
0
0
0
0
0
0
0
0
0
0
0
0
0
0
0
0
0
0
0
0
0
0
0
0
0
0
0
0
0
0
0
0
0
0
0
0
0
0
0
0
0
0
0
0
0
0
0
0
0
0
0
0
0
0
0
0
0
0
0
0
0
0
0
0
0
0
0
0
0
0
0
0
0
0
0
0
0
0
0
0
0
0
0
0
0
0
0
0
0
0
0
0
0
0
0
0
0
0
0
0
0
0
0
0
0
0
0
0
0
0
0
0
0
0
0
0
0
0
0
0
0
0
0
0
0
0
0
0
0
0
0
0
0
0
0
0
0
0
0
0
0
0
0
0
0
0
0
0
0
0
0
0
0
0
0
0
0
0
0
0
0
0
0
0
0
0
0
0
0
0
0
0
0
0
0
0
0
0
0
0
0
0
0
0
0
0
0
0
0
0
0
0
0
0
0
0
0
0
0
0
0
0
0
0
0
0
0
0
0
0
0
0
0
0
0
0
0
0
0
0
0
0
0
0
0
0
0
0
0
0
0
0
0
0
0
0
0
0
0
0
0
0
0
0
0
0
0
0
0
0
0
0
0
0
0
0
0
0
0
0
0
0
0
0
0
0
0
0
0
0
0
0
0
0
0
0
0
0
0
0
0
0
0
0
0
0
0
0
0
0
0
0
0
0
0
0
0
0
0
0
0
0
0
0
0
0
0
0
0
0
0
0
0
0
0
0
0
0
0
0
0
0
0
0
0
0
0
0
0
0
0
0
0
0
0
0
0
0
0
0
0
0
0
0
0
0
0
0
0
0
0
0
0
0
0
0
0
0
0
0
0
0
0
0
0
0
0
0
0
0
0
0
0
0
0
0
0
0
0
0
0
0
0
0
0
0
0
0
0
0
0
0
0
0
0
0
0
0
0
0
0
0
0
0
0
0
0
0
0
0
0
0
0
0
0
0
0
0
0
0
0
0
0
0
0
0
0
0
0
0
0
0
0
0
0
0
0
0
0
0
0
0
0
0
0
0
0
0
0
0
0
0
0
0
0
0
0
0
0
0
0
0
0
0
0
0
0
0
0
0
0
0
0
0
0
0
0
0
0
0
0
0
0
0
0
0
0
0
0
0
0
0
0
0
0
0
0
0
0
0
0
0
0
0
0
0
0
0
0
0
0
0
0
0
0
0
0
0
0
0
0
0
0
0
0
0
0
0
0
0
0
0
0
0
0
0
0
0
0
0
0
0
0
0
0
0
0
0
0
0
0
0
0
0
0
0
0
0
0
0
0
0
0
0
0
0
0
0
0
0
0
0
0
0
0
0
0
0
0
0
0
0
0
0
0
0
0
0
0
0
0
0
0
0
0
0
0
0
0
0
0
0
0
0
0
0
0
0
0
0
0
0
0
0
0
0
0
0
0
0
0
0
0
0
0
0
0
0
0
0
0
0
0
0
0
0
0
0
0
0
0
0
0
0
0
0
0
0
0
0
0
0
0
0
0
0
0
0
0
0
0
0
0
0
0
0
0
0
0
0
0
0
0
0
0
0
0
0
0
0
0
0
0
0
0
0
0
0
0
0
0
0
0
0
0
0
0
0
0
0
0
0
0
0
0
0
0
0
0
0
0
0
0
0
0
0
0
0
0
0
0
0
0
0
0
0
0
0
0
0
0
0
0
0
0
0
0
0
0
0
0
0
0
0
0
0
0
0
0
0
0
0
0
0
0
0
0
0
0
0
0
0
0
0
0
0
0
0
0
0
0
0
0
0
0
0
0
0
0
0
0
0
0
0
0
0
0
0
0
0
0
0
0
0
0
0
0
0
0
0
0
0
0
0
0
0
0
0
0
0
0
0
0
0
0
0
0
0
0
0
0
0
0
0
0
0
0
0
0
0
0
0
0
0
0
0
0
0
0
0
0
0
0
0
0
0
0
0
0
0
0
0
0
0
0
0
0
0
0
0
0
0
0
0
0
0
0
0
0
0
0
0
0
0
0
0
0
0
0
0
0
0
0
0
0
0
0
0
0
0
0
0
0
0
0
0
0
0
0
0
0
0
0
0
0
0
0
0
0
0
0
0
0
0
0
0
0
0
0
0
0
0
0
0
0
0
0
0
0
0
0
0
0
0
0
0
0
0
0
0
0
0
0
0
0
0
0
0
0
0
0
0
0
0
0
0
0
0
0
0
0
0
0
0
0
0
0
0
0
0
0
0
0
0
0
0
0
0
0
0
0
0
0
0
0
0
0
0
0
0
0
0
0
0
0
0
0
0
0
0
0
0
0
0
0
0
0
0
0
0
0
0
0
0
0
0
0
0
0
0
0
0
0
0
0
0
0
0
0
0
0
0
0
0
0
0
0
0
0
0
0
0
0
0
0
0
0
0
0
0
0
0
0
0
0
0
0
0
0
0
0
0
0
0
0
0
0
0
0
0
0
0
0
0
0
0
0
0
0
0
0
0
0
0
0
0
0
0
0
0
0
0
0
0
0
0
0
0
0
0
0
0
0
0
0
0
0
0
0
0
0
0
0
0
0
0
0
0
0
0
0
0
0
0
0
0
0
0
0
0
0
0
0
0
0
0
0
0
0
0
0
0
0
0
0
0
0
0
0
0
0
0
0
0
0
0
0
0
0
0
0
0
0
0
0
0
0
0
0
0
0
0
0
0
0
0
0
0
0
0
0
0
0
0
0
0
0
0
0
0
0
0
0
0
0
0
0
0
0
0
0
0
0
0
0
0
0
0
0
0
0
0
0
0
0
0
0
0
0
0
0
0
0
0
0
0
0
0
0
0
0
0
0
0
0
0
0
0
0
0
0
0
0
0
0
0
0
0
0
0
0
0
0
0
0
0
0
0
0
0
0
0
0
0
0
0
0
0
0
0
0
0
0
0
0
0
0
0
0
0
0
0
0
0
0
0
0
0
0
0
0
0
0
0
0
0
0
0
0
0
0
0
0
0
0
0
0
0
0
0
0
0
0
0
0
0
0
0
0
0
0
0
0
0
0
0
0
0
0
0
0
0
0
0
0
0
0
0
0
0
0
0
0
0
0
0
0
0
0
0
0
0
0
0
0
0
0
0
0
0
0
0
0
0
0
0
0
0
0
0
0
0
0
0
0
0
0
0
0
0
0
0
0
0
0
0
0
0
0
0
0
0
0
0
0
0
0
0
0
0
0
0
0
0
0
0
0
0
0
0
0
0
0
0
0
0
0
0
0
0
0
0
0
0
0
0
0
0
0
0
0
0
0
0
0
0
0
0
0
0
0
0
0
0
0
0
0
0
0
0
0
0
0
0
0
0
0
0
0
0
0
0
0
0
0
0
0
0
0
0
0
0
0
0
0
0
0
0
0
0
0
0
0
0
0
0
0
0
0
0
0
0
0
0
0
0
0
0
0
0
0
0
0
0
0
0
0
0
0
0
0
0
0
0
0
0
0
0
0
0
0
0
0
0
0
0
0
0
0
0
0
0
0
0
0
0
0
0
0
0
0
0
0
0
0
0
0
0
0
0
0
0
0
0
0
0
0
0
0
0
0
0
0
0
0
0
0
0
0
0
0
0
0
0
0
0
0
0
0
0
0
0
0
0
0
0
0
0
0
0
0
0
0
0
0
0
0
0
0
0
0
0
0
0
0
0
0
0
0
0
0
0
0
0
0
0
0
0
0
0
0
0
0
0
0
0
0
0
0
0
0
0
0
0
0
0
0
0
0
0
0
0
0
0
0
0
0
0
0
0
0
0
0
0
0
0
0
0
0
0
0
0
0
0
0
0
0
0
0
0
0
0
0
0
0
0
0
0
0
0
0
0
0
0
0
0
0
0
0
0
0
0
0
0
0
0
0
0
0
0
0
0
0
0
0
0
0
0
0
0
0
0
0
0
0
0
0
0
0
0
0
0
0
0
0
0
0
0
0
0
0
0
0
0
0
0
0
0
0
0
0
0
0
0
0
0
0
0
0
0
0
0
0
0
0
0
0
0
0
0
0
0
0
0
0
0
0
0
0
0
0
0
0
0
0
0
0
0
0
0
0
0
0
0
0
0
0
0
0
0
0
0
0
0
0
0
0
0
0
0
0
0
0
0
0
0
0
0
0
0
0
0
0
0
0
0
0
0
0
0
0
0
0
0
0
0
0
0
0
0
0
0
0
0
0
0
0
0
0
0
0
0
0
0
0
0
0
0
0
0
0
0
0
0
0
0
0
0
0
0
0
0
0
0
0
0
0
0
0
0
0
0
0
0
0
0
0
0
0
0
0
0
0
0
0
0
0
0
0
0
0
0
0
0
0
0
0
0
0
0
0
0
0
0
0
0
0
0
0
0
0
0
0
0
0
0
0
0
0
0
0
0
0
0
0
0
0
0
0
0
0
0
0
0
0
0
0
0
0
0
0
0
0
0
0
0
0
0
0
0
0
0
0
0
0
0
0
0
0
0
0
0
0
0
0
0
0
0
0
0
0
0
0
0
0
0
0
0
0
0
0
0
0
0
0
0
0
0
0
0
0
0
0
0
0
0
0
0
0
0
0
0
0
0
0
0
0
0
0
0
0
0
0
0
0
0
0
0
0
0
0
0
0
0
0
0
0
0
0
0
0
0
0
0
0
0
0
0
0
0
0
0
0
0
0
0
0
0
0
0
0
0
0
0
0
0
0
0
0
0
0
0
0
0
0
0
0
0
0
0
0
0
0
0
0
0
0
0
0
0
0
0
0
0
0
0
0
0
0
0
0
0
0
0
0
0
0
0
0
0
0
0
0
0
0
0
0
0
0
0
0
0
0
0
0
0
0
0
0
0
0
0
0
0
0
0
0
0
0
0
0
0
0
0
0
0
0
0
0
0
0
0
0
0
0
0
0
0
0
0
0
0
0
0
0
0
0
0
0
0
0
0
0
0
0
0
0
0
0
0
0
0
0
0
0
0
0
0
0
0
0
0
0
0
0
0
0
0
0
0
0
0
0
0
0
0
0
0
0
0
0
0
0
0
0
0
0
0
0
0
0
0
0
0
0
0
0
0
0
0
0
0
0
0
0
0
0
0
0
0
0
0
0
0
0
0
0
0
0
0
0
0
0
0
0
0
0
0
0
0
0
0
0
0
0
0
0
0
0
0
0
0
0
0
0
0
0
0
0
0
0
0
0
0
0
0
0
0
0
0
0
0
0
0
0
0
0
0
0
0
0
0
0
0
0
0
0
0
0
0
0
0
0
0
0
0
0
0
0
0
0
0
0
0
0
0
0
0
0
0
0
0
0
0
0
0
0
0
0
0
0
0
0
0
0
0
0
0
0
0
0
0
0
0
0
0
0
0
0
0
0
0
0
0
0
0
0
0
0
0
0
0
0
0
0
0
0
0
0
0
0
0
0
0
0
0
0
0
0
0
0
0
0
0
0
0
0
0
0
0
0
0
0
0
0
0
0
0
0
0
0
0
0
0
0
0
0
0
0
0
0
0
0
0
0
0
0
0
0
0
0
0
0
0
0
0
0
0
0
0
0
0
0
0
0
0
0
0
0
0
0
0
0
0
0
0
0
0
0
0
0
0
0
0
0
0
0
0
0
0
0
0
0
0
0
0
0
0
0
0
0
0
0
0
0
0
0
0
0
0
0
0
0
0
0
0
0
0
0
0
0
0
0
0
0
0
0
0
0
0
0
0
0
0
0
0
0
0
0
0
0
0
0
0
0
0
0
0
0
0
0
0
0
0
0
0
0
0
0
0
0
0
0
0
0
0
0
0
0
0
0
0
0
0
0
0
0
0
0
0
0
0
0
0
0
0
0
0
0
0
0
0
0
0
0
0
0
0
0
0
0
0
0
0
0
0
0
0
0
0
0
0
0
0
0
0
0
0
0
0
0
0
0
0
0
0
0
0
0
0
0
0
0
0
0
0
0
0
0
0
0
0
0
0
0
0
0
0
0
0
0
0
0
0
0
0
0
0
0
0
0
0
0
0
0
0
0
0
0
0
0
0
0
0
0
0
0
0
0
0
0
0
0
0
0
0
0
0
0
0
0
0
0
0
0
0
0
0
0
0
0
0
0
0
0
0
0
0
0
0
0
0
0
0
0
0
0
0
0
0
0
0
0
0
0
0
0
0
0
0
0
0
0
0
0
0
0
0
0
0
0
0
0
0
0
0
0
0
0
0
0
0
0
0
0
0
0
0
0
0
0
0
0
0
0
0
0
0
0
0
0
0
0
0
0
0
0
0
0
0
0
0
0
0
0
0
0
0
0
0
0
0
0
0
0
0
0
0
0
0
0
0
0
0
0
0
0
0
0
0
0
0
0
0
0
0
0
0
0
0
0
0
0
0
0
0
0
0
0
0
0
0
0
0
0
0
0
0
0
0
0
0
0
0
0
0
0
0
0
0
0
0
0
0
0
0
0
0
0
0
0
0
0
0
0
0
0
0
0
0
0
0
0
0
0
0
0
0
0
0
0
0
0
0
0
0
0
0
0
0
0
0
0
0
0
0
0
0
0
0
0
0
0
0
0
