0.603525
0.617628
0.635008
0.653247
0.670831
0.686704
0.699588
0.707857
0.70971
0.703751
0.689797
0.669464
0.646179
0.624477
0.608747
0.60306
0.609143
0.620831
0.628123
0.620844
0.59254
0.542941
0.477976
0.407468
0.341735
0.288523
0.248732
0.221105
0.207067
0.207083
0.221474
0.250178
0.292315
0.345819
0.407365
0.472654
0.536985
0.59612
0.646892
0.686643
0.713458
0.726069
0.723924
0.707083
0.676324
0.633297
0.580163
0.520701
0.460418
0.405866
0.363336
0.337785
0.331952
0.345895
0.377101
0.421207
0.473176
0.528633
0.584984
0.641943
0.701055
0.765009
0.836732
0.918448
1.01056
1.11183
1.21969
1.33039
1.43945
1.54234
1.63497
1.71375
1.77547
1.81803
1.83983
1.83946
1.81561
1.76723
1.69382
1.59595
1.47572
1.33712
1.18655
1.03125
0.879297
0.738626
0.615821
0.515924
0.441257
0.390793
0.36142
0.348885
0.348606
0.356101
0.36702
0.376457
0.37851
0.366227
0.308893
0.0571132
-0.388121
-0.953937
-1.56547
-1.41097
0
2.92089
7.14941
11.9865
16.3809
19.2353
19.7756
17.8365
13.9369
9.09339
4.44071
0.836392
-1.36437
-2.28352
-2.30746
-1.81096
-1.30651
-0.85899
-0.549946
-0.408897
-0.307196
-0.213828
-0.124654
-0.0406384
0.0323339
0.0855562
0.112079
0.110988
0.0892577
0.0601904
0.0391408
0.0385917
0.0614314
0.102271
0.156643
0.222003
0.296192
0.377372
0.464108
0.555205
0.649442
0.74537
0.841276
0.935336
1.02591
1.11188
1.19296
1.26991
1.34455
1.41972
1.4991
1.58696
1.68782
1.80599
1.94504
2.10714
2.29792
2.52969
2.79101
3.0445
3.24964
3.37639
3.41504
3.37781
3.2921
3.18905
3.09269
3.01105
2.94008
2.87582
2.81571
2.75755
2.69922
2.63879
2.5744
2.5043
2.42668
2.33977
2.24209
2.13268
2.01146
1.87948
1.73899
1.59332
1.44657
1.30316
1.16728
1.0425
0.931416
0.835724
0.756493
0.69459
0.650846
0.626094
0.621038
0.637378
0.677269
0.741718
0.82679
0.919162
1.00044
1.05362
1.06717
1.03784
0.97151
0.881482
0.784673
0.696938
0.627668
0.576582
0.540608
0.518018
0.508419
0.511641
0.527456
0.555359
0.594819
0.645014
0.701789
0.757567
0.804181
0.834756
0.845317
0.835495
0.808107
0.767881
0.719969
0.669053
0.618559
0.570742
0.527745
0.491697
0.464472
0.448413
0.446056
0.455714
0.470437
0.482261
0.485477
0.479369
0.468945
0.463057
0.470547
0.496127
0.537975
0.588004
0.635169
0.67009
0.689053
0.695764
0.700265
0.715624
0.753736
0.816941
0.901067
1.00224
1.11741
1.23874
1.3559
1.45982
1.54451
1.60805
1.65238
1.68184
1.7013
1.71419
1.72157
1.72197
1.71237
1.68954
1.65125
1.59702
1.52824
1.44795
1.36045
1.27067
1.18257
1.09925
1.02337
0.957142
0.900704
0.851943
0.80771
0.764705
0.720192
0.672182
0.61899
0.558386
0.48681
0.400423
0.289647
0.11398
-0.135233
-0.442365
-0.949683
-0.997657
0
2.38398
6.08653
10.5168
14.6635
17.4082
17.9386
16.0728
12.3376
7.75767
3.45674
0.26081
-1.5226
-2.07928
-1.86881
-1.37382
-0.895787
-0.49235
-0.16708
0.0452105
0.176091
0.266807
0.333523
0.383533
0.421449
0.452972
0.48389
0.519131
0.561749
0.612939
0.672949
0.74143
0.817415
0.899798
0.98751
1.07662
1.15972
1.22902
1.27926
1.31052
1.32926
1.34644
1.37337
1.41727
1.47772
1.54831
1.6248
1.70451
1.78792
1.87888
1.98308
2.10557
2.24827
2.40692
2.5744
2.74401
2.90913
3.06417
3.20542
3.33121
3.44115
3.53568
3.6149
3.67735
3.71939
3.73665
3.72401
3.67786
3.59803
3.48891
3.35906
3.21924
3.07966
2.94698
2.82179
2.70255
2.58614
2.46873
2.34704
2.21925
2.08534
1.94689
1.80642
1.66665
1.5298
1.39774
1.27203
1.15418
1.04644
0.951703
0.872284
0.809952
0.76526
0.737998
0.725087
0.722188
0.724741
0.72899
0.732639
0.734923
0.736193
0.737293
0.73906
0.742178
0.747484
0.75623
0.770314
0.792294
0.825102
0.872339
0.940523
1.03834
1.16741
1.30861
1.43258
1.51064
1.52291
1.46395
1.3442
1.18693
1.02184
0.877185
0.76542
0.68203
0.620044
0.575097
0.544759
0.526632
0.51836
0.517977
0.524064
0.535724
0.552417
0.573716
0.599055
0.627602
0.658187
0.689315
0.719173
0.745895
0.768069
0.785133
0.797743
0.807923
0.818907
0.834613
0.858869
0.89457
0.942829
1.00297
1.07324
1.15106
1.2337
1.31881
1.40452
1.48931
1.5712
1.64736
1.71436
1.76848
1.80661
1.82696
1.82936
1.81476
1.78438
1.73894
1.67981
1.6084
1.52517
1.43176
1.33133
1.22838
1.12814
1.03552
0.954157
0.885988
0.830044
0.782953
0.739799
0.695132
0.64394
0.582341
0.507904
0.419598
0.316198
0.195511
0.0526858
-0.118717
-0.313812
-0.526003
-0.746661
-0.707076
0
1.76991
4.80447
8.88984
13.3074
16.9845
18.8662
18.3383
15.4886
11.0719
6.20333
1.94436
-1.0254
-2.52914
-2.80566
-2.26485
-1.49824
-0.738303
-0.163043
0.0796725
0.126428
0.138576
0.134075
0.119785
0.103976
0.0944032
0.0961867
0.110371
0.133884
0.161035
0.186062
0.205701
0.220675
0.235498
0.256729
0.290555
0.340657
0.404682
0.479529
0.563198
0.65383
0.749798
0.849847
0.953033
1.05859
1.16579
1.27401
1.3828
1.49203
1.60203
1.71355
1.82758
1.94508
2.06661
2.1921
2.32066
2.45059
2.57955
2.7048
2.8233
2.93198
3.02831
3.11025
3.17627
3.22527
3.25652
3.26922
3.26333
3.23934
3.19848
3.14283
3.0753
2.99932
2.91822
2.83462
2.74983
2.66364
2.57451
2.48011
2.37804
2.26652
2.14501
2.01444
1.87725
1.73718
1.59866
1.46639
1.34503
1.23854
1.14984
1.08049
1.03062
0.999232
0.984498
0.984109
0.995981
1.01865
1.05137
1.09385
1.14734
1.21335
1.28697
1.35324
1.39324
1.39002
1.33525
1.23357
1.10266
0.968649
0.858725
0.789106
0.757446
0.76468
0.805952
0.872009
0.951158
1.03135
1.10337
1.16177
1.20272
1.22455
1.22759
1.21384
1.18653
1.14978
1.10851
1.06741
1.0309
1.00269
0.986737
0.986771
0.999265
1.01767
1.03456
1.04413
1.04397
1.03556
1.02337
1.01329
1.01075
1.01751
1.03485
1.06362
1.10364
1.15373
1.21202
1.27605
1.3436
1.41289
1.48269
1.55235
1.62174
1.69096
1.76024
1.82975
1.89956
1.9696
2.03961
2.1091
2.17713
2.2425
2.30386
2.36
2.4099
2.45262
2.48631
2.50671
2.50934
2.48858
2.43935
2.3592
2.25008
2.11865
1.97505
1.83046
1.69394
1.56873
1.45635
1.35747
1.27146
1.19682
1.13158
1.0733
1.01905
0.964942
0.905806
0.835525
0.745994
0.612882
0.406754
0.136608
-0.170616
-0.431343
0
1.48967
4.23835
8.1219
12.6151
16.8383
19.7591
20.5268
18.8136
14.9957
10.0537
5.21002
1.47333
-0.682282
-1.36728
-1.07532
-0.510239
-0.0197578
0.339071
0.543265
0.666768
0.749162
0.792419
0.798727
0.772378
0.721825
0.660285
0.603854
0.567542
0.561009
0.581695
0.619904
0.670144
0.728327
0.790898
0.855237
0.9196
0.982775
1.04369
1.1013
1.15451
1.20253
1.24523
1.28333
1.31852
1.35333
1.39093
1.43484
1.48857
1.55572
1.63974
1.74349
1.86874
2.01564
2.1823
2.36456
2.55622
2.74968
2.9366
3.10912
3.26077
3.38715
3.48617
3.55781
3.60368
3.62622
3.62813
3.61172
3.57866
3.52982
3.46551
3.3859
3.29148
3.1833
3.06315
2.93355
2.79761
2.65861
2.51979
2.38401
2.25372
2.1309
2.01706
1.91326
1.8204
1.73869
1.66691
1.6032
1.54544
1.49172
1.44074
1.39195
1.34533
1.30101
1.2588
1.21799
1.17754
1.13641
1.09401
1.05065
1.00786
0.968345
0.935283
0.911461
0.898466
0.896289
0.903466
0.917688
0.93662
0.958515
0.982506
1.00837
1.03593
1.06424
1.09006
1.10797
1.11173
1.09649
1.06103
1.0091
0.949213
0.892739
0.850829
0.831177
0.832527
0.852733
0.886348
0.926583
0.96723
1.00392
1.0343
1.05718
1.06939
1.06794
1.04849
1.00737
0.944433
0.864998
0.779773
0.70232
0.645122
0.614444
0.611503
0.632443
0.67034
0.718105
0.770527
0.825432
0.883106
0.944997
1.01285
1.08785
1.17025
1.25922
1.3529
1.4477
1.538
1.6178
1.68216
1.72846
1.75741
1.77323
1.78302
1.79517
1.81924
1.86844
1.93615
1.99971
2.03031
2.00455
1.91327
1.76371
1.57495
1.37038
1.17174
0.989396
0.824935
0.680899
0.561377
0.469507
0.408106
0.379282
0.383876
0.419407
0.475432
0.531026
0.562106
0.546201
0.466102
0.313359
0.0908252
-0.186745
-0.494622
-0.671364
0
1.96043
5.32299
9.68792
14.158
17.5969
19.0253
17.9888
14.7353
10.1279
5.32269
1.3508
-1.21057
-2.33318
-2.38985
-1.86035
-1.23168
-0.665598
-0.265524
-0.0997251
-0.00299673
0.0848649
0.171036
0.256583
0.340649
0.420067
0.489356
0.541963
0.572066
0.576171
0.554671
0.512797
0.460541
0.411322
0.379448
0.376937
0.408205
0.468479
0.55201
0.652624
0.762726
0.874734
0.982668
1.08256
1.1724
1.25227
1.32411
1.39132
1.45832
1.52996
1.61098
1.70526
1.81534
1.94192
2.08363
2.23735
2.39861
2.56227
2.72315
2.87664
3.01892
3.14655
3.25727
3.35002
3.42451
3.48107
3.52055
3.5442
3.55343
3.54965
3.53405
3.5079
3.47185
3.4261
3.3706
3.30504
3.22888
3.14162
3.04286
2.9324
2.81071
2.67927
2.54078
2.39921
2.25959
2.12755
2.00865
1.90764
1.82788
1.77093
1.7368
1.72405
1.72826
1.7411
1.75415
1.76057
1.7563
1.74049
1.71514
1.68409
1.6518
1.62224
1.59781
1.57972
1.56943
1.56873
1.5794
1.6031
1.64093
1.69494
1.76471
1.84512
1.92754
2.00201
2.05914
2.09172
2.09582
2.07123
2.02143
1.95306
1.87496
1.7969
1.72806
1.67465
1.63851
1.61909
1.6161
1.62807
1.6526
1.68629
1.72504
1.76453
1.8004
1.82821
1.84387
1.8448
1.83003
1.80059
1.75967
1.71217
1.66495
1.62528
1.59965
1.59285
1.60743
1.64365
1.69981
1.77267
1.85681
1.94742
2.04039
2.13214
2.22021
2.30362
2.38297
2.46008
2.53719
2.6167
2.69856
2.7757
2.83658
2.8697
2.86872
2.83558
2.78007
2.71582
2.65453
2.60131
2.55215
2.5021
2.44647
2.38175
2.30672
2.2229
2.13401
2.045
1.96051
1.88331
1.81483
1.75526
1.70339
1.65668
1.61187
1.56563
1.51508
1.45797
1.39339
1.32145
1.24204
1.15195
1.03165
0.773857
0.344031
-0.185538
-0.494206
0
1.75105
4.89234
9.06315
13.4276
16.9072
18.5526
17.8955
15.1259
11.0085
6.5816
2.78126
0.158092
-1.20108
-1.55274
-1.22623
-0.728776
-0.17383
0.30876
0.597801
0.711171
0.778931
0.833508
0.882579
0.929068
0.975051
1.0222
1.07187
1.12527
1.18368
1.24837
1.32039
1.4002
1.48727
1.57988
1.67516
1.76978
1.86027
1.9436
2.01794
2.08296
2.13987
2.19118
2.24032
2.29104
2.34688
2.41073
2.48435
2.56838
2.66269
2.76647
2.87838
2.99675
3.11976
3.24562
3.37261
3.49911
3.62357
3.7444
3.85996
3.96841
4.06796
4.15703
4.23431
4.29892
4.35031
4.38809
4.41153
4.41944
4.41018
4.3816
4.33141
4.25774
4.15979
4.03833
3.896
3.73729
3.56814
3.39532
3.22533
3.06373
2.9146
2.78013
2.66103
2.55594
2.46081
2.37102
2.28263
2.19338
2.10313
2.01374
1.92834
1.85038
1.78239
1.72601
1.6823
1.65176
1.63465
1.63113
1.64115
1.66418
1.69859
1.74188
1.79075
1.84076
1.88721
1.92601
1.95416
1.9701
1.97357
1.96532
1.94666
1.91923
1.88504
1.84652
1.80634
1.76859
1.73827
1.72034
1.71835
1.73332
1.76352
1.80354
1.84605
1.88355
1.91007
1.92233
1.92006
1.90563
1.88318
1.8578
1.83398
1.81508
1.80364
1.80117
1.80801
1.82331
1.8452
1.87118
1.89842
1.92427
1.9466
1.964
1.97601
1.98306
1.9865
1.98836
1.99115
1.99755
2.01011
2.03094
2.06154
2.10277
2.15495
2.21798
2.2914
2.37435
2.46552
2.56289
2.66366
2.76398
2.85915
2.9441
3.01379
3.0635
3.08914
3.08634
3.05257
2.9866
2.88901
2.76273
2.6133
2.44877
2.27901
2.11454
1.96474
1.836
1.73304
1.65779
1.61023
1.5892
1.59055
1.60507
1.62116
1.62732
1.61339
1.57145
1.49635
1.38583
1.22514
0.979146
0.66557
0.306679
-0.0744678
0
0.998792
3.30474
6.96663
11.5284
16.0555
19.3996
20.6023
19.2654
15.7174
10.8993
6.01573
2.10368
-0.293087
-1.21007
-1.10185
-0.62855
-0.207127
0.119455
0.327373
0.438408
0.513184
0.566657
0.601818
0.62269
0.634409
0.643029
0.654988
0.676266
0.711413
0.762397
0.828027
0.905005
0.989312
1.07598
1.15995
1.23676
1.30297
1.35584
1.39326
1.41557
1.42473
1.42442
1.42012
1.41887
1.42863
1.45699
1.5099
1.59047
1.69851
1.83083
1.98214
2.14629
2.31669
2.4885
2.6579
2.82154
2.97628
3.11912
3.24737
3.35865
3.45119
3.52427
3.57844
3.6153
3.63725
3.64707
3.64748
3.64067
3.62794
3.60951
3.58455
3.5514
3.50784
3.45167
3.38123
3.29586
3.19614
3.08393
2.96224
2.83466
2.70489
2.57619
2.45113
2.33152
2.2186
2.1134
2.0172
1.93174
1.85907
1.80135
1.76289
1.74831
1.75266
1.76518
1.7736
1.76799
1.74377
1.7027
1.65155
1.59965
1.55633
1.5262
1.51046
1.51099
1.53252
1.58451
1.67248
1.77862
1.8756
1.93606
1.94257
1.89456
1.8082
1.70895
1.62024
1.554
1.50267
1.45763
1.41501
1.37292
1.33239
1.29692
1.27087
1.26016
1.26664
1.28155
1.29119
1.2825
1.24896
1.19425
1.13212
1.08241
1.07061
1.14947
1.2969
1.45295
1.54955
1.54447
1.44124
1.28473
1.13635
1.04396
1.01744
1.02132
1.03832
1.06251
1.09045
1.12034
1.15207
1.1867
1.22587
1.271
1.32261
1.38023
1.44266
1.50808
1.57439
1.63982
1.70329
1.76452
1.82375
1.88137
1.93706
1.98927
2.03511
2.0706
2.0916
2.09474
2.07808
2.04115
1.98465
1.91011
1.82025
1.7197
1.6129
1.50448
1.39997
1.30515
1.22713
1.17488
1.15304
1.15318
1.1615
1.16322
1.14705
1.10801
1.04739
0.97028
0.881877
0.784477
0.678154
0.561884
0.427792
0.274027
0.1019
-0.186481
0
1.26412
3.93173
7.91483
12.6097
16.9953
19.9295
20.5601
18.6714
14.793
9.99374
5.45285
2.02645
0.0177972
-0.772583
-0.799167
-0.603967
-0.420267
-0.257577
-0.121735
-0.0144557
0.0727881
0.145359
0.204134
0.24965
0.283102
0.305648
0.319317
0.32789
0.337275
0.355099
0.38948
0.447297
0.531548
0.647317
0.797825
0.965505
1.12163
1.23975
1.30384
1.31315
1.28219
1.23589
1.20153
1.20051
1.23558
1.29715
1.378
1.47443
1.58417
1.70554
1.83756
1.97957
2.13066
2.28913
2.45233
2.61653
2.77723
2.93058
3.07436
3.20855
3.33526
3.45784
3.57943
3.70244
3.8232
3.93236
4.01793
4.06907
4.0786
4.04377
3.96567
3.84854
3.70005
3.53318
3.35901
3.18688
3.02476
2.87728
2.74536
2.6291
2.52733
2.43726
2.35534
2.27799
2.20232
2.12654
2.05009
1.97353
1.89811
1.82539
1.75679
1.69348
1.63626
1.58568
1.54221
1.50632
1.47853
1.45936
1.44921
1.44818
1.45592
1.4715
1.49342
1.51952
1.54708
1.57295
1.59365
1.60589
1.60728
1.59679
1.57521
1.54545
1.51235
1.48199
1.46096
1.46047
1.49117
1.54223
1.59251
1.61882
1.60561
1.55157
1.47011
1.38386
1.31607
1.28162
1.27363
1.28318
1.30585
1.33745
1.37276
1.40712
1.43719
1.46126
1.47926
1.49233
1.50222
1.51059
1.51847
1.52598
1.5325
1.53689
1.53791
1.53456
1.52642
1.51378
1.49777
1.4803
1.46411
1.45264
1.45021
1.46157
1.49116
1.54255
1.61754
1.7154
1.83397
1.96947
2.10941
2.24055
2.35264
2.44125
2.50894
2.56426
2.61883
2.68744
2.78415
2.89742
3.00033
3.06274
3.06363
2.99814
2.87712
2.72088
2.55112
2.38524
2.23122
2.09036
1.96333
1.85187
1.75823
1.68527
1.63502
1.60454
1.58587
1.5695
1.54653
1.51044
1.45797
1.38873
1.30384
1.20424
1.09037
0.946586
0.729265
0.434423
0.0880515
-0.289298
0
1.44434
4.3068
8.41917
13.1057
17.2942
19.8319
19.9074
17.4013
12.9797
7.85587
3.31692
0.244246
-1.14057
-1.20516
-0.617851
-0.104657
0.297717
0.54287
0.622953
0.660099
0.681613
0.694215
0.704842
0.720099
0.745513
0.78461
0.838775
0.910131
0.995062
1.08218
1.1591
1.21641
1.25096
1.26733
1.27674
1.29368
1.33135
1.39664
1.48482
1.58865
1.70282
1.82103
1.93773
2.04916
2.15385
2.25235
2.34648
2.43838
2.52984
2.62188
2.71494
2.80929
2.90531
3.00366
3.10517
3.21048
3.31965
3.43177
3.545
3.65671
3.76369
3.86236
3.94929
4.02171
4.07758
4.11564
4.13535
4.13676
4.12023
4.08628
4.03542
3.96812
3.88502
3.78697
3.67504
3.55071
3.41592
3.27301
3.12455
2.97308
2.82082
2.66945
2.52007
2.37324
2.2293
2.08871
1.95251
1.82333
1.70637
1.60685
1.53008
1.48
1.45776
1.46119
1.48518
1.52301
1.56807
1.61518
1.66127
1.70472
1.74422
1.77863
1.80655
1.82661
1.83807
1.84136
1.83811
1.83063
1.82103
1.81047
1.79896
1.78564
1.76944
1.74966
1.72655
1.70142
1.67648
1.65424
1.63678
1.62531
1.61978
1.61844
1.61861
1.61741
1.61242
1.60219
1.58623
1.56483
1.53872
1.50902
1.47697
1.44394
1.41185
1.38333
1.36172
1.3508
1.35527
1.38408
1.45193
1.56039
1.68249
1.78299
1.8309
1.81134
1.73147
1.61793
1.50732
1.43373
1.41105
1.42524
1.46309
1.51712
1.58218
1.65243
1.72221
1.78674
1.84255
1.88788
1.92293
1.94953
1.97084
1.99074
2.0131
2.04104
2.07621
2.11904
2.16699
2.21507
2.25694
2.28588
2.29564
2.28115
2.23896
2.16762
2.06792
1.94469
1.8033
1.65082
1.49543
1.34549
1.20822
1.088
0.988975
0.913835
0.865766
0.853748
0.889214
0.960621
1.03657
1.07935
1.05415
0.937448
0.60105
0.0944625
-0.506599
-1.14151
-1.09696
0
2.44561
6.18917
10.7056
15.038
18.0532
18.8504
17.1458
13.4281
8.77153
4.37975
1.10622
-0.789318
-1.54974
-1.6109
-1.26188
-0.841254
-0.370543
0.0585081
0.309399
0.42237
0.484429
0.52913
0.567188
0.604809
0.647347
0.698499
0.75958
0.830034
0.90778
0.989598
1.07172
1.1505
1.223
1.28751
1.34372
1.39278
1.43712
1.48009
1.52551
1.57722
1.63851
1.7117
1.79775
1.89623
2.00536
2.12229
2.24364
2.36602
2.48661
2.60356
2.71618
2.82487
2.93076
3.03528
3.13959
3.24421
3.34879
3.45209
3.55224
3.64706
3.7344
3.81232
3.87877
3.93127
3.96747
3.98512
3.98181
3.95536
3.90439
3.82885
3.73038
3.61225
3.47897
3.33593
3.18815
3.03944
2.89247
2.74886
2.60931
2.474
2.34288
2.21607
2.09403
1.97764
1.86813
1.7669
1.6753
1.59437
1.5248
1.4669
1.42066
1.38626
1.36405
1.35398
1.35587
1.36909
1.3923
1.42373
1.45989
1.49679
1.53082
1.55951
1.58201
1.59903
1.61228
1.6237
1.6347
1.64566
1.65605
1.66467
1.67003
1.67073
1.66559
1.65375
1.63466
1.60816
1.57483
1.53597
1.49381
1.45138
1.412
1.37862
1.35363
1.33745
1.32885
1.3257
1.32588
1.32819
1.33273
1.34073
1.354
1.37405
1.40093
1.43371
1.47097
1.51076
1.55105
1.59011
1.62682
1.66075
1.69205
1.72123
1.749
1.77623
1.80398
1.83361
1.8669
1.90611
1.95367
2.01176
2.08173
2.16351
2.25508
2.35321
2.45318
2.54867
2.6335
2.70289
2.75424
2.78741
2.80434
2.8082
2.8024
2.7896
2.77144
2.74858
2.72078
2.68763
2.64887
2.6045
2.55451
2.49873
2.43692
2.3687
2.2934
2.21065
2.12068
2.02434
1.92308
1.81868
1.71299
1.60762
1.50379
1.40228
1.30325
1.20608
1.10943
1.011
0.906055
0.77943
0.595789
0.350809
0.0621321
-0.257534
0
1.2851
3.88738
7.70643
12.1595
16.2854
19.0313
19.6241
17.869
14.239
9.70028
5.34663
2.00827
0.0157977
-0.792072
-0.857615
-0.68543
-0.519929
-0.36327
-0.212554
-0.0656271
0.0752612
0.20707
0.327053
0.433722
0.527929
0.611972
0.687522
0.754314
0.812549
0.862021
0.902471
0.934084
0.957902
0.975976
0.991262
1.00734
1.0281
1.05681
1.09694
1.15148
1.22254
1.31087
1.41545
1.5334
1.65992
1.78997
1.91859
2.04168
2.15655
2.26216
2.35886
2.44835
2.53366
2.61843
2.70642
2.80104
2.90478
3.01874
3.14228
3.27334
3.4085
3.54419
3.67775
3.80805
3.93512
4.05926
4.17952
4.28406
4.34865
4.34608
4.25998
4.0949
3.87685
3.64412
3.43279
3.25613
3.10278
2.96536
2.84014
2.72282
2.60977
2.49891
2.39006
2.28492
2.18646
2.09781
2.02166
1.96026
1.91503
1.88451
1.86355
1.84571
1.82454
1.79489
1.75375
1.70063
1.63727
1.56704
1.49415
1.42254
1.35506
1.29385
1.24051
1.19582
1.16
1.13299
1.11462
1.10472
1.10303
1.10906
1.12216
1.14076
1.16214
1.183
1.20012
1.21097
1.21438
1.21076
1.20205
1.19132
1.18203
1.17716
1.17855
1.18674
1.2011
1.22045
1.24336
1.26871
1.29597
1.32526
1.35696
1.39133
1.42775
1.46292
1.49056
1.50315
1.49423
1.4607
1.40438
1.33208
1.2542
1.18241
1.12663
1.08996
1.07369
1.07865
1.10375
1.14655
1.20371
1.27193
1.34853
1.43146
1.51905
1.61049
1.70408
1.79359
1.86861
1.9176
1.93291
1.91578
1.8784
1.84149
1.82765
1.85348
1.91686
2.00303
2.10348
2.20872
2.30858
2.39265
2.45093
2.47663
2.46539
2.41538
2.32759
2.20609
2.05802
1.89305
1.72226
1.55642
1.40309
1.26639
1.14955
1.05386
0.979092
0.923964
0.886407
0.864553
0.85652
0.856155
0.852566
0.832582
0.782392
0.679846
0.439094
0.0742881
-0.375967
-0.866891
-0.866391
0
2.04926
5.37158
9.68431
14.258
18.0432
19.9981
19.5025
16.6471
12.2218
7.39868
3.27342
0.503958
-0.802309
-0.965702
-0.641214
-0.354627
-0.116955
0.0604874
0.177749
0.25338
0.300562
0.333407
0.363455
0.396914
0.434803
0.475099
0.51389
0.547118
0.572183
0.589029
0.600502
0.611907
0.629904
0.660987
0.708852
0.774064
0.855679
0.9519
1.05595
1.16051
1.25982
1.35135
1.43641
1.51959
1.60701
1.70429
1.81425
1.93525
2.06494
2.19994
2.33564
2.46852
2.59719
2.7228
2.84838
2.97753
3.11281
3.25485
3.40052
3.54248
3.67157
3.77917
3.85923
3.90933
3.93062
3.92706
3.90412
3.8685
3.82579
3.7795
3.73137
3.68151
3.62859
3.57019
3.50351
3.42605
3.33624
3.23364
3.1188
2.99284
2.85704
2.71299
2.56178
2.4047
2.24402
2.0834
1.92903
1.78988
1.67544
1.59441
1.55277
1.55229
1.59282
1.67375
1.78111
1.8915
1.98305
2.03982
2.05439
2.02817
1.96956
1.89071
1.80401
1.71944
1.64204
1.57339
1.51508
1.46888
1.43611
1.41756
1.41327
1.42239
1.44319
1.4732
1.50955
1.54923
1.58923
1.62682
1.65907
1.68274
1.6948
1.69267
1.67484
1.64072
1.5891
1.52706
1.46885
1.42971
1.42136
1.44858
1.50805
1.58999
1.68177
1.77169
1.85275
1.92345
1.98034
2.02024
2.04116
2.04175
2.02216
1.98488
1.93512
1.88018
1.82814
1.78634
1.75844
1.74624
1.7508
1.77215
1.80994
1.86307
1.93053
2.0118
2.10583
2.21079
2.32388
2.44139
2.55896
2.67194
2.77604
2.86787
2.94536
3.00798
3.05665
3.09347
3.12118
3.14261
3.16013
3.1752
3.18809
3.19794
3.20291
3.20048
3.18786
3.16223
3.12105
3.06217
2.98406
2.88602
2.76881
2.63539
2.49007
2.33891
2.18951
2.05032
1.9309
1.842
1.79282
1.78912
1.83215
1.90958
1.98974
2.04039
2.03192
1.93973
1.54308
0.879979
0.0661186
-0.513946
0
2.05997
5.6705
10.2919
14.9728
18.6266
20.3595
19.7479
16.9797
12.8027
8.27368
4.39016
1.7563
0.444371
0.113484
0.301838
0.503033
0.690472
0.852784
0.983886
1.08962
1.17741
1.25189
1.31768
1.37779
1.43366
1.48475
1.52958
1.56709
1.59757
1.62279
1.64539
1.66772
1.69096
1.71483
1.73858
1.7617
1.78476
1.80994
1.84089
1.88202
1.93744
2.00971
2.09856
2.20165
2.31558
2.43635
2.55972
2.68188
2.79993
2.91219
3.01827
3.1191
3.21661
3.31344
3.41238
3.51587
3.62534
3.74096
3.86136
3.98207
4.09619
4.19612
4.27506
4.32831
4.35397
4.35305
4.32885
4.28611
4.22989
4.16494
4.09448
4.02005
3.94181
3.85902
3.77049
3.67511
3.57235
3.46269
3.34778
3.23038
3.11402
3.00242
2.89894
2.80632
2.72623
2.65797
2.59948
2.54808
2.50119
2.4569
2.41408
2.3721
2.33039
2.28803
2.2437
2.19608
2.14463
2.09039
2.03669
1.99006
1.95827
1.94804
1.96268
2.0006
2.05593
2.11816
2.17565
2.21852
2.24081
2.24148
2.22402
2.19499
2.16205
2.1318
2.10798
2.09151
2.08165
2.07659
2.0741
2.07237
2.07068
2.06949
2.07016
2.07412
2.08249
2.09447
2.10438
2.10361
2.08349
2.0386
1.96925
1.88214
1.78884
1.70277
1.63587
1.59073
1.56596
1.56175
1.57628
1.60638
1.64842
1.69703
1.74431
1.78157
1.8015
1.79979
1.77662
1.73732
1.69178
1.65255
1.63192
1.63889
1.67269
1.72794
1.80069
1.88647
1.98045
2.0783
2.17692
2.2744
2.36968
2.46194
2.54971
2.63036
2.70032
2.7554
2.79146
2.80535
2.79552
2.76214
2.70681
2.63204
2.54074
2.4367
2.32335
2.20334
2.07881
1.95181
1.8244
1.69879
1.57752
1.46359
1.36054
1.27241
1.20519
1.17103
1.19071
1.27976
1.41945
1.56169
1.65531
1.65767
1.54197
1.30226
0.957183
0.549108
-0.0279472
0
1.21066
3.92538
7.94238
12.4959
16.4844
18.8724
19.0579
17.0441
13.3765
8.92472
4.62154
1.23509
-0.798517
-1.4575
-1.09914
-0.315187
0.358574
0.709455
0.753555
0.779296
0.807444
0.837534
0.869791
0.904562
0.942299
0.983621
1.02919
1.07944
1.1343
1.19293
1.2537
1.31448
1.37282
1.42618
1.47192
1.50725
1.5302
1.54065
1.5404
1.53359
1.52676
1.52916
1.55031
1.59752
1.67375
1.77654
1.89861
2.02998
2.16096
2.28485
2.39895
2.50435
2.60455
2.7036
2.80442
2.90789
3.01381
3.12128
3.229
3.33562
3.43997
3.54107
3.63795
3.72921
3.81239
3.88378
3.93892
3.97282
3.98042
3.95773
3.90284
3.81664
3.70286
3.56743
3.41728
3.25922
3.09851
2.93839
2.78078
2.62712
2.47885
2.33757
2.20509
2.08322
1.97339
1.87654
1.7929
1.7222
1.66375
1.61669
1.58
1.55247
1.53246
1.51802
1.50673
1.49562
1.48161
1.46208
1.43553
1.40203
1.36346
1.32328
1.2864
1.25787
1.24173
1.23995
1.2519
1.27488
1.30369
1.33237
1.35557
1.36957
1.37283
1.3659
1.35104
1.33145
1.31069
1.29184
1.2772
1.26831
1.26623
1.27079
1.2781
1.2815
1.27366
1.24881
1.20474
1.14388
1.07298
1.00134
0.93842
0.889772
0.85618
0.83798
0.834373
0.84344
0.862752
0.889784
0.922057
0.957619
0.99393
1.0276
1.05519
1.07396
1.08281
1.08292
1.07772
1.07201
1.07074
1.07762
1.09349
1.11731
1.14808
1.18509
1.22813
1.27775
1.33532
1.4027
1.48175
1.57364
1.67857
1.79648
1.92475
2.0538
2.16954
2.25829
2.31016
2.32148
2.29547
2.24082
2.16877
2.08976
2.01087
1.93431
1.85954
1.78515
1.70916
1.62924
1.54301
1.44857
1.34489
1.23223
1.11248
0.98908
0.866679
0.750244
0.644892
0.555117
0.480734
0.41423
0.344309
0.259077
0.149624
0.012841
-0.147411
-0.321142
-0.497296
0
1.5795
4.43447
8.36959
12.7494
16.6158
18.9617
19.0774
16.839
12.8036
8.03346
3.70018
0.649529
-0.863135
-1.14413
-0.829017
-0.625095
-0.453316
-0.319453
-0.218797
-0.132091
-0.0514028
0.0255428
0.099845
0.171817
0.241363
0.308448
0.373161
0.435502
0.495348
0.552518
0.606897
0.658596
0.708176
0.756776
0.806039
0.857809
0.913664
0.974478
1.04066
1.11131
1.18475
1.25974
1.33638
1.41638
1.50262
1.59804
1.70421
1.82034
1.9426
2.06617
2.1863
2.2993
2.40359
2.50016
2.59222
2.68426
2.78073
2.88462
2.99675
3.1168
3.24179
3.3674
3.48949
3.60512
3.71294
3.81205
3.8999
3.97423
4.03014
4.06008
4.05656
4.01504
3.93562
3.82264
3.68289
3.52357
3.3535
3.17857
3.00247
2.82846
2.65999
2.50058
2.35356
2.22164
2.10663
2.00913
1.9281
1.86144
1.80643
1.76038
1.72121
1.68794
1.66061
1.64007
1.62764
1.6246
1.63172
1.64902
1.67577
1.71053
1.75139
1.79606
1.84193
1.88596
1.9243
1.95293
1.96798
1.96647
1.94698
1.9103
1.85959
1.80015
1.73872
1.68236
1.63743
1.60876
1.59887
1.60779
1.63316
1.67081
1.71561
1.76239
1.8069
1.84644
1.87926
1.9044
1.9212
1.92879
1.92532
1.90887
1.87746
1.82994
1.76696
1.68967
1.60477
1.52472
1.46336
1.43286
1.44093
1.48936
1.57397
1.68574
1.81454
1.94526
2.05966
2.14202
2.18133
2.17337
2.12205
2.03932
1.94317
1.85415
1.79081
1.75929
1.75784
1.78511
1.8413
1.92459
2.03135
2.15641
2.29478
2.43932
2.57909
2.70308
2.8021
2.87008
2.90487
2.90828
2.88531
2.84273
2.7874
2.72514
2.65879
2.5884
2.51208
2.42683
2.32955
2.21834
2.09361
1.95877
1.82013
1.68612
1.56582
1.46658
1.39882
1.37078
1.37868
1.40803
1.44101
1.4606
1.45367
1.41239
1.33388
1.219
1.06133
0.790959
0.382766
-0.125489
-0.680566
-0.829984
0
2.21362
5.8078
10.2382
14.5463
17.6837
18.8745
17.8586
14.9438
10.8797
6.61458
3.00912
0.59114
-0.560031
-0.751055
-0.465317
-0.195678
0.0438662
0.244289
0.397826
0.51763
0.614167
0.691367
0.751634
0.798063
0.83357
0.861834
0.886841
0.912375
0.941487
0.976259
1.01795
1.06694
1.12267
1.18369
1.24791
1.31239
1.37384
1.42939
1.47726
1.51723
1.5508
1.58088
1.61131
1.64614
1.68889
1.74183
1.80651
1.88424
1.97598
2.08243
2.20396
2.34035
2.49055
2.65241
2.82261
2.99679
3.16982
3.3357
3.48664
3.61461
3.71471
3.78415
3.82274
3.8332
3.82109
3.79432
3.76193
3.73267
3.71276
3.70385
3.70628
3.71876
3.72999
3.72009
3.66765
3.55639
3.38158
3.15333
2.89483
2.6356
2.40193
2.20173
2.03747
1.9029
1.78697
1.67868
1.57093
1.4621
1.35527
1.25595
1.16894
1.09504
1.03633
0.995968
0.976453
0.980137
1.0088
1.07602
1.19997
1.359
1.51134
1.61416
1.64098
1.59302
1.49778
1.39426
1.31277
1.26108
1.21967
1.17721
1.12684
1.06674
1.00091
0.937811
0.887583
0.858473
0.850264
0.862688
0.894535
0.9448
1.00932
1.07898
1.14246
1.1892
1.21099
1.20331
1.1661
1.10366
1.02378
0.936351
0.851562
0.777104
0.717106
0.672969
0.644573
0.631387
0.632362
0.644458
0.662685
0.681854
0.697445
0.706374
0.707503
0.701794
0.692076
0.682482
0.677609
0.681274
0.696265
0.72443
0.766548
0.822277
0.890736
0.970969
1.06194
1.16246
1.27245
1.39095
1.51012
1.61768
1.7017
1.75542
1.7809
1.78914
1.79619
1.81689
1.85925
1.91797
1.98413
2.05125
2.11304
2.16373
2.19809
2.21172
2.2022
2.16853
2.11121
2.03237
1.93576
1.82645
1.71015
1.59225
1.47684
1.36602
1.26047
1.15965
1.06234
0.967361
0.874228
0.783396
0.69616
0.614021
0.538168
0.468861
0.401599
0.326875
0.233316
0.111379
-0.0439734
-0.22854
-0.430116
-0.659496
0
1.9807
5.37167
9.752
14.2159
17.6268
19.0218
17.9811
14.7846
10.2855
5.57445
1.6061
-1.05526
-2.30393
-2.40201
-1.76048
-1.08264
-0.516369
-0.186293
-0.106051
-0.0753632
-0.0572254
-0.0475386
-0.0439139
-0.0435154
-0.0431589
-0.0396952
-0.0306253
-0.0134353
0.0119262
0.0414461
0.0701345
0.0946873
0.115666
0.138026
0.16965
0.218624
0.290669
0.384992
0.496457
0.62271
0.762112
0.912742
1.07216
1.23811
1.40482
1.56315
1.70401
1.82128
1.91436
1.98897
2.05576
2.12731
2.2146
2.3228
2.44964
2.59213
2.74762
2.91286
3.08417
3.2577
3.4287
3.59085
3.73702
3.86036
3.95473
4.01544
4.04002
4.02845
3.98319
3.90875
3.81097
3.69624
3.57103
3.44071
3.3092
3.17906
3.052
2.9294
2.81222
2.70094
2.59561
2.49541
2.39862
2.30306
2.20665
2.10794
2.00649
1.90301
1.79919
1.69739
1.6001
1.50978
1.42896
1.36029
1.30589
1.26722
1.24529
1.24139
1.25356
1.27517
1.29844
1.31645
1.32492
1.32331
1.31477
1.30498
1.30023
1.3054
1.32145
1.34702
1.38005
1.41771
1.45649
1.49291
1.52398
1.54738
1.5614
1.56473
1.55622
1.53493
1.50026
1.45244
1.39299
1.3236
1.25049
1.18441
1.13655
1.11555
1.125
1.16238
1.2198
1.28627
1.35048
1.40376
1.44287
1.4644
1.46658
1.44888
1.41195
1.35787
1.28982
1.21321
1.1361
1.06726
1.01491
0.985516
0.983096
1.00896
1.06194
1.13892
1.23481
1.34371
1.4601
1.57886
1.69538
1.80584
1.90636
1.99371
2.06583
2.12178
2.16186
2.18765
2.20173
2.20721
2.20703
2.20315
2.19603
2.18428
2.16467
2.13292
2.08464
2.01653
1.92744
1.81914
1.69653
1.56704
1.43957
1.32283
1.22337
1.14646
1.09396
1.06425
1.05231
1.04928
1.0441
1.02624
0.98708
0.92073
0.824307
0.697738
0.537451
0.326293
0.0659722
-0.22857
-0.540771
-0.655171
0
1.89117
5.16496
9.45298
13.8883
17.3608
18.9039
18.0526
15.0192
10.6145
5.94947
2.04366
-0.49325
-1.58113
-1.5647
-0.942681
-0.344685
0.151494
0.462597
0.547578
0.576826
0.588553
0.588841
0.583513
0.577326
0.57345
0.573341
0.577567
0.586604
0.60167
0.625166
0.660451
0.710991
0.779173
0.865246
0.96546
1.07488
1.1886
1.30156
1.40941
1.50925
1.59989
1.6818
1.75671
1.8271
1.8956
1.96473
2.03656
2.1128
2.19487
2.28398
2.3812
2.48746
2.60354
2.72995
2.86693
3.01435
3.17166
3.33796
3.51224
3.69313
3.87774
4.05807
4.22031
4.34884
4.42902
4.45156
4.41625
4.33311
4.21985
4.09624
3.97741
3.86741
3.76227
3.65756
3.54983
3.43599
3.31389
3.18254
3.04215
2.89399
2.74018
2.58353
2.42748
2.27614
2.13416
2.00641
1.89783
1.81526
1.76895
1.76158
1.77339
1.77846
1.75351
1.68646
1.58099
1.45492
1.33261
1.23512
1.16954
1.12535
1.09947
1.08821
1.08909
1.10156
1.1265
1.16476
1.21558
1.27467
1.33731
1.3979
1.45092
1.49187
1.51774
1.5269
1.51866
1.49275
1.44983
1.39104
1.31456
1.21882
1.11062
1.00602
0.923311
0.878019
0.878387
0.923064
1.00192
1.09958
1.20029
1.29264
1.37348
1.4436
1.50319
1.5497
1.57965
1.58937
1.57465
1.53243
1.46271
1.36774
1.2562
1.1438
1.0473
0.980876
0.953512
0.968334
1.02357
1.11445
1.23499
1.37739
1.53382
1.69814
1.86529
2.03057
2.18884
2.33443
2.4616
2.56577
2.644
2.6949
2.71888
2.71806
2.69608
2.65763
2.60774
2.55093
2.49047
2.42772
2.36226
2.29235
2.21583
2.13107
2.0379
1.93815
1.8357
1.73591
1.64468
1.56664
1.50477
1.46081
1.4348
1.42442
1.42344
1.42257
1.41188
1.38212
1.32582
1.21416
0.968752
0.581826
0.122219
-0.3575
-0.521925
0
1.58083
4.44668
8.45021
12.9538
16.932
19.2956
19.3165
16.942
12.8285
8.07115
3.77207
0.668137
-1.01401
-1.46999
-1.02178
-0.459926
0.031134
0.356616
0.478972
0.527338
0.557607
0.583538
0.615611
0.659751
0.714979
0.778919
0.849539
0.924496
1.00164
1.07927
1.15617
1.23148
1.30451
1.37446
1.43981
1.49824
1.54802
1.58809
1.61909
1.64422
1.66948
1.70289
1.75285
1.82615
1.92552
2.04696
2.18656
2.3414
2.50827
2.68424
2.86698
3.05442
3.24436
3.43392
3.61888
3.79385
3.95336
4.09283
4.20979
4.30461
4.38059
4.44336
4.49979
4.55668
4.61943
4.69339
4.78233
4.88094
4.97325
5.03995
5.06352
5.03267
4.94484
4.80613
4.62904
4.42908
4.22197
4.01835
3.82263
3.63689
3.46276
3.30161
3.15436
3.02167
2.90412
2.80212
2.71581
2.64512
2.58943
2.54656
2.51302
2.48512
2.45977
2.43496
2.41005
2.3854
2.36181
113
309
501
695
888
1083
1278
1475
1674
1871
2067
2266
2467
2666
2864
3064
3267
3464
3659
3031
3188
3346
3509
3667
3409
3556
3701
0
0
0
0
0
0
0
0
0
0
0
0
0
0
0
0
0
0
0
0
0
0
0
0
0
0
0
0
0
0
0
0
0
0
0
0
0
0
0
0
0
0
0
0
0
0
0
0
0
0
0
0
0
0
0
0
0
0
0
0
0
0
0
0
0
0
0
0
0
0
0
0
0
0
0
0
0
0
0
0
0
0
0
0
0
0
0
0
0
0
0
0
0
0
0
0
0
0
0
0
0
0
0
0
0
0
0
0
0
0
0
0
0
0
0
0
0
0
0
0
0
0
0
0
0
0
0
0
0
0
0
0
0
0
0
0
0
0
0
0
0
0
0
0
0
0
0
0
0
0
0
0
0
0
0
0
0
0
0
0
0
0
0
0
0
0
0
0
0
0
0
0
0
0
0
0
0
0
0
0
0
0
0
0
0
0
0
0
0
0
0
0
0
0
0
0
0
0
0
0
0
0
0
0
0
0
0
0
0
0
0
0
0
0
0
0
0
0
0
0
0
0
0
0
0
0
0
0
0
0
0
0
0
0
0
0
0
0
0
0
0
0
0
0
0
0
0
0
0
0
0
0
0
0
0
0
0
0
0
0
0
0
0
0
0
0
0
0
0
0
0
0
0
0
0
0
0
0
0
0
0
0
0
0
0
0
0
0
0
0
0
0
0
0
0
0
0
0
0
0
0
0
0
0
0
0
0
0
0
0
0
0
0
0
0
0
0
0
0
0
0
0
0
0
0
0
0
0
0
0
0
0
0
0
0
0
0
0
0
0
0
0
0
0
0
0
0
0
0
0
0
0
0
0
0
0
0
0
0
0
0
0
0
0
0
0
0
0
0
0
0
0
0
0
0
0
0
0
0
0
0
0
0
0
0
0
0
0
0
0
0
0
0
0
0
0
0
0
0
0
0
0
0
0
0
0
0
0
0
0
0
0
0
0
0
0
0
0
0
0
0
0
0
0
0
0
0
0
0
0
0
0
0
0
0
0
0
0
0
0
0
0
0
0
0
0
0
0
0
0
0
0
0
0
0
0
0
0
0
0
0
0
0
0
0
0
0
0
0
0
0
0
0
0
0
0
0
0
0
0
0
0
0
0
0
0
0
0
0
0
0
0
0
0
0
0
0
0
0
0
0
0
0
0
0
0
0
0
0
0
0
0
0
0
0
0
0
0
0
0
0
0
0
0
0
0
0
0
0
0
0
0
0
0
0
0
0
0
0
0
0
0
0
0
0
0
0
0
0
0
0
0
0
0
0
0
0
0
0
0
0
0
0
0
0
0
0
0
0
0
0
0
0
0
0
0
0
0
0
0
0
0
0
0
0
0
0
0
0
0
0
0
0
0
0
0
0
0
0
0
0
0
0
0
0
0
0
0
0
0
0
0
0
0
0
0
0
0
0
0
0
0
0
0
0
0
0
0
0
0
0
0
0
0
0
0
0
0
0
0
0
0
0
0
0
0
0
0
0
0
0
0
0
0
0
0
0
0
0
0
0
0
0
0
0
0
0
0
0
0
0
0
0
0
0
0
0
0
0
0
0
0
0
0
0
0
0
0
0
0
0
0
0
0
0
0
0
0
0
0
0
0
0
0
0
0
0
0
0
0
0
0
0
0
0
0
0
0
0
0
0
0
0
0
0
0
0
0
0
0
0
0
0
0
0
0
0
0
0
0
0
0
0
0
0
0
0
0
0
0
0
0
0
0
0
0
0
0
0
0
0
0
0
0
0
0
0
0
0
0
0
0
0
0
0
0
0
0
0
0
0
0
0
0
0
0
0
0
0
0
0
0
0
0
0
0
0
0
0
0
0
0
0
0
0
0
0
0
0
0
0
0
0
0
0
0
0
0
0
0
0
0
0
0
0
0
0
0
0
0
0
0
0
0
0
0
0
0
0
0
0
0
0
0
0
0
0
0
0
0
0
0
0
0
0
0
0
0
0
0
0
0
0
0
0
0
0
0
0
0
0
0
0
0
0
0
0
0
0
0
0
0
0
0
0
0
0
0
0
0
0
0
0
0
0
0
0
0
0
0
0
0
0
0
0
0
0
0
0
0
0
0
0
0
0
0
0
0
0
0
0
0
0
0
0
0
0
0
0
0
0
0
0
0
0
0
0
0
0
0
0
0
0
0
0
0
0
0
0
0
0
0
0
0
0
0
0
0
0
0
0
0
0
0
0
0
0
0
0
0
0
0
0
0
0
0
0
0
0
0
0
0
0
0
0
0
0
0
0
0
0
0
0
0
0
0
0
0
0
0
0
0
0
0
0
0
0
0
0
0
0
0
0
0
0
0
0
0
0
0
0
0
0
0
0
0
0
0
0
0
0
0
0
0
0
0
0
0
0
0
0
0
0
0
0
0
0
0
0
0
0
0
0
0
0
0
0
0
0
0
0
0
0
0
0
0
0
0
0
0
0
0
0
0
0
0
0
0
0
0
0
0
0
0
0
0
0
0
0
0
0
0
0
0
0
0
0
0
0
0
0
0
0
0
0
0
0
0
0
0
0
0
0
0
0
0
0
0
0
0
0
0
0
0
0
0
0
0
0
0
0
0
0
0
0
0
0
0
0
0
0
0
0
0
0
0
0
0
0
0
0
0
0
0
0
0
0
0
0
0
0
0
0
0
0
0
0
0
0
0
0
0
0
0
0
0
0
0
0
0
0
0
0
0
0
0
0
0
0
0
0
0
0
0
0
0
0
0
0
0
0
0
0
0
0
0
0
0
0
0
0
0
0
0
0
0
0
0
0
0
0
0
0
0
0
0
0
0
0
0
0
0
0
0
0
0
0
0
0
0
0
0
0
0
0
0
0
0
0
0
0
0
0
0
0
0
0
0
0
0
0
0
0
0
0
0
0
0
0
0
0
0
0
0
0
0
0
0
0
0
0
0
0
0
0
0
0
0
0
0
0
0
0
0
0
0
0
0
0
0
0
0
0
0
0
0
0
0
0
0
0
0
0
0
0
0
0
0
0
0
0
0
0
0
0
0
0
0
0
0
0
0
0
0
0
0
0
0
0
0
0
0
0
0
0
0
0
0
0
0
0
0
0
0
0
0
0
0
0
0
0
0
0
0
0
0
0
0
0
0
0
0
0
0
0
0
0
0
0
0
0
0
0
0
0
0
0
0
0
0
0
0
0
0
0
0
0
0
0
0
0
0
0
0
0
0
0
0
0
0
0
0
0
0
0
0
0
0
0
0
0
0
0
0
0
0
0
0
0
0
0
0
0
0
0
0
0
0
0
0
0
0
0
0
0
0
0
0
0
0
0
0
0
0
0
0
0
0
0
0
0
0
0
0
0
0
0
0
0
0
0
0
0
0
0
0
0
0
0
0
0
0
0
0
0
0
0
0
0
0
0
0
0
0
0
0
0
0
0
0
0
0
0
0
0
0
0
0
0
0
0
0
0
0
0
0
0
0
0
0
0
0
0
0
0
0
0
0
0
0
0
0
0
0
0
0
0
0
0
0
0
0
0
0
0
0
0
0
0
0
0
0
0
0
0
0
0
0
0
0
0
0
0
0
0
0
0
0
0
0
0
0
0
0
0
0
0
0
0
0
0
0
0
0
0
0
0
0
0
0
0
0
0
0
0
0
0
0
0
0
0
0
0
0
0
0
0
0
0
0
0
0
0
0
0
0
0
0
0
0
0
0
0
0
0
0
0
0
0
0
0
0
0
0
0
0
0
0
0
0
0
0
0
0
0
0
0
0
0
0
0
0
0
0
0
0
0
0
0
0
0
0
0
0
0
0
0
0
0
0
0
0
0
0
0
0
0
0
0
0
0
0
0
0
0
0
0
0
0
0
0
0
0
0
0
0
0
0
0
0
0
0
0
0
0
0
0
0
0
0
0
0
0
0
0
0
0
0
0
0
0
0
0
0
0
0
0
0
0
0
0
0
0
0
0
0
0
0
0
0
0
0
0
0
0
0
0
0
0
0
0
0
0
0
0
0
0
0
0
0
0
0
0
0
0
0
0
0
0
0
0
0
0
0
0
0
0
0
0
0
0
0
0
0
0
0
0
0
0
0
0
0
0
0
0
0
0
0
0
0
0
0
0
0
0
0
0
0
0
0
0
0
0
0
0
0
0
0
0
0
0
0
0
0
0
0
0
0
0
0
0
0
0
0
0
0
0
0
0
0
0
0
0
0
0
0
0
0
0
0
0
0
0
0
0
0
0
0
0
0
0
0
0
0
0
0
0
0
0
0
0
0
0
0
0
0
0
0
0
0
0
0
0
0
0
0
0
0
0
0
0
0
0
0
0
0
0
0
0
0
0
0
0
0
0
0
0
0
0
0
0
0
0
0
0
0
0
0
0
0
0
0
0
0
0
0
0
0
0
0
0
0
0
0
0
0
0
0
0
0
0
0
0
0
0
0
0
0
0
0
0
0
0
0
0
0
0
0
0
0
0
0
0
0
0
0
0
0
0
0
0
0
0
0
0
0
0
0
0
0
0
0
0
0
0
0
0
0
0
0
0
0
0
0
0
0
0
0
0
0
0
0
0
0
0
0
0
0
0
0
0
0
0
0
0
0
0
0
0
0
0
0
0
0
0
0
0
0
0
0
0
0
0
0
0
0
0
0
0
0
0
0
0
0
0
0
0
0
0
0
0
0
0
0
0
0
0
0
0
0
0
0
0
0
0
0
0
0
0
0
0
0
0
0
0
0
0
0
0
0
0
0
0
0
0
0
0
0
0
0
0
0
0
0
0
0
0
0
0
0
0
0
0
0
0
0
0
0
0
0
0
0
0
0
0
0
0
0
0
0
0
0
0
0
0
0
0
0
0
0
0
0
0
0
0
0
0
0
0
0
0
0
0
0
0
0
0
0
0
0
0
0
0
0
0
0
0
0
0
0
0
0
0
0
0
0
0
0
0
0
0
0
0
0
0
0
0
0
0
0
0
0
0
0
0
0
0
0
0
0
0
0
0
0
0
0
0
0
0
0
0
0
0
0
0
0
0
0
0
0
0
0
0
0
0
0
0
0
0
0
0
0
0
0
0
0
0
0
0
0
0
0
0
0
0
0
0
0
0
0
0
0
0
0
0
0
0
0
0
0
0
0
0
0
0
0
0
0
0
0
0
0
0
0
0
0
0
0
0
0
0
0
0
0
0
0
0
0
0
0
0
0
0
0
0
0
0
0
0
0
0
0
0
0
0
0
0
0
0
0
0
0
0
0
0
0
0
0
0
0
0
0
0
0
0
0
0
0
0
0
0
0
0
0
0
0
0
0
0
0
0
0
0
0
0
0
0
0
0
0
0
0
0
0
0
0
0
0
0
0
0
0
0
0
0
0
0
0
0
0
0
0
0
0
0
0
0
0
0
0
0
0
0
0
0
0
0
0
0
0
0
0
0
0
0
0
0
0
0
0
0
0
0
0
0
0
0
0
0
0
0
0
0
0
0
0
0
0
0
0
0
0
0
0
0
0
0
0
0
0
0
0
0
0
0
0
0
0
0
0
0
0
0
0
0
0
0
0
0
0
0
0
0
0
0
0
0
0
0
0
0
0
0
0
0
0
0
0
0
0
0
0
0
0
0
0
0
0
0
0
0
0
0
0
0
0
0
0
0
0
0
0
0
0
0
0
0
0
0
0
0
0
0
0
0
0
0
0
0
0
0
0
0
0
0
0
0
0
0
0
0
0
0
0
0
0
0
0
0
0
0
0
0
0
0
0
0
0
0
0
0
0
0
0
0
0
0
0
0
0
0
0
0
0
0
0
0
0
0
0
0
0
0
0
0
0
0
0
0
0
0
0
0
0
0
0
0
0
0
0
0
0
0
0
0
0
0
0
0
0
0
0
0
0
0
0
0
0
0
0
0
0
0
0
0
0
0
0
0
0
0
0
0
0
0
0
0
0
0
0
0
0
0
0
0
0
0
0
0
0
0
0
0
0
0
0
0
0
0
0
0
0
0
0
0
0
0
0
0
0
0
0
0
0
0
0
0
0
0
0
0
0
0
0
0
0
0
0
0
0
0
0
0
0
0
0
0
0
0
0
0
0
0
0
0
0
0
0
0
0
0
0
0
0
0
0
0
0
0
0
0
0
0
0
0
0
0
0
0
0
0
0
0
0
0
0
0
0
0
0
0
0
0
0
0
0
0
0
0
0
0
0
0
0
0
0
0
0
0
0
0
0
0
0
0
0
0
0
0
0
0
0
0
0
0
0
0
0
0
0
0
0
0
0
0
0
0
0
0
0
0
0
0
0
0
0
0
0
0
0
0
0
0
0
0
0
0
0
0
0
0
0
0
0
0
0
0
0
0
0
0
0
0
0
0
0
0
0
0
0
0
0
0
0
0
0
0
0
0
0
0
0
0
0
0
0
0
0
0
0
0
0
0
0
0
0
0
0
0
0
0
0
0
0
0
0
0
0
0
0
0
0
0
0
0
0
0
0
0
0
0
0
0
0
0
0
0
0
0
0
0
0
0
0
0
0
0
0
0
0
0
0
0
0
0
0
0
0
0
0
0
0
0
0
0
0
0
0
0
0
0
0
0
0
0
0
0
0
0
0
0
0
0
0
0
0
0
0
0
0
0
0
0
0
0
0
0
0
0
0
0
0
0
0
0
0
0
0
0
0
0
0
0
0
0
0
0
0
0
0
0
0
0
0
0
0
0
0
0
0
0
0
0
0
0
0
0
0
0
0
0
0
0
0
0
0
0
0
0
0
0
0
0
0
0
0
0
0
0
0
0
0
0
0
0
0
0
0
0
0
0
0
0
0
0
0
0
0
0
0
0
0
0
0
0
0
0
0
0
0
0
0
0
0
0
0
0
0
0
0
0
0
0
0
0
0
0
0
0
0
0
0
0
0
0
0
0
0
0
0
0
0
0
0
0
0
0
0
0
0
0
0
0
0
0
0
0
0
0
0
0
0
0
0
0
0
0
0
0
0
0
0
0
0
0
0
0
0
0
0
0
0
0
0
0
0
0
0
0
0
0
0
0
0
0
0
0
0
0
0
0
0
0
0
0
0
0
0
0
0
0
0
0
0
0
0
0
0
0
0
0
0
0
0
0
0
0
0
0
0
0
0
0
0
0
0
0
0
0
0
0
0
0
0
0
0
0
0
0
0
0
0
0
0
0
0
0
0
0
0
0
0
0
0
0
0
0
0
0
0
0
0
0
0
0
0
0
0
0
0
0
0
0
0
0
0
0
0
0
0
0
0
0
0
0
0
0
0
0
0
0
0
0
0
0
0
0
0
0
0
0
0
0
0
0
0
0
0
0
0
0
0
0
0
0
0
0
0
0
0
0
0
0
0
0
0
0
0
0
0
0
0
0
0
0
0
0
0
0
0
0
0
0
0
0
0
0
0
0
0
0
0
0
0
0
0
0
0
0
0
0
0
0
0
0
0
0
0
0
0
0
0
0
0
0
0
0
0
0
0
0
0
0
0
0
0
0
0
0
0
0
0
0
0
0
0
0
0
0
0
0
0
0
0
0
0
0
0
0
0
0
0
0
0
0
0
0
0
0
0
0
0
0
0
0
0
0
0
0
0
0
0
0
0
0
0
0
0
0
0
0
0
0
0
0
0
0
0
0
0
0
0
0
0
0
0
0
0
0
0
0
0
0
0
0
0
0
0
0
0
0
0
0
0
0
0
0
0
0
0
0
0
0
0
0
0
0
0
0
0
0
0
0
0
0
0
0
0
0
0
0
0
0
0
0
0
0
0
0
0
0
0
0
0
0
0
0
0
0
0
0
0
0
0
0
0
0
0
0
0
0
0
0
0
0
0
0
0
0
0
0
0
0
0
0
0
0
0
0
0
0
0
0
0
0
0
0
0
0
0
0
0
0
0
0
0
0
0
0
0
0
0
0
0
0
0
0
0
0
0
0
0
0
0
0
0
0
0
0
0
0
0
0
0
0
0
0
0
0
0
0
0
0
0
0
0
0
0
0
0
0
0
0
0
0
0
0
0
0
0
0
0
0
0
0
0
0
0
0
0
0
0
0
0
0
0
0
0
0
0
0
0
0
0
0
0
0
0
0
0
0
0
0
0
0
0
0
0
0
0
0
0
0
0
0
0
0
0
0
0
0
0
0
0
0
0
0
0
0
0
0
0
0
0
0
0
0
0
0
0
0
0
0
0
0
0
0
0
0
0
0
0
0
0
0
0
0
0
0
0
0
0
0
0
0
0
0
0
0
0
0
0
0
0
0
0
0
0
0
0
0
0
0
0
0
0
0
0
0
0
0
0
0
0
0
0
0
0
0
0
0
0
0
0
0
0
0
0
0
0
0
0
0
0
0
0
0
0
0
0
0
0
0
0
0
0
0
0
0
0
0
0
0
0
0
0
0
0
0
0
0
0
0
0
0
0
0
0
0
0
0
0
0
0
0
0
0
0
0
0
0
0
0
0
0
0
