1.68476
1.65709
1.60346
1.55116
1.52351
1.52925
1.55869
1.60435
1.66321
1.73362
1.81415
1.90362
2.0013
2.10688
2.22045
2.34233
2.47292
2.61244
2.76068
2.91693
3.07991
3.24803
3.4197
3.59366
3.76928
3.94667
4.12655
4.30992
4.49765
4.69012
4.88695
5.08696
5.28823
5.48839
5.68454
5.87282
6.04916
6.21
6.35133
6.4666
6.54651
6.58489
6.57273
6.49928
6.35525
6.13706
5.84977
5.50705
5.1275
4.73016
4.32975
3.93183
3.54019
3.15832
2.78983
2.43869
2.10917
1.80539
1.5307
1.2872
1.07591
0.894874
0.739433
0.603688
0.481678
0.371027
0.270579
0.181994
0.110794
0.0633682
0.0438732
0.0521938
0.0836483
0.13036
0.183628
0.236351
0.285368
0.330575
0.372668
0.412664
0.451647
0.490333
0.528837
0.566662
0.602771
0.635679
0.663964
0.68645
0.702321
0.711137
0.712741
0.707119
0.69432
0.674488
0.648056
0.616048
0.580346
0.543803
0.510067
0.483115
0.466583
0.462477
0.474786
0.507317
0.555702
0.607301
0.648364
0.66793
0.660875
0.629146
0.580811
0.527368
0.480274
0.445985
0.423767
0.411662
0.408295
0.410435
0.414537
0.417636
0.417969
0.415173
0.41004
0.404025
0.39875
0.395476
0.395133
0.398504
0.406066
0.417884
0.433472
0.451853
0.471308
0.489867
0.50575
0.517759
0.525476
0.529195
0.529641
0.527626
0.523867
0.518773
0.512505
0.505157
0.496863
0.487859
0.478493
0.469206
0.460487
0.452848
0.446765
0.44257
0.440464
0.440363
0.441474
0.442813
0.443623
0.443764
0.443822
0.444809
0.447586
0.452255
0.455813
0.453243
0.439492
0.411941
0.372095
0.325516
0.279982
0.242764
0.217972
0.203261
0.197646
0.200039
0.209507
0.225201
0.247294
0.276345
0.312967
0.357421
0.409819
0.470005
0.537566
0.612018
0.69311
0.780621
0.874219
0.973227
1.07699
1.1837
1.28749
1.38019
1.45319
1.49921
1.51349
1.49399
1.44076
1.35527
1.24033
1.10481
0.957537
0.80525
0.654723
0.51288
0.385472
0.276113
0.187274
0.119489
0.0712048
0.0394127
0.0201221
0.00869942
0
0.0098217
0.00664978
-0.0190022
-0.0758331
-0.169472
-0.300087
-0.460984
-0.639073
-1.48004
-1.94943
-1.46037
0.401835
3.56367
7.29989
10.3853
11.5782
10.2173
6.59451
1.8597
-2.50753
-5.35436
-6.27395
-5.5952
-4.03617
-2.28973
-0.773983
0.376255
1.17885
1.32714
1.44495
1.51426
1.53572
1.52685
1.51393
1.52196
1.56386
1.63094
1.71472
1.81066
1.91511
2.02426
2.13444
2.24249
2.34639
2.4456
2.54107
2.63497
2.73012
2.82921
2.93409
3.04513
3.1618
3.2811
3.39933
3.51334
3.62152
3.72437
3.82433
3.92511
4.03088
4.14548
4.27067
4.40779
4.55821
4.72279
4.90188
5.09518
5.3017
5.51976
5.74697
5.98041
6.21681
6.4527
6.68468
6.90932
7.1236
7.32563
7.5145
7.68923
7.8472
7.98355
8.09533
8.17647
8.21344
8.19064
8.09774
7.93408
7.70721
7.42703
7.10048
6.74289
6.369
5.9842
5.59246
5.19914
4.8107
4.43413
4.07624
3.74299
3.43895
3.16701
2.9283
2.72228
2.54699
2.39932
2.27538
2.17102
2.08226
2.00577
1.93954
1.88312
1.83688
1.80198
1.77991
1.77179
1.77778
1.79678
1.82643
1.86337
1.90367
1.9434
1.97906
2.00785
2.02782
2.03804
2.03868
2.03105
2.01768
2.00221
1.98897
1.98324
1.99656
2.05458
2.16684
2.30007
2.4051
2.43772
2.37882
2.24473
2.08253
1.95138
1.89781
1.95827
2.09047
2.21239
2.24144
2.13361
1.9028
1.61031
1.33122
1.11802
1.04239
1.29881
1.72914
2.19965
2.59519
2.79255
2.70664
2.3507
1.85311
1.40352
1.17116
1.24404
1.4187
1.62538
1.8319
1.99759
2.08542
2.07398
1.9684
1.80607
1.65029
1.5677
1.58711
1.65429
1.74322
1.82197
1.86354
1.85635
1.80799
1.74045
1.67942
1.64303
1.629
1.62631
1.62923
1.63475
1.64069
1.64619
1.65166
1.65832
1.66738
1.68011
1.69448
1.70378
1.69945
1.6746
1.62754
1.56353
1.49392
1.43287
1.39321
1.38169
1.41463
1.50026
1.6119
1.71325
1.77184
1.76697
1.69762
1.58621
1.47307
1.40157
1.4006
1.45934
1.5802
1.72497
1.85113
1.92472
1.92814
1.86372
1.75455
1.64229
1.57928
1.60822
1.71337
1.86048
2.02887
2.20814
2.39038
2.56822
2.73542
2.8854
3.01039
3.10621
3.1719
3.2071
3.21202
3.18773
3.13639
3.06096
2.96467
2.85035
2.72253
2.58529
2.4412
2.29291
2.14406
1.99922
1.86363
1.74263
1.64155
1.56766
1.52988
1.53291
1.57001
1.62382
1.67313
1.69766
1.6803
1.60859
1.47646
1.28604
1.04904
0.785977
0.220401
0
0.633321
2.51558
5.60827
9.21459
12.0937
12.9603
11.1497
7.04808
1.97745
-2.43137
-5.00306
-5.46251
-4.34922
-2.55188
-0.8143
0.503398
1.37481
1.91525
2.03059
2.11916
2.20099
2.27616
2.34525
2.40902
2.46804
2.52266
2.57305
2.61947
2.66252
2.70329
2.74341
2.78481
2.82947
2.87894
2.93415
2.99529
3.06179
3.13243
3.2056
3.27964
3.35321
3.42555
3.49664
3.5672
3.63859
3.71254
3.79096
3.87573
3.96854
4.07087
4.18396
4.30878
4.44598
4.59577
4.75781
4.93116
5.11431
5.30532
5.50205
5.70242
5.90452
6.10671
6.30752
6.50546
6.69889
6.88583
7.06374
7.22938
7.37849
7.50599
7.60727
7.67847
7.71499
7.71132
7.66105
7.55759
7.39526
7.17079
6.88479
6.54346
6.1591
5.74706
5.32272
4.89816
4.48322
4.08596
3.71231
3.36609
3.04934
2.76281
2.50645
2.27978
2.08207
1.91241
1.76967
1.65278
1.55969
1.4875
1.43295
1.39263
1.36331
1.3421
1.32662
1.31502
1.30599
1.29867
1.29268
1.28802
1.28502
1.2842
1.28616
1.29146
1.30039
1.31308
1.32938
1.34886
1.37079
1.39413
1.41756
1.4394
1.45778
1.47087
1.47713
1.47545
1.46531
1.44675
1.42028
1.38669
1.34693
1.30216
1.25366
1.20273
1.15076
1.09939
1.05047
1.00585
0.967206
0.935817
0.912373
0.896862
0.888602
0.88638
0.888385
0.892129
0.895137
0.895616
0.892902
0.887661
0.88172
0.877548
0.877507
0.88311
0.894239
0.909772
0.927699
0.9456
0.961242
0.973053
0.980385
0.98354
0.983613
0.982259
0.981262
0.982231
0.986414
0.994613
1.00707
1.02278
1.0391
1.0529
1.06175
1.06486
1.06372
1.06185
1.06385
1.07398
1.09467
1.12506
1.16309
1.20366
1.24114
1.27099
1.29088
1.30091
1.30284
1.2989
1.29065
1.27879
1.26319
1.24397
1.22247
1.20163
1.18572
1.17921
1.1854
1.20431
1.23467
1.27333
1.3162
1.3594
1.40031
1.43768
1.47157
1.50305
1.53382
1.56588
1.60118
1.64187
1.69025
1.74873
1.81958
1.90471
2.00509
2.1205
2.25439
2.40905
2.56797
2.70911
2.81218
2.86492
2.86626
2.8249
2.75412
2.66606
2.56848
2.46704
2.36432
2.26195
2.16182
2.06621
1.97743
1.89739
1.82736
1.76762
1.7173
1.67435
1.63567
1.59718
1.55406
1.50099
1.43281
1.34508
1.23484
1.10128
0.946231
0.774244
0.581872
0.111751
0
0.688205
2.52626
5.48025
8.93306
11.7668
12.7912
11.3337
7.64854
2.86666
-1.51589
-4.31532
-5.11284
-4.26638
-2.55939
-0.760678
0.657746
1.56246
2.04615
2.18014
2.30062
2.41151
2.51047
2.597
2.67241
2.73958
2.80234
2.86475
2.93045
3.00212
3.0808
3.16648
3.25861
3.35593
3.45656
3.55807
3.6569
3.74944
3.83292
3.90636
3.97099
4.03035
4.08953
4.1541
4.22885
4.31609
4.4154
4.52586
4.64627
4.77505
4.91055
5.05138
5.19653
5.34551
5.49828
5.65525
5.81723
5.98538
6.16104
6.34561
6.54027
6.7457
6.9618
7.1876
7.42114
7.65967
7.89998
8.13764
8.36529
8.57261
8.74887
8.88642
8.97821
9.01715
8.99685
8.91256
8.76234
8.54788
8.27446
7.95024
7.59051
7.21193
6.82573
6.43787
6.05302
5.6756
5.30958
4.95821
4.6239
4.30822
4.01208
3.73598
3.48038
3.24595
3.03369
2.84492
2.6808
2.54197
2.42958
2.3438
2.28138
2.23778
2.20802
2.18754
2.1729
2.16219
2.1551
2.15257
2.15624
2.16738
2.18666
2.21459
2.25122
2.29494
2.34136
2.38414
2.41715
2.43595
2.43893
2.42773
2.40681
2.38225
2.36018
2.34531
2.33887
2.33982
2.34676
2.35824
2.37245
2.38726
2.40008
2.40847
2.41035
2.40426
2.38958
2.36651
2.33597
2.29941
2.25862
2.21571
2.17276
2.13202
2.09582
2.06629
2.04504
2.03279
2.02915
2.03259
2.04072
2.0506
2.05923
2.06418
2.06324
2.05499
2.03881
2.0151
1.98531
1.95185
1.91793
1.88707
1.86238
1.84597
1.83881
1.84023
1.8486
1.86187
1.87819
1.89629
1.91542
1.93511
1.95461
1.97235
1.98598
1.99274
1.99034
1.97773
1.95571
1.92693
1.89552
1.86624
1.84323
1.82882
1.82371
1.82776
1.83997
1.85845
1.88071
1.90405
1.92586
1.9438
1.95582
1.96033
1.95642
1.9439
1.92338
1.89645
1.8656
1.83407
1.80542
1.78304
1.76934
1.7667
1.77665
1.79664
1.8217
1.84711
1.87021
1.89156
1.91484
1.94558
1.98908
2.04834
2.12104
2.2024
2.28851
2.37524
2.45917
2.53829
2.61223
2.68205
2.74934
2.81602
2.88312
2.94872
3.00812
3.05427
3.07993
3.07898
3.04723
2.98318
2.88846
2.76803
2.62975
2.48337
2.33924
2.2052
2.08398
1.9777
1.88895
1.82232
1.78378
1.76978
1.77153
1.77817
1.77847
1.76213
1.7203
1.6457
1.53308
1.38046
1.19744
0.990578
0.768017
0
-0.382426
0.158691
2.00597
5.11583
8.84333
12.027
13.405
12.2085
8.60513
3.69526
-0.97557
-4.11304
-5.1826
-4.47799
-2.79437
-0.966917
0.462457
1.32901
1.73826
1.83704
1.93492
2.03198
2.12838
2.2246
2.32129
2.41902
2.51788
2.61727
2.71564
2.81018
2.8977
2.97546
3.04208
3.09817
3.14638
3.19097
3.23674
3.28807
3.34779
3.41635
3.49311
3.57715
3.6672
3.76199
3.86039
3.96158
4.06503
4.17043
4.2777
4.38687
4.4982
4.61217
4.72951
4.85127
4.97875
5.11347
5.25698
5.41071
5.57575
5.75256
5.94083
6.13922
6.34534
6.55571
6.76603
6.97099
7.16542
7.3452
7.50788
7.65307
7.78131
7.88856
7.97296
8.03377
8.06318
8.04852
7.97681
7.83867
7.62991
7.35142
7.00882
6.61983
6.20777
5.78585
5.36242
4.94501
4.54026
4.15344
3.78829
3.44718
3.13148
2.84203
2.57954
2.34471
2.13812
1.96009
1.81153
1.69342
1.60274
1.53296
1.47699
1.42856
1.38344
1.34008
1.29954
1.26471
1.23919
1.22532
1.22398
1.23575
1.26005
1.29533
1.33994
1.39285
1.45054
1.50394
1.54203
1.55467
1.53656
1.49048
1.42754
1.3636
1.31336
1.28516
1.27306
1.27057
1.2751
1.28427
1.29621
1.30954
1.32268
1.33286
1.33631
1.32918
1.30884
1.27525
1.23136
1.18245
1.13467
1.09328
1.05962
1.03296
1.01292
0.998199
0.987235
0.978731
0.972056
0.967414
0.965748
0.968413
0.976718
0.991441
1.01242
1.03883
1.06863
1.09811
1.12297
1.13968
1.14643
1.14363
1.13361
1.11977
1.10514
1.09125
1.07674
1.05804
1.03143
0.995687
0.953786
0.912977
0.882896
0.87252
0.885293
0.91618
0.962474
1.01914
1.07983
1.13815
1.18869
1.22771
1.25342
1.26597
1.26709
1.2595
1.24637
1.23078
1.21532
1.20193
1.19195
1.18635
1.18578
1.19057
1.2007
1.21566
1.23446
1.25561
1.27727
1.29747
1.31449
1.32707
1.3346
1.33724
1.33583
1.33189
1.32743
1.3248
1.32642
1.33437
1.35013
1.37422
1.40654
1.44578
1.49017
1.53792
1.58762
1.63842
1.68999
1.74253
1.79668
1.85364
1.91541
1.98489
2.06561
2.16113
2.27403
2.41025
2.57612
2.75381
2.91631
3.03834
3.10442
3.1123
3.07084
2.99438
2.89658
2.78657
2.67061
2.55176
2.43188
2.31287
2.19715
2.08754
1.98693
1.89807
1.82432
1.76774
1.72644
1.69714
1.67616
1.6603
1.64715
1.6347
1.62015
1.59713
1.55583
1.48394
1.36993
1.20717
0.996941
0.649643
0.0334717
0
1.07737
3.54093
7.09285
10.7785
13.2611
13.4038
10.8704
6.37446
1.38681
-2.55214
-4.51162
-4.46276
-3.08107
-1.26772
0.288209
1.29385
1.79258
1.98534
2.16796
2.343
2.50296
2.64192
2.75538
2.84146
2.90158
2.94046
2.96506
2.98309
3.00139
3.02463
3.05452
3.09225
3.13895
3.19565
3.26323
3.34221
3.43236
3.53231
3.63952
3.7505
3.86154
3.96935
4.07168
4.16773
4.25809
4.34451
4.42943
4.51554
4.60544
4.7015
4.80591
4.92056
5.04689
5.18567
5.33683
5.49938
5.67157
5.85115
6.03588
6.22386
6.41363
6.60411
6.79417
6.9822
7.16564
7.34007
7.49981
7.6392
7.75302
7.83712
7.88871
7.90615
7.88839
7.8343
7.74229
7.61204
7.44365
7.23554
6.98714
6.69947
6.37539
6.02041
5.64171
5.24659
4.84312
4.43966
4.04441
3.66498
3.3081
2.97932
2.68291
2.42164
2.19674
2.00802
1.85448
1.73407
1.64292
1.57471
1.52189
1.47758
1.43644
1.39529
1.35327
1.31143
1.27211
1.23802
1.21132
1.19281
1.18288
1.18142
1.18791
1.20159
1.22142
1.24648
1.27584
1.30835
1.34261
1.37696
1.40938
1.43764
1.45966
1.47381
1.47914
1.47557
1.46391
1.44588
1.42379
1.40024
1.37766
1.35788
1.34177
1.32937
1.32006
1.31243
1.30467
1.29487
1.28138
1.263
1.23915
1.20985
1.1757
1.13781
1.09772
1.05722
1.01837
0.983361
0.954127
0.932115
0.91802
0.911641
0.91191
0.917119
0.925297
0.934611
0.943695
0.951821
0.958677
0.964091
0.96773
0.968828
0.966017
0.957667
0.942372
0.919523
0.889843
0.8556
0.820335
0.788168
0.762754
0.746347
0.739805
0.741398
0.748128
0.756903
0.765614
0.7737
0.782036
0.792234
0.805702
0.822594
0.842171
0.861877
0.877331
0.883863
0.877872
0.857996
0.825818
0.785811
0.744461
0.708734
0.68431
0.673049
0.672597
0.680438
0.693791
0.708991
0.722196
0.730287
0.731366
0.724977
0.712059
0.694646
0.675408
0.657138
0.642333
0.632795
0.62981
0.634571
0.648163
0.671557
0.705395
0.749596
0.802989
0.864233
0.92928
0.993886
1.05509
1.11255
1.1693
1.23135
1.31724
1.49665
1.75606
2.02027
2.19799
2.23193
2.12675
1.94039
1.74628
1.5895
1.46448
1.33748
1.20421
1.0644
0.918818
0.770797
0.625617
0.489478
0.368113
0.265675
0.18396
0.122283
0.0778164
0.0461929
0.022142
0
-0.0189438
-0.0478661
-0.0919237
-0.154927
-0.238585
-0.341855
-0.460721
-0.589143
-1.27056
-1.72626
-1.36427
0.316577
3.35832
7.09703
10.2782
11.5625
10.1933
6.43169
1.47428
-3.11434
-6.11233
-7.08484
-6.36807
-4.70872
-2.84415
-1.25751
-0.144484
0.49748
0.641388
0.726197
0.806676
0.884157
0.959245
1.03152
1.09944
1.16085
1.21413
1.25945
1.29933
1.33837
1.38214
1.43557
1.50144
1.57827
1.66278
1.75202
1.84316
1.93393
2.02307
2.11051
2.19706
2.2839
2.37202
2.46203
2.55339
2.64472
2.73501
2.82465
2.9161
3.01369
3.1227
3.24793
3.39235
3.55414
3.73007
3.91737
4.11308
4.31444
4.51939
4.72663
4.93554
5.1458
5.35687
5.56767
5.77631
5.97994
6.17425
6.35265
6.50714
6.63257
6.72477
6.78059
6.79764
6.77381
6.70668
6.59309
6.42935
6.21299
5.95031
5.64882
5.31408
4.95158
4.56799
4.1709
3.76825
3.36774
2.97647
2.60066
2.24566
1.916
1.61548
1.34704
1.11261
0.912906
0.748309
0.619484
0.523247
0.452619
0.400076
0.358804
0.323796
0.292501
0.264859
0.242745
0.229015
0.225659
0.233466
0.252653
0.282398
0.320935
0.363897
0.406402
0.444478
0.476153
0.502127
0.525833
0.553296
0.606425
0.753753
0.979669
1.21364
1.36325
1.35715
1.1823
0.895376
0.600407
0.403672
0.365735
0.385432
0.421559
0.467103
0.515735
0.562406
0.604379
0.640317
0.67004
0.694107
0.713249
0.727727
0.736821
0.739342
0.733672
0.718448
0.693295
0.659314
0.619171
0.576713
0.536257
0.501515
0.474448
0.456385
0.4479
0.448673
0.457599
0.473351
0.4947
0.520697
0.550667
0.584043
0.62036
0.658485
0.696096
0.730211
0.757936
0.777314
0.787991
0.791404
0.790368
0.788158
0.787407
0.789038
0.792376
0.795803
0.797227
0.794965
0.788528
0.779045
0.769187
0.762615
0.76285
0.772208
0.791077
0.817777
0.849025
0.880778
0.909156
0.931515
0.946066
0.952078
0.949706
0.939944
0.924514
0.905217
0.884079
0.863417
0.845678
0.83319
0.827747
0.830562
0.8423
0.862963
0.890935
0.922446
0.953316
0.980109
1.00106
1.01654
1.02899
1.04217
1.06017
1.08643
1.1221
1.16671
1.21964
1.28035
1.34805
1.4219
1.50106
1.58477
1.67233
1.76325
1.85728
1.9545
2.05584
2.16339
2.2756
2.38219
2.46762
2.51679
2.52152
2.48385
2.41388
2.32405
2.22394
2.11967
2.01459
1.91057
1.80949
1.71377
1.62613
1.54926
1.48549
1.43634
1.40262
1.38416
1.37837
1.37933
1.37884
1.36765
1.33639
1.27664
1.18195
1.04868
0.876565
0.668798
0.432298
0
-0.477684
-0.366898
0.819999
3.31702
6.80583
10.3331
12.5926
12.512
9.83758
5.34158
0.488721
-3.25354
-5.0481
-4.91903
-3.52708
-1.7164
-0.131607
0.938573
1.50777
1.71566
1.83542
1.95179
2.06435
2.17266
2.27625
2.37458
2.46679
2.55196
2.6297
2.70001
2.7635
2.8214
2.87553
2.92796
2.98072
3.03545
3.09312
3.15397
3.21797
3.2848
3.35404
3.42531
3.49839
3.57329
3.65039
3.73044
3.81452
3.9039
3.99979
4.10311
4.21432
4.33325
4.45929
4.59168
4.72971
4.87294
5.02139
5.17562
5.33665
5.5058
5.68434
5.87317
6.07236
6.28083
6.4961
6.71434
6.93043
7.13749
7.32807
7.49568
7.63495
7.74125
7.81101
7.84181
7.83136
7.77728
7.67725
7.5295
7.33359
7.091
6.80547
6.48372
6.13503
5.76805
5.38893
5.00293
4.61469
4.22845
3.84839
3.47909
3.12562
2.79351
2.48824
2.2146
1.97698
1.77906
1.62022
1.4962
1.40104
1.32834
1.27237
1.22899
1.19584
1.17207
1.1576
1.15198
1.15513
1.1656
1.1813
1.19999
1.21988
1.24005
1.26053
1.28207
1.30578
1.33266
1.36302
1.39679
1.43366
1.47298
1.51375
1.55439
1.59232
1.62394
1.64532
1.65271
1.6433
1.61602
1.57203
1.51464
1.44889
1.38067
1.31562
1.25741
1.20821
1.16968
1.14262
1.12681
1.12112
1.12372
1.13237
1.14447
1.15688
1.16648
1.17105
1.16969
1.16309
1.15331
1.14325
1.13568
1.13245
1.13396
1.13871
1.14417
1.14777
1.14794
1.14469
1.13951
1.13489
1.13346
1.13663
1.14467
1.15738
1.1739
1.19245
1.21031
1.2244
1.232
1.23144
1.22256
1.20694
1.1876
1.16833
1.15269
1.14405
1.14387
1.14942
1.15631
1.16066
1.16096
1.15879
1.15776
1.16154
1.17179
1.18651
1.20248
1.2159
1.22349
1.22349
1.21599
1.20283
1.18697
1.17182
1.16003
1.15366
1.15442
1.16329
1.18043
1.20504
1.23556
1.26966
1.30438
1.3365
1.36321
1.38254
1.39367
1.39709
1.39451
1.38867
1.38294
1.38088
1.38565
1.39943
1.42351
1.45855
1.50474
1.56185
1.62939
1.7068
1.79358
1.88918
1.99285
2.10325
2.21827
2.33497
2.4486
2.55348
2.6441
2.71601
2.76648
2.79467
2.80136
2.78827
2.75734
2.71028
2.64953
2.57729
2.4953
2.40548
2.31041
2.21322
2.11728
2.02575
1.94135
1.86612
1.80138
1.74784
1.70566
1.67445
1.65344
1.6417
1.63668
1.62913
1.60423
1.54545
1.43879
1.27725
1.06396
0.743873
0.0878868
0
1.02395
3.44244
6.9827
10.7178
13.3235
13.6434
11.2888
6.90682
1.91903
-2.13699
-4.27983
-4.39819
-3.09502
-1.24329
0.445676
1.62607
2.28355
2.45379
2.54655
2.63312
2.71503
2.79421
2.87267
2.95216
3.03386
3.11815
3.20453
3.29172
3.37795
3.46137
3.5405
3.61456
3.68367
3.74884
3.81174
3.87434
3.93857
4.00595
4.07746
4.1535
4.23407
4.319
4.4082
4.50186
4.60051
4.7049
4.81589
4.93418
5.06016
5.19379
5.33456
5.4816
5.63376
5.78977
5.94848
6.10902
6.27099
6.43463
6.60078
6.77076
6.94608
7.12802
7.31724
7.51349
7.71558
7.92164
8.12918
8.33503
8.53494
8.72247
8.89088
9.03738
9.15159
9.21314
9.20032
9.10035
8.91405
8.65187
8.32512
7.94098
7.52162
7.08861
6.65237
6.2188
5.79378
5.38314
4.99226
4.62566
4.28674
3.97778
3.69994
3.45345
3.23779
3.05178
2.89371
2.76131
2.65178
2.56191
2.48823
2.42719
2.37549
2.33033
2.28966
2.2523
2.21791
2.18686
2.1601
2.13893
2.12473
2.11888
2.1225
2.13637
2.16072
2.19503
2.23868
2.29014
2.34486
2.39673
2.43961
2.46847
2.48019
2.47402
2.4515
2.41608
2.37252
2.32639
2.28222
2.24318
2.21202
2.19077
2.1776
2.16877
2.15994
2.14766
2.13056
2.10965
2.08789
2.06887
2.0555
2.04791
2.04503
2.04465
2.0432
2.03693
2.02291
1.99977
1.96802
1.92985
1.88858
1.84781
1.81067
1.77883
1.75298
1.73361
1.72066
1.71359
1.71171
1.71373
1.71769
1.72119
1.72185
1.71767
1.70749
1.69126
1.67013
1.64632
1.62276
1.60255
1.58821
1.58122
1.58252
1.59308
1.61162
1.63267
1.65011
1.6591
1.65777
1.64793
1.63434
1.62264
1.61782
1.61991
1.62211
1.61465
1.59022
1.54863
1.49821
1.45309
1.42753
1.42989
1.46151
1.51036
1.55845
1.58902
1.59257
1.56977
1.53052
1.49016
1.46463
1.46323
1.5021
1.6047
1.74117
1.86652
1.93674
1.92675
1.8428
1.72232
1.6199
1.58626
1.64577
1.75738
1.89455
2.04891
2.21861
2.39821
2.57569
2.73601
2.86639
2.95752
3.00446
3.00695
2.96945
2.90068
2.81229
2.7161
2.62037
2.52685
2.43283
2.33602
2.23545
2.13094
2.02394
1.91738
1.81512
1.7211
1.63802
1.56763
1.51009
1.464
1.42658
1.39395
1.36146
1.32385
1.27566
1.21206
1.12951
1.02648
0.904013
0.765814
0.617159
0
-0.423807
-0.116117
1.42682
4.3355
8.07162
11.4406
13.0369
11.944
8.28042
3.21845
-1.57271
-4.72385
-5.7245
-4.95657
-3.28496
-1.53577
-0.170453
0.734397
1.31302
1.53751
1.66527
1.77789
1.87444
1.95551
2.02293
2.07936
2.12791
2.17175
2.21398
2.25739
2.30456
2.3578
2.41899
2.48939
2.56942
2.65826
2.75421
2.85492
2.95747
3.05847
3.1543
3.2421
3.32034
3.38916
3.45056
3.50813
3.56647
3.63035
3.70379
3.78939
3.88753
3.99714
4.11718
4.24673
4.38542
4.53352
4.69178
4.86087
5.04089
5.23094
5.42899
5.63259
5.83939
6.04771
6.25703
6.46809
6.68375
6.91488
7.18224
7.47203
7.73742
7.93478
8.04535
8.07671
8.04618
7.95954
7.80167
7.54763
7.20415
6.80313
6.37843
5.95686
5.5469
5.1465
4.75572
4.37509
4.00503
3.64637
3.30071
2.97043
2.65833
2.36714
2.09891
1.85461
1.63401
1.43589
1.25853
1.10061
0.962351
0.843561
0.744479
0.66562
0.607274
0.569122
0.550099
0.548483
0.5621
0.588499
0.624644
0.668791
0.717742
0.76669
0.810595
0.845086
0.867428
0.877273
0.876893
0.870761
0.864541
0.86373
0.871682
0.889001
0.916291
0.950583
0.985891
1.01578
1.03514
1.04156
1.03584
1.02147
1.00333
0.985937
0.971973
0.961391
0.95289
0.944904
0.936164
0.926342
0.916256
0.907585
0.90222
0.901478
0.904981
0.911687
0.919312
0.924139
0.922113
0.90987
0.885711
0.85031
0.806978
0.761383
0.720739
0.698841
0.736926
0.878187
1.07415
1.25233
1.34614
1.32022
1.18515
0.996053
0.834322
0.77479
0.824283
0.910438
1.00456
1.08816
1.14837
1.18147
1.19287
1.19328
1.19303
1.19761
1.20568
1.21475
1.22271
1.22909
1.23535
1.24388
1.25644
1.27298
1.29084
1.30595
1.31465
1.31559
1.31065
1.30464
1.30373
1.31324
1.33674
1.37381
1.41653
1.45425
1.47753
1.48164
1.46833
1.44532
1.42378
1.41466
1.42328
1.44735
1.48212
1.52371
1.56742
1.60877
1.64445
1.67283
1.69394
1.70905
1.71998
1.72847
1.73597
1.74338
1.75151
1.76146
1.77485
1.79398
1.82169
1.86098
1.91453
1.98404
2.06974
2.17039
2.28361
2.40607
2.53376
2.66244
2.78769
2.90506
3.01058
3.10096
3.17325
3.22449
3.25247
3.25518
3.23074
3.17779
3.09593
2.98622
2.85154
2.69681
2.52889
2.35663
2.18806
2.03004
1.88904
1.77116
1.6855
1.64444
1.6558
1.71091
1.78546
1.85337
1.89232
1.88525
1.81985
1.68809
1.48707
1.22123
0.904328
0.561666
0.0890881
0
0.707415
2.53674
5.45513
8.87962
11.7387
12.8582
11.5297
7.94127
3.1763
-1.26358
-4.147
-5.01138
-4.21158
-2.56153
-0.849026
0.479056
1.34958
1.89648
2.04299
2.16079
2.24779
2.30011
2.32247
2.32681
2.32892
2.34439
2.38466
2.44883
2.53185
2.62998
2.73986
2.85748
2.97849
3.09832
3.21138
3.31153
3.39525
3.46125
3.51105
3.54905
3.58197
3.61732
3.6616
3.71859
3.7879
3.86581
3.95012
4.03911
4.13235
4.23093
4.33703
4.45319
4.58137
4.72172
4.87285
5.03324
5.20093
5.37368
5.54926
5.72559
5.90092
6.07385
6.24349
6.40951
6.57226
6.73266
6.89222
7.05486
7.23147
7.42589
7.61271
7.75192
7.80811
7.7678
7.64435
7.46607
7.25443
7.00703
6.71441
6.38823
6.03979
5.6749
5.29756
4.91191
4.52287
4.13625
3.75834
3.39538
3.05305
2.73585
2.44669
2.18664
1.95485
1.74896
1.56591
1.40267
1.25812
1.13364
1.03025
0.950049
0.894978
0.870597
0.883537
0.922553
0.96953
1.00655
1.02141
1.01106
0.981646
0.945615
0.917122
0.907426
0.916526
0.939493
0.97292
1.01385
1.05748
1.09873
1.13298
1.15648
1.16665
1.16218
1.14314
1.11097
1.06843
1.01945
0.968682
0.920807
0.87977
0.848097
0.825893
0.812589
0.80684
0.807251
0.813029
0.824332
0.842188
0.86946
0.912912
0.976493
1.04503
1.09485
1.10267
1.05652
0.963138
0.84764
0.744318
0.682582
0.669987
0.683357
0.712229
0.750419
0.792163
0.83313
0.870969
0.904331
0.932413
0.955219
0.973062
0.986497
0.996349
1.00371
1.00984
1.01588
1.02263
1.03027
1.03832
1.04595
1.05205
1.0556
1.05591
1.05281
1.04672
1.03855
1.02949
1.02072
1.01313
1.00708
1.00234
0.998067
0.993218
0.986957
0.979122
0.970534
0.963057
0.95935
0.962343
0.974532
0.997031
1.03057
1.07481
1.1241
1.17122
1.20975
1.23604
1.25012
1.25533
1.25676
1.25912
1.26501
1.27362
1.28309
1.29089
1.29481
1.2939
1.28888
1.28197
1.27639
1.27549
1.28185
1.29665
1.32025
1.35288
1.39473
1.44595
1.50666
1.57691
1.65647
1.74465
1.84019
1.94111
2.04488
2.14837
2.24767
2.3379
2.41378
2.47147
2.50811
2.52212
2.51336
2.48325
2.43459
2.37127
2.29781
2.21894
2.13902
2.06093
1.98643
1.91643
1.85106
1.78958
1.7303
1.67138
1.61142
1.55006
1.48824
1.42798
1.37177
1.32384
1.28632
1.24916
1.19498
1.10512
0.967663
0.783642
0.553389
0.0368103
0
0.848836
2.83323
5.82262
9.15631
11.7359
12.4294
10.6408
6.70518
1.81752
-2.50958
-5.14292
-5.76137
-4.81262
-3.10978
-1.37698
-0.00589218
0.932163
1.53313
1.75928
1.85535
1.93884
2.00982
2.0695
2.12002
2.16409
2.20463
2.24426
2.28507
2.32841
2.37506
2.42534
2.47929
2.53679
2.59769
2.66182
2.72894
2.79874
2.87092
2.94529
3.02195
3.10152
3.18529
3.27516
3.37332
3.48175
3.60166
3.7331
3.87458
4.0235
4.17679
4.33139
4.48489
4.63608
4.78516
4.93379
5.08475
5.24143
5.40726
5.58505
5.7765
5.98185
6.19978
6.42751
6.66115
6.89618
7.12786
7.35115
7.56068
7.75072
7.91514
8.04762
8.14345
8.19857
8.20568
8.15566
8.04017
7.85455
7.59955
7.28143
6.9107
6.50488
6.08327
5.65695
5.23217
4.8147
4.41005
4.02319
3.65844
3.31933
3.00847
2.72763
2.47773
2.25895
2.07104
1.91335
1.78419
1.68131
1.60195
1.54291
1.50071
1.47177
1.45269
1.44036
1.43221
1.42624
1.42111
1.41611
1.41109
1.40649
1.40324
1.40263
1.40616
1.41525
1.43097
1.45374
1.48322
1.51822
1.55689
1.59684
1.63553
1.67077
1.70099
1.72543
1.74404
1.75727
1.76572
1.76979
1.76943
1.76418
1.75332
1.73621
1.71262
1.68305
1.64894
1.61262
1.57706
1.54548
1.5207
1.50477
1.49879
1.50358
1.51899
1.54146
1.5656
1.58637
1.60048
1.60734
1.60906
1.60955
1.61299
1.62212
1.63812
1.6575
1.67425
1.68224
1.67762
1.66053
1.6352
1.60859
1.58795
1.57813
1.57959
1.58865
1.59827
1.60047
1.58898
1.56098
1.51766
1.46348
1.40481
1.34865
1.30006
1.26176
1.23758
1.23238
1.26421
1.3663
1.54883
1.76327
1.95118
2.07346
2.11469
2.07566
1.96609
1.80497
1.62566
1.47481
1.38459
1.34585
1.33495
1.33754
1.34834
1.36536
1.38795
1.41687
1.45624
1.5183
1.62039
1.74683
1.86248
1.92771
1.91611
1.82853
1.69691
1.57463
1.51494
1.54541
1.6212
1.71581
1.81127
1.89263
1.95273
1.99431
2.02841
2.06971
2.13046
2.21559
2.31557
2.4214
2.52599
2.62213
2.7035
2.76535
2.80451
2.81926
2.80888
2.77343
2.71451
2.63395
2.53474
2.42134
2.29958
2.17627
2.05841
1.95183
1.86114
1.78926
1.73706
1.7034
1.68441
1.67184
1.65411
1.61911
1.55567
1.45499
1.31188
1.12564
0.900401
0.644741
0.334324
-0.048786
0
0.916808
3.01038
6.16376
9.64301
12.2461
12.8079
10.818
6.7617
1.93132
-2.19121
-4.59883
-5.08369
-4.10638
-2.40345
-0.625964
0.820878
1.77067
2.2321
2.29172
2.35213
2.4131
2.47452
2.53605
2.59731
2.65801
2.71816
2.77813
2.83866
2.90069
2.96514
3.03263
3.10323
3.1764
3.25093
3.32514
3.39714
3.46534
3.52889
3.58794
3.64379
3.69866
3.75538
3.81693
3.88592
3.96415
4.05276
4.15235
4.26296
4.38431
4.5159
4.65713
4.8073
4.96558
5.13099
5.30233
5.47818
5.65694
5.83686
6.01615
6.19303
6.36577
6.53289
6.69314
6.84574
6.99043
7.12759
7.25818
7.38361
7.50547
7.62552
7.74592
7.86611
7.97648
8.05939
8.09352
8.05944
7.94424
7.74369
7.46195
7.10963
6.70162
6.26515
5.81925
5.37288
4.93204
4.50254
4.08985
3.69896
3.3342
2.99921
2.69673
2.42866
2.19592
1.9986
1.83563
1.7049
1.60394
1.5293
1.47638
1.4404
1.41683
1.40179
1.39229
1.38643
1.38326
1.38269
1.38515
1.39119
1.40129
1.41568
1.43411
1.45508
1.47526
1.49041
1.49641
1.49042
1.47189
1.44315
1.40935
1.3776
1.35568
1.36047
1.41738
1.50907
1.59882
1.64564
1.62273
1.53021
1.39553
1.26132
1.1669
1.12891
1.12023
1.12659
1.1427
1.16089
1.17225
1.16928
1.14713
1.10477
1.04551
0.976685
0.908286
0.850572
0.81144
0.797176
0.808047
0.832607
0.856077
0.866012
0.856961
0.832489
0.804037
0.787238
0.828293
0.962785
1.14447
1.29454
1.34272
1.26211
1.08117
0.868453
0.701145
0.634628
0.637667
0.7108
0.863012
1.04376
1.19488
1.26432
1.22485
1.09002
0.914318
0.771738
0.720456
0.752903
0.813536
0.880577
0.946107
1.00386
1.04922
1.07951
1.0939
1.09318
1.07946
1.05603
1.02683
0.995728
0.966406
0.942115
0.925319
0.917486
0.919006
0.929289
0.94696
0.970088
0.996309
1.02313
1.04714
1.06487
1.07345
1.07137
1.05917
1.03965
1.01738
0.997563
0.984683
0.981135
0.98654
1.0004
1.02164
1.04929
1.08254
1.1213
1.16573
1.21599
1.2718
1.33305
1.39972
1.47212
1.55096
1.63713
1.73137
1.83404
1.9455
2.06311
2.17951
2.28481
2.36953
2.42658
2.45247
2.44746
2.41472
2.35901
2.2853
2.19787
2.10096
1.99802
1.89174
1.7846
1.67929
1.57897
1.48707
1.40693
1.34211
1.29655
1.27154
1.26273
1.26307
1.26371
1.2552
1.22855
1.1762
1.09291
0.976572
0.828979
0.657538
0.448366
0.00330734
0
0.88641
2.93935
6.03304
9.48082
12.1533
12.907
11.1535
7.23827
2.36078
-1.95741
-4.55545
-5.07521
-3.95316
-2.04845
-0.179077
1.17444
1.91536
2.19628
2.30563
2.41954
2.54003
2.67074
2.8151
2.96535
3.1044
3.21467
3.28501
3.31552
3.31819
3.31307
3.32134
3.35836
3.42234
3.50331
3.59519
3.69418
3.79709
3.90155
4.00643
4.11194
4.21932
4.33044
4.44715
4.5707
4.70126
4.8377
4.9777
5.11813
5.25571
5.38775
5.51281
5.63118
5.74498
5.85799
5.97521
6.10212
6.24394
6.40495
6.58787
6.79346
7.02039
7.26537
7.5235
7.78891
8.05534
8.31636
8.56391
8.78664
8.97369
9.12072
9.22453
9.28279
9.2941
9.25782
9.1731
9.03774
8.84772
8.60137
8.3075
7.97581
7.61352
7.22704
6.82349
6.41095
5.9982
5.59392
5.20598
4.84102
4.50414
4.19888
3.92732
3.6902
3.48718
3.31699
3.17761
3.06645
2.98048
2.91635
2.87062
2.83998
2.82095
2.80967
2.80283
2.79785
2.79328
2.78881
2.78528
2.78441
2.78838
2.79931
2.81849
2.84721
2.88688
2.93846
2.99674
3.04893
3.08116
3.08326
3.05358
3.00155
2.9458
2.90802
2.90485
2.93555
2.98499
3.04713
3.11449
3.17951
3.23618
3.28047
3.31062
3.32703
3.33166
3.32736
3.31717
3.30379
3.28934
3.27525
3.26247
3.25181
3.24409
3.24007
3.24038
3.24567
3.25578
3.26828
3.27969
3.28661
3.28692
3.28071
3.27041
3.26017
3.25471
3.25802
3.27078
3.29207
3.3212
3.35659
3.39603
3.43638
3.47343
3.50218
3.51763
3.51506
3.49051
3.44106
3.36502
3.26189
3.13225
2.9777
2.80257
2.61281
2.41361
2.21036
2.00921
1.81668
1.63896
1.48123
1.34714
1.23839
1.15477
1.09432
1.05393
1.02993
1.01811
1.01392
1.01336
1.01329
1.01155
1.00694
0.999024
0.987938
0.974108
0.958102
0.940628
0.922434
0.904469
0.887917
0.87412
0.864387
0.859725
0.860745
0.867314
0.878431
0.892489
0.90779
0.923083
0.93807
0.953769
0.972649
0.998457
1.03576
1.08913
1.16208
1.25628
1.37108
1.50348
1.65008
1.80414
1.95571
2.095
2.21391
2.307
2.37179
2.40841
2.41877
2.40565
2.37196
2.32115
2.25593
2.17842
2.09082
1.9958
1.89637
1.79582
1.69758
1.60499
1.52076
1.44665
1.38321
1.32961
1.28382
1.24296
1.20373
1.16277
1.11697
1.06368
1.00094
0.9276
0.843534
0.749655
0.647945
0.540121
0
-0.338359
0.0472755
1.59382
4.36156
7.82414
10.9188
12.4268
11.5417
8.31895
3.72046
-0.808712
-3.99741
-5.26026
-4.79862
-3.30981
-1.55224
-0.0334141
1.05989
1.7613
2.09563
2.2719
2.43898
2.59592
2.7422
2.87771
3.00271
3.11777
3.22365
3.32145
3.41254
3.49857
3.58139
3.66294
3.745
3.82903
3.91596
4.00614
4.09937
4.19516
4.29289
4.39209
4.49262
4.59484
4.69964
4.80844
4.92304
5.04539
5.17735
5.32032
5.47504
5.64139
5.81843
6.00457
6.19788
6.39648
6.59883
6.80398
7.01157
7.2218
7.43525
7.65265
7.87463
8.10149
8.33293
8.56779
8.80394
9.03822
9.26642
9.48347
9.68387
9.86161
10.0101
10.1229
10.1961
10.2254
10.2067
10.1353
10.0072
9.81988
9.57355
9.27219
8.92361
8.54108
8.13922
7.73005
7.32311
6.92671
6.54759
6.19081
5.8599
5.55703
5.28328
5.03878
4.82291
4.63445
4.47177
4.33306
4.2165
4.1206
4.044
3.98516
3.94258
3.91475
3.90017
3.8971
3.90399
3.91962
3.94306
3.9736
4.01046
4.05258
4.09847
4.14581
4.19214
4.23532
4.27401
4.30789
4.33756
4.36422
4.38918
4.41338
4.43716
4.46023
4.48182
4.50084
4.51614
4.52667
4.53168
4.53106
4.52545
4.51637
4.50619
4.49791
4.49472
4.49961
4.51681
4.54827
4.58975
4.63432
4.67432
4.70354
4.7187
4.71995
4.7104
4.69501
4.67916
4.66667
4.65927
4.65743
4.66056
4.66589
4.66986
4.66925
4.66231
4.64945
4.63335
4.6184
4.60957
4.61103
4.62398
4.64868
4.68444
4.7295
4.7814
4.83757
4.89582
4.95478
5.01384
5.07296
5.13246
5.19257
5.25288
5.31026
5.3577
5.38581
5.38587
5.35374
5.29304
5.21588
5.14053
5.0864
5.06808
5.08753
5.14807
5.23211
5.31719
5.3845
5.42504
5.44119
231
488
737
991
1252
1508
1766
2026
2279
2542
2800
3052
3312
3567
2880
3073
3266
3455
3639
3706
3481
3658
0
0
0
0
0
0
0
0
0
0
0
0
0
0
0
0
0
0
0
0
0
0
0
0
0
0
0
0
0
0
0
0
0
0
0
0
0
0
0
0
0
0
0
0
0
0
0
0
0
0
0
0
0
0
0
0
0
0
0
0
0
0
0
0
0
0
0
0
0
0
0
0
0
0
0
0
0
0
0
0
0
0
0
0
0
0
0
0
0
0
0
0
0
0
0
0
0
0
0
0
0
0
0
0
0
0
0
0
0
0
0
0
0
0
0
0
0
0
0
0
0
0
0
0
0
0
0
0
0
0
0
0
0
0
0
0
0
0
0
0
0
0
0
0
0
0
0
0
0
0
0
0
0
0
0
0
0
0
0
0
0
0
0
0
0
0
0
0
0
0
0
0
0
0
0
0
0
0
0
0
0
0
0
0
0
0
0
0
0
0
0
0
0
0
0
0
0
0
0
0
0
0
0
0
0
0
0
0
0
0
0
0
0
0
0
0
0
0
0
0
0
0
0
0
0
0
0
0
0
0
0
0
0
0
0
0
0
0
0
0
0
0
0
0
0
0
0
0
0
0
0
0
0
0
0
0
0
0
0
0
0
0
0
0
0
0
0
0
0
0
0
0
0
0
0
0
0
0
0
0
0
0
0
0
0
0
0
0
0
0
0
0
0
0
0
0
0
0
0
0
0
0
0
0
0
0
0
0
0
0
0
0
0
0
0
0
0
0
0
0
0
0
0
0
0
0
0
0
0
0
0
0
0
0
0
0
0
0
0
0
0
0
0
0
0
0
0
0
0
0
0
0
0
0
0
0
0
0
0
0
0
0
0
0
0
0
0
0
0
0
0
0
0
0
0
0
0
0
0
0
0
0
0
0
0
0
0
0
0
0
0
0
0
0
0
0
0
0
0
0
0
0
0
0
0
0
0
0
0
0
0
0
0
0
0
0
0
0
0
0
0
0
0
0
0
0
0
0
0
0
0
0
0
0
0
0
0
0
0
0
0
0
0
0
0
0
0
0
0
0
0
0
0
0
0
0
0
0
0
0
0
0
0
0
0
0
0
0
0
0
0
0
0
0
0
0
0
0
0
0
0
0
0
0
0
0
0
0
0
0
0
0
0
0
0
0
0
0
0
0
0
0
0
0
0
0
0
0
0
0
0
0
0
0
0
0
0
0
0
0
0
0
0
0
0
0
0
0
0
0
0
0
0
0
0
0
0
0
0
0
0
0
0
0
0
0
0
0
0
0
0
0
0
0
0
0
0
0
0
0
0
0
0
0
0
0
0
0
0
0
0
0
0
0
0
0
0
0
0
0
0
0
0
0
0
0
0
0
0
0
0
0
0
0
0
0
0
0
0
0
0
0
0
0
0
0
0
0
0
0
0
0
0
0
0
0
0
0
0
0
0
0
0
0
0
0
0
0
0
0
0
0
0
0
0
0
0
0
0
0
0
0
0
0
0
0
0
0
0
0
0
0
0
0
0
0
0
0
0
0
0
0
0
0
0
0
0
0
0
0
0
0
0
0
0
0
0
0
0
0
0
0
0
0
0
0
0
0
0
0
0
0
0
0
0
0
0
0
0
0
0
0
0
0
0
0
0
0
0
0
0
0
0
0
0
0
0
0
0
0
0
0
0
0
0
0
0
0
0
0
0
0
0
0
0
0
0
0
0
0
0
0
0
0
0
0
0
0
0
0
0
0
0
0
0
0
0
0
0
0
0
0
0
0
0
0
0
0
0
0
0
0
0
0
0
0
0
0
0
0
0
0
0
0
0
0
0
0
0
0
0
0
0
0
0
0
0
0
0
0
0
0
0
0
0
0
0
0
0
0
0
0
0
0
0
0
0
0
0
0
0
0
0
0
0
0
0
0
0
0
0
0
0
0
0
0
0
0
0
0
0
0
0
0
0
0
0
0
0
0
0
0
0
0
0
0
0
0
0
0
0
0
0
0
0
0
0
0
0
0
0
0
0
0
0
0
0
0
0
0
0
0
0
0
0
0
0
0
0
0
0
0
0
0
0
0
0
0
0
0
0
0
0
0
0
0
0
0
0
0
0
0
0
0
0
0
0
0
0
0
0
0
0
0
0
0
0
0
0
0
0
0
0
0
0
0
0
0
0
0
0
0
0
0
0
0
0
0
0
0
0
0
0
0
0
0
0
0
0
0
0
0
0
0
0
0
0
0
0
0
0
0
0
0
0
0
0
0
0
0
0
0
0
0
0
0
0
0
0
0
0
0
0
0
0
0
0
0
0
0
0
0
0
0
0
0
0
0
0
0
0
0
0
0
0
0
0
0
0
0
0
0
0
0
0
0
0
0
0
0
0
0
0
0
0
0
0
0
0
0
0
0
0
0
0
0
0
0
0
0
0
0
0
0
0
0
0
0
0
0
0
0
0
0
0
0
0
0
0
0
0
0
0
0
0
0
0
0
0
0
0
0
0
0
0
0
0
0
0
0
0
0
0
0
0
0
0
0
0
0
0
0
0
0
0
0
0
0
0
0
0
0
0
0
0
0
0
0
0
0
0
0
0
0
0
0
0
0
0
0
0
0
0
0
0
0
0
0
0
0
0
0
0
0
0
0
0
0
0
0
0
0
0
0
0
0
0
0
0
0
0
0
0
0
0
0
0
0
0
0
0
0
0
0
0
0
0
0
0
0
0
0
0
0
0
0
0
0
0
0
0
0
0
0
0
0
0
0
0
0
0
0
0
0
0
0
0
0
0
0
0
0
0
0
0
0
0
0
0
0
0
0
0
0
0
0
0
0
0
0
0
0
0
0
0
0
0
0
0
0
0
0
0
0
0
0
0
0
0
0
0
0
0
0
0
0
0
0
0
0
0
0
0
0
0
0
0
0
0
0
0
0
0
0
0
0
0
0
0
0
0
0
0
0
0
0
0
0
0
0
0
0
0
0
0
0
0
0
0
0
0
0
0
0
0
0
0
0
0
0
0
0
0
0
0
0
0
0
0
0
0
0
0
0
0
0
0
0
0
0
0
0
0
0
0
0
0
0
0
0
0
0
0
0
0
0
0
0
0
0
0
0
0
0
0
0
0
0
0
0
0
0
0
0
0
0
0
0
0
0
0
0
0
0
0
0
0
0
0
0
0
0
0
0
0
0
0
0
0
0
0
0
0
0
0
0
0
0
0
0
0
0
0
0
0
0
0
0
0
0
0
0
0
0
0
0
0
0
0
0
0
0
0
0
0
0
0
0
0
0
0
0
0
0
0
0
0
0
0
0
0
0
0
0
0
0
0
0
0
0
0
0
0
0
0
0
0
0
0
0
0
0
0
0
0
0
0
0
0
0
0
0
0
0
0
0
0
0
0
0
0
0
0
0
0
0
0
0
0
0
0
0
0
0
0
0
0
0
0
0
0
0
0
0
0
0
0
0
0
0
0
0
0
0
0
0
0
0
0
0
0
0
0
0
0
0
0
0
0
0
0
0
0
0
0
0
0
0
0
0
0
0
0
0
0
0
0
0
0
0
0
0
0
0
0
0
0
0
0
0
0
0
0
0
0
0
0
0
0
0
0
0
0
0
0
0
0
0
0
0
0
0
0
0
0
0
0
0
0
0
0
0
0
0
0
0
0
0
0
0
0
0
0
0
0
0
0
0
0
0
0
0
0
0
0
0
0
0
0
0
0
0
0
0
0
0
0
0
0
0
0
0
0
0
0
0
0
0
0
0
0
0
0
0
0
0
0
0
0
0
0
0
0
0
0
0
0
0
0
0
0
0
0
0
0
0
0
0
0
0
0
0
0
0
0
0
0
0
0
0
0
0
0
0
0
0
0
0
0
0
0
0
0
0
0
0
0
0
0
0
0
0
0
0
0
0
0
0
0
0
0
0
0
0
0
0
0
0
0
0
0
0
0
0
0
0
0
0
0
0
0
0
0
0
0
0
0
0
0
0
0
0
0
0
0
0
0
0
0
0
0
0
0
0
0
0
0
0
0
0
0
0
0
0
0
0
0
0
0
0
0
0
0
0
0
0
0
0
0
0
0
0
0
0
0
0
0
0
0
0
0
0
0
0
0
0
0
0
0
0
0
0
0
0
0
0
0
0
0
0
0
0
0
0
0
0
0
0
0
0
0
0
0
0
0
0
0
0
0
0
0
0
0
0
0
0
0
0
0
0
0
0
0
0
0
0
0
0
0
0
0
0
0
0
0
0
0
0
0
0
0
0
0
0
0
0
0
0
0
0
0
0
0
0
0
0
0
0
0
0
0
0
0
0
0
0
0
0
0
0
0
0
0
0
0
0
0
0
0
0
0
0
0
0
0
0
0
0
0
0
0
0
0
0
0
0
0
0
0
0
0
0
0
0
0
0
0
0
0
0
0
0
0
0
0
0
0
0
0
0
0
0
0
0
0
0
0
0
0
0
0
0
0
0
0
0
0
0
0
0
0
0
0
0
0
0
0
0
0
0
0
0
0
0
0
0
0
0
0
0
0
0
0
0
0
0
0
0
0
0
0
0
0
0
0
0
0
0
0
0
0
0
0
0
0
0
0
0
0
0
0
0
0
0
0
0
0
0
0
0
0
0
0
0
0
0
0
0
0
0
0
0
0
0
0
0
0
0
0
0
0
0
0
0
0
0
0
0
0
0
0
0
0
0
0
0
0
0
0
0
0
0
0
0
0
0
0
0
0
0
0
0
0
0
0
0
0
0
0
0
0
0
0
0
0
0
0
0
0
0
0
0
0
0
0
0
0
0
0
0
0
0
0
0
0
0
0
0
0
0
0
0
0
0
0
0
0
0
0
0
0
0
0
0
0
0
0
0
0
0
0
0
0
0
0
0
0
0
0
0
0
0
0
0
0
0
0
0
0
0
0
0
0
0
0
0
0
0
0
0
0
0
0
0
0
0
0
0
0
0
0
0
0
0
0
0
0
0
0
0
0
0
0
0
0
0
0
0
0
0
0
0
0
0
0
0
0
0
0
0
0
0
0
0
0
0
0
0
0
0
0
0
0
0
0
0
0
0
0
0
0
0
0
0
0
0
0
0
0
0
0
0
0
0
0
0
0
0
0
0
0
0
0
0
0
0
0
0
0
0
0
0
0
0
0
0
0
0
0
0
0
0
0
0
0
0
0
0
0
0
0
0
0
0
0
0
0
0
0
0
0
0
0
0
0
0
0
0
0
0
0
0
0
0
0
0
0
0
0
0
0
0
0
0
0
0
0
0
0
0
0
0
0
0
0
0
0
0
0
0
0
0
0
0
0
0
0
0
0
0
0
0
0
0
0
0
0
0
0
0
0
0
0
0
0
0
0
0
0
0
0
0
0
0
0
0
0
0
0
0
0
0
0
0
0
0
0
0
0
0
0
0
0
0
0
0
0
0
0
0
0
0
0
0
0
0
0
0
0
0
0
0
0
0
0
0
0
0
0
0
0
0
0
0
0
0
0
0
0
0
0
0
0
0
0
0
0
0
0
0
0
0
0
0
0
0
0
0
0
0
0
0
0
0
0
0
0
0
0
0
0
0
0
0
0
0
0
0
0
0
0
0
0
0
0
0
0
0
0
0
0
0
0
0
0
0
0
0
0
0
0
0
0
0
0
0
0
0
0
0
0
0
0
0
0
0
0
0
0
0
0
0
0
0
0
0
0
0
0
0
0
0
0
0
0
0
0
0
0
0
0
0
0
0
0
0
0
0
0
0
0
0
0
0
0
0
0
0
0
0
0
0
0
0
0
0
0
0
0
0
0
0
0
0
0
0
0
0
0
0
0
0
0
0
0
0
0
0
0
0
0
0
0
0
0
0
0
0
0
0
0
0
0
0
0
0
0
0
0
0
0
0
0
0
0
0
0
0
0
0
0
0
0
0
0
0
0
0
0
0
0
0
0
0
0
0
0
0
0
0
0
0
0
0
0
0
0
0
0
0
0
0
0
0
0
0
0
0
0
0
0
0
0
0
0
0
0
0
0
0
0
0
0
0
0
0
0
0
0
0
0
0
0
0
0
0
0
0
0
0
0
0
0
0
0
0
0
0
0
0
0
0
0
0
0
0
0
0
0
0
0
0
0
0
0
0
0
0
0
0
0
0
0
0
0
0
0
0
0
0
0
0
0
0
0
0
0
0
0
0
0
0
0
0
0
0
0
0
0
0
0
0
0
0
0
0
0
0
0
0
0
0
0
0
0
0
0
0
0
0
0
0
0
0
0
0
0
0
0
0
0
0
0
0
0
0
0
0
0
0
0
0
0
0
0
0
0
0
0
0
0
0
0
0
0
0
0
0
0
0
0
0
0
0
0
0
0
0
0
0
0
0
0
0
0
0
0
0
0
0
0
0
0
0
0
0
0
0
0
0
0
0
0
0
0
0
0
0
0
0
0
0
0
0
0
0
0
0
0
0
0
0
0
0
0
0
0
0
0
0
0
0
0
0
0
0
0
0
0
0
0
0
0
0
0
0
0
0
0
0
0
0
0
0
0
0
0
0
0
0
0
0
0
0
0
0
0
0
0
0
0
0
0
0
0
0
0
0
0
0
0
0
0
0
0
0
0
0
0
0
0
0
0
0
0
0
0
0
0
0
0
0
0
0
0
0
0
0
0
0
0
0
0
0
0
0
0
0
0
0
0
0
0
0
0
0
0
0
0
0
0
0
0
0
0
0
0
0
0
0
0
0
0
0
0
0
0
0
0
0
0
0
0
0
0
0
0
0
0
0
0
0
0
0
0
0
0
0
0
0
0
0
0
0
0
0
0
0
0
0
0
0
0
0
0
0
0
0
0
0
0
0
0
0
0
0
0
0
0
0
0
0
0
0
0
0
0
0
0
0
0
0
0
0
0
0
0
0
0
0
0
0
0
0
0
0
0
0
0
0
0
0
0
0
0
0
0
0
0
0
0
0
0
0
0
0
0
0
0
0
0
0
0
0
0
0
0
0
0
0
0
0
0
0
0
0
0
0
0
0
0
0
0
0
0
0
0
0
0
0
0
0
0
0
0
0
0
0
0
0
0
0
0
0
0
0
0
0
0
0
0
0
0
0
0
0
0
0
0
0
0
0
0
0
0
0
0
0
0
0
0
0
0
0
0
0
0
0
0
0
0
0
0
0
0
0
0
0
0
0
0
0
0
0
0
0
0
0
0
0
0
0
0
0
0
0
0
0
0
0
0
0
0
0
0
0
0
0
0
0
0
0
0
0
0
0
0
0
0
0
0
0
0
0
0
0
0
0
0
0
0
0
0
0
0
0
0
0
0
0
0
0
0
0
0
0
0
0
0
0
0
0
0
0
0
0
0
0
0
0
0
0
0
0
0
0
0
0
0
0
0
0
0
0
0
0
0
0
0
0
0
0
0
0
0
0
0
0
0
0
0
0
0
0
0
0
0
0
0
0
0
0
0
0
0
0
0
0
0
0
0
0
0
0
0
0
0
0
0
0
0
0
0
0
0
0
0
0
0
0
0
0
0
0
0
0
0
0
0
0
0
0
0
0
0
0
0
0
0
0
0
0
0
0
0
0
0
0
0
0
0
0
0
0
0
0
0
0
0
0
0
0
0
0
0
0
0
0
0
0
0
0
0
0
0
0
0
0
0
0
0
0
0
0
0
0
0
0
0
0
0
0
0
0
0
0
0
0
0
0
0
0
0
0
0
0
0
0
0
0
0
0
0
0
0
0
0
0
0
0
0
0
0
0
0
0
0
0
0
0
0
0
0
0
0
0
0
0
0
0
0
0
0
0
0
0
0
0
0
0
0
0
0
0
0
0
0
0
0
0
0
0
0
0
0
0
0
0
0
0
0
0
0
0
0
0
0
0
0
0
0
0
0
0
0
0
0
0
0
0
0
0
0
0
0
0
0
0
0
0
0
0
0
0
0
0
0
0
0
0
0
0
0
0
0
0
0
0
0
0
0
0
0
0
0
0
0
0
0
0
0
0
0
0
0
0
0
0
0
0
0
0
0
0
0
0
0
0
0
0
0
0
0
0
0
0
0
0
0
0
0
0
0
0
0
0
0
0
0
0
0
0
0
0
0
0
0
0
0
0
0
0
0
0
0
0
0
0
0
0
0
0
0
0
0
0
0
0
0
0
0
0
0
0
0
0
0
0
0
0
0
0
0
0
0
0
0
0
0
0
0
0
0
0
0
0
0
0
0
0
0
0
0
0
0
0
0
0
0
0
0
0
0
0
0
0
0
0
0
0
0
0
0
0
0
0
0
0
0
0
0
0
0
0
0
0
0
0
0
0
0
0
0
0
0
0
0
0
0
0
0
0
0
0
0
0
0
0
0
0
0
0
0
0
0
0
0
0
0
0
0
0
0
0
0
0
0
0
0
0
0
0
0
0
0
0
0
0
0
0
0
0
0
0
0
0
0
0
0
0
0
0
0
0
0
0
0
0
0
0
0
0
0
0
0
0
0
0
0
0
0
