1.07989
1.27975
1.49376
1.65714
1.72381
1.67429
1.52164
1.31071
1.10705
0.976532
0.933408
0.929225
0.93606
0.944006
0.944108
0.93006
0.899945
0.856976
0.808859
0.765805
0.737699
0.729503
0.740854
0.775024
0.823825
0.875509
0.919535
0.950116
0.967876
0.979012
0.992403
1.01601
1.0541
1.10308
1.15896
1.21862
1.27848
1.33322
1.37399
1.39176
1.37637
1.31893
1.21559
1.07101
0.899399
0.72213
0.562467
0.435605
0.348073
0.316597
0.346751
0.421028
0.503328
0.561424
0.570765
0.516123
0.393855
0.2141
0
-0.293179
-0.260266
0.277224
1.31487
2.61226
3.76919
4.40073
4.31213
3.57014
2.43784
1.23497
0.219296
-0.457514
-0.738436
-0.619983
-0.4159
-0.22976
-0.0659103
0.0685745
0.170812
0.24206
0.286945
0.312234
0.325467
0.334009
0.34308
0.355893
0.374332
0.398981
0.427452
0.456623
0.484169
0.509853
0.536128
0.567787
0.610737
0.670321
0.74932
0.845122
0.954355
1.07384
1.20001
1.3294
1.45937
1.58852
1.71687
1.84564
1.97681
2.11244
2.25402
2.40274
2.55891
2.71835
2.86959
2.99849
3.09239
3.14254
3.14514
3.10102
3.0145
2.89167
2.73908
2.56299
2.37201
2.174
1.97453
1.77752
1.58634
1.40411
1.2334
1.07607
0.933181
0.805042
0.691272
0.590901
0.502481
0.424182
0.353794
0.288942
0.22746
0.167763
0.109197
0.0522352
-0.00155067
-0.0498087
-0.0899017
-0.117889
-0.128895
-0.12284
-0.1075
-0.0931185
-0.0888903
-0.0996105
-0.123767
-0.153737
-0.178021
-0.184782
-0.167162
-0.127717
-0.0680313
0.0080595
0.089443
0.163718
0.219975
0.250871
0.253672
0.230311
0.186716
0.131686
0.0754429
0.027339
-0.00633602
-0.0230413
-0.0239264
-0.0119925
0.0100315
0.0387594
0.0705698
0.102212
0.131325
0.156614
0.177925
0.196141
0.212925
0.230376
0.250648
0.27557
0.306319
0.343192
0.385467
0.431579
0.479077
0.524332
0.563456
0.593126
0.61118
0.61699
0.611506
0.596979
0.576453
0.553207
0.530275
0.50985
0.493311
0.481633
0.475317
0.474232
0.477042
0.481118
0.482579
0.476489
0.457846
0.422361
0.367397
0.292855
0.195879
0.0830139
-0.0241535
-0.101413
-0.129524
-0.101123
-0.0241232
0.080068
0.183136
0.258886
0.292749
0.2826
0.182758
0
0.23775
1.04163
2.28326
3.56674
4.39842
4.43531
3.66092
2.38106
1.05316
0.0647274
-0.413008
-0.438797
-0.305048
-0.227454
-0.157364
-0.0933727
-0.033005
0.0267794
0.0888245
0.155001
0.225552
0.299058
0.373467
0.446386
0.515578
0.57946
0.637364
0.689522
0.736826
0.780442
0.821459
0.860599
0.89835
0.935094
0.971444
1.00856
1.04833
1.09324
1.14616
1.20988
1.28676
1.37801
1.48403
1.60464
1.7389
1.88502
2.04027
2.20096
2.36246
2.51839
2.66188
2.78655
2.88742
2.96149
3.00789
3.02747
3.02202
2.99342
2.94361
2.87451
2.78695
2.68121
2.55802
2.41916
2.26776
2.10821
1.94591
1.78667
1.63591
1.49791
1.37561
1.27092
1.18297
1.10777
1.04077
0.978303
0.919178
0.86541
0.822364
0.797445
0.799184
0.863044
1.00473
1.17811
1.32416
1.39631
1.37748
1.28319
1.15123
1.02372
0.931092
0.874984
0.840467
0.820265
0.812836
0.818274
0.836519
0.867139
0.909079
0.960512
1.01913
1.0817
1.14343
1.19816
1.24032
1.26561
1.27167
1.25847
1.22829
1.18528
1.13453
1.08105
1.02874
0.979374
0.933279
0.890118
0.849218
0.809768
0.771169
0.733346
0.696966
0.663501
0.63515
0.615303
0.612326
0.652664
0.779943
0.960901
1.13467
1.23322
1.2109
1.06854
0.85539
0.645211
0.501503
0.451667
0.446373
0.460413
0.491842
0.55406
0.679152
0.874438
1.09051
1.25621
1.30936
1.22616
1.03071
0.782981
0.558319
0.42936
0.393485
0.400115
0.448112
0.508394
0.543777
0.522288
0.430655
0.281273
0.108421
-0.0454344
-0.147242
-0.20532
-0.235129
-0.245676
-0.171634
0
0.444241
1.33734
2.65856
4.12046
5.24414
5.5734
4.91492
3.46137
1.71529
0.247501
-0.570941
-0.710704
-0.433162
-0.325295
-0.226286
-0.141476
-0.0723214
-0.0124176
0.0418168
0.0940664
0.147577
0.204308
0.264717
0.327627
0.389831
0.447348
0.496466
0.534665
0.561197
0.577252
0.585787
0.591121
0.598434
0.612733
0.639008
0.681569
0.74349
0.826085
0.928578
1.04759
1.17857
1.31614
1.4548
1.58978
1.71751
1.83589
1.94418
2.04267
2.13222
2.21375
2.28797
2.3552
2.41538
2.46802
2.51212
2.54537
2.56342
2.5617
2.53565
2.48074
2.3936
2.27318
2.12144
1.94338
1.74636
1.53893
1.32993
1.12533
0.930063
0.748138
0.582582
0.435478
0.307937
0.200497
0.114913
0.052357
0.00751424
-0.0261404
-0.0549685
-0.0839017
-0.115667
-0.150808
-0.188434
-0.227293
-0.266622
-0.3063
-0.346453
-0.386967
-0.427049
-0.465026
-0.498278
-0.523873
-0.539158
-0.54246
-0.533597
-0.51405
-0.486705
-0.455261
-0.423453
-0.394312
-0.36959
-0.349977
-0.335193
-0.324343
-0.31629
-0.309865
-0.304179
-0.29858
-0.29259
-0.285882
-0.278293
-0.269866
-0.260898
-0.251972
-0.243965
-0.237979
-0.235127
-0.236314
-0.241995
-0.251989
-0.265378
-0.280578
-0.295583
-0.308348
-0.31724
-0.320979
-0.31906
-0.313161
-0.305515
-0.29776
-0.289896
-0.279813
-0.263641
-0.236831
-0.195564
-0.137978
-0.0667352
0.0149804
0.104764
0.20046
0.300473
0.404246
0.512514
0.625632
0.7352
0.822934
0.866141
0.847984
0.766853
0.639307
0.494594
0.363319
0.266182
0.195572
0.139854
0.0948977
0.0592834
0.0319525
0.0122978
0
-0.00485458
-0.00346031
0.00318031
0.0135208
0.0258537
0.0386446
0.050807
0.0607082
-0.0297157
0.0765106
0.61445
1.67431
3.06133
4.29875
4.83231
4.33971
2.94358
1.17287
-0.312981
-1.06602
-1.04693
-0.727081
-0.58538
-0.489282
-0.433277
-0.396374
-0.355979
-0.282726
-0.176865
-0.0646002
0.0194984
0.0549034
0.0474539
0.0240955
0.0145922
0.0332907
0.0703592
0.11066
0.146045
0.175368
0.205865
0.2504
0.322065
0.428747
0.561994
0.711179
0.869877
1.03241
1.19336
1.34822
1.4939
1.62889
1.7535
1.86957
1.98019
2.08927
2.2009
2.31878
2.44553
2.58376
2.73638
2.89956
3.05857
3.19589
3.29673
3.35228
3.36055
3.32471
3.25018
3.14164
3.00145
2.83418
2.64544
2.44025
2.22315
1.99877
1.77216
1.54874
1.3342
1.13391
0.952363
0.792839
0.658147
0.549173
0.463204
0.396497
0.345354
0.307106
0.280706
0.267999
0.28499
0.368824
0.50313
0.640886
0.721839
0.703068
0.58385
0.40907
0.247564
0.157042
0.156101
0.187466
0.228283
0.271736
0.312074
0.345025
0.367973
0.379875
0.381095
0.373378
0.359451
0.343047
0.328665
0.321128
0.327627
0.36435
0.442399
0.541362
0.62935
0.676135
0.66594
0.603374
0.509624
0.411381
0.328718
0.264568
0.209168
0.156731
0.104075
0.0482077
-0.014163
-0.084004
-0.153052
-0.206289
-0.226857
-0.201391
-0.124774
-0.0025692
0.149802
0.310706
0.457419
0.578093
0.662919
0.708763
0.71975
0.706505
0.683945
0.667816
0.67069
0.711862
0.780587
0.846803
0.874128
0.835086
0.723279
0.557003
0.372455
0.209632
0.0978563
0.0221691
-0.0323576
-0.0674521
-0.0852657
-0.0885892
-0.0786085
-0.0577796
-0.0328849
-0.0113954
0
0.00291338
-0.00899601
-0.0460504
-0.173985
0.0364428
0.758936
1.96954
3.37617
4.49237
4.85288
4.26287
2.92257
1.3348
0.0464776
-0.618265
-0.676328
-0.459153
-0.345147
-0.238961
-0.136173
-0.0310942
0.0797142
0.200762
0.326544
0.442719
0.532574
0.584235
0.596005
0.577694
0.547736
0.527404
0.534246
0.570112
0.627261
0.698843
0.780375
0.86843
0.960047
1.05302
1.14614
1.23922
1.33296
1.42866
1.52794
1.63242
1.74343
1.86182
1.98782
2.12095
2.2601
2.40357
2.54922
2.69455
2.83655
2.97098
3.09319
3.1991
3.28485
3.34712
3.38313
3.39061
3.36778
3.3134
3.22714
3.11245
2.97382
2.81528
2.64213
2.46045
2.27634
2.09489
1.92008
1.75511
1.60239
1.46379
1.34077
1.23447
1.14561
1.07435
1.02021
0.982545
0.960087
0.949141
0.944326
0.940285
0.93257
0.918333
0.896652
0.868439
0.836019
0.802568
0.77143
0.745246
0.726996
0.718984
0.722823
0.739199
0.768353
0.808797
0.857429
0.910179
0.962362
1.00786
1.03967
1.05194
1.04006
1.00175
0.938166
0.85489
0.761861
0.672175
0.599737
0.567782
0.621225
0.73559
0.860033
0.941643
0.95061
0.893769
0.809574
0.747307
0.742497
0.795418
0.87164
0.956543
1.04422
1.12987
1.20841
1.27434
1.32417
1.35569
1.36823
1.3633
1.34507
1.32043
1.2982
1.28773
1.29787
1.35363
1.47445
1.62955
1.77519
1.87255
1.89988
1.85668
1.76062
1.63947
1.52153
1.42794
1.35828
1.30412
1.25938
1.22006
1.18246
1.14106
1.08896
1.01882
0.923864
0.787299
0.599598
0.36894
0.0910484
0
0.471655
1.56183
3.08205
4.64183
5.78317
6.1609
5.68582
4.55508
3.15381
1.88349
1.00747
0.590852
0.545264
0.742428
0.904688
1.05266
1.17796
1.2759
1.3467
1.39543
1.43068
1.46248
1.50015
1.55056
1.61468
1.69178
1.7817
1.88371
1.9961
2.11647
2.24195
2.36554
2.47852
2.57311
2.64465
2.6932
2.72391
2.74596
2.77041
2.80758
2.86235
2.93425
3.02192
3.1232
3.23466
3.35202
3.4708
3.58692
3.69688
3.79781
3.88773
3.9655
4.0301
4.08002
4.11363
4.1303
4.12939
4.11039
4.07301
4.01715
3.94266
3.84916
3.73605
3.60349
3.45424
3.29106
3.11596
2.9314
2.74012
2.54461
2.3466
2.14668
1.94332
1.72814
1.4803
1.21103
0.966424
0.796858
0.732692
0.773431
0.892593
1.05253
1.21825
1.36171
1.47351
1.56008
1.62772
1.67953
1.71616
1.73686
1.74003
1.72533
1.69283
1.64329
1.57651
1.49195
1.39952
1.31203
1.24199
1.19831
1.18418
1.1967
1.22833
1.2694
1.31061
1.34654
1.37565
1.39708
1.41116
1.41925
1.42333
1.42537
1.42682
1.42821
1.42898
1.4274
1.42097
1.40711
1.38383
1.35039
1.30766
1.25819
1.2059
1.15547
1.11155
1.07724
1.05458
1.04436
1.04581
1.05684
1.07449
1.09545
1.1166
1.13558
1.15091
1.16207
1.16959
1.17496
1.1804
1.18866
1.20269
1.227
1.26792
1.33259
1.42546
1.53698
1.64072
1.7085
1.71207
1.62825
1.44919
1.19224
0.901434
0.636857
0.450762
0.325657
0.231894
0.162487
0.113727
0.0807396
0.0583456
0.0418888
0.0278053
0.0140673
0
-0.0150484
0.00363159
0.168311
0.612456
1.46051
2.65936
3.90294
4.73056
4.76405
3.93076
2.51725
1.015
-0.133769
-0.726095
-0.824581
-0.655106
-0.511801
-0.386126
-0.28334
-0.204007
-0.137827
-0.0780256
-0.0216408
0.0330667
0.0863522
0.135265
0.174648
0.199916
0.209991
0.209016
0.205876
0.211517
0.235109
0.280726
0.341755
0.410983
0.483787
0.556316
0.626109
0.692654
0.757441
0.823506
0.894618
0.974307
1.06474
1.1663
1.27781
1.39661
1.51904
1.64095
1.75849
1.86873
1.96997
2.06162
2.14387
2.21826
2.28664
2.35057
2.41037
2.46403
2.50545
2.52465
2.50831
2.44398
2.32526
2.15558
1.9483
1.72272
1.49793
1.28442
1.08199
0.891562
0.714452
0.55168
0.404815
0.275022
0.16341
0.0712263
0.000239563
-0.0494534
-0.0775761
-0.0829773
-0.0621094
-0.0106853
0.0765661
0.204653
0.376819
0.593271
0.869033
1.2548
1.76912
2.28027
2.65183
2.91564
3.15011
3.37602
3.52071
3.44937
3.06888
2.42852
1.73176
1.24837
1.20121
1.25974
1.30201
1.3021
1.24612
1.13652
0.991068
0.836483
0.699794
0.594952
0.513769
0.454512
0.417693
0.404582
0.413441
0.436805
0.465825
0.491892
0.507717
0.508114
0.490425
0.454639
0.403353
0.341624
0.276878
0.217364
0.171835
0.147717
0.149429
0.177154
0.227732
0.292939
0.363224
0.430567
0.490695
0.543745
0.593112
0.643034
0.696016
0.751185
0.80455
0.850316
0.882467
0.89607
0.887735
0.855315
0.797332
0.712752
0.605065
0.478273
0.334035
0.172775
0.0114033
-0.12766
-0.223944
-0.265497
-0.253064
-0.200117
-0.128635
-0.0621941
-0.0188187
0
-0.0109276
-0.0385923
-0.21434
-0.144327
0.397533
1.48441
2.91694
4.2457
4.96106
4.75037
3.66343
2.08506
0.541057
-0.541958
-0.990262
-0.890739
-0.611733
-0.371492
-0.170637
-0.0194778
0.0890539
0.171133
0.230598
0.272504
0.302444
0.325907
0.347766
0.37176
0.400448
0.435208
0.476381
0.523558
0.575922
0.632625
0.693077
0.757078
0.824784
0.896513
0.972501
1.05267
1.13652
1.22311
1.31124
1.39961
1.48708
1.5728
1.65646
1.7384
1.8197
1.90219
1.9883
2.08079
2.1823
2.29488
2.42329
2.57439
2.74045
2.89582
3.01274
3.07081
3.06361
2.99944
2.89594
2.77087
2.63353
2.48376
2.32104
2.14563
1.95699
1.75527
1.54277
1.32401
1.10512
0.893904
0.697823
0.522886
0.372871
0.249115
0.150834
0.0773727
0.0255899
-0.00771046
-0.0253801
-0.0298176
-0.0230003
-0.00652046
0.0184151
0.0509502
0.0905525
0.139816
0.196773
0.245982
0.26399
0.227273
0.123689
-0.0393078
-0.234872
-0.42529
-0.572751
-0.483643
-0.164923
0.21211
0.476897
0.524382
0.351481
0.0492119
-0.246502
-0.417133
-0.407145
-0.337767
-0.257336
-0.17607
-0.0997128
-0.0329872
0.0209797
0.0608002
0.086681
0.0999828
0.102549
0.0959728
0.080706
0.0562668
0.0210529
-0.0270992
-0.0900665
-0.175949
-0.293314
-0.425175
-0.541171
-0.609906
-0.609977
-0.538198
-0.411377
-0.260461
-0.119596
-0.0152409
0.0581478
0.112025
0.14734
0.165678
0.169601
0.162458
0.148258
0.131521
0.117038
0.109484
0.112853
0.129702
0.161021
0.206823
0.26599
0.334975
0.407919
0.476643
0.531994
0.566757
0.57622
0.558751
0.516116
0.453376
0.378185
0.29953
0.226113
0.163732
0.113191
0.0733543
0.0442722
0.0252869
0.0123497
0
-0.0206253
-0.0500225
-0.0902046
-0.140972
-0.200348
-0.265399
-0.333083
-0.400792
-0.437794
-0.34668
0.0592731
0.927401
2.19327
3.52298
4.42312
4.47947
3.59029
2.0449
0.391544
-0.831825
-1.34619
-1.21891
-0.958397
-0.757264
-0.610044
-0.522418
-0.472556
-0.443238
-0.423939
-0.405464
-0.381977
-0.352523
-0.31734
-0.279745
-0.244946
-0.21758
-0.199996
-0.191128
-0.186264
-0.177824
-0.157019
-0.11599
-0.050201
0.0378761
0.142768
0.25929
0.382283
0.506352
0.626466
0.738284
0.837756
0.921566
0.98987
1.0448
1.09033
1.13211
1.17713
1.23294
1.30659
1.40346
1.5262
1.68916
1.90121
2.14255
2.37102
2.552
2.67139
2.72714
2.71932
2.64503
2.50061
2.2882
2.02098
1.72338
1.42722
1.15329
0.902542
0.670805
0.458279
0.266761
0.0959007
-0.0557247
-0.189965
-0.308405
-0.411851
-0.500171
-0.572529
-0.627956
-0.664593
-0.681609
-0.680813
-0.666925
-0.646888
-0.628621
-0.619109
-0.623037
-0.641969
-0.673975
-0.713834
-0.753914
-0.785725
-0.80189
-0.798809
-0.778706
-0.74325
-0.697527
-0.64926
-0.606816
-0.576793
-0.562674
-0.5642
-0.577492
-0.595922
-0.611591
-0.617162
-0.607611
-0.583049
-0.547234
-0.504166
-0.457512
-0.411097
-0.368095
-0.330517
-0.299001
-0.272931
-0.250822
-0.230827
-0.211234
-0.190786
-0.168709
-0.14467
-0.118385
-0.0892437
-0.0561192
-0.0174744
0.0281944
0.0818214
0.145671
0.216571
0.28539
0.341729
0.377861
0.392064
0.389914
0.383011
0.390227
0.469048
0.651432
0.871919
1.04758
1.11364
1.04162
0.843805
0.568283
0.288857
0.0897186
-0.0036438
-0.0430321
-0.0589264
-0.0544922
-0.0361725
-0.0141949
0
0.00132523
-0.0211468
-0.0689793
-0.138637
-0.222244
-0.477716
-0.489607
0.0319714
1.19976
2.81834
4.40378
5.38774
5.39615
4.43268
2.86008
1.20942
-0.057394
-0.70415
-0.746479
-0.373154
-0.0597797
0.20183
0.375299
0.447759
0.43304
0.366143
0.291331
0.247867
0.255251
0.29315
0.345078
0.403244
0.459403
0.506472
0.539767
0.55763
0.561397
0.554911
0.543885
0.535208
0.535421
0.55117
0.588171
0.650147
0.738565
0.863951
1.01169
1.15953
1.28677
1.38178
1.44585
1.49146
1.53595
1.59358
1.66991
1.75628
1.84612
1.93389
2.01487
2.08585
2.14504
2.1882
2.21281
2.2158
2.19313
2.14115
2.05811
1.94513
1.80589
1.64555
1.46923
1.28372
1.09295
0.899031
0.704276
0.511462
0.323923
0.145398
-0.020356
-0.170049
-0.30074
-0.410087
-0.498701
-0.568762
-0.62309
-0.664277
-0.69398
-0.712588
-0.719405
-0.713245
-0.693263
-0.660086
-0.615466
-0.561829
-0.504096
-0.447627
-0.397235
-0.356419
-0.327025
-0.309355
-0.302568
-0.305133
-0.31497
-0.329332
-0.345909
-0.362036
-0.374685
-0.380989
-0.378794
-0.367191
-0.345551
-0.316495
-0.28382
-0.251427
-0.222299
-0.197896
-0.178166
-0.162076
-0.148398
-0.136369
-0.125925
-0.11787
-0.113579
-0.114691
-0.122786
-0.139025
-0.163779
-0.196149
-0.234077
-0.274146
-0.311782
-0.341736
-0.354395
-0.323887
-0.228287
-0.0975071
0.0202938
0.0807831
0.0653572
-0.00917129
-0.099778
-0.161396
-0.171722
-0.150579
-0.120395
-0.0888256
-0.0595341
-0.0311348
0.0015934
0.0457844
0.110921
0.196632
0.288837
0.368395
0.418027
0.427394
0.395639
0.331898
0.254015
0.185105
0.147902
0.18628
0.308202
0.461794
0.572135
0.576532
0.455872
0.246006
0.0225803
-0.134157
-0.177557
-0.168102
-0.139878
-0.101129
-0.0602566
-0.0249279
0
0.0260784
0.0338581
0.0211002
-0.0130238
-0.0679928
-0.141613
-0.229945
-0.347373
-0.527031
-0.328221
0.431184
1.69187
3.10238
4.15034
4.4155
3.79126
2.53668
1.13248
0.0361671
-0.516531
-0.564047
-0.362806
-0.235391
-0.11782
-0.0130577
0.0767872
0.153591
0.215608
0.262265
0.293273
0.308914
0.310482
0.298256
0.277126
0.255007
0.240639
0.242178
0.266076
0.316539
0.395464
0.502529
0.635173
0.786777
0.949438
1.11612
1.27779
1.42581
1.55385
1.65931
1.74408
1.81426
1.87892
1.94819
2.03137
2.15195
2.31467
2.4888
2.63342
2.7169
2.73181
2.69744
2.64818
2.61454
2.60862
2.61557
2.6239
2.62759
2.62124
2.60045
2.5618
2.50278
2.42249
2.32354
2.20805
2.07812
1.93719
1.78981
1.64123
1.49679
1.36134
1.23869
1.13126
1.03988
0.964181
0.90239
0.851469
0.808113
0.769403
0.733319
0.698991
0.66662
0.637085
0.61136
0.589798
0.571919
0.556245
0.540404
0.521527
0.496782
0.463948
0.421879
0.370784
0.312295
0.249244
0.1853
0.124503
0.0709907
0.0283831
-0.000678182
-0.0145756
-0.0126629
0.00494068
0.0376486
0.0847057
0.1454
0.222674
0.327666
0.47479
0.647132
0.810986
0.927756
0.970005
0.933205
0.835976
0.709444
0.583
0.475353
0.385055
0.307259
0.240502
0.185878
0.145042
0.119295
0.1108
0.119846
0.142272
0.172403
0.204379
0.233476
0.257028
0.274659
0.287765
0.298504
0.308687
0.319001
0.32909
0.338103
0.345234
0.350326
0.35424
0.358832
0.366515
0.379532
0.400138
0.428608
0.461374
0.492054
0.513882
0.521983
0.515215
0.497005
0.474955
0.460271
0.496636
0.669028
0.930606
1.18247
1.32399
1.29865
1.11629
0.845618
0.585676
0.426395
0.37203
0.348946
0.333792
0.320891
0.306209
0.287788
0.265513
0.240392
0.213709
0.186406
0.158827
0.130958
0.1025
0
0.203881
0.909089
2.1252
3.61954
4.96717
5.71242
5.57522
4.5933
3.11242
1.62146
0.527978
0.000351715
-0.0479017
0.128194
0.268653
0.40377
0.532116
0.652497
0.765454
0.870962
0.968641
1.05831
1.14001
1.21392
1.2801
1.33835
1.38889
1.43268
1.47112
1.50628
1.54087
1.57793
1.62027
1.66982
1.72729
1.79211
1.86308
1.93937
2.02129
2.11054
2.20979
2.32157
2.44714
2.58548
2.73226
2.88324
3.03438
3.18189
3.32271
3.45442
3.57477
3.68212
3.77516
3.85223
3.91092
3.94892
3.96377
3.95334
3.91629
3.85246
3.76308
3.65077
3.51928
3.37296
3.21694
3.05543
2.89101
2.72526
2.55934
2.39443
2.23214
2.07488
1.92672
1.7923
1.67637
1.58285
1.51675
1.48172
1.47372
1.4839
1.50187
1.51792
1.52478
1.51871
1.4997
1.47101
1.43832
1.40843
1.3876
1.38039
1.38857
1.41089
1.44471
1.48724
1.53538
1.58572
1.63533
1.68214
1.72508
1.76405
1.79967
1.83288
1.86474
1.89615
1.92778
1.96005
1.99314
2.02693
2.0608
2.09305
2.12062
2.1396
2.14577
2.13562
2.10727
2.06122
2.00042
1.9299
1.85574
1.7839
1.71838
1.66071
1.61146
1.57045
1.53642
1.50764
1.48233
1.45902
1.43682
1.41538
1.39482
1.37561
1.3583
1.34351
1.33196
1.32439
1.32156
1.32409
1.33237
1.34646
1.36616
1.39049
1.41587
1.43636
1.44526
1.43635
1.40532
1.35086
1.27516
1.18379
1.08449
0.988488
0.908334
0.854744
0.834441
0.848667
0.892891
0.957914
1.03201
1.10332
1.16352
1.20801
1.2322
1.23283
1.208
1.15735
1.08222
0.985858
0.873344
0.751298
0.627296
0.508486
0.399714
0.304847
0.229688
0.185184
0.180829
0.201015
0.222469
0.221757
0.183387
0.105448
0
-0.294464
-0.314845
0.187774
1.28292
2.76291
4.1685
4.98042
4.87975
3.91035
2.43892
0.950002
-0.180291
-0.798526
-0.949857
-0.753249
-0.554732
-0.370524
-0.213655
-0.0935465
-0.0144732
0.0250707
0.0320563
0.0176792
-0.00469646
-0.0221685
-0.0253883
-0.0111098
0.0185236
0.058871
0.10653
0.158929
0.214816
0.274688
0.340637
0.415649
0.502606
0.602829
0.715371
0.8381
0.967764
1.09923
1.22486
1.33769
1.43328
1.51096
1.57423
1.63009
1.68748
1.7552
1.83978
1.94212
2.05938
2.18871
2.32603
2.46471
2.59483
2.70454
2.78524
2.83042
2.83559
2.79841
2.7189
2.59951
2.44483
2.26071
2.05363
1.83159
1.60064
1.36474
1.12682
0.890087
0.658784
0.440464
0.243029
0.0738758
-0.0612117
-0.159448
-0.221826
-0.253048
-0.260645
-0.253605
-0.240798
-0.23025
-0.227994
-0.237581
-0.26013
-0.294656
-0.338607
-0.38849
-0.440469
-0.490816
-0.536721
-0.576532
-0.608671
-0.632005
-0.645382
-0.647541
-0.64052
-0.629158
-0.618524
-0.612206
-0.611045
-0.612905
-0.61365
-0.608891
-0.595725
-0.574719
-0.548506
-0.519377
-0.489397
-0.46035
-0.433426
-0.409116
-0.387227
-0.367045
-0.347536
-0.327549
-0.306005
-0.282037
-0.255076
-0.224882
-0.191573
-0.155463
-0.117042
-0.0769582
-0.0360111
0.00487514
0.0446982
0.0824778
0.117371
0.148767
0.176316
0.199858
0.219251
0.234205
0.244218
0.248974
0.248765
0.244901
0.2402
0.239172
0.247666
0.271974
0.3175
0.395038
0.523376
0.681052
0.834124
0.949569
1.00702
1.00424
0.954759
0.880185
0.80166
0.734042
0.678049
0.630555
0.58944
0.553082
0.518902
0.48368
0.444288
0.39826
0.344281
0.282459
0.2143
0.142378
0.069815
0
-0.0322944
0.144276
0.551786
1.31186
2.43781
3.72702
4.77353
5.13734
4.58905
3.27036
1.64706
0.271431
-0.494254
-0.619788
-0.349431
-0.156666
0.0197905
0.171163
0.29404
0.400727
0.496779
0.583524
0.661442
0.730338
0.789986
0.840203
0.881299
0.914635
0.942878
0.969853
0.999973
1.03743
1.08532
1.1443
1.21307
1.28954
1.3713
1.45457
1.53477
1.6089
1.67669
1.74127
1.80888
1.88764
1.98552
2.10793
2.25593
2.42273
2.59966
2.77905
2.95312
3.11444
3.25689
3.37644
3.47086
3.53925
3.5814
3.59686
3.58486
3.54467
3.47566
3.37786
3.25273
3.10366
2.93595
2.75638
2.57221
2.39001
2.21528
2.05059
1.89597
1.7499
1.61062
1.47732
1.35073
1.23299
1.12698
1.03432
0.955914
0.892576
0.844181
0.809759
0.787761
0.776757
0.774407
0.776901
0.779998
0.779678
0.772771
0.75757
0.734264
0.705042
0.673828
0.645663
0.625516
0.61782
0.625539
0.649583
0.688584
0.739092
0.796142
0.854073
0.907546
0.952295
0.985242
1.00481
1.01092
1.00481
0.988735
0.965504
0.938039
0.908659
0.878632
0.847866
0.814761
0.776556
0.730124
0.672395
0.598191
0.50668
0.407822
0.318822
0.257049
0.235598
0.260555
0.330093
0.435034
0.560613
0.689182
0.804396
0.898674
0.971343
1.01923
1.04152
1.03952
1.01624
0.975933
0.923567
0.864652
0.804176
0.746017
0.692891
0.646493
0.607837
0.57732
0.554624
0.538974
0.52936
0.524732
0.524127
0.526724
0.53188
0.539047
0.547827
0.558001
0.569553
0.582646
0.597553
0.614536
0.633746
0.655178
0.678723
0.704386
0.73244
0.763561
0.798838
0.839703
0.888515
0.949295
1.0251
1.10881
1.18523
1.23706
1.25041
1.21949
1.14832
1.04938
0.939623
0.835559
0.745287
0.667424
0.598862
0.537224
0.479921
0.423947
0.366473
0.305388
0.239465
0.168986
0.0954678
0.0210173
0
0.230072
0.780361
1.69225
2.85882
4.007
4.77838
4.88515
4.26104
3.11379
1.83576
0.816852
0.266264
0.14659
0.235908
0.303497
0.374014
0.449256
0.530683
0.618297
0.710997
0.806585
0.902121
0.994351
1.08033
1.15692
1.22115
1.27075
1.30426
1.32092
1.32086
1.30548
1.27645
1.23706
1.19562
1.16286
1.14932
1.1634
1.2099
1.28925
1.39787
1.52932
1.67621
1.83129
1.98987
2.15
2.31131
2.47423
2.63943
2.80766
2.9794
3.15435
3.33083
3.50452
3.66691
3.80748
3.91393
3.96759
3.94724
3.83959
3.65156
3.41667
3.18789
3.0156
2.90222
2.81481
2.73982
2.66712
2.5869
2.49144
2.37633
2.24091
2.08797
1.92344
1.75497
1.58854
1.42956
1.2827
1.15158
1.03851
0.944393
0.868898
0.810591
0.767209
0.735948
0.713655
0.696856
0.681932
0.665559
0.645097
0.618975
0.586982
0.55037
0.511686
0.474318
0.441838
0.417257
0.402548
0.398534
0.403804
0.415674
0.430907
0.446493
0.460287
0.471357
0.480008
0.487514
0.49568
0.506253
0.520512
0.53906
0.561712
0.587628
0.615227
0.642142
0.665661
0.683193
0.692646
0.692731
0.683123
0.664481
0.638304
0.606689
0.572088
0.536866
0.502938
0.471896
0.444945
0.422944
0.406448
0.395714
0.390643
0.391061
0.396461
0.403807
0.408134
0.404119
0.387638
0.357285
0.315221
0.267038
0.220703
0.185027
0.165614
0.168079
0.195928
0.250077
0.32856
0.426522
0.53705
0.650989
0.757804
0.848373
0.91658
0.960217
0.980931
0.98331
0.973424
0.957292
0.93978
0.923495
0.909266
0.896942
0.885711
0.874229
0.860732
0.843332
0.820442
0.791106
0.755286
0.713955
0.668913
0.622331
0.576162
0.531687
0.488514
0.444831
0.398195
0.346574
0.289198
0.226877
0.161682
0.0961847
0.0324665
-0.0284571
-0.0797359
0
0.300544
0.95873
2.02019
3.33527
4.55425
5.24631
5.10317
4.1203
2.63545
1.18018
0.222131
-0.0501762
0.226424
0.50931
0.737712
0.933116
1.0866
1.19523
1.26135
1.29033
1.28972
1.2689
1.23868
1.21024
1.19329
1.19408
1.2115
1.24061
1.27859
1.32341
1.37353
1.42811
1.48697
1.55029
1.61829
1.69081
1.76752
1.84824
1.93273
2.02078
2.11215
2.20665
2.30413
2.40441
2.5078
2.61531
2.72861
2.84967
2.97997
3.11971
3.26708
3.41803
3.56673
3.70595
3.82852
3.92838
4.00123
4.04449
4.05689
4.03791
3.98739
3.90623
3.79792
3.66572
3.51347
3.34662
3.17181
2.99605
2.82561
2.66532
2.51814
2.38519
2.2661
2.15973
2.06494
1.98119
1.90884
1.84907
1.80371
1.77628
1.77214
1.79309
1.83079
1.87245
1.90485
1.91772
1.90639
1.87266
1.82392
1.77081
1.72404
1.6896
1.66777
1.65648
1.654
1.6581
1.66623
1.6759
1.68508
1.69224
1.69639
1.69696
1.6939
1.68735
1.67775
1.66584
1.65276
1.63996
1.62926
1.62271
1.62255
1.63115
1.65277
1.69537
1.76277
1.84146
1.91139
1.9524
1.95164
1.90824
1.83276
1.74169
1.64922
1.56035
1.47086
1.37701
1.27584
1.16305
1.03404
0.900235
0.781194
0.696752
0.65978
0.671839
0.723331
0.797526
0.876265
0.944886
1.0003
1.04415
1.07611
1.09654
1.10642
1.10712
1.10018
1.08735
1.07068
1.05261
1.03591
1.02378
1.01932
1.02512
1.04681
1.08864
1.14251
1.1963
1.23814
1.26105
1.26543
1.25846
1.25083
1.2525
1.26858
1.29562
1.33019
1.37002
1.41242
1.45307
1.48581
1.5044
1.50344
1.47964
1.43301
1.36721
1.28889
1.206
1.12548
1.05036
0.979801
0.911835
0.842671
0.767472
0.681289
0.579992
0.461032
0.323732
0.168699
0
-0.185256
-0.268061
0.0107788
0.802309
2.1087
3.69189
5.10554
5.86807
5.69465
4.64856
3.11365
1.60644
0.542519
0.0878346
0.153214
0.487447
0.726933
0.900461
0.974754
0.945509
0.836027
0.689618
0.562103
0.510453
0.538649
0.610381
0.700651
0.798367
0.892494
0.974874
1.04228
1.0969
1.14501
1.19441
1.25162
1.31888
1.3941
1.47514
1.56028
1.64822
1.7386
1.83233
1.93145
2.03882
2.15748
2.29008
2.43817
2.60238
2.78716
2.99914
3.22832
3.44285
3.60996
3.7054
3.72163
3.67146
3.58448
3.49585
3.43128
3.39277
3.36069
3.32314
3.27013
3.19324
3.08724
2.95084
2.78681
2.60129
2.40361
2.20245
2.00428
1.81424
1.63629
1.47307
1.32613
1.19615
1.08325
0.987405
0.90826
0.844928
0.796204
0.760505
0.73584
0.719881
0.710344
0.703746
0.695872
0.682813
0.661691
0.631349
0.592779
0.549059
0.504773
0.465045
0.434096
0.414703
0.408384
0.415148
0.433816
0.462459
0.498788
0.540051
0.584249
0.629427
0.673843
0.715993
0.754546
0.788192
0.814284
0.829263
0.829976
0.813452
0.778199
0.725519
0.660154
0.589783
0.523347
0.468725
0.431112
0.412728
0.4079
0.407313
0.40119
0.382389
0.348513
0.302534
0.251934
0.206724
0.176457
0.165593
0.173855
0.199938
0.241945
0.296108
0.357805
0.421082
0.479312
0.527221
0.561837
0.583072
0.593833
0.599596
0.607498
0.632729
0.716012
0.88989
1.10282
1.28929
1.39753
1.40237
1.30474
1.12384
0.888995
0.636909
0.414455
0.246967
0.12406
0.031221
-0.0377785
-0.0837139
-0.109036
-0.117355
-0.112796
-0.0994064
-0.0809933
-0.0602489
-0.0397343
-0.0215893
-0.00767555
0
-0.119568
-0.187827
0.198
1.2017
2.64636
4.03878
4.81256
4.63942
3.60043
2.11518
0.698437
-0.282005
-0.70956
-0.676815
-0.516353
-0.39229
-0.289834
-0.21099
-0.152585
-0.107426
-0.066695
-0.0227421
0.0286778
0.086018
0.146302
0.206522
0.263531
0.314832
0.359157
0.396732
0.429234
0.459494
0.491028
0.527466
0.571992
0.626867
0.69306
0.770167
0.856709
0.950541
1.04931
1.15103
1.25448
1.35957
1.46724
1.5792
1.69738
1.82325
1.95718
2.09806
2.24375
2.38812
2.52206
2.63668
2.72552
2.78599
2.81949
2.83023
2.82297
2.8008
2.76395
2.71181
2.64024
2.54519
2.42429
2.27794
2.10973
1.92595
1.73436
1.54278
1.3566
1.17975
1.01467
0.862339
0.722666
0.594927
0.478178
0.37155
0.274395
0.186317
0.107133
0.0368214
-0.0245186
-0.0766758
-0.119346
-0.152183
-0.174928
-0.187413
-0.18908
-0.179229
-0.160413
-0.13953
-0.123626
-0.117304
-0.120529
-0.127945
-0.130339
-0.117821
-0.0834305
-0.0278625
0.0409946
0.117466
0.196891
0.274633
0.346549
0.408747
0.458003
0.493002
0.513444
0.519944
0.513977
0.49778
0.474129
0.445997
0.416182
0.387041
0.360214
0.337048
0.318863
0.306981
0.302677
0.307329
0.323584
0.353505
0.391753
0.427552
0.449603
0.450387
0.42944
0.393881
0.355655
0.326527
0.313022
0.310656
0.313398
0.31242
0.299017
0.267606
0.217929
0.155844
0.0924397
0.0416103
0.0164055
0.0226315
0.0634266
0.13597
0.232197
0.340788
0.449805
0.550338
0.639147
0.713821
0.773391
0.818061
0.849208
0.868702
0.878381
0.879697
0.873487
0.85984
0.837811
0.805725
0.762032
0.705627
0.636606
0.556896
0.470517
0.383261
0.302366
0.234844
0.186078
0.158732
0.152578
0.164993
0.190301
0.220592
0.247234
0.263215
0.264075
0.248305
0.217279
0.134414
0
0.243858
1.08891
2.46686
3.95222
4.93648
4.95856
3.97623
2.38997
0.80862
-0.276628
-0.699445
-0.604884
-0.424179
-0.266109
-0.134858
-0.0337963
0.0450619
0.113142
0.174292
0.231379
0.285915
0.337946
0.386266
0.428959
0.464037
0.489946
0.506112
0.513102
0.512672
0.507648
0.50169
0.498919
0.503452
0.518914
0.547871
0.59092
0.648308
0.719249
0.802169
0.894833
0.995
1.10076
1.21057
1.32335
1.43848
1.55562
1.67458
1.79501
1.91624
2.03709
2.15561
2.26874
2.37186
2.45909
2.52514
2.56498
2.57407
2.54899
2.48816
2.39254
2.26602
2.11536
1.94941
1.7783
1.60984
1.44853
1.29696
1.15682
1.02834
0.910462
0.801244
0.698143
0.598536
0.500377
0.402707
0.30596
0.211992
0.123771
0.0447819
-0.0217293
-0.0732262
-0.108591
-0.128307
-0.134303
-0.130429
-0.122719
-0.117078
-0.117927
-0.127547
-0.145944
-0.171232
-0.200402
-0.230156
-0.257543
-0.280679
-0.298627
-0.309564
-0.312124
-0.305204
-0.288249
-0.261555
-0.226379
-0.184766
-0.139109
-0.0915978
-0.0437874
0.00362587
0.0505711
0.0972797
0.143888
0.190027
0.234444
0.274498
0.306068
0.325195
0.328582
0.314563
0.28376
0.239149
0.185445
0.127972
0.0715141
0.0193859
-0.0273369
-0.0670815
-0.0976818
-0.117018
-0.122745
-0.112711
-0.0854885
-0.040794
0.0203831
0.0959141
0.185036
0.287775
0.399134
0.505282
0.588684
0.63196
0.624344
0.568185
0.481727
0.395784
0.344724
0.355013
0.417101
0.552105
0.755673
0.971721
1.14735
1.24785
1.26149
1.19689
1.07647
0.929106
0.784393
0.66712
0.580875
0.517467
0.469656
0.43299
0.405163
0.384117
0.367766
0.354136
0.341371
0.327601
0.310751
0.288855
0.260349
0.224549
0.182068
0.130322
0
0.230151
0.965137
2.11266
3.36604
4.32987
4.68787
4.32745
3.37141
2.11898
0.931097
0.100321
-0.25019
-0.193985
-0.0699204
0.0445457
0.154783
0.260624
0.361452
0.455922
0.541803
0.614977
0.669524
0.699675
0.701935
0.676606
0.628517
0.567137
0.506089
0.460791
0.44346
0.461593
0.516162
0.600999
0.707203
0.828309
0.955649
1.08047
1.19596
1.29842
1.38783
1.46741
1.54261
1.61951
1.70336
1.79663
1.89945
2.01031
2.12644
2.24367
2.35823
2.46775
2.57187
2.67202
2.77085
2.87673
2.99292
3.10611
3.19386
3.23595
3.22168
3.14911
3.01994
2.83629
2.60317
2.33982
2.06658
1.79894
1.54777
1.31681
1.10696
0.921207
0.761054
0.627379
0.51896
0.430481
0.353967
0.280844
0.203255
0.115344
0.0142212
-0.10225
-0.231159
-0.361148
-0.479504
-0.575707
-0.64369
-0.682045
-0.692514
-0.677946
-0.641149
-0.587665
-0.521007
-0.447258
-0.37695
-0.32134
-0.28918
-0.284074
-0.30362
-0.340517
-0.384779
-0.425991
-0.457289
-0.476068
-0.480558
-0.469317
-0.442134
-0.400639
-0.345976
-0.281117
-0.214243
-0.156555
-0.11783
-0.104127
-0.116338
-0.150212
-0.198078
-0.251754
-0.305477
-0.357667
-0.409975
-0.464424
-0.522802
-0.585796
-0.652566
-0.720847
-0.787473
-0.849208
-0.903905
-0.949887
-0.98586
-1.01104
-1.02497
-1.02739
-1.01821
-0.997658
-0.964646
-0.918194
-0.862259
-0.807124
-0.764202
-0.742774
-0.746942
-0.774001
-0.814937
-0.856903
-0.886679
-0.894229
-0.878522
-0.84197
-0.785396
-0.706791
-0.603794
-0.473826
-0.314585
-0.124755
0.0953342
0.411377
1.14605
2.02806
2.78325
3.27466
3.45574
3.37067
3.12473
2.83062
2.5579
2.31296
2.06202
1.8234
1.60745
1.4101
1.22782
1.05813
0.900023
0.753463
0.618874
0.496343
0.385699
0.286601
0.198286
0.119361
0.0477188
-0.00828495
0
0.284556
1.04238
2.25815
3.62776
4.6725
4.98372
4.4432
3.27817
1.92236
0.782379
0.0578394
-0.28741
-0.413279
-0.408319
-0.39395
-0.368566
-0.330074
-0.278768
-0.217249
-0.149965
-0.082469
-0.0198619
0.0348295
0.0791677
0.112584
0.136694
0.155202
0.173325
0.19682
0.230816
0.278075
0.338231
0.409795
0.491534
0.58071
0.674477
0.770915
0.869562
0.971479
1.07887
1.19436
1.32028
1.45804
1.60713
1.76636
1.93423
2.10869
2.28729
2.46736
2.64608
2.82065
2.98842
3.1468
3.29222
3.41937
3.52344
3.60162
3.65045
3.66606
3.64478
3.58389
3.48243
3.34168
3.16552
2.96199
2.74227
2.51608
2.29111
2.07367
1.8691
1.68165
1.51321
1.36392
1.23277
1.11822
1.01884
0.93356
0.86201
0.806117
0.765847
0.736522
0.711991
0.686176
0.654888
0.616984
0.574354
0.530841
0.490693
0.456555
0.428477
0.406727
0.390892
0.380125
0.373029
0.367328
0.3611
0.353476
0.345026
0.338069
0.335779
0.340926
0.354699
0.376133
0.402355
0.429488
0.453747
0.473239
0.486606
0.493256
0.493349
0.48798
0.478451
0.466384
0.453675
0.442265
0.433822
0.429687
0.430622
0.435769
0.443579
0.452514
0.461759
0.471631
0.483486
0.499166
0.520168
0.547025
0.578642
0.6123
0.644352
0.671111
0.689757
0.699045
0.699698
0.694435
0.687649
0.68472
0.691126
0.71158
0.748709
0.802342
0.871297
0.955011
1.05151
1.15625
1.26069
1.35329
1.42312
1.46087
1.46026
1.41925
1.34077
1.23225
1.10401
0.967373
0.832889
0.706553
0.591002
0.489351
0.409081
0.372071
0.42034
0.549347
0.704522
0.81953
0.840068
0.742245
0.539101
0.274462
-0.0379116
0
0.599083
1.80232
3.39145
4.91973
5.88104
5.93061
5.03949
3.50468
1.8168
0.458371
-0.274222
-0.351234
0.0267714
0.270968
0.498189
0.69625
0.857753
0.99235
1.10115
1.18629
1.25092
1.29853
1.33255
1.35616
1.37254
1.38511
1.39785
1.41553
1.4432
1.48553
1.54602
1.6262
1.72531
1.84039
1.96703
68
236
402
571
735
894
1062
1226
1403
1563
1742
1920
2104
2274
2465
2650
2840
3009
3191
3365
3549
3720
3540
3709
3409
3556
3701
0
0
0
0
0
0
0
0
0
0
0
0
0
0
0
0
0
0
0
0
0
0
0
0
0
0
0
0
0
0
0
0
0
0
0
0
0
0
0
0
0
0
0
0
0
0
0
0
0
0
0
0
0
0
0
0
0
0
0
0
0
0
0
0
0
0
0
0
0
0
0
0
0
0
0
0
0
0
0
0
0
0
0
0
0
0
0
0
0
0
0
0
0
0
0
0
0
0
0
0
0
0
0
0
0
0
0
0
0
0
0
0
0
0
0
0
0
0
0
0
0
0
0
0
0
0
0
0
0
0
0
0
0
0
0
0
0
0
0
0
0
0
0
0
0
0
0
0
0
0
0
0
0
0
0
0
0
0
0
0
0
0
0
0
0
0
0
0
0
0
0
0
0
0
0
0
0
0
0
0
0
0
0
0
0
0
0
0
0
0
0
0
0
0
0
0
0
0
0
0
0
0
0
0
0
0
0
0
0
0
0
0
0
0
0
0
0
0
0
0
0
0
0
0
0
0
0
0
0
0
0
0
0
0
0
0
0
0
0
0
0
0
0
0
0
0
0
0
0
0
0
0
0
0
0
0
0
0
0
0
0
0
0
0
0
0
0
0
0
0
0
0
0
0
0
0
0
0
0
0
0
0
0
0
0
0
0
0
0
0
0
0
0
0
0
0
0
0
0
0
0
0
0
0
0
0
0
0
0
0
0
0
0
0
0
0
0
0
0
0
0
0
0
0
0
0
0
0
0
0
0
0
0
0
0
0
0
0
0
0
0
0
0
0
0
0
0
0
0
0
0
0
0
0
0
0
0
0
0
0
0
0
0
0
0
0
0
0
0
0
0
0
0
0
0
0
0
0
0
0
0
0
0
0
0
0
0
0
0
0
0
0
0
0
0
0
0
0
0
0
0
0
0
0
0
0
0
0
0
0
0
0
0
0
0
0
0
0
0
0
0
0
0
0
0
0
0
0
0
0
0
0
0
0
0
0
0
0
0
0
0
0
0
0
0
0
0
0
0
0
0
0
0
0
0
0
0
0
0
0
0
0
0
0
0
0
0
0
0
0
0
0
0
0
0
0
0
0
0
0
0
0
0
0
0
0
0
0
0
0
0
0
0
0
0
0
0
0
0
0
0
0
0
0
0
0
0
0
0
0
0
0
0
0
0
0
0
0
0
0
0
0
0
0
0
0
0
0
0
0
0
0
0
0
0
0
0
0
0
0
0
0
0
0
0
0
0
0
0
0
0
0
0
0
0
0
0
0
0
0
0
0
0
0
0
0
0
0
0
0
0
0
0
0
0
0
0
0
0
0
0
0
0
0
0
0
0
0
0
0
0
0
0
0
0
0
0
0
0
0
0
0
0
0
0
0
0
0
0
0
0
0
0
0
0
0
0
0
0
0
0
0
0
0
0
0
0
0
0
0
0
0
0
0
0
0
0
0
0
0
0
0
0
0
0
0
0
0
0
0
0
0
0
0
0
0
0
0
0
0
0
0
0
0
0
0
0
0
0
0
0
0
0
0
0
0
0
0
0
0
0
0
0
0
0
0
0
0
0
0
0
0
0
0
0
0
0
0
0
0
0
0
0
0
0
0
0
0
0
0
0
0
0
0
0
0
0
0
0
0
0
0
0
0
0
0
0
0
0
0
0
0
0
0
0
0
0
0
0
0
0
0
0
0
0
0
0
0
0
0
0
0
0
0
0
0
0
0
0
0
0
0
0
0
0
0
0
0
0
0
0
0
0
0
0
0
0
0
0
0
0
0
0
0
0
0
0
0
0
0
0
0
0
0
0
0
0
0
0
0
0
0
0
0
0
0
0
0
0
0
0
0
0
0
0
0
0
0
0
0
0
0
0
0
0
0
0
0
0
0
0
0
0
0
0
0
0
0
0
0
0
0
0
0
0
0
0
0
0
0
0
0
0
0
0
0
0
0
0
0
0
0
0
0
0
0
0
0
0
0
0
0
0
0
0
0
0
0
0
0
0
0
0
0
0
0
0
0
0
0
0
0
0
0
0
0
0
0
0
0
0
0
0
0
0
0
0
0
0
0
0
0
0
0
0
0
0
0
0
0
0
0
0
0
0
0
0
0
0
0
0
0
0
0
0
0
0
0
0
0
0
0
0
0
0
0
0
0
0
0
0
0
0
0
0
0
0
0
0
0
0
0
0
0
0
0
0
0
0
0
0
0
0
0
0
0
0
0
0
0
0
0
0
0
0
0
0
0
0
0
0
0
0
0
0
0
0
0
0
0
0
0
0
0
0
0
0
0
0
0
0
0
0
0
0
0
0
0
0
0
0
0
0
0
0
0
0
0
0
0
0
0
0
0
0
0
0
0
0
0
0
0
0
0
0
0
0
0
0
0
0
0
0
0
0
0
0
0
0
0
0
0
0
0
0
0
0
0
0
0
0
0
0
0
0
0
0
0
0
0
0
0
0
0
0
0
0
0
0
0
0
0
0
0
0
0
0
0
0
0
0
0
0
0
0
0
0
0
0
0
0
0
0
0
0
0
0
0
0
0
0
0
0
0
0
0
0
0
0
0
0
0
0
0
0
0
0
0
0
0
0
0
0
0
0
0
0
0
0
0
0
0
0
0
0
0
0
0
0
0
0
0
0
0
0
0
0
0
0
0
0
0
0
0
0
0
0
0
0
0
0
0
0
0
0
0
0
0
0
0
0
0
0
0
0
0
0
0
0
0
0
0
0
0
0
0
0
0
0
0
0
0
0
0
0
0
0
0
0
0
0
0
0
0
0
0
0
0
0
0
0
0
0
0
0
0
0
0
0
0
0
0
0
0
0
0
0
0
0
0
0
0
0
0
0
0
0
0
0
0
0
0
0
0
0
0
0
0
0
0
0
0
0
0
0
0
0
0
0
0
0
0
0
0
0
0
0
0
0
0
0
0
0
0
0
0
0
0
0
0
0
0
0
0
0
0
0
0
0
0
0
0
0
0
0
0
0
0
0
0
0
0
0
0
0
0
0
0
0
0
0
0
0
0
0
0
0
0
0
0
0
0
0
0
0
0
0
0
0
0
0
0
0
0
0
0
0
0
0
0
0
0
0
0
0
0
0
0
0
0
0
0
0
0
0
0
0
0
0
0
0
0
0
0
0
0
0
0
0
0
0
0
0
0
0
0
0
0
0
0
0
0
0
0
0
0
0
0
0
0
0
0
0
0
0
0
0
0
0
0
0
0
0
0
0
0
0
0
0
0
0
0
0
0
0
0
0
0
0
0
0
0
0
0
0
0
0
0
0
0
0
0
0
0
0
0
0
0
0
0
0
0
0
0
0
0
0
0
0
0
0
0
0
0
0
0
0
0
0
0
0
0
0
0
0
0
0
0
0
0
0
0
0
0
0
0
0
0
0
0
0
0
0
0
0
0
0
0
0
0
0
0
0
0
0
0
0
0
0
0
0
0
0
0
0
0
0
0
0
0
0
0
0
0
0
0
0
0
0
0
0
0
0
0
0
0
0
0
0
0
0
0
0
0
0
0
0
0
0
0
0
0
0
0
0
0
0
0
0
0
0
0
0
0
0
0
0
0
0
0
0
0
0
0
0
0
0
0
0
0
0
0
0
0
0
0
0
0
0
0
0
0
0
0
0
0
0
0
0
0
0
0
0
0
0
0
0
0
0
0
0
0
0
0
0
0
0
0
0
0
0
0
0
0
0
0
0
0
0
0
0
0
0
0
0
0
0
0
0
0
0
0
0
0
0
0
0
0
0
0
0
0
0
0
0
0
0
0
0
0
0
0
0
0
0
0
0
0
0
0
0
0
0
0
0
0
0
0
0
0
0
0
0
0
0
0
0
0
0
0
0
0
0
0
0
0
0
0
0
0
0
0
0
0
0
0
0
0
0
0
0
0
0
0
0
0
0
0
0
0
0
0
0
0
0
0
0
0
0
0
0
0
0
0
0
0
0
0
0
0
0
0
0
0
0
0
0
0
0
0
0
0
0
0
0
0
0
0
0
0
0
0
0
0
0
0
0
0
0
0
0
0
0
0
0
0
0
0
0
0
0
0
0
0
0
0
0
0
0
0
0
0
0
0
0
0
0
0
0
0
0
0
0
0
0
0
0
0
0
0
0
0
0
0
0
0
0
0
0
0
0
0
0
0
0
0
0
0
0
0
0
0
0
0
0
0
0
0
0
0
0
0
0
0
0
0
0
0
0
0
0
0
0
0
0
0
0
0
0
0
0
0
0
0
0
0
0
0
0
0
0
0
0
0
0
0
0
0
0
0
0
0
0
0
0
0
0
0
0
0
0
0
0
0
0
0
0
0
0
0
0
0
0
0
0
0
0
0
0
0
0
0
0
0
0
0
0
0
0
0
0
0
0
0
0
0
0
0
0
0
0
0
0
0
0
0
0
0
0
0
0
0
0
0
0
0
0
0
0
0
0
0
0
0
0
0
0
0
0
0
0
0
0
0
0
0
0
0
0
0
0
0
0
0
0
0
0
0
0
0
0
0
0
0
0
0
0
0
0
0
0
0
0
0
0
0
0
0
0
0
0
0
0
0
0
0
0
0
0
0
0
0
0
0
0
0
0
0
0
0
0
0
0
0
0
0
0
0
0
0
0
0
0
0
0
0
0
0
0
0
0
0
0
0
0
0
0
0
0
0
0
0
0
0
0
0
0
0
0
0
0
0
0
0
0
0
0
0
0
0
0
0
0
0
0
0
0
0
0
0
0
0
0
0
0
0
0
0
0
0
0
0
0
0
0
0
0
0
0
0
0
0
0
0
0
0
0
0
0
0
0
0
0
0
0
0
0
0
0
0
0
0
0
0
0
0
0
0
0
0
0
0
0
0
0
0
0
0
0
0
0
0
0
0
0
0
0
0
0
0
0
0
0
0
0
0
0
0
0
0
0
0
0
0
0
0
0
0
0
0
0
0
0
0
0
0
0
0
0
0
0
0
0
0
0
0
0
0
0
0
0
0
0
0
0
0
0
0
0
0
0
0
0
0
0
0
0
0
0
0
0
0
0
0
0
0
0
0
0
0
0
0
0
0
0
0
0
0
0
0
0
0
0
0
0
0
0
0
0
0
0
0
0
0
0
0
0
0
0
0
0
0
0
0
0
0
0
0
0
0
0
0
0
0
0
0
0
0
0
0
0
0
0
0
0
0
0
0
0
0
0
0
0
0
0
0
0
0
0
0
0
0
0
0
0
0
0
0
0
0
0
0
0
0
0
0
0
0
0
0
0
0
0
0
0
0
0
0
0
0
0
0
0
0
0
0
0
0
0
0
0
0
0
0
0
0
0
0
0
0
0
0
0
0
0
0
0
0
0
0
0
0
0
0
0
0
0
0
0
0
0
0
0
0
0
0
0
0
0
0
0
0
0
0
0
0
0
0
0
0
0
0
0
0
0
0
0
0
0
0
0
0
0
0
0
0
0
0
0
0
0
0
0
0
0
0
0
0
0
0
0
0
0
0
0
0
0
0
0
0
0
0
0
0
0
0
0
0
0
0
0
0
0
0
0
0
0
0
0
0
0
0
0
0
0
0
0
0
0
0
0
0
0
0
0
0
0
0
0
0
0
0
0
0
0
0
0
0
0
0
0
0
0
0
0
0
0
0
0
0
0
0
0
0
0
0
0
0
0
0
0
0
0
0
0
0
0
0
0
0
0
0
0
0
0
0
0
0
0
0
0
0
0
0
0
0
0
0
0
0
0
0
0
0
0
0
0
0
0
0
0
0
0
0
0
0
0
0
0
0
0
0
0
0
0
0
0
0
0
0
0
0
0
0
0
0
0
0
0
0
0
0
0
0
0
0
0
0
0
0
0
0
0
0
0
0
0
0
0
0
0
0
0
0
0
0
0
0
0
0
0
0
0
0
0
0
0
0
0
0
0
0
0
0
0
0
0
0
0
0
0
0
0
0
0
0
0
0
0
0
0
0
0
0
0
0
0
0
0
0
0
0
0
0
0
0
0
0
0
0
0
0
0
0
0
0
0
0
0
0
0
0
0
0
0
0
0
0
0
0
0
0
0
0
0
0
0
0
0
0
0
0
0
0
0
0
0
0
0
0
0
0
0
0
0
0
0
0
0
0
0
0
0
0
0
0
0
0
0
0
0
0
0
0
0
0
0
0
0
0
0
0
0
0
0
0
0
0
0
0
0
0
0
0
0
0
0
0
0
0
0
0
0
0
0
0
0
0
0
0
0
0
0
0
0
0
0
0
0
0
0
0
0
0
0
0
0
0
0
0
0
0
0
0
0
0
0
0
0
0
0
0
0
0
0
0
0
0
0
0
0
0
0
0
0
0
0
0
0
0
0
0
0
0
0
0
0
0
0
0
0
0
0
0
0
0
0
0
0
0
0
0
0
0
0
0
0
0
0
0
0
0
0
0
0
0
0
0
0
0
0
0
0
0
0
0
0
0
0
0
0
0
0
0
0
0
0
0
0
0
0
0
0
0
0
0
0
0
0
0
0
0
0
0
0
0
0
0
0
0
0
0
0
0
0
0
0
0
0
0
0
0
0
0
0
0
0
0
0
0
0
0
0
0
0
0
0
0
0
0
0
0
0
0
0
0
0
0
0
0
0
0
0
0
0
0
0
0
0
0
0
0
0
0
0
0
0
0
0
0
0
0
0
0
0
0
0
0
0
0
0
0
0
0
0
0
0
0
0
0
0
0
0
0
0
0
0
0
0
0
0
0
0
0
0
0
0
0
0
0
0
0
0
0
0
0
0
0
0
0
0
0
0
0
0
0
0
0
0
0
0
0
0
0
0
0
0
0
0
0
0
0
0
0
0
0
0
0
0
0
0
0
0
0
0
0
0
0
0
0
0
0
0
0
0
0
0
0
0
0
0
0
0
0
0
0
0
0
0
0
0
0
0
0
0
0
0
0
0
0
0
0
0
0
0
0
0
0
0
0
0
0
0
0
0
0
0
0
0
0
0
0
0
0
0
0
0
0
0
0
0
0
0
0
0
0
0
0
0
0
0
0
0
0
0
0
0
0
0
0
0
0
0
0
0
0
0
0
0
0
0
0
0
0
0
0
0
0
0
0
0
0
0
0
0
0
0
0
0
0
0
0
0
0
0
0
0
0
0
0
0
0
0
0
0
0
0
0
0
0
0
0
0
0
0
0
0
0
0
0
0
0
0
0
0
0
0
0
0
0
0
0
0
0
0
0
0
0
0
0
0
0
0
0
0
0
0
0
0
0
0
0
0
0
0
0
0
0
0
0
0
0
0
0
0
0
0
0
0
0
0
0
0
0
0
0
0
0
0
0
0
0
0
0
0
0
0
0
0
0
0
0
0
0
0
0
0
0
0
0
0
0
0
0
0
0
0
0
0
0
0
0
0
0
0
0
0
0
0
0
0
0
0
0
0
0
0
0
0
0
0
0
0
0
0
0
0
0
0
0
0
0
0
0
0
0
0
0
0
0
0
0
0
0
0
0
0
0
0
0
0
0
0
0
0
0
0
0
0
0
0
0
0
0
0
0
0
0
0
0
0
0
0
0
0
0
0
0
0
0
0
0
0
0
0
0
0
0
0
0
0
0
0
0
0
0
0
0
0
0
0
0
0
0
0
0
0
0
0
0
0
0
0
0
0
0
0
0
0
0
0
0
0
0
0
0
0
0
0
0
0
0
0
0
0
0
0
0
0
0
0
0
0
0
0
0
0
0
0
0
0
0
0
0
0
0
0
0
0
0
0
0
0
0
0
0
0
0
0
0
0
0
0
0
0
0
0
0
0
0
0
0
0
0
0
0
0
0
0
0
0
0
0
0
0
0
0
0
0
0
0
0
0
0
0
0
0
0
0
0
0
0
0
0
0
0
0
0
0
0
0
0
0
0
0
0
0
0
0
0
0
0
0
0
0
0
0
0
0
0
0
0
0
0
0
0
0
0
0
0
0
0
0
0
0
0
0
0
0
0
0
0
0
0
0
0
0
0
0
0
0
0
0
0
0
0
0
0
0
0
0
0
0
0
0
0
0
0
0
0
0
0
0
0
0
0
0
0
0
0
0
0
0
0
0
0
0
0
0
0
0
0
0
0
0
0
0
0
0
0
0
0
0
0
0
0
0
0
0
0
0
0
0
0
0
0
0
0
0
0
0
0
0
0
0
0
0
0
0
0
0
0
0
0
0
0
0
0
0
0
0
0
0
0
0
0
0
0
0
0
0
0
0
0
0
0
0
0
0
0
0
0
0
0
0
0
0
0
0
0
0
0
0
0
0
0
0
0
0
0
0
0
0
0
0
0
0
0
0
0
0
0
0
0
0
0
0
0
0
0
0
0
0
0
0
0
0
0
0
0
0
0
0
0
0
0
0
0
0
0
0
0
0
0
0
0
0
0
0
0
0
0
0
0
0
0
0
0
0
0
0
0
0
0
0
0
