0.585041
0.75268
0.929497
1.11439
1.30633
1.50446
1.70825
1.91759
2.13269
2.35382
2.58082
2.81267
3.04708
3.27978
3.50186
3.70178
3.86809
3.99125
4.06514
4.08726
4.05768
3.9773
3.8463
3.66374
3.43555
3.1695
2.87079
2.5435
2.19357
1.82871
1.45794
1.09036
0.734821
0.399234
0.090092
-0.187991
-0.432439
-0.641853
-0.816912
-0.963142
-1.08771
-1.19806
-1.29942
-1.39407
-1.47949
-1.54678
-1.58434
-1.58336
-1.54234
-1.46868
-1.37689
-1.28416
-1.20512
-1.14372
-1.09833
-1.06744
-1.04778
-1.03543
-1.0268
-1.01887
-1.00937
-0.996257
-0.977527
-0.95132
-0.915728
-0.868193
-0.80919
-0.746527
-0.692105
-0.657514
-0.649954
-0.669437
-0.708489
-0.754583
-0.794387
-0.81808
-0.824944
-0.819983
-0.807549
-0.790492
-0.771516
-0.752843
-0.736037
-0.721995
-0.710881
-0.702173
-0.694649
-0.686398
-0.674949
-0.657588
-0.631851
-0.596082
-0.550056
-0.49505
-0.433126
-0.366998
-0.299292
-0.231813
-0.164991
-0.0976644
-0.0271741
0.0520939
0.155773
0.316817
0.535765
0.762106
0.932468
0.997165
0.940368
0.784326
0.577425
0.375847
0.227899
0.138479
0.0828582
0.0460564
0.0215974
0.00677567
0
0.00204744
0.0107265
0.0259306
0.0475123
0.0749454
0.107249
0.148224
0.183802
0.447695
1.23577
2.7018
4.68609
6.67893
7.98253
8.0201
6.63742
4.2215
1.54822
-0.570862
-1.6466
-1.67953
-1.16296
-0.745278
-0.41964
-0.211492
-0.122742
-0.111824
-0.153637
-0.221066
-0.290612
-0.348009
-0.390059
-0.416874
-0.429008
-0.42705
-0.41155
-0.38318
-0.34296
-0.292293
-0.232931
-0.166711
-0.0954578
-0.0207307
0.0568185
0.137791
0.224139
0.318938
0.425845
0.548384
0.689243
0.849496
1.02863
1.22549
1.43841
1.66558
1.9054
2.1564
2.41693
2.68469
2.95618
3.22653
3.48868
3.73537
3.96055
4.16109
4.33791
4.49624
4.63723
4.78721
5.01754
5.3019
5.55332
5.68863
5.67425
5.53087
5.30281
5.01904
4.67655
4.2778
3.8573
3.43564
3.02257
2.62361
2.24325
1.88534
1.55173
1.24243
0.956218
0.691522
0.447371
0.227619
0.0357574
-0.124797
-0.250936
-0.341586
-0.398865
-0.428184
-0.437266
-0.434494
-0.42723
-0.420677
-0.417574
-0.418618
-0.423191
-0.429931
-0.437332
-0.443949
-0.448168
-0.448218
-0.442319
-0.428944
-0.407137
-0.377143
-0.339833
-0.296771
-0.250154
-0.202896
-0.158623
-0.120951
-0.0928903
-0.0764204
-0.072154
-0.0792181
-0.0954379
-0.117833
-0.143335
-0.169565
-0.195475
-0.221473
-0.249049
-0.280462
-0.318183
-0.364254
-0.419675
-0.483975
-0.555433
-0.630278
-0.703156
-0.767847
-0.818088
-0.848583
-0.855454
-0.836651
-0.792244
-0.72456
-0.638078
-0.538959
-0.43417
-0.330259
-0.231968
-0.141305
-0.0570412
0.0250447
0.111196
0.208236
0.32777
0.491804
0.705067
0.931091
1.12655
1.25726
1.30691
1.27732
1.18344
1.04736
0.893974
0.747772
0.623139
0.521992
0.440838
0.375263
0.32179
0.277962
0.240962
0.207544
0.174451
0.138762
0.0981532
0.0517375
0
-0.0578992
0.101785
0.656858
1.72744
3.36682
5.44532
7.55035
9.04194
9.31133
8.11827
5.77832
3.04752
0.759075
-0.560898
-0.869857
-0.507652
-0.23587
0.00233297
0.182772
0.295389
0.371035
0.417286
0.444629
0.464733
0.488642
0.524055
0.57518
0.64344
0.727452
0.823494
0.926918
1.03223
1.13395
1.22731
1.30882
1.37745
1.43436
1.48281
1.52776
1.57524
1.63158
1.70258
1.79266
1.90422
2.03652
2.187
2.35273
2.53054
2.7174
2.91093
3.10961
3.31279
3.52043
3.73287
3.95048
4.17349
4.40173
4.63454
4.87069
5.10807
5.34075
5.5582
5.74844
5.89988
6.00361
6.05465
6.05169
5.99552
5.88717
5.72659
5.51421
5.25395
4.95314
4.62159
4.26911
3.90448
3.53578
3.17077
2.81647
2.47848
2.16079
1.86596
1.5956
1.35103
1.13381
0.946039
0.789561
0.667235
0.587179
0.559057
0.579464
0.627229
0.678621
0.713488
0.720221
0.697977
0.655674
0.608293
0.571706
0.556448
0.561378
0.584049
0.619849
0.658867
0.69104
0.709317
0.711964
0.703161
0.691639
0.687799
0.70039
0.732438
0.779972
0.838866
0.905588
0.976209
1.04485
1.10249
1.14051
1.15145
1.13136
1.08236
1.01381
0.940367
0.877337
0.834991
0.812721
0.804457
0.799385
0.785858
0.754721
0.700799
0.622552
0.520866
0.398165
0.261843
0.117924
-0.0291038
-0.174797
-0.314447
-0.4433
-0.556293
-0.648625
-0.716768
-0.758265
-0.771204
-0.754212
-0.706695
-0.629301
-0.518563
-0.361878
-0.176472
0.0012042
0.134048
0.19659
0.183483
0.10956
0.00137928
-0.114905
-0.222676
-0.320893
-0.412974
-0.499302
-0.578353
-0.646949
-0.700721
-0.734394
-0.743013
-0.723178
-0.673951
-0.5972
-0.497414
-0.381088
-0.241357
0
0.462942
1.35058
2.78263
4.65474
6.57429
7.94964
8.23057
7.18595
5.05552
2.46942
0.167914
-1.32289
-1.87762
-1.72092
-1.33414
-0.991528
-0.736307
-0.576469
-0.472461
-0.38925
-0.318098
-0.258612
-0.209733
-0.168847
-0.131758
-0.0932112
-0.0479278
0.00812044
0.0765998
0.155558
0.241006
0.328506
0.413324
0.491708
0.561794
0.624033
0.681085
0.737237
0.797556
0.866987
0.949251
1.04641
1.15942
1.28822
1.43175
1.58822
1.75538
1.93091
2.11265
2.29879
2.48805
2.67967
2.87345
3.0697
3.26915
3.47284
3.68196
3.89916
4.13003
4.37658
4.62226
4.83755
4.99297
5.06896
5.06027
4.97403
4.82425
4.62521
4.38494
4.10645
3.79339
3.45287
3.09325
2.72176
2.3451
1.97109
1.60832
1.26519
0.951211
0.671947
0.425536
0.20665
0.00903119
-0.171864
-0.337114
-0.484156
-0.608196
-0.704604
-0.765074
-0.789501
-0.788643
-0.776497
-0.765276
-0.761358
-0.763887
-0.766494
-0.761194
-0.742684
-0.711146
-0.672543
-0.636098
-0.61028
-0.599052
-0.59998
-0.604936
-0.602976
-0.584146
-0.544976
-0.489986
-0.423365
-0.348371
-0.271396
-0.199784
-0.139468
-0.0937176
-0.0625684
-0.043097
-0.0304801
-0.0195124
-0.00610236
0.0114076
0.0322739
0.0548798
0.0769857
0.0960935
0.109874
0.116437
0.114874
0.105338
0.0891731
0.0689681
0.0484332
0.032476
0.0263592
0.0349213
0.0618176
0.10899
0.17652
0.262892
0.365545
0.481495
0.610268
0.753856
0.91162
1.06793
1.19464
1.25799
1.23193
1.11184
0.92067
0.703097
0.508707
0.371585
0.276164
0.200758
0.138927
0.0877391
0.0461242
0.0157107
0
0.00561254
0.034797
0.0900625
0.171211
0.275027
0.395613
0.528945
0.663459
0.867063
1.39433
2.47473
4.15518
6.15103
7.84807
8.52644
7.72771
5.55416
2.68626
0.0717113
-1.53833
-1.92343
-1.37162
-0.718717
-0.198495
0.0821364
0.112441
0.0970668
0.0693433
0.0430633
0.0301578
0.0382283
0.0671644
0.114566
0.177246
0.251878
0.335526
0.425413
0.519156
0.614744
0.710353
0.804114
0.894104
0.978675
1.05687
1.12891
1.19645
1.26258
1.33134
1.40711
1.49385
1.59427
1.70958
1.84007
1.98543
2.14491
2.31753
2.50231
2.69835
2.90483
3.12094
3.34574
3.57806
3.81645
4.05906
4.30368
4.5477
4.78731
5.01602
5.22422
5.40226
5.54178
5.63491
5.67496
5.65676
5.57684
5.43359
5.22766
4.96276
4.64965
4.30346
3.93877
3.56756
3.19846
2.83853
2.49419
2.17082
1.87247
1.60166
1.3593
1.1448
0.95622
0.790578
0.644279
0.513537
0.394891
0.286117
0.187477
0.101351
0.0309456
-0.0191537
-0.0449803
-0.0451458
-0.0220028
0.0184709
0.0680194
0.118127
0.162134
0.197681
0.224146
0.240845
0.247515
0.243869
0.229484
0.203615
0.165572
0.115104
0.0527675
-0.0200513
-0.101132
-0.186658
-0.27056
-0.344855
-0.402018
-0.435887
-0.442634
-0.421525
-0.375283
-0.309863
-0.233547
-0.155468
-0.0836612
-0.0223629
0.0276943
0.0670397
0.09696
0.119936
0.139208
0.158339
0.180708
0.20912
0.245749
0.291788
0.347228
0.410865
0.480612
0.552865
0.62339
0.688557
0.746165
0.795888
0.83918
0.878621
0.916877
0.955846
0.995039
1.03043
1.05574
1.06446
1.05195
1.01663
0.960079
0.886267
0.800318
0.707946
0.614009
0.521737
0.433451
0.351126
0.276042
0.208595
0.148195
0.0933378
0.0418862
-0.00843472
-0.0597701
-0.113501
-0.169996
-0.232863
0
0.636491
1.72994
3.26196
5.09265
6.90111
8.20225
8.50181
7.54789
5.51992
2.99719
0.700329
-0.835071
-1.44967
-1.31632
-1.03789
-0.787767
-0.588135
-0.44851
-0.364116
-0.318718
-0.290877
-0.261198
-0.217762
-0.162066
-0.0990233
-0.0320158
0.0359443
0.102302
0.165383
0.224684
0.280849
0.335491
0.390884
0.449564
0.513859
0.585437
0.664956
0.751995
0.845569
0.943676
1.04459
1.14765
1.25371
1.36519
1.48562
1.61892
1.76855
1.9368
2.12375
2.3291
2.55205
2.79107
3.04378
3.30674
3.57526
3.84323
4.10062
4.33708
4.54423
4.71773
4.85837
4.97144
5.06205
5.13172
5.1816
5.20171
5.17421
5.08015
4.90638
4.64997
4.31926
3.93203
3.51289
3.08734
2.6675
2.26087
1.87317
1.508
1.16734
0.852261
0.563655
0.304221
0.0763501
-0.118159
-0.278267
-0.402623
-0.492308
-0.55247
-0.589581
-0.610123
-0.619377
-0.620734
-0.615713
-0.604578
-0.587225
-0.564335
-0.537323
-0.507786
-0.477671
-0.448981
-0.42327
-0.401075
-0.38175
-0.363528
-0.343891
-0.320191
-0.290401
-0.253672
-0.209944
-0.1628
-0.117178
-0.0778222
-0.047779
-0.027537
-0.0151387
-0.00715766
-7.40528e-005
0.00849853
0.0190316
0.0311045
0.0440403
0.0572123
0.0704571
0.0843
0.0999376
0.118993
0.143116
0.17354
0.210664
0.254038
0.302689
0.35449
0.406992
0.458683
0.509749
0.562362
0.620303
0.687967
0.775564
0.891496
1.02607
1.16049
1.27408
1.35058
1.3806
1.36069
1.2913
1.17649
1.02539
0.855346
0.682884
0.522828
0.383381
0.261282
0.150634
0.0516351
-0.0321066
-0.0964022
-0.133503
-0.134158
-0.0907053
0
0.129801
0.294267
0.484431
0.779579
1.20699
1.94933
3.14002
4.71796
6.35089
7.51454
7.72797
6.81834
5.03312
2.91378
1.01513
-0.33381
-1.08463
-1.26254
-1.12563
-0.916681
-0.660167
-0.412288
-0.233933
-0.142803
-0.0961805
-0.0687179
-0.0512642
-0.0397893
-0.0308681
-0.0214521
-0.00900523
0.00852302
0.032804
0.0652202
0.106895
0.158625
0.220717
0.292787
0.373594
0.461014
0.552255
0.644184
0.733803
0.819107
0.899681
0.977029
1.05454
1.13706
1.23019
1.33946
1.46941
1.62232
1.79875
1.99788
2.21715
2.45264
2.69937
2.95176
3.20391
3.44998
3.68436
3.90141
4.09567
4.26284
4.39953
4.50296
4.57068
4.59997
4.58687
4.52824
4.4209
4.26247
4.0523
3.79252
3.48858
3.14921
2.78575
2.411
2.03697
1.67348
1.32841
1.00747
0.714469
0.451732
0.220614
0.0218402
-0.144406
-0.278611
-0.381605
-0.452982
-0.491218
-0.501323
-0.49855
-0.498074
-0.511117
-0.541535
-0.584237
-0.626265
-0.650424
-0.640336
-0.588271
-0.49598
-0.341394
-0.124603
0.101841
0.284124
0.381938
0.379805
0.293654
0.168224
0.0619209
0.0224687
0.0620364
0.136255
0.219481
0.299471
0.36705
0.417958
0.453241
0.478144
0.499919
0.525265
0.557632
0.597912
0.643247
0.687476
0.724086
0.748666
0.760606
0.76351
0.76423
0.770917
0.790791
0.826823
0.877467
0.939983
1.01196
1.08989
1.16775
1.23757
1.29176
1.32413
1.33066
1.31006
1.26365
1.19466
1.10712
1.00484
0.891971
0.771735
0.6456
0.514275
0.380115
0.24966
0.134195
0.0467804
0
0.00846977
0.0711221
0.185846
0.344839
0.536439
0.747534
0.979278
1.23484
1.65486
2.38287
3.47543
4.79316
5.96795
6.51458
6.07022
4.62902
2.6032
0.639229
-0.707851
-1.2325
-1.056
-0.898433
-0.751766
-0.624271
-0.52235
-0.449774
-0.407466
-0.393704
-0.404527
-0.434198
-0.47529
-0.520415
-0.562702
-0.596477
-0.618428
-0.627817
-0.625277
-0.613439
-0.595618
-0.574722
-0.552403
-0.528697
-0.502229
-0.470823
-0.432249
-0.38532
-0.329699
-0.265189
-0.191619
-0.108799
-0.0164077
0.0859591
0.198579
0.321359
0.453677
0.594464
0.742194
0.895231
1.05203
1.21119
1.3713
1.5307
1.68717
1.83793
1.9797
2.10894
2.22205
2.31502
2.38175
2.41662
2.41424
2.3687
2.27433
2.12685
1.92465
1.66971
1.36786
1.02825
0.663713
0.286469
-0.094015
-0.469862
-0.834626
-1.18316
-1.51131
-1.81555
-2.0931
-2.34199
-2.56126
-2.75104
-2.91108
-3.03823
-3.1299
-3.18837
-3.21531
-3.2125
-3.18299
-3.13178
-3.06554
-2.99126
-2.91446
-2.83765
-2.7603
-2.68028
-2.59487
-2.50193
-2.40111
-2.29414
-2.18365
-2.07341
-1.96822
-1.87304
-1.79108
-1.72339
-1.66854
-1.62271
-1.58039
-1.53544
-1.48257
-1.41726
-1.33665
-1.24718
-1.16077
-1.0901
-1.04437
-1.02616
-1.03049
-1.046
-1.05776
-1.05103
-1.01873
-0.961874
-0.884514
-0.789285
-0.68157
-0.569238
-0.459309
-0.356234
-0.261031
-0.171591
-0.084045
0.00542806
0.0994136
0.195142
0.284298
0.356346
0.402301
0.417718
0.403858
0.366818
0.315144
0.256915
0.197509
0.138656
0.0801219
0.0214644
-0.0371408
-0.0934131
-0.142687
-0.179097
-0.197507
-0.195242
-0.172889
-0.133933
-0.0836747
-0.0273129
0
0.304117
1.08971
2.4207
4.14984
5.90784
7.18895
7.52911
6.71719
4.92161
2.64153
0.491517
-1.05718
-1.82565
-1.87367
-1.40137
-0.835786
-0.239428
0.251563
0.47698
0.584542
0.581626
0.493671
0.36794
0.261327
0.226956
0.271818
0.367166
0.502348
0.667082
0.834322
0.976549
1.07467
1.12418
1.13589
1.13108
1.1334
1.1613
1.21598
1.29076
1.38226
1.48924
1.61087
1.74676
1.897
2.06186
2.24139
2.43502
2.6412
2.85736
3.08005
3.3051
3.52809
3.7448
3.95175
4.14663
4.32852
4.49767
4.65445
4.79934
4.93305
5.05478
5.15927
5.23696
5.27483
5.25914
5.17819
5.02476
4.79796
4.50377
4.15414
3.76473
3.3549
2.93888
2.52418
2.11651
1.72149
1.34472
0.991608
0.667037
0.374731
0.116775
-0.106275
-0.295963
-0.456974
-0.595046
-0.715699
-0.822996
-0.917417
-0.997329
-1.05901
-1.09786
-1.10666
-1.06953
-0.996319
-0.911774
-0.842592
-0.806949
-0.807728
-0.832386
-0.859142
-0.866263
-0.840146
-0.789087
-0.723583
-0.649498
-0.571492
-0.493968
-0.420629
-0.354169
-0.29618
-0.247202
-0.206883
-0.174196
-0.147659
-0.125559
-0.10616
-0.0878796
-0.0694342
-0.0499435
-0.0289809
-0.00656481
0.0169296
0.0408589
0.0644688
0.0870888
0.108248
0.127695
0.145321
0.160929
0.174113
0.184637
0.19259
0.198874
0.205594
0.216057
0.234238
0.263822
0.307181
0.364747
0.43382
0.512066
0.596909
0.686133
0.778046
0.871381
0.963436
1.04837
1.11794
1.16368
1.17996
1.16629
1.12742
1.07112
1.00468
0.931741
0.852506
0.765013
0.657855
0.501366
0.288076
0.0668531
-0.0908724
-0.121422
0
0.230434
0.504199
0.734497
0.873524
0.967211
0.648329
0.554705
1.13008
2.55988
4.68472
7.00568
8.84462
9.59689
8.977
7.1405
4.61987
2.10359
0.168926
-0.894373
-1.10523
-0.614983
-0.0280643
0.490001
0.849887
0.9965
1.0579
1.05565
1.02105
0.987354
0.98126
1.01198
1.06785
1.141
1.22719
1.32224
1.42212
1.52358
1.62446
1.72386
1.82201
1.91993
2.01904
2.12071
2.22595
2.3353
2.44882
2.56629
2.68749
2.81236
2.94113
3.0743
3.21256
3.35668
3.50743
3.66555
3.83173
4.00658
4.19052
4.38371
4.58584
4.79613
5.01333
5.23588
5.46212
5.69062
5.91993
6.14641
6.36034
6.54486
6.6769
6.73528
6.70948
6.60207
6.42297
6.1793
5.86969
5.49736
5.0866
4.65852
4.22743
3.80489
3.40086
3.02405
2.68081
2.3732
2.09957
1.85556
1.63544
1.43381
1.24871
1.08214
0.938492
0.823819
0.743975
0.701425
0.693237
0.711033
0.742897
0.776543
0.802482
0.816704
0.819181
0.813076
0.802853
0.792626
0.784863
0.780809
0.78131
0.786776
0.797173
0.811871
0.829499
0.847964
0.864851
0.877842
0.88524
0.886337
0.881499
0.871946
0.85933
0.845289
0.831148
0.817833
0.806021
0.796349
0.789534
0.786322
0.787222
0.792559
0.801351
0.810297
0.814449
0.808836
0.790177
0.758263
0.716423
0.670806
0.628637
0.596016
0.575426
0.56665
0.565953
0.567428
0.565494
0.557107
0.543207
0.528919
0.522368
0.532406
0.565864
0.623364
0.700364
0.79307
0.889532
0.976344
1.04162
1.07724
1.07965
1.04931
0.98927
0.903646
0.797528
0.678121
0.550977
0.420675
0.292435
0.172683
0.0683678
-0.0148777
-0.0733723
-0.106112
-0.115035
-0.104714
-0.0815201
-0.0524368
-0.0237759
0
-0.0073658
-0.100225
0.222352
1.17251
2.75882
4.72389
6.57339
7.71031
7.65943
6.30128
3.98306
1.40569
-0.685513
-1.83968
-2.06689
-1.78459
-1.57785
-1.40757
-1.27848
-1.18344
-1.09969
-1.01884
-0.937899
-0.855586
-0.772179
-0.689331
-0.609295
-0.533981
-0.464281
-0.399829
-0.339241
-0.280697
-0.222557
-0.163708
-0.103474
-0.0411095
0.0248417
0.096973
0.178919
0.274635
0.38722
0.517691
0.667544
0.832264
1.00128
1.16501
1.31914
1.46702
1.61912
1.78951
1.99102
2.23083
2.50053
2.7901
3.09251
3.40036
3.70642
4.00453
4.29021
4.56068
4.81376
5.04572
5.25113
5.42636
5.56859
5.66872
5.71422
5.6936
5.59972
5.43096
5.19076
4.88641
4.5311
4.14509
3.74319
3.33454
2.92528
2.52114
2.12819
1.75278
1.40139
1.08007
0.794511
0.556211
0.388893
0.293439
0.241151
0.197563
0.134329
0.0395817
-0.078096
-0.194321
-0.280168
-0.314785
-0.310695
-0.272862
-0.211855
-0.140444
-0.0698063
-0.00541115
0.0510185
0.101272
0.149315
0.199381
0.254115
0.313531
0.374457
0.431776
0.480312
0.516766
0.541036
0.556517
0.569365
0.587062
0.615946
0.669451
0.765416
0.888692
1.00579
1.0802
1.08839
1.03181
0.938191
0.849985
0.804839
0.817844
0.859748
0.912053
0.953815
0.969051
0.952129
0.909248
0.85573
0.810537
0.790322
0.798674
0.829415
0.877221
0.938508
1.00978
1.08674
1.16392
1.23632
1.29997
1.35228
1.39199
1.41888
1.43316
1.43496
1.42398
1.39944
1.36028
1.30566
1.23539
1.15033
1.05257
0.945552
0.833615
0.720959
0.611502
0.508532
0.414335
0.330014
0.25556
0.190147
0.133002
0.0829689
0.038908
0
-0.0585064
-0.104601
0.207359
0.764073
1.57381
2.6994
4.14921
5.7419
7.05031
7.52992
6.80236
4.92063
2.42121
0.0944881
-1.4017
-1.8445
-1.47628
-0.999508
-0.636033
-0.451733
-0.428891
-0.445815
-0.473345
-0.508028
-0.547496
-0.590024
-0.633668
-0.675565
-0.711726
-0.737476
-0.74843
-0.741666
-0.718426
-0.681959
-0.63588
-0.584737
-0.534011
-0.48884
-0.452908
-0.427711
-0.41219
-0.402781
-0.393869
-0.378557
-0.349599
-0.300306
-0.22562
-0.122547
0.0101608
0.172832
0.365191
0.586241
0.83434
1.10717
1.40168
1.71405
2.03986
2.37446
2.7134
3.05297
3.39049
3.72376
4.04977
4.36516
4.66496
4.93285
5.14486
5.28637
5.34452
5.30219
5.14102
4.85364
4.45623
3.99117
3.51463
3.06562
2.64267
2.23653
1.84419
1.46838
1.11257
0.780302
0.474736
0.198136
-0.0485504
-0.265291
-0.453021
-0.615913
-0.758776
-0.886075
-1.00097
-1.10465
-1.19741
-1.27861
-1.34763
-1.40422
-1.44952
-1.48536
-1.51355
-1.53532
-1.55098
-1.56014
-1.56214
-1.55652
-1.54396
-1.5248
-1.49909
-1.46676
-1.42769
-1.38201
-1.33042
-1.27452
-1.21687
-1.16107
-1.11125
-1.07166
-1.04618
-1.03767
-1.04723
-1.07431
-1.11682
-1.17106
-1.23193
-1.2933
-1.34852
-1.39133
-1.41694
-1.41531
-1.37626
-1.31281
-1.25122
-1.21802
-1.22963
-1.28515
-1.36494
-1.43564
-1.45977
-1.4069
-1.28539
-1.11767
-0.917028
-0.691631
-0.449639
-0.199921
0.0448318
0.267876
0.453481
0.592349
0.679615
0.714513
0.700092
0.643093
0.553823
0.445683
0.33391
0.233147
0.15267
0.094397
0.0567184
0.0373871
0.028125
0.0188347
0
-0.0348518
-0.0891525
-0.161989
-0.249266
-0.344883
-0.442196
-0.376862
-0.0148544
0.707796
1.89318
3.55682
5.5077
7.29368
8.31048
8.07301
6.50802
4.06195
1.51926
-0.375799
-1.26075
-1.25188
-0.836918
-0.616375
-0.430929
-0.287498
-0.180042
-0.0854332
-0.000234222
0.0775917
0.147011
0.202399
0.23792
0.252486
0.252701
0.252081
0.266628
0.308628
0.380796
0.471252
0.570449
0.667468
0.753439
0.824181
0.881174
0.930572
0.980853
1.04001
1.11299
1.1993
1.29749
1.40685
1.52695
1.65793
1.80061
1.95622
2.12588
2.31002
2.5079
2.71737
2.93508
3.15688
3.37846
3.59608
3.80721
4.01078
4.20628
4.39318
4.58267
4.848
5.20855
5.57265
5.83934
5.93691
5.83943
5.56176
5.14663
4.66063
4.21066
3.90139
3.67885
3.48737
3.30912
3.13901
2.97305
2.80761
2.63977
2.46751
2.2897
2.10613
1.91746
1.7253
1.53218
1.34149
1.15728
0.983836
0.825118
0.684133
0.562417
0.459874
0.374831
0.303755
0.242028
0.185031
0.129054
0.0717491
0.0133415
-0.0417694
-0.0865746
-0.113849
-0.118531
-0.0993225
-0.059066
-0.00386276
0.0585754
0.120682
0.176954
0.224911
0.262986
0.289376
0.302988
0.303395
0.291037
0.267455
0.235392
0.198642
0.16162
0.128717
0.103378
0.0877914
0.0828064
0.0875877
0.100006
0.117104
0.135637
0.152534
0.165339
0.172597
0.174013
0.17044
0.163683
0.156102
0.150056
0.147342
0.148943
0.154179
0.1609
0.166386
0.168407
0.166265
0.16148
0.15789
0.161102
0.177403
0.211797
0.266339
0.341054
0.435366
0.546863
0.667092
0.784808
0.888873
0.969842
1.02091
1.03821
1.02063
0.969564
0.888748
0.785205
0.667487
0.544157
0.423419
0.311972
0.214421
0.136256
0.0774117
0.0355804
0.00779877
-0.00786209
-0.0112282
0
0.0435944
0.108195
0.194497
0.302528
0.522327
0.92817
1.51714
2.46716
3.85354
5.51561
7.02609
7.82383
7.47808
5.94473
3.64138
1.27231
-0.49824
-1.33262
-1.30053
-1.01761
-0.764901
-0.566586
-0.434003
-0.364278
-0.343054
-0.349762
-0.363217
-0.366277
-0.35358
-0.324967
-0.28084
-0.222449
-0.151643
-0.0717369
0.0118179
0.0933617
0.168342
0.234215
0.290886
0.340556
0.387025
0.434699
0.487575
0.547971
0.616547
0.693287
0.777917
0.870207
0.970092
1.07815
1.19572
1.3247
1.46721
1.62506
1.79928
1.9898
2.19539
2.41366
2.6419
2.87726
3.11692
3.35841
3.59885
3.83447
4.06051
4.27028
4.45386
4.60117
4.70522
4.75809
4.75166
4.68001
4.54181
4.34063
4.08263
3.77353
3.42363
3.0485
2.65857
2.25939
1.85655
1.45705
1.06881
0.699877
0.357378
0.0471405
-0.22617
-0.46249
-0.664179
-0.835014
-0.979038
-1.09967
-1.19938
-1.27828
-1.33277
-1.36528
-1.38493
-1.40277
-1.42812
-1.46462
-1.50817
-1.54789
-1.57004
-1.56325
-1.52892
-1.46641
-1.38348
-1.29422
-1.21283
-1.14937
-1.10726
-1.083
-1.06811
-1.05247
-1.02779
-0.991731
-0.946872
-0.896296
-0.845483
-0.80116
-0.769889
-0.757018
-0.765852
-0.797086
-0.848483
-0.914889
-0.988624
-1.06034
-1.12096
-1.16408
-1.18285
-1.16458
-1.10188
-1.00668
-0.90154
-0.809686
-0.749024
-0.72847
-0.747163
-0.795947
-0.860201
-0.923208
-0.97108
-0.997306
-1.00084
-0.982787
-0.943995
-0.883738
-0.801217
-0.695888
-0.567904
-0.417916
-0.247485
-0.059124
0.144806
0.359453
0.576334
0.78374
0.967489
1.11521
1.21903
1.27422
1.27964
1.23855
1.15952
1.0561
0.944698
0.840762
0.752481
0.678207
0.61369
0.555872
0.500921
0.445311
0.386685
0.32428
0.258804
0.191918
0.125523
0.0610172
0
-0.00854721
0.147866
0.692657
1.82545
3.53584
5.52394
7.24963
8.1122
7.70162
6.01033
3.48864
0.884201
-1.07688
-1.99951
-1.94991
-1.51205
-1.12887
-0.838559
-0.651291
-0.546233
-0.462011
-0.387661
-0.316804
-0.246584
-0.179642
-0.121643
-0.0778259
-0.050106
-0.0357346
-0.0278099
-0.0172493
0.00460281
0.0415676
0.0930328
0.157105
0.231684
0.314742
0.404475
0.499865
0.600991
0.709016
0.82583
0.953491
1.09362
1.24694
1.41304
1.59069
1.77821
1.97392
2.17655
2.38542
2.60032
2.82109
3.04716
3.27703
3.50801
3.73617
3.95639
4.16233
4.3479
4.50842
4.64086
4.74393
4.81783
4.8637
4.88272
4.87537
4.84085
4.77783
4.68463
4.5579
4.39432
4.19186
3.95081
3.67468
3.37059
3.04809
2.71889
2.3954
2.08935
1.8125
1.57484
1.37526
1.20715
1.06127
0.929097
0.805611
0.690888
0.589298
0.507579
0.451891
0.425239
0.426197
0.449248
0.486499
0.529993
0.573729
0.61488
0.6531
0.689711
0.726559
0.764899
0.804921
0.846047
0.88698
0.92626
0.962733
0.995807
1.02545
1.05195
1.07549
1.09622
1.11413
1.12923
1.14183
1.15259
1.16233
1.17148
1.17944
1.18417
1.18235
1.17032
1.14549
1.10758
1.05944
1.00685
0.957496
0.919295
0.897558
0.903814
0.943306
0.997945
1.04242
1.05384
1.02134
0.951663
0.868024
0.80218
0.782784
0.821431
0.940508
1.10311
1.25664
1.35552
1.37923
1.3387
1.26965
1.21632
1.21291
1.26091
1.35791
1.47098
1.55688
1.57519
1.50024
1.33006
1.08987
0.826984
0.595891
0.432265
0.319043
0.235716
0.177563
0.138032
0.110249
0.0882803
0.0678883
0.0467384
0.0241465
0
0.047809
0.357207
1.18214
2.67182
4.69586
6.79825
8.32926
8.71353
7.72434
5.61275
3.01449
0.676737
-0.855134
-1.427
-1.25419
-0.905287
-0.59058
-0.333793
-0.142049
0.00524273
0.124522
0.216443
0.28056
0.317115
0.329321
0.324654
0.314126
0.309659
0.320812
0.35087
0.395693
0.451802
0.517678
0.59184
0.673044
0.760159
0.851859
0.946756
1.04235
1.13609
1.2263
1.31304
1.39849
1.48669
1.58268
1.69143
1.81702
1.9604
2.1214
2.30052
2.49795
2.71322
2.94485
3.19
3.44412
3.70105
3.95325
4.19167
4.40854
4.59822
4.75789
4.88755
4.98914
5.06489
5.11175
5.12799
5.10873
5.04619
4.93178
4.75864
4.52387
4.22983
3.8843
3.49952
3.09457
2.68348
2.27675
1.88361
1.51166
1.16674
0.853096
0.573615
0.330094
0.123358
-0.0467226
-0.181339
-0.282859
-0.354644
-0.400659
-0.425818
-0.436435
-0.439042
-0.43929
-0.441313
-0.447263
-0.457116
-0.468796
-0.478634
-0.482089
-0.474704
-0.452908
-0.414791
-0.360337
-0.290251
-0.208271
-0.12262
-0.0443791
0.0163522
0.052456
0.0611921
0.0447537
0.00984426
-0.0336711
-0.0747644
-0.103481
-0.115657
-0.112334
-0.0898604
-0.049277
-0.00291257
0.0350665
0.0535935
0.0489268
0.0260468
-0.00390286
-0.0292804
-0.0439908
-0.0506822
-0.059012
-0.0799486
-0.118795
-0.170536
-0.21984
-0.245728
-0.187446
-0.00846419
0.227908
0.425746
0.508483
0.454755
0.303667
0.132337
0.019977
0.0135658
0.0684202
0.142012
0.220054
0.289898
0.34223
0.373186
0.385244
0.386608
0.389519
0.432573
0.618881
0.931119
1.25586
1.48104
1.53395
1.39637
1.10196
0.725518
0.372234
0.160151
0.0749865
0.0379313
0.0178541
0.00709815
0
-0.00680418
-0.0163466
-0.0288693
-0.043154
-0.0572963
-0.0695468
-0.0789592
-0.0829238
0.0570226
0.437741
1.17691
2.40307
4.10648
6.02389
7.63897
8.359
7.80506
6.04506
3.60633
1.23552
-0.455461
-1.24314
-1.30569
-1.16015
-1.02888
-0.914518
-0.821748
-0.752
-0.700528
-0.663756
-0.636835
-0.614527
-0.592079
-0.565883
-0.53391
-0.495466
-0.45056
-0.399456
-0.342208
-0.278468
-0.207698
-0.128537
-0.0388906
0.0559375
0.145734
0.220438
0.275598
0.316306
0.357158
0.417588
0.514275
0.653959
0.821313
1.00474
1.19043
1.36637
1.52646
1.67287
1.81584
1.97104
2.15533
2.38227
2.65163
2.95581
3.29535
3.67832
4.07712
4.43802
4.7142
4.87874
4.9317
4.899
4.82245
4.74321
4.68412
4.63575
4.57739
4.48675
4.34213
4.12824
3.8407
3.48739
3.08635
2.66054
2.2321
1.81193
1.40608
1.01845
0.651034
0.304975
-0.0183635
-0.316745
-0.586961
-0.823259
-1.00993
-1.11605
-1.13348
-1.09947
-1.06051
-1.05495
-1.09852
-1.17918
-1.26419
-1.31649
-1.31267
-1.26573
-1.2007
-1.12898
-1.0578
-0.993071
-0.938635
-0.896098
-0.865136
-0.844087
-0.830583
-0.821993
-0.816073
-0.810957
-0.805107
-0.797259
-0.786363
-0.771578
-0.752324
-0.728351
-0.699767
-0.667143
-0.631764
-0.595563
-0.560945
-0.530705
-0.507911
-0.495093
-0.493744
-0.503954
-0.524034
-0.55038
-0.577677
-0.599492
-0.609193
-0.595918
-0.541937
-0.433699
-0.28563
-0.136381
-0.024126
0.0234511
-0.00460625
-0.0982445
-0.224855
-0.334722
-0.377203
-0.331276
-0.228783
-0.103562
0.028045
0.155955
0.272162
0.371656
0.452528
0.515346
0.562093
0.595029
0.616715
0.627763
0.627639
0.615487
0.590401
0.552022
0.501014
0.439313
0.370078
0.297367
0.225623
0.158993
0.100673
0.0531306
0.0178321
-0.00468738
-0.0146355
-0.0127326
0
0.0345544
0.0775069
0.127506
0.184699
0.285961
0.541928
1.09385
2.1774
3.89092
6.01189
7.96719
9.03613
8.70559
6.97097
4.38094
1.77863
-0.110215
-0.990361
-1.03571
-0.781085
-0.544602
-0.336669
-0.166132
-0.0367041
0.0672966
0.15133
0.219129
0.275055
0.323529
0.368504
0.413075
0.459312
0.508225
0.560364
0.616035
0.675527
0.739252
0.807784
0.881823
0.962007
1.04893
1.14324
1.24554
1.35628
1.47583
1.60448
1.74244
1.88999
2.0475
2.21543
2.39421
2.58419
2.78543
2.9976
3.21981
3.45051
3.68743
3.92764
4.16766
4.40367
4.63176
4.84819
5.04959
5.2327
5.39472
5.53388
5.64901
5.73917
5.80337
5.84016
5.84735
5.82175
5.75931
5.65558
5.50744
5.31351
5.0743
4.79292
4.47565
4.13163
3.77188
3.40782
3.04994
2.70667
2.38379
2.08451
1.8099
1.55971
1.33305
1.12885
0.945977
0.783088
0.638364
0.509349
0.39298
0.285959
0.185316
0.089002
-0.00369377
-0.0920822
-0.174434
-0.248478
-0.311434
-0.361697
-0.402013
-0.437369
-0.473508
-0.51507
-0.564087
-0.619432
-0.677446
-0.733518
-0.784071
-0.828744
-0.86883
-0.908057
-0.951321
-1.0032
-1.06647
-1.14113
-1.22413
-1.30986
-1.39137
-1.46266
-1.51888
-1.55299
-1.56178
-1.55331
-1.53902
-1.52963
-1.5314
-1.54394
-1.56049
-1.57068
-1.56463
-1.5379
-1.49315
-1.4347
-1.37154
-1.31265
-1.26368
-1.22481
-1.19064
-1.15197
-1.09892
-1.02413
-0.928748
-0.818008
-0.694393
-0.563669
-0.435471
-0.321974
-0.233401
-0.176744
-0.154726
-0.165264
-0.201713
-0.254176
-0.311779
-0.365307
-0.409767
-0.445735
-0.475483
-0.500254
-0.520617
-0.536297
-0.545998
-0.547631
-0.538879
-0.517935
-0.484367
-0.439143
-0.384868
-0.322877
-0.233585
0
0.593086
1.74961
3.40239
5.19587
6.58097
7.04005
6.33655
4.65036
2.51311
0.572062
-0.687108
-1.11081
-0.870879
-0.619686
-0.425161
-0.259728
-0.127905
-0.0284954
0.0431351
0.0942738
0.133098
0.167121
0.202114
0.241523
0.287644
0.341933
0.405239
0.477915
0.559765
0.649928
0.746813
0.848156
0.951422
1.05417
1.15443
1.25108
1.34401
1.43416
1.52334
1.61396
1.70882
1.81079
1.92272
2.04734
2.18727
2.3449
2.5223
2.72098
2.94177
3.18469
3.44895
3.73315
4.03546
4.3537
4.68531
5.02722
5.37565
5.72603
6.0732
6.41143
6.7342
7.03399
7.30114
7.52319
7.69175
7.81553
7.9
7.92499
7.85462
7.65415
7.30769
6.83144
6.27742
5.72457
5.24469
4.83198
4.4604
4.12666
3.83219
3.57607
3.35625
3.16868
3.00905
2.87523
2.76569
2.67963
2.61778
2.58158
2.5723
2.59019
2.63406
2.70121
2.78774
2.88807
2.99755
3.11282
3.23133
3.35142
3.47232
3.5938
3.71588
3.83838
3.96062
4.0813
4.19853
4.3101
4.4138
4.50776
4.59068
4.66207
4.72246
4.77317
4.81598
4.85279
4.88515
4.91369
4.93825
4.95824
4.97297
4.98229
4.98707
4.98915
4.99083
4.99403
4.99954
5.00655
5.0133
5.01758
5.01715
5.01024
4.99581
4.97346
4.94315
4.90426
4.85453
4.79127
4.71182
4.61394
4.49726
4.36457
4.22217
4.07921
3.94599
3.83407
3.76089
3.73104
3.72368
3.70912
3.65876
3.55296
3.38457
3.15828
2.88742
2.59018
2.28704
1.99193
1.70979
1.44266
1.1925
0.959769
0.743475
0.543662
0.363213
0.20682
0.0811081
0
-0.0192139
0.0344399
0.162708
0.355257
0.592052
0.907365
1.22171
1.7158
2.62081
4.03272
5.77007
7.35846
8.19861
7.86286
6.35598
4.15996
2.0056
0.504467
-0.127462
-0.091893
-0.0464035
-0.0405212
-0.0543381
-0.0883347
-0.138515
-0.197874
-0.258521
-0.313776
-0.361092
-0.400295
-0.4315
-0.455437
-0.472934
-0.484405
-0.489494
-0.486975
-0.474875
-0.45078
-0.412383
-0.357948
-0.28634
-0.197342
-0.0918495
0.0282478
0.160369
0.301731
0.449918
0.603394
0.761839
0.926203
1.09845
1.28109
1.47656
1.68674
1.91259
2.15411
2.41048
2.68031
2.96187
3.25314
3.5517
3.85445
4.15739
4.45545
4.74153
5.00551
5.23996
5.43961
5.60244
5.73003
5.82674
5.89796
5.94249
5.95765
5.93574
5.86294
5.72404
5.50852
5.21577
4.85768
4.45751
4.04532
3.64736
3.27407
2.93495
2.63384
2.36877
2.13438
1.93312
1.76014
1.60373
1.49101
1.47574
1.60834
1.90611
2.33921
2.83886
3.32241
3.72217
4.06971
4.37821
4.64296
4.86208
5.03658
5.17008
5.26702
5.33232
5.37116
5.3887
5.38971
5.37806
5.35628
5.32522
5.28454
5.23319
5.16953
5.09186
4.99948
4.89321
4.77555
4.65066
4.52384
4.40065
4.28614
4.18489
4.10176
4.0366
3.98159
3.92621
3.8606
3.7785
3.67893
3.56568
3.44518
3.32348
3.20364
3.08547
2.96777
2.84858
2.72585
2.5981
2.46473
2.32614
2.18354
2.03845
1.89242
1.74676
1.60255
1.4608
1.3228
1.19041
1.06621
0.953194
0.85483
0.776913
0.725283
0.694432
0.674533
0.654414
0.625126
0.582441
0.527046
0.462444
0.391722
0.315047
0.231415
0.137827
0.0315109
-0.0888802
-0.225334
-0.36841
-0.496366
-0.585924
-0.619714
-0.591713
-0.508826
-0.388163
-0.25126
-0.117801
0
-0.0331581
-0.0508766
0.449174
1.674
3.54174
5.64813
7.37113
8.09392
7.46583
5.58515
2.99442
0.460832
-1.35995
-2.19352
-2.19399
-1.88119
-1.58972
-1.335
-1.12195
-0.946537
-0.787249
-0.640642
-0.50851
-0.393557
-0.300459
-0.233451
-0.193837
-0.178553
-0.18049
-0.190446
-0.199865
-0.203215
-0.200141
-0.192194
-0.180423
-0.165456
-0.147429
-0.125823
-0.0995304
-0.0670715
-0.0268459
0.0228325
0.0837528
0.157942
0.24778
0.355935
0.484856
0.636701
0.812569
1.01204
1.23259
1.47061
1.72145
1.98008
2.24195
2.50351
2.7625
3.01792
3.26979
3.51848
3.76389
4.00478
4.23766
4.45617
4.65122
4.81125
4.92603
4.98579
4.97978
4.89702
4.72901
4.47377
4.13906
3.74325
3.31309
2.87995
2.46134
2.06551
1.7024
1.37976
1.10271
0.874236
0.694582
0.56001
0.464127
0.398901
0.355637
0.325934
0.302517
0.279809
0.254226
0.224213
0.190079
0.153585
0.1175
0.0850319
0.0592808
0.0429211
0.0383911
0.0475243
0.0692444
0.0996075
0.133508
0.165789
0.192305
0.210625
0.220228
0.222207
0.218669
0.212212
0.205118
0.199126
0.195671
0.19604
0.201441
0.213052
0.231877
0.258952
0.294897
0.338043
0.383561
0.425466
0.458082
0.477593
0.483139
0.477054
0.464176
0.450495
0.441583
0.440468
0.447813
0.463361
0.4867
0.51692
0.552932
0.593676
0.638454
0.686892
0.739026
0.795269
0.856304
0.92288
0.99595
1.07628
1.16341
1.25371
1.33888
1.40802
1.45006
1.45628
1.42225
1.34892
1.24238
1.11259
0.971505
0.83102
0.698519
0.577168
0.469306
0.376861
0.300348
0.238849
0.190367
0.152194
0.12137
0.0951002
0.0710974
0.0477636
0.0242083
0
-0.0279837
0.136429
0.685631
1.77063
3.36649
5.18093
6.68145
7.28292
6.63007
4.81613
2.38458
0.0840836
-1.48481
-2.11685
-1.98913
-1.53785
-1.1014
-0.7522
-0.533252
-0.414082
-0.310346
-0.20765
-0.102803
0.0054863
0.117153
0.230603
0.342657
0.449456
0.547651
0.635417
0.713105
0.78333
0.850453
0.919557
0.995212
1.08036
1.17553
1.27873
1.38687
1.49619
1.60349
1.707
1.80685
1.90495
2.00446
2.10891
2.2214
2.34373
2.47651
2.61958
2.77206
2.93275
3.10037
3.27393
3.45287
3.63717
3.82736
4.02436
4.2292
4.44309
4.67016
4.91342
5.15927
5.38045
5.54847
5.64339
5.65968
5.60541
5.49592
5.34521
5.1593
4.94013
4.69157
4.41756
4.12166
3.80796
3.48192
3.15055
2.82227
2.50617
2.21078
1.94284
1.7074
1.50897
1.34588
1.20962
1.0898
0.976696
0.86369
0.750389
0.647443
0.570941
0.534645
0.543618
0.591866
0.664566
0.743429
0.812691
0.867696
0.911083
0.944994
0.971959
0.995381
1.01883
1.04557
1.07832
1.11848
1.16382
1.20639
1.23547
1.24129
1.21861
1.1693
1.10302
1.03528
0.98321
0.96036
0.96927
1.01454
1.08142
1.14741
1.19084
1.1976
1.1648
1.10093
1.02256
0.948953
0.896091
0.867836
0.85867
0.862128
0.873633
0.889735
0.907511
0.924871
0.940754
0.955101
0.968678
0.982835
0.999241
1.01967
1.04579
1.07894
1.1202
1.17091
1.23165
1.29748
1.35753
1.3993
1.41205
1.38976
1.33264
1.24645
1.14021
1.02342
0.904149
0.786901
0.673525
0.565189
0.463073
0.368556
0.283044
0.207628
0.143184
0.0902966
0.0491325
0.0193375
0
-0.0103207
-0.013509
-0.00435791
0.164931
0.56452
1.25563
2.31019
3.72199
5.30326
6.64395
7.22105
6.64603
4.91476
2.48442
0.0936455
-1.58489
-2.2542
-2.07022
-1.61228
-1.22795
-0.966892
-0.811863
-0.70318
-0.613696
-0.549364
-0.515491
-0.513624
-0.53937
-0.58246
-0.629285
-0.666845
-0.686404
-0.690523
-0.683721
136
310
483
651
822
988
1148
1308
1478
1650
1821
1988
2166
2343
2513
2690
2867
3037
3210
3385
3555
3726
3540
3709
3409
3556
3701
0
0
0
0
0
0
0
0
0
0
0
0
0
0
0
0
0
0
0
0
0
0
0
0
0
0
0
0
0
0
0
0
0
0
0
0
0
0
0
0
0
0
0
0
0
0
0
0
0
0
0
0
0
0
0
0
0
0
0
0
0
0
0
0
0
0
0
0
0
0
0
0
0
0
0
0
0
0
0
0
0
0
0
0
0
0
0
0
0
0
0
0
0
0
0
0
0
0
0
0
0
0
0
0
0
0
0
0
0
0
0
0
0
0
0
0
0
0
0
0
0
0
0
0
0
0
0
0
0
0
0
0
0
0
0
0
0
0
0
0
0
0
0
0
0
0
0
0
0
0
0
0
0
0
0
0
0
0
0
0
0
0
0
0
0
0
0
0
0
0
0
0
0
0
0
0
0
0
0
0
0
0
0
0
0
0
0
0
0
0
0
0
0
0
0
0
0
0
0
0
0
0
0
0
0
0
0
0
0
0
0
0
0
0
0
0
0
0
0
0
0
0
0
0
0
0
0
0
0
0
0
0
0
0
0
0
0
0
0
0
0
0
0
0
0
0
0
0
0
0
0
0
0
0
0
0
0
0
0
0
0
0
0
0
0
0
0
0
0
0
0
0
0
0
0
0
0
0
0
0
0
0
0
0
0
0
0
0
0
0
0
0
0
0
0
0
0
0
0
0
0
0
0
0
0
0
0
0
0
0
0
0
0
0
0
0
0
0
0
0
0
0
0
0
0
0
0
0
0
0
0
0
0
0
0
0
0
0
0
0
0
0
0
0
0
0
0
0
0
0
0
0
0
0
0
0
0
0
0
0
0
0
0
0
0
0
0
0
0
0
0
0
0
0
0
0
0
0
0
0
0
0
0
0
0
0
0
0
0
0
0
0
0
0
0
0
0
0
0
0
0
0
0
0
0
0
0
0
0
0
0
0
0
0
0
0
0
0
0
0
0
0
0
0
0
0
0
0
0
0
0
0
0
0
0
0
0
0
0
0
0
0
0
0
0
0
0
0
0
0
0
0
0
0
0
0
0
0
0
0
0
0
0
0
0
0
0
0
0
0
0
0
0
0
0
0
0
0
0
0
0
0
0
0
0
0
0
0
0
0
0
0
0
0
0
0
0
0
0
0
0
0
0
0
0
0
0
0
0
0
0
0
0
0
0
0
0
0
0
0
0
0
0
0
0
0
0
0
0
0
0
0
0
0
0
0
0
0
0
0
0
0
0
0
0
0
0
0
0
0
0
0
0
0
0
0
0
0
0
0
0
0
0
0
0
0
0
0
0
0
0
0
0
0
0
0
0
0
0
0
0
0
0
0
0
0
0
0
0
0
0
0
0
0
0
0
0
0
0
0
0
0
0
0
0
0
0
0
0
0
0
0
0
0
0
0
0
0
0
0
0
0
0
0
0
0
0
0
0
0
0
0
0
0
0
0
0
0
0
0
0
0
0
0
0
0
0
0
0
0
0
0
0
0
0
0
0
0
0
0
0
0
0
0
0
0
0
0
0
0
0
0
0
0
0
0
0
0
0
0
0
0
0
0
0
0
0
0
0
0
0
0
0
0
0
0
0
0
0
0
0
0
0
0
0
0
0
0
0
0
0
0
0
0
0
0
0
0
0
0
0
0
0
0
0
0
0
0
0
0
0
0
0
0
0
0
0
0
0
0
0
0
0
0
0
0
0
0
0
0
0
0
0
0
0
0
0
0
0
0
0
0
0
0
0
0
0
0
0
0
0
0
0
0
0
0
0
0
0
0
0
0
0
0
0
0
0
0
0
0
0
0
0
0
0
0
0
0
0
0
0
0
0
0
0
0
0
0
0
0
0
0
0
0
0
0
0
0
0
0
0
0
0
0
0
0
0
0
0
0
0
0
0
0
0
0
0
0
0
0
0
0
0
0
0
0
0
0
0
0
0
0
0
0
0
0
0
0
0
0
0
0
0
0
0
0
0
0
0
0
0
0
0
0
0
0
0
0
0
0
0
0
0
0
0
0
0
0
0
0
0
0
0
0
0
0
0
0
0
0
0
0
0
0
0
0
0
0
0
0
0
0
0
0
0
0
0
0
0
0
0
0
0
0
0
0
0
0
0
0
0
0
0
0
0
0
0
0
0
0
0
0
0
0
0
0
0
0
0
0
0
0
0
0
0
0
0
0
0
0
0
0
0
0
0
0
0
0
0
0
0
0
0
0
0
0
0
0
0
0
0
0
0
0
0
0
0
0
0
0
0
0
0
0
0
0
0
0
0
0
0
0
0
0
0
0
0
0
0
0
0
0
0
0
0
0
0
0
0
0
0
0
0
0
0
0
0
0
0
0
0
0
0
0
0
0
0
0
0
0
0
0
0
0
0
0
0
0
0
0
0
0
0
0
0
0
0
0
0
0
0
0
0
0
0
0
0
0
0
0
0
0
0
0
0
0
0
0
0
0
0
0
0
0
0
0
0
0
0
0
0
0
0
0
0
0
0
0
0
0
0
0
0
0
0
0
0
0
0
0
0
0
0
0
0
0
0
0
0
0
0
0
0
0
0
0
0
0
0
0
0
0
0
0
0
0
0
0
0
0
0
0
0
0
0
0
0
0
0
0
0
0
0
0
0
0
0
0
0
0
0
0
0
0
0
0
0
0
0
0
0
0
0
0
0
0
0
0
0
0
0
0
0
0
0
0
0
0
0
0
0
0
0
0
0
0
0
0
0
0
0
0
0
0
0
0
0
0
0
0
0
0
0
0
0
0
0
0
0
0
0
0
0
0
0
0
0
0
0
0
0
0
0
0
0
0
0
0
0
0
0
0
0
0
0
0
0
0
0
0
0
0
0
0
0
0
0
0
0
0
0
0
0
0
0
0
0
0
0
0
0
0
0
0
0
0
0
0
0
0
0
0
0
0
0
0
0
0
0
0
0
0
0
0
0
0
0
0
0
0
0
0
0
0
0
0
0
0
0
0
0
0
0
0
0
0
0
0
0
0
0
0
0
0
0
0
0
0
0
0
0
0
0
0
0
0
0
0
0
0
0
0
0
0
0
0
0
0
0
0
0
0
0
0
0
0
0
0
0
0
0
0
0
0
0
0
0
0
0
0
0
0
0
0
0
0
0
0
0
0
0
0
0
0
0
0
0
0
0
0
0
0
0
0
0
0
0
0
0
0
0
0
0
0
0
0
0
0
0
0
0
0
0
0
0
0
0
0
0
0
0
0
0
0
0
0
0
0
0
0
0
0
0
0
0
0
0
0
0
0
0
0
0
0
0
0
0
0
0
0
0
0
0
0
0
0
0
0
0
0
0
0
0
0
0
0
0
0
0
0
0
0
0
0
0
0
0
0
0
0
0
0
0
0
0
0
0
0
0
0
0
0
0
0
0
0
0
0
0
0
0
0
0
0
0
0
0
0
0
0
0
0
0
0
0
0
0
0
0
0
0
0
0
0
0
0
0
0
0
0
0
0
0
0
0
0
0
0
0
0
0
0
0
0
0
0
0
0
0
0
0
0
0
0
0
0
0
0
0
0
0
0
0
0
0
0
0
0
0
0
0
0
0
0
0
0
0
0
0
0
0
0
0
0
0
0
0
0
0
0
0
0
0
0
0
0
0
0
0
0
0
0
0
0
0
0
0
0
0
0
0
0
0
0
0
0
0
0
0
0
0
0
0
0
0
0
0
0
0
0
0
0
0
0
0
0
0
0
0
0
0
0
0
0
0
0
0
0
0
0
0
0
0
0
0
0
0
0
0
0
0
0
0
0
0
0
0
0
0
0
0
0
0
0
0
0
0
0
0
0
0
0
0
0
0
0
0
0
0
0
0
0
0
0
0
0
0
0
0
0
0
0
0
0
0
0
0
0
0
0
0
0
0
0
0
0
0
0
0
0
0
0
0
0
0
0
0
0
0
0
0
0
0
0
0
0
0
0
0
0
0
0
0
0
0
0
0
0
0
0
0
0
0
0
0
0
0
0
0
0
0
0
0
0
0
0
0
0
0
0
0
0
0
0
0
0
0
0
0
0
0
0
0
0
0
0
0
0
0
0
0
0
0
0
0
0
0
0
0
0
0
0
0
0
0
0
0
0
0
0
0
0
0
0
0
0
0
0
0
0
0
0
0
0
0
0
0
0
0
0
0
0
0
0
0
0
0
0
0
0
0
0
0
0
0
0
0
0
0
0
0
0
0
0
0
0
0
0
0
0
0
0
0
0
0
0
0
0
0
0
0
0
0
0
0
0
0
0
0
0
0
0
0
0
0
0
0
0
0
0
0
0
0
0
0
0
0
0
0
0
0
0
0
0
0
0
0
0
0
0
0
0
0
0
0
0
0
0
0
0
0
0
0
0
0
0
0
0
0
0
0
0
0
0
0
0
0
0
0
0
0
0
0
0
0
0
0
0
0
0
0
0
0
0
0
0
0
0
0
0
0
0
0
0
0
0
0
0
0
0
0
0
0
0
0
0
0
0
0
0
0
0
0
0
0
0
0
0
0
0
0
0
0
0
0
0
0
0
0
0
0
0
0
0
0
0
0
0
0
0
0
0
0
0
0
0
0
0
0
0
0
0
0
0
0
0
0
0
0
0
0
0
0
0
0
0
0
0
0
0
0
0
0
0
0
0
0
0
0
0
0
0
0
0
0
0
0
0
0
0
0
0
0
0
0
0
0
0
0
0
0
0
0
0
0
0
0
0
0
0
0
0
0
0
0
0
0
0
0
0
0
0
0
0
0
0
0
0
0
0
0
0
0
0
0
0
0
0
0
0
0
0
0
0
0
0
0
0
0
0
0
0
0
0
0
0
0
0
0
0
0
0
0
0
0
0
0
0
0
0
0
0
0
0
0
0
0
0
0
0
0
0
0
0
0
0
0
0
0
0
0
0
0
0
0
0
0
0
0
0
0
0
0
0
0
0
0
0
0
0
0
0
0
0
0
0
0
0
0
0
0
0
0
0
0
0
0
0
0
0
0
0
0
0
0
0
0
0
0
0
0
0
0
0
0
0
0
0
0
0
0
0
0
0
0
0
0
0
0
0
0
0
0
0
0
0
0
0
0
0
0
0
0
0
0
0
0
0
0
0
0
0
0
0
0
0
0
0
0
0
0
0
0
0
0
0
0
0
0
0
0
0
0
0
0
0
0
0
0
0
0
0
0
0
0
0
0
0
0
0
0
0
0
0
0
0
0
0
0
0
0
0
0
0
0
0
0
0
0
0
0
0
0
0
0
0
0
0
0
0
0
0
0
0
0
0
0
0
0
0
0
0
0
0
0
0
0
0
0
0
0
0
0
0
0
0
0
0
0
0
0
0
0
0
0
0
0
0
0
0
0
0
0
0
0
0
0
0
0
0
0
0
0
0
0
0
0
0
0
0
0
0
0
0
0
0
0
0
0
0
0
0
0
0
0
0
0
0
0
0
0
0
0
0
0
0
0
0
0
0
0
0
0
0
0
0
0
0
0
0
0
0
0
0
0
0
0
0
0
0
0
0
0
0
0
0
0
0
0
0
0
0
0
0
0
0
0
0
0
0
0
0
0
0
0
0
0
0
0
0
0
0
0
0
0
0
0
0
0
0
0
0
0
0
0
0
0
0
0
0
0
0
0
0
0
0
0
0
0
0
0
0
0
0
0
0
0
0
0
0
0
0
0
0
0
0
0
0
0
0
0
0
0
0
0
0
0
0
0
0
0
0
0
0
0
0
0
0
0
0
0
0
0
0
0
0
0
0
0
0
0
0
0
0
0
0
0
0
0
0
0
0
0
0
0
0
0
0
0
0
0
0
0
0
0
0
0
0
0
0
0
0
0
0
0
0
0
0
0
0
0
0
0
0
0
0
0
0
0
0
0
0
0
0
0
0
0
0
0
0
0
0
0
0
0
0
0
0
0
0
0
0
0
0
0
0
0
0
0
0
0
0
0
0
0
0
0
0
0
0
0
0
0
0
0
0
0
0
0
0
0
0
0
0
0
0
0
0
0
0
0
0
0
0
0
0
0
0
0
0
0
0
0
0
0
0
0
0
0
0
0
0
0
0
0
0
0
0
0
0
0
0
0
0
0
0
0
0
0
0
0
0
0
0
0
0
0
0
0
0
0
0
0
0
0
0
0
0
0
0
0
0
0
0
0
0
0
0
0
0
0
0
0
0
0
0
0
0
0
0
0
0
0
0
0
0
0
0
0
0
0
0
0
0
0
0
0
0
0
0
0
0
0
0
0
0
0
0
0
0
0
0
0
0
0
0
0
0
0
0
0
0
0
0
0
0
0
0
0
0
0
0
0
0
0
0
0
0
0
0
0
0
0
0
0
0
0
0
0
0
0
0
0
0
0
0
0
0
0
0
0
0
0
0
0
0
0
0
0
0
0
0
0
0
0
0
0
0
0
0
0
0
0
0
0
0
0
0
0
0
0
0
0
0
0
0
0
0
0
0
0
0
0
0
0
0
0
0
0
0
0
0
0
0
0
0
0
0
0
0
0
0
0
0
0
0
0
0
0
0
0
0
0
0
0
0
0
0
0
0
0
0
0
0
0
0
0
0
0
0
0
0
0
0
0
0
0
0
0
0
0
0
0
0
0
0
0
0
0
0
0
0
0
0
0
0
0
0
0
0
0
0
0
0
0
0
0
0
0
0
0
0
0
0
0
0
0
0
0
0
0
0
0
0
0
0
0
0
0
0
0
0
0
0
0
0
0
0
0
0
0
0
0
0
0
0
0
0
0
0
0
0
0
0
0
0
0
0
0
0
0
0
0
0
0
0
0
0
0
0
0
0
0
0
0
0
0
0
0
0
0
0
0
0
0
0
0
0
0
0
0
0
0
0
0
0
0
0
0
0
0
0
0
0
0
0
0
0
0
0
0
0
0
0
0
0
0
0
0
0
0
0
0
0
0
0
0
0
0
0
0
0
0
0
0
0
0
0
0
0
0
0
0
0
0
0
0
0
0
0
0
0
0
0
0
0
0
0
0
0
0
0
0
0
0
0
0
0
0
0
0
0
0
0
0
0
0
0
0
0
0
0
0
0
0
0
0
0
0
0
0
0
0
0
0
0
0
0
0
0
0
0
0
0
0
0
0
0
0
0
0
0
0
0
0
0
0
0
0
0
0
0
0
0
0
0
0
0
0
0
0
0
0
0
0
0
0
0
0
0
0
0
0
0
0
0
0
0
0
0
0
0
0
0
0
0
0
0
0
0
0
0
0
0
0
0
0
0
0
0
0
0
0
0
0
0
0
0
0
0
0
0
0
0
0
0
0
0
0
0
0
0
0
0
0
0
0
0
0
0
0
0
0
0
0
0
0
0
0
0
0
0
0
0
0
0
0
0
0
0
0
0
0
0
0
0
0
0
0
0
0
0
0
0
0
0
0
0
0
0
0
0
0
0
0
0
0
0
0
0
0
0
0
0
0
0
0
0
0
0
0
0
0
0
0
0
0
0
0
0
0
0
0
0
0
0
0
0
0
0
0
0
0
0
0
0
0
0
0
0
0
0
0
0
0
0
0
0
0
0
0
0
0
0
0
0
0
0
0
0
0
0
0
0
0
0
0
0
0
0
0
0
0
0
0
0
0
0
0
0
0
0
0
0
0
0
0
0
0
0
0
0
0
0
0
0
0
0
0
0
0
0
0
0
0
0
0
0
0
0
0
0
0
0
0
0
0
0
0
0
0
0
0
0
0
0
0
0
0
0
0
0
0
0
0
0
0
0
0
0
0
0
0
0
0
0
0
0
0
0
0
0
0
0
0
0
0
0
0
0
0
0
0
0
0
0
0
0
0
0
0
0
0
0
0
0
0
0
0
0
0
0
0
0
0
0
0
0
0
0
0
0
0
0
0
0
0
0
0
0
0
0
0
0
0
0
0
0
0
0
0
0
0
0
0
0
0
0
0
0
0
0
0
0
0
0
0
0
0
0
0
0
0
0
0
0
0
0
0
0
0
0
0
0
0
0
0
0
0
0
0
0
0
0
0
0
0
0
0
0
0
0
0
0
0
0
0
0
0
0
0
0
0
0
0
0
0
0
0
0
0
0
0
0
0
0
0
0
0
0
0
0
0
0
0
0
0
0
0
0
0
0
0
0
0
0
0
0
0
0
0
0
0
0
0
0
0
0
0
0
0
0
0
0
0
0
0
0
0
0
0
0
0
0
0
0
0
0
0
0
0
0
0
0
0
0
0
0
0
0
0
0
0
0
0
0
0
0
0
0
0
0
0
0
0
0
0
0
0
0
0
0
0
0
0
0
0
0
0
0
0
0
0
0
0
0
0
0
0
0
0
0
0
0
0
0
0
0
0
0
0
0
0
0
0
0
0
0
0
0
0
0
0
0
0
0
0
0
0
0
0
0
0
0
0
0
0
0
0
0
0
0
0
0
0
0
0
0
0
0
0
0
0
0
0
0
