-1.21622
-1.27061
-1.32424
-1.37467
-1.41782
-1.44953
-1.46904
-1.47579
-1.46855
-1.45093
-1.43205
-1.42167
-1.42716
-1.45095
-1.48942
-1.53376
-1.5726
-1.59545
-1.59766
-1.58245
-1.5516
-1.508
-1.45557
-1.39873
-1.34164
-1.28901
-1.24669
-1.21937
-1.2106
-1.22158
-1.24993
-1.28927
-1.32992
-1.36094
-1.3728
-1.36089
-1.32643
-1.27222
-1.20396
-1.12897
-1.05516
-0.991637
-0.945887
-0.923225
-0.926204
-0.954032
-1.0024
-1.06402
-1.12996
-1.19135
-1.24171
-1.27905
-1.3033
-1.31319
-1.3083
-1.28869
-1.25489
-1.20789
-1.14926
-1.08113
-1.0062
-0.927741
-0.850735
-0.783217
-0.733264
-0.708058
-0.712027
-0.744847
-0.800299
-0.866941
-0.930764
-0.979051
-1.00561
-1.01474
-1.00986
-0.994894
-0.975245
-0.956556
-0.94334
-0.938148
-0.941218
-0.950612
-0.962812
-0.973646
-0.979318
-0.977271
-0.967042
-0.949934
-0.927636
-0.901709
-0.873503
-0.843872
-0.813128
-0.781223
-0.74807
-0.713863
-0.679389
-0.646316
-0.617183
-0.594589
-0.58053
-0.575707
-0.57913
-0.588205
-0.59933
-0.608838
-0.613943
-0.613497
-0.608173
-0.598805
-0.586315
-0.57114
-0.552942
-0.530724
-0.503302
-0.469957
-0.431223
-0.388486
-0.344453
-0.302743
-0.267005
-0.240194
-0.224059
-0.218958
-0.223985
-0.237296
-0.256471
-0.278692
-0.301452
-0.322634
-0.340586
-0.3543
-0.363354
-0.368443
-0.370899
-0.372281
-0.373916
-0.376574
-0.380344
-0.384752
-0.389021
-0.392384
-0.394293
-0.392451
-0.334158
0
0.678236
1.67421
2.84232
3.95329
4.73976
4.95274
4.43742
3.21492
1.52421
-0.227418
-1.60844
-2.33806
-2.27178
-1.93438
-1.44468
-0.990485
-0.669452
-0.52538
-0.461441
-0.422308
-0.397227
-0.384289
-0.380223
-0.380824
-0.381554
-0.37812
-0.367246
-0.347126
-0.316142
-0.273368
-0.218835
-0.153742
-0.0801941
-0.00168705
0.0765531
0.14926
0.212241
0.263314
0.302745
0.333091
0.358543
0.384047
0.414236
0.452442
0.501286
0.562902
0.6387
0.729278
0.834372
0.952822
1.08261
1.221
1.36475
1.51037
1.65436
1.79342
1.9244
2.04406
2.14974
2.23966
2.31271
2.36848
2.40702
2.4285
2.43272
2.41816
2.38249
2.323
2.23706
2.12314
1.98175
1.81596
1.6313
1.43509
1.23533
1.03928
0.852481
0.679368
0.523025
0.385274
0.267044
0.169148
0.0908972
0.0299392
-0.0167316
-0.0524036
-0.0802372
-0.10292
-0.122474
-0.140254
-0.157095
-0.173573
-0.190185
-0.207519
-0.22635
-0.247463
-0.271446
-0.298398
-0.327659
-0.357685
-0.386057
-0.409781
-0.425715
-0.431044
-0.423701
-0.402648
-0.367995
-0.32098
-0.263497
-0.198328
-0.129304
-0.062005
-0.0044879
0.0352531
0.0501533
0.0356739
-0.00846863
-0.0771543
-0.160042
-0.243447
-0.313528
-0.360124
-0.383731
-0.386772
-0.371599
-0.342054
-0.302442
-0.257115
-0.209694
-0.163117
-0.121295
-0.0893012
-0.0721461
-0.0741508
-0.0973739
-0.140173
-0.19662
-0.257201
-0.310764
-0.347132
-0.360228
-0.348062
-0.313337
-0.262368
-0.203264
-0.144003
-0.0898729
-0.0436076
-0.00712585
0.0188341
0.0344322
0.0401607
0.0373256
0.0276872
0.0134984
-0.00250645
-0.0172864
-0.027892
-0.0320231
-0.027598
-0.0146617
0.00377607
0.0234065
0.0400063
0.0507841
0.0551792
0.0548326
0.0527987
0.0523595
0.0557872
0.063556
0.0750429
0.0892927
0.105142
0.12155
0.13785
0.153835
0.169718
0.186052
0.203618
0.223375
0.24636
0.273548
0.305704
0.343582
0.386956
0.432234
0.472692
0.500667
0.509725
0.496699
0.462743
0.412966
0.354774
0.295557
0.240311
0.190119
0.144134
0.101
0.059051
0.01646
-0.0284801
-0.0772218
-0.130942
-0.190553
-0.256616
-0.329362
-0.409372
-0.495659
-0.581702
-0.657012
-0.710187
-0.732148
-0.719034
-0.673589
-0.595561
-0.373052
0
0.588565
1.43455
2.45982
3.4562
4.13733
4.23135
3.58669
2.25893
0.536622
-1.12807
-2.2788
-2.63867
-2.16467
-1.49699
-0.847587
-0.467163
-0.429242
-0.438315
-0.445549
-0.443652
-0.427663
-0.395794
-0.351796
-0.298959
-0.240441
-0.179523
-0.119145
-0.0613701
-0.00720835
0.0433271
0.0909302
0.13656
0.180874
0.223821
0.264319
0.300516
0.330607
0.353916
0.371756
0.387671
0.406958
0.435625
0.479178
0.540407
0.619195
0.714866
0.826822
0.953987
1.09472
1.24686
1.40783
1.57464
1.74418
1.91342
2.07976
2.24105
2.39487
2.53728
2.66245
2.76567
2.84043
2.88018
2.88115
2.84438
2.77547
2.68203
2.57041
2.4435
2.30448
2.15578
1.99827
1.83264
1.66044
1.48392
1.30558
1.1279
0.953091
0.783247
0.620407
0.466629
0.32389
0.194444
0.0800412
-0.0190081
-0.103121
-0.173049
-0.228491
-0.269516
-0.295637
-0.306248
-0.301278
-0.281783
-0.250197
-0.210129
-0.165809
-0.121359
-0.0797975
-0.0431731
-0.0122919
0.013246
0.0348732
0.054747
0.0753367
0.0989547
0.127301
0.161115
0.199902
0.242232
0.286139
0.329395
0.369966
0.406361
0.437796
0.464164
0.48583
0.503367
0.517301
0.527961
0.535527
0.540273
0.542802
0.544298
0.546627
0.552202
0.563581
0.58411
0.618162
0.665538
0.71545
0.752997
0.764533
0.743496
0.694156
0.631339
0.575765
0.546533
0.552075
0.58205
0.628995
0.681863
0.729317
0.762846
0.77867
0.77795
0.765508
0.747752
0.730642
0.717397
0.709053
0.705964
0.707819
0.713417
0.721126
0.72915
0.7357
0.739084
0.737731
0.730056
0.714877
0.691494
0.659978
0.62143
0.578085
0.533143
0.490355
0.453431
0.425367
0.408035
0.402481
0.408829
0.426468
0.454194
0.490881
0.535334
0.583233
0.626541
0.65662
0.666719
0.654637
0.62431
0.585426
0.550978
0.533596
0.540988
0.569641
0.615534
0.676309
0.746401
0.816967
0.877925
0.920394
0.93791
0.927406
0.889854
0.830308
0.757091
0.680061
0.608278
0.547217
0.497724
0.458247
0.424966
0.393276
0.359174
0.320063
0.274816
0.223326
0.165954
0.103936
0.0383205
-0.0300897
-0.103418
0
0.508216
1.41116
2.57552
3.78561
4.79246
5.3568
5.3006
4.57173
3.2894
1.73032
0.243505
-0.870421
-1.45221
-1.37491
-1.09979
-0.664936
-0.204035
0.159987
0.334175
0.428417
0.502397
0.56852
0.629945
0.688456
0.745106
0.800135
0.853116
0.903279
0.949891
0.992606
1.03166
1.06785
1.10233
1.13636
1.17096
1.20678
1.24411
1.28297
1.32333
1.36522
1.40887
1.45477
1.50365
1.55651
1.61454
1.67906
1.75143
1.83292
1.92458
2.02707
2.14063
2.26492
2.39909
2.54174
2.69102
2.84469
3.00017
3.15458
3.30431
3.44398
3.56646
3.66571
3.7362
3.7734
3.77445
3.7385
3.66661
3.56122
3.4256
3.26342
3.08147
2.88622
2.6828
2.47562
2.26898
2.06711
1.87388
1.69254
1.5255
1.3743
1.23968
1.12181
1.02045
0.93518
0.865334
0.809946
0.767796
0.737426
0.715958
0.697576
0.675325
0.643062
0.59711
0.537547
0.468181
0.397016
0.333684
0.286922
0.262312
0.261027
0.279887
0.312574
0.351488
0.389592
0.422636
0.44882
0.46694
0.47707
0.480313
0.478618
0.474574
0.471128
0.47119
0.47738
0.492713
0.518633
0.548783
0.571177
0.573245
0.546987
0.493175
0.422711
0.354319
0.309258
0.310771
0.408017
0.569578
0.734162
0.839325
0.848287
0.763388
0.621918
0.47808
0.380331
0.351332
0.360249
0.386131
0.420592
0.457662
0.491927
0.51913
0.536535
0.543039
0.539094
0.526478
0.508006
0.48721
0.467905
0.45363
0.447464
0.453195
0.475522
0.513517
0.556174
0.589622
0.601992
0.587932
0.550669
0.500542
0.450594
0.411298
0.385406
0.368127
0.355963
0.345878
0.335975
0.326428
0.31971
0.320074
0.334248
0.37913
0.468213
0.577041
0.664835
0.691129
0.634532
0.504932
0.342749
0.204351
0.139243
0.155725
0.212877
0.302692
0.405098
0.497666
0.561745
0.586213
0.568951
0.515972
0.438872
0.3516
0.267469
0.194651
0.135115
0.0887716
0.0554007
0.0342909
0.0238057
0.0219468
0.0268252
0.0370033
0.0516175
0.0702644
0.0927256
0.118662
0.147347
0.177855
0.209115
0.240198
0.27055
0.300059
0.328905
0.357184
0.38434
0.408494
0.426602
0.435336
0.432499
0.418144
0.394754
0.366327
0.336796
0.308599
0.281879
0.255721
0.228901
0.20062
0.170965
0.140879
0.11177
0.0850124
0.0612369
0.0406539
0.0235028
0.00991492
0
-0.00558758
-0.00688839
0.00203838
0.157945
0.531517
1.17764
2.12651
3.2869
4.40474
5.10435
5.03443
4.06509
2.41672
0.606888
-0.79087
-1.43989
-1.38404
-1.20409
-1.04096
-0.905376
-0.796951
-0.705565
-0.618795
-0.532583
-0.444827
-0.35481
-0.262691
-0.168753
-0.072918
0.0257186
0.129461
0.243831
0.379375
0.539186
0.700942
0.830595
0.89461
0.872006
0.761287
0.58131
0.367977
0.1682
0.02586
-0.0544985
-0.0885297
-0.0768176
-0.0227458
0.0662038
0.180126
0.308637
0.441956
0.574322
0.702835
0.826036
0.943885
1.05748
1.16862
1.27937
1.39152
1.50626
1.62391
1.74391
1.86452
1.98178
2.08874
2.17769
2.24075
2.27113
2.26449
2.21999
2.14049
2.03185
1.90142
1.75614
1.60198
1.44199
1.27723
1.10787
0.933912
0.756071
0.576208
0.397381
0.223578
0.0591454
-0.0919342
-0.226731
-0.343585
-0.441992
-0.523745
-0.592157
-0.650828
-0.702805
-0.750005
-0.793047
-0.83149
-0.864363
-0.89078
-0.910679
-0.924518
-0.933543
-0.939655
-0.945228
-0.95292
-0.965648
-0.985904
-1.01538
-1.0544
-1.10141
-1.15271
-1.20258
-1.24204
-1.24006
-1.11358
-0.867331
-0.592103
-0.39539
-0.352647
-0.475892
-0.711636
-0.967282
-1.1515
-1.20977
-1.19799
-1.15999
-1.10959
-1.0518
-0.990071
-0.927623
-0.867567
-0.812676
-0.765257
-0.727087
-0.699279
-0.682146
-0.675109
-0.676701
-0.684693
-0.696358
-0.708835
-0.719629
-0.726944
-0.729945
-0.728734
-0.724252
-0.717998
-0.711661
-0.706775
-0.704493
-0.705508
-0.710092
-0.718189
-0.729448
-0.743184
-0.758462
-0.773968
-0.787926
-0.798268
-0.80299
-0.800541
-0.790175
-0.77216
-0.747728
-0.718797
-0.687515
-0.655798
-0.624969
-0.595696
-0.568191
-0.542549
-0.519199
-0.499174
-0.48413
-0.476108
-0.476999
-0.487862
-0.508315
-0.536216
-0.567722
-0.597775
-0.620896
-0.632267
-0.628689
-0.60924
-0.575448
-0.530935
-0.480631
-0.429739
-0.382566
-0.341804
-0.308818
-0.283573
-0.264988
-0.251414
-0.241096
-0.23249
-0.224441
-0.216165
-0.207179
-0.19723
-0.186262
-0.174377
-0.161844
-0.148976
-0.135954
-0.122677
-0.108735
-0.0935545
-0.0767007
-0.0579945
-0.0382775
-0.0194809
-0.00359368
0.00849047
0.0178786
0.0277886
0.0426426
0.0664164
0.100919
0.14462
0.193265
0.240947
0.281902
0.312085
0.329905
0.335925
0.331841
0.319346
0.300043
0.275023
0.244714
0.210069
0.172874
0.135678
0.101341
0.0723597
0.0498648
0.0338993
0.0234883
0.0168288
0.0118211
0.00663023
0
-0.00889921
0.0365934
0.394073
1.12987
2.19187
3.39644
4.47152
5.13157
5.15924
4.47816
3.19596
1.59278
0.0402019
-1.12987
-1.74371
-1.74112
-1.50382
-1.10869
-0.681356
-0.30413
-0.0593153
0.0534271
0.115328
0.156367
0.186035
0.207962
0.225852
0.243486
0.264307
0.290868
0.324777
0.366803
0.416742
0.473573
0.535336
0.598695
0.659612
0.714268
0.759828
0.79507
0.820734
0.83949
0.855508
0.873723
0.898921
0.934613
0.982639
1.0433
1.11579
1.19865
1.29014
1.38864
1.49304
1.6029
1.71845
1.84026
1.96889
2.10446
2.24632
2.39307
2.54231
2.69031
2.83242
2.96331
3.07646
3.16353
3.21732
3.2318
3.20155
3.12318
2.99691
2.82771
2.62499
2.40111
2.16907
1.94001
1.71927
1.51072
1.31809
1.14402
0.990006
0.856664
0.743694
0.647825
0.562539
0.480651
0.395894
0.304447
0.205915
0.103424
0.00286853
-0.0886302
-0.164472
-0.220042
-0.253507
-0.265836
-0.260167
-0.240837
-0.212405
-0.179313
-0.144642
-0.110354
-0.0776686
-0.0471699
-0.0189399
0.00727961
0.0319035
0.0553196
0.0777398
0.0991226
0.119208
0.137583
0.153817
0.167581
0.178714
0.187232
0.193268
0.197013
0.198638
0.198235
0.19582
0.191332
0.184654
0.17564
0.164136
0.150021
0.133312
0.114263
0.0934945
0.0720696
0.0516558
0.0343518
0.0223779
0.0176602
0.0213873
0.0336645
0.0533709
0.0783817
0.105649
0.131889
0.154142
0.170209
0.178862
0.17982
0.173536
0.160931
0.143221
0.121856
0.0982148
0.0738385
0.050568
0.0306963
0.0168981
0.0114699
0.015976
0.0307291
0.0552576
0.0865729
0.119891
0.150062
0.172768
0.185471
0.187816
0.181421
0.169203
0.154546
0.140555
0.129342
0.122327
0.120533
0.124448
0.13419
0.149297
0.168211
0.188266
0.206222
0.21889
0.22378
0.219663
0.20686
0.187151
0.163329
0.138489
0.115254
0.0950878
0.0780912
0.0634137
0.0493893
0.0338972
0.0147708
-0.00983524
-0.0411463
-0.0795345
-0.124386
-0.174597
-0.226753
-0.275526
-0.314823
-0.338686
-0.342215
-0.322278
-0.277883
-0.210179
-0.122168
0
0.2677
0.724665
1.30054
2.00176
2.81046
3.61468
4.18217
4.22771
3.56091
2.2253
0.527105
-1.08241
-2.20777
-2.66534
-2.54905
-2.08388
-1.52049
-1.02618
-0.663342
-0.429349
-0.286866
-0.182253
-0.0958497
-0.0225516
0.0390745
0.0896911
0.129827
0.160647
0.183773
0.201046
0.214439
0.225911
0.237373
0.250661
0.267485
0.289317
0.317251
0.351878
0.393251
0.440958
0.494432
0.553172
0.616959
0.685943
0.760574
0.841422
0.92898
1.02354
1.12509
1.23355
1.34879
1.47068
1.59892
1.73289
1.87153
2.01333
2.15651
2.29945
2.44108
2.58127
2.72074
2.86207
3.01105
3.16573
3.3052
3.39649
3.40805
3.32291
3.1454
2.89952
2.62069
2.34426
2.08926
1.85358
1.6327
1.42594
1.23308
1.05314
0.884461
0.724915
0.572008
0.423321
0.277064
0.132664
-0.00879784
-0.143975
-0.268177
-0.376156
-0.461257
-0.511992
-0.532006
-0.530532
-0.518999
-0.507061
-0.500008
-0.498647
-0.501274
-0.506222
-0.51331
-0.523262
-0.536606
-0.552134
-0.566379
-0.574229
-0.570338
-0.550828
-0.517473
-0.472314
-0.416727
-0.35264
-0.282448
-0.208779
-0.134319
-0.0617086
0.0064065
0.0675302
0.11966
0.161301
0.191589
0.210393
0.218348
0.216822
0.207799
0.193713
0.177246
0.161071
0.147558
0.138637
0.135692
0.13948
0.150076
0.166926
0.188962
0.214749
0.242614
0.270722
0.297008
0.318824
0.333491
0.338826
0.333544
0.317843
0.293757
0.265065
0.236685
0.213699
0.200295
0.197743
0.205821
0.223543
0.248964
0.278724
0.306598
0.325263
0.328762
0.314448
0.284618
0.246924
0.212901
0.194685
0.200957
0.232404
0.284674
0.347132
0.407215
0.45451
0.48362
0.494722
0.491856
0.479929
0.461919
0.438602
0.407946
0.367466
0.315858
0.254211
0.186301
0.117869
0.055232
0.00380263
-0.035076
-0.0606208
-0.0725731
-0.0714231
-0.0580542
-0.0338682
0
0.0405727
0.0877505
0.139618
0.194141
0.249568
0.300451
0.422425
0.839181
1.589
2.55395
3.47377
4.03047
3.96238
3.17099
1.78329
0.13479
-1.33619
-2.24883
-2.32323
-1.89753
-1.1294
-0.336533
0.201407
0.242111
0.156432
0.0618619
-0.0184179
-0.0663277
-0.0742017
-0.0548115
-0.0225617
0.0155915
0.0550525
0.0923445
0.125458
0.153832
0.178056
0.19945
0.219658
0.240457
0.263627
0.29096
0.324301
0.365494
0.416212
0.477701
0.550521
0.634396
0.72797
0.829449
0.936852
1.04813
1.16134
1.27483
1.3872
1.49744
1.60489
1.70942
1.81144
1.91178
2.0115
2.1115
2.21208
2.31259
2.41096
2.50391
2.58751
2.65781
2.71136
2.74524
2.75646
2.74255
2.70102
2.62967
2.52726
2.39427
2.23356
2.05046
1.85231
1.64766
1.44459
1.24918
1.06612
0.898273
0.74665
0.610631
0.488461
0.377875
0.276757
0.183711
0.0984119
0.0217655
-0.0445255
-0.098402
-0.137675
-0.160483
-0.166913
-0.159537
-0.143099
-0.124435
-0.111412
-0.11077
-0.126815
-0.160527
-0.209217
-0.266845
-0.325002
-0.374388
-0.406443
-0.417278
-0.407087
-0.375004
-0.320338
-0.240458
-0.135592
-0.0165575
0.0962176
0.182172
0.225053
0.217263
0.162559
0.0757638
-0.0208717
-0.103731
-0.154958
-0.175043
-0.172775
-0.15492
-0.125725
-0.0887344
-0.047466
-0.00509052
0.0358923
0.0737227
0.107255
0.135681
0.157859
0.172152
0.177215
0.171825
0.155505
0.1292
0.0957035
0.0595384
0.0265376
0.00260472
-0.00753124
-0.00132995
0.021045
0.0567975
0.101058
0.147724
0.190192
0.221768
0.237487
0.234624
0.213237
0.176396
0.129899
0.0813601
0.0387342
0.00861843
-0.00590289
-0.00503569
0.00889347
0.0316436
0.0582878
0.0844754
0.107755
0.127121
0.143092
0.157466
0.172837
0.191941
0.217533
0.253315
0.300665
0.351293
0.392987
0.41387
0.407118
0.374023
0.323843
0.270469
0.227446
0.20334
0.194394
0.195424
0.203227
0.214479
0.225641
0.233551
0.235827
0.231073
0.218941
0.200057
0.175833
0.148181
0.119194
0.090838
0.0646876
0.0418422
0.0230663
0.0089407
0
-0.00475492
-0.00297303
0.00609751
0.0230683
0.0511542
0.11645
0.462212
1.02115
1.7134
2.5036
3.35354
4.1599
4.71082
4.73302
4.03319
2.64898
0.894755
-0.749583
-1.85076
-2.17279
-1.92455
-1.36654
-0.826591
-0.498869
-0.382988
-0.283405
-0.184503
-0.0915912
-0.00669408
0.0676515
0.129488
0.178219
0.214242
0.239181
0.255631
0.266774
0.275942
0.286123
0.299547
0.31737
0.339573
0.365088
0.392305
0.4196
0.445903
0.471097
0.496117
0.522746
0.553176
0.589493
0.633069
0.684486
0.74377
0.810583
0.884419
0.96485
1.05171
1.14516
1.24566
1.35379
1.47006
1.59465
1.72716
1.86665
2.01159
2.1582
2.29845
2.42184
2.51802
2.57863
2.59878
2.57774
2.51841
2.42598
2.30637
2.1651
2.0091
1.84439
1.67527
1.50509
1.33681
1.17323
1.01671
0.869058
0.731395
0.604283
0.487929
0.382455
0.288229
0.205792
0.135694
0.0783834
0.0342541
0.00290833
-0.0166172
-0.0257748
-0.026354
-0.0203142
-0.00904064
0.00557413
0.0216964
0.0381208
0.0544468
0.0710377
0.0886694
0.107935
0.128843
0.149811
0.168288
0.181812
0.189214
0.191349
0.191013
0.192111
0.198553
0.212752
0.234779
0.264576
0.302001
0.347182
0.398818
0.449621
0.487992
0.502072
0.484488
0.436744
0.370796
0.306296
0.264046
0.258198
0.292112
0.35361
0.421378
0.473526
0.49577
0.485659
0.451488
0.407147
0.365869
0.334753
0.312387
0.29668
0.28646
0.280626
0.278334
0.279144
0.28295
0.289782
0.29959
0.311988
0.326116
0.340655
0.353913
0.363854
0.368317
0.365683
0.355087
0.336732
0.31205
0.283645
0.254933
0.229559
0.210677
0.200079
0.197659
0.202653
0.212928
0.225085
0.23507
0.239097
0.234358
0.219584
0.195389
0.16433
0.130656
0.0997479
0.0773392
0.0681737
0.0768522
0.111698
0.180847
0.278292
0.38024
0.4602
0.496507
0.478498
0.40956
0.30613
0.192996
0.0964242
0.0344535
0.00474405
-0.00167017
0.00982189
0.0368726
0.0731511
0.11004
0.139702
0.1567
0.159086
0.14865
0.130186
0.109942
0.0936975
0.0846807
0.0824125
0.0856395
0.0903938
0.0920814
0.0871881
0.074613
0.0561889
0.0361501
0.0196822
0.0110683
0.0138505
0.0260032
0.0424937
0.0579246
0.0693457
0.0778396
0.0880905
0.106142
0.136433
0.178701
0.227843
0.279044
0.326602
0.365138
0.390507
0.400245
0.393573
0.371151
0.334813
0.288141
0.234786
0.178549
0.123529
0.0737306
0.0325621
0.00196047
-0.017397
-0.0259356
-0.0252535
-0.0179594
-0.00790844
0
0.00349092
-0.00329971
-0.0220867
-0.0523605
-0.0913406
-0.134375
-0.175228
-0.132199
0.301214
1.00412
1.93342
3.01535
4.10994
4.9894
5.37768
5.06254
4.01964
2.46214
0.772176
-0.651934
-1.54549
-1.80014
-1.63406
-1.21279
-0.720566
-0.303211
-0.0435125
0.0912879
0.201634
0.300939
0.389408
0.4625
0.516057
0.547582
0.557332
0.548704
0.52772
0.501825
0.478503
0.463559
0.4593
0.467093
0.488608
0.524603
0.574858
0.638166
0.71232
0.794638
0.882331
0.972859
1.06426
1.15533
1.24555
1.33488
1.42358
1.512
1.60059
1.6899
1.78078
1.87436
1.97201
2.07505
2.18437
2.30008
2.42122
2.54576
2.67079
2.79286
2.90845
3.01419
3.10625
3.18
3.23126
3.25684
3.25363
3.21915
3.1522
3.0535
2.9259
2.77422
2.60463
2.42448
2.24058
2.05807
1.88127
1.71381
1.55844
1.41705
1.29093
1.18026
1.08374
0.999715
0.926848
0.864621
0.813529
0.774757
0.751299
0.748541
0.763544
0.786681
0.805927
0.810938
0.796606
0.764431
0.721274
0.676372
0.638196
0.609985
0.591389
0.58208
0.581913
0.590211
0.605983
0.627721
0.652862
0.677695
0.698366
0.711628
0.7155
0.709644
0.695323
0.674968
0.651544
0.627957
0.606507
0.58864
0.575571
0.56831
0.567522
0.573395
0.585492
0.602846
0.623633
0.64529
0.665078
0.680497
0.689577
0.690956
0.683761
0.667359
0.641172
0.604686
0.55816
0.502378
0.438781
0.37053
0.305081
0.252262
0.221869
0.22129
0.253516
0.316175
0.403223
0.503403
0.602863
0.689006
0.7527
0.789462
0.799601
0.787511
0.760365
0.726475
0.693516
0.666694
0.648228
0.637729
0.634096
0.635998
0.642214
0.651952
0.664793
0.680385
0.698146
0.717116
0.736217
0.754697
0.772474
0.790138
0.808481
0.827777
0.846624
0.860676
0.863929
0.851134
0.820543
0.775695
0.725292
0.681005
0.653986
0.651554
0.679983
0.732429
0.793227
0.845002
0.873885
0.873019
0.843839
0.79533
0.741664
0.698678
0.678423
0.684055
0.711876
0.761467
0.822732
0.882082
0.926671
0.94768
0.942274
0.913725
0.869777
0.819922
0.772503
0.731576
0.696903
0.666646
0.63855
0.610141
0.578941
0.542924
0.500895
0.452725
0.399418
0.343008
0.286174
0.231838
0.182598
0.14027
0.105816
0.078524
0.0565885
0.0376368
0.0193595
0
-0.0229523
-0.00528395
0.351474
1.11312
2.19507
3.36277
4.29519
4.6817
4.32893
3.25213
1.71091
0.144654
-0.998843
-1.46962
-1.30799
-1.18646
-1.07443
-0.975386
-0.88908
-0.810284
-0.733341
-0.653295
-0.56599
-0.469031
-0.360991
-0.240219
-0.105342
0.0379785
0.171539
0.27289
0.320754
0.303993
0.229382
0.122411
0.0189553
-0.0483897
-0.062259
-0.0424597
-0.00495017
0.0444236
0.102441
0.166429
0.234597
0.305861
0.379588
0.455283
0.532443
0.610468
0.688836
0.767675
0.848271
0.933385
1.02718
1.1347
1.26089
1.41054
1.60491
1.8584
2.12878
2.36139
2.51062
2.55729
2.51462
2.42005
2.31655
2.23284
2.17082
2.11436
2.05562
1.98921
1.91154
1.82102
1.71757
1.60187
1.47518
1.33927
1.19465
1.04183
0.881866
0.716496
0.54819
0.379971
0.215146
0.0570293
-0.0913008
-0.227185
-0.348426
-0.453514
-0.541672
-0.612865
-0.667773
-0.707698
-0.734383
-0.749805
-0.755946
-0.754634
-0.747477
-0.735817
-0.720794
-0.703451
-0.684827
-0.665961
-0.647877
-0.631518
-0.617698
-0.606977
-0.599552
-0.595217
-0.593342
-0.592905
-0.592593
-0.590957
-0.586615
-0.578454
-0.565883
-0.548922
-0.528206
-0.50508
-0.48181
-0.461569
-0.44806
-0.444908
-0.455023
-0.479852
-0.518761
-0.568731
-0.624619
-0.679698
-0.72704
-0.760971
-0.775893
-0.769682
-0.748072
-0.719725
-0.693279
-0.674859
-0.667014
-0.669344
-0.680204
-0.698419
-0.723275
-0.754957
-0.793802
-0.839003
-0.888223
-0.937881
-0.983969
-1.02304
-1.05393
-1.07611
-1.0894
-1.0938
-1.08899
-1.07403
-1.04752
-1.00409
-0.933378
-0.832501
-0.720814
-0.625754
-0.572907
-0.575684
-0.629569
-0.71359
-0.798505
-0.858314
-0.883384
-0.885781
-0.876194
-0.859528
-0.839706
-0.818475
-0.795045
-0.766651
-0.729751
-0.681392
-0.621242
-0.551213
-0.473475
-0.390649
-0.306009
-0.223547
-0.148456
-0.0868228
-0.0437333
-0.0234366
-0.0284513
-0.0585804
-0.110285
-0.176847
-0.249475
-0.319115
-0.378685
-0.425865
-0.461191
-0.484898
-0.498053
-0.501903
-0.497357
-0.484761
-0.463978
-0.434693
-0.396816
-0.351086
-0.296906
-0.222097
0
0.463184
1.1644
2.02792
2.90826
3.62276
3.98039
3.81634
3.04789
1.74193
0.151118
-1.3313
-2.31006
-2.53469
-2.14679
-1.41653
-0.719839
-0.309789
-0.232687
-0.22683
-0.217565
-0.205015
-0.18845
-0.167262
-0.141527
-0.111791
-0.0796721
-0.0485681
-0.0223835
-0.0042918
0.00436895
0.00477507
0.000541353
-0.00313289
-0.000765824
0.0121745
0.0368737
0.0724912
0.118658
0.174789
0.239771
0.312023
0.389538
0.469997
0.551027
0.630562
0.707301
0.781071
0.852994
0.925356
1.00122
1.08387
1.17616
1.28003
1.39611
1.52386
1.66176
1.80767
1.95911
2.11261
2.26208
2.39748
2.50839
2.58416
2.61582
2.59864
2.53408
2.43024
2.30028
2.15889
2.01787
1.88152
1.74834
1.61575
1.4813
1.34313
1.20087
1.05593
0.911255
0.770772
0.639331
0.519199
0.410596
0.312618
0.224647
0.147354
0.0826656
0.0326905
-0.00172123
-0.0220042
-0.0314133
-0.0337994
-0.031749
-0.0250499
-0.0101549
0.0191478
0.0701457
0.148427
0.253227
0.382641
0.534703
0.70591
0.891079
1.08392
1.27777
1.46603
1.64334
1.80615
1.95291
2.08389
2.20047
2.3039
2.39307
2.46826
2.52876
2.57403
2.60513
2.62579
2.64175
2.67758
2.8703
3.20958
3.57195
3.80458
3.80659
3.57649
3.20655
2.83254
2.56925
2.459
2.38879
2.32404
2.25826
2.18857
2.11364
2.03379
1.95062
1.86652
1.78401
1.70522
1.63173
1.56443
1.50349
1.44852
1.39867
1.3529
1.31005
1.26904
1.22898
1.18924
1.14943
1.10936
1.06897
1.02818
0.986923
0.945101
0.902703
0.85989
0.817064
0.774875
0.734145
0.69572
0.660284
0.628261
0.599785
0.574708
0.552601
0.533076
0.515992
0.501552
0.490224
0.482476
0.478655
0.478479
0.479983
0.480237
0.476004
0.464563
0.444378
0.415366
0.378746
0.336573
0.291232
0.245157
0.200205
0.157993
0.120048
0.0877373
0.062149
0.043952
0.0332697
0.0296347
0.0321554
0.0395119
0.0503264
0.0634093
0.0778952
0.0932133
0.108898
0.12429
0.138167
0.148552
0.152824
0.148166
0.132118
0.10319
0.0613104
0.00795794
-0.0540475
-0.121032
-0.189058
-0.254468
-0.314441
-0.366575
-0.40765
-0.434518
-0.444769
-0.436562
-0.409277
-0.364175
-0.304792
-0.236808
-0.167305
-0.103883
-0.052997
-0.0186926
-0.00183258
0
-0.0160373
-0.113167
0.0765829
0.719523
1.80402
3.10435
4.24743
4.85242
4.67412
3.69792
2.16079
0.483627
-0.878927
-1.62226
-1.69777
-1.39758
-1.11993
-0.891094
-0.716462
-0.576526
-0.439906
-0.298823
-0.142773
0.0467609
0.272847
0.501629
0.681276
0.746813
0.650885
0.403808
0.0881655
-0.170169
-0.259182
-0.178904
-0.0339101
0.135537
0.319401
0.513337
0.710566
0.897822
1.06051
1.18524
1.26252
1.28963
1.27236
1.22478
1.16695
1.12132
1.10856
1.13424
1.19486
1.28689
1.40771
1.55339
1.71783
1.89389
2.07263
2.24545
2.40556
2.54882
2.67388
2.78163
2.87202
2.94572
3.00415
3.04647
3.06966
3.06934
3.04074
2.97967
2.88342
2.75146
2.58729
2.39882
2.19352
1.97919
1.76409
1.55544
1.35811
1.17591
1.01085
0.8633
0.732359
0.616178
0.512696
0.420201
0.337697
0.264983
0.202413
0.15127
0.113818
0.0890816
0.0729917
0.060192
0.045428
0.0248921
-0.00306978
-0.0381042
-0.0786188
-0.122685
-0.168373
-0.214435
-0.259955
-0.303939
-0.34515
-0.382008
-0.412549
-0.433941
-0.442908
-0.436489
-0.412118
-0.368186
-0.29649
-0.19283
-0.0726012
0.040559
0.123482
0.160614
0.148345
0.0950997
0.0177442
-0.0638133
-0.131874
-0.180007
-0.210609
-0.227318
-0.230852
-0.225108
-0.216216
-0.210012
-0.210601
-0.219419
-0.235154
-0.254493
-0.273382
-0.288249
-0.29749
-0.301056
-0.298944
-0.29177
-0.280553
-0.266702
-0.252556
-0.240789
-0.234033
-0.234372
-0.242858
-0.259197
-0.281721
-0.307631
-0.333464
-0.355966
-0.372784
-0.38244
-0.384033
-0.37773
-0.365966
-0.352601
-0.34172
-0.336608
-0.338917
-0.348255
-0.362312
-0.377449
-0.389582
-0.395456
-0.393472
-0.383337
-0.365523
-0.341408
-0.313817
-0.28651
-0.263048
-0.246092
-0.236916
-0.235265
-0.239579
-0.247488
-0.256379
-0.263852
-0.268126
-0.267722
-0.261252
-0.247459
-0.225359
-0.194557
-0.154734
-0.106537
-0.0547587
-0.00529413
0.036637
0.068181
0.0896757
0.104158
0.115702
0.127324
0.139225
0.14796
0.147945
0.134082
0.104278
0.0607883
0.0099062
-0.0397491
-0.0796047
-0.105855
-0.118704
-0.119012
-0.108085
-0.0886642
-0.0645379
-0.0398937
-0.0188369
-0.00476637
0
-0.00818777
-0.026471
-0.0534508
-0.0880585
-0.147332
-0.00635891
0.498947
1.40952
2.62053
3.88304
4.86828
5.27077
4.91568
3.83134
2.25738
0.577781
-0.805952
-1.61638
-1.76903
-1.41687
-0.976659
-0.5435
-0.217581
-0.0402357
0.0817153
0.187821
0.285417
0.374706
0.454452
0.523886
0.582618
0.631028
0.670475
0.703232
0.732132
0.760052
0.789403
0.82177
0.857726
0.89739
0.940729
0.987635
1.03801
1.09175
1.14869
1.20855
1.27095
1.33561
1.40253
1.47205
1.54498
1.62236
1.70532
1.79474
1.89103
1.99407
2.10321
2.2174
2.33537
2.45569
2.5768
2.69698
2.81427
2.92653
3.03156
3.12725
3.21172
3.28331
3.33997
3.37902
3.3975
3.3925
3.36066
3.29877
3.20443
3.07692
2.9178
2.73112
2.52324
2.30258
2.07799
1.85713
1.64665
1.45177
1.27606
1.12141
0.988231
0.875748
0.782344
0.706212
0.645454
0.597118
0.558137
0.525787
0.497923
0.4731
0.450512
0.429776
0.410672
0.392828
0.37565
0.35837
0.340172
0.320291
0.298046
0.272831
0.244176
0.212052
0.177117
0.141219
0.10823
0.0842846
0.0764732
0.0910753
0.131549
0.197015
0.282023
0.377009
0.470438
0.551301
0.611229
0.645688
0.654081
0.638955
0.604751
0.556577
0.500268
0.439938
0.37835
0.317539
0.25908
0.204231
0.15433
0.11108
0.0763424
0.0519424
0.0395865
0.0404646
0.0548416
0.0817638
0.118996
0.163232
0.210524
0.256874
0.299015
0.334397
0.361297
0.378828
0.386775
0.38537
0.375208
0.357154
0.332371
0.302387
0.269118
0.234801
0.201816
0.172447
0.148639
0.13184
0.122932
0.122242
0.129596
0.144306
0.16526
0.191096
0.219832
0.249022
0.276077
0.298688
0.315288
0.325396
0.329759
0.330227
0.329314
0.329522
0.332626
0.339582
0.348181
0.353119
0.348145
0.328422
0.292565
0.243497
0.187753
0.133527
0.088287
0.0551477
0.0329369
0.0206713
0.0166332
0.0184029
0.0232868
0.0284273
0.031558
0.0313196
0.0274248
0.0206303
0.012499
0.0049942
0
-0.00139465
0.00148506
0.0106489
0.0440088
0.245562
0.704947
1.46073
2.4449
3.46202
4.21893
4.40964
3.8423
2.56081
0.884586
-0.687374
-1.68544
-1.8778
-1.33837
-0.821662
-0.412319
-0.189153
-0.148421
-0.139756
-0.134031
-0.119265
-0.0872347
-0.0369736
0.0283319
0.106085
0.193295
0.284075
0.371887
0.451783
0.521518
0.581967
0.636609
0.69019
0.746918
0.809368
0.876582
0.942224
0.997891
1.03661
1.05592
1.05932
1.05566
1.05699
1.07556
1.1191
1.18758
1.27905
1.39215
1.52487
1.67378
1.83415
2.00039
2.16648
2.32658
2.47572
2.61026
2.72832
2.82975
2.9159
2.98901
3.05147
3.10509
3.15029
3.18556
3.20728
3.21043
3.18918
3.13829
3.05452
2.93764
2.79083
2.62035
2.43438
2.24179
2.04972
1.86241
1.6825
1.51128
1.34902
1.1956
1.05103
0.915833
0.791133
0.678498
0.579573
0.49564
0.427212
0.3738
0.333945
0.305182
0.283802
0.265098
0.244819
0.220094
0.190116
0.156359
0.122212
0.0920929
0.0701906
0.0593554
0.0614796
0.0748646
0.0962643
0.122328
0.150905
0.181639
0.215622
0.254653
0.30048
0.349862
0.39461
0.424635
0.431713
0.412708
0.370892
0.315029
0.256818
0.207875
0.174717
0.157771
0.155927
0.168946
0.197018
0.238421
0.287266
0.33452
0.371025
0.38933
0.385371
0.359552
0.316824
0.265659
0.216115
0.177305
0.153628
0.144807
0.148352
0.161811
0.181456
0.202947
0.222147
0.23575
0.241698
0.239354
0.229448
0.213842
0.195172
0.176393
0.160261
0.148809
0.143206
0.143961
0.149905
0.15779
0.163659
0.163868
0.156089
0.140016
0.117598
0.0927298
0.0705189
0.056221
0.0532364
0.0632938
0.0874662
0.125449
0.17585
0.23574
0.300847
0.365537
0.422915
0.466549
0.491136
0.493162
0.471462
0.42762
0.36602
0.293434
0.218087
0.14831
0.0899141
0.0451395
0.0149069
-0.000635338
-0.00464611
-0.00186405
0.00261211
0.00430336
0
-0.0108004
-0.0298433
-0.0568161
-0.0910343
-0.131316
-0.176563
-0.22602
-0.280387
-0.383858
-0.206314
0.440141
1.55642
2.93943
4.25006
5.14132
5.37606
4.89052
3.79716
2.34627
0.857954
-0.368338
-1.14412
-1.43384
-1.21868
-0.977535
-0.707513
-0.428222
-0.172424
0.0356514
0.205915
0.349655
0.465496
0.553236
0.614825
0.654358
0.677773
0.692164
0.704702
0.721385
0.745964
0.779093
0.818402
0.861073
0.904535
0.946482
0.985342
1.02046
1.05232
1.0825
1.11347
1.14834
1.19055
1.24333
1.30927
1.38978
1.48487
1.59287
1.71173
1.83905
1.97299
2.11266
2.25817
2.41021
2.56916
2.7345
2.9043
3.07102
3.22385
3.35185
3.44689
3.50564
3.52981
3.52473
3.49688
3.45149
3.39267
3.32235
3.24044
3.14542
3.03587
2.91106
2.7712
2.6175
2.45228
2.27857
2.09991
1.92036
1.74428
1.57611
1.42001
1.2795
1.15709
1.05397
0.969853
0.903015
0.850524
0.808805
0.773778
0.741302
0.708127
0.67247
0.634393
0.595872
0.560732
0.533883
0.520327
0.524082
0.547802
0.596639
0.670753
0.758302
0.843281
0.91039
0.948304
0.951603
0.921214
0.863789
0.79054
0.715803
0.653433
0.612579
0.624231
0.728751
0.892904
1.05647
1.15877
1.16551
1.08137
0.943076
0.800086
0.694446
0.639974
0.615117
0.606191
0.607917
0.616929
0.630421
0.646571
0.664609
0.684484
0.706291
0.729729
0.752173
0.768778
0.773972
0.763494
0.736175
0.694573
0.644182
0.59163
0.542796
0.500605
0.465438
0.438315
0.419925
0.410771
0.411442
0.422504
0.442636
0.468764
0.496611
0.520847
0.536148
0.538553
0.526331
0.500509
0.46486
0.425284
0.388628
0.361178
0.34721
0.346378
0.355477
0.372012
0.391974
0.410367
0.422462
0.424604
0.414821
0.393188
0.361899
0.324999
0.287793
0.255958
0.233981
0.224277
0.229773
0.251304
0.283757
0.319474
0.350818
0.372337
0.382176
0.382282
0.37733
0.372792
0.372802
0.378041
0.387086
0.395533
0.397859
0.389362
0.367933
0.335128
0.29622
0.259236
0.233253
0.225544
0.242942
0.299944
0.403331
0.530326
0.646507
0.720035
0.731026
0.677198
0.574061
0.449177
0.33252
0.247
0.192721
0.158596
0.137253
0.124881
0.118241
0.112729
0.103671
0.087793
0.0643917
0.0356592
0.00971603
0
0.0244404
0.0933537
0.214034
0.385841
0.603235
0.891905
1.26918
1.61709
2.09554
2.83265
3.78354
4.67381
5.09698
4.7279
3.52332
1.77714
-0.00753384
-1.35183
-1.98909
-1.83684
-1.43873
-0.890832
-0.366081
0.0139099
0.17172
0.253576
0.30938
0.337404
0.338215
0.315174
0.27469
0.225969
0.18006
0.148182
0.138827
0.154319
0.191542
0.245947
0.313469
0.389242
0.467889
0.544226
0.613938
0.674016
0.722975
0.760831
0.788955
0.80984
0.82688
0.844172
0.866337
0.898549
0.945583
1.01138
1.09837
1.20684
1.33462
1.47717
1.62819
1.78056
1.92763
2.06439
2.18782
2.29739
2.39493
2.48409
2.56936
2.65614
2.75212
2.86197
2.97428
3.06832
3.12162
3.11772
3.05098
2.92663
2.75716
2.55776
2.34349
2.1288
1.92051
1.72176
1.53516
1.36345
1.20732
1.06592
0.937566
0.82043
0.713219
0.615474
0.527447
0.449677
0.383137
0.326879
0.278693
0.23575
0.195484
0.156411
0.118547
0.0832333
0.0524977
0.028215
0.0108287
0.000115013
-0.00471258
-0.00496883
-0.0021719
0.00220146
0.00683603
0.0105823
0.0124857
0.0118793
0.00850039
0.00258312
-0.0051877
-0.013919
-0.0229165
-0.0320993
-0.042463
-0.0557775
-0.0737073
-0.0967916
-0.123829
-0.152043
-0.178026
-0.199021
-0.213862
-0.22328
-0.229093
-0.232877
-0.234746
-0.232922
-0.224361
-0.206208
-0.177434
-0.138999
-0.0962896
-0.0564618
-0.0260014
-0.00848665
-0.00344992
-0.00670147
-0.0118588
-0.012421
-0.00467653
0.0115466
0.0357327
0.066287
0.0983293
0.124058
0.135489
0.126392
0.0940733
0.0404408
-0.0280906
-0.101958
-0.170708
-0.225523
-0.264362
-0.287072
-0.294041
-0.287165
-0.269145
-0.242896
-0.211123
-0.175879
-0.138733
-0.10103
-0.0642816
-0.0302473
-0.000824165
0.0221677
0.0373029
0.0438564
0.0420091
0.0329077
0.0185873
0.00177822
-0.0144064
-0.0270652
-0.0336632
-0.0322227
-0.0209976
0.000252724
0.0289495
0.0607634
0.090587
0.113498
0.125662
0.124996
0.111499
0.087244
0.0560442
0.0229133
-0.00725641
-0.0303085
-0.0435161
-0.0464233
-0.0393583
-0.0247178
-0.0062325
0.0124885
0.0290545
0.0430555
0.05625
0.0720957
0.0947238
0.129824
0.184316
0.254123
0.323461
0.372578
0.384888
0.353122
0.282145
0.187672
0.091751
0.0168732
-0.0258799
-0.032675
0.0394407
0.236128
0.51198
0.781972
0.974176
1.04754
0.996371
0.842827
0.62577
0.394337
0.204992
0.0875001
0.0264756
0.00122762
0
0.0179788
0.0541923
0.108225
0.179718
0.268133
0.372881
0.497923
0.669395
1.03195
1.56681
2.15625
2.79212
3.4827
4.18415
4.74498
4.93067
4.53651
3.5218
2.07418
0.554045
-0.651575
-1.26506
-1.12351
-0.755256
-0.242002
0.224858
0.504828
0.580599
0.628373
0.671884
0.71358
0.753493
0.790485
0.823004
0.850044
0.87191
0.890499
0.909012
0.931196
0.960423
0.998075
1.04417
1.09808
1.15849
1.22357
1.29135
1.36004
1.42821
1.49494
1.55984
1.62318
1.68587
1.74947
1.81607
1.8882
1.96846
2.05927
2.16252
2.27921
2.40919
2.55166
2.70502
2.86691
3.03426
3.20341
3.37023
3.52997
3.67731
3.80738
3.9167
4.00313
4.06603
4.10604
4.1247
4.12367
4.10405
4.06562
4.00718
3.92692
3.82244
3.6915
3.53374
3.35168
3.15102
2.94021
2.72937
2.52907
2.34956
2.19695
2.07344
1.97776
1.90616
1.85373
1.81539
1.78661
1.76375
1.744
1.72584
1.70864
1.69259
1.67846
1.66731
1.66012
1.65748
154
372
585
825
1066
1270
1461
1668
1916
2143
2348
2577
2796
2996
3194
3423
3661
3720
3726
3263
3431
3601
3560
3712
0
0
0
0
0
0
0
0
0
0
0
0
0
0
0
0
0
0
0
0
0
0
0
0
0
0
0
0
0
0
0
0
0
0
0
0
0
0
0
0
0
0
0
0
0
0
0
0
0
0
0
0
0
0
0
0
0
0
0
0
0
0
0
0
0
0
0
0
0
0
0
0
0
0
0
0
0
0
0
0
0
0
0
0
0
0
0
0
0
0
0
0
0
0
0
0
0
0
0
0
0
0
0
0
0
0
0
0
0
0
0
0
0
0
0
0
0
0
0
0
0
0
0
0
0
0
0
0
0
0
0
0
0
0
0
0
0
0
0
0
0
0
0
0
0
0
0
0
0
0
0
0
0
0
0
0
0
0
0
0
0
0
0
0
0
0
0
0
0
0
0
0
0
0
0
0
0
0
0
0
0
0
0
0
0
0
0
0
0
0
0
0
0
0
0
0
0
0
0
0
0
0
0
0
0
0
0
0
0
0
0
0
0
0
0
0
0
0
0
0
0
0
0
0
0
0
0
0
0
0
0
0
0
0
0
0
0
0
0
0
0
0
0
0
0
0
0
0
0
0
0
0
0
0
0
0
0
0
0
0
0
0
0
0
0
0
0
0
0
0
0
0
0
0
0
0
0
0
0
0
0
0
0
0
0
0
0
0
0
0
0
0
0
0
0
0
0
0
0
0
0
0
0
0
0
0
0
0
0
0
0
0
0
0
0
0
0
0
0
0
0
0
0
0
0
0
0
0
0
0
0
0
0
0
0
0
0
0
0
0
0
0
0
0
0
0
0
0
0
0
0
0
0
0
0
0
0
0
0
0
0
0
0
0
0
0
0
0
0
0
0
0
0
0
0
0
0
0
0
0
0
0
0
0
0
0
0
0
0
0
0
0
0
0
0
0
0
0
0
0
0
0
0
0
0
0
0
0
0
0
0
0
0
0
0
0
0
0
0
0
0
0
0
0
0
0
0
0
0
0
0
0
0
0
0
0
0
0
0
0
0
0
0
0
0
0
0
0
0
0
0
0
0
0
0
0
0
0
0
0
0
0
0
0
0
0
0
0
0
0
0
0
0
0
0
0
0
0
0
0
0
0
0
0
0
0
0
0
0
0
0
0
0
0
0
0
0
0
0
0
0
0
0
0
0
0
0
0
0
0
0
0
0
0
0
0
0
0
0
0
0
0
0
0
0
0
0
0
0
0
0
0
0
0
0
0
0
0
0
0
0
0
0
0
0
0
0
0
0
0
0
0
0
0
0
0
0
0
0
0
0
0
0
0
0
0
0
0
0
0
0
0
0
0
0
0
0
0
0
0
0
0
0
0
0
0
0
0
0
0
0
0
0
0
0
0
0
0
0
0
0
0
0
0
0
0
0
0
0
0
0
0
0
0
0
0
0
0
0
0
0
0
0
0
0
0
0
0
0
0
0
0
0
0
0
0
0
0
0
0
0
0
0
0
0
0
0
0
0
0
0
0
0
0
0
0
0
0
0
0
0
0
0
0
0
0
0
0
0
0
0
0
0
0
0
0
0
0
0
0
0
0
0
0
0
0
0
0
0
0
0
0
0
0
0
0
0
0
0
0
0
0
0
0
0
0
0
0
0
0
0
0
0
0
0
0
0
0
0
0
0
0
0
0
0
0
0
0
0
0
0
0
0
0
0
0
0
0
0
0
0
0
0
0
0
0
0
0
0
0
0
0
0
0
0
0
0
0
0
0
0
0
0
0
0
0
0
0
0
0
0
0
0
0
0
0
0
0
0
0
0
0
0
0
0
0
0
0
0
0
0
0
0
0
0
0
0
0
0
0
0
0
0
0
0
0
0
0
0
0
0
0
0
0
0
0
0
0
0
0
0
0
0
0
0
0
0
0
0
0
0
0
0
0
0
0
0
0
0
0
0
0
0
0
0
0
0
0
0
0
0
0
0
0
0
0
0
0
0
0
0
0
0
0
0
0
0
0
0
0
0
0
0
0
0
0
0
0
0
0
0
0
0
0
0
0
0
0
0
0
0
0
0
0
0
0
0
0
0
0
0
0
0
0
0
0
0
0
0
0
0
0
0
0
0
0
0
0
0
0
0
0
0
0
0
0
0
0
0
0
0
0
0
0
0
0
0
0
0
0
0
0
0
0
0
0
0
0
0
0
0
0
0
0
0
0
0
0
0
0
0
0
0
0
0
0
0
0
0
0
0
0
0
0
0
0
0
0
0
0
0
0
0
0
0
0
0
0
0
0
0
0
0
0
0
0
0
0
0
0
0
0
0
0
0
0
0
0
0
0
0
0
0
0
0
0
0
0
0
0
0
0
0
0
0
0
0
0
0
0
0
0
0
0
0
0
0
0
0
0
0
0
0
0
0
0
0
0
0
0
0
0
0
0
0
0
0
0
0
0
0
0
0
0
0
0
0
0
0
0
0
0
0
0
0
0
0
0
0
0
0
0
0
0
0
0
0
0
0
0
0
0
0
0
0
0
0
0
0
0
0
0
0
0
0
0
0
0
0
0
0
0
0
0
0
0
0
0
0
0
0
0
0
0
0
0
0
0
0
0
0
0
0
0
0
0
0
0
0
0
0
0
0
0
0
0
0
0
0
0
0
0
0
0
0
0
0
0
0
0
0
0
0
0
0
0
0
0
0
0
0
0
0
0
0
0
0
0
0
0
0
0
0
0
0
0
0
0
0
0
0
0
0
0
0
0
0
0
0
0
0
0
0
0
0
0
0
0
0
0
0
0
0
0
0
0
0
0
0
0
0
0
0
0
0
0
0
0
0
0
0
0
0
0
0
0
0
0
0
0
0
0
0
0
0
0
0
0
0
0
0
0
0
0
0
0
0
0
0
0
0
0
0
0
0
0
0
0
0
0
0
0
0
0
0
0
0
0
0
0
0
0
0
0
0
0
0
0
0
0
0
0
0
0
0
0
0
0
0
0
0
0
0
0
0
0
0
0
0
0
0
0
0
0
0
0
0
0
0
0
0
0
0
0
0
0
0
0
0
0
0
0
0
0
0
0
0
0
0
0
0
0
0
0
0
0
0
0
0
0
0
0
0
0
0
0
0
0
0
0
0
0
0
0
0
0
0
0
0
0
0
0
0
0
0
0
0
0
0
0
0
0
0
0
0
0
0
0
0
0
0
0
0
0
0
0
0
0
0
0
0
0
0
0
0
0
0
0
0
0
0
0
0
0
0
0
0
0
0
0
0
0
0
0
0
0
0
0
0
0
0
0
0
0
0
0
0
0
0
0
0
0
0
0
0
0
0
0
0
0
0
0
0
0
0
0
0
0
0
0
0
0
0
0
0
0
0
0
0
0
0
0
0
0
0
0
0
0
0
0
0
0
0
0
0
0
0
0
0
0
0
0
0
0
0
0
0
0
0
0
0
0
0
0
0
0
0
0
0
0
0
0
0
0
0
0
0
0
0
0
0
0
0
0
0
0
0
0
0
0
0
0
0
0
0
0
0
0
0
0
0
0
0
0
0
0
0
0
0
0
0
0
0
0
0
0
0
0
0
0
0
0
0
0
0
0
0
0
0
0
0
0
0
0
0
0
0
0
0
0
0
0
0
0
0
0
0
0
0
0
0
0
0
0
0
0
0
0
0
0
0
0
0
0
0
0
0
0
0
0
0
0
0
0
0
0
0
0
0
0
0
0
0
0
0
0
0
0
0
0
0
0
0
0
0
0
0
0
0
0
0
0
0
0
0
0
0
0
0
0
0
0
0
0
0
0
0
0
0
0
0
0
0
0
0
0
0
0
0
0
0
0
0
0
0
0
0
0
0
0
0
0
0
0
0
0
0
0
0
0
0
0
0
0
0
0
0
0
0
0
0
0
0
0
0
0
0
0
0
0
0
0
0
0
0
0
0
0
0
0
0
0
0
0
0
0
0
0
0
0
0
0
0
0
0
0
0
0
0
0
0
0
0
0
0
0
0
0
0
0
0
0
0
0
0
0
0
0
0
0
0
0
0
0
0
0
0
0
0
0
0
0
0
0
0
0
0
0
0
0
0
0
0
0
0
0
0
0
0
0
0
0
0
0
0
0
0
0
0
0
0
0
0
0
0
0
0
0
0
0
0
0
0
0
0
0
0
0
0
0
0
0
0
0
0
0
0
0
0
0
0
0
0
0
0
0
0
0
0
0
0
0
0
0
0
0
0
0
0
0
0
0
0
0
0
0
0
0
0
0
0
0
0
0
0
0
0
0
0
0
0
0
0
0
0
0
0
0
0
0
0
0
0
0
0
0
0
0
0
0
0
0
0
0
0
0
0
0
0
0
0
0
0
0
0
0
0
0
0
0
0
0
0
0
0
0
0
0
0
0
0
0
0
0
0
0
0
0
0
0
0
0
0
0
0
0
0
0
0
0
0
0
0
0
0
0
0
0
0
0
0
0
0
0
0
0
0
0
0
0
0
0
0
0
0
0
0
0
0
0
0
0
0
0
0
0
0
0
0
0
0
0
0
0
0
0
0
0
0
0
0
0
0
0
0
0
0
0
0
0
0
0
0
0
0
0
0
0
0
0
0
0
0
0
0
0
0
0
0
0
0
0
0
0
0
0
0
0
0
0
0
0
0
0
0
0
0
0
0
0
0
0
0
0
0
0
0
0
0
0
0
0
0
0
0
0
0
0
0
0
0
0
0
0
0
0
0
0
0
0
0
0
0
0
0
0
0
0
0
0
0
0
0
0
0
0
0
0
0
0
0
0
0
0
0
0
0
0
0
0
0
0
0
0
0
0
0
0
0
0
0
0
0
0
0
0
0
0
0
0
0
0
0
0
0
0
0
0
0
0
0
0
0
0
0
0
0
0
0
0
0
0
0
0
0
0
0
0
0
0
0
0
0
0
0
0
0
0
0
0
0
0
0
0
0
0
0
0
0
0
0
0
0
0
0
0
0
0
0
0
0
0
0
0
0
0
0
0
0
0
0
0
0
0
0
0
0
0
0
0
0
0
0
0
0
0
0
0
0
0
0
0
0
0
0
0
0
0
0
0
0
0
0
0
0
0
0
0
0
0
0
0
0
0
0
0
0
0
0
0
0
0
0
0
0
0
0
0
0
0
0
0
0
0
0
0
0
0
0
0
0
0
0
0
0
0
0
0
0
0
0
0
0
0
0
0
0
0
0
0
0
0
0
0
0
0
0
0
0
0
0
0
0
0
0
0
0
0
0
0
0
0
0
0
0
0
0
0
0
0
0
0
0
0
0
0
0
0
0
0
0
0
0
0
0
0
0
0
0
0
0
0
0
0
0
0
0
0
0
0
0
0
0
0
0
0
0
0
0
0
0
0
0
0
0
0
0
0
0
0
0
0
0
0
0
0
0
0
0
0
0
0
0
0
0
0
0
0
0
0
0
0
0
0
0
0
0
0
0
0
0
0
0
0
0
0
0
0
0
0
0
0
0
0
0
0
0
0
0
0
0
0
0
0
0
0
0
0
0
0
0
0
0
0
0
0
0
0
0
0
0
0
0
0
0
0
0
0
0
0
0
0
0
0
0
0
0
0
0
0
0
0
0
0
0
0
0
0
0
0
0
0
0
0
0
0
0
0
0
0
0
0
0
0
0
0
0
0
0
0
0
0
0
0
0
0
0
0
0
0
0
0
0
0
0
0
0
0
0
0
0
0
0
0
0
0
0
0
0
0
0
0
0
0
0
0
0
0
0
0
0
0
0
0
0
0
0
0
0
0
0
0
0
0
0
0
0
0
0
0
0
0
0
0
0
0
0
0
0
0
0
0
0
0
0
0
0
0
0
0
0
0
0
0
0
0
0
0
0
0
0
0
0
0
0
0
0
0
0
0
0
0
0
0
0
0
0
0
0
0
0
0
0
0
0
0
0
0
0
0
0
0
0
0
0
0
0
0
0
0
0
0
0
0
0
0
0
0
0
0
0
0
0
0
0
0
0
0
0
0
0
0
0
0
0
0
0
0
0
0
0
0
0
0
0
0
0
0
0
0
0
0
0
0
0
0
0
0
0
0
0
0
0
0
0
0
0
0
0
0
0
0
0
0
0
0
0
0
0
0
0
0
0
0
0
0
0
0
0
0
0
0
0
0
0
0
0
0
0
0
0
0
0
0
0
0
0
0
0
0
0
0
0
0
0
0
0
0
0
0
0
0
0
0
0
0
0
0
0
0
0
0
0
0
0
0
0
0
0
0
0
0
0
0
0
0
0
0
0
0
0
0
0
0
0
0
0
0
0
0
0
0
0
0
0
0
0
0
0
0
0
0
0
0
0
0
0
0
0
0
0
0
0
0
0
0
0
0
0
0
0
0
0
0
0
0
0
0
0
0
0
0
0
0
0
0
0
0
0
0
0
0
0
0
0
0
0
0
0
0
0
0
0
0
0
0
0
0
0
0
0
0
0
0
0
0
0
0
0
0
0
0
0
0
0
0
0
0
0
0
0
0
0
0
0
0
0
0
0
0
0
0
0
0
0
0
0
0
0
0
0
0
0
0
0
0
0
0
0
0
0
0
0
0
0
0
0
0
0
0
0
0
0
0
0
0
0
0
0
0
0
0
0
0
0
0
0
0
0
0
0
0
0
0
0
0
0
0
0
0
0
0
0
0
0
0
0
0
0
0
0
0
0
0
0
0
0
0
0
0
0
0
0
0
0
0
0
0
0
0
0
0
0
0
0
0
0
0
0
0
0
0
0
0
0
0
0
0
0
0
0
0
0
0
0
0
0
0
0
0
0
0
0
0
0
0
0
0
0
0
0
0
0
0
0
0
0
0
0
0
0
0
0
0
0
0
0
0
0
0
0
0
0
0
0
0
0
0
0
0
0
0
0
0
0
0
0
0
0
0
0
0
0
0
0
0
0
0
0
0
0
0
0
0
0
0
0
0
0
0
0
0
0
0
0
0
0
0
0
0
0
0
0
0
0
0
0
0
0
0
0
0
0
0
0
0
0
0
0
0
0
0
0
0
0
0
0
0
0
0
0
0
0
0
0
0
0
0
0
0
0
0
0
0
0
0
0
0
0
0
0
0
0
0
0
0
0
0
0
0
0
0
0
0
0
0
0
0
0
0
0
0
0
0
0
0
0
0
0
0
0
0
0
0
0
0
0
0
0
0
0
0
0
0
0
0
0
0
0
0
0
0
0
0
0
0
0
0
0
0
0
0
0
0
0
0
0
0
0
0
0
0
0
0
0
0
0
0
0
0
0
0
0
0
0
0
0
0
0
0
0
0
0
0
0
0
0
0
0
0
0
0
0
0
0
0
0
0
0
0
0
0
0
0
0
0
0
0
0
0
0
0
0
0
0
0
0
0
0
0
0
0
0
0
0
0
0
0
0
0
0
0
0
0
0
0
0
0
0
0
0
0
0
0
0
0
0
0
0
0
0
0
0
0
0
0
0
0
0
0
0
0
0
0
0
0
0
0
0
0
0
0
0
0
0
0
0
0
0
0
0
0
0
0
0
0
0
0
0
0
0
0
0
0
0
0
0
0
0
0
0
0
0
0
0
0
0
0
0
0
0
0
0
0
0
0
0
0
0
0
0
0
0
0
0
0
0
0
0
0
0
0
0
0
0
0
0
0
0
0
0
0
0
0
0
0
0
0
0
0
0
0
0
0
0
0
0
0
0
0
0
0
0
0
0
0
0
0
0
0
0
0
0
0
0
0
0
0
0
0
0
0
0
0
0
0
0
0
0
0
0
0
0
0
0
0
0
0
0
0
0
0
0
0
0
0
0
0
0
0
0
0
0
0
0
0
0
0
0
0
0
0
0
0
0
0
0
0
0
0
0
0
0
0
0
0
0
0
0
0
0
0
0
0
0
0
0
0
0
0
0
0
0
0
0
0
0
0
0
0
0
0
0
0
0
0
0
0
0
0
0
0
0
0
0
0
0
0
0
0
0
0
0
0
0
0
0
0
0
0
0
0
0
0
0
0
0
0
0
0
0
0
0
0
0
0
0
0
0
0
0
0
0
0
0
0
0
0
0
0
0
0
0
0
0
0
0
0
0
0
0
0
0
0
0
0
0
0
0
0
0
0
0
0
0
0
0
0
0
0
0
0
0
0
0
0
0
0
0
0
0
0
0
0
0
0
0
0
0
0
0
0
0
0
0
0
0
0
0
0
0
0
0
0
0
0
0
0
0
0
0
0
0
0
0
0
0
0
0
0
0
0
0
0
0
0
0
0
0
0
0
0
0
0
0
0
0
0
0
0
0
0
0
0
0
0
0
0
0
0
0
0
0
0
0
0
0
0
0
0
0
0
0
0
0
0
0
0
0
0
0
0
0
0
0
0
0
0
0
0
0
0
0
0
0
0
0
0
0
0
0
0
0
0
0
0
0
0
0
0
0
0
0
0
0
0
0
0
0
0
0
0
0
0
0
0
0
0
0
0
0
0
0
0
0
0
0
0
0
