3.70905
3.5369
3.33111
3.09793
2.84266
2.56928
2.28154
1.98374
1.68106
1.37949
1.08559
0.806028
0.547039
0.313873
0.110534
-0.0602104
-0.19819
-0.306065
-0.38804
-0.449025
-0.493789
-0.52626
-0.549132
-0.563788
-0.570505
-0.568987
-0.558863
-0.539865
-0.512179
-0.476574
-0.434352
-0.388525
-0.343158
-0.302054
-0.267908
-0.24173
-0.222768
-0.208942
-0.197627
-0.186457
-0.173963
-0.159744
-0.1439
-0.126858
-0.109214
-0.0916424
-0.0749161
-0.0599476
-0.0477711
-0.0394798
-0.0360619
-0.0382008
-0.0461109
-0.0594536
-0.0773502
-0.0984627
-0.121078
-0.143324
-0.163269
-0.178897
-0.188268
-0.189776
-0.182347
-0.165689
-0.140374
-0.107714
-0.0704155
-0.0322807
0.00266953
0.0310669
0.0508896
0.0619144
0.0658081
0.0658371
0.0662743
0.0716709
0.0861114
0.11245
0.152232
0.206345
0.275683
0.361218
0.464479
0.595605
0.783927
1.05285
1.3512
1.60991
1.76881
1.79923
1.71119
1.54325
1.34245
1.14682
0.978381
0.834
0.706259
0.591408
0.48814
0.396098
0.315273
0.245709
0.187225
0.139325
0.101054
0.0711151
0.047382
0.0256012
0
-0.0423073
-0.0995247
-0.17485
-0.268935
-0.379784
-0.503128
-0.633107
-0.166614
0.985987
3.10015
6.29027
10.2441
14.2186
17.4061
19.3055
19.7106
18.4201
15.1893
10.1594
4.30325
-0.775126
-3.72213
-4.26608
-3.24217
-1.8463
-0.847177
-0.370591
-0.200424
-0.12266
-0.0472534
0.0265541
0.0989391
0.169671
0.238573
0.305612
0.370885
0.434635
0.497257
0.55929
0.621375
0.684192
0.748356
0.814328
0.882336
0.952359
1.0242
1.09765
1.17263
1.24951
1.32919
1.41323
1.50384
1.6037
1.71566
1.84242
1.98604
2.14764
2.32703
2.52264
2.73164
2.95024
3.17421
3.39946
3.62263
3.84149
4.0551
4.26372
4.46844
4.67042
4.87043
5.0678
5.25733
5.42825
5.56757
5.66293
5.70463
5.68621
5.60398
5.45694
5.24725
4.98097
4.66916
4.32752
3.97209
3.61474
3.26225
2.92007
2.59362
2.28784
2.00691
1.75395
1.53078
1.33776
1.17393
1.03702
0.923872
0.831055
0.755675
0.695893
0.649794
0.616111
0.593829
0.581754
0.578204
0.580964
0.587491
0.595272
0.602195
0.606809
0.608375
0.606802
0.602525
0.596408
0.589494
0.582959
0.577962
0.575455
0.575988
0.579533
0.585375
0.592295
0.59867
0.602775
0.603115
0.598724
0.589373
0.575673
0.559032
0.541496
0.525466
0.51333
0.507113
0.508184
0.517088
0.533575
0.556833
0.585862
0.619878
0.658619
0.702467
0.752306
0.809201
0.873976
0.946868
1.0272
1.11366
1.20454
1.29778
1.39119
1.48235
1.56785
1.64196
1.69615
1.72114
1.70679
1.64486
1.53241
1.37447
1.18462
0.982865
0.791199
0.625567
0.487021
0.37445
0.288004
0.224928
0.180415
0.148631
0.123621
0.10001
0.0734394
0.0407555
0
-0.0498699
-0.109234
-0.178235
-0.255919
-0.340303
-0.429158
-0.520142
-0.372092
0.286403
1.84994
4.56027
8.21813
12.1564
15.5586
17.8488
18.766
18.1248
15.6718
11.3633
5.82643
0.411942
-3.41845
-4.92616
-4.44897
-3.01419
-1.61729
-0.75287
-0.423146
-0.420167
-0.444892
-0.460061
-0.46745
-0.464887
-0.451366
-0.427485
-0.39417
-0.352364
-0.302966
-0.246694
-0.184065
-0.115484
-0.0413857
0.0376644
0.120948
0.207674
0.29712
0.388778
0.482473
0.57841
0.677185
0.779789
0.887617
1.00248
1.12656
1.26232
1.41219
1.57821
1.76158
1.96231
2.17904
2.40909
2.64874
2.89366
3.13928
3.38114
3.61502
3.83592
4.03822
4.21772
4.37058
4.4934
4.58335
4.63752
4.65278
4.62736
4.55988
4.44958
4.2968
4.10332
3.87254
3.60919
3.31904
3.0104
2.6905
2.36483
2.03905
1.71902
1.41072
1.12004
0.852451
0.612569
0.403762
0.227806
0.0847042
-0.0269413
-0.109095
-0.165092
-0.20131
-0.22483
-0.241974
-0.257495
-0.274063
-0.2922
-0.310641
-0.327053
-0.338889
-0.344561
-0.343642
-0.336202
-0.322921
-0.305125
-0.284125
-0.260777
-0.235234
-0.206965
-0.175056
-0.13872
-0.0976021
-0.0522789
-0.0056675
0.0376095
0.0725513
0.0950684
0.103074
0.097028
0.0798149
0.0560604
0.031094
0.00962296
-0.00560875
-0.0134548
-0.0133072
-0.00562859
0.00778122
0.0250351
0.0449509
0.0676342
0.0946407
0.128654
0.172747
0.229459
0.299567
0.381571
0.473044
0.570935
0.671492
0.770622
0.864191
0.948007
1.01787
1.07056
1.10392
1.11649
1.10755
1.07727
1.02678
0.958157
0.874361
0.779131
0.677218
0.573343
0.471675
0.37608
0.29001
0.216126
0.156046
0.110146
0.0772892
0.0546078
0.0377007
0.0212708
0
-0.0306633
-0.0742092
-0.132384
-0.205193
-0.290799
-0.385858
-0.485949
-0.269862
0.693861
2.85314
6.28041
10.4237
14.3489
17.2761
18.857
18.9443
17.2708
13.5961
8.27146
2.53405
-1.99161
-4.26451
-4.39669
-3.35341
-2.16259
-1.36456
-1.0031
-0.906589
-0.87942
-0.838657
-0.7923
-0.74016
-0.68169
-0.616946
-0.546617
-0.471895
-0.394299
-0.315458
-0.236898
-0.159841
-0.0850369
-0.0125843
0.0581745
0.128666
0.200983
0.277657
0.361337
0.454456
0.558971
0.676288
0.807268
0.952613
1.11309
1.28962
1.4831
1.69404
1.92204
2.16526
2.42017
2.68168
2.94364
3.19961
3.44379
3.67171
3.88068
4.06984
4.23982
4.39192
4.52723
4.64632
4.74905
4.83423
4.89944
4.9413
4.95579
4.93878
4.88662
4.7968
4.66831
4.50193
4.3002
4.06713
3.80883
3.53303
3.24714
2.95722
2.6694
2.3901
2.12572
1.88219
1.6644
1.47573
1.31767
1.18973
1.08965
1.01391
0.95802
0.916954
0.886057
0.861535
0.840743
0.822251
0.805719
0.791621
0.780904
0.774623
0.773709
0.778772
0.79001
0.80719
0.829655
0.85643
0.886308
0.917923
0.949862
0.98077
1.00951
1.0353
1.05772
1.07676
1.09264
1.10565
1.11588
1.12311
1.12695
1.12689
1.12261
1.1143
1.10278
1.08955
1.07648
1.06543
1.05781
1.05425
1.0549
1.05945
1.06742
1.07856
1.09308
1.1117
1.13549
1.16558
1.20274
1.24705
1.29775
1.35352
1.41229
1.47151
1.52813
1.57824
1.61624
1.63623
1.63303
1.60243
1.54232
1.45373
1.34118
1.21228
1.0764
0.943022
0.818778
0.706614
0.608933
0.526511
0.45867
0.403631
0.358885
0.321505
0.288421
0.256745
0.224004
0.188131
0.147666
0.102343
0.0527248
0
-0.0438633
0.273633
1.17419
3.03991
6.01698
9.76178
13.5509
16.6601
18.6143
19.0868
17.7247
14.3112
9.22149
3.63591
-0.909199
-3.37832
-3.77432
-2.92866
-1.81799
-1.02121
-0.63219
-0.478759
-0.358963
-0.263358
-0.177586
-0.10068
-0.0330982
0.0256992
0.0777298
0.126014
0.173869
0.224155
0.278553
0.337415
0.400309
0.466243
0.534093
0.6032
0.673796
0.747193
0.825681
0.912198
1.00984
1.12138
1.2486
1.39219
1.55198
1.72692
1.91515
2.1142
2.32125
2.53335
2.74765
2.96162
3.17324
3.38106
3.58423
3.78239
3.97547
4.16324
4.34464
4.51743
4.67799
4.82139
4.94194
5.03373
5.09111
5.10912
5.08391
5.013
4.89559
4.73277
4.52773
4.2864
4.01775
3.73176
3.43682
3.13891
2.84305
2.55371
2.27464
2.00879
1.75838
1.52505
1.31011
1.11481
0.940443
0.788332
0.659629
0.555154
0.475616
0.42084
0.388345
0.373675
0.371898
0.378475
0.39003
0.404794
0.422565
0.44423
0.47098
0.503572
0.542446
0.585318
0.628049
0.666426
0.697722
0.721744
0.740852
0.758929
0.779754
0.805475
0.83534
0.867178
0.898812
0.928154
0.95378
0.975235
0.993015
1.00833
1.0228
1.03808
1.05568
1.07702
1.10334
1.13568
1.17476
1.22091
1.27395
1.33322
1.3976
1.46562
1.53559
1.60579
1.67463
1.74075
1.80304
1.86058
1.91249
1.9576
1.99406
2.01917
2.02993
2.02318
1.99617
1.94732
1.8769
1.78738
1.68334
1.57087
1.45678
1.3473
1.24708
1.15971
1.0874
1.031
0.990245
0.963913
0.950242
0.946715
0.948895
0.94981
0.941272
0.914969
0.863629
0.777696
0.639763
0.455333
0.236627
0
0.0984894
0.749775
2.28138
5.00769
8.91131
13.4342
17.6611
20.7398
22.1278
21.5108
18.7074
13.8812
7.88466
2.20185
-1.71754
-3.26689
-2.92249
-1.73948
-0.612293
0.0916761
0.415836
0.534646
0.5755
0.612291
0.648723
0.686259
0.726716
0.772196
0.824767
0.886096
0.957099
1.03766
1.12662
1.22207
1.32158
1.4227
1.52338
1.62231
1.71907
1.81406
1.90838
2.00353
2.10117
2.20301
2.31067
2.42567
2.54945
2.68324
2.82793
2.98386
3.15057
3.32669
3.50999
3.69766
3.88677
4.07489
4.2606
4.44391
4.62623
4.81016
4.99977
5.20435
5.44012
5.70551
5.96412
6.17389
6.30361
6.34049
6.28719
6.15214
5.94113
5.65682
5.3088
4.92649
4.53462
4.14752
3.77159
3.40962
3.06574
2.74377
2.44699
2.17816
1.93947
1.7324
1.5574
1.41382
1.29988
1.21231
1.14693
1.09891
1.06325
1.03517
1.01041
0.985547
0.95823
0.92736
0.893071
0.857021
0.823006
0.795945
0.780687
0.780775
0.797434
0.829096
0.871624
0.919187
0.965548
1.00575
1.03662
1.05733
1.0693
1.07565
1.08019
1.08643
1.0966
1.11105
1.12875
1.14794
1.16638
1.1818
1.19225
1.1963
1.19303
1.18198
1.16301
1.13638
1.10274
1.06319
1.01931
0.973769
0.93069
0.894698
0.86997
0.859327
0.863593
0.88146
0.909983
0.94557
0.985175
1.02721
1.07191
1.12111
1.17913
1.25584
1.3682
1.51934
1.67877
1.80521
1.86112
1.82445
1.69432
1.48991
1.24429
0.996112
0.778324
0.59665
0.443797
0.315026
0.210324
0.130034
0.0734111
0.0387804
0.0231426
0.0214394
0.0264338
0.0297691
0.0233167
0
-0.0430965
-0.111365
-0.205319
-0.326431
-0.469977
-0.629355
-0.796825
-0.55893
0.331426
2.17157
5.10814
9.00442
13.4346
17.7475
21.1118
22.5822
21.3611
17.2705
11.1185
4.54673
-0.695969
-3.59861
-4.24615
-3.49995
-2.34503
-1.41287
-0.893419
-0.700223
-0.666187
-0.627029
-0.586449
-0.54448
-0.500691
-0.454586
-0.405714
-0.353739
-0.298512
-0.240145
-0.179048
-0.115913
-0.0516202
0.0129183
0.076962
0.140157
0.20272
0.265559
0.330294
0.399176
0.474896
0.560323
0.658204
0.770854
0.899893
1.04606
1.2091
1.38778
1.58
1.78297
1.99352
2.20837
2.42449
2.63938
2.85128
3.05929
3.26332
3.46396
3.66203
3.85822
4.05271
4.24332
4.42224
4.57737
4.69468
4.7616
4.76941
4.71417
4.59636
4.41988
4.19108
3.91796
3.61448
3.29372
2.96506
2.63467
2.30726
1.98785
1.6819
1.39508
1.13297
0.900471
0.701356
0.537794
0.410071
0.316519
0.253884
0.218357
0.205643
0.208924
0.21872
0.226536
0.225941
0.21342
0.188736
0.154665
0.116137
0.0790121
0.0487495
0.0282353
0.0187914
0.0212801
0.0353768
0.0597534
0.0922061
0.130226
0.171161
0.212544
0.25238
0.289394
0.323029
0.353328
0.380744
0.40585
0.429093
0.450638
0.470307
0.487662
0.502191
0.5136
0.521981
0.52791
0.532398
0.536692
0.541969
0.549015
0.558084
0.568577
0.579309
0.588885
0.596163
0.600643
0.602681
0.603463
0.604765
0.608581
0.616558
0.629877
0.649283
0.675026
0.706934
0.744589
0.787586
0.835749
0.889279
0.948801
1.01529
1.08991
1.17379
1.26805
1.37433
1.49519
1.63333
1.78652
1.94
2.07078
2.15429
2.16972
2.10587
1.96591
1.76942
1.54998
1.34707
1.1872
1.06598
0.970057
0.895187
0.836638
0.789082
0.747903
0.71008
0.674391
0.640928
0.610137
0.581733
0.554069
0.524313
0.488595
0.44279
0.383479
0.307573
0.21572
0.111311
0
0.129229
0.845259
2.50487
5.42495
9.5942
14.4518
18.9968
22.1635
23.167
21.637
17.6597
11.8801
5.54133
0.180192
-3.03074
-3.86245
-3.03411
-1.63725
-0.475695
0.188641
0.458808
0.510302
0.505329
0.501329
0.49927
0.500442
0.506022
0.516995
0.534152
0.558113
0.589286
0.62779
0.673371
0.725345
0.782617
0.843808
0.907409
0.972065
1.03682
1.10127
1.16559
1.23047
1.29693
1.3662
1.43956
1.51845
1.6045
1.69969
1.80635
1.92712
2.06464
2.22106
2.39754
2.59371
2.80727
3.03398
3.2679
3.50191
3.72849
3.94024
4.13034
4.29345
4.42643
4.52777
4.59718
4.63499
4.64164
4.61719
4.56109
4.47223
4.34941
4.19238
4.00169
3.77872
3.52604
3.24766
2.9489
2.63594
2.31552
1.99457
1.67993
1.37816
1.09528
0.836557
0.60621
0.407139
0.240731
0.106769
0.00357349
-0.0717369
-0.12292
-0.15408
-0.169211
-0.172598
-0.169117
-0.163472
-0.159708
-0.160931
-0.169069
-0.184772
-0.207479
-0.235679
-0.2673
-0.300136
-0.332448
-0.363205
-0.392094
-0.419513
-0.4465
-0.474362
-0.504275
-0.536921
-0.572257
-0.609509
-0.647365
-0.684318
-0.719025
-0.750617
-0.778627
-0.80294
-0.823577
-0.840476
-0.853353
-0.861713
-0.865008
-0.86291
-0.855375
-0.843082
-0.827749
-0.811902
-0.798381
-0.789858
-0.788353
-0.794868
-0.809191
-0.829884
-0.854453
-0.879678
-0.90223
-0.919262
-0.92869
-0.928373
-0.917696
-0.900246
-0.8815
-0.86679
-0.859431
-0.859405
-0.8631
-0.864164
-0.855102
-0.82897
-0.783566
-0.719351
-0.636384
-0.534441
-0.413902
-0.275827
-0.118715
0.0614143
0.25825
0.449108
0.60833
0.714499
0.756765
0.73734
0.66928
0.571154
0.461461
0.354892
0.257789
0.171236
0.0955678
0.0311867
-0.0217398
-0.063376
-0.0943191
-0.115599
-0.128613
-0.135108
-0.13721
-0.137475
-0.139025
-0.145691
-0.161501
-0.19022
-0.234695
-0.297781
-0.378555
-0.473081
-0.575107
-0.587707
0
1.52115
4.21446
8.11631
12.9408
17.9764
22.1138
24.1015
23.0219
18.7874
12.3423
5.3724
-0.380902
-3.83278
-4.89157
-4.27677
-2.99792
-1.85037
-1.18195
-0.957419
-0.969699
-0.942185
-0.910554
-0.876188
-0.83913
-0.799937
-0.759557
-0.719071
-0.679389
-0.640992
-0.603751
-0.566869
-0.528924
-0.488006
-0.441922
-0.388441
-0.325578
-0.251881
-0.16669
-0.0702983
0.0360356
0.150279
0.270023
0.392969
0.517475
0.642976
0.770147
0.900791
1.03747
1.18298
1.33982
1.50975
1.69352
1.8908
2.10025
2.31962
2.54596
2.7758
3.00536
3.23017
3.44462
3.64141
3.8118
3.94801
4.04457
4.09622
4.0981
4.04628
3.93838
3.77421
3.55617
3.28929
2.98331
2.65161
2.30565
1.95348
1.60107
1.2541
0.918115
0.598508
0.300365
0.0287397
-0.21233
-0.420252
-0.593936
-0.733906
-0.842173
-0.921911
-0.976763
-1.01089
-1.02835
-1.03284
-1.02767
-1.01582
-0.99994
-0.982483
-0.965638
-0.951286
-0.940902
-0.935544
-0.935581
-0.940616
-0.949402
-0.959956
-0.969444
-0.974744
-0.973098
-0.962745
-0.943378
-0.91629
-0.884108
-0.850188
-0.81782
-0.789345
-0.765854
-0.746953
-0.730913
-0.715091
-0.696497
-0.672407
-0.640803
-0.60049
-0.550967
-0.492175
-0.424249
-0.347371
-0.261662
-0.167203
-0.0641469
0.047098
0.165814
0.291016
0.421148
0.552286
0.675594
0.780064
0.854674
0.891089
0.886302
0.844041
0.774163
0.690106
0.605439
0.530236
0.467073
0.415087
0.373372
0.341282
0.318064
0.302623
0.293656
0.28966
0.288804
0.289232
0.289377
0.288235
0.285586
0.282099
0.279269
0.279204
0.284288
0.296621
0.317744
0.348655
0.389652
0.440305
0.499638
0.566382
0.639247
0.71711
0.799063
0.884503
0.972604
1.06114
1.14545
1.21882
1.27342
1.30155
1.29688
1.25551
1.17661
1.06262
0.919164
0.754517
0.579251
0.403975
0.237033
0.0858479
-0.042187
-0.142387
-0.212428
-0.252568
-0.265545
-0.256115
-0.230298
-0.194549
-0.155129
-0.117666
-0.0875318
-0.0708346
-0.0726347
-0.0969838
-0.145856
-0.218038
-0.308562
-0.409094
-0.476715
0
1.33449
3.84492
7.60683
12.2694
17.0707
21.0403
23.2332
22.9119
19.7719
14.2318
7.55006
1.46924
-2.55964
-4.06968
-3.65303
-2.40058
-1.2044
-0.43724
-0.0745106
0.0393414
0.0650756
0.107373
0.155788
0.210386
0.27234
0.342909
0.423401
0.515234
0.619916
0.738891
0.873285
1.02361
1.18952
1.36965
1.56168
1.7625
1.96854
2.17607
2.38168
2.5825
2.77657
2.96301
3.14212
3.3154
3.48531
3.65493
3.82743
4.00555
4.19108
4.38456
4.58524
4.79134
5.00045
5.21002
5.41787
5.62248
5.82305
6.01945
6.21192
6.40059
6.58486
6.76248
6.92802
7.07242
7.18557
7.25615
7.27359
7.22963
7.11938
6.94166
6.69919
6.39874
6.05292
5.68074
5.29874
4.91804
4.54578
4.18844
3.85167
3.53986
3.25609
3.00217
2.77872
2.58573
2.42256
2.28724
2.17711
2.09016
2.02298
1.97133
1.93128
1.89962
1.87415
1.85357
1.8371
1.82403
1.81315
1.80243
1.78943
1.77187
1.74824
1.7182
1.68259
1.64313
1.60193
1.56101
1.52194
1.48591
1.454
1.42721
1.40653
1.39285
1.38687
1.38899
1.39913
1.41661
1.4402
1.46805
1.49756
1.52528
1.54738
1.56033
1.56137
1.54898
1.52313
1.48538
1.43863
1.38675
1.33391
1.28399
1.23975
1.20267
1.17326
1.15137
1.13619
1.1261
1.11876
1.11145
1.10154
1.08687
1.0661
1.03888
1.00598
0.969094
0.930623
0.893185
0.859148
0.830252
0.807433
0.790941
0.780477
0.775351
0.774722
0.777731
0.783658
0.791905
0.801895
0.812973
0.824327
0.834929
0.843539
0.848871
0.849741
0.845252
0.834975
0.819078
0.798391
0.774395
0.749139
0.725062
0.704772
0.690759
0.685112
0.689284
0.703992
0.729284
0.764775
0.809996
0.864709
0.928888
1.00288
1.08805
1.18763
1.3063
1.44401
1.58607
1.70886
1.78868
1.80787
1.75892
1.64584
1.48313
1.29302
1.10166
0.930779
0.786157
0.664456
0.563216
0.481472
0.41442
0.356291
0.301937
0.248112
0.193991
0.140722
0.090202
0.0435623
0
-0.0382565
-0.0813484
-0.134337
-0.200888
-0.281925
-0.375065
-0.475
-0.321664
0.607501
2.79377
6.36552
10.8098
15.1615
18.5372
20.4816
20.8107
19.2834
15.6685
10.2571
4.20665
-0.850802
-3.73825
-4.38231
-3.63725
-2.54476
-1.72662
-1.28941
-1.07421
-0.939315
-0.860644
-0.791208
-0.726519
-0.664728
-0.603477
-0.540235
-0.473129
-0.40167
-0.326828
-0.251606
-0.179725
-0.11431
-0.0567192
-0.00593719
0.0412643
0.0895081
0.143647
0.207246
0.281594
0.367109
0.463714
0.570833
0.687733
0.813852
0.948955
1.09312
1.24657
1.40943
1.58153
1.76222
1.95037
2.1445
2.343
2.54439
2.7475
2.95166
3.15657
3.36219
3.56843
3.77439
3.97631
4.1655
4.32953
4.45574
4.53319
4.55456
4.51696
4.4219
4.27434
4.0812
3.84929
3.58687
3.30285
3.00455
2.69694
2.38349
2.06788
1.75482
1.44978
1.15854
0.886574
0.638416
0.417215
0.224632
0.0614191
-0.071652
-0.17401
-0.247047
-0.293327
-0.315134
-0.314804
-0.295171
-0.259878
-0.213355
-0.160453
-0.105865
-0.0534119
-0.00528317
0.0374029
0.0742386
0.105603
0.132441
0.155969
0.177352
0.197379
0.216138
0.232961
0.246552
0.255362
0.258144
0.254423
0.244727
0.230494
0.213703
0.196387
0.180133
0.16573
0.153424
0.14293
0.133535
0.124245
0.114021
0.102159
0.0886013
0.0741291
0.0603037
0.0491081
0.042606
0.0429617
0.049395
0.0572834
0.0603285
0.0529642
0.032756
0.00172234
-0.0340208
-0.0661739
-0.0869595
-0.0934835
-0.0878313
-0.0709013
-0.0459665
-0.0178917
0.00856342
0.0297976
0.0440146
0.051325
0.0533215
0.05229
0.0503279
0.0486408
0.0472643
0.0454536
0.0421192
0.0363018
0.027627
0.0165813
0.00454063
-0.00645294
-0.0140795
-0.0162245
-0.0112366
0.00187664
0.0234795
0.0534931
0.0916414
0.137648
0.191176
0.252105
0.320384
0.395838
0.478026
0.566254
0.659564
0.756614
0.855314
0.95206
1.04072
1.11287
1.15961
1.17259
1.14611
1.07912
0.976516
0.848772
0.709942
0.574462
0.452617
0.346598
0.255879
0.180876
0.120963
0.0750105
0.0417089
0.0196415
0.00772648
0.00391407
0.00459776
0.00502119
0
-0.0111782
-0.0362653
-0.0771124
-0.133525
-0.203373
-0.282964
-0.36746
-0.0884541
0.703827
2.30146
5.00534
8.86303
13.4375
17.8533
21.0971
22.3376
21.1041
17.3949
11.8081
5.56305
0.175553
-3.18577
-4.24836
-3.64211
-2.37015
-1.20221
-0.432928
-0.0253028
0.141882
0.153207
0.169101
0.189636
0.217345
0.254547
0.302674
0.361827
0.430855
0.507713
0.589813
0.674387
0.758894
0.841383
0.920722
0.996659
1.06977
1.14131
1.213
1.28688
1.36506
1.44969
1.54276
1.64613
1.76143
1.88999
2.03281
2.19034
2.36231
2.54761
2.74422
2.94935
3.15971
3.37193
3.58303
3.79069
3.99345
4.19053
4.38151
4.56585
4.7421
4.90788
5.05992
5.194
5.30519
5.38887
5.44111
5.45844
5.43777
5.37636
5.2719
5.12283
4.92887
4.69164
4.41662
4.11272
3.78991
3.45811
3.12751
2.80826
2.50946
2.2382
1.99882
1.79277
1.61873
1.47249
1.34837
1.24033
1.14314
1.05319
0.968912
0.890801
0.820634
0.760782
0.713316
0.679344
0.658726
0.650194
0.65177
0.661307
0.676855
0.697041
0.721142
0.74877
0.779584
0.812991
0.848052
0.883387
0.917248
0.947894
0.973962
0.9948
1.01065
1.02268
1.03276
1.0432
1.0563
1.07396
1.09729
1.1267
1.16185
1.20175
1.24467
1.28806
1.32887
1.36399
1.39072
1.4071
1.41207
1.40545
1.38774
1.35977
1.32241
1.27643
1.22276
1.1621
1.09463
1.02312
0.954991
0.89979
0.866831
0.862688
0.889503
0.944889
1.02338
1.1186
1.22498
1.33695
1.45172
1.56362
1.66255
1.73532
1.7687
1.75352
1.68791
1.57833
1.43801
1.28376
1.13213
0.992736
0.867481
0.75637
0.659701
0.577461
0.508776
0.452191
0.405916
0.368003
0.336451
0.309136
0.28377
0.257865
0.228733
0.193569
0.149629
0.0944829
0.024932
-0.0636275
-0.170578
-0.291687
-0.420429
-0.468408
0
1.29526
3.67921
7.20213
11.595
16.229
20.1777
22.4028
22.0574
18.8542
13.3341
6.81476
0.930195
-3.04321
-4.68556
-4.45428
-3.27118
-1.9962
-1.11421
-0.720273
-0.675441
-0.666393
-0.625094
-0.573668
-0.512325
-0.441829
-0.364
-0.282645
-0.204291
-0.135976
-0.0831616
-0.0482628
-0.0298007
-0.0224894
-0.0183047
-0.00827706
0.0155265
0.0579466
0.118532
0.195184
0.286569
0.392107
0.511992
0.647493
0.800859
0.974797
1.17166
1.39254
1.63655
1.90051
2.1791
2.46559
2.75284
3.0345
3.30598
3.56503
3.8118
4.04845
4.27824
4.50443
4.72922
4.95239
5.1644
5.34743
5.48195
5.55363
5.5573
5.49631
5.37809
5.20871
4.98997
4.72729
4.43172
4.11203
3.77464
3.42561
3.07146
2.71865
2.37329
2.04092
1.72618
1.43282
1.16381
0.921457
0.707477
0.522921
0.369031
0.2489
0.164561
0.110332
0.0751366
0.0470811
0.0158132
-0.0254789
-0.0790809
-0.143068
-0.212738
-0.282613
-0.348571
-0.409153
-0.46452
-0.515128
-0.56161
-0.604405
-0.643488
-0.678383
-0.708423
-0.733125
-0.752553
-0.767306
-0.778365
-0.786759
-0.793182
-0.797707
-0.799761
-0.798359
-0.792533
-0.7818
-0.766537
-0.747899
-0.727752
-0.708134
-0.690692
-0.676208
-0.664352
-0.65373
-0.642171
-0.627161
-0.606409
-0.578203
-0.541341
-0.495206
-0.43978
-0.375531
-0.30325
-0.223874
-0.138311
-0.0473001
0.0486622
0.149317
0.254532
0.364123
0.477661
0.594364
0.712472
0.828601
0.9372
1.03056
1.10087
1.14136
1.14702
1.1156
1.04848
0.951085
0.832493
0.704139
0.577856
0.4627
0.362132
0.276299
0.20523
0.148868
0.106256
0.0757134
0.0550535
0.0414774
0.0311983
0.0192394
0
-0.0271128
-0.0717442
-0.136912
-0.226688
-0.338902
-0.467004
-0.602006
-0.710044
-0.209665
1.10187
3.43475
6.82001
10.9879
15.3117
18.9055
20.8569
20.5095
17.7038
12.9082
7.16835
1.81472
-2.01905
-3.83693
-3.91093
-3.00846
-1.92234
-1.12446
-0.717034
-0.598824
-0.592402
-0.584374
-0.574632
-0.562371
-0.546521
-0.525997
-0.499808
-0.46721
-0.427848
-0.381851
-0.329832
-0.27282
-0.211943
-0.148281
-0.0827196
-0.0158455
0.0521261
0.1214
0.192644
0.267029
0.346224
0.432324
0.527676
0.634624
0.755211
0.890913
1.0424
1.20958
1.39161
1.58707
1.79419
2.01105
2.23573
2.46646
2.70157
2.93949
3.17864
3.41728
3.65314
3.88268
4.10067
4.30019
4.4727
4.6088
4.70089
4.74088
4.72071
4.6339
4.47784
4.25582
3.97769
3.65845
3.31597
2.96758
2.62277
2.28647
1.96358
1.6584
1.37461
1.11521
0.882333
0.677089
0.499536
0.348753
0.22307
0.12063
0.0394117
-0.0227983
-0.0680628
-0.0983372
-0.115588
-0.121895
-0.119479
-0.110648
-0.0976698
-0.0826464
-0.0673714
-0.0532784
-0.0414656
-0.0327177
-0.0275137
-0.0259951
-0.0278914
-0.0324776
-0.0384447
-0.0437765
-0.0459696
-0.0424635
-0.0311153
-0.0106667
0.0189302
0.0564434
0.0995913
0.14553
0.19146
0.235204
0.275498
0.312007
0.345024
0.374994
0.401849
0.424957
0.443058
0.454649
0.458636
0.455004
0.445247
0.432437
0.42091
0.415656
0.42109
0.440201
0.475101
0.526886
0.595191
0.678279
0.773296
0.876624
0.98426
1.09222
1.19668
1.29364
1.37928
1.45042
1.50411
1.53757
1.5483
1.53431
1.49441
1.42859
1.33836
1.22713
1.10007
0.962949
0.821762
0.682303
0.549398
0.427044
0.318352
0.225444
0.149469
0.0906888
0.0488156
0.0227932
0.00978556
0.0045064
0
-0.00957899
-0.0319363
-0.0715085
-0.130034
-0.20622
-0.295924
-0.392814
-0.282256
0.386513
1.88143
4.39651
7.96122
12.3394
16.9269
20.7479
22.6575
21.7748
17.9634
12.0508
5.57355
0.135822
-3.25278
-4.4778
-4.13926
-3.08457
-1.98751
-1.17676
-0.701484
-0.505371
-0.524152
-0.53787
-0.546429
-0.546441
-0.535252
-0.511327
-0.47517
-0.428334
-0.372665
-0.310283
-0.243419
-0.174112
-0.103985
-0.034127
0.0349105
0.103044
0.170555
0.238005
0.306212
0.3763
0.449784
0.528653
0.615379
0.712797
0.823834
0.951138
1.09665
1.26122
1.4444
1.64436
1.85812
2.08181
2.3112
2.54207
2.7707
2.99398
3.2096
3.41547
3.60917
3.78781
3.94761
4.08364
4.19046
4.26319
4.29651
4.28539
4.22567
4.11473
3.952
3.73931
3.48107
3.18578
2.86595
2.53296
2.1951
1.85893
1.53049
1.21515
0.917469
0.641065
0.388581
0.161643
-0.0391734
-0.214221
-0.364662
-0.492908
-0.601918
-0.694768
-0.774209
-0.842175
-0.899956
-0.948119
-0.986805
-1.0161
-1.03637
-1.04843
-1.05362
-1.05364
-1.05043
-1.04597
-1.0421
-1.04046
-1.04248
-1.04926
-1.06158
-1.07976
-1.10369
-1.13282
-1.16617
-1.20246
-1.24022
-1.27792
-1.3142
-1.34791
-1.37833
-1.40513
-1.42851
-1.44914
-1.46796
-1.486
-1.50412
-1.52287
-1.54238
-1.56239
-1.58229
-1.60127
-1.61842
-1.6329
-1.64396
-1.65116
-1.65434
-1.65371
-1.64995
-1.64401
-1.63658
-1.62767
-1.61612
-1.59957
-1.57456
-1.53718
-1.4838
-1.41194
-1.32166
-1.21515
-1.09524
-0.96582
-0.833838
-0.710378
-0.606344
-0.530307
-0.487035
-0.476696
-0.495009
-0.534383
-0.585657
-0.639812
-0.689384
-0.730389
-0.759865
-0.774658
-0.772274
-0.751158
-0.711055
-0.653285
-0.580776
-0.497793
-0.40941
-0.320894
-0.236806
-0.161265
-0.0976791
-0.0486324
-0.0157831
0
0.00367007
-0.00897198
-0.0360901
-0.074786
-0.121176
-0.170626
-0.0552319
0.519309
1.7585
3.91047
7.16016
11.4244
16.1543
20.354
22.8615
22.768
19.7761
14.3716
7.74876
1.46428
-3.11607
-5.34839
-5.50695
-4.49535
-3.27535
-2.41318
-2.00496
-1.90215
-1.90406
-1.8927
-1.87351
-1.84361
-1.80082
-1.74417
-1.67381
-1.59052
-1.49552
-1.39048
-1.2774
-1.15856
-1.03648
-0.913768
-0.792945
-0.67602
-0.564083
-0.456979
-0.353204
-0.250059
-0.144059
-0.031487
0.0910782
0.22625
0.37568
0.540292
0.7203
0.915223
1.12385
1.34416
1.57319
1.80711
2.04141
2.27144
2.49295
2.70281
2.89939
3.08268
3.25406
3.41538
3.56754
3.71031
3.84162
3.95722
4.05072
4.11536
4.14552
4.1374
4.0887
3.99767
3.86219
3.68012
3.45352
3.18644
2.88396
2.55222
2.1989
1.83322
1.46607
1.11363
0.795077
0.526055
0.317049
0.171683
0.0864156
0.0517722
0.0547363
0.0816063
0.120494
0.162406
0.202785
0.239146
0.269649
0.292793
0.307276
0.311783
0.305332
0.287788
0.260309
0.225518
0.187314
0.150348
0.11908
0.0966693
0.085137
0.0858807
0.0988556
0.121623
0.149392
0.176621
0.198116
0.20991
0.209826
0.197628
0.174782
0.143956
0.108443
0.0717142
0.03673
0.00581779
-0.0191834
-0.0368413
-0.0461878
-0.0465363
-0.0376399
-0.0216075
-0.00343266
0.0112557
0.0176691
0.0132371
-0.00164957
-0.0238472
-0.0485499
-0.0708354
-0.0873568
-0.0976352
-0.102212
-0.101818
-0.0974733
-0.0900173
-0.0797785
-0.0664447
-0.0491218
-0.0265067
0.00291824
0.0406968
0.0883621
0.147556
0.22017
0.308168
0.413377
0.540557
0.704906
0.923487
1.17709
1.41971
1.60654
1.70906
1.72143
1.65708
1.53926
1.3915
1.23226
1.0748
0.925567
0.787157
0.66107
0.548554
0.450742
0.368857
0.303922
0.256166
0.224992
0.208964
0.205771
0.212185
0.223887
0.235015
0.238638
0.228059
0.197717
0.144093
0.0664342
-0.0329215
-0.148708
-0.273383
0
0.989788
2.98863
6.16032
10.3993
15.2585
19.956
23.4627
24.7034
22.9352
18.2023
11.5578
4.76431
-0.46533
-3.22895
-3.693
-2.74343
-1.36828
-0.220512
0.467678
0.744715
0.758417
0.791713
0.832226
0.878685
0.931863
0.991066
1.05443
1.11919
1.1825
1.24223
1.29753
1.34899
1.39845
1.4485
1.50179
1.5605
1.62582
1.69809
1.77729
1.8634
1.95666
2.05783
2.16807
2.2887
2.42085
2.56509
2.72131
2.88869
3.06599
3.25181
3.44485
3.64393
3.84795
4.05563
4.2652
4.47428
4.67984
4.87845
5.06643
5.24056
5.39837
5.53828
5.65936
5.75963
5.83591
5.88611
5.90812
5.89865
5.85375
5.76955
5.64309
5.47286
5.25924
5.00475
4.71772
4.40787
4.08277
3.74964
3.41613
3.08974
2.77728
2.4845
2.21581
1.97434
1.76206
1.58003
1.4289
1.30838
1.21731
1.15449
1.12088
1.11482
1.12672
1.14526
1.16031
1.16505
1.15731
1.13947
1.11708
1.09655
1.08285
1.07675
1.0764
1.07959
1.08369
1.08591
1.08381
1.07565
1.06061
1.03886
1.01143
0.980153
0.94735
0.915556
0.887217
0.864331
0.848132
0.838896
0.835924
0.837704
0.842225
0.847366
0.8513
0.852812
0.851551
0.848124
0.844051
0.84158
0.843363
0.852035
0.869783
0.897977
0.936862
0.985799
1.04334
1.10751
1.17605
1.24667
1.31694
1.38344
1.44112
1.48465
1.50839
1.50746
1.47907
1.42346
1.34416
1.24727
1.14005
1.02943
0.920472
0.815515
0.715833
0.6224
0.535953
0.457267
0.387289
0.327088
0.27766
0.239482
0.212182
0.19503
0.18563
0.177185
0.161138
0.129356
0.0762579
0.000555801
-0.0940104
-0.199273
0
0.964353
2.93794
6.0467
10.2108
14.9987
19.534
22.6072
23.0765
20.4164
15.0951
8.49908
2.37993
-1.88664
-3.81096
-3.81265
-2.80973
-1.68098
-0.913101
-0.562453
-0.443925
-0.320341
-0.200698
-0.0923375
0.00289745
0.0811908
0.14162
0.186345
0.219976
0.24824
0.276376
0.307773
0.343049
0.381288
0.42082
0.460258
0.499408
0.539657
0.58376
0.635188
0.697332
0.772234
0.860384
0.962177
1.07811
1.20854
1.35377
1.5141
1.68972
1.88063
2.0865
2.30646
2.53901
2.78173
3.03125
3.28316
3.53225
3.77271
3.9988
4.20554
4.38917
4.54732
4.67858
4.77978
4.84737
4.88025
4.87616
4.832
4.74452
4.61137
4.43199
4.20815
3.94405
3.64673
3.32736
2.99534
2.65885
2.32622
2.00551
1.70395
1.42751
1.18044
0.964992
0.781428
0.628195
0.502354
0.400116
0.317408
0.250359
0.195675
0.150767
0.11377
0.0834728
0.0591848
0.0406172
0.0277966
0.0209225
0.0202703
0.0261562
0.0388456
0.0584507
0.0848288
0.11749
0.155522
0.197558
0.241875
0.285988
0.326787
0.361144
0.3864
0.400867
0.404221
0.397649
0.383679
0.365732
0.347497
0.332188
0.321874
0.317527
0.319316
0.326814
0.339163
0.355239
0.373913
0.394237
0.415635
0.438019
0.461826
0.487988
0.517823
0.552871
0.594681
0.644594
0.703476
0.771587
0.848438
0.933034
1.02364
1.11696
1.20841
1.29289
1.36494
1.41796
1.44497
1.44112
1.40292
1.32912
1.22179
1.087
0.934755
0.777731
0.629234
0.499495
0.391037
0.305133
0.242719
0.202715
0.18307
0.180506
0.189698
0.203654
0.215019
0.216911
0.203538
0.170753
0.116438
0.0406286
-0.0546387
-0.165722
-0.287775
-0.418707
0
1.14993
3.26471
6.46452
10.6324
15.2795
19.4998
22.1466
22.239
19.4347
14.2921
8.12171
2.46743
-1.50596
-3.39431
-3.53685
-2.68651
-1.5991
-0.758476
-0.31432
-0.178265
-0.139746
-0.0814549
-0.0208637
0.0404289
0.101516
0.161533
0.21975
0.275681
0.329162
0.380519
0.430587
0.480682
0.532457
0.587665
0.647835
0.713978
0.786399
0.864703
0.947985
1.03535
1.12632
1.22114
1.32097
1.42774
1.54384
1.67158
1.81272
1.96798
2.13685
2.31757
2.5073
2.70252
2.89957
3.09519
3.28696
3.47358
3.65489
3.83155
4.00446
4.17456
4.34214
4.50501
4.65526
4.78055
4.86657
4.8999
4.8718
4.78108
4.63421
4.44155
4.21179
3.94881
3.66149
3.35969
3.04933
2.73441
2.41941
2.10933
1.80925
1.52382
1.25706
1.01227
0.792018
0.598241
0.432145
0.294454
0.184862
0.101419
0.0407415
-0.00153141
-0.030492
-0.0517065
-0.0702295
-0.0898933
-0.112959
-0.140062
-0.170451
-0.202466
-0.234151
-0.26385
-0.290733
-0.314869
-0.33691
-0.3579
-0.378894
-0.400575
-0.422986
-0.445432
-0.466558
-0.484572
-0.497565
-0.503852
-0.502266
-0.492371
-0.474544
-0.449918
-0.42019
-0.387331
-0.353255
-0.319478
-0.286912
-0.255804
-0.225809
-0.196204
-0.166179
-0.135125
-0.102834
-0.069548
-0.0358152
-0.00223866
0.0308628
0.0637667
0.0975332
0.134009
0.175627
0.225755
0.289839
0.376516
0.493425
0.632486
0.767114
0.867159
0.906832
0.871085
0.759643
0.588287
0.386728
0.192251
0.0367397
-0.077183
-0.162716
-0.229422
-0.281251
-0.323037
-0.359446
-0.39413
-0.429325
-0.465991
-0.5044
-0.544909
-0.588505
-0.636808
-0.69211
-0.756806
-0.833274
-0.921265
-1.01845
-1.12067
-0.87094
0
1.73782
4.54564
8.4669
13.2066
17.9983
21.6635
22.9651
21.1517
16.4098
9.9171
3.40172
-1.57945
-4.24202
-4.74256
-3.88071
-2.58547
-1.50179
-0.859387
-0.587931
-0.511338
-0.425514
-0.336955
-0.247977
-0.159683
-0.0733282
0.0098917
0.0892275
0.164719
0.237463
0.309688
0.384633
0.46621
0.558513
0.66526
0.789253
0.931969
1.09335
1.27185
1.46466
1.66821
1.87863
2.09231
2.30629
2.51854
2.72804
2.93476
3.13954
3.3438
3.54931
3.75784
3.97086
4.18923
4.41295
4.64118
4.8722
5.10379
5.33344
5.55867
5.77681
5.98419
6.17505
6.34209
6.47907
6.57543
6.61787
6.59458
6.49923
6.33241
6.10046
5.81297
5.48088
5.1234
4.75526
4.38459
4.01645
3.65528
3.30489
2.96827
2.64765
2.3447
2.06083
1.79754
1.5566
1.34001
1.14985
0.987592
0.853836
0.748762
0.670892
0.616003
0.578551
0.552749
0.533354
0.516242
0.498631
0.47899
0.456734
0.431893
0.404971
0.376805
0.348563
0.321881
0.298827
0.281647
0.272391
0.273472
0.286353
0.308494
0.333731
0.354955
0.366248
0.364629
0.350735
0.328152
0.301705
0.275405
0.250813
0.227011
0.202144
0.174148
0.141734
0.105091
0.0660659
0.0277571
-0.00629272
-0.0329944
-0.0511392
-0.0602682
-0.0606605
-0.0532333
-0.0391829
-0.0198454
0.00377617
0.0308949
0.060985
0.093842
0.129706
0.169363
0.214157
0.266121
0.32912
0.409853
0.514618
0.635583
0.748009
0.821746
0.830155
0.758296
0.608114
0.399222
0.164731
-0.0571558
-0.239431
-0.384042
-0.50106
-0.594133
-0.664153
-0.713715
-0.747239
-0.76972
-0.785981
-0.800223
-0.815843
-0.835516
-0.861444
-0.895628
-0.940012
-0.996054
-1.06691
-1.15515
-1.25935
-1.37592
-1.50015
-1.15192
0
2.24002
5.71104
10.2759
15.3932
20.088
23.125
23.4038
20.4622
14.8251
7.93081
1.58176
-2.81412
-4.77563
-4.75467
-3.6891
-2.44781
-1.51212
-0.981213
-0.754731
-0.733899
-0.720023
-0.704085
-0.685254
-0.662529
-0.635601
-0.604824
-0.57093
-0.534733
-0.496833
-0.457426
-0.416302
-0.373008
-0.327101
-0.278386
-0.22704
-0.173563
-0.118546
-0.0624095
-0.00516949
0.0536795
0.115123
0.180468
0.251151
0.328603
0.414189
0.509374
0.615829
0.735487
0.870447
1.02269
1.19365
1.38373
1.59192
1.81568
2.05096
2.29265
2.53497
2.77203
2.99741
3.20352
3.38337
3.53264
3.64785
3.72618
3.76518
3.76261
3.71639
3.62481
3.48698
3.30371
3.07922
2.81888
2.52931
2.21937
1.89929
1.57813
1.26417
0.965153
0.687833
0.437597
0.218198
0.0316088
-0.121978
-0.244019
-0.337379
-0.40576
-0.453224
-0.484591
-0.505634
-0.521778
-0.537473
-0.555771
-0.578102
-0.6043
-0.632918
-0.661748
-0.688433
-0.71117
-0.729018
-0.741651
-0.749317
-0.752707
-0.752728
-0.750305
-0.746268
-0.741353
-0.736294
-0.73197
-0.729601
-0.730835
-0.737491
-0.751356
-0.773809
-0.80548
-0.846039
-0.894209
-0.947978
-1.00493
-1.06254
-1.11854
-1.17068
-1.2164
-1.25303
-1.27814
-1.28946
-1.28532
-1.26502
-1.22914
-1.17967
-1.11978
-1.05331
-0.984316
-0.916079
-0.850705
-0.78928
-0.731751
-0.677052
-0.623409
-0.568796
-0.511418
-0.449959
-0.384162
-0.316062
-0.25088
-0.195787
-0.158373
-0.145191
-0.160515
-0.205487
-0.27775
-0.371574
-0.478485
-0.588347
-0.691998
-0.783465
-0.859996
-0.918873
-0.959896
-0.987178
-1.00709
-1.02649
-1.0512
-1.08498
-1.12916
-1.18297
-1.24442
-1.31121
-1.38132
-1.45351
-1.52749
127
300
472
642
811
986
1171
1362
1569
1786
1995
2177
2354
2530
2712
2900
3071
3242
3411
3586
3188
3346
3509
3667
3409
3556
3701
0
0
0
0
0
0
0
0
0
0
0
0
0
0
0
0
0
0
0
0
0
0
0
0
0
0
0
0
0
0
0
0
0
0
0
0
0
0
0
0
0
0
0
0
0
0
0
0
0
0
0
0
0
0
0
0
0
0
0
0
0
0
0
0
0
0
0
0
0
0
0
0
0
0
0
0
0
0
0
0
0
0
0
0
0
0
0
0
0
0
0
0
0
0
0
0
0
0
0
0
0
0
0
0
0
0
0
0
0
0
0
0
0
0
0
0
0
0
0
0
0
0
0
0
0
0
0
0
0
0
0
0
0
0
0
0
0
0
0
0
0
0
0
0
0
0
0
0
0
0
0
0
0
0
0
0
0
0
0
0
0
0
0
0
0
0
0
0
0
0
0
0
0
0
0
0
0
0
0
0
0
0
0
0
0
0
0
0
0
0
0
0
0
0
0
0
0
0
0
0
0
0
0
0
0
0
0
0
0
0
0
0
0
0
0
0
0
0
0
0
0
0
0
0
0
0
0
0
0
0
0
0
0
0
0
0
0
0
0
0
0
0
0
0
0
0
0
0
0
0
0
0
0
0
0
0
0
0
0
0
0
0
0
0
0
0
0
0
0
0
0
0
0
0
0
0
0
0
0
0
0
0
0
0
0
0
0
0
0
0
0
0
0
0
0
0
0
0
0
0
0
0
0
0
0
0
0
0
0
0
0
0
0
0
0
0
0
0
0
0
0
0
0
0
0
0
0
0
0
0
0
0
0
0
0
0
0
0
0
0
0
0
0
0
0
0
0
0
0
0
0
0
0
0
0
0
0
0
0
0
0
0
0
0
0
0
0
0
0
0
0
0
0
0
0
0
0
0
0
0
0
0
0
0
0
0
0
0
0
0
0
0
0
0
0
0
0
0
0
0
0
0
0
0
0
0
0
0
0
0
0
0
0
0
0
0
0
0
0
0
0
0
0
0
0
0
0
0
0
0
0
0
0
0
0
0
0
0
0
0
0
0
0
0
0
0
0
0
0
0
0
0
0
0
0
0
0
0
0
0
0
0
0
0
0
0
0
0
0
0
0
0
0
0
0
0
0
0
0
0
0
0
0
0
0
0
0
0
0
0
0
0
0
0
0
0
0
0
0
0
0
0
0
0
0
0
0
0
0
0
0
0
0
0
0
0
0
0
0
0
0
0
0
0
0
0
0
0
0
0
0
0
0
0
0
0
0
0
0
0
0
0
0
0
0
0
0
0
0
0
0
0
0
0
0
0
0
0
0
0
0
0
0
0
0
0
0
0
0
0
0
0
0
0
0
0
0
0
0
0
0
0
0
0
0
0
0
0
0
0
0
0
0
0
0
0
0
0
0
0
0
0
0
0
0
0
0
0
0
0
0
0
0
0
0
0
0
0
0
0
0
0
0
0
0
0
0
0
0
0
0
0
0
0
0
0
0
0
0
0
0
0
0
0
0
0
0
0
0
0
0
0
0
0
0
0
0
0
0
0
0
0
0
0
0
0
0
0
0
0
0
0
0
0
0
0
0
0
0
0
0
0
0
0
0
0
0
0
0
0
0
0
0
0
0
0
0
0
0
0
0
0
0
0
0
0
0
0
0
0
0
0
0
0
0
0
0
0
0
0
0
0
0
0
0
0
0
0
0
0
0
0
0
0
0
0
0
0
0
0
0
0
0
0
0
0
0
0
0
0
0
0
0
0
0
0
0
0
0
0
0
0
0
0
0
0
0
0
0
0
0
0
0
0
0
0
0
0
0
0
0
0
0
0
0
0
0
0
0
0
0
0
0
0
0
0
0
0
0
0
0
0
0
0
0
0
0
0
0
0
0
0
0
0
0
0
0
0
0
0
0
0
0
0
0
0
0
0
0
0
0
0
0
0
0
0
0
0
0
0
0
0
0
0
0
0
0
0
0
0
0
0
0
0
0
0
0
0
0
0
0
0
0
0
0
0
0
0
0
0
0
0
0
0
0
0
0
0
0
0
0
0
0
0
0
0
0
0
0
0
0
0
0
0
0
0
0
0
0
0
0
0
0
0
0
0
0
0
0
0
0
0
0
0
0
0
0
0
0
0
0
0
0
0
0
0
0
0
0
0
0
0
0
0
0
0
0
0
0
0
0
0
0
0
0
0
0
0
0
0
0
0
0
0
0
0
0
0
0
0
0
0
0
0
0
0
0
0
0
0
0
0
0
0
0
0
0
0
0
0
0
0
0
0
0
0
0
0
0
0
0
0
0
0
0
0
0
0
0
0
0
0
0
0
0
0
0
0
0
0
0
0
0
0
0
0
0
0
0
0
0
0
0
0
0
0
0
0
0
0
0
0
0
0
0
0
0
0
0
0
0
0
0
0
0
0
0
0
0
0
0
0
0
0
0
0
0
0
0
0
0
0
0
0
0
0
0
0
0
0
0
0
0
0
0
0
0
0
0
0
0
0
0
0
0
0
0
0
0
0
0
0
0
0
0
0
0
0
0
0
0
0
0
0
0
0
0
0
0
0
0
0
0
0
0
0
0
0
0
0
0
0
0
0
0
0
0
0
0
0
0
0
0
0
0
0
0
0
0
0
0
0
0
0
0
0
0
0
0
0
0
0
0
0
0
0
0
0
0
0
0
0
0
0
0
0
0
0
0
0
0
0
0
0
0
0
0
0
0
0
0
0
0
0
0
0
0
0
0
0
0
0
0
0
0
0
0
0
0
0
0
0
0
0
0
0
0
0
0
0
0
0
0
0
0
0
0
0
0
0
0
0
0
0
0
0
0
0
0
0
0
0
0
0
0
0
0
0
0
0
0
0
0
0
0
0
0
0
0
0
0
0
0
0
0
0
0
0
0
0
0
0
0
0
0
0
0
0
0
0
0
0
0
0
0
0
0
0
0
0
0
0
0
0
0
0
0
0
0
0
0
0
0
0
0
0
0
0
0
0
0
0
0
0
0
0
0
0
0
0
0
0
0
0
0
0
0
0
0
0
0
0
0
0
0
0
0
0
0
0
0
0
0
0
0
0
0
0
0
0
0
0
0
0
0
0
0
0
0
0
0
0
0
0
0
0
0
0
0
0
0
0
0
0
0
0
0
0
0
0
0
0
0
0
0
0
0
0
0
0
0
0
0
0
0
0
0
0
0
0
0
0
0
0
0
0
0
0
0
0
0
0
0
0
0
0
0
0
0
0
0
0
0
0
0
0
0
0
0
0
0
0
0
0
0
0
0
0
0
0
0
0
0
0
0
0
0
0
0
0
0
0
0
0
0
0
0
0
0
0
0
0
0
0
0
0
0
0
0
0
0
0
0
0
0
0
0
0
0
0
0
0
0
0
0
0
0
0
0
0
0
0
0
0
0
0
0
0
0
0
0
0
0
0
0
0
0
0
0
0
0
0
0
0
0
0
0
0
0
0
0
0
0
0
0
0
0
0
0
0
0
0
0
0
0
0
0
0
0
0
0
0
0
0
0
0
0
0
0
0
0
0
0
0
0
0
0
0
0
0
0
0
0
0
0
0
0
0
0
0
0
0
0
0
0
0
0
0
0
0
0
0
0
0
0
0
0
0
0
0
0
0
0
0
0
0
0
0
0
0
0
0
0
0
0
0
0
0
0
0
0
0
0
0
0
0
0
0
0
0
0
0
0
0
0
0
0
0
0
0
0
0
0
0
0
0
0
0
0
0
0
0
0
0
0
0
0
0
0
0
0
0
0
0
0
0
0
0
0
0
0
0
0
0
0
0
0
0
0
0
0
0
0
0
0
0
0
0
0
0
0
0
0
0
0
0
0
0
0
0
0
0
0
0
0
0
0
0
0
0
0
0
0
0
0
0
0
0
0
0
0
0
0
0
0
0
0
0
0
0
0
0
0
0
0
0
0
0
0
0
0
0
0
0
0
0
0
0
0
0
0
0
0
0
0
0
0
0
0
0
0
0
0
0
0
0
0
0
0
0
0
0
0
0
0
0
0
0
0
0
0
0
0
0
0
0
0
0
0
0
0
0
0
0
0
0
0
0
0
0
0
0
0
0
0
0
0
0
0
0
0
0
0
0
0
0
0
0
0
0
0
0
0
0
0
0
0
0
0
0
0
0
0
0
0
0
0
0
0
0
0
0
0
0
0
0
0
0
0
0
0
0
0
0
0
0
0
0
0
0
0
0
0
0
0
0
0
0
0
0
0
0
0
0
0
0
0
0
0
0
0
0
0
0
0
0
0
0
0
0
0
0
0
0
0
0
0
0
0
0
0
0
0
0
0
0
0
0
0
0
0
0
0
0
0
0
0
0
0
0
0
0
0
0
0
0
0
0
0
0
0
0
0
0
0
0
0
0
0
0
0
0
0
0
0
0
0
0
0
0
0
0
0
0
0
0
0
0
0
0
0
0
0
0
0
0
0
0
0
0
0
0
0
0
0
0
0
0
0
0
0
0
0
0
0
0
0
0
0
0
0
0
0
0
0
0
0
0
0
0
0
0
0
0
0
0
0
0
0
0
0
0
0
0
0
0
0
0
0
0
0
0
0
0
0
0
0
0
0
0
0
0
0
0
0
0
0
0
0
0
0
0
0
0
0
0
0
0
0
0
0
0
0
0
0
0
0
0
0
0
0
0
0
0
0
0
0
0
0
0
0
0
0
0
0
0
0
0
0
0
0
0
0
0
0
0
0
0
0
0
0
0
0
0
0
0
0
0
0
0
0
0
0
0
0
0
0
0
0
0
0
0
0
0
0
0
0
0
0
0
0
0
0
0
0
0
0
0
0
0
0
0
0
0
0
0
0
0
0
0
0
0
0
0
0
0
0
0
0
0
0
0
0
0
0
0
0
0
0
0
0
0
0
0
0
0
0
0
0
0
0
0
0
0
0
0
0
0
0
0
0
0
0
0
0
0
0
0
0
0
0
0
0
0
0
0
0
0
0
0
0
0
0
0
0
0
0
0
0
0
0
0
0
0
0
0
0
0
0
0
0
0
0
0
0
0
0
0
0
0
0
0
0
0
0
0
0
0
0
0
0
0
0
0
0
0
0
0
0
0
0
0
0
0
0
0
0
0
0
0
0
0
0
0
0
0
0
0
0
0
0
0
0
0
0
0
0
0
0
0
0
0
0
0
0
0
0
0
0
0
0
0
0
0
0
0
0
0
0
0
0
0
0
0
0
0
0
0
0
0
0
0
0
0
0
0
0
0
0
0
0
0
0
0
0
0
0
0
0
0
0
0
0
0
0
0
0
0
0
0
0
0
0
0
0
0
0
0
0
0
0
0
0
0
0
0
0
0
0
0
0
0
0
0
0
0
0
0
0
0
0
0
0
0
0
0
0
0
0
0
0
0
0
0
0
0
0
0
0
0
0
0
0
0
0
0
0
0
0
0
0
0
0
0
0
0
0
0
0
0
0
0
0
0
0
0
0
0
0
0
0
0
0
0
0
0
0
0
0
0
0
0
0
0
0
0
0
0
0
0
0
0
0
0
0
0
0
0
0
0
0
0
0
0
0
0
0
0
0
0
0
0
0
0
0
0
0
0
0
0
0
0
0
0
0
0
0
0
0
0
0
0
0
0
0
0
0
0
0
0
0
0
0
0
0
0
0
0
0
0
0
0
0
0
0
0
0
0
0
0
0
0
0
0
0
0
0
0
0
0
0
0
0
0
0
0
0
0
0
0
0
0
0
0
0
0
0
0
0
0
0
0
0
0
0
0
0
0
0
0
0
0
0
0
0
0
0
0
0
0
0
0
0
0
0
0
0
0
0
0
0
0
0
0
0
0
0
0
0
0
0
0
0
0
0
0
0
0
0
0
0
0
0
0
0
0
0
0
0
0
0
0
0
0
0
0
0
0
0
0
0
0
0
0
0
0
0
0
0
0
0
0
0
0
0
0
0
0
0
0
0
0
0
0
0
0
0
0
0
0
0
0
0
0
0
0
0
0
0
0
0
0
0
0
0
0
0
0
0
0
0
0
0
0
0
0
0
0
0
0
0
0
0
0
0
0
0
0
0
0
0
0
0
0
0
0
0
0
0
0
0
0
0
0
0
0
0
0
0
0
0
0
0
0
0
0
0
0
0
0
0
0
0
0
0
0
0
0
0
0
0
0
0
0
0
0
0
0
0
0
0
0
0
0
0
0
0
0
0
0
0
0
0
0
0
0
0
0
0
0
0
0
0
0
0
0
0
0
0
0
0
0
0
0
0
0
0
0
0
0
0
0
0
0
0
0
0
0
0
0
0
0
0
0
0
0
0
0
0
0
0
0
0
0
0
0
0
0
0
0
0
0
0
0
0
0
0
0
0
0
0
0
0
0
0
0
0
0
0
0
0
0
0
0
0
0
0
0
0
0
0
0
0
0
0
0
0
0
0
0
0
0
0
0
0
0
0
0
0
0
0
0
0
0
0
0
0
0
0
0
0
0
0
0
0
0
0
0
0
0
0
0
0
0
0
0
0
0
0
0
0
0
0
0
0
0
0
0
0
0
0
0
0
0
0
0
0
0
0
0
0
0
0
0
0
0
0
0
0
0
0
0
0
0
0
0
0
0
0
0
0
0
0
0
0
0
0
0
0
0
0
0
0
0
0
0
0
0
0
0
0
0
0
0
0
0
0
0
0
0
0
0
0
0
0
0
0
0
0
0
0
0
0
0
0
0
0
0
0
0
0
0
0
0
0
0
0
0
0
0
0
0
0
0
0
0
0
0
0
0
0
0
0
0
0
0
0
0
0
0
0
0
0
0
0
0
0
0
0
0
0
0
0
0
0
0
0
0
0
0
0
0
0
0
0
0
0
0
0
0
0
0
0
0
0
0
0
0
0
0
0
0
0
0
0
0
0
0
0
0
0
0
0
0
0
0
0
0
0
0
0
0
0
0
0
0
0
0
0
0
0
0
0
0
0
0
0
0
0
0
0
0
0
0
0
0
0
0
0
0
0
0
0
0
0
0
0
0
0
0
0
0
0
0
0
0
0
0
0
0
0
0
0
0
0
0
0
0
0
0
0
0
0
0
0
0
0
0
0
0
0
0
0
0
0
0
0
0
0
0
0
0
0
0
0
0
0
0
0
0
0
0
0
0
0
0
0
0
0
0
0
0
0
0
0
0
0
0
0
0
0
0
0
0
0
0
0
0
0
0
0
0
0
0
0
0
0
0
0
0
0
0
0
0
0
0
0
0
0
0
0
0
0
0
0
0
0
0
0
0
0
0
0
0
0
0
0
0
0
0
0
0
0
0
0
0
0
0
0
0
0
0
0
0
0
0
0
0
0
0
0
0
0
0
0
0
0
0
0
0
0
0
0
0
0
0
0
0
0
0
0
0
0
0
0
0
0
0
0
0
0
0
0
0
0
0
0
0
0
0
0
0
0
0
0
0
0
0
0
0
0
0
0
0
0
0
0
0
0
0
0
0
0
0
0
0
0
0
0
0
0
0
0
0
0
0
0
0
0
0
0
0
0
0
0
0
0
0
0
0
0
0
0
0
0
0
0
0
0
0
0
0
0
0
0
0
0
0
0
0
0
0
0
0
0
0
0
0
0
0
0
0
0
0
0
0
0
0
0
0
0
0
0
0
0
0
0
0
0
0
0
0
0
0
0
0
0
0
0
0
0
0
0
0
0
0
0
0
0
0
0
0
0
0
0
0
0
0
0
0
0
0
0
0
0
0
0
0
0
0
0
0
0
0
0
0
0
0
0
0
0
0
0
0
0
0
0
0
0
0
0
0
0
0
0
0
0
0
0
0
0
0
0
0
0
0
0
0
0
0
0
0
0
0
0
0
0
0
0
0
0
0
0
0
0
0
0
0
0
0
0
0
0
0
0
0
0
0
0
0
0
0
0
0
0
0
0
0
0
0
0
0
0
0
0
0
0
0
0
0
0
0
0
0
0
0
0
0
0
0
0
0
0
0
0
0
0
0
0
0
0
0
0
0
0
0
0
0
0
0
0
0
0
0
0
0
0
0
0
0
0
0
0
0
0
0
0
0
0
0
0
0
0
0
0
0
0
0
0
0
0
0
0
0
0
0
0
0
0
0
0
0
0
0
0
0
0
0
0
0
0
0
0
0
0
0
0
0
0
0
0
0
0
0
0
0
0
0
0
0
0
0
0
0
0
0
0
0
0
0
0
0
0
0
0
0
0
0
0
0
0
0
0
0
0
0
0
0
0
0
0
0
0
0
0
0
0
0
0
0
0
0
0
0
0
0
0
0
0
0
0
0
0
0
0
0
0
0
0
0
0
0
0
0
0
0
0
0
0
0
0
0
0
0
0
0
0
0
0
0
0
0
0
0
0
0
0
0
0
0
0
0
0
0
0
0
0
0
0
0
0
0
0
0
0
0
0
0
0
0
0
0
0
0
0
0
0
0
0
0
0
0
0
0
0
0
0
0
0
0
0
0
0
0
0
0
