0.210479
0.21306
0.218325
0.220446
0.214554
0.196767
0.164124
0.114634
0.0473829
-0.0377587
-0.138566
-0.251051
-0.369775
0
1.08337
3.14639
6.34835
10.5885
15.4073
19.9856
23.2606
24.1759
22.0812
17.1546
10.5571
4.07645
-0.64371
-2.83815
-2.83434
-1.65447
-0.34784
0.483046
0.758532
0.714502
0.769662
0.835252
0.903534
0.973333
1.04329
1.11203
1.17851
1.24236
1.30379
1.3637
1.42361
1.48547
1.5515
1.6239
1.70461
1.795
1.8957
2.00642
2.12607
2.25287
2.38473
2.51963
2.65594
2.7928
2.9303
3.06952
3.21244
3.36169
3.52016
3.69054
3.87491
4.07432
4.28851
4.51581
4.75311
4.99601
5.23908
5.4742
5.69079
5.87978
6.0336
6.14704
6.21746
6.2445
6.22933
6.17377
6.07947
5.9475
5.78029
5.57972
5.34728
5.08538
4.79791
4.48941
4.16428
3.82807
3.48734
3.14928
2.82113
2.50964
2.2206
1.95848
1.72622
1.52515
1.35515
1.21494
1.10181
1.01219
0.942221
0.888209
0.847013
0.816213
0.794074
0.779319
0.770919
0.767712
0.767991
0.769564
0.770076
0.767393
0.760005
0.747355
0.729983
0.709465
0.688129
0.668596
0.653174
0.643433
0.640328
0.643793
0.652451
0.664167
0.676873
0.689243
0.701136
0.713626
0.728585
0.747933
0.772786
0.803916
0.838591
0.872361
0.900578
0.919972
0.929632
0.930993
0.926898
0.920218
0.912674
0.904452
0.894661
0.881898
0.864803
0.842551
0.815208
0.783922
0.751018
0.719644
0.693737
0.677309
0.673794
0.685445
0.712961
0.755467
0.810854
0.876367
0.949224
1.02673
1.10705
1.18903
1.27159
1.35324
1.4313
1.5007
1.55402
1.5833
1.58083
1.5412
1.46337
1.35186
1.21667
1.07161
0.931261
0.806081
0.698069
0.606539
0.530952
0.4686
0.415597
0.367743
0.321289
0.273434
0.222441
0.167688
0.109305
0.0476558
-0.0170942
-0.0850432
-0.155874
-0.229243
-0.304562
-0.38092
0
1.02384
2.95795
6.01254
10.1714
15.0099
19.6571
22.978
23.9363
21.9957
17.4006
11.1945
4.90336
-0.0364141
-2.83724
-3.59078
-3.03342
-2.03801
-1.18625
-0.657921
-0.383981
-0.252797
-0.167894
-0.0835837
0.00116577
0.0864828
0.172252
0.258122
0.34353
0.427767
0.510056
0.589637
0.665847
0.738199
0.80657
0.871284
0.933207
0.99378
1.05497
1.11911
1.18871
1.26624
1.35384
1.45317
1.56546
1.6914
1.83117
1.98449
2.15061
2.32849
2.51684
2.71423
2.91911
3.12987
3.34474
3.56175
3.77858
3.99252
4.20007
4.39632
4.57561
4.73279
4.86341
4.96371
5.03077
5.06231
5.05661
5.01228
4.92834
4.8045
4.64185
4.44289
4.21195
3.95581
3.68282
3.4008
3.11599
2.83363
2.55804
2.29253
2.03958
1.8011
1.57873
1.37403
1.18858
1.0238
0.880816
0.760229
0.662003
0.585563
0.529803
0.492854
0.472385
0.465717
0.470358
0.482979
0.499632
0.516671
0.531206
0.541476
0.546986
0.548348
0.546841
0.543846
0.540319
0.536452
0.531709
0.525016
0.515106
0.500915
0.481959
0.458584
0.432036
0.404308
0.377852
0.355109
0.338054
0.327857
0.324728
0.327992
0.336332
0.348135
0.361807
0.375999
0.389701
0.402162
0.412796
0.421087
0.426547
0.428752
0.427449
0.422688
0.41494
0.405145
0.394673
0.385199
0.378483
0.376102
0.379191
0.388224
0.402885
0.422042
0.443819
0.465745
0.484853
0.497938
0.502091
0.495057
0.475652
0.444134
0.401481
0.351006
0.299294
0.254407
0.224652
0.217523
0.238862
0.292295
0.378957
0.497394
0.643613
0.810398
0.99113
1.17635
1.35166
1.50259
1.61711
1.68668
1.70669
1.67651
1.59941
1.48237
1.3358
1.1725
1.0061
0.846199
0.697141
0.559753
0.433962
0.319477
0.215482
0.12121
0.0363798
-0.0386591
-0.103245
-0.156822
-0.198542
-0.229022
-0.253622
-0.280033
-0.316211
-0.368151
-0.438005
-0.523227
-0.617074
-0.58848
0
1.38801
3.78205
7.29357
11.8031
16.7828
21.2346
23.887
23.6714
20.2658
14.375
7.52406
1.43656
-2.66467
-4.44987
-4.40618
-3.41724
-2.29732
-1.51444
-1.1693
-1.14001
-1.11569
-1.08208
-1.04307
-0.997968
-0.946848
-0.890664
-0.83079
-0.768765
-0.705973
-0.643394
-0.581464
-0.520046
-0.4585
-0.395831
-0.330878
-0.262524
-0.189897
-0.112514
-0.0303547
0.0561857
0.146458
0.239842
0.33607
0.435529
0.53945
0.649894
0.769512
0.901129
1.04724
1.20954
1.38863
1.58384
1.79341
2.01464
2.24415
2.47808
2.71222
2.94211
3.16278
3.36921
3.55665
3.72021
3.85453
3.95442
4.01697
4.03979
4.02053
3.95718
3.84841
3.69425
3.49653
3.2592
2.98839
2.69419
2.38706
2.07541
1.7668
1.46828
1.18604
0.924932
0.688363
0.478224
0.295087
0.139127
0.00968132
-0.0949921
-0.176957
-0.238509
-0.282128
-0.3104
-0.325916
-0.331134
-0.328291
-0.319481
-0.306485
-0.290914
-0.274394
-0.258539
-0.244903
-0.234903
-0.229727
-0.230249
-0.236956
-0.249871
-0.268406
-0.291422
-0.31724
-0.34365
-0.368157
-0.388393
-0.402523
-0.409564
-0.409536
-0.40342
-0.392931
-0.380175
-0.367304
-0.356155
-0.348089
-0.343843
-0.343475
-0.346395
-0.351474
-0.357236
-0.362124
-0.36479
-0.36435
-0.360586
-0.353821
-0.34487
-0.334756
-0.324405
-0.3144
-0.304881
-0.29562
-0.286233
-0.276481
-0.266516
-0.257102
-0.249531
-0.245215
-0.245103
-0.249068
-0.25544
-0.260842
-0.260399
-0.248292
-0.218569
-0.166849
-0.0908712
0.0105797
0.136864
0.287943
0.466516
0.666039
0.861685
1.02611
1.1371
1.18283
1.16396
1.09148
0.981196
0.847696
0.701022
0.549082
0.396478
0.24621
0.101306
-0.0348459
-0.158911
-0.268112
-0.360312
-0.434406
-0.490454
-0.529634
-0.554051
-0.566691
-0.571888
-0.575941
-0.586289
-0.610182
-0.653758
-0.721192
-0.815292
-0.937042
-1.08209
-1.24382
-1.41427
-1.06502
0
2.06904
5.36259
9.82775
14.9899
19.8975
23.2949
24.0323
21.5725
16.3264
9.58884
3.05264
-1.85973
-4.49915
-5.07955
-4.37366
-3.24275
-2.27648
-1.68424
-1.3985
-1.25925
-1.15682
-1.08091
-1.01575
-0.958817
-0.908638
-0.863445
-0.820864
-0.778318
-0.733638
-0.685522
-0.633778
-0.579093
-0.522385
-0.464469
-0.405653
-0.345489
-0.282712
-0.215373
-0.141115
-0.057609
0.0371541
0.14445
0.26458
0.396836
0.539731
0.691418
0.850304
1.01553
1.18719
1.36618
1.55375
1.75073
1.95691
2.17054
2.38829
2.60564
2.81752
3.01908
3.20617
3.37505
3.52125
3.63915
3.72394
3.77307
3.78236
3.74676
3.66182
3.52525
3.33819
3.10553
2.83555
2.53953
2.23063
1.91846
1.60941
1.30868
1.02057
0.748512
0.495182
0.263117
0.0544461
-0.129636
-0.288477
-0.421891
-0.529723
-0.612304
-0.671124
-0.708177
-0.725938
-0.727342
-0.71568
-0.694404
-0.666825
-0.635793
-0.603454
-0.571161
-0.53963
-0.509317
-0.480721
-0.454683
-0.432371
-0.415114
-0.404126
-0.400145
-0.40315
-0.412247
-0.425735
-0.441331
-0.456467
-0.468705
-0.476018
-0.476914
-0.470642
-0.457186
-0.437096
-0.411646
-0.382263
-0.350184
-0.316221
-0.280726
-0.243749
-0.20532
-0.165718
-0.125639
-0.0860988
-0.0482838
-0.0133399
0.0178512
0.0448219
0.0675743
0.0865548
0.102577
0.116756
0.130482
0.145359
0.163158
0.185715
0.21477
0.251738
0.297447
0.351912
0.414154
0.482201
0.553345
0.624011
0.689827
0.746456
0.790006
0.817383
0.826552
0.816694
0.788271
0.743003
0.683762
0.614372
0.539375
0.463225
0.389929
0.322687
0.263484
0.213438
0.172787
0.141
0.116937
0.0989434
0.0849404
0.0721482
0.0567968
0.0343399
0
-0.0536458
-0.127033
-0.223122
-0.343262
-0.484246
-0.640489
-0.804701
-0.443906
0.623836
2.67671
5.92054
10.2279
14.9487
19.0578
21.562
21.8456
19.7518
15.5372
9.89731
3.98666
-0.837162
-3.58638
-4.1489
-3.26411
-1.96605
-0.970172
-0.462855
-0.299531
-0.270542
-0.199335
-0.120808
-0.0362949
0.0548937
0.15315
0.258271
0.369541
0.485923
0.606248
0.729393
0.854428
0.980716
1.10796
1.23624
1.36599
1.49796
1.63316
1.77266
1.91748
2.06834
2.22559
2.38919
2.55887
2.73438
2.91577
3.10359
3.29887
3.50296
3.71708
3.94195
4.17741
4.42228
4.67445
4.93116
5.18928
5.44566
5.69722
5.94024
6.16879
6.37461
6.54991
6.68822
6.78373
6.83218
6.83125
6.78036
6.68009
6.53151
6.33603
6.0987
5.82758
5.5308
5.21614
4.89137
4.56417
4.24245
3.93409
3.64626
3.38467
3.15322
2.95394
2.78609
2.64683
2.53209
2.43739
2.35851
2.29193
2.23492
2.18563
2.14264
2.10459
2.07036
2.03907
2.01014
1.9833
1.9584
1.93527
1.91341
1.892
1.87025
1.84793
1.82585
1.80589
1.79066
1.78269
1.78341
1.7932
1.80959
1.82818
1.84417
1.85387
1.85577
1.85094
1.84256
1.83483
1.83174
1.83528
1.84555
1.86171
1.88219
1.90446
1.92507
1.94032
1.94691
1.94244
1.92587
1.89782
1.86051
1.81745
1.77288
1.73096
1.69483
1.66616
1.64563
1.63297
1.62716
1.62697
1.63138
1.64
1.65328
1.67244
1.69932
1.73625
1.78719
1.85886
1.95778
2.07606
2.18822
2.26331
2.2733
2.20133
2.04748
1.82994
1.58107
1.33863
1.13039
0.956048
0.807025
0.680796
0.576485
0.492032
0.424705
0.371561
0.329883
0.297
0.27041
0.24769
0.226275
0.203412
0.176477
0.143346
0.102582
0.0542891
0
-0.0462086
0.268315
1.25153
3.2355
6.33369
10.2543
14.3797
18.0211
20.5717
21.4554
20.1286
16.3839
10.7836
4.71554
-0.189762
-2.91703
-3.50929
-2.78759
-1.68283
-0.758816
-0.165981
0.157022
0.244163
0.285903
0.328336
0.374135
0.425301
0.482518
0.545104
0.611231
0.678508
0.744661
0.808139
0.868481
0.926351
0.983279
1.04123
1.10215
1.16751
1.23838
1.31565
1.40012
1.49267
1.59441
1.70663
1.83058
1.96725
2.11698
2.27937
2.45318
2.63658
2.82747
3.0238
3.22384
3.42621
3.62975
3.83328
4.03539
4.23431
4.42805
4.61442
4.79107
4.95492
5.10148
5.22479
5.31908
5.37819
5.39505
5.36291
5.27685
5.135
4.93902
4.69378
4.40656
4.08924
3.75418
3.40979
3.06217
2.71745
2.38168
2.06079
1.76029
1.48497
1.23863
1.02373
0.841268
0.690862
0.570371
0.476464
0.405042
0.351712
0.31224
0.282901
0.260694
0.243431
0.229699
0.218749
0.210348
0.204559
0.201526
0.201306
0.203709
0.208217
0.214101
0.220588
0.227046
0.233126
0.238796
0.244271
0.249875
0.25591
0.262576
0.26999
0.278253
0.287504
0.297914
0.309565
0.322292
0.335491
0.348005
0.358302
0.364816
0.366378
0.362598
0.35405
0.342163
0.328862
0.316032
0.304969
0.296228
0.289435
0.283633
0.277795
0.271358
0.264597
0.258702
0.255548
0.257253
0.265661
0.281998
0.306715
0.339602
0.380083
0.427555
0.4815
0.541812
0.608756
0.68268
0.763866
0.852568
0.947921
1.0458
1.13895
1.21906
1.27834
1.31095
1.31388
1.28716
1.23349
1.15755
1.06532
0.964342
0.860777
0.758987
0.661866
0.571102
0.487551
0.411204
0.341436
0.277394
0.218344
0.163901
0.113894
0.0681177
0.0260708
-0.0135163
-0.0529751
-0.0951534
-0.142863
-0.198496
-0.262456
-0.333498
-0.428449
0
1.2428
3.55553
7.04463
11.5212
16.413
20.7834
23.5109
23.6257
20.7269
15.291
8.63842
2.46995
-1.8348
-3.76043
-3.71692
-2.63529
-1.41052
-0.547598
-0.136494
-0.0347696
0.000876999
0.0480257
0.099402
0.154939
0.214566
0.277836
0.344178
0.4131
0.484285
0.557552
0.632701
0.709328
0.78673
0.863931
0.939954
1.01423
1.08699
1.15959
1.23445
1.31482
1.40423
1.50585
1.62178
1.75281
1.89858
2.05779
2.22855
2.40873
2.59631
2.78962
2.98732
3.18844
3.39225
3.59826
3.80617
4.01586
4.22733
4.4407
4.65585
4.87001
5.07353
5.25145
5.38699
5.46647
5.48314
5.43797
5.33716
5.18767
4.99325
4.757
4.48773
4.19432
3.88341
3.56063
3.23209
2.90501
2.5874
2.2871
2.01098
1.76414
1.54949
1.36773
1.21756
1.09627
1.00034
0.926088
0.869951
0.828833
0.8002
0.781998
0.772436
0.769818
0.772425
0.777639
0.781758
0.780904
0.77174
0.752248
0.722306
0.683827
0.640391
0.596472
0.556476
0.523222
0.498202
0.482334
0.475565
0.477089
0.485603
0.499565
0.517369
0.537465
0.558408
0.578876
0.597693
0.613889
0.626765
0.635944
0.641378
0.6433
0.642102
0.638194
0.631878
0.623325
0.612588
0.599742
0.585015
0.568879
0.552026
0.535263
0.519363
0.504936
0.492324
0.481706
0.473264
0.467313
0.464334
0.464835
0.469105
0.477156
0.488206
0.500986
0.514133
0.5267
0.53861
0.550896
0.565662
0.585745
0.61422
0.65333
0.704431
0.768462
0.846485
0.938939
1.04273
1.14806
1.2415
1.30965
1.34148
1.3301
1.27359
1.17469
1.03999
0.878888
0.703584
0.525594
0.352378
0.188518
0.0371151
-0.0993977
-0.219662
-0.323458
-0.411517
-0.485305
-0.546824
-0.598502
-0.643197
-0.68415
-0.724897
-0.769175
-0.821909
-0.894435
-1.01934
-1.23439
-1.49623
-1.73787
-1.90336
-1.99621
-1.35024
0
2.26295
5.62357
10.0744
15.1859
19.9982
23.1966
23.5931
20.7039
15.0873
8.20251
1.82514
-2.67507
-4.80655
-4.96669
-4.05505
-2.96479
-2.22695
-1.94082
-1.92831
-1.85353
-1.77107
-1.68755
-1.60478
-1.52466
-1.4489
-1.37857
-1.31386
-1.2542
-1.1983
-1.14439
-1.09068
-1.03565
-0.978307
-0.918232
-0.855402
-0.789916
-0.72168
-0.65015
-0.574222
-0.492311
-0.402597
-0.303352
-0.193256
-0.0715878
0.0617577
0.206416
0.361797
0.527305
0.702424
0.886636
1.07917
1.2787
1.48308
1.68926
1.89347
2.09151
2.27923
2.45286
2.60905
2.74484
2.85769
2.94565
3.00722
3.04058
3.04328
3.01243
2.94498
2.83834
2.69097
2.50293
2.2762
2.01504
1.72571
1.41598
1.09389
0.766808
0.442203
0.127562
-0.169687
-0.440708
-0.67849
-0.878438
-1.03841
-1.1591
-1.24403
-1.29895
-1.331
-1.34754
-1.35518
-1.35929
-1.36329
-1.36914
-1.37774
-1.38916
-1.40293
-1.41828
-1.43419
-1.44935
-1.46225
-1.4714
-1.47559
-1.47406
-1.46672
-1.45415
-1.43751
-1.41831
-1.39822
-1.37874
-1.36104
-1.34588
-1.33345
-1.32339
-1.31486
-1.30664
-1.29736
-1.28581
-1.27116
-1.25325
-1.23251
-1.21006
-1.18744
-1.16635
-1.14841
-1.13493
-1.1269
-1.12495
-1.12942
-1.14023
-1.1568
-1.17781
-1.20121
-1.22373
-1.24116
-1.24907
-1.24359
-1.22218
-1.18413
-1.13063
-1.06437
-0.988795
-0.907199
-0.822195
-0.735059
-0.645818
-0.553582
-0.456741
-0.353173
-0.241347
-0.125298
-0.0197369
0.0547855
0.0769276
0.0309704
-0.0866894
-0.263572
-0.472146
-0.67675
-0.844715
-0.971498
-1.07068
-1.14855
-1.20946
-1.25896
-1.30271
-1.34555
-1.39107
-1.44163
-1.49876
-1.56379
-1.63787
-1.72288
-1.82547
-1.95582
-2.11336
-2.29275
-2.48425
-2.38213
-1.65005
0
2.79549
6.80753
11.7817
17.002
21.3076
23.3904
22.3199
18.0492
11.5823
4.63767
-1.05396
-4.4414
-5.46604
-4.86755
-3.66612
-2.64969
-2.12982
-2.01312
-2.02388
-1.97656
-1.92645
-1.87515
-1.82287
-1.76955
-1.71487
-1.65833
-1.59926
-1.53692
-1.47069
-1.40018
-1.32536
-1.24656
-1.16439
-1.07958
-0.992722
-0.904012
-0.8131
-0.719058
-0.62053
-0.516045
-0.404377
-0.284856
-0.157489
-0.0228447
0.118287
0.265346
0.418421
0.578454
0.747154
0.926615
1.11873
1.32453
1.54367
1.77412
2.01258
2.25403
2.48806
2.70073
2.87963
3.01507
3.10111
3.13546
3.11848
3.05177
2.93694
2.77533
2.57148
2.33217
2.06394
1.77339
1.46752
1.15301
0.835371
0.519446
0.209694
-0.0899418
-0.376069
-0.645801
-0.896664
-1.12651
-1.33345
-1.51591
-1.67253
-1.80288
-1.90685
-1.98169
-2.02681
-2.05073
-2.0632
-2.07292
-2.08532
-2.10143
-2.1183
-2.13093
-2.13478
-2.12814
-2.11406
-2.09561
-2.07612
-2.05876
-2.04589
-2.03862
-2.03681
-2.03929
-2.04421
-2.04955
-2.05347
-2.05451
-2.05167
-2.04422
-2.03211
-2.01544
-1.99408
-1.96726
-1.93369
-1.89181
-1.84057
-1.78009
-1.71214
-1.64023
-1.56967
-1.50599
-1.45367
-1.41515
-1.39051
-1.37782
-1.37397
-1.37564
-1.37988
-1.38487
-1.38967
-1.39387
-1.39738
-1.40031
-1.40291
-1.40551
-1.40845
-1.41192
-1.41561
-1.41835
-1.418
-1.41143
-1.39498
-1.36517
-1.31952
-1.2563
-1.17453
-1.07808
-0.976406
-0.882498
-0.809056
-0.766145
-0.759987
-0.792537
-0.861622
-0.961467
-1.08354
-1.21767
-1.35322
-1.48173
-1.59858
-1.70137
-1.78788
-1.85614
-1.9052
-1.93495
-1.94606
-1.93982
-1.91845
-1.88659
-1.85302
-1.82862
-1.8237
-1.84619
-1.89991
-1.98357
-2.09067
-2.21049
-2.14056
-1.50462
0
2.64036
6.50771
11.3326
16.3457
20.3525
22.0906
20.7643
16.4793
10.2977
3.83669
-1.38886
-4.52738
-5.5766
-5.16847
-4.14161
-3.16386
-2.55844
-2.33437
-2.32052
-2.22136
-2.11966
-2.01947
-1.92287
-1.83188
-1.7477
-1.67019
-1.59833
-1.53039
-1.46445
-1.39893
-1.33295
-1.26645
-1.19982
-1.13354
-1.06769
-1.00165
-0.933862
-0.861951
-0.782944
-0.693667
-0.591163
-0.473118
-0.338112
-0.185793
-0.0169651
0.166477
0.361758
0.565551
0.774384
0.985049
1.19492
1.4021
1.60535
1.80385
1.9968
2.18294
2.35954
2.52247
2.66731
2.78934
2.88381
2.94622
2.97248
2.95887
2.9021
2.79961
2.65016
2.456
2.22141
1.95255
1.65793
1.34778
1.03229
0.719151
0.414128
0.121196
-0.157331
-0.420325
-0.667188
-0.897203
-1.10907
-1.30004
-1.46617
-1.60428
-1.71158
-1.78629
-1.82814
-1.83857
-1.81985
-1.77112
-1.68936
-1.57907
-1.46365
-1.36999
-1.32281
-1.3372
-1.4116
-1.5262
-1.64874
-1.74623
-1.79747
-1.81579
-1.81696
-1.8076
-1.79458
-1.78318
-1.77577
-1.77142
-1.76641
-1.75564
-1.73433
-1.70023
-1.65448
-1.59969
-1.53876
-1.47528
-1.4128
-1.35423
-1.3016
-1.25606
-1.21849
-1.18901
-1.16755
-1.15405
-1.14826
-1.14949
-1.15633
-1.16647
-1.1767
-1.18316
-1.18207
-1.17018
-1.14484
-1.10441
-1.04863
-0.978549
-0.896289
-0.804601
-0.706376
-0.604241
-0.500181
-0.395676
-0.292181
-0.192231
-0.100229
-0.0220879
0.0350918
0.0645599
0.0614513
0.0236641
-0.0480961
-0.150732
-0.279094
-0.424175
-0.57641
-0.728355
-0.873603
-1.00651
-1.12298
-1.22027
-1.29728
-1.35463
-1.3946
-1.42137
-1.44027
-1.45628
-1.47318
-1.49302
-1.51598
-1.54072
-1.56502
-1.58673
-1.60457
-1.61861
-1.63022
-1.07135
0
1.8258
4.64227
8.52377
13.1788
17.8129
21.2311
22.2352
20.1776
15.3637
9.02534
2.83086
-1.80882
-4.25356
-4.71461
-3.93959
-2.75326
-1.72753
-1.0959
-0.852052
-0.901834
-0.922744
-0.931396
-0.922367
-0.892807
-0.843652
-0.780315
-0.708095
-0.631713
-0.555463
-0.482643
-0.415128
-0.353234
-0.295832
-0.240702
-0.185003
-0.12577
-0.0603664
0.0131802
0.0960083
0.188472
0.290362
0.401329
0.521302
0.650785
0.790962
0.943508
1.11016
1.29214
1.4896
1.70124
1.92418
2.15426
2.38646
2.61553
2.83665
3.04582
3.23987
3.41634
3.57363
3.71052
3.82517
3.91409
3.97238
3.99596
3.97983
3.91924
3.81118
3.65572
3.45675
3.22173
2.96046
2.68366
2.40152
2.12032
1.84447
1.57767
1.32331
1.08478
0.865595
0.669312
0.498937
0.356759
0.24432
0.160752
0.102525
0.0645477
0.0408714
0.0256916
0.0136631
0.000753784
-0.0153111
-0.0349831
-0.0571304
-0.0795483
-0.0996559
-0.115252
-0.124826
-0.128458
-0.128105
-0.126833
-0.12795
-0.134089
-0.146483
-0.164618
-0.186323
-0.208268
-0.226829
-0.239213
-0.243926
-0.23961
-0.226959
-0.20992
-0.193308
-0.181262
-0.175876
-0.176497
-0.179971
-0.181746
-0.177423
-0.164488
-0.143751
-0.117131
-0.0868225
-0.0557957
-0.0268826
-0.00219231
0.0171761
0.0310684
0.0399052
0.0441372
0.0435009
0.0370583
0.0231243
-0.000298691
-0.0347946
-0.080822
-0.137254
-0.201334
-0.269071
-0.335955
-0.398151
-0.453228
-0.49953
-0.536362
-0.564406
-0.585358
-0.600858
-0.611706
-0.61731
-0.615535
-0.603013
-0.575887
-0.530797
-0.466402
-0.383754
-0.285313
-0.17508
-0.0588882
0.0543102
0.15518
0.236069
0.292157
0.32194
0.32697
0.310895
0.278117
0.232486
0.176753
0.112822
0.0416058
-0.0365654
-0.121109
-0.210641
-0.302983
-0.395477
-0.485492
-0.570807
-0.650208
-0.723522
-0.791341
-0.854583
-0.914087
-0.970384
-1.02375
-1.07445
-1.12304
-1.17062
-1.2186
-1.26861
-1.32238
-1.38076
-1.44371
-1.51031
-1.58319
-1.15288
0
2.16882
5.53681
9.98354
14.939
19.3722
22.0338
21.9176
18.7466
13.2038
6.7278
0.943032
-2.98175
-4.70873
-4.67523
-3.71145
-2.59403
-1.77626
-1.36792
-1.28037
-1.30455
-1.31348
-1.31347
-1.30146
-1.27585
-1.23693
-1.18642
-1.12664
-1.06017
-0.989417
-0.916126
-0.841127
-0.764253
-0.684514
-0.60042
-0.510362
-0.412941
-0.307204
-0.192717
-0.0695305
0.0619476
0.201125
0.347396
0.500282
0.659522
0.825089
0.997114
1.17571
1.36075
1.55162
1.74703
1.94501
2.14305
2.3384
2.5285
2.71135
2.88573
3.05124
3.20805
3.35579
3.4926
3.61488
3.71826
3.79702
3.8447
3.8554
3.82467
3.7497
3.62908
3.46259
3.25141
3.0032
2.72765
2.43328
2.12767
1.81794
1.51036
1.21024
0.921598
0.6471
0.388267
0.145938
-0.0792145
-0.286273
-0.473598
-0.639191
-0.78156
-0.899883
-0.994464
-1.06646
-1.11876
-1.15508
-1.17924
-1.19448
-1.20299
-1.20575
-1.2026
-1.19269
-1.17497
-1.14894
-1.11472
-1.07292
-1.02487
-0.973224
-0.922945
-0.880339
-0.851513
-0.841177
-0.851495
-0.881335
-0.926165
-0.978692
-1.03013
-1.07184
-1.09888
-1.11021
-1.10652
-1.08712
-1.05454
-1.01645
-0.9811
-0.955374
-0.943148
-0.944634
-0.956848
-0.975019
-0.994383
-1.01168
-1.02627
-1.03897
-1.0509
-1.06331
-1.07718
-1.09292
-1.11038
-1.12887
-1.14736
-1.1647
-1.17968
-1.1911
-1.19796
-1.19954
-1.19551
-1.18576
-1.17056
-1.15061
-1.1263
-1.09734
-1.06244
-1.01941
-0.965482
-0.89802
-0.815246
-0.717208
-0.605965
-0.483296
-0.352773
-0.221226
-0.0985971
0.00485744
0.0801861
0.120194
0.120061
0.0780443
-0.0037941
-0.119103
-0.257414
-0.405302
-0.548683
-0.677018
-0.786051
-0.876208
-0.947892
-1.00186
-1.04027
-1.0658
-1.082
-1.09361
-1.10535
-1.12149
-1.14554
-1.1801
-1.2269
-1.28691
-1.36055
-1.44935
-1.55815
-1.68532
-1.82644
-1.975
-2.00112
-1.4562
0
2.63306
6.49699
11.3255
16.4222
20.6856
22.87
22.0568
18.134
11.9899
5.2357
-0.445334
-3.97706
-5.22765
-4.85253
-3.80623
-2.84639
-2.29384
-2.0939
-2.0289
-1.9301
-1.83947
-1.75452
-1.67553
-1.6026
-1.53472
-1.47011
-1.40688
-1.34302
-1.27669
-1.20641
-1.13117
-1.05042
-0.96402
-0.872217
-0.775582
-0.674927
-0.571183
-0.465219
-0.357601
-0.248362
-0.136824
-0.0215538
0.0995289
0.228877
0.368944
0.521797
0.68878
0.870324
1.06591
1.27417
1.49308
1.72015
1.95259
2.18739
2.42135
2.65075
2.87084
3.07732
3.26646
3.4352
3.5795
3.69246
3.76765
3.80116
3.78743
3.72033
3.59518
3.41098
3.1717
2.88616
2.56646
2.22822
1.88478
1.54381
1.21171
0.894335
0.596964
0.324167
0.0795332
-0.134546
-0.317033
-0.468892
-0.592572
-0.691545
-0.769677
-0.8306
-0.877252
-0.911694
-0.935217
-0.948685
-0.952759
-0.948463
-0.937589
-0.922517
-0.906033
-0.891037
-0.880246
-0.875947
-0.879847
-0.893
-0.915814
-0.947969
-0.988605
-1.03638
-1.08944
-1.14556
-1.20119
-1.25093
-1.28876
-1.3085
-1.30469
-1.27341
-1.21291
-1.12386
-1.00915
-0.873256
-0.721453
-0.55965
-0.392297
-0.222204
-0.0510952
0.119754
0.288509
0.451062
0.599756
0.724959
0.816562
0.867738
0.878309
0.855956
0.814386
0.769032
0.732129
0.70772
0.692384
0.682376
0.675415
0.669465
0.663143
0.655849
0.647604
0.638725
0.629504
0.61997
0.60984
0.598563
0.585449
0.569818
0.551183
0.529412
0.504839
0.478532
0.452869
0.431892
0.420605
0.424355
0.447966
0.494862
0.566415
0.661626
0.777194
0.908001
1.04951
1.1916
1.31995
1.42031
1.48024
1.49081
1.44812
1.35389
1.21521
1.04349
0.853117
0.66029
0.475734
0.304686
0.150177
0.0149334
-0.099575
-0.194071
-0.272166
-0.339048
-0.400631
-0.462631
-0.529761
-0.605201
-0.690421
-0.785662
-0.890394
-1.00313
-1.12227
-1.24719
-1.38088
-1.53884
-1.7302
-1.94915
-2.17964
-2.13142
-1.50502
0
2.622
6.43094
11.1664
16.1194
20.1639
22.0508
20.9068
16.7037
10.4056
3.643
-1.94621
-5.35765
-6.50403
-6.03433
-4.86889
-3.74928
-3.02752
-2.71731
-2.68908
-2.69675
-2.69992
-2.69803
-2.68951
-2.67407
-2.65285
-2.62758
-2.60031
-2.57288
-2.54656
-2.52173
-2.49791
-2.47391
-2.44809
-2.41861
-2.38375
-2.34187
-2.29144
-2.23112
-2.15975
-2.07646
-1.98071
-1.87233
-1.75151
-1.61876
-1.47487
-1.32075
-1.15745
-0.986127
-0.808057
-0.624744
-0.437978
-0.249884
-0.0629276
0.120169
0.296572
0.463559
0.618724
0.760246
0.887157
0.9993
1.09715
1.18127
1.25074
1.30242
1.33216
1.33433
1.30137
1.22517
1.0989
0.918743
0.685098
0.403202
0.0828518
-0.259946
-0.610569
-0.958319
-1.29419
-1.61123
-1.90498
-2.17332
-2.41597
-2.6315
-2.8172
-2.97283
-3.09835
-3.19344
-3.25841
-3.29493
-3.30625
-3.29695
-3.27226
-3.23741
-3.19757
-3.15661
-3.11781
-3.08438
-3.05909
-3.04414
-3.04082
-3.04918
-3.06781
-3.09397
-3.12403
-3.1541
-3.18074
-3.20184
-3.21685
-3.22622
-3.231
-3.233
-3.23475
-3.23881
-3.24712
-3.26042
-3.278
-3.29767
-3.31615
-3.32977
-3.33534
-3.33122
-3.31753
-3.29538
-3.26776
-3.23884
-3.21293
-3.19356
-3.18281
-3.18101
-3.18674
-3.1973
-3.20934
-3.21969
-3.22612
-3.22783
-3.22527
-3.22005
-3.21426
-3.20979
-3.20767
-3.20774
-3.20872
-3.20866
-3.20563
-3.19843
-3.18717
-3.1729
-3.15755
-3.14318
-3.13122
-3.12182
-3.11347
-3.10305
-3.08627
-3.05833
-3.01525
-2.95455
-2.8751
-2.77731
-2.66344
-2.53656
-2.40165
-2.26811
-2.14691
-2.04797
-1.97882
-1.94382
-1.94423
-1.97875
-2.04431
-2.13664
-2.24969
-2.3757
-2.50776
-2.63964
-2.76539
-2.87982
-2.97919
-3.06109
-3.12426
-3.16944
-3.20022
-3.22127
-3.23737
-3.25268
-3.27028
-3.29208
-3.31902
-3.35143
-3.38923
-3.43198
-3.4797
-3.53194
-3.58795
-3.64669
-3.70687
-3.21059
-2.05677
0
3.14449
7.37193
12.2825
16.9884
20.2431
20.8581
18.2546
12.8512
6.01439
-0.465145
-5.11222
-7.31765
-7.4203
-6.33497
-5.00887
-4.02807
-3.53603
-3.39906
-3.42127
-3.42588
-3.42489
-3.41734
-3.40129
-3.37534
-3.33865
-3.2908
-3.23168
-3.1616
-3.08131
-2.9922
-2.8964
-2.79659
-2.69638
-2.59978
-2.51011
-2.42916
-2.3566
-2.28995
-2.22496
-2.15648
-2.07945
-1.98993
-1.88627
-1.76787
-1.63476
-1.48768
-1.32781
-1.1565
-0.975072
-0.784791
-0.586824
-0.382277
-0.172207
0.0423767
0.260549
0.481495
0.704661
0.929829
1.15702
1.38589
1.61259
1.8234
1.99584
2.10276
2.11955
2.03143
1.83923
1.56183
1.23336
0.89348
0.56865
0.258593
-0.042807
-0.338311
-0.62788
-0.910351
-1.18354
-1.44431
-1.68891
-1.91346
-2.11454
-2.28946
-2.43693
-2.55714
-2.65162
-2.72268
-2.77334
-2.80705
-2.82693
-2.83545
-2.83427
-2.82434
-2.80616
-2.78017
-2.74712
-2.70836
-2.66573
-2.62137
-2.57752
-2.53626
-2.49915
-2.46695
-2.43958
-2.41612
-2.39509
-2.37471
-2.35327
-2.32943
-2.30239
-2.27193
-2.23814
-2.20121
-2.16111
-2.11746
-2.06956
-2.0166
-1.95796
-1.89342
-1.82338
-1.74871
-1.67046
-1.5896
-1.50686
-1.42257
-1.33673
-1.24921
-1.15991
-1.06909
-0.977619
-0.887777
-0.805014
-0.73654
-0.689772
-0.669962
-0.677424
-0.705854
-0.742978
-0.773819
-0.785543
-0.771838
-0.740232
-0.69959
-0.655857
-0.615087
-0.582265
-0.560519
-0.550812
-0.552098
-0.561812
-0.576498
-0.592387
-0.605955
-0.61422
-0.614783
-0.60561
-0.584929
-0.551324
-0.503779
-0.441738
-0.364859
-0.271735
-0.158487
-0.0202374
0.1365
0.287135
0.402001
0.453893
0.426855
0.321757
0.155443
-0.0461241
-0.256858
-0.457548
-0.643239
-0.815119
-0.973365
-1.1161
-1.24033
-1.34349
-1.42374
-1.48025
-1.51098
-1.51578
-1.49937
-1.46987
-1.43645
-1.40899
-1.3967
-1.40654
-1.44265
-1.50586
-1.59341
-1.69913
-1.81409
-1.84243
-1.32263
0
2.33479
5.78199
10.205
15.0683
19.3864
21.924
21.6591
18.3032
12.5635
5.93472
0.0898907
-3.80392
-5.46688
-5.41674
-4.53176
-3.57539
-2.93331
-2.63155
-2.52274
-2.47534
-2.43865
-2.40609
-2.37654
-2.34915
-2.3228
-2.29645
-2.26953
-2.24256
-2.21754
-2.19745
-2.1852
-2.18254
-2.18936
-2.20362
-2.22209
-2.24151
-2.2599
-2.27735
-2.29569
-2.31783
-2.34723
-2.38704
-2.43953
-2.5056
-2.58467
-2.67717
-2.78114
-2.88636
-2.97617
-3.0317
-3.0351
-2.97294
-2.83892
-2.63504
-2.37148
-2.06532
-1.74006
-1.41643
-1.10508
-0.812342
-0.545087
-0.308396
-0.105571
0.0614954
0.191701
0.284193
0.338801
0.356353
0.337305
0.282572
0.194597
0.0781868
-0.059272
-0.208421
-0.35922
-0.502804
-0.634224
-0.751063
-0.851285
-0.933938
-0.999469
-1.04914
-1.08449
-1.10711
-1.11867
-1.12093
-1.11573
-1.10494
-1.09025
-1.07305
-1.05417
-1.03378
-1.01145
-0.986246
-0.956921
-0.922205
-0.881116
-0.833262
-0.779058
-0.719762
-0.657371
-0.594595
-0.534187
-0.478386
-0.428474
-0.384591
-0.345811
-0.310481
-0.276681
-0.242648
-0.207113
-0.169365
-0.129108
-0.0863623
-0.0413748
0.00541096
0.0533243
0.101424
0.14847
0.193035
0.233686
0.269209
0.298783
0.322066
0.339145
0.350422
0.356471
0.357973
0.355731
0.350761
0.344409
0.338416
0.33488
0.336111
0.344392
0.361707
0.389581
0.428912
0.47989
0.54244
0.616764
0.702149
0.794046
0.882528
0.955096
0.99909
1.00411
0.964245
0.879591
0.756671
0.607689
0.44859
0.295751
0.159604
0.0434755
-0.0526628
-0.12794
-0.182734
-0.218887
-0.239297
-0.247511
-0.247406
-0.243018
-0.238405
-0.237856
-0.245924
-0.266844
-0.304253
-0.360645
-0.440569
-0.541936
-0.659547
-0.78565
-0.681036
0
1.47831
3.93818
7.4438
11.8019
16.4075
20.2334
22.0815
21.0696
17.1178
11.1247
4.66825
-0.642727
-3.81636
-4.77428
-4.1829
-2.98078
-1.91166
-1.29518
-1.07658
-1.03354
-0.948934
-0.874487
-0.80734
-0.74889
-0.700878
-0.663824
-0.637114
-0.619297
-0.607886
-0.599593
-0.590647
-0.57725
-0.555898
-0.523564
-0.477981
-0.417828
-0.342824
-0.25339
-0.150573
-0.0359273
0.0886859
0.221299
0.36001
0.503204
0.649783
0.799371
0.952415
1.11011
1.27417
1.44637
1.62814
1.8202
2.02234
2.23346
2.45187
2.67553
2.90264
3.13143
3.35815
3.57361
3.7637
3.90987
3.99459
4.00777
3.95018
3.83177
3.66578
3.46183
3.22266
2.95468
2.6654
2.36061
2.0447
1.72215
1.39834
1.07948
0.771999
0.481773
0.213549
-0.0294513
-0.245671
-0.435114
-0.599069
-0.739744
-0.859876
-0.962389
-1.05012
-1.12564
-1.19118
-1.2486
-1.29942
-1.34486
-1.38588
-1.42307
-1.45661
-1.48606
-1.51034
-1.52806
-1.53765
-1.53783
-1.52787
-1.50796
-1.47908
-1.44291
-1.40138
-1.35637
-1.3096
-1.2624
-1.21597
-1.17158
-1.13028
-1.09267
-1.05856
-1.02673
-0.995142
-0.96145
-0.923825
-0.881638
-0.836002
-0.788886
-0.742435
-0.698486
-0.657961
-0.620562
-0.584814
-0.548428
-0.508817
-0.463697
-0.411601
-0.351819
-0.284352
-0.20995
-0.129899
-0.0463985
0.0366344
0.113391
0.177521
0.222901
0.244528
0.239276
0.206337
0.147245
0.0655519
-0.0337119
-0.144442
-0.260047
-0.375082
-0.485417
-0.587895
-0.680003
-0.759915
-0.82676
-0.880609
-0.922632
-0.955199
-0.981457
-1.0048
-1.02839
-1.05481
-1.08575
-1.12195
-1.16329
-1.20894
-1.25759
-1.30768
-0.944628
0
1.76358
4.51774
8.25816
12.6647
17.006
20.2083
21.1762
19.2775
14.7376
8.67142
2.67185
-1.84725
-4.18995
-4.52353
-3.60642
-2.32199
-1.29566
-0.757907
-0.633638
-0.668073
-0.655007
-0.63177
-0.597401
-0.550453
-0.490964
-0.419893
-0.338814
-0.249846
-0.155293
-0.0572425
0.0428122
0.144257
0.247484
0.353822
0.465275
0.584115
0.712426
0.851727
1.00276
1.16552
1.33945
1.52383
1.71811
1.92222
2.13666
2.36238
2.60062
2.8525
3.11871
3.39918
3.69291
3.99778
4.31056
4.62721
4.94168
5.24197
5.51072
5.7339
5.90046
6.0043
6.0453
6.02894
5.96452
5.86239
5.73082
5.57388
5.39381
5.19125
4.96625
4.71853
4.44792
4.15515
3.84288
3.516
3.1814
2.84733
2.52251
2.21518
1.93227
1.67869
1.45703
1.2675
1.10833
0.976328
0.867521
0.777834
0.70359
0.641819
0.59037
0.547827
0.513331
0.486322
0.466297
0.452636
0.444448
0.440502
0.439261
0.43901
0.438073
0.435028
0.4289
0.419286
0.406409
0.391088
0.37464
0.35873
0.345163
0.335711
0.33189
0.3348
0.345042
0.362733
0.387644
0.419414
0.457772
0.502685
0.554258
0.612733
0.678119
0.749898
0.826842
0.906985
0.987917
1.06707
1.14202
1.21074
1.27148
1.3224
1.36133
1.38604
1.39428
1.38374
1.35263
1.30041
1.22831
1.13962
1.03948
0.93422
0.830373
0.733224
0.646335
0.572032
0.511002
0.462439
0.424343
0.39387
0.367671
0.342192
0.313876
0.279525
0.23652
0.181825
0.114377
0.0363366
-0.0481021
-0.133244
0
0.633005
1.93173
4.15041
7.44347
11.6741
16.2875
20.3391
22.7192
22.527
19.4774
14.1478
7.86958
2.23191
-1.57367
-3.19306
-3.08078
-2.08497
-0.967091
-0.145273
0.291957
0.441874
0.483822
0.537361
0.592927
0.649704
0.707557
0.766688
0.827695
0.891537
0.959336
1.03204
1.11002
1.19277
1.27897
1.36607
1.45082
1.53039
1.60328
1.67005
1.73352
1.79845
1.87073
1.95634
2.05991
2.18337
2.32728
2.49116
2.67337
2.87146
3.08263
3.3042
3.53374
3.76907
4.00807
4.24836
4.48703
4.72059
4.94477
5.15463
5.34525
5.51209
5.65102
5.75822
5.83046
5.86531
5.86015
5.81219
5.71883
5.57842
5.39117
5.15985
4.89026
4.59135
4.27472
3.95156
3.63108
3.321
3.02701
2.75259
2.49906
2.26616
2.05264
1.85699
1.67807
1.51543
1.36938
1.24083
1.13092
1.04045
0.969745
0.918733
0.885956
0.867699
0.859428
0.85672
0.85596
0.854777
0.852085
0.847781
0.842212
0.835639
0.827937
0.818555
0.806652
0.791451
0.772555
0.750188
0.725268
0.699316
0.674218
0.651871
0.633965
0.621746
0.615913
0.616644
0.623731
0.636796
0.655522
0.679834
0.709942
0.746381
0.789931
0.841359
0.901146
0.969487
1.04636
1.13055
1.21797
1.30107
1.37076
1.41806
1.43558
1.41882
1.36689
1.28261
1.17205
1.04358
0.906857
0.770699
0.640839
0.520332
0.411042
0.314356
0.230696
0.159678
0.100322
0.0512562
0.0108529
-0.0227118
-0.0514515
-0.0775728
-0.103451
-0.131515
-0.163988
-0.2026
-0.248742
-0.302197
-0.361428
-0.423838
-0.440376
0
1.22806
3.57357
7.16713
11.7842
16.7489
20.9902
23.3053
22.7832
19.2369
13.4131
6.8013
1.06287
-2.64101
-4.05347
-3.74152
-2.63851
-1.53224
-0.795276
-0.42379
-0.242566
-0.120256
-0.0558104
-0.00372725
0.0415583
0.0828597
0.123152
0.165694
0.213701
0.269662
0.334798
0.408622
0.489465
0.575038
0.662936
0.751236
0.83898
0.926404
1.01488
1.10666
1.20444
1.311
1.42886
1.56013
1.70642
1.8689
2.04829
2.24484
2.4583
2.6878
2.93178
3.18794
3.45332
3.72436
3.99712
4.26738
4.53083
4.78325
5.02012
5.23633
5.42654
5.58577
5.71014
5.79728
5.84572
5.85408
5.82096
5.74505
5.62562
5.46313
5.26003
5.02124
4.75471
4.47062
4.1794
3.88969
3.60797
3.33928
3.08688
2.85217
2.63506
2.43446
2.24885
2.07682
1.91739
1.77015
1.63521
1.51292
1.40368
1.30767
1.22464
1.15383
1.09413
1.0441
1.00169
0.964105
0.92869
0.893255
0.85641
0.817721
0.777652
0.737333
0.698222
0.661768
0.629022
0.600791
0.577682
0.559997
0.547713
0.540446
0.537454
0.537694
0.54
0.54327
0.546638
0.549576
0.551887
0.553624
0.554984
0.556281
0.557992
0.560862
0.565991
0.574806
0.588871
0.60954
0.637573
0.672845
0.714162
0.759708
0.807428
0.855464
0.902564
0.948256
0.992671
1.03611
1.07833
1.11666
1.14488
1.15393
1.13442
1.07961
0.987983
0.8642
0.718449
0.564409
0.416631
0.284774
0.171963
0.0794935
0.00953693
-0.037361
-0.0600227
-0.0584824
-0.0376778
-0.00859299
0.0154493
0.0217449
0
-0.0562584
-0.148861
-0.274926
-0.427649
-0.597943
-0.776444
-0.956114
-1.13004
-0.511291
0.927389
3.4153
6.95746
11.1749
15.3394
18.6219
20.3445
20.0756
17.6386
13.2243
7.57578
1.95539
-2.30438
-4.44287
-4.61187
-3.63382
-2.41127
-1.4746
-0.933531
-0.695429
-0.674894
-0.671822
-0.664097
-0.651377
-0.632522
-0.607423
-0.576997
-0.542952
-0.507324
-0.471622
-0.436261
-0.400319
-0.361713
-0.317742
-0.265865
-0.204457
-0.133448
-0.0544151
0.0301632
0.117417
0.204666
0.290067
0.373067
0.454583
0.53688
0.623223
0.717363
0.822964
0.943069
1.07963
1.23321
1.40279
1.58588
1.77867
1.97648
2.17419
2.36675
2.54931
2.71697
2.86517
2.99022
3.08893
3.15752
3.19135
3.18663
3.13881
3.04328
2.89659
2.69782
2.44958
2.15835
1.83384
1.48775
1.1326
0.77698
0.426479
0.0854652
-0.242568
-0.554554
-0.847437
-1.11799
-1.36298
-1.57945
-1.76468
-1.91653
-2.03516
-2.12449
-2.19181
-2.24535
-2.29298
24
207
402
592
771
948
1130
1319
1497
1678
1856
2051
2243
2443
2641
2838
3014
3181
3339
3499
3666
3346
3509
3667
3409
3556
3701
0
0
0
0
0
0
0
0
0
0
0
0
0
0
0
0
0
0
0
0
0
0
0
0
0
0
0
0
0
0
0
0
0
0
0
0
0
0
0
0
0
0
0
0
0
0
0
0
0
0
0
0
0
0
0
0
0
0
0
0
0
0
0
0
0
0
0
0
0
0
0
0
0
0
0
0
0
0
0
0
0
0
0
0
0
0
0
0
0
0
0
0
0
0
0
0
0
0
0
0
0
0
0
0
0
0
0
0
0
0
0
0
0
0
0
0
0
0
0
0
0
0
0
0
0
0
0
0
0
0
0
0
0
0
0
0
0
0
0
0
0
0
0
0
0
0
0
0
0
0
0
0
0
0
0
0
0
0
0
0
0
0
0
0
0
0
0
0
0
0
0
0
0
0
0
0
0
0
0
0
0
0
0
0
0
0
0
0
0
0
0
0
0
0
0
0
0
0
0
0
0
0
0
0
0
0
0
0
0
0
0
0
0
0
0
0
0
0
0
0
0
0
0
0
0
0
0
0
0
0
0
0
0
0
0
0
0
0
0
0
0
0
0
0
0
0
0
0
0
0
0
0
0
0
0
0
0
0
0
0
0
0
0
0
0
0
0
0
0
0
0
0
0
0
0
0
0
0
0
0
0
0
0
0
0
0
0
0
0
0
0
0
0
0
0
0
0
0
0
0
0
0
0
0
0
0
0
0
0
0
0
0
0
0
0
0
0
0
0
0
0
0
0
0
0
0
0
0
0
0
0
0
0
0
0
0
0
0
0
0
0
0
0
0
0
0
0
0
0
0
0
0
0
0
0
0
0
0
0
0
0
0
0
0
0
0
0
0
0
0
0
0
0
0
0
0
0
0
0
0
0
0
0
0
0
0
0
0
0
0
0
0
0
0
0
0
0
0
0
0
0
0
0
0
0
0
0
0
0
0
0
0
0
0
0
0
0
0
0
0
0
0
0
0
0
0
0
0
0
0
0
0
0
0
0
0
0
0
0
0
0
0
0
0
0
0
0
0
0
0
0
0
0
0
0
0
0
0
0
0
0
0
0
0
0
0
0
0
0
0
0
0
0
0
0
0
0
0
0
0
0
0
0
0
0
0
0
0
0
0
0
0
0
0
0
0
0
0
0
0
0
0
0
0
0
0
0
0
0
0
0
0
0
0
0
0
0
0
0
0
0
0
0
0
0
0
0
0
0
0
0
0
0
0
0
0
0
0
0
0
0
0
0
0
0
0
0
0
0
0
0
0
0
0
0
0
0
0
0
0
0
0
0
0
0
0
0
0
0
0
0
0
0
0
0
0
0
0
0
0
0
0
0
0
0
0
0
0
0
0
0
0
0
0
0
0
0
0
0
0
0
0
0
0
0
0
0
0
0
0
0
0
0
0
0
0
0
0
0
0
0
0
0
0
0
0
0
0
0
0
0
0
0
0
0
0
0
0
0
0
0
0
0
0
0
0
0
0
0
0
0
0
0
0
0
0
0
0
0
0
0
0
0
0
0
0
0
0
0
0
0
0
0
0
0
0
0
0
0
0
0
0
0
0
0
0
0
0
0
0
0
0
0
0
0
0
0
0
0
0
0
0
0
0
0
0
0
0
0
0
0
0
0
0
0
0
0
0
0
0
0
0
0
0
0
0
0
0
0
0
0
0
0
0
0
0
0
0
0
0
0
0
0
0
0
0
0
0
0
0
0
0
0
0
0
0
0
0
0
0
0
0
0
0
0
0
0
0
0
0
0
0
0
0
0
0
0
0
0
0
0
0
0
0
0
0
0
0
0
0
0
0
0
0
0
0
0
0
0
0
0
0
0
0
0
0
0
0
0
0
0
0
0
0
0
0
0
0
0
0
0
0
0
0
0
0
0
0
0
0
0
0
0
0
0
0
0
0
0
0
0
0
0
0
0
0
0
0
0
0
0
0
0
0
0
0
0
0
0
0
0
0
0
0
0
0
0
0
0
0
0
0
0
0
0
0
0
0
0
0
0
0
0
0
0
0
0
0
0
0
0
0
0
0
0
0
0
0
0
0
0
0
0
0
0
0
0
0
0
0
0
0
0
0
0
0
0
0
0
0
0
0
0
0
0
0
0
0
0
0
0
0
0
0
0
0
0
0
0
0
0
0
0
0
0
0
0
0
0
0
0
0
0
0
0
0
0
0
0
0
0
0
0
0
0
0
0
0
0
0
0
0
0
0
0
0
0
0
0
0
0
0
0
0
0
0
0
0
0
0
0
0
0
0
0
0
0
0
0
0
0
0
0
0
0
0
0
0
0
0
0
0
0
0
0
0
0
0
0
0
0
0
0
0
0
0
0
0
0
0
0
0
0
0
0
0
0
0
0
0
0
0
0
0
0
0
0
0
0
0
0
0
0
0
0
0
0
0
0
0
0
0
0
0
0
0
0
0
0
0
0
0
0
0
0
0
0
0
0
0
0
0
0
0
0
0
0
0
0
0
0
0
0
0
0
0
0
0
0
0
0
0
0
0
0
0
0
0
0
0
0
0
0
0
0
0
0
0
0
0
0
0
0
0
0
0
0
0
0
0
0
0
0
0
0
0
0
0
0
0
0
0
0
0
0
0
0
0
0
0
0
0
0
0
0
0
0
0
0
0
0
0
0
0
0
0
0
0
0
0
0
0
0
0
0
0
0
0
0
0
0
0
0
0
0
0
0
0
0
0
0
0
0
0
0
0
0
0
0
0
0
0
0
0
0
0
0
0
0
0
0
0
0
0
0
0
0
0
0
0
0
0
0
0
0
0
0
0
0
0
0
0
0
0
0
0
0
0
0
0
0
0
0
0
0
0
0
0
0
0
0
0
0
0
0
0
0
0
0
0
0
0
0
0
0
0
0
0
0
0
0
0
0
0
0
0
0
0
0
0
0
0
0
0
0
0
0
0
0
0
0
0
0
0
0
0
0
0
0
0
0
0
0
0
0
0
0
0
0
0
0
0
0
0
0
0
0
0
0
0
0
0
0
0
0
0
0
0
0
0
0
0
0
0
0
0
0
0
0
0
0
0
0
0
0
0
0
0
0
0
0
0
0
0
0
0
0
0
0
0
0
0
0
0
0
0
0
0
0
0
0
0
0
0
0
0
0
0
0
0
0
0
0
0
0
0
0
0
0
0
0
0
0
0
0
0
0
0
0
0
0
0
0
0
0
0
0
0
0
0
0
0
0
0
0
0
0
0
0
0
0
0
0
0
0
0
0
0
0
0
0
0
0
0
0
0
0
0
0
0
0
0
0
0
0
0
0
0
0
0
0
0
0
0
0
0
0
0
0
0
0
0
0
0
0
0
0
0
0
0
0
0
0
0
0
0
0
0
0
0
0
0
0
0
0
0
0
0
0
0
0
0
0
0
0
0
0
0
0
0
0
0
0
0
0
0
0
0
0
0
0
0
0
0
0
0
0
0
0
0
0
0
0
0
0
0
0
0
0
0
0
0
0
0
0
0
0
0
0
0
0
0
0
0
0
0
0
0
0
0
0
0
0
0
0
0
0
0
0
0
0
0
0
0
0
0
0
0
0
0
0
0
0
0
0
0
0
0
0
0
0
0
0
0
0
0
0
0
0
0
0
0
0
0
0
0
0
0
0
0
0
0
0
0
0
0
0
0
0
0
0
0
0
0
0
0
0
0
0
0
0
0
0
0
0
0
0
0
0
0
0
0
0
0
0
0
0
0
0
0
0
0
0
0
0
0
0
0
0
0
0
0
0
0
0
0
0
0
0
0
0
0
0
0
0
0
0
0
0
0
0
0
0
0
0
0
0
0
0
0
0
0
0
0
0
0
0
0
0
0
0
0
0
0
0
0
0
0
0
0
0
0
0
0
0
0
0
0
0
0
0
0
0
0
0
0
0
0
0
0
0
0
0
0
0
0
0
0
0
0
0
0
0
0
0
0
0
0
0
0
0
0
0
0
0
0
0
0
0
0
0
0
0
0
0
0
0
0
0
0
0
0
0
0
0
0
0
0
0
0
0
0
0
0
0
0
0
0
0
0
0
0
0
0
0
0
0
0
0
0
0
0
0
0
0
0
0
0
0
0
0
0
0
0
0
0
0
0
0
0
0
0
0
0
0
0
0
0
0
0
0
0
0
0
0
0
0
0
0
0
0
0
0
0
0
0
0
0
0
0
0
0
0
0
0
0
0
0
0
0
0
0
0
0
0
0
0
0
0
0
0
0
0
0
0
0
0
0
0
0
0
0
0
0
0
0
0
0
0
0
0
0
0
0
0
0
0
0
0
0
0
0
0
0
0
0
0
0
0
0
0
0
0
0
0
0
0
0
0
0
0
0
0
0
0
0
0
0
0
0
0
0
0
0
0
0
0
0
0
0
0
0
0
0
0
0
0
0
0
0
0
0
0
0
0
0
0
0
0
0
0
0
0
0
0
0
0
0
0
0
0
0
0
0
0
0
0
0
0
0
0
0
0
0
0
0
0
0
0
0
0
0
0
0
0
0
0
0
0
0
0
0
0
0
0
0
0
0
0
0
0
0
0
0
0
0
0
0
0
0
0
0
0
0
0
0
0
0
0
0
0
0
0
0
0
0
0
0
0
0
0
0
0
0
0
0
0
0
0
0
0
0
0
0
0
0
0
0
0
0
0
0
0
0
0
0
0
0
0
0
0
0
0
0
0
0
0
0
0
0
0
0
0
0
0
0
0
0
0
0
0
0
0
0
0
0
0
0
0
0
0
0
0
0
0
0
0
0
0
0
0
0
0
0
0
0
0
0
0
0
0
0
0
0
0
0
0
0
0
0
0
0
0
0
0
0
0
0
0
0
0
0
0
0
0
0
0
0
0
0
0
0
0
0
0
0
0
0
0
0
0
0
0
0
0
0
0
0
0
0
0
0
0
0
0
0
0
0
0
0
0
0
0
0
0
0
0
0
0
0
0
0
0
0
0
0
0
0
0
0
0
0
0
0
0
0
0
0
0
0
0
0
0
0
0
0
0
0
0
0
0
0
0
0
0
0
0
0
0
0
0
0
0
0
0
0
0
0
0
0
0
0
0
0
0
0
0
0
0
0
0
0
0
0
0
0
0
0
0
0
0
0
0
0
0
0
0
0
0
0
0
0
0
0
0
0
0
0
0
0
0
0
0
0
0
0
0
0
0
0
0
0
0
0
0
0
0
0
0
0
0
0
0
0
0
0
0
0
0
0
0
0
0
0
0
0
0
0
0
0
0
0
0
0
0
0
0
0
0
0
0
0
0
0
0
0
0
0
0
0
0
0
0
0
0
0
0
0
0
0
0
0
0
0
0
0
0
0
0
0
0
0
0
0
0
0
0
0
0
0
0
0
0
0
0
0
0
0
0
0
0
0
0
0
0
0
0
0
0
0
0
0
0
0
0
0
0
0
0
0
0
0
0
0
0
0
0
0
0
0
0
0
0
0
0
0
0
0
0
0
0
0
0
0
0
0
0
0
0
0
0
0
0
0
0
0
0
0
0
0
0
0
0
0
0
0
0
0
0
0
0
0
0
0
0
0
0
0
0
0
0
0
0
0
0
0
0
0
0
0
0
0
0
0
0
0
0
0
0
0
0
0
0
0
0
0
0
0
0
0
0
0
0
0
0
0
0
0
0
0
0
0
0
0
0
0
0
0
0
0
0
0
0
0
0
0
0
0
0
0
0
0
0
0
0
0
0
0
0
0
0
0
0
0
0
0
0
0
0
0
0
0
0
0
0
0
0
0
0
0
0
0
0
0
0
0
0
0
0
0
0
0
0
0
0
0
0
0
0
0
0
0
0
0
0
0
0
0
0
0
0
0
0
0
0
0
0
0
0
0
0
0
0
0
0
0
0
0
0
0
0
0
0
0
0
0
0
0
0
0
0
0
0
0
0
0
0
0
0
0
0
0
0
0
0
0
0
0
0
0
0
0
0
0
0
0
0
0
0
0
0
0
0
0
0
0
0
0
0
0
0
0
0
0
0
0
0
0
0
0
0
0
0
0
0
0
0
0
0
0
0
0
0
0
0
0
0
0
0
0
0
0
0
0
0
0
0
0
0
0
0
0
0
0
0
0
0
0
0
0
0
0
0
0
0
0
0
0
0
0
0
0
0
0
0
0
0
0
0
0
0
0
0
0
0
0
0
0
0
0
0
0
0
0
0
0
0
0
0
0
0
0
0
0
0
0
0
0
0
0
0
0
0
0
0
0
0
0
0
0
0
0
0
0
0
0
0
0
0
0
0
0
0
0
0
0
0
0
0
0
0
0
0
0
0
0
0
0
0
0
0
0
0
0
0
0
0
0
0
0
0
0
0
0
0
0
0
0
0
0
0
0
0
0
0
0
0
0
0
0
0
0
0
0
0
0
0
0
0
0
0
0
0
0
0
0
0
0
0
0
0
0
0
0
0
0
0
0
0
0
0
0
0
0
0
0
0
0
0
0
0
0
0
0
0
0
0
0
0
0
0
0
0
0
0
0
0
0
0
0
0
0
0
0
0
0
0
0
0
0
0
0
0
0
0
0
0
0
0
0
0
0
0
0
0
0
0
0
0
0
0
0
0
0
0
0
0
0
0
0
0
0
0
0
0
0
0
0
0
0
0
0
0
0
0
0
0
0
0
0
0
0
0
0
0
0
0
0
0
0
0
0
0
0
0
0
0
0
0
0
0
0
0
0
0
0
0
0
0
0
0
0
0
0
0
0
0
0
0
0
0
0
0
0
0
0
0
0
0
0
0
0
0
0
0
0
0
0
0
0
0
0
0
0
0
0
0
0
0
0
0
0
0
0
0
0
0
0
0
0
0
0
0
0
0
0
0
0
0
0
0
0
0
0
0
0
0
0
0
0
0
0
0
0
0
0
0
0
0
0
0
0
0
0
0
0
0
0
0
0
0
0
0
0
0
0
0
0
0
0
0
0
0
0
0
0
0
0
0
0
0
0
0
0
0
0
0
0
0
0
0
0
0
0
0
0
0
0
0
0
0
0
0
0
0
0
0
0
0
0
0
0
0
0
0
0
0
0
0
0
0
0
0
0
0
0
0
0
0
0
0
0
0
0
0
0
0
0
0
0
0
0
0
0
0
0
0
0
0
0
0
0
0
0
0
0
0
0
0
0
0
0
0
0
0
0
0
0
0
0
0
0
0
0
0
0
0
0
0
0
0
0
0
0
0
0
0
0
0
0
0
0
0
0
0
0
0
0
0
0
0
0
0
0
0
0
0
0
0
0
0
0
0
0
0
0
0
0
0
0
0
0
0
0
0
0
0
0
0
0
0
0
0
0
0
0
0
0
0
0
0
0
0
0
0
0
0
0
0
0
0
0
0
0
0
0
0
0
0
0
0
0
0
0
0
0
0
0
0
0
0
0
0
0
0
0
0
0
0
0
0
0
0
0
0
0
0
0
0
0
0
0
0
0
0
0
0
0
0
0
0
0
0
0
0
0
0
0
0
0
0
0
0
0
0
0
0
0
0
0
0
0
0
0
0
0
0
0
0
0
0
0
0
0
0
0
0
0
0
0
0
0
0
0
0
0
0
0
0
0
0
0
0
0
0
0
0
0
0
0
0
0
0
0
0
0
0
0
0
0
0
0
0
0
0
0
0
0
0
0
0
0
0
0
0
0
0
0
0
0
0
0
0
0
0
0
0
0
0
0
0
0
0
0
0
0
0
0
0
0
0
0
0
0
0
0
0
0
0
0
0
0
0
0
0
0
0
0
0
0
0
0
0
0
0
0
0
0
0
0
0
0
0
0
0
0
0
0
0
0
0
0
0
0
0
0
0
0
0
0
0
0
0
0
0
0
0
0
0
0
0
0
0
0
0
0
0
0
0
0
0
0
0
0
0
0
0
0
0
0
0
0
0
0
0
0
0
0
0
0
0
0
0
0
0
0
0
0
0
0
0
0
0
0
0
0
0
0
0
0
0
0
0
0
0
0
0
0
0
0
0
0
0
0
0
0
0
0
0
0
0
0
0
0
0
0
0
0
0
0
0
0
0
0
0
0
0
0
0
0
0
0
0
0
0
0
0
0
0
0
0
0
0
0
0
0
0
0
0
0
0
0
0
0
0
0
0
0
0
0
0
0
0
0
0
0
0
0
0
0
0
0
0
0
0
0
0
0
0
0
0
0
0
0
0
0
0
0
0
0
0
0
0
0
0
0
0
0
0
0
0
0
0
0
0
0
0
0
0
0
0
0
0
0
0
0
0
0
0
0
0
0
0
0
0
0
0
0
0
0
0
0
0
0
0
0
0
0
0
0
0
0
0
0
0
0
0
0
0
0
0
0
0
0
0
0
0
0
0
0
0
0
0
0
0
0
0
0
0
0
0
0
0
0
0
0
0
0
0
0
0
0
0
0
0
0
0
0
0
0
0
0
0
0
0
0
0
0
0
0
0
0
0
0
0
0
