0.673684
0.685022
0.698289
0.714264
0.731524
0.747188
0.758258
0.762962
0.761636
0.756884
0.752998
0.754823
0.766082
0.787787
0.820075
0.861195
0.906036
0.94815
0.980913
0.99856
0.996889
0.97363
0.92859
0.863741
0.782114
0.687254
0.593361
0.51823
0.478398
0.484557
0.537995
0.629657
0.742589
0.857244
0.957853
1.04222
1.1156
1.18056
1.23994
1.29632
1.34898
1.38743
1.39455
1.35471
1.26206
1.12487
0.9636
0.80367
0.666456
0.552652
0.45475
0.371048
0.299876
0.239212
0.187236
0.14266
0.10479
0.0733706
0.0483649
0.0294901
0.0160139
0.00672719
0
0.0109066
0.0205006
0.0272036
0.0299895
0.0284947
0.000807548
0.056513
0.545412
1.67714
3.41631
5.40376
7.05474
7.81245
7.42472
6.07276
4.2649
2.5595
1.29858
0.514968
0.0398598
-0.289449
-0.262912
-0.220325
-0.14781
-0.0324634
0.107127
0.241597
0.343837
0.399082
0.407897
0.382427
0.339664
0.295766
0.26154
0.238502
0.225105
0.221428
0.223607
0.223483
0.212168
0.183212
0.135332
0.0734466
0.00747366
-0.0505608
-0.0898006
-0.109178
-0.10973
-0.0905293
-0.0492549
0.0248278
0.139646
0.274026
0.398427
0.483772
0.512583
0.487201
0.430275
0.376526
0.358849
0.394378
0.460587
0.542527
0.626314
0.699366
0.754494
0.792325
0.821122
0.853994
0.904455
0.982026
1.0844
1.2042
1.33595
1.47579
1.62052
1.76782
1.9165
2.06629
2.21757
2.37089
2.52458
2.66987
2.79277
2.87873
2.91809
2.90965
2.86048
2.78167
2.68213
2.56388
2.42701
2.27414
2.10682
1.92527
1.7312
1.52823
1.32154
1.11708
0.920604
0.736999
0.569684
0.420434
0.289454
0.175941
0.0791665
0.000499058
-0.0596698
-0.0997537
-0.117354
-0.0896593
0.0280463
0.210789
0.400781
0.536651
0.579621
0.529046
0.4205
0.308541
0.243027
0.249263
0.291361
0.352186
0.417066
0.471302
0.503685
0.509278
0.490738
0.457721
0.424277
0.404791
0.409075
0.444391
0.50598
0.574198
0.625709
0.642179
0.616883
0.556908
0.480584
0.411475
0.371144
0.363445
0.379433
0.416925
0.474858
0.541573
0.604114
0.651802
0.679261
0.687755
0.68425
0.678524
0.67947
0.691892
0.713157
0.739662
0.768922
0.798548
0.826877
0.853241
0.877821
0.901163
0.923463
0.943798
0.959605
0.966924
0.96133
0.939218
0.898938
0.841393
0.769924
0.689574
0.606013
0.524257
0.447328
0.377222
0.315543
0.263301
0.221035
0.188852
0.166716
0.154473
0.150822
0.152825
0.156777
0.158589
0.154287
0.140512
0.114919
0.0764437
0.0254051
-0.0364847
-0.106056
-0.181026
-0.263422
0
0.890442
2.53811
4.726
6.86853
8.23123
8.29986
7.06588
5.02947
2.91578
1.29803
0.369135
-0.0268732
-0.183635
-0.2948
-0.389888
-0.476648
-0.551195
-0.609805
-0.649665
-0.668781
-0.66605
-0.640422
-0.581205
-0.474721
-0.332241
-0.188394
-0.0793297
-0.0315109
-0.0534304
-0.133392
-0.24382
-0.350048
-0.420599
-0.446655
-0.442386
-0.411172
-0.355753
-0.292864
-0.241492
-0.217945
-0.231114
-0.279356
-0.350129
-0.422801
-0.474103
-0.484924
-0.458044
-0.40493
-0.333637
-0.249047
-0.155838
-0.0587709
0.0383839
0.13335
0.225435
0.31517
0.403587
0.491404
0.577705
0.658431
0.728165
0.783597
0.82675
0.866146
0.91498
0.986827
1.09071
1.22564
1.37941
1.54296
1.7104
1.87687
2.0391
2.19489
2.34039
2.4712
2.58357
2.66809
2.71355
2.71323
2.66883
2.58933
2.48556
2.36436
2.22775
2.07952
1.92202
1.75617
1.58358
1.40712
1.23056
1.05797
0.893106
0.739063
0.598017
0.471156
0.358741
0.260691
0.177102
0.106236
0.0451621
-0.00888138
-0.0577798
-0.101993
-0.140428
-0.170885
-0.190633
-0.194049
-0.180046
-0.156979
-0.136793
-0.130564
-0.144109
-0.175548
-0.215796
-0.251685
-0.270487
-0.266143
-0.243147
-0.207706
-0.164113
-0.117264
-0.0727051
-0.0355702
-0.0100303
0.000989532
-0.00416784
-0.0260249
-0.0641246
-0.117087
-0.182338
-0.259102
-0.341973
-0.419297
-0.478068
-0.506734
-0.498067
-0.450917
-0.370166
-0.265034
-0.146654
-0.0252895
0.0841313
0.168633
0.216164
0.216897
0.168625
0.0827275
-0.0146523
-0.089462
-0.112959
-0.0799451
-0.0061245
0.0845325
0.163186
0.206923
0.206991
0.171257
0.120345
0.0796324
0.0707036
0.119149
0.251952
0.424206
0.577223
0.660762
0.648468
0.544924
0.382799
0.210065
0.0704081
-0.0188622
-0.0828396
-0.137997
-0.189908
-0.240406
-0.289778
-0.336915
-0.379699
-0.4157
-0.442509
-0.457342
-0.46097
-0.458223
-0.455333
-0.458013
-0.469815
-0.491405
-0.520922
-0.555151
-0.590916
-0.625548
-0.429504
0
0.83888
2.19854
3.96791
5.73969
6.92996
7.05924
6.02734
4.19143
2.18285
0.578583
-0.359452
-0.726307
-0.806969
-0.790119
-0.764428
-0.723729
-0.665904
-0.592965
-0.509556
-0.420587
-0.329279
-0.236929
-0.143906
-0.0522331
0.0316237
0.0974196
0.134432
0.135699
0.101004
0.0374798
-0.0418604
-0.120791
-0.184613
-0.228029
-0.251119
-0.253274
-0.236314
-0.204296
-0.163305
-0.119492
-0.0775563
-0.0396897
-0.00529585
0.0284644
0.0655135
0.109477
0.161892
0.222016
0.288596
0.359765
0.432267
0.503118
0.570727
0.635401
0.699223
0.765312
0.836726
0.915415
1.00162
1.09334
1.18839
1.28483
1.38127
1.47706
1.57213
1.66661
1.76034
1.85258
1.94207
2.02731
2.10715
2.18133
2.25081
2.31789
2.38601
2.46241
2.56286
2.6975
2.84444
2.96845
3.03494
3.0207
2.91813
2.73478
2.49169
2.22102
1.95906
1.72213
1.50702
1.30852
1.12598
0.96015
0.811666
0.681103
0.569328
0.479074
0.412242
0.36539
0.333442
0.310665
0.291993
0.274187
0.256426
0.240183
0.228502
0.224816
0.230729
0.246759
0.275108
0.3181
0.372237
0.423142
0.453504
0.448259
0.400413
0.315214
0.210379
0.111459
0.0435947
0.020136
0.0351263
0.087408
0.15856
0.227222
0.276189
0.297431
0.293499
0.275117
0.256132
0.247808
0.253207
0.267261
0.285391
0.3025
0.314011
0.317035
0.310882
0.296851
0.277482
0.255606
0.233562
0.212609
0.193265
0.175754
0.160318
0.147381
0.137659
0.132176
0.132745
0.144303
0.187083
0.345126
0.644742
1.03507
1.44094
1.74233
1.8128
1.5851
1.09707
0.484722
-0.0751985
-0.396002
-0.427107
-0.41977
-0.407723
-0.395821
-0.388247
-0.387546
-0.39393
-0.405066
-0.416436
-0.422203
-0.414009
-0.370019
-0.278233
-0.165686
-0.074485
-0.0430676
-0.088088
-0.197267
-0.337877
-0.475322
-0.588668
-0.453185
0
0.777205
1.97683
3.55613
5.22239
6.48861
6.90013
6.28798
4.86913
3.12758
1.56499
0.489687
-0.0448413
-0.166537
-0.141931
-0.160556
-0.189715
-0.22941
-0.277109
-0.327956
-0.375328
-0.412345
-0.433424
-0.435589
-0.413906
-0.371062
-0.319003
-0.270578
-0.235212
-0.215994
-0.209269
-0.206762
-0.199259
-0.180238
-0.149803
-0.112411
-0.0715942
-0.0304813
0.0078104
0.0406644
0.0666951
0.0856666
0.0983048
0.105964
0.110227
0.112544
0.113942
0.115049
0.116164
0.117554
0.119729
0.123582
0.130333
0.141351
0.15795
0.180759
0.210178
0.246999
0.292154
0.346592
0.411152
0.486367
0.572262
0.668205
0.772914
0.884557
1.00095
1.11981
1.23892
1.35628
1.4701
1.57873
1.68056
1.77384
1.85721
1.92955
1.99014
2.0387
2.07521
2.09975
2.11176
2.11035
2.09421
2.06162
2.01091
1.94104
1.85211
1.7458
1.62534
1.4952
1.36057
1.22607
1.09517
0.970101
0.851228
0.737307
0.626153
0.515502
0.403762
0.290889
0.180288
0.0781521
-0.00828505
-0.0725728
-0.110382
-0.120077
-0.102629
-0.0611907
-0.000623512
0.0722252
0.150397
0.227786
0.29914
0.36069
0.409975
0.445538
0.467394
0.476971
0.476935
0.470884
0.462935
0.457216
0.457287
0.466443
0.488457
0.522582
0.560161
0.5899
0.601393
0.588551
0.551727
0.49779
0.438162
0.385478
0.349249
0.32978
0.326085
0.337333
0.354958
0.367709
0.365544
0.342804
0.300189
0.244683
0.187309
0.139517
0.109745
0.0974147
0.0989055
0.113433
0.140075
0.178267
0.234508
0.322713
0.430588
0.531786
0.595643
0.60539
0.571197
0.526945
0.511327
0.545613
0.619503
0.702994
0.780485
0.839464
0.872844
0.879008
0.86062
0.823475
0.776644
0.729383
0.690102
0.671186
0.68398
0.716612
0.744614
0.741726
0.692147
0.597382
0.474698
0.349452
0.246201
0.172706
0.121637
0.0895196
0.0799499
0.0984221
0.143064
0.196262
0.237685
0.249657
0.222415
0.15714
0.0652465
-0.131725
0
0.726445
2.16384
4.17529
6.33855
8.04971
8.7529
8.19568
6.56561
4.41445
2.40078
0.996493
0.321752
0.181711
0.233843
0.150564
0.0703647
-0.00248175
-0.0642263
-0.111992
-0.143962
-0.159397
-0.158461
-0.141912
-0.110815
-0.0655933
-0.00170183
0.0857656
0.186787
0.278369
0.333406
0.330588
0.264387
0.150218
0.0218295
-0.0792126
-0.11903
-0.105634
-0.0643578
-0.00568299
0.061386
0.127547
0.184891
0.228191
0.255538
0.268275
0.270367
0.267448
0.265791
0.27078
0.286234
0.31484
0.358279
0.416717
0.488824
0.571982
0.662689
0.757096
0.851584
0.943306
1.03047
1.11249
1.18993
1.26434
1.33794
1.41336
1.49319
1.57968
1.67437
1.77783
1.8895
2.00769
2.12977
2.25248
2.37231
2.48563
2.58862
2.67754
2.74929
2.80143
2.83179
2.83833
2.81937
2.77388
2.70193
2.6049
2.48554
2.34765
2.19572
2.03443
1.86806
1.69984
1.53229
1.36776
1.2086
1.0572
0.915877
0.786713
0.671303
0.570223
0.483175
0.409135
0.346629
0.294023
0.249738
0.212348
0.18068
0.153362
0.128919
0.105714
0.0819358
0.0556457
0.0248657
-0.0122593
-0.0571984
-0.110592
-0.174365
-0.248694
-0.322984
-0.382679
-0.413903
-0.408723
-0.368627
-0.304285
-0.231353
-0.164123
-0.10998
-0.0635741
-0.0206424
0.0247971
0.0810947
0.148525
0.2159
0.266653
0.285829
0.265453
0.206534
0.118109
0.0147704
-0.0861832
-0.170463
-0.232816
-0.273497
-0.292231
-0.289853
-0.269788
-0.237478
-0.199381
-0.16175
-0.129426
-0.1052
-0.0895977
-0.0811906
-0.0772807
-0.0746974
-0.0705022
-0.0627285
-0.0500848
-0.031703
-0.0072917
0.0228505
0.0578249
0.0961776
0.136026
0.175419
0.212637
0.246507
0.276676
0.30372
0.329088
0.354875
0.383492
0.417303
0.45874
0.510203
0.573801
0.650573
0.737688
0.823824
0.891977
0.923856
0.903668
0.82332
0.687265
0.513928
0.331354
0.167826
0.0373215
-0.0687114
-0.159099
-0.234252
-0.293652
-0.337308
-0.364294
-0.373094
-0.362343
-0.331704
-0.282645
-0.217601
-0.140185
-0.0620379
0.00417891
0.0483703
0.0659574
0.0594905
0.0347044
-0.145642
0
0.701942
2.04149
3.83261
5.61325
6.79511
6.92662
5.92792
4.14932
2.20315
0.667031
-0.162409
-0.3324
-0.11486
-0.0695061
-0.0396238
-0.0311678
-0.0447669
-0.0739923
-0.108113
-0.136035
-0.150303
-0.151896
-0.143362
-0.125928
-0.100987
-0.0700236
-0.0343422
0.00507565
0.0473649
0.0916444
0.136836
0.181412
0.223769
0.262671
0.297628
0.329065
0.358156
0.386341
0.414693
0.443395
0.471297
0.49616
0.515326
0.52659
0.528997
0.523374
0.512522
0.501077
0.495107
0.50061
0.522652
0.565605
0.632724
0.724961
0.840531
0.974941
1.12316
1.2764
1.42572
1.56432
1.6888
1.79937
1.89914
1.99267
2.08435
2.1772
2.27212
2.36863
2.46574
2.56225
2.65723
2.75024
2.84141
2.93146
3.02161
3.11366
3.21231
3.33519
3.50301
3.69145
3.84143
3.89008
3.81068
3.62961
3.40782
3.20117
3.02977
2.87124
2.71405
2.55596
2.39643
2.23612
2.07687
1.92144
1.77298
1.63451
1.50841
1.39619
1.29808
1.21279
1.13812
1.07157
1.01104
0.955365
0.904727
0.860927
0.826591
0.804685
0.797616
0.810562
0.850216
0.906675
0.964893
1.01061
1.03556
1.04003
1.03124
1.01855
1.00828
1.00131
0.994872
0.987242
0.98046
0.980741
0.995759
1.03032
1.08295
1.14474
1.20451
1.25117
1.27699
1.27919
1.25958
1.22305
1.17585
1.12488
1.07502
1.02943
0.990369
0.95965
0.939481
0.929041
0.92304
0.915375
0.901639
0.88126
0.858189
0.839577
0.832871
0.842551
0.866576
0.900531
0.937905
0.972872
1.00285
1.02983
1.05993
1.1136
1.24011
1.42373
1.608
1.72978
1.75068
1.67123
1.52417
1.35442
1.19964
1.08072
0.984162
0.89709
0.813851
0.731525
0.648191
0.562754
0.475218
0.386862
0.300175
0.218568
0.145917
0.0858488
0.0409581
0.0123487
0
0.00211077
0.016617
0.0345663
0.0468004
0.0459302
0.0277961
-0.00803285
-0.136975
-0.144909
0.37114
1.56881
3.32326
5.19744
6.59444
7.02899
6.36332
4.86517
3.05878
1.46796
0.404528
-0.09677
-0.202296
-0.205171
-0.239557
-0.278497
-0.321929
-0.369207
-0.419092
-0.469767
-0.518194
-0.559199
-0.587327
-0.597395
-0.585856
-0.552179
-0.499658
-0.435161
-0.367711
-0.306305
-0.25719
-0.220319
-0.195738
-0.181417
-0.173973
-0.169545
-0.16466
-0.157007
-0.145392
-0.129592
-0.110167
-0.0881418
-0.0647438
-0.0411534
-0.0183622
0.0031754
0.0237012
0.0442062
0.0663435
0.0921594
0.123654
0.162251
0.20834
0.260971
0.318087
0.377146
0.435666
0.491915
0.545413
0.597116
0.649229
0.704748
0.766869
0.838327
0.920677
1.01471
1.12044
1.23682
1.3618
1.49236
1.62478
1.75399
1.87467
1.98255
2.0754
2.15359
2.22003
2.27925
2.33512
2.39257
2.44901
2.4939
2.51317
2.49463
2.43152
2.32319
2.17365
1.99014
1.78463
1.57105
1.35861
1.15353
0.960559
0.783886
0.62676
0.491144
0.37713
0.283707
0.20929
0.152799
0.112837
0.088378
0.0785552
0.0835078
0.102548
0.132372
0.168554
0.205943
0.238605
0.259578
0.263888
0.248705
0.214214
0.164416
0.107381
0.0543975
0.0178741
0.00843716
0.029648
0.0767276
0.146141
0.231258
0.324022
0.414853
0.495007
0.558013
0.600332
0.62152
0.623937
0.612086
0.591628
0.568138
0.545759
0.526105
0.507817
0.485715
0.452257
0.399568
0.303205
0.138523
-0.0550683
-0.218021
-0.29619
-0.263339
-0.131996
0.051494
0.226403
0.343511
0.399869
0.42909
0.441605
0.442155
0.435024
0.423584
0.410066
0.39544
0.380042
0.363844
0.34678
0.329148
0.312042
0.29808
0.292043
0.299976
0.328227
0.38177
0.462592
0.575389
0.71606
0.868775
1.01113
1.1234
1.19275
1.21325
1.18467
1.11175
1.00377
0.873612
0.735475
0.601857
0.478694
0.365311
0.260133
0.16289
0.0741488
-0.00448246
-0.0698123
-0.119152
-0.150305
-0.161984
-0.154826
-0.132013
-0.0991626
-0.0634061
-0.0319166
-0.0103537
0
0.0014679
-0.00690765
-0.0219648
-0.054415
0.0718045
0.596691
1.72194
3.4168
5.32933
6.89326
7.58631
7.18777
5.87976
4.13705
2.48218
1.25598
0.523599
0.139919
-0.0946071
-0.190456
-0.275647
-0.350844
-0.412642
-0.460349
-0.494973
-0.518569
-0.533514
-0.541922
-0.545329
-0.544677
-0.540454
-0.532852
-0.521832
-0.507045
-0.48781
-0.463195
-0.432316
-0.394778
-0.35109
-0.30297
-0.252879
-0.203661
-0.157874
-0.117145
-0.0817886
-0.0507893
-0.0221681
0.00640564
0.0369043
0.070315
0.106841
0.144937
0.18052
0.208545
0.22494
0.228498
0.222237
0.213629
0.213368
0.232868
0.281225
0.359298
0.460395
0.580723
0.714313
0.854098
0.993112
1.12552
1.24635
1.35319
1.44604
1.52706
1.60031
1.67095
1.74437
1.82498
1.9156
2.02022
2.13191
2.23981
2.33348
2.40703
2.46136
2.50341
2.54282
2.58936
2.64438
2.69725
2.73026
2.72586
2.67271
2.56869
2.42073
2.24231
2.04942
1.85604
1.66799
1.48658
1.31225
1.14592
0.988625
0.841807
0.707364
0.587763
0.486956
0.408005
0.349134
0.306267
0.273892
0.246374
0.219264
0.190197
0.159194
0.128408
0.101393
0.0814339
0.0710699
0.0740903
0.0961295
0.140442
0.200748
0.263441
0.313682
0.339494
0.335026
0.302068
0.249444
0.190375
0.138327
0.101287
0.0780575
0.0639193
0.0531029
0.0387313
0.0149618
-0.0211086
-0.068363
-0.121729
-0.173355
-0.214545
-0.238576
-0.241249
-0.222211
-0.184898
-0.135477
-0.0810774
-0.0278781
0.0206035
0.06377
0.102316
0.137618
0.170167
0.198787
0.219906
0.228343
0.219303
0.190508
0.143619
0.0844095
0.0216488
-0.0348739
-0.0773463
-0.102417
-0.10722
-0.0910684
-0.0550956
-0.00184954
0.0647524
0.140547
0.220557
0.297274
0.363989
0.416618
0.455203
0.484236
0.511388
0.544892
0.590929
0.654357
0.726576
0.79269
0.837549
0.85135
0.832224
0.785073
0.717994
0.638654
0.55329
0.466289
0.380221
0.297384
0.220444
0.152289
0.0955136
0.0522891
0.0248773
0.0155117
0.0224929
0.0362633
0.0463033
0.0445202
0.0282231
0.00149742
-0.0257748
-0.0411307
-0.0338985
0
0.0515878
0.139736
0.354891
0.675332
1.38671
2.66896
4.37088
5.9851
6.88184
6.66147
5.3869
3.54221
1.75919
0.502406
-0.0936994
-0.178421
-0.0529291
0.0111513
0.0626129
0.0972489
0.112647
0.10853
0.086719
0.050832
0.00585227
-0.0421971
-0.0875183
-0.124646
-0.148699
-0.155864
-0.143797
-0.111827
-0.0609339
0.00647036
0.0899921
0.18892
0.29352
0.386667
0.449708
0.466886
0.431125
0.348312
0.237602
0.127023
0.045587
0.00771931
0.00412421
0.0257414
0.0701115
0.135141
0.2186
0.313189
0.40348
0.473594
0.510352
0.506912
0.466885
0.406165
0.350298
0.327539
0.36007
0.440777
0.550938
0.682302
0.833123
0.990676
1.13541
1.25049
1.32609
1.36228
1.36943
1.36557
1.3713
1.4038
1.46874
1.55748
1.66225
1.7784
1.90228
2.03084
2.16246
2.29815
2.45602
2.69392
2.98123
3.23092
3.34789
3.27844
3.03543
2.68904
2.33466
2.05867
1.87015
1.70798
1.55353
1.4032
1.25658
1.11493
0.981308
0.859552
0.753953
0.668306
0.605109
0.565133
0.547391
0.549446
0.567872
0.598741
0.637594
0.680573
0.724454
0.766545
0.804611
0.83682
0.862252
0.880847
0.893414
0.901514
0.907143
0.912237
0.918092
0.924949
0.930938
0.932224
0.92382
0.900785
0.859512
0.798776
0.720335
0.628973
0.531991
0.437939
0.353806
0.285009
0.238214
0.225459
0.253152
0.305189
0.359739
0.396416
0.402559
0.376699
0.328232
0.273834
0.232211
0.222582
0.304994
0.488592
0.703214
0.867954
0.92076
0.841718
0.661885
0.452622
0.300532
0.27587
0.344303
0.444164
0.553889
0.663294
0.76289
0.845132
0.905202
0.9412
0.953855
0.946019
0.922231
0.888761
0.852734
0.820926
0.807551
0.851843
0.945945
1.04944
1.10434
1.06532
0.926031
0.724238
0.522719
0.377156
0.308711
0.266682
0.236093
0.207654
0.175114
0.136769
0.0953587
0.0564377
0.0259008
0.00744785
-0.00065968
0
0.00650491
0.0163185
0.0272387
0.0381983
0.0492639
0.0612418
0.0751108
0.0913512
0.117717
0.296643
0.785943
1.77293
3.27024
5.02312
6.5617
7.38887
7.20804
6.06639
4.33432
2.53418
1.11553
0.29242
0.0143183
0.0629238
0.104311
0.143754
0.179979
0.211958
0.239347
0.262354
0.281371
0.297128
0.310618
0.323244
0.336785
0.353329
0.37513
0.404337
0.4426
0.490672
0.548117
0.613247
0.683203
0.75487
0.82523
0.891911
0.953571
1.01003
1.06216
1.11156
1.16015
1.2097
1.26171
1.31706
1.37436
1.42847
1.47221
1.49866
1.50353
1.48708
1.45465
1.41566
1.38119
1.36122
1.35996
1.37581
1.40627
1.45019
1.50707
1.57647
1.65822
1.75246
1.85946
1.97933
2.11184
2.25626
2.4112
2.57459
2.74369
2.91515
3.08401
3.24106
3.37725
3.48474
3.55891
3.60006
3.61363
3.6087
3.59513
3.58031
3.5666
3.5517
3.53146
3.50029
3.45218
3.38182
3.28553
3.16203
3.01283
2.84231
2.65719
2.46586
2.27675
2.09663
1.93106
1.78381
1.65667
1.54953
1.4605
1.38665
1.32461
1.27109
1.22336
1.17943
1.13814
1.09913
1.06275
1.02991
1.00219
0.98152
0.969944
0.969342
0.981049
1.00708
1.04995
1.10851
1.17317
1.23094
1.26981
1.28209
1.26647
1.22811
1.17688
1.12412
1.07942
1.04616
1.02265
1.00664
0.996351
0.990111
0.986094
0.982519
0.977717
0.970298
0.959263
0.944089
0.924769
0.901785
0.875967
0.848302
0.819719
0.790928
0.762343
0.734137
0.706343
0.678967
0.652101
0.626018
0.601248
0.578606
0.559252
0.544617
0.536252
0.53575
0.545365
0.56764
0.601532
0.639873
0.673214
0.692132
0.689651
0.662951
0.613965
0.548911
0.477078
0.409074
0.3527
0.312515
0.292362
0.293438
0.314283
0.351356
0.400097
0.456186
0.516494
0.57954
0.646868
0.729835
0.88464
1.16054
1.4817
1.74596
1.86871
1.81992
1.62999
1.36162
1.07261
0.803695
0.596247
0.452571
0.348334
0.270072
0.224983
0.21273
0.221167
0.23524
0.241374
0.231137
0.20288
0.161033
0.113761
0.0701469
0.036351
0.0135374
0.00151489
0
0.00984786
0.027977
0.0522044
0.0925639
0.2071
0.629813
1.63141
3.28211
5.28936
7.04265
7.88745
7.47644
5.9683
3.94065
2.0781
0.838246
0.293553
0.202391
0.132486
-0.0521519
-0.231177
-0.393611
-0.530687
-0.637079
-0.701364
-0.729813
-0.733892
-0.726431
-0.717741
-0.71315
-0.71276
-0.713166
-0.710042
-0.700589
-0.685686
-0.666537
-0.643994
-0.618893
-0.591744
-0.562525
-0.530595
-0.494792
-0.453661
-0.405811
-0.350337
-0.286332
-0.212985
-0.134324
-0.0587835
0.00503961
0.0514919
0.080173
0.0963018
0.108789
0.126833
0.160379
0.204792
0.245325
0.265455
0.257003
0.226861
0.196762
0.19581
0.248829
0.359806
0.503769
0.664098
0.832049
0.998986
1.15764
1.30252
1.43007
1.53793
1.62634
1.69815
1.75728
1.80812
1.85504
1.90191
1.95175
2.00643
2.06651
2.13105
2.19829
2.26593
2.33024
2.38483
2.42329
2.43889
2.42552
2.37896
2.29792
2.18445
2.04355
1.8823
1.70965
1.53376
1.35888
1.18769
1.02158
0.859928
0.700586
0.540565
0.375396
0.1999
0.0278049
-0.114097
-0.196437
-0.200474
-0.127504
-0.000147212
0.145034
0.2705
0.350877
0.390507
0.396349
0.381664
0.359236
0.336468
0.314427
0.292212
0.269333
0.246595
0.226183
0.210852
0.202701
0.201589
0.205485
0.212278
0.219402
0.22447
0.225819
0.222841
0.216059
0.206969
0.197707
0.190454
0.187097
0.188808
0.196307
0.209051
0.224296
0.238239
0.247484
0.250228
0.247017
0.240763
0.235969
0.237435
0.248829
0.271012
0.304394
0.346253
0.388896
0.42243
0.43853
0.433026
0.407722
0.370667
0.334266
0.311508
0.311647
0.334632
0.372364
0.419182
0.472077
0.528964
0.589236
0.654453
0.731197
0.834546
0.970438
1.11338
1.22533
1.27208
1.23643
1.12407
0.961041
0.784071
0.626977
0.50285
0.400248
0.309294
0.225941
0.148668
0.0764712
0.00894942
-0.0532832
-0.108116
-0.152788
-0.183655
-0.190637
-0.126891
0.0484642
0.279584
0.477451
0.562516
0.503555
0.326908
0.0889926
-0.165657
0
0.576909
1.56691
2.89726
4.38158
5.70399
6.48534
6.43559
5.51243
3.97593
2.28783
0.904843
0.0866258
-0.177556
-0.105395
-0.0872642
-0.0690039
-0.0496143
-0.0278243
-0.00215049
0.0289458
0.0668828
0.112827
0.167608
0.232929
0.315376
0.419058
0.527203
0.612867
0.647773
0.616368
0.527025
0.412798
0.31992
0.289203
0.330761
0.443309
0.595979
0.74251
0.840873
0.868372
0.829223
0.75151
0.67408
0.628808
0.627405
0.6475
0.675273
0.705733
0.735965
0.765649
0.796597
0.831625
0.873316
0.922416
0.978201
1.04015
1.10792
1.18142
1.26087
1.34687
1.44006
1.54078
1.64881
1.76314
1.88202
2.00315
2.12406
2.24238
2.3561
2.46366
2.56362
2.6548
2.73694
2.81049
2.8767
2.93774
2.99663
3.057
3.12474
3.2066
3.30022
3.3897
3.45377
3.47302
3.43563
3.34026
3.19588
3.01842
2.82518
2.62947
2.43672
2.2477
2.06279
1.88346
1.71193
1.55096
1.40358
1.27257
1.16022
1.06829
0.997185
0.944544
0.906519
0.879058
0.85882
0.843818
0.833616
0.829017
0.831391
0.841832
0.860015
0.885449
0.915544
0.945445
0.969717
0.983555
0.98379
0.969516
0.942245
0.905609
0.864727
0.825331
0.792141
0.767747
0.753896
0.753499
0.76444
0.781008
0.796674
0.806046
0.806295
0.797491
0.781776
0.761852
0.739532
0.715387
0.689051
0.659646
0.626569
0.589883
0.550435
0.509696
0.469377
0.431077
0.395917
0.364353
0.336447
0.312256
0.292199
0.277219
0.268666
0.267955
0.276145
0.292981
0.318053
0.350529
0.389252
0.432899
0.480371
0.531018
0.584579
0.641201
0.701477
0.766737
0.840432
0.930282
1.03777
1.142
1.2079
1.19836
1.09212
0.897363
0.653089
0.416101
0.239275
0.127068
0.048054
-0.00843225
-0.0453595
-0.0661651
-0.0747044
-0.0747415
-0.0690469
-0.0590926
-0.0450131
-0.0258436
0
0.0340871
0.0773489
0.129549
0.190602
0.257264
0.325593
0.392143
0.454977
0.509921
0.304252
0.42403
1.22304
2.82609
4.9588
6.98484
8.1728
8.05495
6.66613
4.51711
2.32689
0.680579
-0.192364
-0.420643
-0.320846
-0.263079
-0.208063
-0.159524
-0.122174
-0.0996817
-0.0946632
-0.107453
-0.134973
-0.170336
-0.203645
-0.224038
-0.222445
-0.196515
-0.148666
-0.079455
0.00165202
0.0807815
0.145614
0.188698
0.209205
0.21269
0.208913
0.208394
0.218819
0.241579
0.272326
0.306627
0.339872
0.368273
0.389802
0.404402
0.413522
0.419287
0.423745
0.428507
0.434885
0.444432
0.459353
0.48264
0.517751
0.567908
0.635229
0.720054
0.819734
0.930614
1.0491
1.17158
1.29505
1.41762
1.53855
1.65818
1.77775
1.89905
2.02406
2.15449
2.29132
2.43438
2.58214
2.73167
2.87904
3.01982
3.14972
3.26517
3.36361
3.44365
3.50485
3.54727
3.57086
3.57481
3.55746
3.5171
3.45199
3.36109
3.24475
3.10534
2.94734
2.77706
2.60176
2.42851
2.26274
2.10795
1.96516
1.83297
1.70834
1.58719
1.46003
1.30345
1.10508
0.899558
0.732586
0.641957
0.645486
0.738363
0.899475
1.10129
1.31607
1.51589
1.68609
1.8278
1.93248
1.99405
2.01111
1.98724
1.93016
1.85013
1.75834
1.66584
1.58084
1.50739
1.44777
1.40372
1.3783
1.37411
1.39037
1.42351
1.46843
1.51734
1.55869
1.58155
1.57775
1.544
1.4841
1.40974
1.33813
1.28642
1.26506
1.26966
1.29151
1.31749
1.33553
1.33915
1.32907
1.31142
1.29368
1.28071
1.27182
1.2645
1.25637
1.24576
1.23264
1.21884
1.20757
1.20246
1.20642
1.22021
1.2435
1.27615
1.31782
1.36806
1.42709
1.49583
1.57533
1.66472
1.75769
1.84116
1.89951
1.91801
1.88626
1.80139
1.66977
1.50639
1.33157
1.16599
1.021
0.8953
0.785946
0.693416
0.617861
0.558777
0.514509
0.482793
0.460995
0.446324
0.436
0.427334
0.417753
0.4048
0.386174
0.359818
0.324075
0.277371
0.217225
0.142314
0.0557121
-0.0381034
-0.157404
0
0.689817
2.06014
3.99454
6.06627
7.67207
8.29659
7.75719
6.27677
4.34669
2.48094
1.01844
0.0663599
-0.435457
-0.601563
-0.552776
-0.504259
-0.457662
-0.414611
-0.376659
-0.345209
-0.321695
-0.307554
-0.303429
-0.309186
-0.32357
-0.343946
-0.36655
-0.385307
-0.393657
-0.38586
-0.358245
-0.309973
-0.243054
-0.161597
-0.0706219
0.025022
0.121468
0.216121
0.305766
0.385864
0.451879
0.498335
0.520482
0.516706
0.490445
0.450596
0.40997
0.382229
0.378369
0.398293
0.437035
0.491245
0.558439
0.635725
0.720333
0.810161
0.904052
1.00152
1.10249
1.20688
1.31432
1.42391
1.53415
1.64309
1.74855
1.84852
1.94137
2.02646
2.10441
2.17707
2.24743
2.31923
2.39634
2.48276
2.58676
2.71356
2.85048
2.97895
3.08109
3.14522
3.16745
3.14941
3.09444
3.00548
2.88665
2.74894
2.60035
2.44707
2.29505
2.14861
2.00866
1.87524
1.74888
1.62975
1.51771
1.4123
1.31252
1.21652
1.12204
1.0268
0.928965
0.827354
0.727175
0.64015
0.579672
0.555255
0.56833
0.611524
0.671802
0.735754
0.7942
0.84608
0.892676
0.93337
0.968146
0.996076
1.01585
1.02673
1.02928
1.02526
1.01684
1.00535
0.990637
0.971375
0.945786
0.913145
0.874895
0.834983
0.799171
0.773537
0.76268
0.766837
0.785382
0.814162
0.847223
0.87814
0.901063
0.91205
0.909546
0.894477
0.869955
0.840678
0.812069
0.789306
0.776423
0.775104
0.784229
0.802623
0.828958
0.8616
0.898797
0.939235
0.981984
1.02648
1.07245
1.11972
1.16801
1.21652
1.26323
1.30404
1.3332
1.34397
1.32971
1.28543
1.20931
1.10376
0.975699
0.835791
0.696674
0.569403
0.459658
0.371647
0.307666
0.267706
0.250126
0.252501
0.272316
0.308776
0.366297
0.450933
0.555687
0.657044
0.726069
0.737745
0.679917
0.557274
0.388317
0.196833
0
0.186385
0.80353
1.91248
3.41767
5.0076
6.21659
6.62033
6.06234
4.75501
3.17154
1.7949
0.890536
0.440744
0.252407
0.172862
0.118139
0.0746692
0.046061
0.0344409
0.0402148
0.0620779
0.0972544
0.141897
0.191511
0.241574
0.287475
0.325415
0.352945
0.369373
0.376023
0.376208
0.374779
0.377214
0.388398
0.411397
0.445947
0.490047
0.53959
0.589645
0.635798
0.67522
0.707127
0.73251
0.753333
0.771547
0.788397
0.804206
0.81856
0.830859
0.840773
0.848599
0.855433
0.863125
0.874058
0.890686
0.915128
0.949085
0.993647
1.04907
1.11468
1.18894
1.26969
1.35443
1.44072
1.52654
1.61057
1.69232
1.77205
1.85051
1.92856
2.00685
2.08553
2.16416
2.24182
2.31727
2.38921
2.45653
2.51835
2.57399
2.6224
2.66118
2.686
2.69287
2.67693
2.6335
2.55929
2.45343
2.31794
2.15739
1.97819
1.788
1.59501
1.40466
1.22167
1.05002
0.893796
0.757225
0.639687
0.538808
0.451525
0.375339
0.309223
0.253766
0.210459
0.18397
0.17511
0.17816
0.184585
0.186339
0.179163
0.164114
0.146616
0.133616
0.130341
0.136432
0.148622
0.16466
0.18253
0.200917
0.21967
0.239842
0.263321
0.292161
0.329221
0.377234
0.433322
0.485218
0.517497
0.516573
0.475701
0.398026
0.296117
0.187794
0.0898621
0.0111522
-0.0527773
-0.106623
-0.151484
-0.187528
-0.213643
-0.227689
-0.226277
-0.205218
-0.142036
-0.015803
0.141465
0.282156
0.363858
0.369357
0.315653
0.246513
0.211139
0.239643
0.318134
0.412837
0.510745
0.603882
0.68603
0.753002
0.800155
0.8233
0.820723
0.790907
0.733352
0.649802
0.545039
0.426706
0.304073
0.186276
0.0783383
-0.0180125
-0.100785
-0.169378
-0.223989
-0.265513
-0.296031
-0.317883
-0.333024
-0.342667
-0.347148
-0.346067
-0.338665
-0.324318
-0.302962
-0.27555
-0.243348
-0.207943
-0.170895
-0.133063
-0.20129
0
0.708931
2.0397
3.85716
5.73622
7.07929
7.3755
6.47209
4.67988
2.62569
0.929748
-0.0873146
-0.48635
-0.55974
-0.581804
-0.596758
-0.608788
-0.617234
-0.622103
-0.623752
-0.622724
-0.619699
-0.615654
-0.612265
-0.61364
-0.626224
-0.658174
-0.717165
-0.807419
-0.927199
-1.0679
-1.21531
-1.32058
-1.04795
-0.519604
0.0141601
0.304514
0.232493
-0.131599
-0.573869
-0.857057
-0.846679
-0.710806
-0.589308
-0.498303
-0.441374
-0.403618
-0.357582
-0.275593
-0.134267
0.0636576
0.272875
0.438843
0.524911
0.528257
0.477825
0.417817
0.387453
0.408185
0.460476
0.529986
0.612337
0.705606
0.807844
0.917101
1.03143
1.14893
1.26785
1.3868
1.50486
1.62156
1.73676
1.85041
1.96218
2.07093
2.17372
2.26524
2.34053
2.3955
2.42882
2.44342
2.44676
2.44941
2.4669
2.52068
2.59437
2.64444
2.61939
2.48441
2.23878
1.91764
1.57823
1.27782
1.03135
0.815903
0.627806
0.468115
0.336056
0.229696
0.146694
0.0841665
0.0384966
0.00627707
-0.015339
-0.0283845
-0.0339773
-0.0323919
-0.0232766
-0.00596007
0.0199856
0.0548692
0.0983993
0.149474
0.206479
0.266607
0.325398
0.378193
0.420982
0.451182
0.468057
0.472702
0.467609
0.456033
0.441446
0.426878
0.41453
0.406131
0.402851
0.405227
0.413107
0.425658
0.441492
0.458901
0.476175
0.491901
0.505207
0.515727
0.523532
0.528924
0.532207
0.533493
0.532542
0.528844
0.521736
0.510611
0.495165
0.475638
0.452969
0.428873
0.40609
0.388521
0.380319
0.385363
0.406583
0.445386
0.501321
0.572082
0.653883
0.742097
0.831973
0.919618
1.00232
1.07796
1.14497
1.20165
1.24536
1.2725
1.28037
1.26599
1.22688
1.16209
1.07308
0.964238
0.842679
0.717468
0.59815
0.491195
0.402404
0.335298
0.29073
0.267047
0.261564
0.268175
0.280214
0.291596
0.297681
0.295689
0.284614
0.264749
0.237055
0.202618
0.162739
0.118351
0.0701213
0.0189229
-0.0359747
0
0.454308
1.52306
3.19782
5.16766
6.87445
7.73763
7.4449
6.12907
4.30368
2.58839
1.40069
0.809461
0.617326
0.561465
0.408869
0.257677
0.110018
-0.0294074
-0.155169
-0.26128
-0.338982
-0.356509
-0.304096
-0.213536
-0.128044
-0.0840867
-0.0969741
-0.157491
-0.239874
-0.315063
-0.361521
-0.381511
-0.384386
-0.373714
-0.350485
-0.315569
-0.270139
-0.215728
-0.154144
-0.0873239
-0.018681
0.0462823
0.102052
0.1445
0.172108
0.186649
0.192951
0.197766
0.208102
0.229612
0.263502
0.308294
0.36271
0.425444
0.494754
0.568666
0.645169
0.722334
0.798387
0.871648
0.940181
1.00162
1.05439
1.09797
1.13319
1.16275
1.19154
1.22618
1.27403
1.34156
1.43258
1.54454
1.67174
1.80914
1.9501
2.08663
2.21129
2.31809
2.40282
2.46285
2.4943
2.49593
2.46674
2.406
2.31376
2.19159
2.04305
1.8737
1.69051
1.50102
1.31225
1.12899
0.955102
0.793339
0.645392
0.511958
0.392866
0.287237
0.193701
0.110689
0.0367737
-0.0289822
-0.0867712
-0.135776
-0.174694
-0.201988
-0.215536
-0.211025
-0.186735
-0.150965
-0.114842
-0.0889332
-0.079876
-0.0884778
-0.110118
-0.137205
-0.162494
-0.181709
-0.195788
-0.206513
-0.21514
-0.222348
-0.227735
-0.229821
-0.226511
-0.215861
-0.197405
-0.171177
-0.13807
-0.102193
-0.0686499
-0.0418427
-0.0241877
-0.0155164
-0.0134212
-0.014404
-0.0153378
-0.0146055
-0.0126176
-0.0105812
-0.00992612
-0.0115355
-0.0153279
-0.0203451
-0.0252519
-0.0289611
-0.031141
-0.0320113
-0.0318969
-0.0307177
-0.0274459
-0.0198053
-0.00434419
0.0231132
0.0667496
0.130915
0.236008
0.412144
0.637726
0.855597
1.01097
1.06898
1.02434
0.900628
0.739087
0.581035
0.452096
0.348112
0.258447
0.178832
0.109458
0.0522731
0.00932654
-0.017715
-0.0280618
-0.0221562
-0.00137001
0.033146
0.0785743
0.126674
0.166932
0.190062
0.189958
0.165202
0.119391
0.0599655
-0.00392613
-0.0634915
0
0.272363
0.778761
1.67067
2.99495
4.54494
5.86151
6.43082
5.97122
4.61512
2.85299
1.27217
0.263508
-0.122824
-0.108176
-0.0866463
-0.0818939
-0.0827112
-0.090177
-0.104675
-0.125832
-0.152467
-0.18276
-0.213784
-0.241499
-0.261675
-0.270692
-0.266264
-0.247893
-0.216808
-0.175389
-0.126235
-0.0712354
-0.0112006
0.054307
0.126086
0.204582
0.289705
0.3756
0.453782
0.515651
0.555271
0.571133
0.5663
0.547117
0.521332
0.49641
0.476926
0.465556
0.464972
0.477213
0.503477
0.543966
0.597762
0.662857
0.736369
0.815085
0.895709
0.975635
1.05338
1.12871
1.20247
1.27614
1.35128
1.42911
1.5102
1.59454
1.68196
1.77225
1.86534
1.96122
2.0597
2.16008
2.26089
2.3597
2.4534
2.53887
2.61359
2.67625
2.72692
2.76691
2.7981
2.82222
2.83979
2.84909
2.84634
2.82614
2.78227
2.70932
2.60429
2.46783
2.30476
2.12368
1.93566
1.75204
1.58058
1.42697
1.2949
1.18535
1.09676
1.0257
0.967308
0.916033
0.866479
0.813945
0.753992
0.682042
0.593972
0.490722
0.386805
0.304077
0.264533
0.284306
0.367247
0.500674
0.65659
0.799762
0.900167
0.957515
0.990098
1.00266
0.99998
0.986939
0.96745
0.944397
0.919291
0.892829
0.865703
0.838917
0.813849
0.792074
0.775007
0.763356
0.757171
0.755813
0.757563
0.759706
0.759487
0.754787
0.744675
0.729684
0.711728
0.693654
0.678555
0.669028
0.666062
0.669662
0.67941
0.693965
0.711965
0.732636
0.756235
0.784165
0.818723
0.864473
0.93186
1.03052
1.14738
1.25707
1.3331
1.35761
1.3267
1.24992
1.14493
1.03084
0.922989
0.826538
0.739702
0.660196
0.586381
0.516862
0.450246
0.385098
0.320076
0.254133
0.186654
0.117655
0.0483358
-0.0181412
-0.0767657
-0.121795
-0.147584
-0.149607
-0.125314
-0.0746291
0
0.0939894
0.201304
0.329374
0.499919
0.871767
1.6764
3.03382
4.77974
6.43619
7.39583
7.23667
5.96855
4.04103
2.10197
0.668343
-0.0837501
-0.304937
-0.314928
-0.359735
-0.402178
-0.438528
-0.4657
-0.481681
-0.485841
-0.479035
-0.463365
-0.441782
-0.417499
-0.393193
-0.37048
-0.349722
-0.330211
-0.310676
-0.289932
-0.267469
-0.243757
-0.220402
-0.199775
-0.184434
-0.176496
-0.177125
-0.186223
-0.202365
-0.22294
-0.24444
-0.262883
-0.274416
-0.275765
-0.264418
-0.238391
-0.196583
-0.13906
-0.0671312
0.0166999
0.108894
0.205304
0.301693
0.394156
0.479504
0.555563
0.621323
0.67691
0.723434
0.762771
0.797316
0.829816
0.863203
0.900445
0.944425
0.99779
1.06277
1.14096
1.23314
1.33907
1.45728
1.58523
1.71929
1.85512
1.98738
2.11071
2.22042
2.31305
2.38658
2.44019
2.47375
2.48706
2.47918
2.44795
2.39066
2.30463
2.18842
2.04297
1.87235
1.68376
1.48678
1.29181
1.10757
0.941427
0.798658
0.678899
0.578485
0.492025
0.414163
0.341013
0.270894
0.204291
0.1432
0.0901096
0.0466115
0.0142001
-0.00645041
-0.0154246
-0.0133958
-0.00150437
0.0188859
0.0462027
0.0787107
0.114547
0.151738
0.188197
0.22137
0.247692
0.264103
0.268053
0.258274
0.235534
0.202946
0.165543
0.129098
0.0985586
0.0765175
0.0624573
0.0537746
0.0462581
0.0352339
0.0166589
-0.012082
-0.0517404
-0.10107
-0.156635
-0.213768
-0.267069
-0.310569
-0.318469
-0.175621
0.142864
0.515119
0.794245
0.869592
0.721104
0.4311
78
268
462
647
843
1050
1242
1444
1649
1848
2059
2256
2453
2654
2844
3034
3230
3420
3608
0
0
0
0
0
0
0
0
0
0
0
0
0
0
0
0
0
0
0
0
0
0
0
0
0
0
0
0
0
0
0
0
0
0
0
0
0
0
0
0
0
0
0
0
0
0
0
0
0
0
0
0
0
0
0
0
0
0
0
0
0
0
0
0
0
0
0
0
0
0
0
0
0
0
0
0
0
0
0
0
0
0
0
0
0
0
0
0
0
0
0
0
0
0
0
0
0
0
0
0
0
0
0
0
0
0
0
0
0
0
0
0
0
0
0
0
0
0
0
0
0
0
0
0
0
0
0
0
0
0
0
0
0
0
0
0
0
0
0
0
0
0
0
0
0
0
0
0
0
0
0
0
0
0
0
0
0
0
0
0
0
0
0
0
0
0
0
0
0
0
0
0
0
0
0
0
0
0
0
0
0
0
0
0
0
0
0
0
0
0
0
0
0
0
0
0
0
0
0
0
0
0
0
0
0
0
0
0
0
0
0
0
0
0
0
0
0
0
0
0
0
0
0
0
0
0
0
0
0
0
0
0
0
0
0
0
0
0
0
0
0
0
0
0
0
0
0
0
0
0
0
0
0
0
0
0
0
0
0
0
0
0
0
0
0
0
0
0
0
0
0
0
0
0
0
0
0
0
0
0
0
0
0
0
0
0
0
0
0
0
0
0
0
0
0
0
0
0
0
0
0
0
0
0
0
0
0
0
0
0
0
0
0
0
0
0
0
0
0
0
0
0
0
0
0
0
0
0
0
0
0
0
0
0
0
0
0
0
0
0
0
0
0
0
0
0
0
0
0
0
0
0
0
0
0
0
0
0
0
0
0
0
0
0
0
0
0
0
0
0
0
0
0
0
0
0
0
0
0
0
0
0
0
0
0
0
0
0
0
0
0
0
0
0
0
0
0
0
0
0
0
0
0
0
0
0
0
0
0
0
0
0
0
0
0
0
0
0
0
0
0
0
0
0
0
0
0
0
0
0
0
0
0
0
0
0
0
0
0
0
0
0
0
0
0
0
0
0
0
0
0
0
0
0
0
0
0
0
0
0
0
0
0
0
0
0
0
0
0
0
0
0
0
0
0
0
0
0
0
0
0
0
0
0
0
0
0
0
0
0
0
0
0
0
0
0
0
0
0
0
0
0
0
0
0
0
0
0
0
0
0
0
0
0
0
0
0
0
0
0
0
0
0
0
0
0
0
0
0
0
0
0
0
0
0
0
0
0
0
0
0
0
0
0
0
0
0
0
0
0
0
0
0
0
0
0
0
0
0
0
0
0
0
0
0
0
0
0
0
0
0
0
0
0
0
0
0
0
0
0
0
0
0
0
0
0
0
0
0
0
0
0
0
0
0
0
0
0
0
0
0
0
0
0
0
0
0
0
0
0
0
0
0
0
0
0
0
0
0
0
0
0
0
0
0
0
0
0
0
0
0
0
0
0
0
0
0
0
0
0
0
0
0
0
0
0
0
0
0
0
0
0
0
0
0
0
0
0
0
0
0
0
0
0
0
0
0
0
0
0
0
0
0
0
0
0
0
0
0
0
0
0
0
0
0
0
0
0
0
0
0
0
0
0
0
0
0
0
0
0
0
0
0
0
0
0
0
0
0
0
0
0
0
0
0
0
0
0
0
0
0
0
0
0
0
0
0
0
0
0
0
0
0
0
0
0
0
0
0
0
0
0
0
0
0
0
0
0
0
0
0
0
0
0
0
0
0
0
0
0
0
0
0
0
0
0
0
0
0
0
0
0
0
0
0
0
0
0
0
0
0
0
0
0
0
0
0
0
0
0
0
0
0
0
0
0
0
0
0
0
0
0
0
0
0
0
0
0
0
0
0
0
0
0
0
0
0
0
0
0
0
0
0
0
0
0
0
0
0
0
0
0
0
0
0
0
0
0
0
0
0
0
0
0
0
0
0
0
0
0
0
0
0
0
0
0
0
0
0
0
0
0
0
0
0
0
0
0
0
0
0
0
0
0
0
0
0
0
0
0
0
0
0
0
0
0
0
0
0
0
0
0
0
0
0
0
0
0
0
0
0
0
0
0
0
0
0
0
0
0
0
0
0
0
0
0
0
0
0
0
0
0
0
0
0
0
0
0
0
0
0
0
0
0
0
0
0
0
0
0
0
0
0
0
0
0
0
0
0
0
0
0
0
0
0
0
0
0
0
0
0
0
0
0
0
0
0
0
0
0
0
0
0
0
0
0
0
0
0
0
0
0
0
0
0
0
0
0
0
0
0
0
0
0
0
0
0
0
0
0
0
0
0
0
0
0
0
0
0
0
0
0
0
0
0
0
0
0
0
0
0
0
0
0
0
0
0
0
0
0
0
0
0
0
0
0
0
0
0
0
0
0
0
0
0
0
0
0
0
0
0
0
0
0
0
0
0
0
0
0
0
0
0
0
0
0
0
0
0
0
0
0
0
0
0
0
0
0
0
0
0
0
0
0
0
0
0
0
0
0
0
0
0
0
0
0
0
0
0
0
0
0
0
0
0
0
0
0
0
0
0
0
0
0
0
0
0
0
0
0
0
0
0
0
0
0
0
0
0
0
0
0
0
0
0
0
0
0
0
0
0
0
0
0
0
0
0
0
0
0
0
0
0
0
0
0
0
0
0
0
0
0
0
0
0
0
0
0
0
0
0
0
0
0
0
0
0
0
0
0
0
0
0
0
0
0
0
0
0
0
0
0
0
0
0
0
0
0
0
0
0
0
0
0
0
0
0
0
0
0
0
0
0
0
0
0
0
0
0
0
0
0
0
0
0
0
0
0
0
0
0
0
0
0
0
0
0
0
0
0
0
0
0
0
0
0
0
0
0
0
0
0
0
0
0
0
0
0
0
0
0
0
0
0
0
0
0
0
0
0
0
0
0
0
0
0
0
0
0
0
0
0
0
0
0
0
0
0
0
0
0
0
0
0
0
0
0
0
0
0
0
0
0
0
0
0
0
0
0
0
0
0
0
0
0
0
0
0
0
0
0
0
0
0
0
0
0
0
0
0
0
0
0
0
0
0
0
0
0
0
0
0
0
0
0
0
0
0
0
0
0
0
0
0
0
0
0
0
0
0
0
0
0
0
0
0
0
0
0
0
0
0
0
0
0
0
0
0
0
0
0
0
0
0
0
0
0
0
0
0
0
0
0
0
0
0
0
0
0
0
0
0
0
0
0
0
0
0
0
0
0
0
0
0
0
0
0
0
0
0
0
0
0
0
0
0
0
0
0
0
0
0
0
0
0
0
0
0
0
0
0
0
0
0
0
0
0
0
0
0
0
0
0
0
0
0
0
0
0
0
0
0
0
0
0
0
0
0
0
0
0
0
0
0
0
0
0
0
0
0
0
0
0
0
0
0
0
0
0
0
0
0
0
0
0
0
0
0
0
0
0
0
0
0
0
0
0
0
0
0
0
0
0
0
0
0
0
0
0
0
0
0
0
0
0
0
0
0
0
0
0
0
0
0
0
0
0
0
0
0
0
0
0
0
0
0
0
0
0
0
0
0
0
0
0
0
0
0
0
0
0
0
0
0
0
0
0
0
0
0
0
0
0
0
0
0
0
0
0
0
0
0
0
0
0
0
0
0
0
0
0
0
0
0
0
0
0
0
0
0
0
0
0
0
0
0
0
0
0
0
0
0
0
0
0
0
0
0
0
0
0
0
0
0
0
0
0
0
0
0
0
0
0
0
0
0
0
0
0
0
0
0
0
0
0
0
0
0
0
0
0
0
0
0
0
0
0
0
0
0
0
0
0
0
0
0
0
0
0
0
0
0
0
0
0
0
0
0
0
0
0
0
0
0
0
0
0
0
0
0
0
0
0
0
0
0
0
0
0
0
0
0
0
0
0
0
0
0
0
0
0
0
0
0
0
0
0
0
0
0
0
0
0
0
0
0
0
0
0
0
0
0
0
0
0
0
0
0
0
0
0
0
0
0
0
0
0
0
0
0
0
0
0
0
0
0
0
0
0
0
0
0
0
0
0
0
0
0
0
0
0
0
0
0
0
0
0
0
0
0
0
0
0
0
0
0
0
0
0
0
0
0
0
0
0
0
0
0
0
0
0
0
0
0
0
0
0
0
0
0
0
0
0
0
0
0
0
0
0
0
0
0
0
0
0
0
0
0
0
0
0
0
0
0
0
0
0
0
0
0
0
0
0
0
0
0
0
0
0
0
0
0
0
0
0
0
0
0
0
0
0
0
0
0
0
0
0
0
0
0
0
0
0
0
0
0
0
0
0
0
0
0
0
0
0
0
0
0
0
0
0
0
0
0
0
0
0
0
0
0
0
0
0
0
0
0
0
0
0
0
0
0
0
0
0
0
0
0
0
0
0
0
0
0
0
0
0
0
0
0
0
0
0
0
0
0
0
0
0
0
0
0
0
0
0
0
0
0
0
0
0
0
0
0
0
0
0
0
0
0
0
0
0
0
0
0
0
0
0
0
0
0
0
0
0
0
0
0
0
0
0
0
0
0
0
0
0
0
0
0
0
0
0
0
0
0
0
0
0
0
0
0
0
0
0
0
0
0
0
0
0
0
0
0
0
0
0
0
0
0
0
0
0
0
0
0
0
0
0
0
0
0
0
0
0
0
0
0
0
0
0
0
0
0
0
0
0
0
0
0
0
0
0
0
0
0
0
0
0
0
0
0
0
0
0
0
0
0
0
0
0
0
0
0
0
0
0
0
0
0
0
0
0
0
0
0
0
0
0
0
0
0
0
0
0
0
0
0
0
0
0
0
0
0
0
0
0
0
0
0
0
0
0
0
0
0
0
0
0
0
0
0
0
0
0
0
0
0
0
0
0
0
0
0
0
0
0
0
0
0
0
0
0
0
0
0
0
0
0
0
0
0
0
0
0
0
0
0
0
0
0
0
0
0
0
0
0
0
0
0
0
0
0
0
0
0
0
0
0
0
0
0
0
0
0
0
0
0
0
0
0
0
0
0
0
0
0
0
0
0
0
0
0
0
0
0
0
0
0
0
0
0
0
0
0
0
0
0
0
0
0
0
0
0
0
0
0
0
0
0
0
0
0
0
0
0
0
0
0
0
0
0
0
0
0
0
0
0
0
0
0
0
0
0
0
0
0
0
0
0
0
0
0
0
0
0
0
0
0
0
0
0
0
0
0
0
0
0
0
0
0
0
0
0
0
0
0
0
0
0
0
0
0
0
0
0
0
0
0
0
0
0
0
0
0
0
0
0
0
0
0
0
0
0
0
0
0
0
0
0
0
0
0
0
0
0
0
0
0
0
0
0
0
0
0
0
0
0
0
0
0
0
0
0
0
0
0
0
0
0
0
0
0
0
0
0
0
0
0
0
0
0
0
0
0
0
0
0
0
0
0
0
0
0
0
0
0
0
0
0
0
0
0
0
0
0
0
0
0
0
0
0
0
0
0
0
0
0
0
0
0
0
0
0
0
0
0
0
0
0
0
0
0
0
0
0
0
0
0
0
0
0
0
0
0
0
0
0
0
0
0
0
0
0
0
0
0
0
0
0
0
0
0
0
0
0
0
0
0
0
0
0
0
0
0
0
0
0
0
0
0
0
0
0
0
0
0
0
0
0
0
0
0
0
0
0
0
0
0
0
0
0
0
0
0
0
0
0
0
0
0
0
0
0
0
0
0
0
0
0
0
0
0
0
0
0
0
0
0
0
0
0
0
0
0
0
0
0
0
0
0
0
0
0
0
0
0
0
0
0
0
0
0
0
0
0
0
0
0
0
0
0
0
0
0
0
0
0
0
0
0
0
0
0
0
0
0
0
0
0
0
0
0
0
0
0
0
0
0
0
0
0
0
0
0
0
0
0
0
0
0
0
0
0
0
0
0
0
0
0
0
0
0
0
0
0
0
0
0
0
0
0
0
0
0
0
0
0
0
0
0
0
0
0
0
0
0
0
0
0
0
0
0
0
0
0
0
0
0
0
0
0
0
0
0
0
0
0
0
0
0
0
0
0
0
0
0
0
0
0
0
0
0
0
0
0
0
0
0
0
0
0
0
0
0
0
0
0
0
0
0
0
0
0
0
0
0
0
0
0
0
0
0
0
0
0
0
0
0
0
0
0
0
0
0
0
0
0
0
0
0
0
0
0
0
0
0
0
0
0
0
0
0
0
0
0
0
0
0
0
0
0
0
0
0
0
0
0
0
0
0
0
0
0
0
0
0
0
0
0
0
0
0
0
0
0
0
0
0
0
0
0
0
0
0
0
0
0
0
0
0
0
0
0
0
0
0
0
0
0
0
0
0
0
0
0
0
0
0
0
0
0
0
0
0
0
0
0
0
0
0
0
0
0
0
0
0
0
0
0
0
0
0
0
0
0
0
0
0
0
0
0
0
0
0
0
0
0
0
0
0
0
0
0
0
0
0
0
0
0
0
0
0
0
0
0
0
0
0
0
0
0
0
0
0
0
0
0
0
0
0
0
0
0
0
0
0
0
0
0
0
0
0
0
0
0
0
0
0
0
0
0
0
0
0
0
0
0
0
0
0
0
0
0
0
0
0
0
0
0
0
0
0
0
0
0
0
0
0
0
0
0
0
0
0
0
0
0
0
0
0
0
0
0
0
0
0
0
0
0
0
0
0
0
0
0
0
0
0
0
0
0
0
0
0
0
0
0
0
0
0
0
0
0
0
0
0
0
0
0
0
0
0
0
0
0
0
0
0
0
0
0
0
0
0
0
0
0
0
0
0
0
0
0
0
0
0
0
0
0
0
0
0
0
0
0
0
0
0
0
0
0
0
0
0
0
0
0
0
0
0
0
0
0
0
0
0
0
0
0
0
0
0
0
0
0
0
0
0
0
0
0
0
0
0
0
0
0
0
0
0
0
0
0
0
0
0
0
0
0
0
0
0
0
0
0
0
0
0
0
0
0
0
0
0
0
0
0
0
0
0
0
0
0
0
0
0
0
0
0
0
0
0
0
0
0
0
0
0
0
0
0
0
0
0
0
0
0
0
0
0
0
0
0
0
0
0
0
0
0
0
0
0
0
0
0
0
0
0
0
0
0
0
0
0
0
0
0
0
0
0
0
0
0
0
0
0
0
0
0
0
0
0
0
0
0
0
0
0
0
0
0
0
0
0
0
0
0
0
0
0
0
0
0
0
0
0
0
0
0
0
0
0
0
0
0
0
0
0
0
0
0
0
0
0
0
0
0
0
0
0
0
0
0
0
0
0
0
0
0
0
0
0
0
0
0
0
0
0
0
0
0
0
0
0
0
0
0
0
0
0
0
0
0
0
0
0
0
0
0
0
0
0
0
0
0
0
0
0
0
0
0
0
0
0
0
0
0
0
0
0
0
0
0
0
0
0
0
0
0
0
0
0
0
0
0
0
0
0
0
0
0
0
0
0
0
0
0
0
0
0
0
0
0
0
0
0
0
0
0
0
0
0
0
0
0
0
0
0
0
0
0
0
0
0
0
0
0
0
0
0
0
0
0
0
0
0
0
0
0
0
0
0
0
0
0
0
0
0
0
0
0
0
0
0
0
0
0
0
0
0
0
0
0
0
0
0
0
0
0
0
0
0
0
0
0
0
0
0
0
0
0
0
0
0
0
0
0
0
0
0
0
0
0
0
0
0
0
0
0
0
0
0
0
0
0
0
0
0
0
0
0
0
0
0
0
0
0
0
0
0
0
0
0
0
0
0
0
0
0
0
0
0
0
0
0
0
0
0
0
0
0
0
0
0
0
0
0
0
0
0
0
0
0
0
0
0
0
0
0
0
0
0
0
0
0
0
0
0
0
0
0
0
0
0
0
0
0
0
0
0
0
0
0
0
0
0
0
0
0
0
0
0
0
0
0
0
0
0
0
0
0
0
0
0
0
0
0
0
0
0
0
0
0
0
0
0
0
0
0
0
0
0
0
0
0
0
0
0
0
0
0
0
0
0
0
0
0
0
0
0
0
0
0
0
0
0
0
0
0
0
0
0
0
0
0
0
0
0
0
0
0
0
0
0
0
0
0
0
0
0
0
0
0
0
0
0
0
0
0
0
0
0
0
0
0
0
0
0
0
0
0
0
0
0
0
0
0
0
0
0
0
0
0
0
0
0
0
0
0
0
0
0
0
0
0
0
0
0
0
0
0
0
0
0
0
0
0
0
0
0
0
0
0
0
0
0
0
0
0
0
0
0
0
0
0
0
0
0
0
0
0
0
0
0
0
0
0
0
0
0
0
0
0
0
0
0
0
0
0
0
0
0
0
0
0
0
0
0
0
0
0
0
0
0
0
0
0
0
0
0
0
0
0
0
0
0
0
0
0
0
0
0
0
0
0
0
0
0
0
0
0
0
0
0
0
0
0
0
0
0
0
0
0
0
0
0
0
0
0
0
0
0
0
0
0
0
0
0
0
0
0
0
0
0
0
0
0
0
0
0
0
0
0
0
0
0
0
0
0
0
0
0
0
