1.71103
1.70633
1.6996
1.69303
1.68934
1.69062
1.69774
1.71081
1.72867
1.74846
1.76657
1.77999
1.78743
1.79006
1.79163
1.79785
1.81509
1.85608
1.93676
2.04408
2.14397
2.19691
2.17394
2.06912
1.90246
1.71134
1.53393
1.39228
1.27277
1.15969
1.04449
0.919389
0.778432
0.618518
0.439805
0.244587
0
-0.0423555
0.425658
1.51934
3.1289
4.8825
6.24686
6.73093
6.09905
4.47936
2.30825
0.146015
-1.53589
-2.49567
-2.72214
-2.4645
-1.94133
-1.36062
-0.836344
-0.400603
-0.076026
0.130319
0.284256
0.410304
0.516199
0.604066
0.673698
0.725333
0.76012
0.779688
0.786343
0.783294
0.774609
0.765669
0.76264
0.771401
0.796545
0.84051
0.903124
0.981698
1.07168
1.16765
1.26446
1.35839
1.44738
1.53074
1.60912
1.6842
1.75845
1.83476
1.91621
2.00572
2.10576
2.21789
2.3424
2.47791
2.62154
2.76861
2.912
3.04376
3.15675
3.24589
3.30884
3.34607
3.36017
3.35462
3.33237
3.29465
3.24126
3.17064
3.07989
2.96624
2.82877
2.66938
2.49307
2.30749
2.12159
1.94484
1.78779
1.65286
1.53586
1.42878
1.32366
1.21612
1.10722
1.00284
0.911057
0.838623
0.788649
0.759268
0.741794
0.725669
0.702602
0.669607
0.629682
0.589929
0.558058
0.538945
0.530687
0.53008
0.53326
0.536724
0.538667
0.539498
0.541407
0.54721
0.558893
0.57687
0.599541
0.622536
0.641023
0.651664
0.654037
0.650921
0.647261
0.648251
0.657315
0.674097
0.695391
0.717625
0.736524
0.747965
0.748703
0.736876
0.712276
0.676588
0.632924
0.585329
0.538382
0.496445
0.462836
0.439814
0.428313
0.425087
0.424561
0.421002
0.410315
0.391263
0.365691
0.337807
0.312918
0.296222
0.290536
0.29711
0.318152
0.355221
0.409107
0.47947
0.565043
0.663387
0.768267
0.871942
0.966608
1.0457
1.10482
1.14218
1.15841
1.15616
1.13936
1.11308
1.08161
1.04822
1.01494
0.982289
0.949158
0.913437
0.872984
0.826588
0.77452
0.718381
0.660277
0.601653
0.542276
0.479742
0.410064
0.329036
0.233791
0.123897
0
-0.167351
-0.0299133
0.560476
1.5582
2.7699
3.87948
4.53835
4.49229
3.68199
2.26524
0.550621
-1.11373
-2.43161
-3.20483
-3.36147
-2.95411
-2.16832
-1.27293
-0.523579
-0.0700686
0.067567
0.122579
0.173228
0.223158
0.272581
0.320828
0.366528
0.408033
0.443908
0.473465
0.497139
0.516592
0.534518
0.55419
0.578881
0.61119
0.652465
0.702943
0.762027
0.828364
0.900022
0.974827
1.05066
1.12578
1.19912
1.27033
1.33981
1.40855
1.47794
1.54951
1.62467
1.70447
1.78952
1.8798
1.97465
2.07275
2.17226
2.27097
2.36648
2.45633
2.53782
2.60808
2.66508
2.70729
2.73373
2.74403
2.73836
2.71721
2.68098
2.6296
2.56231
2.47873
2.37839
2.26063
2.12568
1.97544
1.8137
1.64608
1.4795
1.32129
1.17823
1.05563
0.957138
0.884516
0.836205
0.805419
0.782361
0.757504
0.723702
0.677683
0.620498
0.556818
0.493253
0.436245
0.389577
0.35551
0.332782
0.318522
0.310028
0.306308
0.308728
0.320467
0.345014
0.384335
0.436383
0.497922
0.562372
0.621991
0.669631
0.700247
0.711729
0.704879
0.68269
0.649273
0.608855
0.565345
0.521746
0.480469
0.444222
0.41634
0.400444
0.400023
0.417801
0.454883
0.512339
0.589366
0.67557
0.756688
0.818935
0.852328
0.852755
0.822194
0.767281
0.697097
0.621179
0.547886
0.482814
0.431596
0.398644
0.386923
0.397395
0.428681
0.477183
0.537755
0.604709
0.672789
0.738045
0.797839
0.848926
0.88896
0.916588
0.931519
0.935161
0.930985
0.924183
0.920498
0.924535
0.938252
0.960484
0.986142
1.00827
1.02006
1.01653
0.995022
0.954778
0.895721
0.817405
0.720864
0.607448
0.477221
0.330859
0.170557
0
-0.181821
-0.36536
-0.189398
0.383945
1.35738
2.57913
3.72894
4.41425
4.33618
3.43034
1.90232
0.144651
-1.4153
-2.45863
-2.77613
-2.62135
-2.10444
-1.45342
-0.86799
-0.489128
-0.343648
-0.256013
-0.182757
-0.117464
-0.0617645
-0.0170328
0.0153833
0.0353106
0.0449415
0.0493073
0.0556389
0.071718
0.10383
0.155158
0.222481
0.301908
0.390314
0.484505
0.581813
0.680314
0.778701
0.875968
0.971126
1.0631
1.15066
1.23243
1.30742
1.3757
1.43857
1.49875
1.56024
1.62797
1.70697
1.8014
1.9135
2.04516
2.19694
2.35591
2.50166
2.61499
2.68413
2.70833
2.69781
2.66993
2.64317
2.63127
2.63593
2.65219
2.67513
2.69494
2.69897
2.67489
2.61289
2.50787
2.36096
2.17977
1.97713
1.76808
1.56613
1.37739
1.20125
1.03679
0.881596
0.732624
0.587566
0.446401
0.312878
0.194835
0.102161
0.0439144
0.0251462
0.0447858
0.0952684
0.164009
0.236264
0.298507
0.343807
0.36895
0.374384
0.364026
0.343943
0.320811
0.300384
0.286163
0.27973
0.281386
0.290529
0.30589
0.325825
0.348715
0.373188
0.398174
0.422793
0.446101
0.466834
0.483415
0.494034
0.49692
0.490738
0.474926
0.449875
0.416889
0.377951
0.335393
0.291614
0.248644
0.208104
0.171295
0.139249
0.112762
0.0923998
0.0784549
0.0708701
0.0691879
0.0725755
0.079626
0.0881484
0.0958112
0.100917
0.103005
0.103176
0.10398
0.108844
0.121223
0.143777
0.177306
0.221029
0.274084
0.335607
0.404817
0.481248
0.564847
0.655837
0.754196
0.857963
0.959608
1.04668
1.10565
1.12568
1.10211
1.03826
0.944676
0.836217
0.728037
0.631913
0.551022
0.4842
0.430639
0.390062
0.362118
0.345903
0.337863
0.331462
0.319695
0.296684
0.259241
0.207783
0.14166
0
0.225758
0.977081
2.21031
3.63407
4.77863
5.18083
4.58879
3.07527
1.00401
-1.11601
-2.80501
-3.74992
-3.87589
-3.33758
-2.44068
-1.50868
-0.761255
-0.267669
-0.0222656
0.0514149
0.104151
0.148453
0.18527
0.213569
0.232665
0.242489
0.243829
0.23876
0.230868
0.22509
0.2271
0.242328
0.274869
0.326021
0.395232
0.479805
0.575643
0.678234
0.783459
0.888407
0.99123
1.0908
1.18609
1.27576
1.35827
1.43239
1.49755
1.55443
1.60524
1.65338
1.70263
1.7561
1.81529
1.87963
1.94714
2.01575
2.08376
2.15053
2.21684
2.28465
2.35656
2.43563
2.52568
2.62927
2.73805
2.83245
2.88948
2.88961
2.82294
2.69215
2.51134
2.30166
2.08587
1.88126
1.69202
1.51775
1.35914
1.21568
1.08417
0.960674
0.841746
0.725761
0.613658
0.508915
0.416687
0.342804
0.297774
0.289368
0.307767
0.332575
0.341002
0.315216
0.248021
0.145091
0.0233263
-0.0940096
-0.183804
-0.23706
-0.257792
-0.246617
-0.2073
-0.146835
-0.0741603
0.00139687
0.0704896
0.125907
0.163562
0.182848
0.18643
0.179402
0.167946
0.157751
0.152669
0.153696
0.159968
0.169712
0.18112
0.193149
0.205746
0.219435
0.234542
0.250533
0.265489
0.276737
0.281931
0.280092
0.272086
0.260257
0.247422
0.235679
0.225475
0.215924
0.205526
0.192639
0.176102
0.15564
0.132
0.106829
0.0824198
0.061341
0.0460761
0.0391087
0.0428465
0.059129
0.088977
0.132271
0.187548
0.252029
0.321926
0.392974
0.461071
0.523021
0.576581
0.620511
0.654408
0.678344
0.692344
0.696556
0.691368
0.677384
0.655628
0.627608
0.595132
0.559863
0.522601
0.483127
0.439835
0.390287
0.332275
0.264856
0.188936
0.107138
0.0230722
-0.0596511
-0.13227
0
0.377703
1.1323
2.30262
3.67019
4.78334
5.15864
4.53942
3.04298
1.10554
-0.732656
-2.06013
-2.70792
-2.59131
-2.29709
-1.85939
-1.40972
-1.06725
-0.88709
-0.757192
-0.637428
-0.520064
-0.403131
-0.286051
-0.169082
-0.0530938
0.0606781
0.170849
0.275954
0.374252
0.463313
0.54018
0.603175
0.651537
0.686399
0.711615
0.733984
0.762533
0.806927
0.875381
0.97245
1.09451
1.23562
1.39031
1.55242
1.71527
1.87256
2.01909
2.15123
2.26709
2.36652
2.45075
2.52206
2.58333
2.63748
2.68715
2.73424
2.77969
2.82323
2.86328
2.89739
2.92278
2.93719
2.93947
2.92975
2.90913
2.87897
2.83993
2.79165
2.73293
2.66176
2.57534
2.47137
2.34889
2.20883
2.05427
1.89019
1.7229
1.559
1.40449
1.26443
1.14222
1.03794
0.949732
0.87481
0.810564
0.755432
0.70925
0.673001
0.648098
0.635312
0.634495
0.644258
0.660877
0.678104
0.689245
0.689004
0.674841
0.647629
0.611365
0.571968
0.535517
0.50653
0.486234
0.474081
0.467989
0.465541
0.465115
0.466481
0.470692
0.479426
0.494114
0.514859
0.54052
0.569681
0.600187
0.629239
0.652915
0.667215
0.66843
0.653901
0.622847
0.576952
0.520434
0.459474
0.401134
0.351855
0.314772
0.291813
0.283551
0.289111
0.306457
0.331629
0.360429
0.389167
0.415195
0.437109
0.454616
0.46819
0.478671
0.48705
0.4944
0.501983
0.511368
0.524431
0.543155
0.569307
0.604093
0.647449
0.698601
0.756627
0.820334
0.888293
0.958388
1.02782
1.0932
1.1501
1.1914
1.20765
1.19137
1.13688
1.04278
0.914142
0.7633
0.608431
0.469671
0.363867
0.299653
0.280592
0.291929
0.311647
0.317939
0.295835
0.240816
0.158763
0.0609319
0
0.297649
0.990846
2.04939
3.25659
4.23664
4.60235
4.13212
2.87102
1.1054
-0.75952
-2.33452
-3.33684
-3.63648
-3.26117
-2.39491
-1.33727
-0.414337
0.137593
0.240544
0.254045
0.271551
0.292556
0.317989
0.347671
0.380525
0.415372
0.451354
0.488315
0.527002
0.569015
0.6165
0.671649
0.736117
0.81047
0.893831
0.983966
1.07734
1.16949
1.25627
1.33488
1.40459
1.46691
1.52521
1.58388
1.64719
1.71826
1.79818
1.88596
1.97933
2.07529
2.17064
2.2625
2.34873
2.42784
2.49873
2.56019
2.61071
2.64915
2.67453
2.68632
2.68496
2.67216
2.6508
2.62436
2.59606
2.56788
2.53981
2.51
2.47491
2.42999
2.3704
2.29188
2.19151
2.06811
1.92233
1.75647
1.57401
1.37942
1.17771
0.973477
0.771387
0.57671
0.395185
0.232612
0.0943807
-0.0158807
-0.0963325
-0.147281
-0.171237
-0.172625
-0.157157
-0.130992
-0.0998534
-0.0683471
-0.0395005
-0.0148264
0.0046252
0.01744
0.0217399
0.0160265
-0.000807738
-0.0285144
-0.0645369
-0.103911
-0.137778
-0.156208
-0.150899
-0.117788
-0.0585922
0.0193816
0.10514
0.186925
0.255623
0.306068
0.336609
0.348579
0.344837
0.32837
0.302492
0.268903
0.228843
0.183785
0.135697
0.0869566
0.0399544
-0.00344773
-0.0424152
-0.0770435
-0.108254
-0.137193
-0.164594
-0.190307
-0.213184
-0.231376
-0.242942
-0.246549
-0.242309
-0.23131
-0.215624
-0.197905
-0.180575
-0.165093
-0.151469
-0.138124
-0.122187
-0.10013
-0.0686251
-0.0254272
0.029861
0.095681
0.169066
0.245937
0.321668
0.391705
0.451991
0.499124
0.529323
0.538698
0.525396
0.488671
0.429606
0.351857
0.262033
0.169318
0.0842153
0.0196776
0
0.0280033
0.0780329
0.110622
0.089928
-0.00236425
-0.160897
-0.372465
-0.512438
-0.129259
0.802151
2.09667
3.37397
4.18376
4.17455
3.23053
1.51347
-0.595188
-2.61178
-4.08737
-4.73456
-4.51618
-3.65673
-2.54666
-1.57099
-0.947512
-0.671039
-0.564939
-0.472174
-0.388285
-0.315422
-0.257431
-0.216535
-0.192731
-0.183442
-0.183586
-0.186134
-0.183189
-0.167701
-0.135259
-0.0845333
-0.0174272
0.0631794
0.150669
0.237924
0.319117
0.391047
0.453609
0.509346
0.562335
0.616887
0.676273
0.742054
0.815018
0.895539
0.983599
1.07891
1.18089
1.28861
1.40055
1.51422
1.6251
1.72596
1.80943
1.86907
1.90106
1.90548
1.88663
1.85209
1.81072
1.76999
1.73374
1.70073
1.6675
1.62951
1.58184
1.5202
1.44159
1.34469
1.22981
1.09879
0.955556
0.804686
0.65067
0.498268
0.352398
0.217785
0.0985977
-0.00188913
-0.0815972
-0.139427
-0.172681
-0.177965
-0.162488
-0.140293
-0.125517
-0.128256
-0.151479
-0.19056
-0.2358
-0.276656
-0.305575
-0.322783
-0.330989
-0.331507
-0.326021
-0.316177
-0.303312
-0.288718
-0.273459
-0.2583
-0.243654
-0.229688
-0.216653
-0.205617
-0.198807
-0.199145
-0.208966
-0.228113
-0.252552
-0.274495
-0.284357
-0.27395
-0.239634
-0.186082
-0.12034
-0.0522249
0.008391
0.0541066
0.0815062
0.0912581
0.086937
0.0731451
0.0537661
0.0310619
0.00543137
-0.0237178
-0.0568223
-0.0932611
-0.130818
-0.165663
-0.19302
-0.20837
-0.208697
-0.192008
-0.159362
-0.115818
-0.0669998
-0.0168852
0.0337632
0.0877088
0.150217
0.227151
0.322956
0.439341
0.579021
0.742788
0.922937
1.09663
1.23631
1.31228
1.29903
1.18767
0.995596
0.765044
0.549095
0.392002
0.293346
0.227186
0.179145
0.144077
0.117623
0.0960236
0.0766553
0.0582635
0.0408527
0.025289
0.0127452
0.00415955
0
0.00526304
0.0744663
0.354661
1.04603
2.20915
3.60907
4.74818
5.0888
4.33746
2.6139
0.399371
-1.69466
-3.18703
-3.87293
-3.81187
-3.21538
-2.33317
-1.38655
-0.547044
0.0687041
0.350583
0.3462
0.320134
0.289723
0.25785
0.227024
0.19946
0.176817
0.16039
0.151892
0.153109
0.165753
0.191131
0.229744
0.280982
0.343053
0.413223
0.488333
0.565462
0.642559
0.718816
0.79468
0.871564
0.951296
1.03546
1.12483
1.21897
1.31632
1.4145
1.51074
1.60267
1.68897
1.76966
1.8461
1.92061
1.9958
2.07404
2.1569
2.2437
2.32924
2.40463
2.46039
2.48957
2.49031
2.46715
2.43047
2.39402
2.37111
2.37024
2.39463
2.43977
2.48395
2.49958
2.46164
2.35566
2.1826
1.95894
1.71175
1.47068
1.25624
1.06838
0.90333
0.760851
0.639093
0.534758
0.442541
0.357406
0.275685
0.195876
0.119323
0.0498789
-0.00704989
-0.0461754
-0.0639674
-0.0597584
-0.0360211
0.002176
0.0482792
0.0955259
0.138143
0.172226
0.196239
0.211001
0.219221
0.224628
0.230858
0.240377
0.253979
0.270157
0.286025
0.298608
0.306165
0.30898
0.309322
0.310574
0.315921
0.326813
0.342503
0.361138
0.379704
0.394855
0.403762
0.404774
0.39773
0.383904
0.365648
0.345841
0.327271
0.31201
0.301303
0.295558
0.294384
0.296661
0.300744
0.304719
0.30666
0.304931
0.298437
0.286838
0.2707
0.251536
0.231777
0.214667
0.203835
0.202825
0.214569
0.240895
0.282164
0.337114
0.40296
0.475764
0.550984
0.62421
0.69171
0.750759
0.79975
0.838015
0.865456
0.8821
0.887912
0.882612
0.86578
0.837117
0.79675
0.74546
0.684746
0.616709
0.543813
0.468538
0.393048
0.319021
0.247634
0.17959
0.11521
0.054697
0
-0.0235578
0.205682
0.795549
1.81194
3.11726
4.3354
4.9711
4.64344
3.29586
1.24942
-0.936733
-2.71097
-3.73625
-3.97176
-3.59251
-2.86532
-2.03291
-1.26117
-0.641685
-0.252258
-0.143755
-0.100529
-0.0817194
-0.0848254
-0.102282
-0.122697
-0.133519
-0.124475
-0.0812763
-0.00856438
0.0715686
0.132709
0.15677
0.143595
0.112838
0.0970015
0.128548
0.226571
0.37109
0.538565
0.717742
0.89268
1.04858
1.17475
1.26639
1.32513
1.3582
1.37668
1.39298
1.41843
1.4602
1.52047
1.59793
1.6897
1.79238
1.90217
2.0152
2.12739
2.23337
2.32572
2.39706
2.43985
2.44768
2.41725
2.35002
2.25276
2.13637
2.01339
1.89478
1.78569
1.68574
1.59316
1.50528
1.41867
1.33002
1.23682
1.1377
1.03245
0.921731
0.806813
0.689272
0.570771
0.453199
0.33883
0.230547
0.131472
0.0447384
-0.0269662
-0.0818895
-0.119585
-0.141084
-0.148843
-0.146517
-0.138261
-0.129195
-0.124729
-0.129296
-0.145565
-0.173822
-0.21169
-0.254362
-0.295365
-0.327707
-0.345306
-0.345626
-0.326881
-0.288717
-0.23138
-0.159527
-0.0832631
-0.0146156
0.0353097
0.0582326
0.0502121
0.0124944
-0.0485332
-0.122413
-0.196625
-0.259451
-0.303311
-0.325991
-0.329514
-0.316342
-0.288665
-0.24932
-0.201609
-0.148419
-0.0931724
-0.0404016
0.00491123
0.037846
0.0542232
0.0513408
0.0285439
-0.012503
-0.0678344
-0.131416
-0.195519
-0.251684
-0.291228
-0.306351
-0.291468
-0.227064
-0.102866
0.0488597
0.185408
0.270673
0.290532
0.258777
0.210254
0.184386
0.207233
0.272291
0.355089
0.442716
0.524776
0.592219
0.638436
0.659633
0.654602
0.624233
0.571038
0.499889
0.416129
0.325402
0.234028
0.148561
0.0747623
0.0178505
-0.0137037
-0.0180248
-0.00772495
0
-0.0129421
-0.0546911
-0.127161
-0.375537
-0.380797
0.254073
1.50375
3.02683
4.29122
4.79812
4.28953
2.84238
0.825806
-1.23739
-2.84375
-3.65813
-3.60136
-2.96278
-2.0775
-1.31319
-0.881804
-0.809284
-0.758344
-0.693642
-0.617383
-0.527121
-0.421867
-0.301383
-0.173755
-0.0524698
0.0493671
0.122745
0.164975
0.179672
0.174676
0.159003
0.140299
0.123558
0.111524
0.107023
0.113358
0.134293
0.173332
0.232581
0.311776
0.407268
0.514341
0.627591
0.742308
0.855484
0.966053
1.07433
1.18097
1.28589
1.38795
1.48512
1.57514
1.6565
1.72927
1.79548
1.85887
1.92422
1.99715
2.0853
2.19399
2.31546
2.4294
2.51188
2.54176
2.50568
2.40088
2.23604
2.03054
1.81134
1.60598
1.42866
1.27887
1.15764
1.05707
0.965043
0.869418
0.762164
0.641715
0.512801
0.384067
0.264705
0.158972
0.0662954
-0.0129709
-0.0794216
-0.134429
-0.179634
-0.21653
-0.246099
-0.268809
-0.284773
-0.293752
-0.295338
-0.289107
-0.274736
-0.252043
-0.221012
-0.181808
-0.134897
-0.0811605
-0.0215788
0.042053
0.107077
0.170187
0.227443
0.274355
0.307234
0.32403
0.324664
0.311361
0.288541
0.262092
0.238058
0.221024
0.214572
0.215746
0.216826
0.208671
0.18457
0.143283
0.0899528
0.0344656
-0.0120541
-0.0411987
-0.0537006
-0.0527401
-0.043005
-0.0307455
-0.0221159
-0.0216648
-0.0313122
-0.049976
-0.0738321
-0.0970812
-0.113143
-0.116732
-0.104536
-0.0744625
-0.0265779
0.0373703
0.113081
0.194892
0.277146
0.355219
0.426158
0.488786
0.543317
0.590697
0.631931
0.667914
0.698712
0.723863
0.74269
0.754739
0.759843
0.758155
0.750025
0.735757
0.715358
0.688385
0.654006
0.611312
0.559708
0.499372
0.431499
0.358245
0.282356
0.206603
0.133146
0.0632734
0
-0.013442
0.217305
0.862276
1.95621
3.26605
4.33195
4.66966
4.01997
2.49165
0.511576
-1.37995
-2.75551
-3.40819
-3.40424
-2.89438
-2.10175
-1.26338
-0.596573
-0.280781
-0.21962
-0.153893
-0.0843523
-0.0114952
0.0642836
0.141949
0.220359
0.298759
0.376993
0.455319
0.533916
0.612367
0.689367
0.762942
0.831115
0.892748
0.948143
0.999114
1.04847
1.09908
1.15293
1.21031
1.27025
1.33107
1.39087
1.44824
1.50262
1.55435
1.60434
1.65359
1.70273
1.75171
1.79989
1.84631
1.89004
1.93055
1.9679
2.00273
2.03609
2.06898
2.10203
2.13504
2.16669
2.19465
2.216
2.22783
2.22786
2.21492
2.1891
2.15164
2.10445
2.04948
1.98802
1.92014
1.84471
1.75968
1.66225
1.54981
1.42073
1.27515
1.11535
0.945916
0.773404
0.605468
0.449895
0.313476
0.204723
0.131972
0.0915945
0.0736004
0.066419
0.0606621
0.0517813
0.0406515
0.0319796
0.031366
0.0423103
0.0624931
0.0880741
0.114428
0.136248
0.148645
0.148078
0.132973
0.103995
0.0640163
0.0178095
-0.0285004
-0.0679804
-0.0941038
-0.101887
-0.0889256
-0.0560665
-0.00525856
0.0553656
0.116153
0.168268
0.205762
0.2267
0.233039
0.229434
0.221486
0.214059
0.209645
0.20899
0.211939
0.21752
0.224246
0.230495
0.234877
0.236544
0.235382
0.232054
0.227867
0.224458
0.223367
0.22579
0.232025
0.240947
0.250396
0.258094
0.262659
0.264496
0.266247
0.272603
0.28945
0.322519
0.37529
0.451982
0.556813
0.678596
0.795768
0.88653
0.935711
0.939243
0.904559
0.846816
0.782651
0.724144
0.673836
0.628261
0.584081
0.538412
0.489037
0.435028
0.376942
0.316609
0.256625
0.19956
0.147416
0.10145
0.0619082
0.0281099
0
-0.0149174
0.11662
0.632814
1.65963
3.05259
4.3776
5.08888
4.81077
3.53952
1.63724
-0.361823
-1.99079
-2.99101
-3.31735
-3.07395
-2.43131
-1.60291
-0.808349
-0.226401
0.0251715
0.0538937
0.073588
0.0946604
0.118951
0.147857
0.181746
0.219922
0.261116
0.303851
0.346809
0.389147
0.430673
0.471858
0.513731
0.557698
0.605328
0.658135
0.717372
0.783849
0.857797
0.938795
1.02578
1.11715
1.21097
1.30522
1.39802
1.48797
1.57445
1.65779
1.73922
1.82064
1.90418
1.99171
2.08437
2.18234
2.28464
2.38968
2.49549
2.59984
2.70027
2.79362
2.87687
2.9471
3.00147
3.03741
3.05281
3.04613
3.01641
2.96329
2.88704
2.79013
2.67435
2.54184
2.3952
2.23725
2.07087
1.89934
1.72555
1.55251
1.38357
1.2223
1.07214
0.93595
0.81557
0.711423
0.622331
0.545744
0.478382
0.416953
0.358843
0.302655
0.248486
0.197931
0.153842
0.119947
0.100253
0.0982977
0.11664
0.156292
0.220245
0.312363
0.422749
0.529588
0.610546
0.649969
0.644452
0.603998
0.547847
0.496606
0.46437
0.450828
0.447933
0.451403
0.457382
0.463427
0.468851
0.474141
0.479834
0.485371
0.488234
0.484294
0.469039
0.439172
0.393975
0.335918
0.270347
0.204409
0.14543
0.0985052
0.0662035
0.0495625
0.0489306
0.0635874
0.0929831
0.134409
0.178669
0.214738
0.23311
0.228613
0.202344
0.161791
0.118909
0.0868845
0.0768547
0.0899912
0.123235
0.175516
0.245497
0.330718
0.428412
0.535372
0.647964
0.762335
0.874117
0.977356
1.06371
1.12569
1.15636
1.15073
1.10772
1.03169
0.932234
0.822132
0.713823
0.616059
0.529608
0.451861
0.381146
0.315561
0.253757
0.195247
0.140255
0.0892559
0.0423197
0
-0.0207663
0.0948908
0.605111
1.66475
3.1363
4.564
5.35899
5.09515
3.73686
1.66131
-0.52899
-2.28347
-3.30843
-3.60921
-3.38676
-2.87544
-2.24208
-1.56917
-0.899005
-0.285666
0.12864
0.28702
0.363249
0.399071
0.398579
0.372989
0.337981
0.309443
0.299305
0.309936
0.337335
0.378195
0.430652
0.492929
0.563489
0.640748
0.722859
0.806882
0.8887
0.964306
1.03106
1.08872
1.13981
1.18903
1.24201
1.30397
1.37753
1.46275
1.55891
1.66461
1.77751
1.89462
2.01247
2.12745
2.23606
2.33528
2.42285
2.49736
2.55826
2.60566
2.63953
2.66024
2.6686
2.66552
2.65215
2.62996
2.60058
2.56555
2.52578
2.48119
2.43063
2.37205
2.30314
2.22206
2.12802
2.02159
1.90449
1.77908
1.64787
1.51286
1.37537
1.23648
1.09752
0.960532
0.828439
0.704828
0.593713
0.499888
0.425728
0.370644
0.332255
0.307376
0.29306
0.287217
0.288561
0.295984
0.30779
0.320982
0.330946
0.332559
0.321641
0.296479
0.258851
0.214165
0.170551
0.137103
0.121103
0.125038
0.153953
0.206594
0.270567
0.330966
0.375052
0.396043
0.394663
0.378019
0.35644
0.339643
0.332739
0.334603
0.342814
0.354726
0.3666
0.374725
0.376391
0.370457
0.357491
0.339468
0.319057
0.298718
0.279919
0.262691
0.245578
0.226556
0.204226
0.178875
0.152942
0.130693
0.117203
0.117004
0.131645
0.16066
0.202639
0.254638
0.31277
0.372818
0.431104
0.484714
0.531876
0.572164
0.606578
0.637509
0.668563
0.704226
0.749611
0.814278
0.919963
1.09185
1.30147
1.49502
1.61542
1.62516
1.52205
1.33942
1.12988
0.941178
0.798493
0.684802
0.584526
0.49167
0.403728
0.319124
0.23679
0.15609
0.076767
0
-0.0223612
0.27154
1.05611
2.35607
3.95436
5.41147
6.20558
5.95123
4.5969
2.48469
0.216854
-1.6076
-2.63693
-2.84103
-2.49539
-1.88004
-1.22674
-0.656145
-0.227755
-0.00705643
0.119464
0.227707
0.329476
0.427241
0.521236
0.610693
0.694305
0.770554
0.838196
0.896723
0.946655
0.989582
1.02795
1.06466
1.10255
1.14396
1.19047
1.24291
1.30157
1.36636
1.43739
1.51518
1.60084
1.69575
1.80114
1.91743
2.04376
2.17772
2.31579
2.45367
2.58715
2.71299
2.82944
2.93634
3.03482
3.12662
3.2133
3.29558
3.37297
3.4437
3.5049
3.5532
3.58542
3.59892
3.59187
3.56324
3.51272
3.44054
3.34728
3.23386
3.10191
2.95411
2.79359
2.62382
2.44882
2.27306
2.101
1.93656
1.78266
1.64105
1.51232
1.39619
1.29199
1.19906
1.11699
1.04573
0.985421
0.936106
0.897499
0.868755
0.848448
0.834593
0.824757
0.816547
0.80815
0.798766
0.788889
0.780326
0.775946
0.779026
0.792462
0.817954
0.856112
0.906217
0.963468
1.02074
1.0715
1.11174
1.14099
1.162
1.17916
1.19617
1.21374
1.22616
1.22329
1.19536
1.13803
1.05508
0.957441
0.859157
0.772603
0.701813
0.644183
0.599212
0.566578
0.545932
0.537244
0.540859
0.557282
0.586589
0.628486
0.682611
0.747798
0.81987
0.890377
0.949535
0.988626
1.0021
0.989065
0.953674
0.904137
0.850787
0.803843
0.770215
0.752361
0.751191
0.767878
0.804087
0.861304
0.940598
1.04731
1.19774
1.39339
1.59825
1.76685
1.86091
1.86474
1.79082
1.67204
1.54526
1.4361
1.34802
1.27166
1.20206
1.13709
1.07468
1.01264
0.94832
0.878532
0.799747
0.708575
0.602475
0.480424
0.343297
0.192715
0
0.0109961
0.504776
1.58781
3.11108
4.63469
5.5824
5.52136
4.3882
2.51401
0.444169
-1.31527
-2.46358
-2.90844
-2.76054
-2.16052
-1.32002
-0.482047
0.128223
0.353703
0.427834
0.492741
0.555721
0.617103
0.67621
0.731895
0.783103
0.829399
0.871293
0.910224
0.948197
0.98722
1.02872
1.07307
1.11974
1.16761
1.21525
1.26146
1.3057
1.34833
1.39052
1.43408
1.48103
1.53319
1.59177
1.65718
1.72911
1.80665
1.88859
1.97371
2.06116
2.15088
2.24381
2.34167
2.44658
2.56039
2.68601
2.8236
2.96559
3.09826
3.20675
3.27935
3.31082
3.30373
3.26734
3.21428
3.15611
3.09914
3.04256
2.98157
2.90994
2.82243
2.71675
2.59425
2.45907
2.31635
2.17041
2.02397
1.87812
1.73369
1.59185
1.45445
1.32397
1.20294
1.09297
0.994486
0.906513
0.826126
0.749071
0.671047
0.588941
0.501452
0.410006
0.321445
0.244901
0.188936
0.158848
0.155084
0.17332
0.206074
0.245196
0.284271
0.320674
0.35444
0.386776
0.41954
0.45436
0.4923
0.532244
0.569648
0.598621
0.614161
0.61427
0.601112
0.580665
0.560974
0.54965
0.551091
0.563615
0.584507
0.610722
0.637975
0.661949
0.679055
0.686891
0.684359
0.671479
0.64905
0.618311
0.580895
0.538698
0.493616
0.447847
0.40406
0.365399
0.335268
0.316717
0.312022
0.322184
0.346926
0.385069
0.432573
0.482974
0.529593
0.567086
0.592673
0.606751
0.612735
0.616106
0.622941
0.638341
0.664599
0.700944
0.74475
0.792669
0.840466
0.883277
0.91605
0.934948
0.937442
0.922513
0.890639
0.843581
0.783955
0.714697
0.638566
0.55799
0.474952
0.390822
0.306828
0.22427
0.144501
0.0688839
0
-0.0441666
0.156616
0.617168
1.41424
2.5514
3.8551
4.96415
5.43582
4.93826
3.43593
1.26081
-0.989269
-2.69384
-3.47295
-3.34184
-2.64873
-1.85091
-1.26893
-0.955009
-0.74233
-0.494204
-0.30789
-0.161333
-0.0491983
0.0311925
0.0822883
0.110933
0.127031
0.141646
0.165051
0.203047
0.258077
0.331218
0.42212
0.528721
0.648014
0.77612
0.905119
1.02466
1.12575
1.2031
1.25684
1.29314
1.32306
1.35995
1.41607
1.49884
1.60538
1.73041
1.86921
2.01653
2.16665
2.31421
2.45464
2.58422
2.69942
2.79663
2.87332
2.92822
2.96063
2.97083
2.96055
2.93314
2.89324
2.84591
2.79568
2.74554
2.69646
2.64794
2.59851
2.54606
2.48821
2.42253
2.34667
2.25844
2.15605
2.0386
1.90587
1.75904
1.60106
1.43673
1.27241
1.11532
0.972598
0.850357
0.75348
0.686056
0.649954
0.639892
0.643493
0.647555
0.641033
0.617357
0.575538
0.519844
0.458253
0.400198
0.353648
0.321698
0.304529
0.302239
0.313286
0.334813
0.363185
0.394547
0.425294
0.452419
0.473622
0.487007
0.490992
0.484173
0.465322
0.433663
0.389209
0.333189
0.26812
0.19799
0.129441
0.0698449
0.0257152
0.00127993
-0.00247011
0.0120365
0.0396108
0.0736051
0.107481
0.136478
0.158011
0.171933
0.180213
0.186209
0.193717
0.205895
0.224484
0.250187
0.282156
0.317401
0.351477
0.37981
0.398755
0.406467
0.403358
0.392044
0.376812
0.362742
0.354684
0.355998
0.368249
0.391677
0.425725
0.469253
0.520547
0.577582
0.638033
0.699342
0.758882
0.813942
0.861588
0.89795
0.918389
0.918994
0.896314
0.848183
0.774628
0.678561
0.565961
0.445346
0.326584
0.219052
0.129729
0.063243
0.0209814
0.00125031
0
0.0167025
0.0409575
0.0681
0.0907937
0.193591
0.673312
1.62315
2.92222
4.19771
4.93744
4.71969
3.44304
1.4125
-0.784536
-2.54242
-3.4812
-3.56442
-3.04224
-2.24931
-1.49632
-0.966232
-0.707663
-0.572739
-0.444614
-0.322452
-0.207545
-0.103507
-0.0133686
0.0610591
0.119737
0.164619
0.199416
0.228883
0.257812
0.289991
0.327289
0.369856
0.416299
0.464551
0.512893
0.560787
0.609239
0.660545
0.717517
0.782456
0.855986
0.937261
1.02436
1.11332
1.20048
1.2841
1.36542
1.44866
1.53999
1.64561
1.76962
1.91233
2.06824
2.23041
2.39157
2.5444
2.68267
2.80182
2.89904
2.97105
3.0148
3.02998
3.01678
2.97642
2.91186
2.82812
2.73187
2.63031
2.52964
2.43345
2.34236
2.2549
2.16781
2.07684
1.97748
1.86556
1.73752
1.59065
1.42435
1.2391
1.03638
0.819705
0.594884
0.369807
0.154621
-0.0265739
-0.0847105
0.0942505
0.415163
0.724043
0.879652
0.815536
0.567475
0.251034
-0.000563908
-0.103616
-0.0956833
-0.0488286
0.0149613
0.0906261
0.175858
0.268435
0.366235
0.465214
0.559314
0.641937
0.707314
0.751928
0.775375
0.780316
0.771464
0.753989
0.731908
0.707266
0.680101
0.649251
0.613257
0.571262
0.523648
0.472317
0.420586
0.372745
0.333229
0.305668
0.293032
0.297872
0.32402
0.375272
0.44339
0.509816
0.555191
0.565933
0.539531
0.485752
0.422632
0.368892
0.336544
0.322715
0.320007
0.324908
0.334883
0.34971
0.371828
0.405629
0.456019
0.526101
0.614773
0.723669
0.851869
0.987651
1.11261
1.20932
1.26591
1.27915
1.25482
1.20531
1.14535
1.08761
1.03886
0.999216
0.967225
0.942032
0.92228
0.905966
0.890257
0.870313
0.839917
0.79228
0.72133
0.623162
0.497161
0.346434
0.17744
-0.0165041
0
0.417241
1.29988
2.61035
4.11681
5.39467
5.95089
5.43465
3.82938
1.51012
-0.886006
-2.71587
-3.58338
-3.46286
-2.6689
-1.64223
-0.771426
-0.255789
-0.123189
-0.116128
-0.103099
-0.0841377
-0.0571438
-0.0208711
0.024531
0.0780773
0.13831
0.203718
0.273063
0.345496
0.420465
0.49749
0.575942
0.654919
0.733288
0.809803
0.883242
0.952523
1.01664
1.07485
1.12694
1.17332
1.21524
1.25505
1.29615
1.34277
1.39935
1.46981
1.55651
1.65956
1.77707
1.90539
2.03953
2.17383
2.30283
2.42202
2.5283
2.62009
2.69705
2.7594
2.8074
2.84113
2.8605
2.86493
2.85374
2.82666
2.78438
2.72873
2.66264
2.58969
2.51342
2.43663
2.36072
2.28573
2.21041
2.13272
2.05038
1.96161
1.86572
1.7634
1.65685
1.54944
1.44504
1.34743
1.25995
1.18488
1.1223
1.07031
1.0261
0.986816
0.950436
0.91619
0.884556
0.85686
0.834697
0.819113
0.810462
0.809007
0.814644
0.826973
0.845299
0.868731
0.895761
0.923799
0.948999
0.967014
0.973878
0.966943
0.945639
0.911766
0.869236
0.823326
0.779679
0.743114
0.716234
0.699919
0.694483
0.69918
0.712744
0.732327
0.753824
0.773176
0.787172
0.794136
0.794312
0.789823
0.784193
0.781552
0.785518
0.798053
0.819781
0.850406
0.888248
0.930029
0.971704
1.00905
1.03827
1.05638
1.06186
1.05483
1.03725
1.01295
0.987371
0.967431
0.960388
0.972495
1.00766
1.0664
1.15015
1.25086
1.35483
1.44854
1.52209
1.57097
1.59545
1.59816
1.58104
1.54351
1.48402
1.39956
1.28934
1.15665
1.00888
0.855937
0.707518
0.569111
0.441188
0.323624
0.214375
0.110201
0.00789671
-0.109231
0
0.562434
1.61755
3.03367
4.51881
5.67835
6.11921
5.58571
4.08763
1.94427
-0.30729
-2.11493
-3.12392
-3.27541
-2.78977
-1.96992
-1.09053
-0.316743
0.272995
0.556035
0.700973
0.814233
0.908289
0.982569
1.03716
1.07322
1.09286
1.09882
1.09445
1.08358
1.07054
1.05991
1.05628
1.06395
1.08621
1.12547
1.18322
1.25968
1.35373
1.46275
1.58302
1.71035
1.83872
1.96023
2.06797
2.15763
2.22874
2.28494
2.33333
2.38263
2.44093
2.51358
2.60044
2.6976
2.80071
2.90512
3.00525
3.09617
3.1746
3.23925
3.29074
3.33107
3.36277
3.38724
3.40487
3.41419
3.41181
3.39325
3.35411
3.29101
3.20223
3.08804
2.95067
2.79624
2.63119
2.46117
2.29167
2.12796
1.97454
1.83484
1.71081
1.60292
1.51005
1.42991
1.35955
1.296
1.23664
1.17959
1.12383
1.06909
1.01577
0.964696
0.917031
0.87421
0.837946
0.809781
0.790893
0.781892
0.782612
0.792191
0.808925
0.830743
0.855595
0.881764
0.908013
0.933542
0.957871
0.980776
1.00224
1.02249
1.04201
1.06144
1.08134
1.10188
1.12254
1.14212
1.15882
1.17048
1.17493
1.17027
1.15554
1.13102
1.0984
1.06085
1.02265
0.988732
0.963498
0.950524
0.952314
0.965447
0.983595
0.999435
1.00678
1.00212
0.985116
0.957975
0.924237
0.887629
0.851234
0.817168
0.787555
0.765315
0.754308
0.758438
0.781456
0.826085
0.893159
0.981086
1.08582
1.20135
1.32043
1.43514
1.53528
1.60955
1.65039
1.65239
1.61329
1.53499
1.42407
1.29076
1.14644
1.00049
0.857491
0.717108
0.577837
0.437897
0.295689
0.150325
0
-0.187598
-0.0389351
0.639562
1.87656
3.44607
4.89564
5.70797
5.52654
4.32456
2.42607
0.369134
-1.31603
-2.30176
-2.49378
-2.20077
-1.70076
-1.20203
-0.837544
-0.624053
-0.450457
-0.285653
-0.128557
0.0196032
0.156606
0.280225
0.389019
0.48219
0.559859
0.623365
0.675129
0.718361
0.756673
0.793674
0.832602
0.876071
0.925999
0.983852
1.05063
1.12723
1.21467
1.31404
1.4263
1.55177
1.68954
1.83817
1.99324
2.1461
2.28659
2.40562
2.49727
2.56027
2.59835
2.61931
2.63326
2.6502
2.67749
2.71781
2.76968
2.83001
2.89403
2.95647
3.01275
3.05988
3.09661
3.12314
3.14019
3.14802
3.14556
3.13026
3.09825
3.04512
2.96696
2.86144
2.72859
2.57121
2.39483
2.20744
2.01784
1.83403
1.66324
1.51125
1.38195
1.27695
1.19575
1.13608
1.09457
1.06745
1.05092
1.04182
1.0381
1.03906
1.04517
1.05772
1.07842
1.10958
1.15283
1.20613
1.26216
1.31083
1.34213
1.34881
1.32858
1.28505
1.22713
1.16692
1.1166
1.08399
1.07006
1.07129
1.08415
1.1038
1.12514
1.14397
1.15767
1.16528
1.16709
1.16396
1.15673
1.14595
1.13146
1.11282
1.08957
1.06167
1.02971
0.995016
0.959855
0.927467
0.9016
0.886024
0.883991
0.897698
0.927835
0.973298
1.03113
1.09716
1.16558
1.22938
1.28248
1.32092
1.3438
1.35341
1.35464
1.35384
1.35735
1.3698
1.39262
1.42568
1.4681
1.518
1.57279
1.62926
1.68389
1.73326
1.77413
1.80362
1.81905
1.81774
1.79778
1.75779
1.69704
1.61567
1.51469
1.39587
1.26151
1.11405
0.956112
0.790044
0.617587
0.440414
0.260093
0.0775663
0
0.303881
1.11339
2.43074
4.03602
5.49157
6.28275
6.03894
4.71422
2.6225
0.314505
-1.62964
-2.79668
-3.03758
-2.55464
-1.6751
-0.779288
-0.127946
0.174806
0.222337
0.253528
0.284431
0.318106
0.357147
0.403305
0.457181
0.518089
0.58424
0.653072
0.721694
0.787345
0.847819
0.901828
0.94909
0.99024
1.02657
1.05966
1.09104
1.1219
1.15304
1.18497
1.2182
1.25363
1.29283
1.33805
1.39188
1.45675
1.53422
1.62454
1.72638
1.83745
1.95489
2.07588
2.19809
2.31973
2.43898
2.55255
2.65575
2.74283
2.80808
2.84795
2.86281
2.85722
2.83855
2.81442
2.78994
2.76601
2.74049
2.70935
2.66814
2.61331
2.54314
2.45784
2.35901
2.24874
2.12914
2.0023
1.8696
1.73187
1.59037
1.44695
1.304
1.16431
1.03061
0.905308
0.790175
0.686168
0.59356
0.512193
0.440889
0.378106
0.322517
0.273364
0.230637
0.194908
0.166958
0.147244
0.135464
0.130389
0.130082
0.132437
0.135859
0.139843
0.145243
0.154144
0.169387
0.193848
0.230221
0.281269
0.347423
0.424218
0.500848
0.562636
0.595691
0.590379
0.54437
0.464443
0.366091
0.270354
0.198378
0.165506
0.170121
0.200521
0.248849
0.309537
0.376497
0.443693
0.50419
0.550551
0.576185
0.575258
0.543551
0.479605
0.385749
0.267291
0.132161
-0.000863099
-0.111278
-0.18165
-0.20116
-0.167407
-0.0859107
0.0324568
0.175113
0.331062
0.4916
0.652391
0.809543
0.956616
1.08388
1.17903
1.22887
1.2231
1.15797
1.03858
0.879185
0.701125
0.528594
0.380439
0.261961
0.169712
0.10021
0.0512997
0.0193281
0
-0.0108072
-0.016622
-0.0197499
-0.0212061
-0.0200072
0.0285886
0.335884
1.01411
2.0863
3.38522
4.55506
5.16298
4.87528
3.61327
1.61116
-0.654422
-2.62836
-3.866
-4.17935
-3.68481
-2.73226
-1.74423
-1.03408
-0.701254
-0.641085
-0.567673
-0.490784
-0.412914
-0.33557
-0.260962
-0.191773
-0.130388
-0.0783081
-0.0356462
-0.000945663
0.0285889
0.0564999
0.0862831
0.120628
0.160832
0.20671
0.25731
0.311431
0.368141
0.427255
0.489563
0.556733
0.630966
0.714513
0.809165
0.915847
1.03465
1.16485
1.30505
46
224
398
575
751
927
1102
1275
1450
1626
1799
1972
2147
2323
2498
2673
2849
3025
3197
3366
3537
3707
0
0
0
0
0
0
0
0
0
0
0
0
0
0
0
0
0
0
0
0
0
0
0
0
0
0
0
0
0
0
0
0
0
0
0
0
0
0
0
0
0
0
0
0
0
0
0
0
0
0
0
0
0
0
0
0
0
0
0
0
0
0
0
0
0
0
0
0
0
0
0
0
0
0
0
0
0
0
0
0
0
0
0
0
0
0
0
0
0
0
0
0
0
0
0
0
0
0
0
0
0
0
0
0
0
0
0
0
0
0
0
0
0
0
0
0
0
0
0
0
0
0
0
0
0
0
0
0
0
0
0
0
0
0
0
0
0
0
0
0
0
0
0
0
0
0
0
0
0
0
0
0
0
0
0
0
0
0
0
0
0
0
0
0
0
0
0
0
0
0
0
0
0
0
0
0
0
0
0
0
0
0
0
0
0
0
0
0
0
0
0
0
0
0
0
0
0
0
0
0
0
0
0
0
0
0
0
0
0
0
0
0
0
0
0
0
0
0
0
0
0
0
0
0
0
0
0
0
0
0
0
0
0
0
0
0
0
0
0
0
0
0
0
0
0
0
0
0
0
0
0
0
0
0
0
0
0
0
0
0
0
0
0
0
0
0
0
0
0
0
0
0
0
0
0
0
0
0
0
0
0
0
0
0
0
0
0
0
0
0
0
0
0
0
0
0
0
0
0
0
0
0
0
0
0
0
0
0
0
0
0
0
0
0
0
0
0
0
0
0
0
0
0
0
0
0
0
0
0
0
0
0
0
0
0
0
0
0
0
0
0
0
0
0
0
0
0
0
0
0
0
0
0
0
0
0
0
0
0
0
0
0
0
0
0
0
0
0
0
0
0
0
0
0
0
0
0
0
0
0
0
0
0
0
0
0
0
0
0
0
0
0
0
0
0
0
0
0
0
0
0
0
0
0
0
0
0
0
0
0
0
0
0
0
0
0
0
0
0
0
0
0
0
0
0
0
0
0
0
0
0
0
0
0
0
0
0
0
0
0
0
0
0
0
0
0
0
0
0
0
0
0
0
0
0
0
0
0
0
0
0
0
0
0
0
0
0
0
0
0
0
0
0
0
0
0
0
0
0
0
0
0
0
0
0
0
0
0
0
0
0
0
0
0
0
0
0
0
0
0
0
0
0
0
0
0
0
0
0
0
0
0
0
0
0
0
0
0
0
0
0
0
0
0
0
0
0
0
0
0
0
0
0
0
0
0
0
0
0
0
0
0
0
0
0
0
0
0
0
0
0
0
0
0
0
0
0
0
0
0
0
0
0
0
0
0
0
0
0
0
0
0
0
0
0
0
0
0
0
0
0
0
0
0
0
0
0
0
0
0
0
0
0
0
0
0
0
0
0
0
0
0
0
0
0
0
0
0
0
0
0
0
0
0
0
0
0
0
0
0
0
0
0
0
0
0
0
0
0
0
0
0
0
0
0
0
0
0
0
0
0
0
0
0
0
0
0
0
0
0
0
0
0
0
0
0
0
0
0
0
0
0
0
0
0
0
0
0
0
0
0
0
0
0
0
0
0
0
0
0
0
0
0
0
0
0
0
0
0
0
0
0
0
0
0
0
0
0
0
0
0
0
0
0
0
0
0
0
0
0
0
0
0
0
0
0
0
0
0
0
0
0
0
0
0
0
0
0
0
0
0
0
0
0
0
0
0
0
0
0
0
0
0
0
0
0
0
0
0
0
0
0
0
0
0
0
0
0
0
0
0
0
0
0
0
0
0
0
0
0
0
0
0
0
0
0
0
0
0
0
0
0
0
0
0
0
0
0
0
0
0
0
0
0
0
0
0
0
0
0
0
0
0
0
0
0
0
0
0
0
0
0
0
0
0
0
0
0
0
0
0
0
0
0
0
0
0
0
0
0
0
0
0
0
0
0
0
0
0
0
0
0
0
0
0
0
0
0
0
0
0
0
0
0
0
0
0
0
0
0
0
0
0
0
0
0
0
0
0
0
0
0
0
0
0
0
0
0
0
0
0
0
0
0
0
0
0
0
0
0
0
0
0
0
0
0
0
0
0
0
0
0
0
0
0
0
0
0
0
0
0
0
0
0
0
0
0
0
0
0
0
0
0
0
0
0
0
0
0
0
0
0
0
0
0
0
0
0
0
0
0
0
0
0
0
0
0
0
0
0
0
0
0
0
0
0
0
0
0
0
0
0
0
0
0
0
0
0
0
0
0
0
0
0
0
0
0
0
0
0
0
0
0
0
0
0
0
0
0
0
0
0
0
0
0
0
0
0
0
0
0
0
0
0
0
0
0
0
0
0
0
0
0
0
0
0
0
0
0
0
0
0
0
0
0
0
0
0
0
0
0
0
0
0
0
0
0
0
0
0
0
0
0
0
0
0
0
0
0
0
0
0
0
0
0
0
0
0
0
0
0
0
0
0
0
0
0
0
0
0
0
0
0
0
0
0
0
0
0
0
0
0
0
0
0
0
0
0
0
0
0
0
0
0
0
0
0
0
0
0
0
0
0
0
0
0
0
0
0
0
0
0
0
0
0
0
0
0
0
0
0
0
0
0
0
0
0
0
0
0
0
0
0
0
0
0
0
0
0
0
0
0
0
0
0
0
0
0
0
0
0
0
0
0
0
0
0
0
0
0
0
0
0
0
0
0
0
0
0
0
0
0
0
0
0
0
0
0
0
0
0
0
0
0
0
0
0
0
0
0
0
0
0
0
0
0
0
0
0
0
0
0
0
0
0
0
0
0
0
0
0
0
0
0
0
0
0
0
0
0
0
0
0
0
0
0
0
0
0
0
0
0
0
0
0
0
0
0
0
0
0
0
0
0
0
0
0
0
0
0
0
0
0
0
0
0
0
0
0
0
0
0
0
0
0
0
0
0
0
0
0
0
0
0
0
0
0
0
0
0
0
0
0
0
0
0
0
0
0
0
0
0
0
0
0
0
0
0
0
0
0
0
0
0
0
0
0
0
0
0
0
0
0
0
0
0
0
0
0
0
0
0
0
0
0
0
0
0
0
0
0
0
0
0
0
0
0
0
0
0
0
0
0
0
0
0
0
0
0
0
0
0
0
0
0
0
0
0
0
0
0
0
0
0
0
0
0
0
0
0
0
0
0
0
0
0
0
0
0
0
0
0
0
0
0
0
0
0
0
0
0
0
0
0
0
0
0
0
0
0
0
0
0
0
0
0
0
0
0
0
0
0
0
0
0
0
0
0
0
0
0
0
0
0
0
0
0
0
0
0
0
0
0
0
0
0
0
0
0
0
0
0
0
0
0
0
0
0
0
0
0
0
0
0
0
0
0
0
0
0
0
0
0
0
0
0
0
0
0
0
0
0
0
0
0
0
0
0
0
0
0
0
0
0
0
0
0
0
0
0
0
0
0
0
0
0
0
0
0
0
0
0
0
0
0
0
0
0
0
0
0
0
0
0
0
0
0
0
0
0
0
0
0
0
0
0
0
0
0
0
0
0
0
0
0
0
0
0
0
0
0
0
0
0
0
0
0
0
0
0
0
0
0
0
0
0
0
0
0
0
0
0
0
0
0
0
0
0
0
0
0
0
0
0
0
0
0
0
0
0
0
0
0
0
0
0
0
0
0
0
0
0
0
0
0
0
0
0
0
0
0
0
0
0
0
0
0
0
0
0
0
0
0
0
0
0
0
0
0
0
0
0
0
0
0
0
0
0
0
0
0
0
0
0
0
0
0
0
0
0
0
0
0
0
0
0
0
0
0
0
0
0
0
0
0
0
0
0
0
0
0
0
0
0
0
0
0
0
0
0
0
0
0
0
0
0
0
0
0
0
0
0
0
0
0
0
0
0
0
0
0
0
0
0
0
0
0
0
0
0
0
0
0
0
0
0
0
0
0
0
0
0
0
0
0
0
0
0
0
0
0
0
0
0
0
0
0
0
0
0
0
0
0
0
0
0
0
0
0
0
0
0
0
0
0
0
0
0
0
0
0
0
0
0
0
0
0
0
0
0
0
0
0
0
0
0
0
0
0
0
0
0
0
0
0
0
0
0
0
0
0
0
0
0
0
0
0
0
0
0
0
0
0
0
0
0
0
0
0
0
0
0
0
0
0
0
0
0
0
0
0
0
0
0
0
0
0
0
0
0
0
0
0
0
0
0
0
0
0
0
0
0
0
0
0
0
0
0
0
0
0
0
0
0
0
0
0
0
0
0
0
0
0
0
0
0
0
0
0
0
0
0
0
0
0
0
0
0
0
0
0
0
0
0
0
0
0
0
0
0
0
0
0
0
0
0
0
0
0
0
0
0
0
0
0
0
0
0
0
0
0
0
0
0
0
0
0
0
0
0
0
0
0
0
0
0
0
0
0
0
0
0
0
0
0
0
0
0
0
0
0
0
0
0
0
0
0
0
0
0
0
0
0
0
0
0
0
0
0
0
0
0
0
0
0
0
0
0
0
0
0
0
0
0
0
0
0
0
0
0
0
0
0
0
0
0
0
0
0
0
0
0
0
0
0
0
0
0
0
0
0
0
0
0
0
0
0
0
0
0
0
0
0
0
0
0
0
0
0
0
0
0
0
0
0
0
0
0
0
0
0
0
0
0
0
0
0
0
0
0
0
0
0
0
0
0
0
0
0
0
0
0
0
0
0
0
0
0
0
0
0
0
0
0
0
0
0
0
0
0
0
0
0
0
0
0
0
0
0
0
0
0
0
0
0
0
0
0
0
0
0
0
0
0
0
0
0
0
0
0
0
0
0
0
0
0
0
0
0
0
0
0
0
0
0
0
0
0
0
0
0
0
0
0
0
0
0
0
0
0
0
0
0
0
0
0
0
0
0
0
0
0
0
0
0
0
0
0
0
0
0
0
0
0
0
0
0
0
0
0
0
0
0
0
0
0
0
0
0
0
0
0
0
0
0
0
0
0
0
0
0
0
0
0
0
0
0
0
0
0
0
0
0
0
0
0
0
0
0
0
0
0
0
0
0
0
0
0
0
0
0
0
0
0
0
0
0
0
0
0
0
0
0
0
0
0
0
0
0
0
0
0
0
0
0
0
0
0
0
0
0
0
0
0
0
0
0
0
0
0
0
0
0
0
0
0
0
0
0
0
0
0
0
0
0
0
0
0
0
0
0
0
0
0
0
0
0
0
0
0
0
0
0
0
0
0
0
0
0
0
0
0
0
0
0
0
0
0
0
0
0
0
0
0
0
0
0
0
0
0
0
0
0
0
0
0
0
0
0
0
0
0
0
0
0
0
0
0
0
0
0
0
0
0
0
0
0
0
0
0
0
0
0
0
0
0
0
0
0
0
0
0
0
0
0
0
0
0
0
0
0
0
0
0
0
0
0
0
0
0
0
0
0
0
0
0
0
0
0
0
0
0
0
0
0
0
0
0
0
0
0
0
0
0
0
0
0
0
0
0
0
0
0
0
0
0
0
0
0
0
0
0
0
0
0
0
0
0
0
0
0
0
0
0
0
0
0
0
0
0
0
0
0
0
0
0
0
0
0
0
0
0
0
0
0
0
0
0
0
0
0
0
0
0
0
0
0
0
0
0
0
0
0
0
0
0
0
0
0
0
0
0
0
0
0
0
0
0
0
0
0
0
0
0
0
0
0
0
0
0
0
0
0
0
0
0
0
0
0
0
0
0
0
0
0
0
0
0
0
0
0
0
0
0
0
0
0
0
0
0
0
0
0
0
0
0
0
0
0
0
0
0
0
0
0
0
0
0
0
0
0
0
0
0
0
0
0
0
0
0
0
0
0
0
0
0
0
0
0
0
0
0
0
0
0
0
0
0
0
0
0
0
0
0
0
0
0
0
0
0
0
0
0
0
0
0
0
0
0
0
0
0
0
0
0
0
0
0
0
0
0
0
0
0
0
0
0
0
0
0
0
0
0
0
0
0
0
0
0
0
0
0
0
0
0
0
0
0
0
0
0
0
0
0
0
0
0
0
0
0
0
0
0
0
0
0
0
0
0
0
0
0
0
0
0
0
0
0
0
0
0
0
0
0
0
0
0
0
0
0
0
0
0
0
0
0
0
0
0
0
0
0
0
0
0
0
0
0
0
0
0
0
0
0
0
0
0
0
0
0
0
0
0
0
0
0
0
0
0
0
0
0
0
0
0
0
0
0
0
0
0
0
0
0
0
0
0
0
0
0
0
0
0
0
0
0
0
0
0
0
0
0
0
0
0
0
0
0
0
0
0
0
0
0
0
0
0
0
0
0
0
0
0
0
0
0
0
0
0
0
0
0
0
0
0
0
0
0
0
0
0
0
0
0
0
0
0
0
0
0
0
0
0
0
0
0
0
0
0
0
0
0
0
0
0
0
0
0
0
0
0
0
0
0
0
0
0
0
0
0
0
0
0
0
0
0
0
0
0
0
0
0
0
0
0
0
0
0
0
0
0
0
0
0
0
0
0
0
0
0
0
0
0
0
0
0
0
0
0
0
0
0
0
0
0
0
0
0
0
0
0
0
0
0
0
0
0
0
0
0
0
0
0
0
0
0
0
0
0
0
0
0
0
0
0
0
0
0
0
0
0
0
0
0
0
0
0
0
0
0
0
0
0
0
0
0
0
0
0
0
0
0
0
0
0
0
0
0
0
0
0
0
0
0
0
0
0
0
0
0
0
0
0
0
0
0
0
0
0
0
0
0
0
0
0
0
0
0
0
0
0
0
0
0
0
0
0
0
0
0
0
0
0
0
0
0
0
0
0
0
0
0
0
0
0
0
0
0
0
0
0
0
0
0
0
0
0
0
0
0
0
0
0
0
0
0
0
0
0
0
0
0
0
0
0
0
0
0
0
0
0
0
0
0
0
0
0
0
0
0
0
0
0
0
0
0
0
0
0
0
0
0
0
0
0
0
0
0
0
0
0
0
0
0
0
0
0
0
0
0
0
0
0
0
0
0
0
0
0
0
0
0
0
0
0
0
0
0
0
0
0
0
0
0
0
0
0
0
0
0
0
0
0
0
0
0
0
0
0
0
0
0
0
0
0
0
0
0
0
0
0
0
0
0
0
0
0
0
0
0
0
0
0
0
0
0
0
0
0
0
0
0
0
0
0
0
0
0
0
0
0
0
0
0
0
0
0
0
0
0
0
0
0
0
0
0
0
0
0
0
0
0
0
0
0
0
0
0
0
0
0
0
0
0
0
0
0
0
0
0
0
0
0
0
0
0
0
0
0
0
0
0
0
0
0
0
0
0
0
0
0
0
0
0
0
0
0
0
0
0
0
0
0
0
0
0
0
0
0
0
0
0
0
0
0
0
0
0
0
0
0
0
0
0
0
0
0
0
0
0
0
0
0
0
0
0
0
0
0
0
0
0
0
0
0
0
0
0
0
0
0
0
0
0
0
0
0
0
0
0
0
0
0
0
0
0
0
0
0
0
0
0
0
0
0
0
0
0
0
0
0
0
0
0
0
0
0
0
0
0
0
0
0
0
0
0
0
0
0
0
0
0
0
0
0
0
0
0
0
0
0
0
0
0
0
0
0
0
0
0
0
0
0
0
0
0
0
0
0
0
0
0
0
0
0
0
0
0
0
0
0
0
0
0
0
0
0
0
0
0
0
0
0
0
0
0
0
0
0
0
0
0
0
0
0
0
0
0
0
0
0
0
0
0
0
0
0
0
0
0
0
0
0
0
0
0
0
0
0
0
0
0
0
0
0
0
0
0
0
0
0
0
0
0
0
0
0
0
0
0
0
0
0
0
0
0
0
0
0
0
0
0
0
0
0
0
0
0
0
0
0
0
0
0
0
0
0
0
0
0
0
0
0
0
0
0
0
0
0
0
0
0
0
0
0
0
0
0
0
0
0
0
0
0
0
0
0
0
0
0
0
0
0
0
0
0
0
0
0
0
0
0
0
0
0
0
0
0
0
0
0
0
0
0
0
0
0
0
0
0
0
0
0
0
0
0
0
0
0
0
0
0
0
0
0
0
0
0
0
0
0
0
0
0
0
0
0
0
0
0
0
0
0
0
0
0
0
0
0
0
0
0
0
0
0
0
0
0
0
0
0
0
0
0
0
0
0
0
0
0
0
0
0
0
0
0
0
0
0
0
0
0
0
0
0
0
0
0
0
0
0
0
0
0
0
0
0
0
0
0
0
0
0
0
0
0
0
0
0
0
0
0
0
0
0
0
0
0
0
0
0
0
0
0
0
0
0
0
0
0
0
0
0
0
0
0
0
0
0
0
0
0
0
0
0
0
0
0
0
0
0
0
0
0
0
0
0
0
0
0
0
0
0
0
0
0
0
0
0
0
0
0
0
0
0
0
0
0
0
0
0
0
0
0
0
0
0
0
0
0
0
0
0
0
0
0
0
0
0
0
0
0
0
0
0
0
0
0
0
0
0
0
0
0
0
0
0
0
0
0
0
0
0
0
0
0
0
0
0
0
0
0
0
0
0
0
0
0
0
0
0
