1.52562
1.62567
1.71677
1.7992
1.87387
1.94183
2.00365
2.05942
2.1085
2.1497
2.18172
2.20362
2.21527
2.21765
2.21307
2.20522
2.19895
2.19997
2.21706
2.27064
2.39259
2.58728
2.80544
2.98712
3.08272
3.06317
2.92129
2.67029
2.34239
1.98435
1.6458
1.34893
1.08713
0.850297
0.63544
0.443432
0.274642
0.129122
0.00676651
-0.0925806
-0.169085
-0.222973
-0.254477
-0.26276
-0.245312
-0.201188
-0.137976
-0.0716574
-0.019673
0.00313454
-0.0116581
-0.0638538
-0.144829
-0.240008
-0.332732
-0.408854
-0.462847
-0.495255
-0.507641
-0.500207
-0.473758
-0.43022
-0.371166
-0.299374
-0.222488
-0.150189
-0.0915518
-0.0530123
-0.0368427
-0.0407291
-0.0586601
-0.0828077
-0.105724
-0.122745
-0.132678
-0.135971
-0.133705
-0.127421
-0.118855
-0.109612
-0.100978
-0.0938414
-0.0886219
-0.08524
-0.0830854
-0.0810284
-0.0775333
-0.0709126
-0.0596926
-0.0430037
-0.0206665
0.00645618
0.0365154
0.0674166
0.0974689
0.125904
0.153078
0.180299
0.209357
0.241947
0.279045
0.320788
0.366859
0.416698
0.469781
0.525899
0.585305
0.648629
0.71657
0.789498
0.867514
0.948949
1.02891
1.10079
1.15758
1.1932
1.20351
1.18663
1.14282
1.07405
0.983562
0.877758
0.762407
0.642365
0.522726
0.408633
0.304385
0.213823
0.139509
0.0824928
0.0422106
0.017207
0.00431252
0
0.0106386
0.024884
0.0423666
0.0641815
0.092362
0.222798
0.857381
2.02939
3.92578
6.57093
9.65329
12.5016
14.2896
14.3805
12.6236
9.43546
5.62749
2.08432
-0.540294
-1.98506
-2.36289
-1.91333
-1.48768
-1.12514
-0.867485
-0.730825
-0.648108
-0.582534
-0.52563
-0.472639
-0.421267
-0.373304
-0.333396
-0.306588
-0.29592
-0.30086
-0.317008
-0.337003
-0.352189
-0.355055
-0.341785
-0.311246
-0.263491
-0.199278
-0.120137
-0.0283482
0.0733574
0.18214
0.295353
0.41079
0.526864
0.642711
0.758213
0.873944
0.991016
1.11084
1.23478
1.36384
1.49834
1.63781
1.78117
1.92674
2.07295
2.21871
2.36368
2.50808
2.65226
2.79596
2.93731
3.07195
3.19388
3.29696
3.37686
3.43252
3.46649
3.48388
3.49054
3.49092
3.48694
3.47763
3.45987
3.42964
3.3832
3.31796
3.23288
3.12842
3.00632
2.87029
2.7245
2.57248
2.41759
2.26315
2.11206
1.9666
1.82822
1.6973
1.57366
1.45707
1.3478
1.24693
1.15629
1.07797
1.01439
0.967611
0.936876
0.920149
0.914954
0.919344
0.932575
0.955184
0.988465
1.03357
1.09046
1.15713
1.2307
1.30706
1.3808
1.44426
1.4893
1.50965
1.50149
1.46486
1.40455
1.32999
1.25368
1.18827
1.14351
1.12039
1.11786
1.13272
1.16004
1.19454
1.23144
1.26755
1.30056
1.32836
1.34865
1.3587
1.356
1.33872
1.30628
1.26004
1.20301
1.14096
1.08151
1.03231
0.999545
0.986853
0.994893
1.02158
1.06277
1.11302
1.16642
1.21669
1.25796
1.28548
1.29634
1.29022
1.26984
1.24088
1.21122
1.18957
1.18256
1.19433
1.22634
1.27679
1.34073
1.40989
1.47559
1.53077
1.57159
1.59828
1.615
1.62898
1.65231
1.74425
2.06687
2.54454
3.02353
3.32861
3.34981
3.10278
2.71162
2.32496
2.03135
1.84197
1.69275
1.55945
1.43608
1.32136
1.21492
1.11627
1.02448
0.937957
0.85441
0.771032
0.684828
0.592253
0.489108
0.373593
0.249428
0.12276
0
-0.0884429
0.308339
1.21893
2.87783
5.41991
8.68361
12.0765
14.6558
15.469
14.02
10.5923
6.19577
2.12728
-0.614056
-1.72251
-1.58307
-1.31582
-1.07881
-0.890488
-0.751126
-0.63901
-0.531745
-0.418054
-0.289428
-0.141602
0.0250255
0.206004
0.394225
0.581771
0.762164
0.93094
1.08643
1.22993
1.36533
1.49814
1.63433
1.7789
1.93485
2.10236
2.27887
2.46029
2.64076
2.81461
2.978
3.12991
3.27238
3.40993
3.54843
3.69355
3.85096
4.02563
4.21791
4.41944
4.61041
4.76835
4.87443
4.91544
4.88683
4.79705
4.67023
4.54337
4.4564
4.43792
4.47574
4.54273
4.6274
4.71484
4.79165
4.84917
4.88526
4.90407
4.91395
4.9242
4.94183
4.96848
5.0016
5.03615
5.06425
5.07522
5.05883
5.00616
4.91104
4.77129
4.58948
4.37299
4.1329
3.88203
3.63261
3.39178
3.16379
2.95218
2.75916
2.58595
2.43304
2.30043
2.1876
2.09443
2.02166
1.96558
1.91828
1.87152
1.81898
1.75819
1.69129
1.62404
1.56357
1.51557
1.48015
1.4559
1.43934
1.42584
1.41107
1.39225
1.36886
1.34262
1.31672
1.29468
1.2791
1.27113
1.26953
1.27079
1.27052
1.26489
1.25167
1.23059
1.20288
1.17032
1.1342
1.09492
1.0522
1.00524
0.953752
0.898549
0.841927
0.787612
0.740334
0.704995
0.685578
0.685348
0.705973
0.749251
0.816477
0.905693
1.00745
1.10576
1.18444
1.2305
1.23688
1.20419
1.14076
1.06093
0.981985
0.920361
0.884463
0.873918
0.885415
0.915996
0.963146
1.0235
1.09321
1.16855
1.24599
1.32321
1.39948
1.47585
1.55495
1.64046
1.73621
1.84647
1.97855
2.13498
2.2994
2.44653
2.55162
2.59801
2.58117
2.5084
2.39495
2.25908
2.11794
1.98333
1.85888
1.7452
1.64197
1.54847
1.46248
1.38111
1.30138
1.2209
1.13814
1.05244
0.96361
0.871504
0.775733
0.675203
0.567464
0.448238
0.315335
0.172487
0.02721
-0.110613
0
0.765976
2.20828
4.3998
7.28536
10.5898
13.7696
16.0851
16.8255
15.6103
12.6116
8.5614
4.50433
1.39619
-0.254685
-0.526918
0.0516701
0.48393
0.826416
1.03522
1.11045
1.14524
1.15931
1.16058
1.1539
1.14145
1.12242
1.09469
1.05595
1.00476
0.941249
0.867453
0.787268
0.705985
0.629168
0.561909
0.50828
0.470884
0.450434
0.44618
0.456139
0.475541
0.49665
0.512393
0.517885
0.511494
0.495138
0.473681
0.4536
0.441336
0.441634
0.454846
0.48005
0.516616
0.563556
0.619501
0.682895
0.752066
0.825236
0.900513
0.975934
1.04958
1.11981
1.1855
1.24622
1.30222
1.35427
1.40329
1.44982
1.49358
1.533
1.56524
1.58655
1.59299
1.58115
1.54887
1.49543
1.42146
1.32841
1.2179
1.0918
0.951602
0.798162
0.631935
0.453338
0.263568
0.0649649
-0.138883
-0.343282
-0.542796
-0.731694
-0.904385
-1.0561
-1.18343
-1.28462
-1.35952
-1.40938
-1.43654
-1.44398
-1.43484
-1.41206
-1.37826
-1.33579
-1.2867
-1.23333
-1.18245
-1.14565
-1.1364
-1.16611
-1.23955
-1.35167
-1.48769
-1.62669
-1.74756
-1.83694
-1.89878
-1.93294
-1.94097
-1.92601
-1.89172
-1.84265
-1.78007
-1.70538
-1.62632
-1.55601
-1.50823
-1.49263
-1.51049
-1.55362
-1.60759
-1.65796
-1.69609
-1.72351
-1.74507
-1.7638
-1.78111
-1.79575
-1.80427
-1.80263
-1.78812
-1.7623
-1.72838
-1.69036
-1.65314
-1.62114
-1.59727
-1.58234
-1.5749
-1.57173
-1.56853
-1.56091
-1.54532
-1.52013
-1.48501
-1.44057
-1.39011
-1.34079
-1.30031
-1.27388
-1.26173
-1.25757
-1.24898
-1.21989
-1.15483
-1.04355
-0.890815
-0.709668
-0.510485
-0.30356
-0.0999955
0.0898644
0.257949
0.399229
0.511896
0.597025
0.657921
0.699336
0.726705
0.745535
0.760752
0.77625
0.79462
0.817017
0.842155
0.865665
0.880942
0.88047
0.857293
0.80638
0.725582
0.615994
0.481749
0.32937
0.164702
-0.00150366
-0.152941
-0.273425
-0.34788
-0.363547
-0.3117
-0.189316
0
0.252811
0.547076
0.882509
1.45546
2.34258
3.80586
6.03794
8.95427
12.0693
14.5747
15.6319
14.7478
12.0323
8.1943
4.26617
1.18858
-0.541145
-0.992004
-0.629243
-0.309612
-0.0424796
0.157215
0.297301
0.411218
0.512625
0.602822
0.680765
0.745525
0.797095
0.837003
0.868521
0.896405
0.926245
0.963607
1.01287
1.07667
1.1561
1.2512
1.36127
1.4849
1.62007
1.76433
1.91479
2.06828
2.22122
2.3696
2.50883
2.63367
2.73923
2.82282
2.8836
2.92309
2.94549
2.95761
2.96825
2.9871
3.02329
3.08328
3.16818
3.27637
3.40646
3.55736
3.72592
3.90597
4.08704
4.25313
4.38821
4.47802
4.51164
4.48443
4.40092
4.27583
4.1315
3.99228
3.87782
3.7905
3.7228
3.66913
3.62632
3.59096
3.55927
3.52736
3.49141
3.44769
3.39256
3.32252
3.2343
3.12519
2.99348
2.83889
2.66302
2.46956
2.26422
2.05431
1.84801
1.65358
1.47846
1.3287
1.20833
1.11934
1.06282
1.03882
1.04431
1.07169
1.11006
1.14775
1.17417
1.18124
1.16437
1.12317
1.06147
0.986737
0.908748
0.837634
0.781188
0.742524
0.723323
0.722527
0.733713
0.747492
0.754895
0.749657
0.729522
0.696159
0.653733
0.60672
0.557845
0.507214
0.453174
0.393524
0.327218
0.255634
0.183047
0.116107
0.0624798
0.0283636
0.0180119
0.0328506
0.0710253
0.127802
0.196386
0.26888
0.336958
0.391546
0.425127
0.431937
0.408596
0.354801
0.273888
0.172962
0.0623785
-0.04547
-0.137958
-0.206179
-0.242727
-0.243968
-0.210532
-0.147217
-0.0568159
0.0480516
0.150822
0.237555
0.300184
0.338232
0.35829
0.371292
0.388508
0.417718
0.459033
0.507742
0.559355
0.608597
0.649863
0.677698
0.687745
0.676821
0.643032
0.585844
0.506107
0.406042
0.289138
0.159933
0.0238499
-0.113606
-0.24767
-0.374247
-0.49029
-0.594134
-0.68582
-0.767094
-0.84123
-0.912637
-0.986365
-1.06845
-1.16865
-1.30127
-1.46366
-1.64568
-1.83217
-1.8993
-1.32629
0
2.16353
5.04012
8.27112
11.2442
13.2032
13.4892
11.83
8.51607
4.33943
0.299246
-2.77638
-4.50159
-4.97664
-4.5928
-3.95191
-3.32774
-2.86769
-2.55922
-2.30998
-2.09925
-1.91384
-1.76479
-1.65969
-1.60054
-1.58251
-1.59424
-1.61996
-1.64281
-1.64877
-1.63374
-1.59998
-1.54888
-1.49086
-1.44054
-1.41267
-1.41852
-1.46305
-1.54345
-1.64951
-1.76574
-1.8748
-1.96436
-2.03068
-2.07205
-2.08562
-2.07486
-2.04505
-2.00143
-1.94762
-1.88485
-1.81236
-1.72855
-1.6325
-1.52523
-1.40907
-1.28787
-1.16515
-1.04275
-0.920126
-0.794834
-0.664025
-0.526287
-0.381898
-0.237377
-0.102188
0.0145199
0.10701
0.174444
0.220166
0.249355
0.266322
0.273687
0.271986
0.25908
0.232216
0.188612
0.125764
0.0415001
-0.0660069
-0.196222
-0.347886
-0.51956
-0.708595
-0.91035
-1.11819
-1.32374
-1.51681
-1.68751
-1.82762
-1.93178
-1.99823
-2.02899
-2.02944
-2.00648
-1.96932
-1.92687
-1.88652
-1.85325
-1.82945
-1.81514
-1.80865
-1.80754
-1.80928
-1.81189
-1.81425
-1.81591
-1.81692
-1.81766
-1.81872
-1.82081
-1.82465
-1.83086
-1.83985
-1.85168
-1.866
-1.88213
-1.8992
-1.91637
-1.93315
-1.94947
-1.96573
-1.9826
-2.00067
-2.02016
-2.04056
-2.06047
-2.07768
-2.08944
-2.09298
-2.08582
-2.06549
-2.02957
-1.97998
-1.9276
-1.88618
-1.86873
-1.88385
-1.93334
-2.01185
-2.10865
-2.21042
-2.304
-2.38204
-2.43616
-2.46019
-2.44967
-2.40216
-2.3175
-2.19804
-2.04854
-1.87573
-1.68245
-1.47771
-1.28437
-1.12905
-1.03661
-1.02139
-1.07809
-1.17874
-1.27979
-1.33721
-1.32236
-1.23646
-1.07658
-0.888679
-0.725382
-0.62992
-0.626905
-0.71858
-0.886182
-1.09639
-1.31145
-1.49997
-1.65669
-1.79129
-1.9113
-2.02034
-2.11957
-2.20926
-2.28873
-2.35585
-2.4066
-2.43511
-2.43526
-2.40112
-2.32832
-2.21543
-2.06506
-1.88437
-1.65524
-0.939195
0
1.31021
3.19432
5.698
8.53012
11.02
12.3098
11.7344
9.19197
5.27309
1.04109
-2.43158
-4.50785
-5.1643
-4.8084
-4.09838
-3.36941
-2.79782
-2.45242
-2.37977
-2.35681
-2.34241
-2.32796
-2.30586
-2.26892
-2.21147
-2.13152
-2.03061
-1.91145
-1.77785
-1.63416
-1.48723
-1.34807
-1.22724
-1.13221
-1.06545
-1.02359
-0.998242
-0.978458
-0.954075
-0.918706
-0.872523
-0.8197
-0.763829
-0.708183
-0.654814
-0.603869
-0.553472
-0.500127
-0.439431
-0.367227
-0.280567
-0.177495
-0.0576672
0.0789867
0.232745
0.392509
0.541629
0.665466
0.756794
0.8189
0.864617
0.911303
0.973843
1.05882
1.15839
1.26357
1.36681
1.46146
1.54322
1.61069
1.66481
1.70625
1.73516
1.75088
1.74989
1.72686
1.67655
1.5957
1.4844
1.34642
1.18881
1.02114
0.853263
0.692326
0.543211
0.409349
0.293014
0.193956
0.109356
0.0351482
-0.0329842
-0.0986507
-0.164026
-0.229484
-0.293643
-0.353733
-0.40609
-0.44689
-0.47313
-0.483174
-0.47713
-0.456878
-0.425663
-0.38736
-0.345592
-0.302973
-0.260683
-0.218632
-0.175886
-0.13123
-0.083746
-0.0333916
0.0192348
0.0721821
0.120414
0.157023
0.174869
0.168835
0.138167
0.0878651
0.0282433
-0.0275131
-0.0670536
-0.0827686
-0.0766258
-0.0490006
-0.0104767
0.0214306
0.0295506
0.001548
-0.0667828
-0.170228
-0.295283
-0.423532
-0.53635
-0.622337
-0.682605
-0.721635
-0.741236
-0.74413
-0.733754
-0.713568
-0.686646
-0.65556
-0.622241
-0.588621
-0.557223
-0.530736
-0.511501
-0.500756
-0.498026
-0.500996
-0.506014
-0.50898
-0.506231
-0.495458
-0.475879
-0.446284
-0.405191
-0.35071
-0.276276
-0.170061
-0.0222004
0.159
0.340437
0.482914
0.554968
0.537867
0.428604
0.243992
0.0221161
-0.18637
-0.339137
-0.434865
-0.50512
-0.570485
-0.641622
-0.726216
-0.827372
-0.943426
-1.0691
-1.19745
-1.32216
-1.43953
-1.54668
-1.64169
-1.72418
-1.79513
-1.85557
-1.90644
-1.8422
-1.24702
0
2.04235
4.882
8.26157
11.5782
13.9588
14.5691
13.0382
9.72696
5.617
1.85108
-0.787776
-2.12986
-2.49193
-2.24571
-1.91764
-1.53692
-1.15296
-0.857114
-0.691283
-0.598103
-0.53808
-0.495184
-0.460696
-0.425517
-0.381616
-0.323695
-0.25062
-0.161158
-0.0542978
0.0686707
0.198239
0.316363
0.403992
0.445564
0.434395
0.377061
0.294288
0.216851
0.177003
0.198227
0.271643
0.37809
0.50487
0.644118
0.788685
0.93263
1.07189
1.20439
1.32964
1.44806
1.56023
1.66641
1.76645
1.86002
1.94696
2.02776
2.1037
2.17689
2.24987
2.32528
2.40537
2.49169
2.58504
2.68535
2.79165
2.90207
3.01378
3.12166
3.2188
3.29801
3.3528
3.37849
3.37261
3.33472
3.26565
3.16669
3.03938
2.88939
2.72245
2.5427
2.35514
2.16573
1.98064
1.80522
1.64334
1.49694
1.36581
1.24801
1.14047
1.03988
0.943497
0.84975
0.758581
0.671422
0.590886
0.520245
0.462803
0.42128
0.397342
0.391469
0.403223
0.430902
0.469437
0.509253
0.53956
0.550689
0.536015
0.493413
0.425825
0.340699
0.248401
0.159966
0.0834414
0.0217228
-0.0242271
-0.0533945
-0.0680077
-0.0721712
-0.0703373
-0.0663424
-0.0628531
-0.0613239
-0.0623714
-0.0663054
-0.0735064
-0.0843739
-0.099192
-0.117653
-0.138615
-0.160225
-0.180425
-0.197646
-0.211186
-0.221916
-0.231737
-0.242775
-0.256497
-0.273112
-0.291481
-0.309509
-0.324783
-0.33535
-0.34036
-0.339265
-0.331738
-0.317749
-0.29748
-0.271283
-0.23969
-0.203513
-0.163689
-0.121346
-0.0777901
-0.0345078
0.00691223
0.0449196
0.0781551
0.105594
0.126655
0.141203
0.149463
0.151821
0.148617
0.13993
0.125339
0.104016
0.0748409
0.0366375
-0.0115597
-0.0702686
-0.139415
-0.218288
-0.305577
-0.399438
-0.497506
-0.597227
-0.695925
-0.79106
-0.880407
-0.962112
-1.03572
-1.10209
-1.16277
-1.21926
-1.27235
-1.32171
-1.36595
-1.40314
-1.43158
-1.4508
-1.43207
-0.931384
0
1.51856
3.71805
6.51305
9.53884
12.1437
13.5505
13.1682
10.8998
7.25528
3.1734
-0.362107
-2.70139
-3.70769
-3.6779
-3.19073
-2.75746
-2.42691
-2.22676
-2.14478
-2.09836
-2.06638
-2.04201
-2.01951
-1.99459
-1.96453
-1.92749
-1.88218
-1.82767
-1.76345
-1.68959
-1.60702
-1.51742
-1.42393
-1.33142
-1.24576
-1.17224
-1.11436
-1.0729
-1.04544
-1.02651
-1.0085
-0.982858
-0.941638
-0.879044
-0.793188
-0.685182
-0.557129
-0.411423
-0.250984
-0.0790228
0.101211
0.286526
0.473765
0.659761
0.841314
1.01526
1.17865
1.32883
1.46402
1.58354
1.68796
1.77914
1.86004
1.9344
2.00624
2.07936
2.15696
2.24133
2.33397
2.4358
2.54785
2.67159
2.80495
2.93419
3.03774
3.09179
3.07824
2.9919
2.843
2.65286
2.44495
2.23623
2.03229
1.83262
1.63703
1.44675
1.26424
1.09297
0.936832
0.799503
0.684706
0.595403
0.53099
0.487295
0.459251
0.442432
0.434226
0.434195
0.443461
0.465505
0.504442
0.552914
0.596304
0.618312
0.607933
0.564814
0.500252
0.433229
0.383202
0.362778
0.365617
0.387903
0.417935
0.441987
0.448336
0.430534
0.389088
0.331179
0.268557
0.214228
0.178292
0.163049
0.165187
0.180305
0.203843
0.229787
0.251706
0.263956
0.262413
0.244854
0.210981
0.162177
0.101106
0.0312748
-0.0433294
-0.118483
-0.190039
-0.253687
-0.305677
-0.343057
-0.364111
-0.368715
-0.358487
-0.336613
-0.307388
-0.275541
-0.245461
-0.220261
-0.201851
-0.191226
-0.188267
-0.191847
-0.200023
-0.210267
-0.219725
-0.225465
-0.224684
-0.214792
-0.193432
-0.158458
-0.107799
-0.0395506
0.0478634
0.158966
0.306524
0.503402
0.730381
0.942954
1.09467
1.15331
1.11243
0.994347
0.843287
0.710219
0.633606
0.60995
0.611914
0.624559
0.632556
0.62191
0.582864
0.511564
0.41031
0.286601
0.151348
0.0164896
-0.109862
-0.223676
-0.323171
-0.407506
-0.480353
-0.547299
-0.614154
-0.685177
-0.76175
-0.841902
-0.920846
-0.773538
0
1.43976
3.64241
6.57996
9.95183
13.0998
15.1315
15.2658
13.2405
9.52401
5.15983
1.30885
-1.24935
-2.36846
-2.42754
-2.13318
-1.86264
-1.63568
-1.46439
-1.35082
-1.27043
-1.21437
-1.17205
-1.13314
-1.08939
-1.03613
-0.973205
-0.902652
-0.827182
-0.750069
-0.674736
-0.604422
-0.541798
-0.488562
-0.445451
-0.412232
-0.387751
-0.370063
-0.356644
-0.344666
-0.331289
-0.31397
-0.290805
-0.260456
-0.22229
-0.176404
-0.122932
-0.063032
0.00190048
0.0709823
0.14421
0.222461
0.307054
0.399014
0.49832
0.603463
0.711336
0.818532
0.921686
1.01803
1.10572
1.18388
1.25234
1.31129
1.36112
1.40243
1.43616
1.46389
1.48805
1.51193
1.53944
1.57464
1.62229
1.68968
1.78453
1.90132
2.01489
2.09337
2.10706
2.03717
1.88193
1.65784
1.3954
1.13029
0.890847
0.681231
0.495152
0.32969
0.184337
0.0577862
-0.0515838
-0.145385
-0.225099
-0.292112
-0.347854
-0.393924
-0.432105
-0.464289
-0.492413
-0.518085
-0.542318
-0.565322
-0.586506
-0.604623
-0.618111
-0.62551
-0.625849
-0.618909
-0.605334
-0.586569
-0.564669
-0.542017
-0.52112
-0.504198
-0.492936
-0.488331
-0.490712
-0.499875
-0.515314
-0.536407
-0.56241
-0.592359
-0.625078
-0.658868
-0.691044
-0.717865
-0.734981
-0.737967
-0.723075
-0.688021
-0.632633
-0.555633
-0.459122
-0.355399
-0.26211
-0.195522
-0.166325
-0.177074
-0.222385
-0.291875
-0.3745
-0.462124
-0.550463
-0.637957
-0.723475
-0.805183
-0.880554
-0.946791
-1.00078
-1.04001
-1.06481
-1.07675
-1.07751
-1.06779
-1.04677
-1.0125
-0.962895
-0.897067
-0.817472
-0.728335
-0.633444
-0.537074
-0.443373
-0.355802
-0.275907
-0.203203
-0.135308
-0.0684721
0.00155344
0.0784463
0.164271
0.258736
0.358902
0.459775
0.555026
0.638029
0.702813
0.744736
0.760816
0.749794
0.712071
0.650021
0.567236
0.468133
0.357821
0.241437
0.123325
0.00624762
-0.108966
-0.223288
-0.338961
-0.459471
-0.58938
-0.728074
-0.862741
-0.973522
-1.0397
-1.04596
-0.986526
-0.866281
-0.699334
-0.481253
0
0.80819
2.26544
4.64563
7.91702
11.5407
14.5323
15.8383
14.8518
11.7552
7.46337
3.19913
-0.0382177
-1.81461
-2.27968
-1.92932
-1.66297
-1.43125
-1.25672
-1.14613
-1.07005
-1.01331
-0.964245
-0.911921
-0.843911
-0.74823
-0.638659
-0.540469
-0.478239
-0.463299
-0.486515
-0.520214
-0.528996
-0.484866
-0.382165
-0.240277
-0.0858815
0.0499304
0.142228
0.180241
0.17002
0.13123
0.0898469
0.0698323
0.0824202
0.122097
0.182851
0.261128
0.35368
0.457006
0.567796
0.683222
0.800984
0.919177
1.03606
1.14984
1.25856
1.3601
1.45242
1.53383
1.60332
1.66096
1.70807
1.74713
1.78152
1.81514
1.8518
1.89459
1.94537
2.00438
2.07037
2.14043
2.21061
2.27641
2.33304
2.37392
2.39217
2.38223
2.33904
2.25863
2.13898
1.98076
1.78766
1.56623
1.32528
1.07587
0.827549
0.588105
0.364546
0.162541
-0.0138084
-0.162137
-0.282356
-0.376989
-0.450076
-0.506176
-0.54949
-0.583178
-0.609035
-0.62756
-0.638359
-0.640733
-0.634475
-0.620185
-0.599044
-0.572981
-0.545026
-0.518623
-0.496824
-0.481796
-0.474614
-0.475404
-0.48377
-0.499323
-0.522055
-0.552142
-0.590009
-0.635496
-0.687209
-0.742146
-0.795751
-0.842459
-0.876952
-0.895451
-0.896589
-0.88013
-0.851803
-0.81971
-0.791955
-0.7745
-0.769724
-0.776087
-0.788892
-0.801858
-0.80896
-0.806909
-0.795221
-0.774933
-0.748223
-0.718401
-0.689238
-0.664472
-0.647152
-0.638986
-0.640179
-0.649409
-0.664012
-0.680375
-0.694465
-0.702416
-0.701035
-0.688426
-0.664082
-0.627858
-0.579981
-0.520997
-0.451599
-0.372445
-0.284229
-0.18775
-0.0839899
0.0258261
0.140215
0.257461
0.375672
0.492856
0.607009
0.71619
0.818595
0.912624
0.996937
1.07049
1.13255
1.18286
1.22158
1.24926
1.26668
1.27476
1.27438
1.26618
1.25051
1.22745
1.19694
1.15887
1.11323
1.06014
0.999823
0.932449
0.858038
0.776481
0.687403
0.589834
0.483128
0.369682
0.256946
0.155215
0.0745916
0.0221463
0
-0.00314193
0.199398
0.861332
2.0973
4.13343
7.03483
10.5231
13.8995
16.1929
16.5369
14.6047
10.8366
6.29077
2.18169
-0.629902
-1.9116
-1.98716
-1.41542
-0.754566
-0.213135
0.137229
0.272814
0.313702
0.333929
0.34619
0.354624
0.362463
0.373347
0.391322
0.420509
0.464666
0.526737
0.608348
0.709389
0.827793
0.959676
1.10046
1.24362
1.38245
1.51212
1.6305
1.73833
1.83843
1.93428
2.02854
2.12187
2.21289
2.29886
2.37682
2.44492
2.5033
2.5545
2.60304
2.65453
2.71436
2.78582
2.87005
2.96866
3.08032
3.19433
3.29804
3.38149
3.44085
3.47976
3.5078
3.53674
3.57639
3.63202
3.7005
3.77883
3.8663
3.96334
4.07696
4.22645
4.42448
4.64152
4.82663
4.93239
4.93529
4.83917
4.66474
4.43666
4.17709
3.90734
3.64276
3.3901
3.15165
2.92755
2.7175
2.52174
2.34002
2.17155
2.01546
1.87172
1.74209
1.62855
1.53348
1.45931
1.40752
1.37784
1.3678
1.37296
1.38758
1.40561
1.42182
1.43253
1.4357
1.43105
1.41967
1.40365
1.38541
1.36718
1.35054
1.33605
1.32344
1.3115
1.29794
1.27971
1.25374
1.21779
1.1713
1.11613
1.05642
0.999073
0.952232
0.923197
0.916578
0.933031
0.968942
1.01721
1.06879
1.11468
1.14817
1.16472
1.16253
1.14221
1.10626
1.0584
1.00357
0.946235
0.890407
0.839881
0.798045
0.767615
0.750715
0.748991
0.763465
0.794461
0.843439
0.913084
1.00348
1.1032
1.19253
1.2516
1.26702
1.23769
1.1771
1.11066
1.06837
1.07507
1.133
1.22483
1.34338
1.47351
1.59585
1.69411
1.7596
1.79359
1.80675
1.81594
1.83903
1.88965
1.97243
2.09275
2.23237
2.36409
2.46197
2.50856
2.49859
2.43842
2.34259
2.22878
2.11273
2.00297
1.90026
1.80227
1.70618
1.60961
1.51088
1.40934
1.30547
1.20044
1.09548
0.991269
0.887528
0.783155
0.676458
0.565317
0.448056
0.326016
0.205386
0.0942215
0
-0.0698982
0.0125336
0.6641
1.85537
3.75226
6.43478
9.73692
13.1176
15.7113
16.6197
15.3347
12.0519
7.65728
3.35947
0.169249
-1.48434
-1.80616
-1.36904
-0.966372
-0.627745
-0.381382
-0.24346
-0.156628
-0.0976143
-0.062146
-0.0446167
-0.0387173
-0.0382843
-0.0381023
-0.0343418
-0.0249001
-0.00809708
0.0176056
0.0538841
0.102386
0.164138
0.238817
0.324257
0.416027
0.509532
0.600437
0.685396
0.762721
0.832613
0.896925
0.958585
1.0209
1.08685
1.15875
1.23836
1.32692
1.42529
1.53405
1.65353
1.7837
1.92398
2.073
2.22852
2.38738
2.54572
2.6991
2.84276
2.97341
3.08957
3.19201
3.28373
3.36937
3.45423
3.54302
3.63867
3.74165
3.84968
3.95939
4.06709
4.16974
4.26587
4.35607
4.44292
4.53028
4.62473
4.73756
4.85397
4.9307
4.91013
4.74553
4.42797
3.99958
3.54303
3.14998
2.88441
2.68659
2.53761
2.42992
2.35347
2.29764
2.25294
2.21202
2.17027
2.12606
2.08026
2.03564
1.99621
1.96631
1.94964
1.94824
1.96399
1.99657
2.03976
2.0809
2.10648
2.10544
2.07196
2.00705
1.91833
1.81782
1.71866
1.6314
1.55878
1.499
1.45054
1.41153
1.3796
1.35227
1.32744
1.30368
1.2801
1.25628
1.23182
1.20619
1.17879
1.14928
1.11811
1.08698
1.05871
1.03648
1.02491
1.02464
1.03073
1.03515
1.02992
1.01011
0.975165
0.928108
0.873519
0.815918
0.759313
0.70727
0.665371
0.63987
0.637016
0.661071
0.712393
0.786529
0.874908
0.967018
1.05331
1.12931
1.19387
1.24894
1.29886
1.34887
1.40339
1.46601
1.53619
1.60663
1.66661
1.70552
1.71599
1.69578
1.64787
1.57889
1.49669
1.40805
1.31755
1.22712
1.13736
1.04858
0.961096
0.875325
0.791696
0.710504
0.631817
0.555555
0.481478
0.409171
0.33828
0.268611
0.200136
0.132766
0.066197
0
-0.0664011
0.164637
0.982716
2.59537
5.03176
8.06846
11.1952
13.6775
14.7568
13.9501
11.3088
7.46497
3.40198
0.0575653
-2.02473
-2.81605
-2.60959
-2.08101
-1.49133
-1.0493
-0.816861
-0.691931
-0.566134
-0.443637
-0.327279
-0.220765
-0.128219
-0.0527021
0.00445881
0.0439713
0.0684259
0.0817978
0.0888008
0.0943272
0.102605
0.117188
0.140964
0.175892
0.22278
0.281165
0.349257
0.424368
0.503634
0.584343
0.664377
0.742467
0.818193
0.89179
0.963851
1.03502
1.10575
1.17619
1.24614
1.31514
1.3826
1.44809
1.51166
1.57397
1.63647
1.70122
1.77063
1.84694
1.93178
2.02567
2.12766
2.23592
2.34774
2.45967
2.56766
2.6677
2.75621
2.83042
2.88844
2.92917
2.95193
2.95599
2.94018
2.90287
2.8421
2.75561
2.64176
2.50016
2.33211
2.14074
1.93066
1.7076
1.47712
1.2438
1.01095
0.780533
0.553383
0.330247
0.113908
-0.0882141
-0.264691
-0.400239
-0.481146
-0.501137
-0.464727
-0.386395
-0.286057
-0.183219
-0.0918142
-0.0146112
0.0472729
0.0916328
0.11825
0.128291
0.124642
0.112131
0.0972137
0.0869856
0.087685
0.103195
0.13252
0.172573
0.219553
0.268769
0.315629
0.35662
0.389239
0.412131
0.424875
0.427657
0.420994
0.405502
0.381819
0.350706
0.313181
0.270631
0.224846
0.177955
0.132272
0.0900749
0.0533798
0.0237579
0.00223083
-0.0107599
-0.0153227
-0.0120556
-0.00197544
0.0135986
0.0331234
0.0548615
0.0770653
0.0983263
0.1179
0.135909
0.15335
0.171886
0.193426
0.219641
0.251572
0.28968
0.333592
0.382695
0.436568
0.495222
0.55899
0.628118
0.702262
0.780182
0.85983
0.939018
1.01618
1.09112
1.16545
1.2424
1.32804
1.43386
1.57157
1.72932
1.87352
1.96546
1.97482
1.88951
1.7191
1.49153
1.24467
1.01602
0.824472
0.664991
0.529675
0.41512
0.320332
0.243251
0.180971
0.130386
0.0888001
0.0540705
0.0247467
0
-0.019961
-0.0257767
0.376354
1.19226
2.67043
5.01551
8.15015
11.5459
14.2953
15.4622
14.5327
11.6971
7.77972
3.85958
0.811549
-0.981183
-1.63019
-1.5143
-1.24926
-1.00364
-0.795585
-0.637178
-0.532467
-0.476823
-0.458055
-0.459232
-0.462622
-0.453689
-0.425501
-0.379814
-0.321138
-0.253523
-0.180701
-0.106445
-0.0343733
0.0316233
0.0885132
0.134818
0.170725
0.198513
0.222628
0.24909
0.2842
0.332896
0.397376
0.4749
0.561048
0.652021
0.744117
0.834416
0.921223
1.00416
1.08394
1.16195
1.23975
1.31868
1.39961
1.48277
1.56781
1.65393
1.74001
1.8249
1.90778
1.98839
2.06714
2.14497
2.22294
2.30174
2.38128
2.46015
2.53581
2.60556
2.66765
2.72196
2.76989
2.81335
2.85217
2.8828
2.89645
2.88082
2.82451
2.72162
2.57453
2.39362
2.19423
1.99211
1.79765
1.61364
1.44133
1.28137
1.13338
0.996451
0.869422
0.751367
0.641404
0.537928
0.439574
0.345663
0.256633
0.174198
0.101048
0.0401342
-0.00601978
-0.0359087
-0.0501598
-0.0506859
-0.0399361
-0.0202131
0.00657711
0.0389555
0.0750862
0.109672
0.134986
0.143101
0.129011
0.0933653
0.043339
-0.00907555
-0.0508261
-0.0721281
-0.0733065
-0.0599306
-0.0364664
-0.00880909
0.017144
0.0367184
0.0472143
0.0480951
0.0406881
0.0275843
0.0120018
-0.003055
-0.0152439
-0.0229527
-0.0253149
-0.022176
-0.0139668
-0.00151691
0.0141607
0.0321066
0.0516268
0.0724564
0.0948229
0.119437
0.147346
0.179677
0.21731
0.261001
0.310583
0.362767
0.411296
0.449351
0.471894
0.477902
0.471558
0.461785
0.460073
0.477216
0.518635
0.581365
0.659921
0.749208
0.841945
0.930948
1.01053
1.07738
1.13065
1.17141
1.20155
1.22267
1.23556
1.23909
1.23055
1.20608
1.16146
1.09305
0.998795
0.879127
0.737585
0.579763
0.414891
0.257733
0.122493
0.0197161
-0.0459703
-0.0765196
-0.079344
-0.0648605
-0.0435905
-0.0236696
-0.00863209
0
0.00756245
0.0107658
0.0116093
0.111109
0.578318
1.70255
3.70342
6.57579
9.96471
13.1467
15.194
15.3238
13.284
9.54119
5.1229
1.17965
-1.48342
-2.64708
-2.60773
-2.05464
-1.5638
-1.18584
-0.947175
-0.834965
-0.797879
-0.79743
-0.797821
-0.777431
-0.737873
-0.69067
-0.644536
-0.60705
-0.581864
-0.56743
-0.557426
-0.542536
-0.512889
-0.462655
-0.375099
-0.234585
-0.0549419
0.126111
0.269036
0.344549
0.341594
0.270191
0.15997
0.0549521
0.00365906
0.0332254
0.131437
0.302347
0.513149
0.717178
0.870211
0.946411
0.94682
0.897148
0.837045
0.806596
0.83412
0.908039
1.02067
1.22868
1.64418
2.19662
2.72938
3.09443
3.204
3.06076
2.74641
2.38322
2.09801
1.99936
2.03256
2.20833
2.53235
2.89748
3.18935
3.32451
3.27359
3.05991
2.73829
2.37403
2.03756
1.77596
1.56379
1.37314
1.19128
1.01267
0.834178
0.654953
0.477126
0.305805
0.148751
0.023399
-0.0238884
0.0757468
0.283829
0.510206
0.664498
0.688595
0.575979
0.37369
0.164683
0.0346213
0.0345503
0.108352
0.207111
0.314
0.415867
0.502153
0.56657
0.607792
0.628947
0.636044
0.635748
0.633181
0.63042
0.626434
0.618116
0.601847
0.575236
0.538399
0.494307
0.448074
0.405485
0.371294
0.34663
0.33147
0.323879
0.320795
0.319038
0.316259
0.311542
0.305554
0.300206
0.297977
0.300971
0.310069
0.325422
0.34542
0.366254
0.383411
0.392826
0.391933
0.380334
0.359909
0.334454
0.309009
0.289059
0.278895
0.282284
0.302427
0.341176
0.398644
0.472964
0.560357
0.655602
0.752887
0.846899
0.933949
1.01262
1.08411
1.15192
1.22116
1.29741
1.38529
1.4889
1.61304
1.75587
1.90647
2.04961
2.16882
2.2506
2.28608
2.27191
2.21047
2.1095
1.98067
1.83711
1.68992
1.54527
1.4031
1.261
1.11705
0.970599
0.823107
0.678194
0.540817
0.416001
0.306478
0.213985
0.138952
0.0814072
0.0400185
0.0133575
0
-0.00413294
0.0351972
0.660709
1.66246
3.20824
5.5011
8.55566
11.9715
14.9007
16.3292
15.5609
12.6204
8.31056
3.86694
0.410497
-1.48452
-1.90314
-1.35165
-0.824649
-0.411166
-0.176001
-0.10301
-0.065281
-0.0348772
-0.00459929
0.0287217
0.0620915
0.0895593
0.106328
0.11195
0.111313
0.113249
0.127661
0.162572
0.217581
0.289175
0.374946
0.472151
0.577239
0.685951
0.792989
0.893613
0.984464
1.06415
1.13342
1.19473
1.25143
1.30673
1.36291
1.42083
1.4804
1.54108
1.6024
1.66438
1.72756
1.79285
1.86111
1.93294
2.00848
2.08784
2.17147
2.26018
2.35516
2.45759
2.56811
2.68617
2.81018
2.93627
3.05789
3.16823
3.26211
3.33745
3.39586
3.44193
3.48157
3.51927
3.55626
3.58458
3.5892
3.5542
3.4696
3.33553
3.16183
2.96374
2.75611
2.54896
2.34519
2.14552
1.95077
1.76188
1.5802
1.40751
1.24581
1.09691
0.962128
0.842014
0.73636
0.644293
0.564513
0.495569
0.436119
0.385002
0.341457
0.305182
0.276341
0.255452
0.243185
0.240081
0.24641
0.26162
0.284079
0.310998
0.338332
0.361256
0.375619
0.378968
0.371289
0.355216
0.335533
0.318038
0.308032
0.308906
0.320629
0.340288
0.364701
0.390265
0.413522
0.431735
0.443189
0.447215
0.444031
0.43462
0.420223
0.402247
0.382127
0.361216
0.34071
0.321634
0.30487
0.291306
0.281953
0.277959
0.28062
0.29129
0.311224
0.341402
0.382374
0.434173
0.49629
0.567753
0.647247
0.733567
0.825725
0.923268
1.0264
1.1367
1.25883
1.40033
1.55822
1.7109
1.82777
1.88078
1.85552
1.75613
1.60217
1.4202
1.23402
1.0564
0.888102
0.727452
0.574036
0.429057
0.295638
0.177862
0.0798583
0.00498123
-0.0414627
-0.0539295
-0.0396408
-0.015372
0
-0.00951901
-0.0531763
-0.131697
-0.237944
-0.365917
-0.188833
0.429916
1.57525
3.32009
5.63949
8.29738
10.7853
12.4162
12.5711
10.9874
7.92005
4.06786
0.305191
-2.63339
-4.36063
-4.86938
-4.43075
-3.50319
-2.49943
-1.75628
-1.46909
-1.5071
-1.52738
-1.53799
-1.53259
-1.50856
-1.47383
-1.44112
-1.42336
-1.42891
-1.45829
-1.50376
-1.55168
-1.5867
-1.59626
-1.57871
-1.53835
-1.4791
-1.40351
-1.31419
-1.21407
-1.10604
-0.993011
-0.877951
-0.763945
-0.654521
-0.553612
-0.463916
-0.3866
-0.320649
-0.262552
-0.206517
-0.145316
-0.0716194
0.020465
0.133811
0.2661
0.413051
0.56942
0.728863
0.88452
1.02998
1.16003
1.27112
1.36222
1.43481
1.49245
1.54037
1.58479
1.6321
1.69077
1.77399
1.88186
1.99331
2.07877
2.11214
2.08123
1.99117
1.85977
1.70821
1.55267
1.39984
1.24964
1.10129
0.954404
0.809165
0.666468
0.528
0.39606
0.273157
0.161653
0.0635075
-0.0208567
-0.0929808
-0.155568
-0.211742
-0.26416
-0.314208
-0.361514
-0.40386
-0.437189
-0.456159
-0.455832
-0.432382
-0.384006
-0.311457
-0.218039
-0.109011
0.00950565
0.131843
0.253997
0.374475
0.493554
0.612832
0.734551
0.861745
0.997133
1.13376
1.25535
1.34308
1.38328
1.37341
1.32319
1.25025
1.17265
1.10232
1.04004
0.982665
0.928464
0.87685
0.828462
0.785283
0.750209
0.72623
0.715322
0.719164
0.73696
0.7646
0.795806
0.823886
0.843162
0.850159
0.844307
0.828054
0.806419
0.786088
0.774178
0.776775
0.797954
0.839383
0.900982
0.982499
1.08399
1.21015
1.37595
1.60739
1.90595
2.21465
2.46457
2.59952
2.59237
2.4471
2.19076
1.86429
1.51894
1.21411
0.974371
0.786362
0.633735
0.507562
0.405952
0.325448
0.261602
0.209773
0.165902
0.127099
0.0919316
0.0604029
0.0336494
0.0135365
0.00189972
0
0.00522518
0.0191784
0.0515268
0.535444
1.34689
2.63689
4.57904
7.21612
10.2737
13.0926
14.791
14.6366
12.4371
8.70574
4.47469
0.849589
-1.44468
-2.2823
-2.03947
-1.3717
-0.793102
-0.412631
-0.26706
-0.209285
-0.161725
-0.114301
-0.0630608
-0.00587711
0.0574393
0.125856
0.197862
0.272035
0.347595
0.424692
0.504343
0.58805
0.677359
0.773993
0.878697
0.985714
1.08267
1.15638
1.19818
1.20832
1.19702
1.18146
1.17985
1.20518
1.2575
1.3273
1.40806
1.49577
1.58707
1.67956
1.77193
1.86377
1.95531
2.04708
2.13973
2.23404
2.33084
2.43108
2.53568
2.64541
2.76071
2.88149
3.00707
3.13608
3.26652
3.39569
3.51977
3.63387
3.73315
3.81293
3.86911
3.89854
3.89919
3.87012
3.81148
3.72447
3.6118
3.47834
3.32934
3.16989
3.00485
2.8384
2.67355
2.512
2.35429
2.2004
2.05043
1.90518
1.76635
1.63629
1.51792
1.41427
1.32553
1.25013
1.18533
1.12805
1.07585
1.02741
0.982521
0.941847
0.90637
0.876606
0.853351
0.837643
0.83046
0.832609
0.844509
0.865915
0.895726
0.931929
0.97172
1.01178
1.04862
1.07885
1.09952
1.10877
1.10596
1.09177
1.06827
1.03864
1.00675
0.976451
0.950915
0.932599
0.921203
0.913562
0.905208
0.891974
0.871467
0.84387
0.811806
0.779334
0.750494
0.727551
0.710511
0.698526
0.689537
0.68121
0.671761
0.660497
0.647944
0.63556
0.625196
0.618556
0.616557
0.619565
0.627911
0.641905
0.662136
0.689709
0.726386
0.774507
0.836916
0.916528
1.01579
1.14129
1.30456
1.50921
1.73176
1.93263
2.07492
2.13459
2.10587
2.00129
1.84689
1.6735
1.50665
1.3569
1.2197
1.08906
0.961686
0.836019
0.711627
0.589296
0.471007
0.359623
0.258333
0.169839
0.0964649
0.0406075
0
-0.0363083
-0.0820253
-0.150136
-0.249529
-0.382948
-0.546878
-0.733053
-0.936391
-0.350179
0.806623
2.48314
4.68502
7.41856
10.4835
13.3022
15.0065
14.8283
12.5706
8.81598
4.68861
1.30344
-0.739878
-1.50783
-1.4931
-1.23884
-0.988891
-0.753372
-0.547396
-0.390102
-0.301796
-0.295117
-0.365238
-0.484888
-0.608584
-0.686503
-0.683721
-0.617892
-0.503549
-0.37631
-0.27559
-0.228657
-0.239561
-0.288554
-0.342431
-0.370483
-0.357831
-0.320613
-0.273023
-0.222584
-0.175025
-0.132697
-0.0942534
-0.0556587
-0.0121235
0.0415916
0.107175
0.17604
0.235229
0.27357
0.287534
0.283909
0.277941
0.287696
0.327266
0.3987
0.491602
0.59744
0.710935
0.827614
0.944308
1.05945
1.1729
1.28537
1.3978
1.51075
1.62405
1.73663
1.84619
1.94906
2.04041
2.11495
2.16721
2.1918
2.18388
2.13941
2.05559
1.93114
1.76668
1.56512
1.33241
1.07718
0.80935
0.538647
0.273836
0.0228813
-0.207573
-0.412741
-0.589992
-0.738846
150
348
549
753
950
1142
1335
1528
1728
1930
2131
2334
2524
2717
2911
3107
3292
3476
3666
3688
3638
1587
1755
1868
1923
1984
2088
2089
2252
2384
2419
2506
2549
2585
2687
2717
2754
2816
2921
3033
3084
3248
3339
3410
3487
3576
3208
3249
3298
3415
3467
3538
3575
3635
3526
3597
3691
0
0
0
0
0
0
0
0
0
0
0
0
0
0
0
0
0
0
0
0
0
0
0
0
0
0
0
0
0
0
0
0
0
0
0
0
0
0
0
0
0
0
0
0
0
0
0
0
0
0
0
0
0
0
0
0
0
0
0
0
0
0
0
0
0
0
0
0
0
0
0
0
0
0
0
0
0
0
0
0
0
0
0
0
0
0
0
0
0
0
0
0
0
0
0
0
0
0
0
0
0
0
0
0
0
0
0
0
0
0
0
0
0
0
0
0
0
0
0
0
0
0
0
0
0
0
0
0
0
0
0
0
0
0
0
0
0
0
0
0
0
0
0
0
0
0
0
0
0
0
0
0
0
0
0
0
0
0
0
0
0
0
0
0
0
0
0
0
0
0
0
0
0
0
0
0
0
0
0
0
0
0
0
0
0
0
0
0
0
0
0
0
0
0
0
0
0
0
0
0
0
0
0
0
0
0
0
0
0
0
0
0
0
0
0
0
0
0
0
0
0
0
0
0
0
0
0
0
0
0
0
0
0
0
0
0
0
0
0
0
0
0
0
0
0
0
0
0
0
0
0
0
0
0
0
0
0
0
0
0
0
0
0
0
0
0
0
0
0
0
0
0
0
0
0
0
0
0
0
0
0
0
0
0
0
0
0
0
0
0
0
0
0
0
0
0
0
0
0
0
0
0
0
0
0
0
0
0
0
0
0
0
0
0
0
0
0
0
0
0
0
0
0
0
0
0
0
0
0
0
0
0
0
0
0
0
0
0
0
0
0
0
0
0
0
0
0
0
0
0
0
0
0
0
0
0
0
0
0
0
0
0
0
0
0
0
0
0
0
0
0
0
0
0
0
0
0
0
0
0
0
0
0
0
0
0
0
0
0
0
0
0
0
0
0
0
0
0
0
0
0
0
0
0
0
0
0
0
0
0
0
0
0
0
0
0
0
0
0
0
0
0
0
0
0
0
0
0
0
0
0
0
0
0
0
0
0
0
0
0
0
0
0
0
0
0
0
0
0
0
0
0
0
0
0
0
0
0
0
0
0
0
0
0
0
0
0
0
0
0
0
0
0
0
0
0
0
0
0
0
0
0
0
0
0
0
0
0
0
0
0
0
0
0
0
0
0
0
0
0
0
0
0
0
0
0
0
0
0
0
0
0
0
0
0
0
0
0
0
0
0
0
0
0
0
0
0
0
0
0
0
0
0
0
0
0
0
0
0
0
0
0
0
0
0
0
0
0
0
0
0
0
0
0
0
0
0
0
0
0
0
0
0
0
0
0
0
0
0
0
0
0
0
0
0
0
0
0
0
0
0
0
0
0
0
0
0
0
0
0
0
0
0
0
0
0
0
0
0
0
0
0
0
0
0
0
0
0
0
0
0
0
0
0
0
0
0
0
0
0
0
0
0
0
0
0
0
0
0
0
0
0
0
0
0
0
0
0
0
0
0
0
0
0
0
0
0
0
0
0
0
0
0
0
0
0
0
0
0
0
0
0
0
0
0
0
0
0
0
0
0
0
0
0
0
0
0
0
0
0
0
0
0
0
0
0
0
0
0
0
0
0
0
0
0
0
0
0
0
0
0
0
0
0
0
0
0
0
0
0
0
0
0
0
0
0
0
0
0
0
0
0
0
0
0
0
0
0
0
0
0
0
0
0
0
0
0
0
0
0
0
0
0
0
0
0
0
0
0
0
0
0
0
0
0
0
0
0
0
0
0
0
0
0
0
0
0
0
0
0
0
0
0
0
0
0
0
0
0
0
0
0
0
0
0
0
0
0
0
0
0
0
0
0
0
0
0
0
0
0
0
0
0
0
0
0
0
0
0
0
0
0
0
0
0
0
0
0
0
0
0
0
0
0
0
0
0
0
0
0
0
0
0
0
0
0
0
0
0
0
0
0
0
0
0
0
0
0
0
0
0
0
0
0
0
0
0
0
0
0
0
0
0
0
0
0
0
0
0
0
0
0
0
0
0
0
0
0
0
0
0
0
0
0
0
0
0
0
0
0
0
0
0
0
0
0
0
0
0
0
0
0
0
0
0
0
0
0
0
0
0
0
0
0
0
0
0
0
0
0
0
0
0
0
0
0
0
0
0
0
0
0
0
0
0
0
0
0
0
0
0
0
0
0
0
0
0
0
0
0
0
0
0
0
0
0
0
0
0
0
0
0
0
0
0
0
0
0
0
0
0
0
0
0
0
0
0
0
0
0
0
0
0
0
0
0
0
0
0
0
0
0
0
0
0
0
0
0
0
0
0
0
0
0
0
0
0
0
0
0
0
0
0
0
0
0
0
0
0
0
0
0
0
0
0
0
0
0
0
0
0
0
0
0
0
0
0
0
0
0
0
0
0
0
0
0
0
0
0
0
0
0
0
0
0
0
0
0
0
0
0
0
0
0
0
0
0
0
0
0
0
0
0
0
0
0
0
0
0
0
0
0
0
0
0
0
0
0
0
0
0
0
0
0
0
0
0
0
0
0
0
0
0
0
0
0
0
0
0
0
0
0
0
0
0
0
0
0
0
0
0
0
0
0
0
0
0
0
0
0
0
0
0
0
0
0
0
0
0
0
0
0
0
0
0
0
0
0
0
0
0
0
0
0
0
0
0
0
0
0
0
0
0
0
0
0
0
0
0
0
0
0
0
0
0
0
0
0
0
0
0
0
0
0
0
0
0
0
0
0
0
0
0
0
0
0
0
0
0
0
0
0
0
0
0
0
0
0
0
0
0
0
0
0
0
0
0
0
0
0
0
0
0
0
0
0
0
0
0
0
0
0
0
0
0
0
0
0
0
0
0
0
0
0
0
0
0
0
0
0
0
0
0
0
0
0
0
0
0
0
0
0
0
0
0
0
0
0
0
0
0
0
0
0
0
0
0
0
0
0
0
0
0
0
0
0
0
0
0
0
0
0
0
0
0
0
0
0
0
0
0
0
0
0
0
0
0
0
0
0
0
0
0
0
0
0
0
0
0
0
0
0
0
0
0
0
0
0
0
0
0
0
0
0
0
0
0
0
0
0
0
0
0
0
0
0
0
0
0
0
0
0
0
0
0
0
0
0
0
0
0
0
0
0
0
0
0
0
0
0
0
0
0
0
0
0
0
0
0
0
0
0
0
0
0
0
0
0
0
0
0
0
0
0
0
0
0
0
0
0
0
0
0
0
0
0
0
0
0
0
0
0
0
0
0
0
0
0
0
0
0
0
0
0
0
0
0
0
0
0
0
0
0
0
0
0
0
0
0
0
0
0
0
0
0
0
0
0
0
0
0
0
0
0
0
0
0
0
0
0
0
0
0
0
0
0
0
0
0
0
0
0
0
0
0
0
0
0
0
0
0
0
0
0
0
0
0
0
0
0
0
0
0
0
0
0
0
0
0
0
0
0
0
0
0
0
0
0
0
0
0
0
0
0
0
0
0
0
0
0
0
0
0
0
0
0
0
0
0
0
0
0
0
0
0
0
0
0
0
0
0
0
0
0
0
0
0
0
0
0
0
0
0
0
0
0
0
0
0
0
0
0
0
0
0
0
0
0
0
0
0
0
0
0
0
0
0
0
0
0
0
0
0
0
0
0
0
0
0
0
0
0
0
0
0
0
0
0
0
0
0
0
0
0
0
0
0
0
0
0
0
0
0
0
0
0
0
0
0
0
0
0
0
0
0
0
0
0
0
0
0
0
0
0
0
0
0
0
0
0
0
0
0
0
0
0
0
0
0
0
0
0
0
0
0
0
0
0
0
0
0
0
0
0
0
0
0
0
0
0
0
0
0
0
0
0
0
0
0
0
0
0
0
0
0
0
0
0
0
0
0
0
0
0
0
0
0
0
0
0
0
0
0
0
0
0
0
0
0
0
0
0
0
0
0
0
0
0
0
0
0
0
0
0
0
0
0
0
0
0
0
0
0
0
0
0
0
0
0
0
0
0
0
0
0
0
0
0
0
0
0
0
0
0
0
0
0
0
0
0
0
0
0
0
0
0
0
0
0
0
0
0
0
0
0
0
0
0
0
0
0
0
0
0
0
0
0
0
0
0
0
0
0
0
0
0
0
0
0
0
0
0
0
0
0
0
0
0
0
0
0
0
0
0
0
0
0
0
0
0
0
0
0
0
0
0
0
0
0
0
0
0
0
0
0
0
0
0
0
0
0
0
0
0
0
0
0
0
0
0
0
0
0
0
0
0
0
0
0
0
0
0
0
0
0
0
0
0
0
0
0
0
0
0
0
0
0
0
0
0
0
0
0
0
0
0
0
0
0
0
0
0
0
0
0
0
0
0
0
0
0
0
0
0
0
0
0
0
0
0
0
0
0
0
0
0
0
0
0
0
0
0
0
0
0
0
0
0
0
0
0
0
0
0
0
0
0
0
0
0
0
0
0
0
0
0
0
0
0
0
0
0
0
0
0
0
0
0
0
0
0
0
0
0
0
0
0
0
0
0
0
0
0
0
0
0
0
0
0
0
0
0
0
0
0
0
0
0
0
0
0
0
0
0
0
0
0
0
0
0
0
0
0
0
0
0
0
0
0
0
0
0
0
0
0
0
0
0
0
0
0
0
0
0
0
0
0
0
0
0
0
0
0
0
0
0
0
0
0
0
0
0
0
0
0
0
0
0
0
0
0
0
0
0
0
0
0
0
0
0
0
0
0
0
0
0
0
0
0
0
0
0
0
0
0
0
0
0
0
0
0
0
0
0
0
0
0
0
0
0
0
0
0
0
0
0
0
0
0
0
0
0
0
0
0
0
0
0
0
0
0
0
0
0
0
0
0
0
0
0
0
0
0
0
0
0
0
0
0
0
0
0
0
0
0
0
0
0
0
0
0
0
0
0
0
0
0
0
0
0
0
0
0
0
0
0
0
0
0
0
0
0
0
0
0
0
0
0
0
0
0
0
0
0
0
0
0
0
0
0
0
0
0
0
0
0
0
0
0
0
0
0
0
0
0
0
0
0
0
0
0
0
0
0
0
0
0
0
0
0
0
0
0
0
0
0
0
0
0
0
0
0
0
0
0
0
0
0
0
0
0
0
0
0
0
0
0
0
0
0
0
0
0
0
0
0
0
0
0
0
0
0
0
0
0
0
0
0
0
0
0
0
0
0
0
0
0
0
0
0
0
0
0
0
0
0
0
0
0
0
0
0
0
0
0
0
0
0
0
0
0
0
0
0
0
0
0
0
0
0
0
0
0
0
0
0
0
0
0
0
0
0
0
0
0
0
0
0
0
0
0
0
0
0
0
0
0
0
0
0
0
0
0
0
0
0
0
0
0
0
0
0
0
0
0
0
0
0
0
0
0
0
0
0
0
0
0
0
0
0
0
0
0
0
0
0
0
0
0
0
0
0
0
0
0
0
0
0
0
0
0
0
0
0
0
0
0
0
0
0
0
0
0
0
0
0
0
0
0
0
0
0
0
0
0
0
0
0
0
0
0
0
0
0
0
0
0
0
0
0
0
0
0
0
0
0
0
0
0
0
0
0
0
0
0
0
0
0
0
0
0
0
0
0
0
0
0
0
0
0
0
0
0
0
0
0
0
0
0
0
0
0
0
0
0
0
0
0
0
0
0
0
0
0
0
0
0
0
0
0
0
0
0
0
0
0
0
0
0
0
0
0
0
0
0
0
0
0
0
0
0
0
0
0
0
0
0
0
0
0
0
0
0
0
0
0
0
0
0
0
0
0
0
0
0
0
0
0
0
0
0
0
0
0
0
0
0
0
0
0
0
0
0
0
0
0
0
0
0
0
0
0
0
0
0
0
0
0
0
0
0
0
0
0
0
0
0
0
0
0
0
0
0
0
0
0
0
0
0
0
0
0
0
0
0
0
0
0
0
0
0
0
0
0
0
0
0
0
0
0
0
0
0
0
0
0
0
0
0
0
0
0
0
0
0
0
0
0
0
0
0
0
0
0
0
0
0
0
0
0
0
0
0
0
0
0
0
0
0
0
0
0
0
0
0
0
0
0
0
0
0
0
0
0
0
0
0
0
0
0
0
0
0
0
0
0
0
0
0
0
0
0
0
0
0
0
0
0
0
0
0
0
0
0
0
0
0
0
0
0
0
0
0
0
0
0
0
0
0
0
0
0
0
0
0
0
0
0
0
0
0
0
0
0
0
0
0
0
0
0
0
0
0
0
0
0
0
0
0
0
0
0
0
0
0
0
0
0
0
0
0
0
0
0
0
0
0
0
0
0
0
0
0
0
0
0
0
0
0
0
0
0
0
0
0
0
0
0
0
0
0
0
0
0
0
0
0
0
0
0
0
0
0
0
0
0
0
0
0
0
0
0
0
0
0
0
0
0
0
0
0
0
0
0
0
0
0
0
0
0
0
0
0
0
0
0
0
0
0
0
0
0
0
0
0
0
0
0
0
0
0
0
0
0
0
0
0
0
0
0
0
0
0
0
0
0
0
0
0
0
0
0
0
0
0
0
0
0
0
0
0
0
0
0
0
0
0
0
0
0
0
0
0
0
0
0
0
0
0
0
0
0
0
0
0
0
0
0
0
0
0
0
0
0
0
0
0
0
0
0
0
0
0
0
0
0
0
0
0
0
0
0
0
0
0
0
0
0
0
0
0
0
0
0
0
0
0
0
0
0
0
0
0
0
0
0
0
0
0
0
0
0
0
0
0
0
0
0
0
0
0
0
0
0
0
0
0
0
0
0
0
0
0
0
0
0
0
0
0
0
0
0
0
0
0
0
0
0
0
0
0
0
0
0
0
0
0
0
0
0
0
0
0
0
0
0
0
0
0
0
0
0
0
0
0
0
0
0
0
0
0
0
0
0
0
0
0
0
0
0
0
0
0
0
0
0
0
0
0
0
0
0
0
0
0
0
0
0
0
0
0
0
0
0
0
0
0
0
0
0
0
0
0
0
0
0
0
0
0
0
0
0
0
0
0
0
0
0
0
0
0
0
0
0
0
0
0
0
0
0
0
0
0
0
0
0
0
0
0
0
0
0
0
0
0
0
0
0
0
0
0
0
0
0
0
0
0
0
0
0
0
0
0
0
0
0
0
0
0
0
0
0
0
0
0
0
0
0
0
0
0
0
0
0
0
0
0
0
0
0
0
0
0
0
0
0
0
0
0
0
0
0
0
0
0
0
0
0
0
0
0
0
0
0
0
0
0
0
0
0
0
0
0
0
0
0
0
0
0
0
0
0
0
0
0
0
0
0
0
0
0
0
0
0
0
0
0
0
0
0
0
0
0
0
0
0
0
0
0
0
0
0
0
0
0
0
0
0
0
0
0
0
0
0
0
0
0
0
0
0
0
0
0
0
0
0
0
0
0
0
0
0
0
0
0
0
0
0
0
0
0
0
0
0
0
0
0
0
0
0
0
0
0
0
0
0
0
0
0
0
0
0
0
0
0
0
0
0
0
0
0
0
0
0
0
0
0
0
0
0
0
0
0
0
0
0
0
0
0
0
0
0
0
0
0
0
0
0
0
0
0
0
0
0
0
0
0
0
0
0
0
0
0
0
0
0
0
0
0
0
0
0
0
0
0
0
0
0
0
0
0
0
0
0
0
0
0
0
0
0
0
0
0
0
0
0
0
0
0
0
0
0
0
0
0
0
0
0
0
0
0
0
0
0
0
0
0
0
0
0
0
0
0
0
0
0
0
0
0
0
0
0
0
0
0
0
0
0
0
0
0
0
0
0
0
0
0
0
0
0
0
0
0
0
0
0
0
0
0
0
0
0
0
0
0
0
0
0
0
0
0
0
0
0
0
0
0
0
0
0
0
0
0
0
0
0
0
0
0
0
0
0
0
0
0
0
0
0
0
0
0
0
0
0
0
0
0
0
0
0
0
0
0
0
0
0
0
0
0
0
0
0
0
0
0
0
0
0
0
0
0
0
0
0
0
0
0
0
0
0
0
0
0
0
0
0
0
0
0
0
0
0
0
0
0
0
0
0
0
0
0
0
0
0
0
0
0
0
0
0
0
0
0
0
0
0
0
0
0
0
0
0
0
0
0
0
0
0
0
0
0
0
0
0
0
0
0
0
0
0
0
0
0
0
0
0
0
0
0
0
0
0
0
0
0
0
0
0
0
0
0
0
0
0
0
0
0
0
0
0
0
0
0
0
0
0
0
0
0
0
0
0
0
0
0
0
0
0
0
0
0
0
0
0
0
0
0
0
0
0
0
0
0
0
0
0
0
0
0
0
0
0
0
0
0
0
0
0
0
0
0
0
0
0
0
0
0
0
0
0
0
0
0
0
0
0
0
0
0
0
0
0
0
0
0
0
0
0
0
0
0
0
0
0
0
0
0
0
0
0
0
0
0
0
0
0
0
0
0
0
0
0
0
0
0
0
