0.291988
0.357733
0.431762
0.517562
0.618845
0.738683
0.878702
1.03808
1.21415
1.40305
1.60011
1.80059
2.00043
2.19681
2.3883
2.57466
2.75642
2.93431
3.1087
3.27941
3.44572
3.60633
3.75892
3.89887
4.01828
4.11056
4.16638
4.17487
4.12833
4.02671
3.87836
3.6956
3.48747
3.25443
2.9988
2.72455
2.43158
2.11962
1.79095
1.45045
1.10518
0.763638
0.436508
0.139304
-0.115214
-0.319064
-0.468413
-0.564124
-0.611641
-0.620081
-0.600665
-0.564901
-0.523031
-0.482834
-0.449065
-0.424926
-0.412068
-0.410629
-0.419236
-0.435058
-0.454035
-0.471336
-0.481986
-0.481965
-0.469436
-0.443151
-0.402761
-0.34788
-0.280805
-0.207909
-0.137014
-0.0759365
-0.0314103
-0.00827951
-0.00898345
-0.0332623
-0.0780096
-0.137323
-0.202618
-0.264863
-0.315212
-0.346613
-0.356444
-0.345008
-0.314947
-0.270978
-0.218647
-0.163209
-0.108459
-0.0565232
-0.00862882
0.0347196
0.0734379
0.10756
0.136998
0.161328
0.179595
0.190516
0.193045
0.186564
0.171392
0.14922
0.123326
0.0984519
0.0807742
0.0843788
0.14779
0.325267
0.578986
0.826813
0.991079
1.02093
0.906326
0.682267
0.422619
0.224636
0.179681
0.25271
0.3709
0.503315
0.638324
0.766974
0.882968
0.983391
1.06853
1.14082
1.20189
1.25269
1.29301
1.31984
1.32924
1.31858
1.28799
1.24039
1.18043
1.1131
1.0433
0.974829
0.910638
0.854225
0.809669
0.785223
0.800458
0.879491
1.00172
1.12463
1.20205
1.20205
1.11852
0.971196
0.794802
0.622928
0.475411
0.3456
0.224567
0.110023
0
-0.112558
0.125585
1.05932
2.8808
5.56978
8.80902
12.0127
14.4646
15.5447
14.9693
12.9326
10.0539
7.12114
4.75703
3.18999
2.25846
1.62243
1.21213
1.0274
0.884299
0.793948
0.772186
0.800365
0.850345
0.895468
0.920095
0.923474
0.91682
0.91584
0.932738
0.967364
1.01235
1.06309
1.11575
1.16688
1.21454
1.2588
1.30184
1.34749
1.40059
1.46606
1.54804
1.64919
1.76947
1.9073
2.0605
2.22617
2.40102
2.58172
2.76529
2.94931
3.13199
3.31224
3.48953
3.66372
3.83493
4.00327
4.1687
4.3309
4.48907
4.64179
4.7866
4.91929
5.03276
5.11726
5.16212
5.15448
5.08156
4.93394
4.70926
4.41478
4.06765
3.69241
3.31628
2.95625
2.61774
2.30696
2.02796
1.78176
1.56655
1.37828
1.2111
1.05746
0.909718
0.76135
0.607976
0.448143
0.283573
0.118803
-0.0391095
-0.182414
-0.30428
-0.400032
-0.467735
-0.508009
-0.523239
-0.516531
-0.490789
-0.449144
-0.393237
-0.323917
-0.240413
-0.146248
-0.0511732
0.0332408
0.0962893
0.130767
0.134536
0.110622
0.0660987
0.0103884
-0.0464037
-0.0960804
-0.133692
-0.156243
-0.162125
-0.150326
-0.118249
-0.0638947
0.0086915
0.0857113
0.150735
0.189127
0.191614
0.156617
0.0905106
0.00564013
-0.0831902
-0.162478
-0.225681
-0.272933
-0.305722
-0.32473
-0.329798
-0.321187
-0.299395
-0.263782
-0.215313
-0.160256
-0.107126
-0.0643731
-0.0383357
-0.0315983
-0.0423318
-0.0647546
-0.0904845
-0.110367
-0.118101
-0.111166
-0.0888326
-0.0517616
-0.00226288
0.0561517
0.119695
0.184697
0.247986
0.307369
0.361795
0.411238
0.456365
0.498096
0.536893
0.572874
0.605747
0.634811
0.659306
0.678592
0.691988
0.697795
0.692264
0.670845
0.627978
0.558776
0.460999
0.336457
0.191268
0.0349554
-0.12112
-0.26085
-0.370165
-0.4384
-0.459605
-0.434138
-0.369852
-0.28158
-0.188206
-0.107928
-0.0528852
-0.0192475
0
0.01067
0.0155619
0.353271
1.29923
3.08439
5.73543
8.95996
12.1545
14.5513
15.4724
14.5998
12.1399
8.78197
5.43757
2.8748
1.43661
0.987282
1.09148
1.00911
0.924685
0.837487
0.748584
0.660948
0.578921
0.507235
0.448675
0.405411
0.378984
0.369429
0.374076
0.389076
0.411236
0.439085
0.473392
0.516971
0.573808
0.64778
0.741356
0.85355
0.980863
1.11929
1.26456
1.41241
1.5593
1.70301
1.84292
1.98013
2.11719
2.25754
2.40494
2.56266
2.73282
2.916
3.11103
3.31531
3.52528
3.73718
3.94756
4.15334
4.35022
4.53166
4.69149
4.82303
4.91838
4.97094
4.97779
4.94002
4.86093
4.74309
4.58611
4.39288
4.16838
3.91592
3.63774
3.33713
3.01959
2.69254
2.36469
2.04548
1.74386
1.46918
1.23405
1.04051
0.879219
0.736933
0.601357
0.465529
0.330077
0.20252
0.0940478
0.015172
-0.0314668
-0.0400735
-0.0114415
0.0426461
0.100775
0.143597
0.158207
0.141007
0.0988382
0.0475882
0.00767207
-0.00291486
0.0242963
0.07836
0.145609
0.217513
0.28624
0.346473
0.396211
0.436416
0.469828
0.499499
0.527742
0.555515
0.582778
0.608962
0.633267
0.654883
0.673092
0.687274
0.696844
0.701164
0.699713
0.692213
0.678773
0.660039
0.637206
0.612061
0.58674
0.563477
0.544392
0.531338
0.526144
0.529895
0.543039
0.56517
0.595597
0.631631
0.668719
0.701781
0.72626
0.739091
0.739232
0.727596
0.706482
0.678799
0.647659
0.615542
0.584372
0.556169
0.533098
0.517621
0.512451
0.520337
0.543718
0.584309
0.642681
0.717881
0.808181
0.911092
1.01831
1.11881
1.20224
1.26121
1.29312
1.30072
1.29143
1.27554
1.2639
1.26481
1.28168
1.31466
1.36553
1.43579
1.52613
1.63093
1.73125
1.80188
1.81591
1.75245
1.60672
1.39735
1.16526
0.96174
0.829603
0.759993
0.726667
0.724691
0.746536
0.783557
0.827009
0.868339
0.898124
0.907391
0.887857
0.832929
0.738957
0.600847
0.424286
0.219546
0
0.186486
1.10472
3.0626
6.12659
9.9593
13.8301
16.8219
18.1572
17.4976
15.0806
11.6276
8.05648
5.13095
3.21198
2.22228
1.81568
1.62783
1.4969
1.37365
1.2639
1.17228
1.10181
1.05366
1.02706
1.01958
1.02765
1.04681
1.07245
1.1004
1.12742
1.15208
1.17504
1.19905
1.22838
1.268
1.32244
1.39472
1.4856
1.59278
1.71199
1.83964
1.97269
2.10917
2.24844
2.391
2.53804
2.6907
2.84952
3.01403
3.18286
3.35394
3.52488
3.69341
3.85774
4.01675
4.17006
4.31795
4.46131
4.60138
4.73948
4.87701
5.01494
5.1471
5.25556
5.31452
5.30034
5.20275
5.03022
4.80583
4.55558
4.29568
4.02917
3.75551
3.47379
3.18245
2.88166
2.57371
2.26297
1.95534
1.6575
1.37617
1.11746
0.886568
0.688797
0.52691
0.402197
0.315763
0.274739
0.283845
0.335618
0.411108
0.488036
0.546898
0.5739
0.562369
0.51301
0.433493
0.337425
0.242324
0.166029
0.120048
0.10474
0.113473
0.13997
0.180166
0.227931
0.277083
0.322336
0.359889
0.387539
0.404419
0.410207
0.405549
0.391621
0.370333
0.344631
0.318618
0.297265
0.285669
0.29012
0.317582
0.369081
0.435432
0.500008
0.545702
0.559498
0.535658
0.477092
0.394728
0.304751
0.22407
0.165012
0.128628
0.108293
0.0987515
0.096996
0.100801
0.109435
0.123778
0.14581
0.178658
0.228175
0.296376
0.370188
0.43057
0.459025
0.444649
0.388777
0.305164
0.21546
0.141831
0.0997938
0.0841853
0.0858031
0.0995276
0.122329
0.151262
0.183854
0.218373
0.25369
0.289055
0.323798
0.357086
0.387845
0.41501
0.437881
0.456543
0.472248
0.487572
0.506291
0.534691
0.590639
0.717067
0.930619
1.17224
1.36376
1.43914
1.36899
1.17159
0.908943
0.670334
0.543934
0.537363
0.606765
0.713939
0.803399
0.823465
0.748371
0.589781
0.391568
0.210664
0.0932664
0.0350732
0.00495181
-0.00298996
0
0.00351467
-0.00619335
-0.0367833
-0.0911434
-0.167468
-0.260294
-0.365679
0.30284
1.86827
4.37462
7.58223
10.979
13.8861
15.6457
15.8364
14.435
11.84
8.72549
5.78594
3.49883
2.02209
1.25267
0.981572
0.935027
0.884798
0.825266
0.74784
0.64553
0.529999
0.425522
0.358429
0.347818
0.398701
0.500226
0.629494
0.759292
0.866805
0.948187
1.01178
1.06447
1.11073
1.15596
1.20589
1.26581
1.33963
1.42929
1.5345
1.65323
1.78331
1.92022
2.05928
2.19795
2.33685
2.47982
2.63298
2.80291
2.99475
3.21053
3.44656
3.69687
3.95556
4.2162
4.47049
4.7042
4.90466
5.06267
5.17147
5.22811
5.23435
5.19606
5.12066
5.01382
4.87729
4.71574
4.53313
4.33056
4.10832
3.86763
3.61125
3.34325
3.06833
2.79133
2.51669
2.24815
1.98865
1.74049
1.50557
1.28569
1.08269
0.898318
0.734116
0.591057
0.469314
0.368126
0.28587
0.220395
0.169257
0.13007
0.100935
0.0806174
0.0684984
0.0643048
0.0684198
0.0812353
0.10086
0.122943
0.142608
0.156029
0.161921
0.162251
0.161792
0.166617
0.182069
0.210072
0.248503
0.294384
0.344592
0.395455
0.443816
0.487694
0.52658
0.561273
0.593334
0.624254
0.6547
0.683383
0.706644
0.71941
0.716825
0.695913
0.656656
0.602196
0.5382
0.471713
0.409478
0.355777
0.314461
0.288178
0.27827
0.284869
0.307104
0.343345
0.391406
0.44863
0.512019
0.578031
0.640253
0.690681
0.721209
0.725466
0.700831
0.649872
0.580529
0.504818
0.436333
0.386716
0.361062
0.363208
0.393452
0.449256
0.52624
0.61907
0.720914
0.82644
0.929876
1.02468
1.10503
1.16668
1.20806
1.23094
1.2404
1.24392
1.24974
1.26483
1.29536
1.34355
1.39915
1.44618
1.46818
1.45341
1.39827
1.30786
1.19379
1.07038
0.950948
0.842941
0.748006
0.666949
0.602718
0.565729
0.590198
0.712425
0.89551
1.07374
1.1812
1.18436
1.09417
0.949588
0.788131
0.627877
0.470228
0.313361
0.156673
0
0.611768
2.09212
4.47968
7.55895
10.862
13.7336
15.4933
15.6764
14.2468
11.6454
8.6127
5.87428
3.86638
2.64477
1.99287
1.64933
1.45165
1.26183
1.08651
0.934715
0.81628
0.737344
0.702352
0.712593
0.764659
0.849686
0.954224
1.06302
1.163
1.24811
1.31998
1.38313
1.44452
1.51082
1.58601
1.6692
1.75716
1.84711
1.93657
2.02415
2.11002
2.19591
2.28473
2.38011
2.48572
2.6048
2.74024
2.8947
3.07046
3.26919
3.49172
3.73762
4.00944
4.31563
4.65402
4.98428
5.25678
5.43177
5.49
5.43962
5.31542
5.16586
5.03024
4.91815
4.80654
4.68336
4.54224
4.37739
4.18645
3.97028
3.73196
3.47554
3.20704
2.92997
2.64736
2.36262
2.07992
1.80439
1.54177
1.29796
1.07997
0.895173
0.743096
0.619655
0.518417
0.432348
0.355419
0.283522
0.214591
0.148139
0.0846792
0.0248061
-0.0297344
-0.0755514
-0.109217
-0.127012
-0.125945
-0.104932
-0.0656375
-0.0125853
0.0475947
0.107573
0.161095
0.205059
0.238241
0.261963
0.279671
0.296097
0.316149
0.343749
0.382773
0.434645
0.494202
0.552591
0.600026
0.628376
0.633168
0.614523
0.576957
0.528183
0.47724
0.431823
0.396
0.370423
0.354369
0.344052
0.334468
0.321018
0.301044
0.274792
0.245536
0.218819
0.201047
0.197005
0.210973
0.248327
0.306143
0.371358
0.428396
0.463683
0.469461
0.445846
0.40059
0.346679
0.298495
0.267413
0.256141
0.261273
0.278261
0.303479
0.333984
0.367055
0.400422
0.432394
0.461887
0.488472
0.512316
0.53417
0.55534
0.57762
0.603126
0.634048
0.672337
0.719395
0.775673
0.840731
0.913622
0.992759
1.07525
1.15721
1.23429
1.30141
1.35241
1.38208
1.38667
1.36403
1.31434
1.24075
1.14939
1.04869
0.947872
0.85515
0.774424
0.705442
0.647667
0.600067
0.560787
0.52763
0.498457
0.471321
0.444349
0.415675
0.383234
0.344653
0.297372
0.237487
0.159499
0.0637024
-0.0463932
-0.164307
0
0.872381
2.68259
5.46962
8.98309
12.6472
15.6499
17.1896
16.8019
14.5978
11.2489
7.70099
4.7676
2.8381
1.84003
1.42744
1.23075
1.06826
0.920582
0.799837
0.71511
0.670855
0.665995
0.694136
0.745032
0.806931
0.869126
0.924912
0.972777
1.01335
1.04776
1.07804
1.10696
1.13766
1.17335
1.21707
1.27145
1.33842
1.41939
1.51517
1.62578
1.75039
1.88731
2.03425
2.18866
2.34822
2.51127
2.67713
2.84608
3.01903
3.19688
3.37982
3.56672
3.75487
3.94005
4.11702
4.28007
4.42368
4.5434
4.63671
4.70264
4.74139
4.75383
4.74092
4.70324
4.64066
4.55226
4.43686
4.29358
4.12153
3.92024
3.6904
3.4343
3.15603
2.86137
2.5574
2.25192
1.9527
1.66672
1.39956
1.15504
0.935179
0.740499
0.570474
0.424134
0.301062
0.200512
0.121931
0.0648081
0.0283132
0.0109305
0.0103494
0.0238764
0.0474836
0.0749015
0.0984766
0.1107
0.105065
0.076936
0.0243499
-0.0513876
-0.14997
-0.263704
-0.372516
-0.455332
-0.495928
-0.487719
-0.435423
-0.3527
-0.256798
-0.162673
-0.0776965
-0.000849581
0.0692637
0.132857
0.190131
0.240839
0.284029
0.318026
0.340802
0.35076
0.347024
0.32989
0.301099
0.263822
0.222338
0.181421
0.145589
0.118276
0.101414
0.0955256
0.0997602
0.112279
0.130727
0.152492
0.1754
0.197769
0.218318
0.236151
0.250737
0.261872
0.269663
0.2745
0.277062
0.278318
0.279487
0.28197
0.287194
0.296412
0.310484
0.329698
0.353693
0.381528
0.411859
0.443197
0.474169
0.503716
0.5312
0.55647
0.579911
0.602474
0.625707
0.651911
0.687099
0.76078
0.979186
1.31921
1.67594
1.90019
1.87086
1.56437
1.07629
0.578473
0.238577
0.144746
0.120809
0.113322
0.113941
0.118049
0.121696
0.121722
0.11562
0.101925
0.0802428
0.051451
0.0172209
-0.018212
-0.0488169
-0.0685341
-0.0729398
-0.0607211
-0.034405
0
0.652698
1.93136
4.05323
6.98748
10.3457
13.4343
15.4785
15.9264
14.6837
12.1519
9.04543
6.09052
3.77369
2.25254
1.42591
1.07771
0.935263
0.797581
0.668518
0.551761
0.450369
0.36652
0.30123
0.254713
0.225708
0.211868
0.210658
0.220176
0.23965
0.26952
0.311051
0.365583
0.433659
0.514349
0.60602
0.704172
0.803757
0.900513
0.992072
1.07844
1.16176
1.24544
1.3333
1.42876
1.53377
1.65057
1.78173
1.92988
2.0975
2.28625
2.49625
2.7254
2.96888
3.21994
3.47068
3.71246
3.93544
4.12999
4.29085
4.41562
4.50439
4.55887
4.58123
4.57299
4.53319
4.45995
4.3502
4.20086
4.01032
3.77959
3.51269
3.21621
2.89842
2.56951
2.23765
1.90921
1.58979
1.28395
0.995164
0.725666
0.475851
0.245059
0.0322986
-0.162512
-0.335676
-0.484085
-0.603004
-0.687439
-0.719006
-0.662779
-0.531979
-0.379026
-0.259265
-0.211109
-0.244306
-0.339478
-0.457644
-0.555143
-0.598273
-0.59181
-0.555996
-0.502213
-0.436476
-0.363792
-0.289073
-0.216727
-0.150352
-0.0926673
-0.0453362
-0.00881846
0.0172503
0.0338147
0.0421716
0.0437935
0.0402318
0.0331062
0.0241806
0.0154419
0.00913255
0.0076045
0.0129391
0.0264563
0.0497471
0.081737
0.117574
0.151213
0.17726
0.192621
0.197287
0.194001
0.187065
0.180883
0.178381
0.180377
0.18705
0.197875
0.211716
0.226471
0.238922
0.245839
0.245075
0.236677
0.223629
0.211788
0.208827
0.222388
0.258009
0.315594
0.392997
0.485475
0.586417
0.688657
0.786086
0.872801
0.941944
0.989776
1.01396
1.01369
0.990004
0.94602
0.886499
0.816867
0.741914
0.664776
0.586896
0.508647
0.430668
0.354889
0.28511
0.226848
0.186426
0.170564
0.194959
0.272684
0.395403
0.533626
0.654425
0.731533
0.748838
0.700201
0.588104
0.422483
0.219553
0
0.0132395
0.683984
2.22292
4.67026
7.79304
11.0733
13.7943
15.2392
14.9617
13.0124
9.97236
6.73273
4.11863
2.56293
2.00836
2.05793
2.05989
1.92037
1.76735
1.60502
1.44397
1.29824
1.1812
1.10284
1.06806
1.07612
1.12126
1.19408
1.28345
1.3788
1.47222
1.56037
1.64377
1.72431
1.80397
1.88489
1.96931
2.05944
2.15727
2.26453
2.38247
2.51171
2.65213
2.80282
2.96225
3.12877
3.30088
3.47792
3.6605
3.85049
4.05073
4.26424
4.49341
4.73905
4.99988
5.27498
5.55924
5.83667
6.0869
6.29261
6.44201
6.52914
6.55247
6.51288
6.41246
6.25482
6.04633
5.80082
5.53151
5.24891
4.96085
4.67176
4.38355
4.09753
3.81499
3.53766
3.26797
3.00903
2.76434
2.53732
2.33064
2.14592
1.98377
1.8422
1.71699
1.60326
1.49666
1.39457
1.29687
1.20662
1.12873
1.06877
1.03115
1.01939
1.03419
1.06794
1.11032
1.1512
1.18343
1.20454
1.21696
1.22677
1.24167
1.26798
1.30788
1.36051
1.42475
1.49629
1.56855
1.6348
1.68966
1.73005
1.75569
1.76875
1.77309
1.77326
1.77336
1.77586
1.78157
1.79019
1.79923
1.80436
1.80094
1.78541
1.75671
1.71709
1.67219
1.63005
1.59946
1.59752
1.64788
1.73214
1.8129
1.84913
1.81452
1.71043
1.56658
1.42838
1.33668
1.3077
1.30985
1.32873
1.35539
1.38173
1.40225
1.4148
1.42053
1.42298
1.42677
1.43596
1.45293
1.47824
1.51099
1.54951
1.59182
1.63575
1.6792
1.7201
1.75648
1.78645
1.80819
1.81987
1.81972
1.80623
1.77823
1.73516
1.67714
1.6051
1.52108
1.42804
1.32975
1.23046
1.13489
1.04791
0.973717
0.915404
0.874539
0.85161
0.844978
0.851842
0.868751
0.89201
0.91789
0.942498
0.96143
0.969803
0.95842
0.860034
0.567952
0.111895
-0.429153
-0.65133
0
1.82004
4.76551
8.41005
12.0294
14.7959
16.0269
15.4176
13.1717
9.95047
6.62617
3.94053
2.24465
1.45511
1.22399
1.13714
0.98536
0.831913
0.679177
0.530119
0.388259
0.257523
0.142295
0.0460878
-0.0287586
-0.081415
-0.110299
-0.116735
-0.104849
-0.0788319
-0.0418232
0.00474415
0.0610825
0.128298
0.207279
0.29767
0.396535
0.500163
0.60516
0.708364
0.807389
0.901409
0.991404
1.08012
1.17174
1.27126
1.38375
1.51359
1.66381
1.83542
2.02713
2.23624
2.45862
2.68896
2.92131
3.14812
3.35943
3.54446
3.69545
3.80678
3.8752
3.89985
3.88165
3.82233
3.72335
3.58512
3.40745
3.19426
2.95134
2.68371
2.39575
2.09249
1.77999
1.46494
1.15415
0.854044
0.570404
0.308103
0.0708788
-0.137401
-0.310192
-0.446733
-0.55326
-0.638308
-0.710824
-0.778271
-0.845417
-0.914217
-0.984631
-1.05576
-1.12666
-1.19658
-1.2644
-1.32824
-1.38536
-1.43222
-1.46376
-1.46871
-1.43295
-1.36551
-1.29091
-1.23671
-1.22212
-1.24978
-1.30502
-1.36314
-1.40099
-1.40698
-1.39266
-1.37021
-1.3456
-1.32387
-1.30849
-1.30108
-1.30161
-1.30893
-1.32116
-1.33634
-1.35304
-1.37025
-1.38741
-1.40438
-1.42151
-1.43952
-1.45927
-1.4814
-1.50609
-1.53293
-1.56104
-1.5894
-1.61725
-1.64464
-1.6725
-1.70219
-1.73477
-1.77041
-1.8081
-1.84583
-1.88123
-1.91225
-1.93831
-1.95923
-1.97505
-1.98601
-1.99232
-1.99395
-1.99046
-1.98118
-1.96536
-1.94243
-1.91231
-1.87556
-1.83339
-1.78757
-1.74021
-1.69342
-1.64908
-1.60868
-1.57322
-1.54324
-1.51886
-1.49998
-1.48639
-1.47796
-1.47481
-1.47732
-1.48614
-1.50213
-1.52617
-1.55898
-1.60096
-1.65215
-1.71217
-1.7804
-1.85604
-1.93807
-2.02514
-2.11546
-2.20656
-2.29501
-2.37663
-2.44716
-2.50302
-2.54097
-2.56025
-2.56214
-2.54889
-2.52287
-2.48593
-2.43943
-2.38462
-2.32332
-2.2567
-1.40669
0
2.13627
5.04007
8.43014
11.6674
13.9265
14.5277
13.2589
10.4985
7.0576
3.82278
1.39954
-0.0508862
-0.729033
-0.962313
-0.994015
-1.02858
-1.06913
-1.11822
-1.17755
-1.24819
-1.33072
-1.42306
-1.52002
-1.61482
-1.69916
-1.7624
-1.7952
-1.79008
-1.74164
-1.6479
-1.51186
-1.34233
-1.15328
-0.961276
-0.781795
-0.620891
-0.476498
-0.348058
-0.232427
-0.124173
-0.0164324
0.0980749
0.226048
0.372791
0.541487
0.732954
0.946496
1.17999
1.4301
1.6925
1.96218
2.2335
2.49978
2.75192
2.98196
3.18318
3.35082
3.48231
3.5742
3.6245
3.63479
3.60659
3.54138
3.44095
3.3077
3.1444
2.9537
2.73769
2.50176
2.25125
1.98863
1.71689
1.44024
1.16394
0.893913
0.636065
0.395631
0.176538
-0.0190075
-0.190646
-0.339771
-0.469183
-0.582509
-0.683585
-0.775894
-0.862137
-0.944016
-1.0222
-1.09645
-1.16574
-1.22847
-1.28281
-1.32697
-1.35923
-1.37808
-1.38237
-1.37146
-1.34539
-1.30501
-1.25201
-1.18903
-1.11926
-1.04607
-0.972972
-0.903304
-0.840664
-0.788809
-0.750386
-0.727227
-0.720132
-0.728574
-0.750502
-0.782347
-0.819299
-0.855802
-0.886163
-0.906013
-0.912358
-0.902492
-0.875001
-0.829987
-0.76922
-0.694884
-0.611485
-0.526889
-0.449608
-0.387077
-0.344343
-0.323292
-0.322599
-0.338361
-0.365183
-0.397334
-0.429648
-0.458481
-0.481477
-0.496992
-0.503536
-0.499945
-0.485491
-0.460056
-0.424338
-0.38002
-0.329432
-0.275968
-0.224538
-0.180276
-0.147628
-0.129715
-0.127903
-0.141592
-0.168158
-0.202947
-0.239312
-0.268125
-0.278632
-0.260049
-0.203729
-0.105604
0.0451574
0.241769
0.449533
0.630892
0.75885
0.82567
0.843138
0.834901
0.824933
0.827507
0.839744
0.854695
0.864798
0.862954
0.844577
0.808504
0.7568
0.693857
0.62537
0.55746
0.494618
0.440379
0.399771
0.382246
0.394174
0.423489
0.451176
0.458163
0.433091
0.37669
0.300211
0.218812
0.143832
0.0773172
0.0144878
-0.0477167
-0.111235
-0.176794
-0.24378
0
0.992662
2.96414
5.89107
9.42955
12.9447
15.6622
16.9162
16.3967
14.2796
11.1594
7.81259
4.91263
2.8372
1.63545
1.1242
1.0301
0.941515
0.850484
0.75467
0.652613
0.544442
0.432805
0.325341
0.234729
0.174689
0.157557
0.190878
0.274127
0.397156
0.541889
0.687392
0.816569
0.926542
1.02365
1.112
1.19473
1.27498
1.35526
1.4371
1.52133
1.60852
1.69973
1.79706
1.90389
2.02445
2.16305
2.32306
2.50599
2.71042
2.9326
3.16741
3.40863
3.64949
3.88327
4.10242
4.29953
4.46974
4.60981
4.71823
4.79496
4.84101
4.85767
4.84578
4.80524
4.73524
4.63397
4.49956
4.33068
4.12699
3.88941
3.62022
3.32524
3.01055
2.68132
2.34358
2.00404
1.66973
1.34769
1.04453
0.76612
0.517237
0.301342
0.120976
-0.0185008
-0.104422
-0.12705
-0.109719
-0.0832939
-0.0767995
-0.109219
-0.184361
-0.291157
-0.409189
-0.516571
-0.596431
-0.651224
-0.687097
-0.704455
-0.703507
-0.685184
-0.651102
-0.60356
-0.545508
-0.480408
-0.411988
-0.343889
-0.27927
-0.22062
-0.169623
-0.127216
-0.0938236
-0.0699504
-0.0571282
-0.0570242
-0.0712304
-0.101181
-0.147199
-0.207853
-0.280886
-0.356828
-0.423001
-0.467224
-0.481071
-0.462163
-0.414713
-0.348207
-0.274761
-0.206134
-0.14936
-0.105967
-0.0771354
-0.0634256
-0.0643148
-0.0784897
-0.10405
-0.13863
-0.17948
-0.223577
-0.267775
-0.309001
-0.344433
-0.371615
-0.3885
-0.393257
-0.384723
-0.362376
-0.32657
-0.27876
-0.221594
-0.158744
-0.0944567
-0.0329238
0.0223787
0.069254
0.106758
0.13514
0.15548
0.169235
0.177957
0.182671
0.183847
0.181397
0.174761
0.163292
0.146714
0.125605
0.101781
0.079187
0.0647846
0.0671849
0.0951578
0.155757
0.26327
0.449093
0.69186
0.931359
1.10866
1.18636
1.1584
1.04736
0.891636
0.728681
0.583079
0.457894
0.347589
0.249789
0.166409
0.0991732
0.0491107
0.0160443
-0.00171981
-0.00735421
-0.00515108
1.60694e-005
0.00327911
0
-0.013686
-0.0413107
-0.0847347
-0.144235
-0.218217
-0.30316
-0.393917
-0.272614
0.560538
2.34007
5.05197
8.36241
11.6496
14.1508
15.2067
14.5211
12.3082
9.22374
6.09237
3.57447
1.95748
1.16028
0.898218
0.800308
0.694691
0.589481
0.487117
0.390359
0.302161
0.225445
0.162159
0.113643
0.080802
0.0643516
0.065094
0.09203
0.167307
0.29378
0.436771
0.547276
0.584528
0.540046
0.4475
0.370423
0.372154
0.483308
0.655818
0.847025
1.04172
1.23026
1.40681
1.57014
1.72343
1.87303
2.02669
2.19163
2.37204
2.56896
2.78125
3.00537
3.23591
3.46649
3.6907
3.90313
4.09998
4.27931
4.44042
4.5813
4.6968
4.78024
4.82521
4.82122
4.75749
4.62792
4.43467
4.18862
3.90616
3.60375
3.29415
2.98317
2.67238
2.36248
2.05452
1.75058
1.45427
1.17057
0.905313
0.664295
0.452278
0.273165
0.132146
0.0312988
-0.0371859
-0.0836243
-0.118789
-0.151993
-0.18979
-0.235529
-0.289649
-0.350393
-0.414492
-0.47813
-0.537969
-0.590747
-0.633618
-0.66446
-0.682085
-0.686258
-0.677476
-0.656597
-0.624437
-0.581642
-0.528766
-0.466235
-0.395041
-0.317132
-0.235428
-0.154645
-0.0803715
-0.0181899
0.027049
0.0516984
0.0534422
0.0311657
-0.0152339
-0.0848985
-0.175151
-0.281705
-0.399536
-0.522659
-0.643394
-0.751747
-0.814527
-0.720961
-0.407129
-0.0175753
0.304718
0.458378
0.402541
0.163079
-0.17365
-0.481622
-0.634525
-0.622946
-0.562048
-0.493046
-0.427075
-0.371504
-0.330657
-0.305435
-0.293649
-0.29095
-0.292053
-0.292008
-0.287519
-0.276875
-0.259574
-0.23606
-0.207413
-0.175008
-0.140187
-0.103954
-0.0667809
-0.0285498
0.0113605
0.0538471
0.0997682
0.14961
0.203354
0.260432
0.31915
0.377406
0.433575
0.487151
0.538992
0.591021
0.645411
0.703564
0.765713
0.829048
0.888596
0.938464
0.9733
0.989486
0.985732
0.963051
0.924268
0.873319
0.815208
0.753841
0.691901
0.631105
0.572281
0.515608
0.461043
0.408729
0.359306
0.313943
0.274021
0.240576
0.214047
0.193434
0.1755
0.155975
0.130662
0.0965633
0.0526438
0
-0.0719785
0.372017
1.62895
3.89345
7.09876
10.8239
14.3264
16.7295
17.3299
15.8984
12.8176
8.95971
5.34264
2.73243
1.39437
1.09999
1.34781
1.2722
1.18733
1.08824
0.976012
0.858031
0.746008
0.652729
0.588447
0.558524
0.562267
0.593527
0.642692
0.699379
0.755032
0.805316
0.849948
0.889695
0.926506
0.962757
1.00065
1.04178
1.08748
1.13925
1.19904
1.26944
1.3539
1.45648
1.58155
1.73301
1.91359
2.14752
2.47804
2.84834
3.18021
3.40632
3.50035
3.49003
3.44503
3.44372
3.53528
3.71264
3.91234
4.11106
4.29269
4.44408
4.55594
4.62269
4.64156
4.61146
4.53224
4.40449
4.22969
4.01082
3.7527
3.46208
3.14887
2.82257
2.49043
2.15816
1.83036
1.51048
1.20115
0.904601
0.623141
0.359448
0.116631
-0.101979
-0.293229
-0.454632
-0.584825
-0.683626
-0.74959
-0.777284
-0.765653
-0.733662
-0.702721
-0.691445
-0.710404
-0.758924
-0.825754
-0.89366
-0.945987
-0.972183
-0.978299
-0.971185
-0.953199
-0.926954
-0.89471
-0.858041
-0.817748
-0.773983
-0.726522
-0.675059
-0.619622
-0.560222
-0.49895
-0.441081
-0.392992
-0.360173
-0.345252
-0.347006
-0.360882
-0.380738
-0.40089
-0.417776
-0.430705
-0.439219
-0.443063
-0.442063
-0.436082
-0.425164
-0.409728
-0.390858
-0.36989
-0.348181
-0.327058
-0.307685
-0.291002
-0.277776
-0.2687
-0.264457
-0.265753
-0.273323
-0.287853
-0.30986
-0.339589
-0.376901
-0.421168
-0.471146
-0.524801
-0.579333
-0.629757
-0.668992
-0.689662
-0.685489
-0.653169
-0.588894
-0.49721
-0.396066
-0.306052
-0.244045
-0.218237
-0.226351
-0.25737
-0.295733
-0.326316
-0.340996
-0.340139
-0.326356
-0.302414
-0.271088
-0.23538
-0.197893
-0.160203
-0.12248
-0.0833982
-0.0400135
0.018615
0.149076
0.461845
0.879131
1.26036
1.46283
1.41204
1.13903
0.760794
0.419601
0.218938
0.14203
0.0941701
0.0529178
0.0140812
-0.0231781
-0.0583571
-0.0898915
-0.115598
-0.133259
-0.14143
-0.139462
-0.127324
-0.106234
-0.0795768
-0.0519258
-0.027652
-0.0100581
-0.000836897
0
-0.00347924
-0.0120984
-0.0238485
-0.0369426
0.595391
1.94957
4.17687
7.16132
10.4479
13.3238
15.0551
15.1839
13.7343
11.202
8.32538
5.76333
3.86352
2.62817
1.85449
1.37122
1.084
0.806358
0.542615
0.298707
0.082548
-0.0993568
-0.24391
-0.349354
-0.415533
-0.44397
-0.437636
-0.400365
-0.336055
-0.247928
-0.139107
-0.0127655
0.129042
0.285034
0.458496
0.656212
0.871981
1.07584
1.2324
1.31403
1.315
1.25911
1.19444
1.17567
1.24175
1.38532
1.56589
1.76462
1.97406
2.18925
2.4072
2.62693
2.8491
3.07515
3.3064
3.54333
3.78561
4.02877
4.26024
4.46436
4.62643
4.73562
4.78593
4.77504
4.70219
4.56664
4.36808
4.11176
3.81359
3.48908
3.15132
2.81249
2.48276
2.16872
1.87583
1.60705
1.36279
1.14113
0.938527
0.750043
0.570499
0.395421
0.221892
0.0491477
-0.121166
-0.285084
-0.437308
-0.572302
-0.685423
-0.773685
-0.836003
-0.872935
-0.886103
-0.877575
-0.850248
-0.806273
-0.745892
-0.667508
-0.57087
-0.46657
-0.372596
-0.307434
-0.284333
-0.306505
-0.365621
-0.444474
-0.522569
-0.582145
-0.618219
-0.635689
-0.63836
-0.628258
-0.607176
-0.577292
-0.540833
-0.49986
-0.456158
-0.411222
-0.366307
-0.32252
-0.280857
-0.242252
-0.207628
-0.177962
-0.154583
-0.139178
-0.133281
-0.138352
-0.155398
-0.184512
-0.224472
-0.272521
-0.324569
-0.374926
-0.416488
-0.442893
-0.449733
-0.435538
-0.402148
-0.354284
-0.298381
-0.241006
-0.187405
-0.13995
-0.099328
-0.0657152
-0.0394915
-0.0215137
-0.0131814
-0.0163857
-0.0327399
-0.0627205
-0.105084
-0.156778
-0.213333
-0.269523
-0.320253
-0.360754
-0.384017
-0.384633
-0.358518
-0.303085
-0.218287
-0.10755
0.0219854
0.160317
0.296428
0.420608
0.529751
0.623301
0.701502
0.766484
0.821499
0.870062
0.915192
0.958915
1.00202
1.04414
1.08394
1.11922
1.14728
1.1657
1.17248
1.16641
1.14729
1.1159
1.07394
1.02362
0.967429
0.90794
0.84764
0.788858
0.734118
0.686201
0.648043
0.62371
0.619811
0.642032
0.683545
0.727199
0.752932
0.744157
0.693154
0.603238
0.486741
0.359569
0.234578
0.115612
0
0.687558
2.11068
4.39791
7.43144
10.7814
13.779
15.7161
16.098
14.8387
12.3046
9.17418
6.17412
3.82135
2.29986
1.5068
1.21537
1.21405
1.21475
1.2182
1.22465
1.23373
1.24419
1.25262
1.25394
1.24299
1.21647
1.17488
1.12217
1.06999
1.03277
1.02373
1.05122
1.11687
1.21628
1.34138
1.48357
1.6344
1.78919
1.94635
2.10526
2.26572
2.42759
2.59047
2.75372
2.91643
3.07774
3.23706
3.39426
3.5497
3.70416
3.85856
4.01386
4.17096
4.33078
4.49444
4.66341
4.84174
5.04686
5.33506
5.74801
6.18311
6.53337
6.73971
6.78854
6.69397
6.48351
6.19276
5.86099
5.5188
5.17013
4.81102
4.44789
4.08624
3.73002
3.38374
3.05295
2.7432
2.45934
2.20489
1.98159
1.78908
1.62513
1.48615
1.36789
1.26615
1.17741
1.09906
1.02943
0.967429
0.912222
0.86298
0.818079
0.77515
0.732118
0.68811
0.644205
0.60388
0.572547
0.55625
0.559917
0.590623
0.651797
0.731015
0.810297
0.872106
0.904589
0.904653
0.878207
0.8379
0.799283
0.776481
0.774498
0.804652
0.85971
0.918707
0.958121
0.961665
0.927379
0.868453
0.807107
0.764365
0.750791
0.755462
0.768092
0.780951
0.787365
0.783505
0.769112
0.74706
0.722038
0.698878
0.680795
0.668601
0.661977
0.660457
0.663464
0.670805
0.682939
0.700906
0.725936
0.760504
0.806976
0.861116
0.912982
0.950566
0.963245
0.944694
0.894095
0.815569
0.716667
0.607032
0.497643
0.399253
0.322484
0.276168
0.265189
0.288885
0.341048
0.411891
0.491268
0.571684
0.650114
0.726575
0.80118
0.873815
0.943632
1.00903
1.06794
1.11845
1.15932
1.1903
1.21198
1.22543
1.23162
1.23108
1.22322
1.20602
1.17712
1.13431
1.07637
1.00392
0.920111
0.830668
0.743486
0.667613
0.61791
0.636225
0.764628
0.954691
1.13339
1.23465
1.22486
1.11275
0.940551
0.761474
0.615712
0.510912
0.425774
0.349056
0.277089
0.207404
0.13838
0.0692678
0
0.506032
1.76251
3.91387
6.83728
10.105
13.0753
15.0799
15.6431
14.6508
12.3982
9.48336
6.58475
4.22215
2.61641
1.70211
1.26008
1.20859
1.15792
1.10804
1.05841
1.00801
0.955884
0.901555
0.845975
0.793126
0.749085
0.720605
0.713409
0.73082
0.773182
0.838176
0.921766
1.01934
1.12537
1.2362
1.3498
1.46494
1.58087
1.69718
1.81372
1.9305
2.04768
2.16563
2.28493
2.40647
2.5314
2.66103
2.79664
2.93919
3.08904
3.2458
3.4083
3.57481
3.74339
3.91237
4.08069
4.24807
4.41486
4.5819
4.75005
4.91709
5.07369
5.20539
5.29683
5.33575
5.31505
5.23265
5.09004
4.89033
4.63698
4.33682
4.00219
3.64692
3.2828
2.91867
2.56218
2.22082
1.90158
1.61247
1.35588
1.12919
0.92723
0.744218
0.57566
0.419486
0.27608
0.147343
0.035313
-0.0604406
-0.140043
-0.204353
-0.254168
-0.289008
-0.307488
-0.307185
-0.285572
-0.232161
-0.139758
-0.0200056
0.106583
0.218473
0.298692
0.337602
0.332831
0.288022
0.211998
0.11851
0.0253679
-0.0504707
-0.0945403
-0.101242
-0.0771208
-0.0312194
0.031497
0.10624
0.188064
0.269224
0.341116
0.396661
0.431299
0.443658
0.435579
0.411324
0.376197
0.335032
0.291232
0.24648
0.201123
0.154967
0.107693
0.0590847
0.00917103
-0.041672
-0.092645
-0.142317
-0.188021
-0.224994
-0.247596
-0.249364
-0.224032
-0.166808
-0.0643162
0.113268
0.367324
0.638773
0.86474
1.00022
1.02354
0.937273
0.768099
0.563091
0.376535
0.246402
0.158253
0.0862968
0.019863
-0.042407
-0.0977501
-0.138451
-0.153899
-0.13394
-0.0547922
0.146757
0.496232
0.8771
1.1974
1.4052
1.45772
1.33004
1.04545
0.692024
0.4061
0.32742
0.421584
0.562074
0.708198
0.845024
0.959875
1.04409
1.09386
1.10984
1.0958
1.05675
0.997196
0.921682
0.833403
0.734113
0.624985
0.505655
0.378711
0.253734
0.142836
0.0573425
0.00475502
-0.0130847
0
0.0372903
0.088061
0.143446
0.197333
0.247552
0.293728
0.336502
0.37737
0.54091
1.44639
3.45978
6.57732
10.3119
13.8085
16.1469
16.6993
15.3763
12.6454
9.31531
6.2001
3.8304
2.33899
1.5423
1.13711
1.00678
0.881144
0.763652
0.657989
0.568399
0.49946
0.453153
0.43055
0.431744
0.455411
0.498469
0.556179
0.622831
0.692892
0.762209
0.82914
0.893948
0.957458
1.02077
1.08482
1.14987
1.21512
1.2799
1.34502
1.41377
1.49185
1.58607
1.70227
1.84336
2.00651
2.18504
2.37413
2.57027
2.77113
2.97598
3.18549
3.40104
3.62372
3.85337
4.0883
4.32415
4.55316
4.76532
4.94984
5.09714
5.2009
5.25709
5.26287
5.21611
5.11562
4.96214
4.75957
4.51569
4.24195
3.9525
3.66033
3.37364
3.09635
2.83062
2.57627
2.3314
2.09326
1.85921
1.62765
1.39861
1.17393
0.957053
0.75234
0.564471
0.398117
0.255982
0.138583
0.0447031
-0.0280654
-0.0826122
-0.121681
-0.147502
-0.161758
-0.165826
-0.161474
-0.149801
-0.132792
-0.113784
-0.0960886
-0.0822484
-0.0734005
-0.0690205
-0.0671637
-0.0651458
-0.0604519
-0.0516734
-0.0393979
-0.0251041
-0.0119117
-0.00508598
-0.0100952
-0.0310801
-0.0691923
-0.121384
-0.180138
-0.233889
-0.243255
-0.10484
0.159839
0.444921
0.637916
0.669597
0.533415
0.279557
-0.00479969
-0.222125
-0.298339
-0.287582
-0.242666
-0.182306
-0.112897
-0.038066
0.0381573
0.109812
0.170616
0.214765
0.238026
0.239003
0.219973
0.186705
0.147159
0.109452
0.0796308
0.0589653
0.0468589
0.0427599
0.0456543
0.0547114
0.069716
0.0911556
0.119949
0.156923
0.202232
0.254757
0.313089
0.373849
0.432611
0.485641
0.530958
0.56881
0.60136
0.631643
0.662189
0.693867
0.725364
0.753617
0.774991
0.786736
0.788186
0.781317
0.770548
0.761937
0.761902
0.787705
0.891697
1.14145
1.47562
1.79365
2.00059
2.02946
1.85803
1.51504
1.07907
0.675004
0.461559
0.414537
0.42578
0.459854
0.509637
0.568607
0.631786
0.695747
0.758184
0.815418
0.861158
0.88664
0.881371
0.835794
0.744173
0.606496
0.42877
0.221913
0
0.381174
1.57653
3.7072
6.64894
10.0059
13.1838
15.5353
16.5421
15.9824
14.0277
11.2064
8.22128
5.68437
3.90479
2.84415
2.25252
1.93152
1.76322
1.60598
1.46421
1.34185
1.24193
1.16616
1.11523
1.08909
1.0871
1.10811
1.15047
1.21194
1.28963
1.37998
1.4794
1.58351
1.68452
1.77354
1.84374
1.89283
1.92504
1.95164
1.98884
2.05344
2.15766
2.30494
2.48051
2.6719
2.87175
3.07388
3.27349
3.46776
3.65603
3.83953
4.02095
4.20372
4.39144
4.58724
4.79352
5.01449
5.25648
5.51945
5.78492
6.02309
6.20803
6.3227
6.35845
6.31193
6.18368
5.98077
5.72131
5.43499
5.15411
4.89306
4.6467
4.40681
4.16848
3.92761
3.68051
3.42472
3.1595
2.88619
2.60828
2.33123
2.062
1.80976
1.58295
1.3888
1.23223
1.11508
1.03581
0.989791
0.970274
0.970003
0.980776
0.99406
1.00338
1.00518
0.999036
0.987363
0.974727
0.966673
0.968367
0.983338
1.01149
1.05025
1.09689
1.14803
1.19998
1.24921
1.29252
1.3274
1.3522
1.36603
1.36872
1.36084
1.34366
1.31912
1.28977
1.25867
1.22911
1.20433
1.18739
1.18081
1.18625
1.20453
1.23667
1.28138
1.33102
1.3754
1.40497
1.41321
1.39823
1.36299
1.3141
1.2599
1.20849
1.16475
1.13031
1.10701
1.0959
1.09711
1.11
1.13325
1.16505
1.20329
1.24569
1.28997
1.33409
1.37627
1.41517
1.45
1.48038
1.50611
1.52648
1.5393
1.54257
1.53416
1.51338
1.48253
1.44763
1.41957
1.41109
1.43333
1.49224
1.58639
1.70867
1.84338
1.9726
2.0805
2.15646
2.19637
2.20198
2.17899
2.13457
2.0751
2.00587
1.92899
1.84425
1.75012
1.64329
1.51086
1.32967
1.1118
0.901802
0.751819
0.698809
0.748415
0.874719
1.03489
1.18815
1.30761
1.39794
1.4716
1.5349
1.59129
1.64379
1.57915
1.9739
3.24403
5.56371
8.6898
11.9663
14.5253
15.611
168
359
559
762
959
1159
1352
1536
1727
1921
2121
2325
2527
2734
2943
3147
3351
3555
3578
2736
2880
3023
3167
3309
3451
3596
3740
0
0
0
0
0
0
0
0
0
0
0
0
0
0
0
0
0
0
0
0
0
0
0
0
0
0
0
0
0
0
0
0
0
0
0
0
0
0
0
0
0
0
0
0
0
0
0
0
0
0
0
0
0
0
0
0
0
0
0
0
0
0
0
0
0
0
0
0
0
0
0
0
0
0
0
0
0
0
0
0
0
0
0
0
0
0
0
0
0
0
0
0
0
0
0
0
0
0
0
0
0
0
0
0
0
0
0
0
0
0
0
0
0
0
0
0
0
0
0
0
0
0
0
0
0
0
0
0
0
0
0
0
0
0
0
0
0
0
0
0
0
0
0
0
0
0
0
0
0
0
0
0
0
0
0
0
0
0
0
0
0
0
0
0
0
0
0
0
0
0
0
0
0
0
0
0
0
0
0
0
0
0
0
0
0
0
0
0
0
0
0
0
0
0
0
0
0
0
0
0
0
0
0
0
0
0
0
0
0
0
0
0
0
0
0
0
0
0
0
0
0
0
0
0
0
0
0
0
0
0
0
0
0
0
0
0
0
0
0
0
0
0
0
0
0
0
0
0
0
0
0
0
0
0
0
0
0
0
0
0
0
0
0
0
0
0
0
0
0
0
0
0
0
0
0
0
0
0
0
0
0
0
0
0
0
0
0
0
0
0
0
0
0
0
0
0
0
0
0
0
0
0
0
0
0
0
0
0
0
0
0
0
0
0
0
0
0
0
0
0
0
0
0
0
0
0
0
0
0
0
0
0
0
0
0
0
0
0
0
0
0
0
0
0
0
0
0
0
0
0
0
0
0
0
0
0
0
0
0
0
0
0
0
0
0
0
0
0
0
0
0
0
0
0
0
0
0
0
0
0
0
0
0
0
0
0
0
0
0
0
0
0
0
0
0
0
0
0
0
0
0
0
0
0
0
0
0
0
0
0
0
0
0
0
0
0
0
0
0
0
0
0
0
0
0
0
0
0
0
0
0
0
0
0
0
0
0
0
0
0
0
0
0
0
0
0
0
0
0
0
0
0
0
0
0
0
0
0
0
0
0
0
0
0
0
0
0
0
0
0
0
0
0
0
0
0
0
0
0
0
0
0
0
0
0
0
0
0
0
0
0
0
0
0
0
0
0
0
0
0
0
0
0
0
0
0
0
0
0
0
0
0
0
0
0
0
0
0
0
0
0
0
0
0
0
0
0
0
0
0
0
0
0
0
0
0
0
0
0
0
0
0
0
0
0
0
0
0
0
0
0
0
0
0
0
0
0
0
0
0
0
0
0
0
0
0
0
0
0
0
0
0
0
0
0
0
0
0
0
0
0
0
0
0
0
0
0
0
0
0
0
0
0
0
0
0
0
0
0
0
0
0
0
0
0
0
0
0
0
0
0
0
0
0
0
0
0
0
0
0
0
0
0
0
0
0
0
0
0
0
0
0
0
0
0
0
0
0
0
0
0
0
0
0
0
0
0
0
0
0
0
0
0
0
0
0
0
0
0
0
0
0
0
0
0
0
0
0
0
0
0
0
0
0
0
0
0
0
0
0
0
0
0
0
0
0
0
0
0
0
0
0
0
0
0
0
0
0
0
0
0
0
0
0
0
0
0
0
0
0
0
0
0
0
0
0
0
0
0
0
0
0
0
0
0
0
0
0
0
0
0
0
0
0
0
0
0
0
0
0
0
0
0
0
0
0
0
0
0
0
0
0
0
0
0
0
0
0
0
0
0
0
0
0
0
0
0
0
0
0
0
0
0
0
0
0
0
0
0
0
0
0
0
0
0
0
0
0
0
0
0
0
0
0
0
0
0
0
0
0
0
0
0
0
0
0
0
0
0
0
0
0
0
0
0
0
0
0
0
0
0
0
0
0
0
0
0
0
0
0
0
0
0
0
0
0
0
0
0
0
0
0
0
0
0
0
0
0
0
0
0
0
0
0
0
0
0
0
0
0
0
0
0
0
0
0
0
0
0
0
0
0
0
0
0
0
0
0
0
0
0
0
0
0
0
0
0
0
0
0
0
0
0
0
0
0
0
0
0
0
0
0
0
0
0
0
0
0
0
0
0
0
0
0
0
0
0
0
0
0
0
0
0
0
0
0
0
0
0
0
0
0
0
0
0
0
0
0
0
0
0
0
0
0
0
0
0
0
0
0
0
0
0
0
0
0
0
0
0
0
0
0
0
0
0
0
0
0
0
0
0
0
0
0
0
0
0
0
0
0
0
0
0
0
0
0
0
0
0
0
0
0
0
0
0
0
0
0
0
0
0
0
0
0
0
0
0
0
0
0
0
0
0
0
0
0
0
0
0
0
0
0
0
0
0
0
0
0
0
0
0
0
0
0
0
0
0
0
0
0
0
0
0
0
0
0
0
0
0
0
0
0
0
0
0
0
0
0
0
0
0
0
0
0
0
0
0
0
0
0
0
0
0
0
0
0
0
0
0
0
0
0
0
0
0
0
0
0
0
0
0
0
0
0
0
0
0
0
0
0
0
0
0
0
0
0
0
0
0
0
0
0
0
0
0
0
0
0
0
0
0
0
0
0
0
0
0
0
0
0
0
0
0
0
0
0
0
0
0
0
0
0
0
0
0
0
0
0
0
0
0
0
0
0
0
0
0
0
0
0
0
0
0
0
0
0
0
0
0
0
0
0
0
0
0
0
0
0
0
0
0
0
0
0
0
0
0
0
0
0
0
0
0
0
0
0
0
0
0
0
0
0
0
0
0
0
0
0
0
0
0
0
0
0
0
0
0
0
0
0
0
0
0
0
0
0
0
0
0
0
0
0
0
0
0
0
0
0
0
0
0
0
0
0
0
0
0
0
0
0
0
0
0
0
0
0
0
0
0
0
0
0
0
0
0
0
0
0
0
0
0
0
0
0
0
0
0
0
0
0
0
0
0
0
0
0
0
0
0
0
0
0
0
0
0
0
0
0
0
0
0
0
0
0
0
0
0
0
0
0
0
0
0
0
0
0
0
0
0
0
0
0
0
0
0
0
0
0
0
0
0
0
0
0
0
0
0
0
0
0
0
0
0
0
0
0
0
0
0
0
0
0
0
0
0
0
0
0
0
0
0
0
0
0
0
0
0
0
0
0
0
0
0
0
0
0
0
0
0
0
0
0
0
0
0
0
0
0
0
0
0
0
0
0
0
0
0
0
0
0
0
0
0
0
0
0
0
0
0
0
0
0
0
0
0
0
0
0
0
0
0
0
0
0
0
0
0
0
0
0
0
0
0
0
0
0
0
0
0
0
0
0
0
0
0
0
0
0
0
0
0
0
0
0
0
0
0
0
0
0
0
0
0
0
0
0
0
0
0
0
0
0
0
0
0
0
0
0
0
0
0
0
0
0
0
0
0
0
0
0
0
0
0
0
0
0
0
0
0
0
0
0
0
0
0
0
0
0
0
0
0
0
0
0
0
0
0
0
0
0
0
0
0
0
0
0
0
0
0
0
0
0
0
0
0
0
0
0
0
0
0
0
0
0
0
0
0
0
0
0
0
0
0
0
0
0
0
0
0
0
0
0
0
0
0
0
0
0
0
0
0
0
0
0
0
0
0
0
0
0
0
0
0
0
0
0
0
0
0
0
0
0
0
0
0
0
0
0
0
0
0
0
0
0
0
0
0
0
0
0
0
0
0
0
0
0
0
0
0
0
0
0
0
0
0
0
0
0
0
0
0
0
0
0
0
0
0
0
0
0
0
0
0
0
0
0
0
0
0
0
0
0
0
0
0
0
0
0
0
0
0
0
0
0
0
0
0
0
0
0
0
0
0
0
0
0
0
0
0
0
0
0
0
0
0
0
0
0
0
0
0
0
0
0
0
0
0
0
0
0
0
0
0
0
0
0
0
0
0
0
0
0
0
0
0
0
0
0
0
0
0
0
0
0
0
0
0
0
0
0
0
0
0
0
0
0
0
0
0
0
0
0
0
0
0
0
0
0
0
0
0
0
0
0
0
0
0
0
0
0
0
0
0
0
0
0
0
0
0
0
0
0
0
0
0
0
0
0
0
0
0
0
0
0
0
0
0
0
0
0
0
0
0
0
0
0
0
0
0
0
0
0
0
0
0
0
0
0
0
0
0
0
0
0
0
0
0
0
0
0
0
0
0
0
0
0
0
0
0
0
0
0
0
0
0
0
0
0
0
0
0
0
0
0
0
0
0
0
0
0
0
0
0
0
0
0
0
0
0
0
0
0
0
0
0
0
0
0
0
0
0
0
0
0
0
0
0
0
0
0
0
0
0
0
0
0
0
0
0
0
0
0
0
0
0
0
0
0
0
0
0
0
0
0
0
0
0
0
0
0
0
0
0
0
0
0
0
0
0
0
0
0
0
0
0
0
0
0
0
0
0
0
0
0
0
0
0
0
0
0
0
0
0
0
0
0
0
0
0
0
0
0
0
0
0
0
0
0
0
0
0
0
0
0
0
0
0
0
0
0
0
0
0
0
0
0
0
0
0
0
0
0
0
0
0
0
0
0
0
0
0
0
0
0
0
0
0
0
0
0
0
0
0
0
0
0
0
0
0
0
0
0
0
0
0
0
0
0
0
0
0
0
0
0
0
0
0
0
0
0
0
0
0
0
0
0
0
0
0
0
0
0
0
0
0
0
0
0
0
0
0
0
0
0
0
0
0
0
0
0
0
0
0
0
0
0
0
0
0
0
0
0
0
0
0
0
0
0
0
0
0
0
0
0
0
0
0
0
0
0
0
0
0
0
0
0
0
0
0
0
0
0
0
0
0
0
0
0
0
0
0
0
0
0
0
0
0
0
0
0
0
0
0
0
0
0
0
0
0
0
0
0
0
0
0
0
0
0
0
0
0
0
0
0
0
0
0
0
0
0
0
0
0
0
0
0
0
0
0
0
0
0
0
0
0
0
0
0
0
0
0
0
0
0
0
0
0
0
0
0
0
0
0
0
0
0
0
0
0
0
0
0
0
0
0
0
0
0
0
0
0
0
0
0
0
0
0
0
0
0
0
0
0
0
0
0
0
0
0
0
0
0
0
0
0
0
0
0
0
0
0
0
0
0
0
0
0
0
0
0
0
0
0
0
0
0
0
0
0
0
0
0
0
0
0
0
0
0
0
0
0
0
0
0
0
0
0
0
0
0
0
0
0
0
0
0
0
0
0
0
0
0
0
0
0
0
0
0
0
0
0
0
0
0
0
0
0
0
0
0
0
0
0
0
0
0
0
0
0
0
0
0
0
0
0
0
0
0
0
0
0
0
0
0
0
0
0
0
0
0
0
0
0
0
0
0
0
0
0
0
0
0
0
0
0
0
0
0
0
0
0
0
0
0
0
0
0
0
0
0
0
0
0
0
0
0
0
0
0
0
0
0
0
0
0
0
0
0
0
0
0
0
0
0
0
0
0
0
0
0
0
0
0
0
0
0
0
0
0
0
0
0
0
0
0
0
0
0
0
0
0
0
0
0
0
0
0
0
0
0
0
0
0
0
0
0
0
0
0
0
0
0
0
0
0
0
0
0
0
0
0
0
0
0
0
0
0
0
0
0
0
0
0
0
0
0
0
0
0
0
0
0
0
0
0
0
0
0
0
0
0
0
0
0
0
0
0
0
0
0
0
0
0
0
0
0
0
0
0
0
0
0
0
0
0
0
0
0
0
0
0
0
0
0
0
0
0
0
0
0
0
0
0
0
0
0
0
0
0
0
0
0
0
0
0
0
0
0
0
0
0
0
0
0
0
0
0
0
0
0
0
0
0
0
0
0
0
0
0
0
0
0
0
0
0
0
0
0
0
0
0
0
0
0
0
0
0
0
0
0
0
0
0
0
0
0
0
0
0
0
0
0
0
0
0
0
0
0
0
0
0
0
0
0
0
0
0
0
0
0
0
0
0
0
0
0
0
0
0
0
0
0
0
0
0
0
0
0
0
0
0
0
0
0
0
0
0
0
0
0
0
0
0
0
0
0
0
0
0
0
0
0
0
0
0
0
0
0
0
0
0
0
0
0
0
0
0
0
0
0
0
0
0
0
0
0
0
0
0
0
0
0
0
0
0
0
0
0
0
0
0
0
0
0
0
0
0
0
0
0
0
0
0
0
0
0
0
0
0
0
0
0
0
0
0
0
0
0
0
0
0
0
0
0
0
0
0
0
0
0
0
0
0
0
0
0
0
0
0
0
0
0
0
0
0
0
0
0
0
0
0
0
0
0
0
0
0
0
0
0
0
0
0
0
0
0
0
0
0
0
0
0
0
0
0
0
0
0
0
0
0
0
0
0
0
0
0
0
0
0
0
0
0
0
0
0
0
0
0
0
0
0
0
0
0
0
0
0
0
0
0
0
0
0
0
0
0
0
0
0
0
0
0
0
0
0
0
0
0
0
0
0
0
0
0
0
0
0
0
0
0
0
0
0
0
0
0
0
0
0
0
0
0
0
0
0
0
0
0
0
0
0
0
0
0
0
0
0
0
0
0
0
0
0
0
0
0
0
0
0
0
0
0
0
0
0
0
0
0
0
0
0
0
0
0
0
0
0
0
0
0
0
0
0
0
0
0
0
0
0
0
0
0
0
0
0
0
0
0
0
0
0
0
0
0
0
0
0
0
0
0
0
0
0
0
0
0
0
0
0
0
0
0
0
0
0
0
0
0
0
0
0
0
0
0
0
0
0
0
0
0
0
0
0
0
0
0
0
0
0
0
0
0
0
0
0
0
0
0
0
0
0
0
0
0
0
0
0
0
0
0
0
0
0
0
0
0
0
0
0
0
0
0
0
0
0
0
0
0
0
0
0
0
0
0
0
0
0
0
0
0
0
0
0
0
0
0
0
0
0
0
0
0
0
0
0
0
0
0
0
0
0
0
0
0
0
0
0
0
0
0
0
0
0
0
0
0
0
0
0
0
0
0
0
0
0
0
0
0
0
0
0
0
0
0
0
0
0
0
0
0
0
0
0
0
0
0
0
0
0
0
0
0
0
0
0
0
0
0
0
0
0
0
0
0
0
0
0
0
0
0
0
0
0
0
0
0
0
0
0
0
0
0
0
0
0
0
0
0
0
0
0
0
0
0
0
0
0
0
0
0
0
0
0
0
0
0
0
0
0
0
0
0
0
0
0
0
0
0
0
0
0
0
0
0
0
0
0
0
0
0
0
0
0
0
0
0
0
0
0
0
0
0
0
0
0
0
0
0
0
0
0
0
0
0
0
0
0
0
0
0
0
0
0
0
0
0
0
0
0
0
0
0
0
0
0
0
0
0
0
0
0
0
0
0
0
0
0
0
0
0
0
0
0
0
0
0
0
0
0
0
0
0
0
0
0
0
0
0
0
0
0
0
0
0
0
0
0
0
0
0
0
0
0
0
0
0
0
0
0
0
0
0
0
0
0
0
0
0
0
0
0
0
0
0
0
0
0
0
0
0
0
0
0
0
0
0
0
0
0
0
0
0
0
0
0
0
0
0
0
0
0
0
0
0
0
0
0
0
0
0
0
0
0
0
0
0
0
0
0
0
0
0
0
0
0
0
0
0
0
0
0
0
0
0
0
0
0
0
0
0
0
0
0
0
0
0
0
0
0
0
0
0
0
0
0
0
0
0
0
0
0
0
0
0
0
0
0
0
0
0
0
0
0
0
0
0
0
0
0
0
0
0
0
0
0
0
0
0
0
0
0
0
0
0
0
0
0
0
0
0
0
0
0
0
0
0
0
0
0
0
0
0
0
0
0
0
0
0
0
0
0
0
0
0
0
0
0
0
0
0
0
0
0
0
0
0
0
0
0
0
0
0
0
0
0
0
0
0
0
0
0
0
0
0
0
0
0
0
0
0
0
0
0
0
0
0
0
0
0
0
0
0
0
0
0
0
0
0
0
0
0
0
0
0
0
0
0
0
0
0
0
0
0
0
0
0
0
0
0
0
0
0
0
0
0
0
0
0
0
0
0
0
0
0
0
0
0
0
0
0
0
0
0
0
0
0
0
0
0
0
0
0
0
0
0
0
0
0
0
0
0
0
0
0
0
0
0
0
0
0
0
0
0
0
0
0
0
0
0
0
0
0
0
0
0
0
0
0
0
0
0
0
0
0
0
0
0
0
0
0
0
0
0
0
0
0
0
0
0
0
0
0
0
0
0
0
0
0
0
0
0
0
0
0
0
0
0
0
0
0
0
0
0
0
0
0
0
0
0
0
0
0
0
0
0
0
0
0
0
0
0
0
0
0
0
0
0
0
0
0
0
0
0
0
0
0
0
0
0
0
0
0
0
0
0
0
0
0
0
0
0
0
0
0
0
0
0
0
0
0
0
0
0
0
0
0
0
0
0
0
0
0
0
0
0
0
0
0
0
0
0
0
0
0
0
0
0
0
0
0
0
0
0
0
0
0
0
0
0
0
0
0
0
0
0
0
0
0
0
0
0
0
0
0
0
