4.95828
4.9717
4.93856
4.85505
4.71725
4.52219
4.26925
3.96124
3.60507
3.21152
2.7944
2.36968
1.9512
1.55114
1.17939
0.842888
0.545484
0.288193
0.0697449
-0.112674
-0.262441
-0.382915
-0.477686
-0.54993
-0.602457
-0.637857
-0.658637
-0.667263
-0.666118
-0.657439
-0.643323
-0.625837
-0.607192
-0.59027
-0.579233
-0.578853
-0.59401
-0.628608
-0.684323
-0.765426
-0.867338
-0.972062
-1.05861
-1.10921
-1.11465
-1.07668
-1.00679
-0.922044
-0.839702
-0.771002
-0.716912
-0.675274
-0.644437
-0.621564
-0.603091
-0.585404
-0.565418
-0.541062
-0.511465
-0.476759
-0.438275
-0.399374
-0.365204
-0.340902
-0.330101
-0.333566
-0.348471
-0.368663
-0.386002
-0.392419
-0.382082
-0.354236
-0.308846
-0.251546
-0.193117
-0.145657
-0.11933
-0.12005
-0.148058
-0.197649
-0.258158
-0.316193
-0.358694
-0.377484
-0.372408
-0.348167
-0.30985
-0.262265
-0.210691
-0.159868
-0.113196
-0.0722984
-0.0370049
-0.00573959
0.0238159
0.0539337
0.0862869
0.121332
0.157304
0.190697
0.217722
0.235886
0.2453
0.249245
0.253775
0.26638
0.294115
0.340816
0.405632
0.485093
0.575057
0.669632
0.761848
0.844946
0.91319
0.962302
0.989555
0.993603
0.974277
0.932449
0.87047
0.791365
0.69933
0.599588
0.49797
0.400259
0.311187
0.233794
0.169874
0.119716
0.0821098
0.0544876
0.0340103
0.0182335
0.00555191
-0.00469284
-0.0124382
-0.0173347
-0.0188995
-0.0173409
-0.0133842
-0.00765839
0
0.0143005
0.0347466
0.0648666
0.108012
0.16634
0.238941
0.323196
0.41729
0.523927
0.630479
0.961024
1.70928
2.91489
4.36782
5.62814
6.19078
5.72838
4.27434
2.22212
0.135563
-1.51763
-2.54602
-3.03386
-3.19582
-3.19436
-3.05852
-2.71965
-2.12149
-1.31243
-0.456639
0.242265
0.620249
0.765673
0.875231
0.973554
1.06264
1.14292
1.21552
1.28215
1.34477
1.4052
1.46467
1.52352
1.58121
1.63667
1.68889
1.73766
1.78399
1.83013
1.87927
1.93478
1.9995
2.07469
2.16031
2.25559
2.3592
2.46959
2.58548
2.7062
2.83202
2.96416
3.10476
3.25647
3.422
3.60347
3.80173
4.01589
4.24306
4.47854
4.71636
4.95008
5.17356
5.38183
5.57141
5.73987
5.88419
5.99822
6.07155
6.09542
6.05754
5.94408
5.74366
5.45177
5.07418
4.62799
4.1396
3.64014
3.1554
2.69833
2.28056
1.90866
1.58447
1.30612
1.06936
0.868935
0.699525
0.556959
0.438679
0.340699
0.258749
0.18883
0.127467
0.0719757
0.020549
-0.0279465
-0.0743881
-0.119769
-0.165331
-0.212289
-0.261426
-0.3126
-0.364475
-0.414598
-0.459816
-0.496904
-0.523721
-0.538548
-0.540656
-0.530236
-0.508255
-0.476359
-0.436648
-0.39138
-0.343499
-0.296692
-0.254955
-0.221892
-0.200111
-0.190646
-0.192577
-0.203014
-0.217472
-0.230635
-0.237347
-0.233988
-0.219366
-0.193036
-0.156303
-0.114429
-0.0742783
-0.0419998
-0.0214485
-0.0134117
-0.0159569
-0.0257118
-0.0395126
-0.0557007
-0.0742142
-0.0961052
-0.122524
-0.153706
-0.188389
-0.223745
-0.255824
-0.280335
-0.294749
-0.296852
-0.285986
-0.262872
-0.229636
-0.190916
-0.151865
-0.117093
-0.0898697
-0.0718246
-0.063221
-0.0636017
-0.0724358
-0.0890175
-0.112702
-0.142525
-0.176329
-0.210074
-0.237193
-0.250098
-0.241808
-0.207649
-0.146487
-0.0610817
0.0424637
0.155955
0.270555
0.379159
0.476325
0.557706
0.620251
0.662041
0.682085
0.680174
0.656835
0.613355
0.551818
0.475072
0.386547
0.289954
0.188923
0.0867363
-0.0139198
-0.110764
-0.20135
-0.282145
-0.348712
-0.397204
-0.424243
-0.428037
-0.409321
-0.371691
-0.321061
-0.264386
-0.208105
-0.156665
-0.112319
-0.0757065
-0.0465096
-0.024276
-0.00870819
0
0.00802765
0.00933991
0.0053299
-0.00147324
-0.00674667
0.148257
0.605254
1.3663
2.45766
3.77703
5.0329
5.8065
5.73763
4.72165
2.98186
0.963482
-0.877059
-2.24859
-3.05097
-3.40052
-3.3854
-3.10975
-2.66323
-2.12754
-1.57155
-1.04478
-0.607442
-0.305012
-0.0643974
0.151364
0.353728
0.546141
0.729951
0.905357
1.07065
1.22238
1.35695
1.47085
1.56227
1.63232
1.68533
1.72815
1.76856
1.81339
1.86691
1.92934
1.99879
2.07329
2.15106
2.2311
2.31368
2.40039
2.49393
2.59754
2.71432
2.84665
2.9962
3.16365
3.34865
3.54999
3.76586
3.99421
4.23314
4.48113
4.73727
5.00183
5.27799
5.57409
5.90511
6.27826
6.65806
6.9959
7.25982
7.41665
7.4214
7.23038
6.8354
6.29288
5.71759
5.23084
4.82566
4.44961
4.08566
3.73126
3.38764
3.05628
2.73857
2.43573
2.14871
1.87844
1.62601
1.39289
1.18093
0.992124
0.828173
0.689957
0.577219
0.488536
0.421264
0.371936
0.337026
0.313511
0.299213
0.292838
0.293726
0.30162
0.315799
0.334415
0.354296
0.371227
0.380719
0.378914
0.363467
0.334192
0.293299
0.245158
0.195619
0.151053
0.117092
0.0972294
0.0933315
0.10608
0.134443
0.175802
0.226726
0.282303
0.334272
0.373088
0.390355
0.381032
0.345462
0.290354
0.227995
0.173547
0.141088
0.138348
0.16889
0.228319
0.302535
0.37552
0.434587
0.473785
0.494256
0.501803
0.503069
0.502276
0.500171
0.495359
0.485931
0.470852
0.450708
0.42765
0.404646
0.384434
0.368131
0.355491
0.34568
0.337315
0.328757
0.318657
0.30646
0.292739
0.279253
0.268673
0.263978
0.267884
0.283293
0.310391
0.344605
0.379282
0.407712
0.425227
0.430623
0.426431
0.418016
0.411884
0.413616
0.42546
0.447332
0.47818
0.516608
0.560758
0.609025
0.660533
0.715352
0.77438
0.838933
0.91014
0.988633
1.07403
1.16328
1.25071
1.32937
1.39217
1.43312
1.44815
1.43563
1.39641
1.33352
1.25165
1.15659
1.05405
0.948967
0.844995
0.744379
0.648502
0.558331
0.474465
0.397288
0.327046
0.263877
0.207789
0.158641
0.116146
0.079916
0.0495403
0.0246895
0.00523872
-0.00865555
-0.0166233
-0.0181873
-0.0128075
0
0.0266678
0.0612515
0.103774
0.154206
0.212544
0.278755
0.353975
0.448509
0.679515
1.16896
1.86447
2.79224
3.9134
5.04839
5.87751
6.05539
5.38297
3.92535
1.99304
0.00282707
-1.68872
-2.88045
-3.54904
-3.76619
-3.65083
-3.31721
-2.84879
-2.2943
-1.68315
-1.05419
-0.486538
-0.0921694
0.1853
0.416826
0.624137
0.811365
0.978518
1.12636
1.25614
1.36919
1.46669
1.54994
1.6204
1.67962
1.72944
1.77212
1.8103
1.84694
1.88501
1.92731
1.9762
2.03359
2.10116
2.18066
2.27398
2.38304
2.50962
2.65485
2.81879
2.99992
3.195
3.39961
3.60815
3.8142
4.0128
4.20158
4.38122
4.55499
4.72752
4.90307
5.08391
5.26922
5.45508
5.63504
5.80117
5.94513
6.05898
6.13356
6.1592
6.12887
6.036
5.87518
5.64334
5.3412
4.97432
4.55347
4.0941
3.61586
3.13738
2.6737
2.2376
1.83901
1.48731
1.18515
0.929498
0.714932
0.535597
0.386893
0.266321
0.173257
0.115158
0.0996866
0.123594
0.171036
0.221292
0.254182
0.255294
0.219222
0.150163
0.060037
-0.0352545
-0.120588
-0.187542
-0.236139
-0.270516
-0.293609
-0.307605
-0.314303
-0.314626
-0.308597
-0.295749
-0.27581
-0.249051
-0.21713
-0.184012
-0.154697
-0.134175
-0.126374
-0.133465
-0.155624
-0.19119
-0.236979
-0.288384
-0.340054
-0.386558
-0.422209
-0.44173
-0.441169
-0.413704
-0.354983
-0.274988
-0.190697
-0.119762
-0.0752248
-0.0618493
-0.0753483
-0.104598
-0.13591
-0.157857
-0.167208
-0.166918
-0.161222
-0.157225
-0.162402
-0.182325
-0.21878
-0.2688
-0.324858
-0.376208
-0.411038
-0.406418
-0.320373
-0.165984
0.00295982
0.123557
0.151268
0.0795506
-0.0575261
-0.200916
-0.29257
-0.299121
-0.253697
-0.186083
-0.10605
-0.0276418
0.035358
0.0722823
0.0772514
0.0501731
-0.00312986
-0.0718308
-0.142051
-0.199568
-0.234653
-0.245634
-0.234606
-0.20261
-0.152364
-0.0876139
-0.0121197
0.0712112
0.160651
0.256065
0.358191
0.468068
0.587188
0.715363
0.847302
0.971739
1.07547
1.14697
1.17943
1.17241
1.13148
1.06628
0.987291
0.902705
0.816721
0.729925
0.641814
0.552159
0.461597
0.372117
0.287056
0.21059
0.146857
0.100196
0.0747586
0.0705587
0.0809385
0.0969592
0.109902
0.113581
0.105693
0.087839
0.0643508
0.0404896
0.0206467
0.00666428
-0.00134478
-0.00349169
0
0.0131717
0.0322009
0.0577561
0.0906573
0.131553
0.180712
0.241526
0.34704
0.643311
1.18658
2.09499
3.38059
4.84861
6.09471
6.64012
6.15532
4.64163
2.45373
0.143004
-1.78046
-3.03102
-3.578
-3.6212
-3.35801
-2.95461
-2.4961
-2.01099
-1.51715
-1.06204
-0.703179
-0.408561
-0.147232
0.0924885
0.312262
0.507229
0.674622
0.813788
0.926764
1.01824
1.09472
1.16313
1.22916
1.29603
1.36398
1.43142
1.49605
1.55574
1.60935
1.65723
1.70128
1.74456
1.7907
1.84312
1.90452
1.97685
2.06137
2.15902
2.27074
2.39779
2.54178
2.70444
2.88713
3.0902
3.31253
3.55114
3.80145
4.05778
4.31399
4.56431
4.80396
5.02958
5.2395
5.43335
5.61106
5.77114
5.90877
6.01523
6.07955
6.0853
6.01468
5.85409
5.59906
5.25678
4.84508
4.38865
3.91563
3.4463
2.9903
2.55625
2.15078
1.77856
1.44243
1.1436
0.881983
0.656501
0.465592
0.307477
0.179892
0.0805173
0.006972
-0.0432546
-0.0728777
-0.0848687
-0.0824654
-0.0691213
-0.0484198
-0.0242862
-0.000848031
0.0176963
0.0271811
0.0238412
0.0047456
-0.0317716
-0.0856529
-0.154796
-0.235005
-0.320669
-0.404155
-0.477722
-0.534909
-0.571645
-0.586852
-0.582393
-0.562384
-0.532102
-0.496816
-0.460911
-0.427203
-0.397431
-0.372641
-0.353978
-0.342809
-0.340464
-0.348206
-0.366637
-0.395125
-0.431525
-0.472359
-0.513408
-0.550482
-0.580418
-0.6014
-0.611995
-0.611401
-0.599267
-0.575656
-0.540487
-0.493477
-0.437232
-0.378711
-0.32644
-0.288493
-0.27033
-0.27326
-0.29417
-0.326612
-0.362841
-0.395997
-0.42235
-0.441059
-0.451968
-0.454472
-0.447422
-0.42884
-0.396187
-0.344745
-0.265236
-0.155797
-0.0329047
0.0801719
0.160639
0.193401
0.17536
0.115669
0.0325077
-0.0521568
-0.11815
-0.157093
-0.170554
-0.162782
-0.137411
-0.0971743
-0.0445403
0.0179971
0.0880548
0.163434
0.242066
0.321893
0.400723
0.47605
0.54514
0.605105
0.653003
0.685964
0.701336
0.696654
0.670324
0.621786
0.551901
0.463257
0.360235
0.248704
0.135322
0.0265353
-0.0726625
-0.159002
-0.231476
-0.291728
-0.343269
-0.389979
-0.434821
-0.478921
-0.521172
-0.558609
-0.58754
-0.60494
-0.609472
-0.601979
-0.58501
-0.561892
-0.535739
-0.508847
-0.482648
-0.458074
-0.435992
-0.417125
-0.402237
-0.391596
-0.384596
-0.381637
-0.356768
0
0.716115
1.80396
3.17605
4.57636
5.59713
5.82801
5.06352
3.43362
1.35221
-0.687477
-2.32734
-3.43371
-4.03183
-4.18556
-3.92506
-3.2991
-2.45138
-1.62592
-1.06283
-0.860725
-0.738499
-0.593398
-0.442432
-0.289049
-0.135678
0.0148998
0.15987
0.296714
0.423404
0.538386
0.640975
0.731222
0.809835
0.878077
0.9376
0.990226
1.03771
1.08152
1.12293
1.16315
1.20358
1.24613
1.29342
1.3488
1.41596
1.49856
1.59961
1.72052
1.86147
2.02165
2.19921
2.39151
2.59547
2.80796
3.0261
3.24749
3.47036
3.69361
3.91666
4.13923
4.36092
4.5806
4.79533
5.00015
5.18867
5.35229
5.47861
5.55582
5.5744
5.52254
5.3878
5.1618
4.84539
4.45101
4.00068
3.52091
3.03847
2.56621
2.11065
1.6792
1.27793
0.911316
0.581972
0.290754
0.0370501
-0.180709
-0.364472
-0.516087
-0.637088
-0.728782
-0.792343
-0.828561
-0.837295
-0.819738
-0.784729
-0.747076
-0.72125
-0.718222
-0.743025
-0.793984
-0.86399
-0.94332
-1.02281
-1.09653
-1.16288
-1.22147
-1.26951
-1.30373
-1.32098
-1.31833
-1.29423
-1.24972
-1.18867
-1.11724
-1.04235
-0.969902
-0.902835
-0.841949
-0.786346
-0.734225
-0.683967
-0.635
-0.588275
-0.546027
-0.511127
-0.486166
-0.472646
-0.470541
-0.478299
-0.493233
-0.512106
-0.531689
-0.549432
-0.563585
-0.572992
-0.577125
-0.576041
-0.570246
-0.560578
-0.548062
-0.533653
-0.518065
-0.501708
-0.484777
-0.467477
-0.450323
-0.434533
-0.422216
-0.415874
-0.417697
-0.428619
-0.447543
-0.471088
-0.494051
-0.51053
-0.515406
-0.503471
-0.473308
-0.430644
-0.385763
-0.349809
-0.331576
-0.335065
-0.358389
-0.394222
-0.431606
-0.45865
-0.466118
-0.450471
-0.413505
-0.359319
-0.291731
-0.213962
-0.129034
-0.0395312
0.0524423
0.144879
0.235274
0.319859
0.393066
0.448614
0.48031
0.483394
0.455983
0.400007
0.321305
0.228726
0.132414
0.0417463
-0.0377542
-0.105324
-0.162118
-0.209604
-0.250132
-0.28668
-0.322209
-0.359168
-0.399162
-0.442848
-0.490051
-0.54005
-0.591919
-0.644747
-0.697737
-0.750097
-0.800688
-0.847564
-0.887959
-0.918356
-0.934883
-0.933947
-0.912858
-0.870286
-0.80644
-0.722975
-0.622718
-0.509826
-0.386515
-0.243674
0
0.481
1.33793
2.57913
3.98304
5.13218
5.58573
5.09562
3.73401
1.8465
-0.131237
-1.86399
-3.1957
-4.09698
-4.56541
-4.58274
-4.15732
-3.39127
-2.48784
-1.67464
-1.1
-0.785734
-0.620866
-0.470358
-0.325812
-0.186958
-0.0555416
0.0659389
0.175017
0.27012
0.350624
0.417153
0.471685
0.517371
0.558102
0.597882
0.640179
0.687406
0.740531
0.799477
0.863677
0.932484
1.00558
1.08331
1.16672
1.25742
1.35721
1.46769
1.58991
1.72425
1.87037
2.02748
2.19458
2.37064
2.55475
2.74606
2.9437
3.14672
3.35412
3.56503
3.77892
3.99581
4.21665
4.44461
4.68856
4.9669
5.28858
5.61333
5.88423
6.05053
6.07541
5.94081
5.65152
5.23505
4.73488
4.20146
3.68373
3.19587
2.73336
2.29436
1.88339
1.50429
1.15949
0.849891
0.574878
0.332566
0.120103
-0.0658844
-0.228831
-0.371782
-0.49648
-0.603654
-0.69401
-0.767715
-0.82484
-0.865768
-0.891428
-0.903299
-0.903251
-0.893321
-0.875634
-0.852295
-0.825068
-0.795752
-0.766192
-0.738285
-0.713938
-0.695
-0.683408
-0.680597
-0.687496
-0.704301
-0.730257
-0.763553
-0.801377
-0.84019
-0.876172
-0.905758
-0.926247
-0.935679
-0.933048
-0.918202
-0.891629
-0.854251
-0.807294
-0.752307
-0.691243
-0.626257
-0.560288
-0.497235
-0.441037
-0.394901
-0.360592
-0.338045
-0.325489
-0.320091
-0.318897
-0.319731
-0.321634
-0.324799
-0.329992
-0.337846
-0.348277
-0.360234
-0.371876
-0.38112
-0.386342
-0.387202
-0.384381
-0.379745
-0.375966
-0.375844
-0.381621
-0.394405
-0.413855
-0.43818
-0.464461
-0.489199
-0.508984
-0.521211
-0.524303
-0.517551
-0.50113
-0.475823
-0.442714
-0.403001
-0.357955
-0.308734
-0.256608
-0.203176
-0.150327
-0.100149
-0.0547535
-0.0157623
0.0162359
0.0419348
0.0634577
0.0842339
0.108553
0.14083
0.184695
0.24209
0.314067
0.398883
0.488869
0.572646
0.639002
0.679577
0.690643
0.673488
0.633326
0.577205
0.511696
0.441441
0.368636
0.293769
0.216719
0.137354
0.0559654
-0.0266163
-0.109164
-0.190306
-0.26877
-0.343469
-0.41344
-0.477649
-0.534786
-0.58319
-0.620986
-0.64645
-0.658075
-0.654391
-0.635034
-0.604616
-0.571971
-0.54574
-0.531442
-0.529323
-0.53391
-0.535637
-0.524018
-0.49117
-0.436721
-0.344723
0
0.504033
1.23252
2.28657
3.58469
4.80888
5.51084
5.33091
4.1981
2.38127
0.358206
-1.41665
-2.69795
-3.48097
-3.9065
-4.07997
-4.0155
-3.67142
-3.04962
-2.25507
-1.46594
-0.846356
-0.490242
-0.300109
-0.150597
-0.0184374
0.0964388
0.193925
0.275748
0.345246
0.406736
0.464627
0.522511
0.58256
0.64523
0.70993
0.775736
0.841831
0.907862
0.973981
1.0406
1.108
1.17609
1.24412
1.31115
1.37693
1.44276
1.51192
1.58963
1.68212
1.79537
1.93384
2.0983
2.28626
2.49461
2.72023
2.95984
3.21027
3.46873
3.73277
4.00013
4.2686
4.53572
4.79839
5.05206
5.28953
5.50021
5.67299
5.79507
5.85016
5.82148
5.69623
5.46954
5.14638
4.74126
4.27622
3.78334
3.28739
2.80008
2.32969
1.88403
1.46937
1.09039
0.75015
0.450256
0.191008
-0.0284332
-0.209903
-0.356105
-0.470771
-0.558366
-0.623854
-0.672387
-0.708917
-0.737822
-0.762568
-0.78548
-0.807657
-0.82907
-0.848829
-0.865607
-0.878017
-0.885092
-0.886859
-0.884411
-0.879562
-0.874356
-0.870493
-0.868872
-0.869394
-0.871094
-0.872557
-0.872499
-0.870221
-0.865829
-0.860582
-0.8562
-0.854113
-0.854763
-0.857267
-0.859613
-0.859314
-0.854259
-0.843538
-0.827853
-0.80852
-0.78736
-0.766107
-0.745911
-0.72707
-0.709045
-0.690694
-0.670703
-0.648033
-0.622114
-0.592963
-0.561478
-0.529982
-0.50136
-0.478206
-0.462046
-0.452851
-0.449067
-0.44813
-0.447253
-0.444151
-0.437803
-0.427884
-0.414296
-0.397162
-0.376731
-0.353484
-0.328358
-0.303004
-0.280305
-0.264026
-0.258156
-0.266002
-0.289258
-0.32733
-0.377155
-0.433533
-0.489915
-0.539457
-0.575959
-0.594772
-0.593314
-0.571283
-0.530547
-0.474782
-0.40891
-0.338427
-0.268724
-0.20427
-0.148224
-0.102638
-0.0681766
-0.0441158
-0.0284592
-0.0181625
-0.00945168
0.00179176
0.0196243
0.047633
0.0880745
0.142035
0.209823
0.290482
0.382362
0.482196
0.582956
0.675715
0.751698
0.803768
0.827472
0.82133
0.786347
0.725068
0.640655
0.537601
0.42095
0.29489
0.163341
0.0307129
-0.0979748
-0.217377
-0.322588
-0.409737
-0.476504
-0.522414
-0.54883
-0.558686
-0.555991
-0.545338
-0.531423
-0.518588
-0.510319
-0.508911
-0.515234
-0.528579
-0.54664
-0.565669
-0.580525
-0.585478
-0.575145
-0.545453
-0.494486
-0.422974
-0.334323
-0.223134
0
0.350089
1.04979
2.24325
3.79515
5.25267
6.02797
5.70552
4.27939
2.16205
-0.0349583
-1.80183
-2.92521
-3.43744
-3.65268
-3.66291
-3.51702
-3.20531
-2.73825
-2.19016
-1.68116
-1.30705
-1.05585
-0.864207
-0.700037
-0.553723
-0.423544
-0.308251
-0.205444
-0.111985
-0.0246059
0.0594028
0.141642
0.222294
0.300143
0.373013
0.438589
0.495262
0.542843
0.582956
0.618978
0.655576
0.697936
0.750897
0.818183
0.901648
1.0013
1.11602
1.24421
1.384
1.53364
1.69176
1.85751
2.03052
2.21075
2.39829
2.59316
2.79517
3.00382
3.21838
3.43796
3.66172
3.88911
4.1202
4.35583
4.59624
4.83347
5.04586
5.2033
5.27632
5.24532
5.10447
4.85858
4.51743
4.09382
3.61163
3.10885
2.60877
2.12257
1.65689
1.21905
0.815237
0.449719
0.12471
-0.159596
-0.404765
-0.61419
-0.792347
-0.944137
-1.07353
-1.18279
-1.27337
-1.34633
-1.40163
-1.43893
-1.45848
-1.46166
-1.451
-1.42989
-1.40193
-1.37056
-1.33866
-1.30847
-1.28223
-1.26199
-1.24957
-1.24633
-1.25282
-1.26849
-1.2917
-1.32002
-1.35083
-1.38192
-1.41202
-1.44078
-1.46837
-1.49506
-1.5207
-1.5444
-1.5646
-1.57939
-1.58718
-1.58725
-1.57984
-1.56705
-1.55196
-1.53752
-1.52545
-1.51551
-1.50541
-1.49139
-1.46942
-1.4366
-1.39051
-1.33268
-1.27168
-1.21778
-1.17907
-1.15825
-1.15147
-1.14983
-1.14289
-1.12275
-1.08878
-1.04277
-0.994138
-0.954655
-0.934373
-0.938269
-0.964641
-1.00572
-1.05021
-1.08678
-1.10776
-1.11317
-1.10694
-1.09281
-1.07498
-1.05771
-1.0446
-1.03775
-1.0374
-1.04192
-1.04807
-1.05157
-1.04786
-1.03296
-1.00427
-0.961257
-0.905837
-0.841187
-0.770929
-0.698866
-0.62842
-0.562189
-0.501736
-0.447638
-0.399714
-0.35727
-0.319285
-0.284625
-0.252173
-0.220932
-0.190166
-0.159549
-0.129317
-0.100355
-0.0740959
-0.0521267
-0.0357658
-0.025666
-0.0216629
-0.0229744
-0.0287315
-0.0386719
-0.0544914
-0.0795109
-0.118201
-0.174943
-0.252096
-0.348383
-0.458245
-0.572529
-0.680326
-0.771336
-0.838175
-0.877163
-0.888504
-0.875416
-0.842886
-0.796709
-0.743491
-0.687849
-0.63497
-0.589528
-0.554831
-0.53199
-0.519338
-0.512522
-0.505431
-0.491715
-0.466408
-0.428103
-0.373959
-0.25554
0
0.499127
1.42487
2.75537
4.16282
5.11324
5.13684
4.09727
2.27412
0.205623
-1.59407
-2.84981
-3.5298
-3.82998
-3.87424
-3.71977
-3.39898
-2.95297
-2.44485
-1.93878
-1.49253
-1.16245
-0.912236
-0.701429
-0.514924
-0.348853
-0.20213
-0.0729803
0.040539
0.139788
0.225495
0.298093
0.358043
0.406093
0.443832
0.474051
0.500751
0.528769
0.563095
0.608055
0.666423
0.738871
0.824481
0.921341
1.02695
1.1387
1.25446
1.37287
1.49354
1.61697
1.74441
1.87759
2.01846
2.16889
2.33031
2.50336
2.68766
2.88163
3.08271
3.28776
3.49374
3.69838
3.90047
4.09963
4.30616
4.62059
5.0974
5.59951
5.97655
6.13021
6.04261
5.7582
5.33756
4.81815
4.21028
3.57415
3.00265
2.49303
2.02579
1.59302
1.19779
0.842202
0.526863
0.251294
0.0141747
-0.186025
-0.350184
-0.480704
-0.582885
-0.662789
-0.726637
-0.78008
-0.827556
-0.871913
-0.914394
-0.954928
-0.992646
-1.02652
-1.05565
-1.07935
-1.09727
-1.10943
-1.11608
-1.11774
-1.11495
-1.108
-1.09689
-1.08134
-1.06114
-1.03636
-1.00752
-0.976756
-0.947726
-0.924446
-0.910138
-0.90615
-0.911386
-0.922486
-0.934712
-0.943231
-0.944549
-0.937681
-0.923143
-0.901822
-0.874984
-0.843798
-0.808952
-0.770568
-0.728429
-0.682449
-0.63274
-0.581182
-0.532193
-0.491268
-0.463421
-0.45157
-0.455482
-0.471728
-0.494658
-0.51804
-0.536772
-0.548997
-0.555066
-0.555663
-0.552518
-0.547574
-0.541852
-0.534784
-0.524027
-0.505871
-0.476207
-0.431816
-0.37162
-0.297595
-0.213573
-0.127956
-0.0505709
0.00961208
0.0462538
0.0565677
0.0412256
0.00347605
-0.0520394
-0.120231
-0.195313
-0.272395
-0.344898
-0.404438
-0.442065
-0.44986
-0.423134
-0.362227
-0.273072
-0.166115
-0.053878
0.0520056
0.14551
0.225698
0.291814
0.344578
0.385515
0.417009
0.441603
0.461849
0.480328
0.4997
0.52268
0.551856
0.589399
0.636635
0.693533
0.759092
0.831531
0.908126
0.984456
1.05515
1.11484
1.15877
1.18321
1.1857
1.16503
1.12109
1.05474
0.968131
0.865152
0.749668
0.625542
0.497167
0.369246
0.246364
0.133342
0.0358037
-0.0413602
-0.0952345
-0.124583
-0.130311
-0.115673
-0.0860491
-0.0482012
-0.00921545
0.0245516
0.0488781
0.0607632
0.0581242
0.0396236
0.00445833
-0.0469665
-0.114905
-0.198605
-0.293459
-0.392963
-0.488964
-0.493235
0
0.803929
1.87989
3.17829
4.57401
5.80291
6.48897
6.29187
5.10404
3.16219
0.977282
-0.892798
-2.09229
-2.58518
-2.52742
-2.41634
-2.26279
-2.07581
-1.8336
-1.51538
-1.1644
-0.821238
-0.509638
-0.234968
0.00985851
0.231788
0.432898
0.61361
0.775479
0.920851
1.05236
1.17212
1.28055
1.37699
1.46069
1.53048
1.58587
1.62819
1.66103
1.68988
1.72106
1.76037
1.81153
1.87477
1.94913
2.03354
2.12683
2.22825
2.33793
2.45692
2.58708
2.73046
2.88866
3.06213
3.24977
3.44886
3.65542
3.86493
4.07321
4.27729
4.47596
4.67
4.86191
5.05559
5.25884
5.4935
5.80491
6.19668
6.59042
6.90911
7.08922
7.09189
6.91093
6.57007
6.10811
5.56009
4.95448
4.35229
3.78346
3.24664
2.74017
2.27041
1.84373
1.46465
1.13571
0.857999
0.630009
0.448884
0.313119
0.217529
0.153343
0.11158
0.0839888
0.0637864
0.045987
0.0272911
0.00567198
-0.0200944
-0.0505103
-0.0856173
-0.125145
-0.168169
-0.213091
-0.257798
-0.299962
-0.337421
-0.368672
-0.39251
-0.408291
-0.415974
-0.416186
-0.40987
-0.398936
-0.387212
-0.379512
-0.380343
-0.392699
-0.417091
-0.451209
-0.490413
-0.528922
-0.56128
-0.584397
-0.597972
-0.60216
-0.598014
-0.587163
-0.571381
-0.552123
-0.530332
-0.506542
-0.481076
-0.454289
-0.426872
-0.400074
-0.37573
-0.356147
-0.343875
-0.341408
-0.350742
-0.373022
-0.408193
-0.45472
-0.509823
-0.568827
-0.624474
-0.668343
-0.692321
-0.690019
-0.658105
-0.597258
-0.509656
-0.401933
-0.291787
-0.197663
-0.134281
-0.109202
-0.121558
-0.163329
-0.222513
-0.286821
-0.346685
-0.398425
-0.441587
-0.475981
-0.501688
-0.519081
-0.528985
-0.533238
-0.533909
-0.532309
-0.52831
-0.520016
-0.504088
-0.476758
-0.435275
-0.37929
-0.31054
-0.235749
-0.163833
-0.103767
-0.0625534
-0.0439906
-0.048512
-0.0738696
-0.116111
-0.169728
-0.228831
-0.287864
-0.338753
-0.372978
-0.38307
-0.364606
-0.317835
-0.248043
-0.164222
-0.0763124
0.00804253
0.0866475
0.16159
0.238153
0.323355
0.43068
0.575956
0.753087
0.929193
1.06647
1.13539
1.1222
1.02996
0.875107
0.681838
0.476772
0.283422
0.112071
-0.036931
-0.165505
-0.275
-0.365759
-0.438021
-0.492721
-0.531394
-0.556084
-0.569254
-0.573904
-0.573841
-0.573592
-0.577639
-0.589637
-0.61169
-0.643791
-0.683638
-0.727082
-0.768314
-0.801406
-0.821539
-0.825924
-0.814147
-0.787874
-0.750076
-0.704043
-0.652744
-0.598015
-0.537754
-0.390065
0
0.705455
1.82518
3.30242
4.82543
5.88062
5.97801
4.92204
2.9407
0.580822
-1.56107
-3.09567
-3.93879
-4.24194
-4.21591
-4.00554
-3.65096
-3.13304
-2.45085
-1.67606
-0.955184
-0.498876
-0.325661
-0.207225
-0.103363
-0.0080153
0.0803423
0.163317
0.242427
0.319067
0.394453
0.469503
0.54467
0.61978
0.69397
0.765776
0.833511
0.895746
0.951799
1.00206
1.04804
1.09214
1.13713
1.18573
1.24013
1.30186
1.37201
1.45165
1.54201
1.64464
1.76127
1.89341
2.04184
2.20624
2.38508
2.57582
2.77579
2.98282
3.196
3.41596
3.64475
3.88521
4.14489
4.43836
4.77104
5.11494
5.42161
5.65222
5.78652
5.81793
5.74444
5.56393
5.27643
4.89024
4.42654
3.92202
3.41441
2.92257
2.45044
2.00112
1.5805
1.19335
0.843204
0.532207
0.260969
0.0285312
-0.167718
-0.332173
-0.470413
-0.588555
-0.692455
-0.786884
-0.874848
-0.956784
-1.03058
-1.09267
-1.13881
-1.16575
-1.17252
-1.16114
-1.13636
-1.10449
-1.07187
-1.04312
-1.02017
-1.00214
-0.985872
-0.967186
-0.942332
-0.908379
-0.86453
-0.816605
-0.776183
-0.755713
-0.764387
-0.804872
-0.872055
-0.954298
-1.03671
-1.10515
-1.15145
-1.1766
-1.18318
-1.17157
-1.14233
-1.09675
-1.03661
-0.962926
-0.879182
-0.793873
-0.717212
-0.658119
-0.621654
-0.607344
-0.609228
-0.617781
-0.623129
-0.618426
-0.600902
-0.575612
-0.551846
-0.538788
-0.541253
-0.557364
-0.579176
-0.595918
-0.598371
-0.583337
-0.55601
-0.521232
-0.48384
-0.448194
-0.41703
-0.39099
-0.368964
-0.349029
-0.329672
-0.310743
-0.294223
-0.283407
-0.281255
-0.288758
-0.304148
-0.323305
-0.34118
-0.353582
-0.359213
-0.359133
-0.354806
-0.348074
-0.340195
-0.331091
-0.319066
-0.301113
-0.273753
-0.234196
-0.178376
-0.105233
-0.0250014
0.0469073
0.0955133
0.111423
0.0941768
0.0525319
0.00170264
-0.0412287
-0.0619162
-0.0575739
-0.0317904
0.0125603
0.0736352
0.149449
0.237748
0.33622
0.44256
0.554412
0.669245
0.78425
0.89622
1.0013
1.09516
1.174
1.23482
1.27569
1.29588
1.29576
1.2764
1.23915
1.18516
1.11532
1.03121
0.935005
0.82912
0.717099
0.603659
0.494144
0.393652
0.307284
0.2382
0.185423
0.145464
0.113569
0.0851987
0.0572857
0.0289069
0.00126438
-0.0228891
-0.0401904
-0.048062
-0.0447643
-0.0290304
0
0.0387254
0.0914212
0.158145
0.23884
0.333252
0.440768
0.560407
0.692288
0.843176
1.08458
1.45202
2.07455
3.04949
4.27076
5.39437
5.97339
5.68838
4.52196
2.76049
0.835707
-0.879423
-2.19095
-3.07521
-3.58639
-3.76979
-3.63579
-3.19131
-2.48503
-1.62488
-0.756142
-0.014411
0.482522
0.643106
0.742932
0.829142
0.907529
0.979759
1.04741
1.11164
1.17306
1.23167
1.28704
1.33862
1.386
1.42924
1.46909
1.50707
1.54543
1.58696
1.63458
1.69095
1.75799
1.83651
1.92607
2.02498
2.1308
2.24089
2.35303
2.46597
2.5798
2.69582
2.81635
2.94405
3.0815
3.23069
3.39288
3.5686
3.75794
3.96073
4.1766
4.40494
4.64586
4.8995
5.16429
5.43607
5.70575
5.95706
6.1823
6.37615
6.50676
6.52163
6.37447
6.05213
5.5834
5.02608
4.44546
3.8957
3.38498
2.90391
2.45289
2.03817
1.66452
1.33486
1.05028
0.81008
0.612006
0.45259
0.327638
0.232438
0.161701
0.109632
0.0704256
0.0388218
0.0104071
-0.0181858
-0.0492113
-0.0838699
-0.12244
-0.164411
-0.208566
-0.253102
-0.295808
-0.334214
-0.365928
-0.388731
-0.400472
-0.400908
-0.393659
-0.384267
-0.378558
-0.380884
-0.39272
-0.41206
-0.433836
-0.451192
-0.457283
-0.448378
-0.423605
-0.381199
-0.324667
-0.263545
-0.209311
-0.17245
-0.16004
-0.17408
-0.210913
-0.261821
-0.314779
-0.357099
-0.379881
-0.378916
-0.346637
-0.29461
-0.240476
-0.200837
-0.184434
-0.188835
-0.202285
-0.209724
-0.199935
-0.171764
-0.134664
-0.0953085
-0.0612675
-0.0391403
-0.0330126
-0.0436991
-0.0687265
-0.103002
-0.140034
-0.173475
-0.198617
-0.213433
-0.219734
-0.220373
-0.218656
-0.217519
-0.218619
-0.22191
-0.22579
-0.227762
-0.225321
-0.217083
-0.202995
-0.183638
-0.160937
-0.137648
-0.116003
-0.0968487
-0.0792452
-0.0607307
-0.0382368
-0.00767803
0.0327158
0.0760201
0.110573
0.124734
0.1123
0.0759176
0.0269201
-0.0182226
-0.0431091
-0.0390612
-0.0101194
0.038747
0.104115
0.182252
0.268631
0.358411
0.446907
0.529931
0.604009
0.666405
0.715
0.747942
0.763312
0.759385
0.734958
0.68937
0.622946
0.537413
0.436137
0.324025
0.207075
0.0916483
-0.0165369
-0.113225
-0.195465
-0.261952
-0.312876
-0.3495
-0.373559
-0.386984
-0.391436
-0.387894
-0.376566
-0.357072
-0.328834
-0.29163
-0.246149
-0.193971
-0.138658
-0.0857489
-0.0414778
-0.0115528
0
-0.0112728
-0.0411125
-0.0855913
-0.158451
-0.135114
0.274365
1.21932
2.67256
4.33747
5.70106
6.23683
5.65892
4.07142
1.91638
-0.242857
-1.96461
-3.0615
-3.52681
-3.63859
-3.48553
-3.1715
-2.76783
-2.33479
-1.93033
-1.56908
-1.22552
-0.911776
-0.627531
-0.369633
-0.1373
0.0666027
0.241323
0.388398
0.511086
0.613559
0.699808
0.773718
0.838441
0.896414
0.949511
0.999171
1.04647
1.09206
1.13644
1.18009
1.2238
1.26885
1.3171
1.37072
1.43175
1.50176
1.58134
1.67041
1.76951
1.87993
2.00376
2.14395
2.30395
2.48718
2.69622
2.9321
3.19373
3.47768
3.77838
4.08866
4.40059
4.70562
4.99396
5.25345
5.47045
5.63535
5.74212
5.78394
5.7536
5.64507
5.4556
5.18754
4.84957
4.45692
4.03333
3.60166
3.17619
2.76599
2.37842
2.01802
1.68655
1.38353
1.10707
0.854882
0.624989
0.416203
0.228112
0.0607594
-0.0858543
-0.212215
-0.319524
-0.409764
-0.485428
-0.549055
-0.602812
-0.648194
-0.685986
-0.716463
-0.739644
-0.755549
-0.764972
-0.770185
-0.774171
-0.779946
-0.789881
-0.805251
-0.826144
-0.851742
-0.88078
-0.911983
-0.944212
-0.976651
-1.00858
-1.0392
-1.06754
-1.09246
-1.11273
-1.12723
-1.13469
-1.13404
-1.1245
-1.10563
-1.07748
-1.04066
-0.996455
-0.94677
-0.894109
-0.841466
-0.792909
-0.752509
-0.72371
-0.708616
-0.707387
-0.718008
-0.73657
-0.758045
-0.777353
-0.790515
-0.796077
-0.794125
-0.785258
-0.770635
-0.752174
-0.732022
-0.71162
-0.691297
-0.670245
-0.646941
-0.619723
-0.58693
-0.551713
-0.522476
-0.509504
-0.520431
-0.556048
-0.608577
-0.663467
-0.704075
-0.717291
-0.703908
-0.671885
-0.625883
-0.572097
-0.517809
-0.469692
-0.43274
-0.409644
-0.400639
-0.403774
-0.415472
-0.431256
-0.446515
-0.457437
-0.461388
-0.456947
-0.443931
-0.423249
-0.396574
-0.36596
-0.333385
-0.300414
-0.268068
-0.236883
-0.207183
-0.179367
-0.153869
-0.130819
-0.109579
-0.0880631
-0.0623672
-0.0270386
0.0238998
0.095377
0.189611
0.303632
0.434511
0.572663
0.703799
0.81389
0.89199
0.931999
0.933008
0.898307
0.833595
0.745072
0.638233
0.518634
0.390717
0.258044
0.124016
-0.00631905
-0.126386
-0.229417
-0.309549
-0.36297
-0.388607
-0.388128
-0.365334
-0.325203
-0.272999
-0.214164
-0.15321
-0.0944008
-0.0428295
-0.00356674
0.0186653
0.0203381
0
-0.0400089
-0.0970051
-0.165164
-0.237736
-0.308363
-0.372858
-0.428431
-0.470863
-0.43623
-0.0373615
0.664645
1.72524
3.10763
4.60125
5.82721
6.36689
5.95826
4.63346
2.70803
0.631471
-1.19771
-2.54536
-3.34477
-3.64617
-3.53676
-3.12236
-2.5192
-1.8486
-1.22078
-0.715695
-0.388359
-0.174919
0.0141922
0.193108
0.364104
0.52639
0.678319
0.818287
0.945008
1.05779
1.15675
1.24285
1.31779
1.38374
1.44297
1.49759
1.54928
1.59951
1.64962
1.70115
1.7561
1.81698
1.88664
1.96785
2.06269
2.17205
2.29518
2.43007
2.57413
2.72463
2.87939
3.03729
3.19853
3.36456
3.53772
3.72064
3.91569
4.12442
4.34721
4.58313
4.83003
5.08515
5.3448
5.60354
5.85315
6.08129
6.27216
6.41296
6.48848
6.48206
6.37936
6.17372
5.87063
5.48845
5.05411
4.59557
4.13494
3.68036
3.23522
2.80394
2.39116
2.00195
1.64175
1.31591
1.02906
0.784237
0.582538
0.423375
0.303747
0.217668
0.157995
0.117377
0.0891102
0.0677555
0.049456
0.0319679
0.0144432
-0.00293579
-0.0194263
-0.0342011
-0.0466938
-0.056789
-0.065136
-0.0731937
-0.0827843
-0.0955891
-0.112643
-0.133982
-0.158562
-0.184484
-0.209458
-0.231396
-0.249073
-0.262068
-0.270652
-0.275828
-0.27901
-0.281563
-0.284366
-0.287482
-0.29002
-0.290209
-0.285811
-0.274685
-0.255409
-0.227715
-0.192304
-0.151794
-0.109629
-0.069352
-0.0339722
-0.00560188
0.0145733
0.0258049
0.0281967
0.0223461
0.00945625
-0.0085041
-0.0288212
-0.0484013
-0.0644604
-0.0749367
-0.0797478
-0.080912
-0.0815834
-0.0847313
-0.0918255
-0.102017
-0.112095
-0.117189
-0.111956
-0.0932556
-0.0601017
-0.0120457
0.0512836
0.127289
0.208217
0.283799
0.34428
0.382469
0.395176
0.3836
0.352525
0.308589
0.258209
0.206004
0.153949
0.102339
0.0511253
0.000873184
-0.0460449
-0.0852783
-0.111164
-0.118425
-0.104077
-0.0687843
-0.0170631
0.0437618
0.105462
0.161075
0.207666
0.243537
0.26873
0.284242
0.290716
0.288716
0.278542
0.260761
0.237194
0.211697
0.190306
0.180557
0.190141
0.225298
0.28788
0.377864
0.491891
0.623706
0.765429
0.907291
1.03858
1.14986
1.23393
1.28634
1.30557
1.29283
1.25154
1.18677
1.10477
1.01279
0.917178
0.823024
0.7339
0.651704
0.577164
0.509716
0.447234
0.387159
0.32743
0.267307
0.207803
0.151546
0.102082
0.062809
0.0373611
0.0270798
0.0286778
0.03596
0.0421696
0.0421993
0.0342659
0.0205498
0.00663719
0
0.00942574
0.0374966
0.0840195
0.146664
0.22425
0.328325
0.58756
1.0545
1.85892
3.07065
4.55676
5.93774
6.70528
6.46964
5.19031
3.22166
1.13261
-0.584699
-1.72327
-2.35819
-2.70596
-2.88732
-2.88735
-2.61362
-2.02966
-1.23931
-0.458165
0.0953575
0.322344
0.454266
0.581026
0.706951
0.832052
0.955345
1.07509
1.18892
1.29392
1.38724
1.46767
1.53554
1.59296
1.64371
1.69269
1.74498
1.80466
1.87379
1.9519
2.03579
2.12181
2.2064
2.28712
2.36338
2.43676
2.51074
2.5901
2.68
2.78473
2.90761
3.05109
3.2164
3.40358
3.61156
3.83833
4.08115
4.33671
4.60137
4.8714
5.14323
5.41357
5.67887
5.93421
6.17193
6.38194
6.55494
6.67948
6.74333
6.73585
6.6498
6.48216
6.23414
5.91117
5.52317
5.09214
4.63939
4.17977
3.72293
3.27671
2.84847
2.4448
2.07133
1.73256
1.43175
1.1707
0.949638
0.767117
0.62021
0.504591
0.414676
0.344146
0.286906
0.237785
0.19309
0.150873
0.110856
0.0740082
0.0418835
0.0161243
-0.00223274
-0.0137733
-0.0205395
-0.0253731
-0.031144
-0.039994
-0.0528423
-0.0692894
-0.0879204
-0.106876
-0.124534
-0.140042
-0.153404
-0.16528
-0.176701
-0.18868
-0.201763
-0.215667
-0.229105
-0.239792
-0.244866
-0.241489
-0.22754
-0.202228
-0.166446
-0.122301
-0.0737877
-0.0258347
0.0170704
0.0518543
0.077467
0.0949535
0.106976
0.116939
0.127974
0.142006
0.159245
0.178712
0.198276
0.215304
0.2274
0.233049
0.232037
0.225595
0.216221
0.20726
0.202319
0.204554
0.215965
0.237146
0.267604
0.305828
0.34892
0.392921
0.433466
0.466458
0.488582
0.49769
0.493009
0.475147
0.44593
0.408127
0.365108
0.320546
0.27812
0.241145
0.213111
0.196829
0.194153
0.205693
0.230544
0.267419
0.312137
0.359926
0.406514
0.449042
0.486423
0.519045
0.547984
0.57411
0.597608
0.61801
0.634779
0.648076
0.659289
0.671077
0.686877
0.710141
0.743229
0.786475
0.839487
0.901495
0.971042
1.04619
1.12385
1.19957
1.26833
1.32518
1.36588
1.38747
1.38855
1.36939
1.33154
1.27745
1.21014
1.13281
1.04836
0.959508
0.868833
0.778766
0.691625
0.609491
0.533984
0.466009
0.405268
0.35037
0.299316
0.250101
0.201365
0.152889
0.105902
0.0631184
0.0280539
0.00425186
-0.00554543
0
0.0205929
0.0544868
0.0989916
0.151134
0.208252
0.268291
0.330103
0.393634
0.461949
0.649082
1.0547
1.79428
2.92822
4.3208
5.60046
6.27713
5.97499
4.64282
2.59859
0.376025
-1.5243
-2.82221
-3.48803
-3.65803
-3.4884
-3.09889
-2.56828
-1.9644
-1.35958
-0.82436
-0.413193
-0.125191
0.0953493
0.28049
0.431839
0.546716
0.62741
0.681068
0.718219
0.750235
0.78652
0.832452
0.887345
0.948027
1.01179
1.07633
1.1402
1.20317
1.26613
1.33067
1.39859
1.47133
1.5498
1.63432
1.72467
1.82034
1.92065
2.02502
2.13303
2.24453
2.35964
2.47881
2.60294
2.73335
2.87177
3.02023
3.18075
3.35504
3.54406
3.74774
3.96474
4.19324
4.4308
4.67099
4.90089
5.10523
5.26995
5.3834
5.43703
5.42497
5.34302
5.18793
4.9579
4.65434
4.28876
3.87811
3.44085
2.99417
2.55062
2.11885
1.70667
1.32033
0.964325
0.641467
0.353067
0.0992578
-0.120665
-0.307945
-0.464203
-0.59143
-0.691986
-0.768123
-0.822361
-0.859568
-0.887832
-0.915226
-0.948256
-0.990358
-1.04096
-1.09559
-1.14701
-1.18737
-1.21047
-1.21462
-1.2005
-1.17328
-1.14048
-1.10999
-1.08816
-1.07848
-1.08131
-1.09431
-1.11354
-1.13463
-1.15394
-1.1693
-1.17941
-1.18371
-1.182
-1.17446
-1.16132
-1.14242
-1.11718
-1.08475
-1.04445
-0.995148
-0.937162
-0.876071
-0.819989
-0.777451
-0.754911
-0.754803
-0.774935
-0.809398
-0.850524
-0.891096
161
374
601
832
1055
1275
1499
1729
1954
2187
2432
2673
2904
3142
3383
3619
0
0
0
0
0
0
0
0
0
0
0
0
0
0
0
0
0
0
0
0
0
0
0
0
0
0
0
0
0
0
0
0
0
0
0
0
0
0
0
0
0
0
0
0
0
0
0
0
0
0
0
0
0
0
0
0
0
0
0
0
0
0
0
0
0
0
0
0
0
0
0
0
0
0
0
0
0
0
0
0
0
0
0
0
0
0
0
0
0
0
0
0
0
0
0
0
0
0
0
0
0
0
0
0
0
0
0
0
0
0
0
0
0
0
0
0
0
0
0
0
0
0
0
0
0
0
0
0
0
0
0
0
0
0
0
0
0
0
0
0
0
0
0
0
0
0
0
0
0
0
0
0
0
0
0
0
0
0
0
0
0
0
0
0
0
0
0
0
0
0
0
0
0
0
0
0
0
0
0
0
0
0
0
0
0
0
0
0
0
0
0
0
0
0
0
0
0
0
0
0
0
0
0
0
0
0
0
0
0
0
0
0
0
0
0
0
0
0
0
0
0
0
0
0
0
0
0
0
0
0
0
0
0
0
0
0
0
0
0
0
0
0
0
0
0
0
0
0
0
0
0
0
0
0
0
0
0
0
0
0
0
0
0
0
0
0
0
0
0
0
0
0
0
0
0
0
0
0
0
0
0
0
0
0
0
0
0
0
0
0
0
0
0
0
0
0
0
0
0
0
0
0
0
0
0
0
0
0
0
0
0
0
0
0
0
0
0
0
0
0
0
0
0
0
0
0
0
0
0
0
0
0
0
0
0
0
0
0
0
0
0
0
0
0
0
0
0
0
0
0
0
0
0
0
0
0
0
0
0
0
0
0
0
0
0
0
0
0
0
0
0
0
0
0
0
0
0
0
0
0
0
0
0
0
0
0
0
0
0
0
0
0
0
0
0
0
0
0
0
0
0
0
0
0
0
0
0
0
0
0
0
0
0
0
0
0
0
0
0
0
0
0
0
0
0
0
0
0
0
0
0
0
0
0
0
0
0
0
0
0
0
0
0
0
0
0
0
0
0
0
0
0
0
0
0
0
0
0
0
0
0
0
0
0
0
0
0
0
0
0
0
0
0
0
0
0
0
0
0
0
0
0
0
0
0
0
0
0
0
0
0
0
0
0
0
0
0
0
0
0
0
0
0
0
0
0
0
0
0
0
0
0
0
0
0
0
0
0
0
0
0
0
0
0
0
0
0
0
0
0
0
0
0
0
0
0
0
0
0
0
0
0
0
0
0
0
0
0
0
0
0
0
0
0
0
0
0
0
0
0
0
0
0
0
0
0
0
0
0
0
0
0
0
0
0
0
0
0
0
0
0
0
0
0
0
0
0
0
0
0
0
0
0
0
0
0
0
0
0
0
0
0
0
0
0
0
0
0
0
0
0
0
0
0
0
0
0
0
0
0
0
0
0
0
0
0
0
0
0
0
0
0
0
0
0
0
0
0
0
0
0
0
0
0
0
0
0
0
0
0
0
0
0
0
0
0
0
0
0
0
0
0
0
0
0
0
0
0
0
0
0
0
0
0
0
0
0
0
0
0
0
0
0
0
0
0
0
0
0
0
0
0
0
0
0
0
0
0
0
0
0
0
0
0
0
0
0
0
0
0
0
0
0
0
0
0
0
0
0
0
0
0
0
0
0
0
0
0
0
0
0
0
0
0
0
0
0
0
0
0
0
0
0
0
0
0
0
0
0
0
0
0
0
0
0
0
0
0
0
0
0
0
0
0
0
0
0
0
0
0
0
0
0
0
0
0
0
0
0
0
0
0
0
0
0
0
0
0
0
0
0
0
0
0
0
0
0
0
0
0
0
0
0
0
0
0
0
0
0
0
0
0
0
0
0
0
0
0
0
0
0
0
0
0
0
0
0
0
0
0
0
0
0
0
0
0
0
0
0
0
0
0
0
0
0
0
0
0
0
0
0
0
0
0
0
0
0
0
0
0
0
0
0
0
0
0
0
0
0
0
0
0
0
0
0
0
0
0
0
0
0
0
0
0
0
0
0
0
0
0
0
0
0
0
0
0
0
0
0
0
0
0
0
0
0
0
0
0
0
0
0
0
0
0
0
0
0
0
0
0
0
0
0
0
0
0
0
0
0
0
0
0
0
0
0
0
0
0
0
0
0
0
0
0
0
0
0
0
0
0
0
0
0
0
0
0
0
0
0
0
0
0
0
0
0
0
0
0
0
0
0
0
0
0
0
0
0
0
0
0
0
0
0
0
0
0
0
0
0
0
0
0
0
0
0
0
0
0
0
0
0
0
0
0
0
0
0
0
0
0
0
0
0
0
0
0
0
0
0
0
0
0
0
0
0
0
0
0
0
0
0
0
0
0
0
0
0
0
0
0
0
0
0
0
0
0
0
0
0
0
0
0
0
0
0
0
0
0
0
0
0
0
0
0
0
0
0
0
0
0
0
0
0
0
0
0
0
0
0
0
0
0
0
0
0
0
0
0
0
0
0
0
0
0
0
0
0
0
0
0
0
0
0
0
0
0
0
0
0
0
0
0
0
0
0
0
0
0
0
0
0
0
0
0
0
0
0
0
0
0
0
0
0
0
0
0
0
0
0
0
0
0
0
0
0
0
0
0
0
0
0
0
0
0
0
0
0
0
0
0
0
0
0
0
0
0
0
0
0
0
0
0
0
0
0
0
0
0
0
0
0
0
0
0
0
0
0
0
0
0
0
0
0
0
0
0
0
0
0
0
0
0
0
0
0
0
0
0
0
0
0
0
0
0
0
0
0
0
0
0
0
0
0
0
0
0
0
0
0
0
0
0
0
0
0
0
0
0
0
0
0
0
0
0
0
0
0
0
0
0
0
0
0
0
0
0
0
0
0
0
0
0
0
0
0
0
0
0
0
0
0
0
0
0
0
0
0
0
0
0
0
0
0
0
0
0
0
0
0
0
0
0
0
0
0
0
0
0
0
0
0
0
0
0
0
0
0
0
0
0
0
0
0
0
0
0
0
0
0
0
0
0
0
0
0
0
0
0
0
0
0
0
0
0
0
0
0
0
0
0
0
0
0
0
0
0
0
0
0
0
0
0
0
0
0
0
0
0
0
0
0
0
0
0
0
0
0
0
0
0
0
0
0
0
0
0
0
0
0
0
0
0
0
0
0
0
0
0
0
0
0
0
0
0
0
0
0
0
0
0
0
0
0
0
0
0
0
0
0
0
0
0
0
0
0
0
0
0
0
0
0
0
0
0
0
0
0
0
0
0
0
0
0
0
0
0
0
0
0
0
0
0
0
0
0
0
0
0
0
0
0
0
0
0
0
0
0
0
0
0
0
0
0
0
0
0
0
0
0
0
0
0
0
0
0
0
0
0
0
0
0
0
0
0
0
0
0
0
0
0
0
0
0
0
0
0
0
0
0
0
0
0
0
0
0
0
0
0
0
0
0
0
0
0
0
0
0
0
0
0
0
0
0
0
0
0
0
0
0
0
0
0
0
0
0
0
0
0
0
0
0
0
0
0
0
0
0
0
0
0
0
0
0
0
0
0
0
0
0
0
0
0
0
0
0
0
0
0
0
0
0
0
0
0
0
0
0
0
0
0
0
0
0
0
0
0
0
0
0
0
0
0
0
0
0
0
0
0
0
0
0
0
0
0
0
0
0
0
0
0
0
0
0
0
0
0
0
0
0
0
0
0
0
0
0
0
0
0
0
0
0
0
0
0
0
0
0
0
0
0
0
0
0
0
0
0
0
0
0
0
0
0
0
0
0
0
0
0
0
0
0
0
0
0
0
0
0
0
0
0
0
0
0
0
0
0
0
0
0
0
0
0
0
0
0
0
0
0
0
0
0
0
0
0
0
0
0
0
0
0
0
0
0
0
0
0
0
0
0
0
0
0
0
0
0
0
0
0
0
0
0
0
0
0
0
0
0
0
0
0
0
0
0
0
0
0
0
0
0
0
0
0
0
0
0
0
0
0
0
0
0
0
0
0
0
0
0
0
0
0
0
0
0
0
0
0
0
0
0
0
0
0
0
0
0
0
0
0
0
0
0
0
0
0
0
0
0
0
0
0
0
0
0
0
0
0
0
0
0
0
0
0
0
0
0
0
0
0
0
0
0
0
0
0
0
0
0
0
0
0
0
0
0
0
0
0
0
0
0
0
0
0
0
0
0
0
0
0
0
0
0
0
0
0
0
0
0
0
0
0
0
0
0
0
0
0
0
0
0
0
0
0
0
0
0
0
0
0
0
0
0
0
0
0
0
0
0
0
0
0
0
0
0
0
0
0
0
0
0
0
0
0
0
0
0
0
0
0
0
0
0
0
0
0
0
0
0
0
0
0
0
0
0
0
0
0
0
0
0
0
0
0
0
0
0
0
0
0
0
0
0
0
0
0
0
0
0
0
0
0
0
0
0
0
0
0
0
0
0
0
0
0
0
0
0
0
0
0
0
0
0
0
0
0
0
0
0
0
0
0
0
0
0
0
0
0
0
0
0
0
0
0
0
0
0
0
0
0
0
0
0
0
0
0
0
0
0
0
0
0
0
0
0
0
0
0
0
0
0
0
0
0
0
0
0
0
0
0
0
0
0
0
0
0
0
0
0
0
0
0
0
0
0
0
0
0
0
0
0
0
0
0
0
0
0
0
0
0
0
0
0
0
0
0
0
0
0
0
0
0
0
0
0
0
0
0
0
0
0
0
0
0
0
0
0
0
0
0
0
0
0
0
0
0
0
0
0
0
0
0
0
0
0
0
0
0
0
0
0
0
0
0
0
0
0
0
0
0
0
0
0
0
0
0
0
0
0
0
0
0
0
0
0
0
0
0
0
0
0
0
0
0
0
0
0
0
0
0
0
0
0
0
0
0
0
0
0
0
0
0
0
0
0
0
0
0
0
0
0
0
0
0
0
0
0
0
0
0
0
0
0
0
0
0
0
0
0
0
0
0
0
0
0
0
0
0
0
0
0
0
0
0
0
0
0
0
0
0
0
0
0
0
0
0
0
0
0
0
0
0
0
0
0
0
0
0
0
0
0
0
0
0
0
0
0
0
0
0
0
0
0
0
0
0
0
0
0
0
0
0
0
0
0
0
0
0
0
0
0
0
0
0
0
0
0
0
0
0
0
0
0
0
0
0
0
0
0
0
0
0
0
0
0
0
0
0
0
0
0
0
0
0
0
0
0
0
0
0
0
0
0
0
0
0
0
0
0
0
0
0
0
0
0
0
0
0
0
0
0
0
0
0
0
0
0
0
0
0
0
0
0
0
0
0
0
0
0
0
0
0
0
0
0
0
0
0
0
0
0
0
0
0
0
0
0
0
0
0
0
0
0
0
0
0
0
0
0
0
0
0
0
0
0
0
0
0
0
0
0
0
0
0
0
0
0
0
0
0
0
0
0
0
0
0
0
0
0
0
0
0
0
0
0
0
0
0
0
0
0
0
0
0
0
0
0
0
0
0
0
0
0
0
0
0
0
0
0
0
0
0
0
0
0
0
0
0
0
0
0
0
0
0
0
0
0
0
0
0
0
0
0
0
0
0
0
0
0
0
0
0
0
0
0
0
0
0
0
0
0
0
0
0
0
0
0
0
0
0
0
0
0
0
0
0
0
0
0
0
0
0
0
0
0
0
0
0
0
0
0
0
0
0
0
0
0
0
0
0
0
0
0
0
0
0
0
0
0
0
0
0
0
0
0
0
0
0
0
0
0
0
0
0
0
0
0
0
0
0
0
0
0
0
0
0
0
0
0
0
0
0
0
0
0
0
0
0
0
0
0
0
0
0
0
0
0
0
0
0
0
0
0
0
0
0
0
0
0
0
0
0
0
0
0
0
0
0
0
0
0
0
0
0
0
0
0
0
0
0
0
0
0
0
0
0
0
0
0
0
0
0
0
0
0
0
0
0
0
0
0
0
0
0
0
0
0
0
0
0
0
0
0
0
0
0
0
0
0
0
0
0
0
0
0
0
0
0
0
0
0
0
0
0
0
0
0
0
0
0
0
0
0
0
0
0
0
0
0
0
0
0
0
0
0
0
0
0
0
0
0
0
0
0
0
0
0
0
0
0
0
0
0
0
0
0
0
0
0
0
0
0
0
0
0
0
0
0
0
0
0
0
0
0
0
0
0
0
0
0
0
0
0
0
0
0
0
0
0
0
0
0
0
0
0
0
0
0
0
0
0
0
0
0
0
0
0
0
0
0
0
0
0
0
0
0
0
0
0
0
0
0
0
0
0
0
0
0
0
0
0
0
0
0
0
0
0
0
0
0
0
0
0
0
0
0
0
0
0
0
0
0
0
0
0
0
0
0
0
0
0
0
0
0
0
0
0
0
0
0
0
0
0
0
0
0
0
0
0
0
0
0
0
0
0
0
0
0
0
0
0
0
0
0
0
0
0
0
0
0
0
0
0
0
0
0
0
0
0
0
0
0
0
0
0
0
0
0
0
0
0
0
0
0
0
0
0
0
0
0
0
0
0
0
0
0
0
0
0
0
0
0
0
0
0
0
0
0
0
0
0
0
0
0
0
0
0
0
0
0
0
0
0
0
0
0
0
0
0
0
0
0
0
0
0
0
0
0
0
0
0
0
0
0
0
0
0
0
0
0
0
0
0
0
0
0
0
0
0
0
0
0
0
0
0
0
0
0
0
0
0
0
0
0
0
0
0
0
0
0
0
0
0
0
0
0
0
0
0
0
0
0
0
0
0
0
0
0
0
0
0
0
0
0
0
0
0
0
0
0
0
0
0
0
0
0
0
0
0
0
0
0
0
0
0
0
0
0
0
0
0
0
0
0
0
0
0
0
0
0
0
0
0
0
0
0
0
0
0
0
0
0
0
0
0
0
0
0
0
0
0
0
0
0
0
0
0
0
0
0
0
0
0
0
0
0
0
0
0
0
0
0
0
0
0
0
0
0
0
0
0
0
0
0
0
0
0
0
0
0
0
0
0
0
0
0
0
0
0
0
0
0
0
0
0
0
0
0
0
0
0
0
0
0
0
0
0
0
0
0
0
0
0
0
0
0
0
0
0
0
0
0
0
0
0
0
0
0
0
0
0
0
0
0
0
0
0
0
0
0
0
0
0
0
0
0
0
0
0
0
0
0
0
0
0
0
0
0
0
0
0
0
0
0
0
0
0
0
0
0
0
0
0
0
0
0
0
0
0
0
0
0
0
0
0
0
0
0
0
0
0
0
0
0
0
0
0
0
0
0
0
0
0
0
0
0
0
0
0
0
0
0
0
0
0
0
0
0
0
0
0
0
0
0
0
0
0
0
0
0
0
0
0
0
0
0
0
0
0
0
0
0
0
0
0
0
0
0
0
0
0
0
0
0
0
0
0
0
0
0
0
0
0
0
0
0
0
0
0
0
0
0
0
0
0
0
0
0
0
0
0
0
0
0
0
0
0
0
0
0
0
0
0
0
0
0
0
0
0
0
0
0
0
0
0
0
0
0
0
0
0
0
0
0
0
0
0
0
0
0
0
0
0
0
0
0
0
0
0
0
0
0
0
0
0
0
0
0
0
0
0
0
0
0
0
0
0
0
0
0
0
0
0
0
0
0
0
0
0
0
0
0
0
0
0
0
0
0
0
0
0
0
0
0
0
0
0
0
0
0
0
0
0
0
0
0
0
0
0
0
0
0
0
0
0
0
0
0
0
0
0
0
0
0
0
0
0
0
0
0
0
0
0
0
0
0
0
0
0
0
0
0
0
0
0
0
0
0
0
0
0
0
0
0
0
0
0
0
0
0
0
0
0
0
0
0
0
0
0
0
0
0
0
0
0
0
0
0
0
0
0
0
0
0
0
0
0
0
0
0
0
0
0
0
0
0
0
0
0
0
0
0
0
0
0
0
0
0
0
0
0
0
0
0
0
0
0
0
0
0
0
0
0
0
0
0
0
0
0
0
0
0
0
0
0
0
0
0
0
0
0
0
0
0
0
0
0
0
0
0
0
0
0
0
0
0
0
0
0
0
0
0
0
0
0
0
0
0
0
0
0
0
0
0
0
0
0
0
0
0
0
0
0
0
0
0
0
0
0
0
0
0
0
0
0
0
0
0
0
0
0
0
0
0
0
0
0
0
0
0
0
0
0
0
0
0
0
0
0
0
0
0
0
0
0
0
0
0
0
0
0
0
0
0
0
0
0
0
0
0
0
0
0
0
0
0
0
0
0
0
0
0
0
0
0
0
0
0
0
0
0
0
0
0
0
0
0
0
0
0
0
0
0
0
0
0
0
0
0
0
0
0
0
0
0
0
0
0
0
0
0
0
0
0
0
0
0
0
0
0
0
0
0
0
0
0
0
0
0
0
0
0
0
0
0
0
0
0
0
0
0
0
0
0
0
0
0
0
0
0
0
0
0
0
0
0
0
0
0
0
0
0
0
0
0
0
0
0
0
0
0
0
0
0
0
0
0
0
0
0
0
0
0
0
0
0
0
0
0
