2.96186
3.02869
3.08818
3.143
3.19603
3.24995
3.30677
3.36747
3.4316
3.49762
3.56257
3.62175
3.66881
3.69551
3.69423
3.65776
3.5804
3.4592
3.2949
3.09234
2.86
2.60878
2.35089
2.09593
1.84995
1.61834
1.40533
1.214
1.04633
0.903223
0.784581
0.689383
0.615738
0.561052
0.521975
0.494703
0.475326
0.460209
0.446211
0.430986
0.413446
0.393769
0.373916
0.357663
0.349425
0.35306
0.370705
0.401983
0.443895
0.491913
0.538569
0.576621
0.600601
0.607793
0.59845
0.575312
0.542712
0.505622
0.468912
0.436007
0.409378
0.391367
0.383815
0.387962
0.405521
0.435911
0.476287
0.521941
0.565156
0.59794
0.614637
0.613378
0.596533
0.569837
0.5403
0.513516
0.491443
0.471365
0.449227
0.420952
0.383704
0.337137
0.283947
0.229533
0.180871
0.144913
0.126478
0.138535
0.186764
0.25323
0.314306
0.349245
0.347187
0.30987
0.249336
0.182327
0.124254
0.0820675
0.0526272
0.0332579
0.0226049
0.0197718
0.0241894
0.0357742
0.05506
0.0831184
0.121292
0.170811
0.232104
0.304908
0.388223
0.480212
0.578551
0.6804
0.782219
0.880551
0.971911
1.05128
1.11275
1.15271
1.16783
1.15563
1.11556
1.0501
0.965286
0.870265
0.775686
0.690778
0.619123
0.56204
0.52006
0.49181
0.4723
0.455948
0.438076
0.415786
0.388041
0
-0.30006
0.0282932
1.39001
3.85582
7.02218
10.0189
11.7602
11.4448
9.05457
5.45916
1.96035
-0.416002
-1.35865
-1.18719
-0.458687
0.0153627
0.39154
0.608025
0.723919
0.773704
0.777572
0.758175
0.735927
0.724774
0.72748
0.744381
0.775958
0.822284
0.883035
0.957833
1.04613
1.14713
1.25968
1.38362
1.51942
1.66293
1.80239
1.92273
2.00992
2.05484
2.05638
2.02303
1.97199
1.92564
1.90626
1.93032
1.99644
2.09224
2.20969
2.34564
2.497
2.65997
2.83
3.00206
3.16945
3.32498
3.46232
3.57698
3.66715
3.7341
3.78199
3.81709
3.84662
3.87744
3.91471
3.96129
4.01773
4.08505
4.16334
4.24459
4.31645
4.36624
4.38357
4.36195
4.29897
4.19465
4.04938
3.86293
3.64334
3.40031
3.1409
2.87173
2.59989
2.33286
2.07828
1.84301
1.63254
1.45089
1.29935
1.17735
1.08296
1.01345
0.970163
0.961506
0.985156
1.02381
1.05617
1.06218
1.02956
0.958008
0.858599
0.74915
0.648159
0.565782
0.501472
0.453341
0.421307
0.407509
0.414081
0.44042
0.482617
0.531893
0.574783
0.598753
0.595111
0.561449
0.502832
0.431083
0.361999
0.311137
0.288763
0.289177
0.306743
0.338439
0.376283
0.411674
0.437418
0.449244
0.44634
0.430761
0.406098
0.376025
0.343705
0.311004
0.279121
0.249249
0.222717
0.200886
0.184834
0.174959
0.170766
0.170612
0.171997
0.172062
0.168167
0.158434
0.142158
0.120043
0.094223
0.0680107
0.0466276
0.0354651
0.0388395
0.0588432
0.0946887
0.142864
0.198137
0.255102
0.309753
0.361044
0.409473
0.456987
0.506204
0.559538
0.618421
0.682789
0.752079
0.825146
0.900769
0.978121
1.05698
1.13817
1.22389
1.31323
1.39661
1.45763
1.47884
1.44938
1.37029
1.25516
1.12647
1.00901
0.91776
0.851591
0.804213
0.774694
0.761037
0.753758
0.742508
0.718715
0.677928
0.621116
0.554309
0.179746
0
0.45405
1.99844
4.72825
8.06917
10.8966
12.0837
11.1016
8.26905
4.55706
1.1387
-1.07179
-1.73335
-1.14366
-0.0169718
0.965215
1.53274
1.69679
1.80966
1.91631
2.01666
2.11086
2.19935
2.28269
2.36138
2.43543
2.50365
2.56524
2.61959
2.66679
2.7085
2.7484
2.79189
2.84507
2.91318
2.99922
3.09978
3.21125
3.33029
3.45307
3.57573
3.69502
3.80875
3.91598
4.0169
4.11249
4.20416
4.2933
4.38106
4.46822
4.55531
4.64272
4.73087
4.82024
4.9113
5.00435
5.09937
5.19591
5.29305
5.38949
5.48368
5.57397
5.6587
5.73623
5.8048
5.86238
5.9073
5.93792
5.95261
5.94992
5.92862
5.88798
5.82787
5.74893
5.65258
5.54158
5.41809
5.28407
5.141
4.98989
4.83123
4.66556
4.49397
4.31854
4.14246
3.96974
3.80457
3.6506
3.51042
3.38473
3.27227
3.17068
3.07746
2.99124
2.91192
2.84107
2.78158
2.73695
2.71014
2.7028
2.71458
2.74303
2.78512
2.83471
2.88367
2.92426
2.95021
2.95747
2.94437
2.91123
2.85988
2.79311
2.71454
2.62937
2.54221
2.457
2.37757
2.30727
2.24931
2.20568
2.17592
2.1582
2.14979
2.14766
2.14885
2.15069
2.15076
2.14699
2.13761
2.1213
2.09732
2.06546
2.02601
1.97949
1.92671
1.86862
1.80592
1.73961
1.6713
1.60331
1.53873
1.48098
1.43345
1.39892
1.37927
1.37522
1.38646
1.41167
1.45003
1.50215
1.56353
1.6247
1.67531
1.70641
1.71314
1.69666
1.66444
1.62864
1.60296
1.59693
1.61231
1.64746
1.70093
1.77511
1.87056
1.9773
2.07864
2.15719
2.1966
2.18349
2.10959
1.97393
1.78503
1.56201
1.33276
1.12274
0.944512
0.794876
0.685986
0.618814
0.577469
0.542624
0.498528
0.438466
0.364448
0.000166893
0
0.740258
2.51153
5.25947
8.35162
10.686
11.2308
9.65103
6.52708
3.00012
0.152396
-1.43012
-1.7296
-1.12926
-0.194803
0.572532
0.927193
0.863951
0.804995
0.754984
0.720116
0.704429
0.705046
0.710994
0.709725
0.692921
0.66084
0.623043
0.595067
0.592566
0.62561
0.683349
0.759271
0.849061
0.947439
1.04889
1.14921
1.2453
1.33515
1.41783
1.49331
1.56225
1.62584
1.68559
1.74321
1.80055
1.85953
1.92208
1.99004
2.0651
2.14857
2.24123
2.34315
2.45359
2.57102
2.6933
2.81808
2.94311
3.06685
3.18886
3.31007
3.43253
3.55928
3.69638
3.85567
4.05079
4.26225
4.44879
4.57124
4.60252
4.53857
4.40341
4.23755
4.07475
3.92562
3.77866
3.62836
3.47402
3.3158
3.15485
2.99361
2.83556
2.68475
2.54511
2.41989
2.31301
2.22691
2.15606
2.09243
2.02777
1.95604
1.87506
1.78681
1.69644
1.61037
1.53358
1.46691
1.41183
1.36867
1.33707
1.31643
1.30633
1.30664
1.3175
1.33907
1.37079
1.41257
1.4634
1.52148
1.58402
1.64492
1.69583
1.72892
1.73877
1.724
1.68782
1.63723
1.58093
1.5271
1.48142
1.44425
1.4155
1.3965
1.388
1.39009
1.40417
1.42903
1.45983
1.49059
1.51548
1.53021
1.53298
1.52473
1.50868
1.48952
1.47208
1.4597
1.45462
1.45797
1.46966
1.48967
1.51526
1.54237
1.56678
1.58504
1.59514
1.59678
1.59118
1.58052
1.56738
1.55416
1.54261
1.53409
1.5298
1.5307
1.53756
1.55082
1.57054
1.59639
1.62774
1.6638
1.7038
1.74701
1.79288
1.84101
1.88857
1.92992
1.95863
1.97033
1.9657
1.95161
1.93939
1.9408
1.96945
2.03051
2.10454
2.16356
2.18273
2.14936
2.06551
1.94435
1.80271
1.65372
1.50255
1.34857
1.19029
1.02599
0.849257
0.65781
0.454385
0.064497
0
0.631997
2.21569
4.79078
7.97553
10.8911
12.4534
11.9635
9.56825
6.20335
3.05465
0.959939
0.135508
0.27753
0.842893
0.952484
1.05552
1.14762
1.22984
1.30419
1.37289
1.43833
1.50244
1.56578
1.62755
1.68567
1.73732
1.77969
1.81075
1.82983
1.83784
1.83726
1.83186
1.82626
1.82492
1.83185
1.85031
1.88249
1.92923
1.99001
2.06321
2.14658
2.23773
2.33459
2.43548
2.53956
2.64632
2.75523
2.86544
2.97561
3.08388
3.18802
3.2861
3.37695
3.46058
3.53831
3.61252
3.68616
3.76203
3.84204
3.92676
4.01505
4.10481
4.19277
4.27544
4.34993
4.4144
4.46818
4.51135
4.54399
4.5626
4.56092
4.53191
4.46719
4.36017
4.20919
4.01912
3.80069
3.56759
3.33272
3.1034
2.88167
2.66911
2.46635
2.27385
2.09259
1.92444
1.77207
1.63869
1.52873
1.4521
1.42447
1.44121
1.4808
1.51904
1.53633
1.52294
1.48016
1.41778
1.3492
1.28668
1.23488
1.19289
1.15961
1.13401
1.11546
1.10322
1.09645
1.09426
1.09572
1.09978
1.10534
1.1116
1.11827
1.12577
1.13504
1.14726
1.16354
1.18426
1.20825
1.2321
1.25063
1.25851
1.25181
1.22917
1.19249
1.14674
1.09913
1.05764
1.02891
1.01486
1.02553
1.05553
1.09199
1.12036
1.13028
1.11965
1.09487
1.06704
1.04622
1.03676
1.03316
1.03161
1.02803
1.01979
1.00677
0.991525
0.978419
0.972214
0.976025
0.993585
1.02354
1.05795
1.08691
1.10214
1.09986
1.08204
1.05546
1.02939
1.01286
1.009
1.01735
1.0379
1.07066
1.11513
1.17065
1.23695
1.3139
1.4042
1.51574
1.64392
1.76668
1.85691
1.89365
1.87182
1.80334
1.70823
1.60296
1.49468
1.38533
1.27612
1.16844
1.06443
0.966781
0.87824
0.800982
0.737301
0.687451
0.649821
0.621622
0.599319
0.579027
0.273336
0
0.306525
1.79612
4.61492
8.09617
10.9485
11.9461
10.6228
7.48722
3.69005
0.442786
-1.4696
-1.91356
-1.33831
-0.470633
0.153568
0.407793
0.473136
0.521937
0.567332
0.608735
0.645382
0.676954
0.704237
0.72897
0.753825
0.782219
0.817915
0.864413
0.924204
0.998048
1.08563
1.18408
1.28577
1.38205
1.4653
1.53071
1.57723
1.60748
1.62678
1.64171
1.65843
1.68099
1.71227
1.75406
1.80665
1.8697
1.94272
2.02489
2.11494
2.21115
2.31167
2.41375
2.51457
2.61168
2.70334
2.78869
2.86766
2.94067
3.00824
3.07079
3.12876
3.18232
3.23175
3.27756
3.32048
3.36103
3.39951
3.43531
3.46612
3.48707
3.49199
3.47355
3.42438
3.33825
3.21127
3.04289
2.83644
2.59907
2.34137
2.07655
1.81435
1.56208
1.32624
1.11203
0.923183
0.761955
0.629177
0.524393
0.447093
0.397444
0.372842
0.366564
0.369883
0.372533
0.36496
0.340406
0.29612
0.233815
0.159109
0.0799688
0.00456657
-0.0607521
-0.114356
-0.15863
-0.1945
-0.222995
-0.245097
-0.261396
-0.271948
-0.276359
-0.274047
-0.264482
-0.247587
-0.223921
-0.194526
-0.161457
-0.127708
-0.0964975
-0.0708212
-0.053113
-0.0451143
-0.0479641
-0.0624014
-0.0889334
-0.127236
-0.178209
-0.246048
-0.328092
-0.41345
-0.488361
-0.539786
-0.559093
-0.544211
-0.49962
-0.434496
-0.35988
-0.285696
-0.216884
-0.155307
-0.101055
-0.0535864
-0.0131327
0.0187445
0.0397196
0.0481987
0.04286
0.0242147
-0.00406628
-0.0347847
-0.05816
-0.0638327
-0.0432184
0.00333042
0.0756443
0.171856
0.287764
0.416573
0.553773
0.692102
0.824472
0.945742
1.05215
1.13396
1.18602
1.20522
1.18283
1.10922
0.983234
0.818953
0.644299
0.492004
0.388446
0.322688
0.285088
0.282302
0.313554
0.361206
0.406696
0.436288
0.445451
0.439768
0
-0.344137
0.0149674
1.57509
4.32141
7.5831
10.2882
11.4344
10.5195
7.76995
4.08906
0.694588
-1.44099
-2.03798
-1.53011
-0.704676
-0.0276076
0.385123
0.482526
0.534604
0.576842
0.61216
0.644038
0.676209
0.712234
0.755045
0.80656
0.86758
0.937689
1.01537
1.09818
1.18322
1.26677
1.34398
1.41017
1.46172
1.49664
1.51526
1.52053
1.51792
1.51461
1.51826
1.53568
1.5708
1.62362
1.69255
1.77634
1.87341
1.98164
2.09859
2.22164
2.348
2.47482
2.5993
2.71897
2.83191
2.93714
3.03471
3.12559
3.2114
3.29387
3.37439
3.45361
3.53136
3.60679
3.67882
3.74672
3.81052
3.87114
3.92992
3.98896
4.04926
4.10124
4.12513
4.09817
4.00449
3.84168
3.62054
3.35953
3.07838
2.79525
2.51795
2.25081
1.99908
1.76764
1.5614
1.3869
1.24912
1.1482
1.07803
1.027
0.982996
0.936005
0.880165
0.814538
0.74266
0.671146
0.610785
0.622204
0.824766
1.14608
1.47032
1.63817
1.53534
1.19464
0.789505
0.507605
0.438022
0.505162
0.592971
0.68388
0.766295
0.829416
0.865676
0.872751
0.854191
0.818359
0.776166
0.738374
0.71106
0.69479
0.689075
0.692657
0.702884
0.716536
0.730559
0.741993
0.74813
0.746582
0.736028
0.715964
0.686677
0.649144
0.604889
0.555787
0.503881
0.45127
0.400087
0.35253
0.311072
0.278527
0.257817
0.251678
0.262177
0.292715
0.350574
0.435686
0.531665
0.616432
0.670756
0.684608
0.660779
0.614228
0.567004
0.540457
0.548103
0.585402
0.640314
0.706061
0.779821
0.859935
0.946042
1.04076
1.15476
1.29987
1.45794
1.59219
1.66366
1.65251
1.5662
1.42878
1.26463
1.09304
0.930934
0.783789
0.652627
0.537852
0.438226
0.352394
0.279268
0.21626
0.160165
0.10782
0.0563087
0
-0.136584
0.0797152
1.00472
2.90694
5.67616
8.62156
10.656
10.8729
9.11351
6.06942
2.85557
0.419288
-0.808901
-0.919001
-0.334045
0.0614311
0.393875
0.621283
0.731422
0.807825
0.858758
0.889787
0.906419
0.913751
0.916317
0.918061
0.922351
0.931961
0.948732
0.973958
1.00815
1.05087
1.10114
1.15733
1.21658
1.27629
1.3349
1.39238
1.45032
1.51156
1.57944
1.65686
1.74491
1.84279
1.94908
2.06134
2.17634
2.29052
2.4004
2.50303
2.59635
2.67939
2.75241
2.8168
2.87497
2.93003
2.98536
3.04425
3.10943
3.18281
3.26529
3.35673
3.45602
3.56144
3.67069
3.78108
3.88854
3.98573
4.06543
4.12009
4.14284
4.12888
4.07653
3.98732
3.86508
3.71442
3.54064
3.35155
3.15136
2.94239
2.727
2.5081
2.28961
2.0763
1.87333
1.68557
1.51719
1.37126
1.24817
1.14642
1.06315
0.994828
0.937994
0.889762
0.848056
0.811552
0.779607
0.751802
0.727628
0.706613
0.688419
0.672959
0.66043
0.651193
0.645545
0.643462
0.644217
0.646916
0.650365
0.653273
0.654466
0.653056
0.648512
0.640654
0.629561
0.615485
0.598714
0.579567
0.558452
0.535911
0.512685
0.489708
0.468019
0.448591
0.432135
0.41917
0.40965
0.403303
0.399899
0.399492
0.402501
0.409623
0.421573
0.438805
0.461219
0.487969
0.518155
0.550607
0.583996
0.616936
0.647766
0.674678
0.696307
0.711863
0.721434
0.726143
0.727982
0.729317
0.732189
0.737669
0.745762
0.755035
0.763708
0.770811
0.77712
0.785403
0.799839
0.824771
0.863321
0.915855
0.978744
1.04934
1.12516
1.20375
1.28313
1.36169
1.43783
1.51001
1.57595
1.63121
1.66934
1.68419
1.67027
1.62421
1.54604
1.43975
1.31311
1.17642
1.04075
0.914057
0.798168
0.694622
0.604597
0.527014
0.459523
0.399117
0.342744
0.289624
0
-0.0336866
0.746269
2.7667
5.87336
9.19997
11.5364
11.957
10.2754
7.08203
3.43587
0.417418
-1.28024
-1.58051
-0.955507
-0.125368
0.50823
0.840219
0.854441
0.841816
0.822575
0.800218
0.778782
0.762593
0.755806
0.760881
0.780248
0.816206
0.869782
0.945744
1.04785
1.16152
1.26702
1.34732
1.39456
1.41294
1.41654
1.42324
1.4477
1.49689
1.5618
1.63555
1.71496
1.79739
1.88058
1.96281
2.04281
2.12017
2.19523
2.26904
2.34313
2.41914
2.49825
2.58066
2.66541
2.74982
2.82996
2.90219
2.96451
3.01734
3.06348
3.10713
3.15243
3.20208
3.256
3.31207
3.36679
3.41545
3.45307
3.47503
3.47743
3.4573
3.41255
3.34205
3.24558
3.12521
2.98368
2.82343
2.64766
2.4604
2.2664
2.06967
1.87413
1.68348
1.50096
1.32921
1.17015
1.02492
0.893987
0.777261
0.674254
0.584253
0.506438
0.43996
0.383979
0.337664
0.300153
0.270529
0.247746
0.230643
0.218044
0.207855
0.197216
0.183137
0.163006
0.135164
0.0993761
0.0570498
0.0111107
-0.0344341
-0.0754593
-0.108217
-0.12968
-0.138033
-0.132911
-0.115426
-0.0880158
-0.0541422
-0.0179127
0.0163569
0.0440805
0.0614964
0.0658901
0.0558817
0.0316216
-0.00514488
-0.051202
-0.102232
-0.153423
-0.200453
-0.240595
-0.271427
-0.292597
-0.305675
-0.313527
-0.319363
-0.325817
-0.334236
-0.344318
-0.354207
-0.360956
-0.361261
-0.352325
-0.332497
-0.297173
-0.247612
-0.19389
-0.148004
-0.119525
-0.111581
-0.118829
-0.128441
-0.124008
-0.0911041
-0.028334
0.0556934
0.153383
0.2578
0.361855
0.458451
0.541372
0.605856
0.648783
0.668545
0.664753
0.637962
0.589724
0.522419
0.439365
0.344948
0.244684
0.144919
0.0523035
-0.0221155
-0.0560247
-0.048093
-0.0193035
0
-0.0160763
-0.084053
-0.200387
-0.345479
-0.557465
-0.532973
0.0830669
1.64551
4.15311
7.05196
9.39728
10.2809
9.25862
6.57177
3.08595
-0.0510931
-1.92546
-2.28633
-1.5891
-0.615732
0.107805
0.477195
0.562662
0.616966
0.666943
0.713723
0.758859
0.804199
0.851601
0.902626
0.958943
1.0218
1.08824
1.15127
1.20272
1.23594
1.24835
1.24274
1.2268
1.21112
1.20658
1.22017
1.25302
1.30362
1.37053
1.45307
1.55013
1.66
1.78057
1.90935
2.04415
2.18222
2.31859
2.44462
2.5509
2.62907
2.67449
2.68961
2.686
2.6831
2.70338
2.76519
2.87629
3.0194
3.1804
3.34943
3.51165
3.65389
3.76663
3.84487
3.88796
3.89889
3.88312
3.84707
3.7965
3.73545
3.66441
3.5813
3.48518
3.37569
3.25171
3.1136
2.96318
2.80316
2.63663
2.4664
2.29413
2.12109
1.94851
1.77801
1.61192
1.45331
1.30632
1.17472
1.06159
0.970216
0.900489
0.850167
0.815467
0.791893
0.775132
0.761801
0.749901
0.738937
0.729777
0.7241
0.724015
0.731732
0.751051
0.790317
0.851736
0.92309
0.986835
1.02622
1.03169
1.00422
0.95409
0.89614
0.844071
0.803936
0.774373
0.753456
0.739743
0.732418
0.730513
0.732903
0.738255
0.744989
0.750881
0.753534
0.751064
0.742736
0.729367
0.713298
0.697864
0.686515
0.681903
0.684732
0.694196
0.709081
0.727591
0.747748
0.767681
0.785613
0.799646
0.808106
0.809408
0.802286
0.786169
0.76158
0.73038
0.695737
0.661798
0.633144
0.614114
0.60819
0.617575
0.643037
0.684035
0.739061
0.806097
0.882416
0.965853
1.0549
1.14843
1.2457
1.34614
1.44925
1.55298
1.65047
1.73106
1.78223
1.79307
1.75832
1.68095
1.57223
1.44892
1.3285
1.22095
1.12633
1.04181
0.964526
0.891241
0.818052
0.741258
0.65816
0.567634
0.470348
0.366476
0
-0.0856279
0.427173
1.8483
4.29059
7.3853
10.2119
11.6643
11.0765
8.63466
5.26068
2.09207
-0.0436889
-0.879242
-0.66724
0.0360552
0.365712
0.663291
0.909055
1.11526
1.27956
1.4
1.47552
1.50889
1.50898
1.4903
1.46921
1.45884
1.46362
1.479
1.50277
1.53348
1.57032
1.61341
1.66374
1.72257
1.79086
1.86818
1.95296
2.04393
2.13959
2.23844
2.33849
2.43445
2.51907
2.58514
2.62871
2.65242
2.66648
2.68603
2.72571
2.79456
2.88771
2.99459
3.11058
3.2325
3.35723
3.482
3.60422
3.7216
3.83238
3.93552
4.03099
4.11998
4.2048
4.28839
4.37557
4.47425
4.58102
4.6787
4.74419
4.75827
4.71302
4.61313
4.47143
4.30277
4.12029
3.93538
3.75243
3.57317
3.39856
3.22921
3.06529
2.90651
2.75235
2.60229
2.45605
2.3137
2.17568
2.04274
1.91579
1.79577
1.68355
1.57995
1.48579
1.40196
1.32948
1.26955
1.22339
1.19217
1.17703
1.18228
1.21907
1.2907
1.38018
1.46502
1.52374
1.54277
1.52034
1.46569
1.39451
1.32308
1.26177
1.21132
1.16949
1.13396
1.10319
1.07679
1.05508
1.03914
1.03023
1.02941
1.03809
1.05601
1.08013
1.10622
1.1299
1.14771
1.15783
1.16008
1.15536
1.14481
1.12934
1.10945
1.08518
1.05708
1.0267
0.996905
0.971536
0.954765
0.950141
0.958989
0.982698
1.01971
1.06653
1.11697
1.1618
1.19297
1.20552
1.1989
1.17722
1.14837
1.12199
1.10712
1.1104
1.13045
1.16422
1.21144
1.27253
1.3478
1.43995
1.5577
1.70736
1.87843
2.04658
2.1853
2.27448
2.30343
2.27038
2.1813
2.04881
1.8901
1.72379
1.56712
1.42829
1.3057
1.19752
1.10574
1.03132
0.971793
0.923504
0.882533
0.845473
0.80982
0.339924
0
0.419205
2.12069
5.08199
8.56899
11.405
12.502
11.3631
8.33406
4.48736
1.1441
-0.764943
-1.12059
-0.522896
0.0457072
0.475224
0.72374
0.830054
0.915085
0.988588
1.05232
1.10815
1.15836
1.20576
1.25342
1.30432
1.36071
1.42374
1.49311
1.56703
1.64378
1.72167
1.79885
1.87305
1.94088
1.99893
2.04433
2.07535
2.09274
2.10068
2.1067
2.12053
2.15179
2.20752
2.28538
2.38026
2.48834
2.60572
2.72812
2.85164
2.97321
3.09086
3.20355
3.31098
3.41318
3.51021
3.60201
3.68829
3.76868
3.84252
3.90924
3.96913
4.02316
4.07302
4.12103
4.16994
4.22257
4.28287
4.35423
4.4305
4.49803
4.54077
4.54522
4.5036
4.41403
4.27845
4.10064
3.88629
3.65207
3.41044
3.16904
2.93473
2.71385
2.51233
2.33483
2.18432
2.06181
1.96758
1.90303
1.86465
1.84004
1.81614
1.78177
1.73003
1.65958
1.57446
1.48257
1.39306
1.3128
1.24503
1.1915
1.15199
1.12536
1.11052
1.10719
1.11591
1.13837
1.18165
1.25006
1.32631
1.38548
1.40367
1.36805
1.28351
1.17233
1.06648
0.996284
0.975121
0.983369
1.02628
1.09596
1.17494
1.24474
1.29005
1.30183
1.27855
1.22591
1.15511
1.08011
1.01372
0.963038
0.928162
0.904685
0.890082
0.881095
0.874644
0.868688
0.862699
0.857584
0.855152
0.857368
0.865718
0.880022
0.900116
0.925961
0.957458
0.99476
1.03811
1.08757
1.14277
1.20255
1.26501
1.32719
1.38507
1.43447
1.4717
1.49401
1.49983
1.48883
1.46178
1.42039
1.36705
1.30513
1.2379
1.16794
1.09722
1.02683
0.956784
0.885748
0.81131
0.730569
0.640894
0.540684
0.429917
0.310338
0.179744
-0.0275718
0
0.704456
2.45692
5.15131
8.10886
10.3335
10.9557
9.62432
6.69156
3.11463
0.0588901
-1.65261
-1.91617
-1.26909
-0.443143
0.18124
0.557153
0.663113
0.721239
0.767669
0.80236
0.826847
0.844045
0.857764
0.87203
0.89031
0.914916
0.946812
0.985469
1.02924
1.07636
1.12523
1.1747
1.22424
1.27386
1.32385
1.37446
1.42564
1.47684
1.52686
1.57462
1.62005
1.66469
1.71176
1.76549
1.82987
1.90728
1.99761
2.09719
2.20136
2.30646
2.40932
2.50771
2.60051
2.68758
2.76938
2.84657
2.91974
2.98917
3.05512
3.11803
3.1787
3.23828
3.29811
3.35931
3.42262
3.48629
3.54566
3.59416
3.62473
3.63118
3.60895
3.55519
3.46818
3.34681
3.19194
3.00546
2.79108
2.55578
2.30748
2.05393
1.80317
1.56318
1.34165
1.14534
0.978301
0.842267
0.736894
0.660646
0.620847
0.628821
0.677019
0.739415
0.786643
0.793657
0.747984
0.654031
0.531148
0.406201
0.303835
0.233666
0.187834
0.157777
0.140122
0.133353
0.135977
0.146759
0.164869
0.189669
0.22063
0.257053
0.297858
0.341486
0.385839
0.428014
0.46512
0.494889
0.516206
0.52939
0.536093
0.538835
0.540302
0.542592
0.546764
0.552395
0.55711
0.557713
0.551417
0.536948
0.515133
0.488718
0.461482
0.436979
0.417463
0.40337
0.393729
0.387246
0.383547
0.383989
0.391635
0.410387
0.443646
0.492188
0.552421
0.621878
0.697556
0.774606
0.846006
0.905577
0.949671
0.978294
0.995471
1.00857
1.02659
1.05784
1.10772
1.17586
1.26526
1.36654
1.46272
1.53732
1.57794
1.57801
1.53653
1.45695
1.34626
1.21427
1.07386
0.934349
0.801203
0.676644
0.559259
0.446972
0.33793
0.230063
0.121297
0
-0.178208
0.0482004
1.07851
3.07271
5.79336
8.62899
10.7503
11.3805
10.1526
7.39045
4.05
1.24785
-0.328466
-0.684624
-0.298582
0.148186
0.436031
0.667101
0.829811
0.949374
1.03074
1.08258
1.11573
1.14146
1.16956
1.20577
1.25267
1.31069
1.38002
1.45625
1.53106
1.59672
1.64852
1.68623
1.71399
1.7388
1.76819
1.80808
1.85989
1.92115
1.99021
2.06566
2.14602
2.23003
2.3169
2.40623
2.49801
2.5923
2.68898
2.78757
2.88717
2.98646
3.08405
3.17877
3.26999
3.3578
3.44289
3.52638
3.60943
3.69297
3.77751
3.86311
3.94953
4.03644
4.12355
4.21075
4.29802
4.38528
4.4719
4.5555
4.6305
4.68868
4.71979
4.71348
4.66169
4.56078
4.41277
4.22525
4.00982
3.78105
3.55042
3.3243
3.10635
2.89998
2.70801
2.53291
2.37687
2.24176
2.12943
2.04284
1.98336
1.94847
1.93247
1.92588
1.91804
1.90023
1.86771
1.8208
1.76472
1.70813
1.66074
1.63065
1.61907
1.62381
1.64326
1.67338
1.70938
1.74683
1.78261
1.81526
1.84484
1.87219
1.8981
1.92194
1.9413
1.95189
1.94902
1.92948
1.89305
1.8432
1.78656
1.73127
1.68482
1.64939
1.62729
1.61837
1.62052
1.63063
1.64574
1.6639
1.68474
1.70939
1.73993
1.77998
1.83401
1.90042
1.9696
2.02744
2.05926
2.05368
2.00561
1.91761
1.79948
1.6663
1.53543
1.42191
1.33681
1.28823
1.27976
1.3103
1.37442
1.46359
1.56795
1.67825
1.78719
1.89092
1.98352
2.05802
2.10852
2.12873
2.11386
2.06277
1.97911
1.87055
1.74683
1.61789
1.49201
1.37255
1.26215
1.16361
1.07878
1.00897
0.955855
0.916635
0.882486
0.843048
0.788746
0.712888
0.612881
0.367936
0
0.122321
1.23959
3.62047
6.89487
10.0161
11.7428
11.3326
8.93738
5.45761
2.04714
-0.380836
-1.43244
-1.26858
-0.428443
0.434651
1.04394
1.30977
1.31441
1.30204
1.27636
1.24216
1.20623
1.17597
1.15775
1.15305
1.15986
1.17687
1.2029
1.23602
1.27402
1.31434
1.35351
1.38852
1.41776
1.44152
1.46217
1.48373
1.51086
1.54768
1.59676
1.65691
1.7257
1.80173
1.88368
1.97049
2.06148
2.15634
2.25493
2.35703
2.4621
2.5692
2.67702
2.78403
2.88858
2.98914
3.08438
3.17357
3.25662
3.3342
3.40768
3.47911
3.55094
3.62581
3.7068
3.79996
3.91783
4.06349
4.21599
4.34492
4.42088
4.42562
4.35595
4.22106
4.03795
3.82702
3.60695
3.38521
3.16221
2.9372
2.70983
2.48019
2.24964
2.02111
1.79897
1.58868
1.39615
1.22673
1.0842
0.970384
0.885166
0.826773
0.79141
0.774562
0.771689
0.778734
0.792339
0.809784
0.828746
0.846973
0.861639
0.869899
0.869144
0.857547
0.834585
0.801327
0.76037
0.715414
0.670633
0.629915
0.59542
0.568927
0.551736
0.544489
0.547245
0.559567
0.580569
0.608916
0.64292
0.680788
0.718941
0.751966
0.774261
0.781119
0.769852
0.740552
0.696168
0.641853
0.583842
0.528103
0.477969
0.43547
0.402641
0.380645
0.369994
0.370728
0.382541
0.404878
0.436962
0.477769
0.525947
0.579939
0.637705
0.696237
0.750808
0.796663
0.830311
0.85066
0.859604
0.861698
0.862932
0.86906
0.88419
0.909137
0.941644
0.980422
1.02464
1.07338
1.12584
1.18056
1.23421
1.2823
1.31974
1.34157
1.34366
1.32322
1.27913
1.2122
1.12549
1.02611
0.921234
0.817784
0.72287
0.644432
0.601107
0.59207
0.605051
0.624173
0.637522
0.641577
0.214784
0
0.431082
1.81361
4.16905
7.05568
9.57511
10.724
9.94393
7.46712
4.17412
1.09381
-1.05646
-2.03046
-1.96719
-1.24233
-0.341286
0.355573
0.701189
0.768737
0.795609
0.819902
0.843735
0.869377
0.899142
0.934937
0.977802
1.02758
1.0825
1.1403
1.19852
1.25478
1.3073
1.35516
1.39845
1.43826
1.47641
1.51521
1.55708
1.60432
1.65885
1.72202
1.79451
1.87618
1.96612
2.06256
2.16302
2.26442
2.36261
2.45331
2.53302
2.5997
2.65326
2.69561
2.73031
2.76184
2.79477
2.83307
2.87854
2.93237
2.99559
3.06915
3.15652
3.26751
3.41851
3.61955
3.84764
4.05122
4.19828
4.26882
4.23704
4.08247
3.82356
3.52701
3.26982
3.08952
2.94277
2.80101
2.65821
2.5122
2.36205
2.20862
2.05471
1.90487
1.76517
1.64757
1.58154
1.58125
1.6181
1.64781
1.62999
1.54582
1.4043
1.23474
1.07156
0.941213
0.839074
0.753802
0.684114
0.62963
0.589216
0.561422
0.54475
0.537866
0.539699
0.549376
0.566667
0.592003
0.623166
0.655487
0.683429
0.701859
0.707416
0.699404
0.679878
0.652913
0.623406
0.595604
0.571818
0.553213
0.540054
0.531768
0.527586
0.526655
0.527997
0.530577
0.533364
0.535363
0.535831
0.534448
0.531468
0.527766
0.52472
0.523939
0.526865
0.534351
0.546526
0.562862
0.580314
0.594815
0.602727
0.602255
0.594507
0.58377
0.576784
0.58114
0.60324
0.643455
0.699641
0.769152
0.848577
0.93132
1.01022
1.07977
1.13713
1.18229
1.21728
1.24482
1.26649
1.28137
1.28571
1.27384
1.24019
1.18198
1.10109
1.00443
0.902568
0.807256
0.728656
0.671175
0.66077
0.748949
0.895028
1.03217
1.06477
0.903277
0.523737
0
-0.704274
-0.706691
0.455374
2.91955
6.26998
9.51712
11.4635
11.3304
9.20908
5.98454
2.8067
0.523306
-0.57407
-0.6681
-0.184032
0.224294
0.526456
0.767175
0.934473
1.02877
1.06304
1.06024
1.04769
1.04924
1.07802
1.1302
1.19164
1.25459
1.31295
1.36334
1.406
1.44455
1.48473
1.53263
1.59279
1.66681
1.75166
1.84272
1.93571
2.0262
2.1109
2.18844
2.25958
2.32699
2.39451
2.46618
2.54522
2.63293
2.72895
2.83184
2.93932
3.04876
3.15773
3.26441
3.36779
3.46765
3.56438
3.65879
3.75183
3.8445
3.93763
4.03182
4.12737
4.22385
4.31867
4.40618
4.47896
4.5293
4.55127
4.54238
4.50397
4.44035
4.35691
4.25822
4.1473
4.02701
3.89912
3.76381
3.62074
3.46984
3.31165
3.1474
2.97912
2.80962
2.64225
2.48057
2.32791
2.18705
2.05951
1.94564
1.84479
1.75573
1.6772
1.60837
1.54905
1.49972
1.46105
1.43394
1.41864
1.41471
1.4212
1.43505
1.45087
1.46358
1.4696
1.46746
1.45785
1.44298
1.42549
1.40746
1.3898
1.37232
1.35462
1.33637
1.31777
1.29974
1.28405
1.27308
1.26942
1.27551
1.29668
1.33823
1.39169
1.44393
1.48148
1.49539
1.4842
1.45388
1.41468
1.37674
1.34597
1.32093
1.29929
1.27913
1.25844
1.2356
1.20979
1.18131
1.15165
1.12335
1.09946
1.08414
1.08334
1.10355
1.14559
1.19626
1.2383
1.25681
1.24516
1.20813
1.16065
1.12272
1.11252
1.14008
1.19442
1.26503
1.34758
1.43915
1.53706
1.63926
1.74447
1.85206
1.96168
2.072
2.17583
2.25787
2.29749
2.27574
2.18454
2.03384
1.85109
1.67197
1.52719
1.42253
1.33921
1.26949
1.2102
1.15711
1.10504
1.04822
0.981197
0.899392
0.799603
0.680334
0.355519
-0.146808
0
1.25142
3.66144
6.78312
9.77908
11.6717
11.7129
9.77696
6.52275
3.10869
0.580016
-0.63356
-0.747334
-0.255636
0.135549
0.487565
0.770394
0.969637
1.09701
1.16766
1.20368
1.22777
1.25759
1.29914
1.35045
1.4093
1.473
1.53835
1.6023
1.66251
1.7177
1.76772
1.81343
1.85642
1.89864
1.94206
1.98836
2.03876
2.09398
2.15426
2.21942
2.28919
2.36328
2.44156
2.52397
2.61044
2.70069
2.79413
2.88968
2.986
3.08146
3.17436
3.26287
3.34588
3.42299
3.49469
3.56222
3.62725
3.69149
3.75617
3.82176
3.88786
3.95343
4.0172
4.07796
4.13475
4.18688
4.23358
4.27352
4.3048
4.32445
4.32802
4.3106
4.26716
4.19366
4.08791
3.95022
3.78345
3.5926
3.38405
3.1651
2.94269
2.72167
2.50617
2.29995
2.10649
1.92974
1.77248
1.63684
1.52402
1.43419
1.36648
1.31917
1.29
1.27645
1.2756
1.28554
1.30575
1.33085
1.35404
1.36881
1.37044
1.35729
1.33092
1.29506
1.25411
1.2118
1.17043
1.13126
1.09592
1.06591
1.04272
1.02758
1.02103
1.02266
1.03114
1.04441
1.06021
1.07648
1.09196
1.10612
1.11914
1.13169
1.14458
1.15827
1.17237
1.18406
1.18833
1.17962
1.15415
1.11183
1.05699
0.997253
0.941325
0.896349
0.863414
0.840028
0.825304
0.817511
0.814498
0.814252
0.815116
0.815964
0.816276
0.81616
0.816332
0.818058
0.823023
0.833112
0.850058
0.877424
0.921589
0.977043
1.02812
1.0569
1.05185
1.01532
0.965327
0.929721
0.935154
0.996456
1.09167
1.20464
1.32892
1.45777
1.58242
1.68978
1.77101
1.81926
1.82945
1.79928
1.73054
1.62963
1.50647
1.37227
1.23691
1.1052
0.978411
0.856841
0.740296
0.627928
0.518376
0.409967
0.300914
0.189516
0.0739706
-0.0890591
-0.241532
0
0.965328
2.90823
5.77192
8.93976
11.3083
11.8075
10.0568
6.63929
2.77057
-0.355567
-2.07007
-2.34145
-1.59589
-0.446845
0.566335
1.16805
1.26308
1.2092
1.14038
1.07073
1.0181
0.997906
1.01482
1.05585
1.10695
1.1604
1.21078
1.25494
1.29229
1.32428
1.35344
1.38251
1.41364
1.44856
1.48871
1.53547
1.59022
1.65414
1.72795
1.81168
1.90402
2.00319
2.10765
2.2159
2.32661
2.43866
2.55104
2.6627
2.77241
2.87876
2.98005
3.07481
3.16224
3.24228
3.31576
3.38417
3.44928
3.51266
3.57529
3.6372
3.6976
3.75492
3.80726
3.85273
3.88964
3.91664
3.93259
3.93624
3.92597
3.8996
3.85419
3.78668
3.69431
3.5753
3.4295
3.2588
3.06709
2.85987
2.64349
2.42445
2.20818
1.99908
1.80043
1.61458
1.44318
1.28749
1.14851
1.027
0.923384
0.837649
0.769236
0.717101
0.679771
0.655588
0.644435
0.645647
0.653877
0.663277
0.668502
0.665945
0.654643
0.636402
0.615073
0.5953
0.580883
0.572645
0.570666
0.574691
0.584039
0.597008
0.610069
0.619454
0.621969
0.61571
0.600426
0.577401
0.548865
0.517171
0.484078
0.450481
0.416488
0.381938
0.346784
0.311419
0.276874
0.244846
0.217559
0.197494
0.187025
0.189069
0.207538
0.246382
0.308191
0.388243
0.467587
0.525118
0.543273
0.513854
0.442055
0.346333
0.253032
0.187438
0.16406
0.167662
0.191999
0.22777
0.264316
0.292713
0.30848
0.313067
0.313577
0.320879
0.346747
0.39902
0.475503
0.577644
0.721448
0.931839
1.19029
1.43615
1.61361
1.68111
1.6265
1.47793
1.29162
1.11895
0.982563
0.873436
0.778787
0.694907
0.62231
0.562111
0.516044
0.486942
0.471188
0.459692
0.44294
0.414292
0.372448
0.321843
0.0133121
0
0.591034
2.07198
4.49491
7.40323
9.84098
10.7883
9.75725
7.08786
3.73781
0.7736
-1.07794
-1.62411
-1.16429
-0.293859
0.434912
0.803936
0.868515
0.881225
0.889564
0.894794
0.898718
0.903508
0.911251
0.923442
0.940648
0.96194
0.986105
1.01233
1.04002
1.06907
1.09994
1.13366
1.17159
1.2152
1.26574
1.32415
1.39111
1.46683
1.55129
1.64433
1.74554
1.85541
1.97438
2.09626
2.21002
2.30411
2.37078
2.4099
2.42996
2.44573
2.47332
2.52442
2.59877
2.68767
2.78327
2.87947
2.96997
3.05004
3.11736
3.17231
3.21763
3.25772
3.29772
3.34986
3.48165
3.74984
4.11736
4.50398
4.74535
4.71161
4.42921
4.05303
3.71857
3.45075
3.23397
3.05235
2.88297
2.72021
2.5622
2.40798
2.25669
2.1079
1.96173
1.81904
1.6813
1.55032
1.42789
1.31542
1.21369
1.12285
1.04243
0.971702
0.910484
0.859633
0.820108
0.79359
0.78199
0.786783
0.808362
0.847386
0.903211
0.969585
1.03824
1.1002
1.14611
1.16936
1.1665
1.13784
1.08774
1.02434
0.958326
0.900835
0.860779
0.83977
0.841326
0.858486
0.880099
0.894749
0.894565
0.877627
0.848047
0.813767
0.783077
0.76136
0.746869
0.737691
0.731363
0.725628
0.719506
0.713845
0.7112
0.715087
0.728892
0.753869
0.790017
0.83677
0.890804
0.947204
0.999607
1.04214
1.07096
1.08504
1.0863
1.079
1.06829
1.05844
1.05133
1.04582
1.03875
1.02669
1.00812
0.985001
0.96312
0.950874
0.956963
0.987901
1.04307
1.12157
1.21994
1.33339
1.45637
1.58404
1.71393
1.8431
1.96596
2.075
2.16006
2.21028
2.21753
2.17976
2.1024
1.99726
1.87917
1.7614
1.64981
1.54358
1.43975
1.33518
1.22627
1.10939
0.981513
0.840721
0.682711
0.508944
0
-0.324109
0.0889889
1.59633
4.26591
7.66173
10.8106
12.5507
12.1512
9.76441
6.33987
3.06982
0.799253
-0.227571
-0.259174
0.225481
0.515718
0.798351
1.07143
1.32497
1.55152
1.74816
1.91042
2.02937
2.10168
2.12585
2.1027
2.03722
1.94152
1.83647
1.74896
1.70477
1.71432
1.75975
1.82631
1.9087
2.00132
2.09826
2.19388
2.2821
2.35835
2.41995
2.46609
2.49799
2.51895
2.53412
2.54989
2.57285
2.60869
2.65982
2.72635
2.80731
2.90165
3.00812
3.12539
3.25261
3.38949
3.53903
3.71876
3.95234
4.21045
4.43595
4.5686
4.57936
4.48648
4.34399
4.21639
4.15501
4.16036
4.19318
4.23945
4.28638
4.32067
4.33066
4.30764
4.24613
4.14317
3.99714
3.80692
3.5733
3.3013
3.00174
2.68449
2.35597
2.02255
1.69099
1.36772
1.05809
0.765829
0.492763
0.238832
0.00244293
-0.218945
-0.428131
-0.627507
-0.818535
-1.00149
-1.17548
-1.33874
-1.48902
-1.62418
-1.74257
-1.84339
-1.92692
-1.99446
147
341
527
718
911
1094
1279
1467
1649
1834
2018
2195
2373
2552
2733
2910
3096
3284
3466
3652
3533
3706
0
0
0
0
0
0
0
0
0
0
0
0
0
0
0
0
0
0
0
0
0
0
0
0
0
0
0
0
0
0
0
0
0
0
0
0
0
0
0
0
0
0
0
0
0
0
0
0
0
0
0
0
0
0
0
0
0
0
0
0
0
0
0
0
0
0
0
0
0
0
0
0
0
0
0
0
0
0
0
0
0
0
0
0
0
0
0
0
0
0
0
0
0
0
0
0
0
0
0
0
0
0
0
0
0
0
0
0
0
0
0
0
0
0
0
0
0
0
0
0
0
0
0
0
0
0
0
0
0
0
0
0
0
0
0
0
0
0
0
0
0
0
0
0
0
0
0
0
0
0
0
0
0
0
0
0
0
0
0
0
0
0
0
0
0
0
0
0
0
0
0
0
0
0
0
0
0
0
0
0
0
0
0
0
0
0
0
0
0
0
0
0
0
0
0
0
0
0
0
0
0
0
0
0
0
0
0
0
0
0
0
0
0
0
0
0
0
0
0
0
0
0
0
0
0
0
0
0
0
0
0
0
0
0
0
0
0
0
0
0
0
0
0
0
0
0
0
0
0
0
0
0
0
0
0
0
0
0
0
0
0
0
0
0
0
0
0
0
0
0
0
0
0
0
0
0
0
0
0
0
0
0
0
0
0
0
0
0
0
0
0
0
0
0
0
0
0
0
0
0
0
0
0
0
0
0
0
0
0
0
0
0
0
0
0
0
0
0
0
0
0
0
0
0
0
0
0
0
0
0
0
0
0
0
0
0
0
0
0
0
0
0
0
0
0
0
0
0
0
0
0
0
0
0
0
0
0
0
0
0
0
0
0
0
0
0
0
0
0
0
0
0
0
0
0
0
0
0
0
0
0
0
0
0
0
0
0
0
0
0
0
0
0
0
0
0
0
0
0
0
0
0
0
0
0
0
0
0
0
0
0
0
0
0
0
0
0
0
0
0
0
0
0
0
0
0
0
0
0
0
0
0
0
0
0
0
0
0
0
0
0
0
0
0
0
0
0
0
0
0
0
0
0
0
0
0
0
0
0
0
0
0
0
0
0
0
0
0
0
0
0
0
0
0
0
0
0
0
0
0
0
0
0
0
0
0
0
0
0
0
0
0
0
0
0
0
0
0
0
0
0
0
0
0
0
0
0
0
0
0
0
0
0
0
0
0
0
0
0
0
0
0
0
0
0
0
0
0
0
0
0
0
0
0
0
0
0
0
0
0
0
0
0
0
0
0
0
0
0
0
0
0
0
0
0
0
0
0
0
0
0
0
0
0
0
0
0
0
0
0
0
0
0
0
0
0
0
0
0
0
0
0
0
0
0
0
0
0
0
0
0
0
0
0
0
0
0
0
0
0
0
0
0
0
0
0
0
0
0
0
0
0
0
0
0
0
0
0
0
0
0
0
0
0
0
0
0
0
0
0
0
0
0
0
0
0
0
0
0
0
0
0
0
0
0
0
0
0
0
0
0
0
0
0
0
0
0
0
0
0
0
0
0
0
0
0
0
0
0
0
0
0
0
0
0
0
0
0
0
0
0
0
0
0
0
0
0
0
0
0
0
0
0
0
0
0
0
0
0
0
0
0
0
0
0
0
0
0
0
0
0
0
0
0
0
0
0
0
0
0
0
0
0
0
0
0
0
0
0
0
0
0
0
0
0
0
0
0
0
0
0
0
0
0
0
0
0
0
0
0
0
0
0
0
0
0
0
0
0
0
0
0
0
0
0
0
0
0
0
0
0
0
0
0
0
0
0
0
0
0
0
0
0
0
0
0
0
0
0
0
0
0
0
0
0
0
0
0
0
0
0
0
0
0
0
0
0
0
0
0
0
0
0
0
0
0
0
0
0
0
0
0
0
0
0
0
0
0
0
0
0
0
0
0
0
0
0
0
0
0
0
0
0
0
0
0
0
0
0
0
0
0
0
0
0
0
0
0
0
0
0
0
0
0
0
0
0
0
0
0
0
0
0
0
0
0
0
0
0
0
0
0
0
0
0
0
0
0
0
0
0
0
0
0
0
0
0
0
0
0
0
0
0
0
0
0
0
0
0
0
0
0
0
0
0
0
0
0
0
0
0
0
0
0
0
0
0
0
0
0
0
0
0
0
0
0
0
0
0
0
0
0
0
0
0
0
0
0
0
0
0
0
0
0
0
0
0
0
0
0
0
0
0
0
0
0
0
0
0
0
0
0
0
0
0
0
0
0
0
0
0
0
0
0
0
0
0
0
0
0
0
0
0
0
0
0
0
0
0
0
0
0
0
0
0
0
0
0
0
0
0
0
0
0
0
0
0
0
0
0
0
0
0
0
0
0
0
0
0
0
0
0
0
0
0
0
0
0
0
0
0
0
0
0
0
0
0
0
0
0
0
0
0
0
0
0
0
0
0
0
0
0
0
0
0
0
0
0
0
0
0
0
0
0
0
0
0
0
0
0
0
0
0
0
0
0
0
0
0
0
0
0
0
0
0
0
0
0
0
0
0
0
0
0
0
0
0
0
0
0
0
0
0
0
0
0
0
0
0
0
0
0
0
0
0
0
0
0
0
0
0
0
0
0
0
0
0
0
0
0
0
0
0
0
0
0
0
0
0
0
0
0
0
0
0
0
0
0
0
0
0
0
0
0
0
0
0
0
0
0
0
0
0
0
0
0
0
0
0
0
0
0
0
0
0
0
0
0
0
0
0
0
0
0
0
0
0
0
0
0
0
0
0
0
0
0
0
0
0
0
0
0
0
0
0
0
0
0
0
0
0
0
0
0
0
0
0
0
0
0
0
0
0
0
0
0
0
0
0
0
0
0
0
0
0
0
0
0
0
0
0
0
0
0
0
0
0
0
0
0
0
0
0
0
0
0
0
0
0
0
0
0
0
0
0
0
0
0
0
0
0
0
0
0
0
0
0
0
0
0
0
0
0
0
0
0
0
0
0
0
0
0
0
0
0
0
0
0
0
0
0
0
0
0
0
0
0
0
0
0
0
0
0
0
0
0
0
0
0
0
0
0
0
0
0
0
0
0
0
0
0
0
0
0
0
0
0
0
0
0
0
0
0
0
0
0
0
0
0
0
0
0
0
0
0
0
0
0
0
0
0
0
0
0
0
0
0
0
0
0
0
0
0
0
0
0
0
0
0
0
0
0
0
0
0
0
0
0
0
0
0
0
0
0
0
0
0
0
0
0
0
0
0
0
0
0
0
0
0
0
0
0
0
0
0
0
0
0
0
0
0
0
0
0
0
0
0
0
0
0
0
0
0
0
0
0
0
0
0
0
0
0
0
0
0
0
0
0
0
0
0
0
0
0
0
0
0
0
0
0
0
0
0
0
0
0
0
0
0
0
0
0
0
0
0
0
0
0
0
0
0
0
0
0
0
0
0
0
0
0
0
0
0
0
0
0
0
0
0
0
0
0
0
0
0
0
0
0
0
0
0
0
0
0
0
0
0
0
0
0
0
0
0
0
0
0
0
0
0
0
0
0
0
0
0
0
0
0
0
0
0
0
0
0
0
0
0
0
0
0
0
0
0
0
0
0
0
0
0
0
0
0
0
0
0
0
0
0
0
0
0
0
0
0
0
0
0
0
0
0
0
0
0
0
0
0
0
0
0
0
0
0
0
0
0
0
0
0
0
0
0
0
0
0
0
0
0
0
0
0
0
0
0
0
0
0
0
0
0
0
0
0
0
0
0
0
0
0
0
0
0
0
0
0
0
0
0
0
0
0
0
0
0
0
0
0
0
0
0
0
0
0
0
0
0
0
0
0
0
0
0
0
0
0
0
0
0
0
0
0
0
0
0
0
0
0
0
0
0
0
0
0
0
0
0
0
0
0
0
0
0
0
0
0
0
0
0
0
0
0
0
0
0
0
0
0
0
0
0
0
0
0
0
0
0
0
0
0
0
0
0
0
0
0
0
0
0
0
0
0
0
0
0
0
0
0
0
0
0
0
0
0
0
0
0
0
0
0
0
0
0
0
0
0
0
0
0
0
0
0
0
0
0
0
0
0
0
0
0
0
0
0
0
0
0
0
0
0
0
0
0
0
0
0
0
0
0
0
0
0
0
0
0
0
0
0
0
0
0
0
0
0
0
0
0
0
0
0
0
0
0
0
0
0
0
0
0
0
0
0
0
0
0
0
0
0
0
0
0
0
0
0
0
0
0
0
0
0
0
0
0
0
0
0
0
0
0
0
0
0
0
0
0
0
0
0
0
0
0
0
0
0
0
0
0
0
0
0
0
0
0
0
0
0
0
0
0
0
0
0
0
0
0
0
0
0
0
0
0
0
0
0
0
0
0
0
0
0
0
0
0
0
0
0
0
0
0
0
0
0
0
0
0
0
0
0
0
0
0
0
0
0
0
0
0
0
0
0
0
0
0
0
0
0
0
0
0
0
0
0
0
0
0
0
0
0
0
0
0
0
0
0
0
0
0
0
0
0
0
0
0
0
0
0
0
0
0
0
0
0
0
0
0
0
0
0
0
0
0
0
0
0
0
0
0
0
0
0
0
0
0
0
0
0
0
0
0
0
0
0
0
0
0
0
0
0
0
0
0
0
0
0
0
0
0
0
0
0
0
0
0
0
0
0
0
0
0
0
0
0
0
0
0
0
0
0
0
0
0
0
0
0
0
0
0
0
0
0
0
0
0
0
0
0
0
0
0
0
0
0
0
0
0
0
0
0
0
0
0
0
0
0
0
0
0
0
0
0
0
0
0
0
0
0
0
0
0
0
0
0
0
0
0
0
0
0
0
0
0
0
0
0
0
0
0
0
0
0
0
0
0
0
0
0
0
0
0
0
0
0
0
0
0
0
0
0
0
0
0
0
0
0
0
0
0
0
0
0
0
0
0
0
0
0
0
0
0
0
0
0
0
0
0
0
0
0
0
0
0
0
0
0
0
0
0
0
0
0
0
0
0
0
0
0
0
0
0
0
0
0
0
0
0
0
0
0
0
0
0
0
0
0
0
0
0
0
0
0
0
0
0
0
0
0
0
0
0
0
0
0
0
0
0
0
0
0
0
0
0
0
0
0
0
0
0
0
0
0
0
0
0
0
0
0
0
0
0
0
0
0
0
0
0
0
0
0
0
0
0
0
0
0
0
0
0
0
0
0
0
0
0
0
0
0
0
0
0
0
0
0
0
0
0
0
0
0
0
0
0
0
0
0
0
0
0
0
0
0
0
0
0
0
0
0
0
0
0
0
0
0
0
0
0
0
0
0
0
0
0
0
0
0
0
0
0
0
0
0
0
0
0
0
0
0
0
0
0
0
0
0
0
0
0
0
0
0
0
0
0
0
0
0
0
0
0
0
0
0
0
0
0
0
0
0
0
0
0
0
0
0
0
0
0
0
0
0
0
0
0
0
0
0
0
0
0
0
0
0
0
0
0
0
0
0
0
0
0
0
0
0
0
0
0
0
0
0
0
0
0
0
0
0
0
0
0
0
0
0
0
0
0
0
0
0
0
0
0
0
0
0
0
0
0
0
0
0
0
0
0
0
0
0
0
0
0
0
0
0
0
0
0
0
0
0
0
0
0
0
0
0
0
0
0
0
0
0
0
0
0
0
0
0
0
0
0
0
0
0
0
0
0
0
0
0
0
0
0
0
0
0
0
0
0
0
0
0
0
0
0
0
0
0
0
0
0
0
0
0
0
0
0
0
0
0
0
0
0
0
0
0
0
0
0
0
0
0
0
0
0
0
0
0
0
0
0
0
0
0
0
0
0
0
0
0
0
0
0
0
0
0
0
0
0
0
0
0
0
0
0
0
0
0
0
0
0
0
0
0
0
0
0
0
0
0
0
0
0
0
0
0
0
0
0
0
0
0
0
0
0
0
0
0
0
0
0
0
0
0
0
0
0
0
0
0
0
0
0
0
0
0
0
0
0
0
0
0
0
0
0
0
0
0
0
0
0
0
0
0
0
0
0
0
0
0
0
0
0
0
0
0
0
0
0
0
0
0
0
0
0
0
0
0
0
0
0
0
0
0
0
0
0
0
0
0
0
0
0
0
0
0
0
0
0
0
0
0
0
0
0
0
0
0
0
0
0
0
0
0
0
0
0
0
0
0
0
0
0
0
0
0
0
0
0
0
0
0
0
0
0
0
0
0
0
0
0
0
0
0
0
0
0
0
0
0
0
0
0
0
0
0
0
0
0
0
0
0
0
0
0
0
0
0
0
0
0
0
0
0
0
0
0
0
0
0
0
0
0
0
0
0
0
0
0
0
0
0
0
0
0
0
0
0
0
0
0
0
0
0
0
0
0
0
0
0
0
0
0
0
0
0
0
0
0
0
0
0
0
0
0
0
0
0
0
0
0
0
0
0
0
0
0
0
0
0
0
0
0
0
0
0
0
0
0
0
0
0
0
0
0
0
0
0
0
0
0
0
0
0
0
0
0
0
0
0
0
0
0
0
0
0
0
0
0
0
0
0
0
0
0
0
0
0
0
0
0
0
0
0
0
0
0
0
0
0
0
0
0
0
0
0
0
0
0
0
0
0
0
0
0
0
0
0
0
0
0
0
0
0
0
0
0
0
0
0
0
0
0
0
0
0
0
0
0
0
0
0
0
0
0
0
0
0
0
0
0
0
0
0
0
0
0
0
0
0
0
0
0
0
0
0
0
0
0
0
0
0
0
0
0
0
0
0
0
0
0
0
0
0
0
0
0
0
0
0
0
0
0
0
0
0
0
0
0
0
0
0
0
0
0
0
0
0
0
0
0
0
0
0
0
0
0
0
0
0
0
0
0
0
0
0
0
0
0
0
0
0
0
0
0
0
0
0
0
0
0
0
0
0
0
0
0
0
0
0
0
0
0
0
0
0
0
0
0
0
0
0
0
0
0
0
0
0
0
0
0
0
0
0
0
0
0
0
0
0
0
0
0
0
0
0
0
0
0
0
0
0
0
0
0
0
0
0
0
0
0
0
0
0
0
0
0
0
0
0
0
0
0
0
0
0
0
0
0
0
0
0
0
0
0
0
0
0
0
0
0
0
0
0
0
0
0
0
0
0
0
0
0
0
0
0
0
0
0
0
0
0
0
0
0
0
0
0
0
0
0
0
0
0
0
0
0
0
0
0
0
0
0
0
0
0
0
0
0
0
0
0
0
0
0
0
0
0
0
0
0
0
0
0
0
0
0
0
0
0
0
0
0
0
0
0
0
0
0
0
0
0
0
0
0
0
0
0
0
0
0
0
0
0
0
0
0
0
0
0
0
0
0
0
0
0
0
0
0
0
0
0
0
0
0
0
0
0
0
0
0
0
0
0
0
0
0
0
0
0
0
0
0
0
0
0
0
0
0
0
0
0
0
0
0
0
0
0
0
0
0
0
0
0
0
0
0
0
0
0
0
0
0
0
0
0
0
0
0
0
0
0
0
0
0
0
0
0
0
0
0
0
0
0
0
0
0
0
0
0
0
0
0
0
0
0
0
0
0
0
0
0
0
0
0
0
0
0
0
0
0
0
0
0
0
0
0
0
0
0
0
0
0
0
0
0
0
0
0
0
0
0
0
0
0
0
0
0
0
0
0
0
0
0
0
0
0
0
0
0
0
0
0
0
0
0
0
0
0
0
0
0
0
0
0
0
0
0
0
0
0
0
0
0
0
0
0
0
0
0
0
0
0
0
0
0
0
0
0
0
0
0
0
0
0
0
0
0
0
0
0
0
0
0
0
0
0
0
0
0
0
0
0
0
0
0
0
0
0
0
0
0
0
0
0
0
0
0
0
0
0
0
0
0
0
0
0
0
0
0
0
0
0
0
0
0
0
0
0
0
0
0
0
0
0
0
0
0
0
0
0
0
0
0
0
0
0
0
0
0
0
0
0
0
0
0
0
0
0
0
0
0
0
0
0
0
0
0
0
0
0
0
0
0
0
0
0
0
0
0
0
0
0
0
0
0
0
0
0
0
0
0
0
0
0
0
0
0
0
0
0
0
0
0
0
0
0
0
0
0
0
0
0
0
0
0
0
0
0
0
0
0
0
0
0
0
0
0
0
0
0
0
0
0
0
0
0
0
0
0
0
0
0
0
0
0
0
0
0
0
0
0
0
0
0
0
0
0
0
0
0
0
0
0
0
0
0
0
0
0
0
0
0
0
0
0
0
0
0
0
0
0
0
0
0
0
0
0
0
0
0
0
0
0
0
0
0
0
0
0
0
0
0
0
0
0
0
0
0
0
0
0
0
0
0
0
0
0
0
0
0
0
0
0
0
0
0
0
0
0
0
0
0
0
0
0
0
0
0
0
0
0
0
0
0
0
0
0
0
0
0
0
0
0
0
0
0
0
0
0
0
0
0
0
0
0
0
0
0
0
0
0
0
0
0
0
0
0
0
0
0
0
0
0
0
0
0
0
0
0
0
0
0
0
0
0
0
0
0
0
0
0
0
0
0
0
0
