2.9294
3.14848
3.37784
3.61403
3.85328
4.09206
4.32758
4.55805
4.78221
4.99857
5.20543
5.40047
5.57871
5.73068
5.84468
5.9065
5.90121
5.81563
5.6423
5.38407
5.05656
4.6855
4.30002
3.91727
3.54098
3.17239
2.81415
2.46903
2.14008
1.83063
1.54391
1.28259
1.0484
0.841574
0.660899
0.504072
0.369413
0.256888
0.165131
0.0929081
0.0399456
0.00618629
-0.00902519
-0.0074791
0.00782089
0.0330441
0.0642223
0.0978336
0.131829
0.165518
0.199318
0.234504
0.272784
0.315786
0.364585
0.419391
0.479269
0.54262
0.607474
0.671666
0.733029
0.789444
0.839052
0.880634
0.913477
0.937452
0.953079
0.961544
0.964642
0.964569
0.963627
0.963852
0.966601
0.972412
0.981246
0.99218
1.00382
1.01481
1.02416
1.03154
1.0372
1.04179
1.046
1.05033
1.05491
1.05972
1.06478
1.07047
1.07772
1.08803
1.10326
1.1252
1.15498
1.1926
1.23688
1.28594
1.33645
1.38437
1.42575
1.45718
1.47606
1.48049
1.46894
1.43998
1.39199
1.3242
1.23602
1.12592
0.984166
0.806771
0.611487
0.424036
0.265595
0.146962
0.0684139
0.0226082
0
0.0208542
0.0685253
0.369827
1.02009
2.12564
3.69612
5.5664
7.36674
8.59646
8.80827
7.82197
5.84456
3.41155
1.16806
-0.394099
-1.10536
-1.11863
-0.949013
-0.790764
-0.653162
-0.541787
-0.457978
-0.396254
-0.352423
-0.321289
-0.297456
-0.275853
-0.252879
-0.22569
-0.192007
-0.150136
-0.0989742
-0.0380943
0.0325401
0.11258
0.201458
0.298531
0.403275
0.515385
0.634784
0.761609
0.89618
1.03901
1.19081
1.35254
1.52539
1.71068
1.90967
2.12321
2.35145
2.59354
2.84747
3.11111
3.38132
3.65108
3.90826
4.13765
4.32679
4.46991
4.56282
4.60142
4.58178
4.50167
4.36235
4.16946
3.93221
3.66292
3.37613
3.08231
2.78692
2.49315
2.20409
1.9229
1.65266
1.39625
1.15622
0.934689
0.733283
0.553193
0.395184
0.259613
0.146363
0.0547676
-0.0162785
-0.0683685
-0.104141
-0.127452
-0.142327
-0.152433
-0.160605
-0.168567
-0.176912
-0.185338
-0.193024
-0.199026
-0.202612
-0.203218
-0.200487
-0.194204
-0.184257
-0.17067
-0.153691
-0.133863
-0.112076
-0.0894844
-0.0673656
-0.0469452
-0.0292538
-0.0150452
-0.00478134
0.00134659
0.00347137
0.00196686
-0.00259018
-0.00937691
-0.0173309
-0.0252218
-0.0317741
-0.0357981
-0.0362976
-0.0325201
-0.0239601
-0.0103052
0.00867195
0.0329895
0.0624668
0.096629
0.134929
0.176246
0.218954
0.261609
0.303467
0.344899
0.387542
0.434059
0.488342
0.558179
0.652216
0.765146
0.876647
0.96238
1.00234
0.98721
0.920942
0.819173
0.704138
0.597322
0.508859
0.43477
0.369028
0.307812
0.248737
0.18954
0.128651
0.0656393
0
0.0555489
0.369766
1.08951
2.34035
4.09839
6.08664
7.79311
8.65321
8.31353
6.82052
4.61496
2.33327
0.534389
-0.500476
-0.811332
-0.66004
-0.585746
-0.519352
-0.465269
-0.424474
-0.394339
-0.369669
-0.344493
-0.31394
-0.27684
-0.233819
-0.185752
-0.134489
-0.0818275
-0.0288067
0.0247389
0.0802544
0.140167
0.207317
0.284303
0.372827
0.473066
0.584482
0.706392
0.838082
0.979068
1.12933
1.28939
1.46013
1.64255
1.83741
2.04483
2.26406
2.49336
2.73003
2.97067
3.21153
3.44884
3.67877
3.89675
4.09643
4.26998
4.41157
4.51605
4.57615
4.58355
4.53088
4.4136
4.23136
3.98892
3.69652
3.37361
3.03968
2.70662
2.38171
2.0711
1.77933
1.50918
1.26183
1.03732
0.83511
0.654527
0.495177
0.357033
0.240323
0.145266
0.0717184
0.0187455
-0.0155309
-0.0338234
-0.039353
-0.0360513
-0.0293333
-0.0247361
-0.0266066
-0.037386
-0.0571993
-0.0839117
-0.113694
-0.141967
-0.164449
-0.17876
-0.184182
-0.180419
-0.168086
-0.148419
-0.123115
-0.0938146
-0.0623311
-0.0308569
-0.00167972
0.0230393
0.0415145
0.0525966
0.0559588
0.0521435
0.0424474
0.0286781
0.012903
-0.0030278
-0.0176734
-0.0299939
-0.0393171
-0.0452402
-0.0475732
-0.0462783
-0.0414632
-0.033398
-0.0225434
-0.00976677
0.00364704
0.0163055
0.0270644
0.0354185
0.0418193
0.0478053
0.055882
0.0691558
0.0907948
0.123113
0.167196
0.223129
0.290124
0.366661
0.450019
0.536514
0.621813
0.700814
0.767304
0.815175
0.839577
0.836707
0.80468
0.744441
0.660201
0.558966
0.449126
0.338554
0.23239
0.135348
0.050561
-0.0252123
-0.0957512
-0.163414
-0.228311
0
0.555184
1.53739
3.02072
4.95623
7.06637
8.83849
9.68816
9.23446
7.52521
5.0548
2.54484
0.614609
-0.463768
-0.799525
-0.72362
-0.677568
-0.631783
-0.58603
-0.539757
-0.492386
-0.443546
-0.39306
-0.341123
-0.288257
-0.235172
-0.18259
-0.131074
-0.0810447
-0.032785
0.0136905
0.058771
0.10338
0.149091
0.198158
0.253409
0.318014
0.395171
0.487785
0.598115
0.727712
0.877677
1.04871
1.24118
1.45515
1.69033
1.94591
2.22034
2.5112
2.81505
3.12753
3.44419
3.75636
4.04518
4.29307
4.48517
4.61177
4.67032
4.66537
4.60584
4.50063
4.35478
4.16844
3.94887
3.7042
3.44041
3.1624
2.87523
2.58429
2.29523
2.01376
1.74511
1.49354
1.26197
1.05184
0.863166
0.694816
0.544971
0.411627
0.293083
0.188454
0.0971676
0.0191385
-0.0455264
-0.0968345
-0.135111
-0.161045
-0.175591
-0.179801
-0.174762
-0.161532
-0.141041
-0.114379
-0.0829594
-0.0485047
-0.0132355
0.0203397
0.0498463
0.0733963
0.0898622
0.0989965
0.101374
0.0981861
0.0909668
0.0813345
0.0707811
0.060501
0.051429
0.0442749
0.0395463
0.0375597
0.0384328
0.0420627
0.0481024
0.0559547
0.0647845
0.0735366
0.0810091
0.0860205
0.0875725
0.0850113
0.0781594
0.0673848
0.0535881
0.0381073
0.022556
0.00861945
-0.00219369
-0.0086925
-0.0100066
-0.00569487
0.004249
0.0194321
0.0391241
0.0623285
0.087848
0.114358
0.140412
0.164458
0.184982
0.200656
0.210481
0.213963
0.211267
0.203319
0.191821
0.17915
0.168133
0.161691
0.162429
0.172377
0.192922
0.224689
0.267575
0.32092
0.383737
0.454844
0.533178
0.618257
0.709706
0.805742
0.900154
0.982548
1.04103
1.065
1.04814
0.990322
0.897693
0.780766
0.651372
0.519732
0.391755
0.271573
0.162666
0.0657016
-0.0198741
-0.0961267
-0.166309
0
0.443975
1.33546
2.80417
4.79865
6.98662
8.79406
9.61452
9.09547
7.33556
4.8628
2.39598
0.526572
-0.500223
-0.803514
-0.713129
-0.722509
-0.733199
-0.745276
-0.757519
-0.767326
-0.771074
-0.764814
-0.745943
-0.712812
-0.664579
-0.601781
-0.526174
-0.4404
-0.347622
-0.251084
-0.153541
-0.0571637
0.0365993
0.127144
0.214781
0.300738
0.387099
0.476666
0.572748
0.678912
0.798715
0.935442
1.09185
1.26992
1.47054
1.69323
1.93583
2.19437
2.4631
2.73485
3.00142
3.2545
3.48676
3.6923
3.86453
3.99664
4.08649
4.13469
4.14202
4.10897
4.03595
3.92369
3.77373
3.58878
3.3727
3.13289
2.87692
2.6102
2.33743
2.06337
1.79286
1.53063
1.28115
1.04839
0.835606
0.645109
0.478136
0.334857
0.214479
0.115433
0.0356181
-0.0272381
-0.0754641
-0.111601
-0.138152
-0.157191
-0.170199
-0.177994
-0.180815
-0.178584
-0.171287
-0.15883
-0.142156
-0.12403
-0.107891
-0.0969673
-0.0933525
-0.0973887
-0.107578
-0.121041
-0.134319
-0.144246
-0.149157
-0.148544
-0.142324
-0.130737
-0.114369
-0.0940652
-0.0708665
-0.0459807
-0.0209095
0.00242884
0.0220215
0.0360311
0.0431016
0.04261
0.0347703
0.0205475
0.00141194
-0.0209783
-0.0450218
-0.0694223
-0.0932814
-0.115914
-0.13673
-0.155146
-0.170517
-0.182098
-0.189044
-0.190448
-0.185459
-0.173403
-0.153926
-0.127107
-0.0935084
-0.0541176
-0.0101701
0.0371071
0.086765
0.13831
0.191758
0.247466
0.305822
0.366909
0.430333
0.494237
0.555218
0.609112
0.651719
0.67947
0.689845
0.681512
0.654293
0.609125
0.548416
0.476447
0.395888
0.312063
0.230835
0.157476
0.0958345
0.0478632
0.0136391
-0.00823395
-0.0200773
-0.0246914
0
0.320911
1.03587
2.23725
3.88854
5.76598
7.46754
8.51631
8.53999
7.4459
5.49356
3.20822
1.16729
-0.22861
-0.879375
-0.950488
-0.8271
-0.712652
-0.614653
-0.537826
-0.48352
-0.445117
-0.419415
-0.402683
-0.390933
-0.380373
-0.367784
-0.350637
-0.326866
-0.294658
-0.252455
-0.198961
-0.133207
-0.0546417
0.0367923
0.140614
0.255931
0.381564
0.516216
0.658691
0.808095
0.964024
1.12669
1.297
1.47646
1.66703
1.87075
2.08934
2.32377
2.57385
2.8381
3.11538
3.40446
3.70035
3.98795
4.24285
4.45243
4.60786
4.69541
4.70111
4.61962
4.46021
4.24614
4.00669
3.7636
3.51844
3.2668
3.00915
2.74694
2.48167
2.21582
1.95306
1.6978
1.45449
1.2269
1.01771
0.828222
0.658513
0.507817
0.374962
0.258769
0.158287
0.0727594
0.00152845
-0.0560092
-0.100722
-0.133941
-0.157118
-0.171621
-0.17855
-0.178677
-0.172514
-0.160506
-0.14325
-0.121676
-0.0970687
-0.0708494
-0.044435
-0.0189887
0.0048067
0.0268871
0.0477873
0.0684793
0.0900881
0.113619
0.139789
0.168185
0.196333
0.220384
0.236201
0.240557
0.232147
0.212058
0.183566
0.151347
0.120377
0.0944238
0.0751649
0.0629157
0.0572801
0.057446
0.062382
0.0710002
0.082355
0.0957707
0.110862
0.127467
0.145543
0.165062
0.185978
0.208255
0.231966
0.257416
0.285229
0.31636
0.352003
0.393393
0.441554
0.497043
0.559759
0.628883
0.702982
0.780081
0.85791
0.93409
1.00596
1.06992
1.12117
1.15561
1.16914
1.15813
1.12034
1.05583
0.967346
0.860001
0.739605
0.612367
0.485255
0.365388
0.256628
0.158287
0.0717043
0
-0.0199039
0.298455
1.04558
2.32928
4.1063
6.10861
7.86627
8.85618
8.71853
7.4303
5.33619
3.01396
1.04193
-0.215613
-0.70561
-0.633233
-0.507139
-0.390793
-0.292151
-0.215752
-0.16198
-0.127238
-0.104923
-0.0869984
-0.0657983
-0.0362523
0.00338852
0.0529312
0.110393
0.171108
0.230428
0.285407
0.33595
0.385054
0.438075
0.501286
0.580251
0.67721
0.790966
0.920001
1.06288
1.21806
1.38432
1.56117
1.74889
1.94839
2.16073
2.38665
2.62599
2.87741
3.13817
3.40419
3.67022
3.92787
4.16461
4.36964
4.53453
4.65384
4.72539
4.7496
4.72814
4.6625
4.5529
4.3984
4.2023
3.97006
3.70785
3.42253
3.12199
2.81486
2.5096
2.21426
1.93586
1.67984
1.44969
1.24697
1.07151
0.921819
0.795609
0.690239
0.603119
0.531997
0.474972
0.430348
0.396547
0.372274
0.355816
0.344791
0.336733
0.32939
0.32104
0.310709
0.298256
0.284298
0.270035
0.257022
0.246799
0.240833
0.24028
0.245725
0.257205
0.274164
0.294369
0.314678
0.331967
0.343928
0.349657
0.349832
0.346402
0.341905
0.338655
0.337923
0.33978
0.34365
0.348513
0.353216
0.356824
0.358871
0.359429
0.35902
0.35839
0.358214
0.358813
0.360051
0.361133
0.360695
0.357282
0.349895
0.338481
0.324201
0.309329
0.296813
0.289608
0.290012
0.298535
0.315135
0.339163
0.369584
0.405344
0.445598
0.490083
0.538953
0.592559
0.651199
0.714963
0.783586
0.856176
0.930772
1.00359
1.06864
1.11945
1.14975
1.15444
1.13055
1.07798
0.99951
0.900377
0.787184
0.6668
0.545469
0.427764
0.318599
0.222656
0.142594
0.0796403
0.0331503
0
-0.0273014
0.22008
0.754762
1.71334
3.17532
5.05223
7.02212
8.58216
9.23419
8.71539
7.13805
4.94727
2.72131
0.932756
-0.200759
-0.72153
-0.813883
-0.736697
-0.661581
-0.59198
-0.530679
-0.479424
-0.437395
-0.402722
-0.373431
-0.347208
-0.32132
-0.292963
-0.259626
-0.219396
-0.171264
-0.114989
-0.0508755
0.0203857
0.0979641
0.181153
0.269583
0.363353
0.463076
0.569854
0.685201
0.810931
0.949039
1.10155
1.27036
1.457
1.66247
1.88692
2.12955
2.38842
2.66047
2.94155
3.22665
3.50988
3.78164
4.02796
4.2384
4.40481
4.52243
4.59035
4.61078
4.58738
4.52333
4.41983
4.27751
4.10111
3.89453
3.66042
3.40189
3.12379
2.83269
2.53558
2.23957
1.95181
1.67895
1.42674
1.20013
1.00248
0.835444
0.699112
0.592195
0.512213
0.455803
0.419067
0.397933
0.388489
0.387226
0.391249
0.398299
0.406683
0.415184
0.422877
0.429041
0.433108
0.434676
0.433568
0.429897
0.424103
0.416934
0.409379
0.402563
0.397593
0.395438
0.396833
0.40215
0.411307
0.42363
0.437615
0.450797
0.460258
0.463283
0.45801
0.443983
0.422429
0.396129
0.368888
0.344678
0.32663
0.315879
0.312703
0.315577
0.321626
0.327725
0.331392
0.331409
0.327996
0.322524
0.316917
0.312972
0.311639
0.312928
0.316332
0.320987
0.325763
0.329519
0.331326
0.33061
0.327209
0.321338
0.313476
0.304225
0.294168
0.283812
0.273634
0.264236
0.256564
0.252108
0.25303
0.261992
0.281873
0.315312
0.364205
0.429281
0.509852
0.604137
0.710469
0.824619
0.938091
1.03998
1.12016
1.17035
1.1849
1.1614
1.101
1.0083
0.89082
0.757785
0.618934
0.481825
0.351865
0.235913
0.14007
0.0669903
0.0195299
0
0.00601177
0.0827763
0.54698
1.30548
2.4513
4.03383
5.94116
7.82999
9.18794
9.53572
8.66679
6.77781
4.39883
2.15764
0.512762
-0.397579
-0.72795
-0.734734
-0.7312
-0.718872
-0.694686
-0.657101
-0.606423
-0.544672
-0.475011
-0.400987
-0.325917
-0.252299
-0.181509
-0.114596
-0.05268
0.00344181
0.0534866
0.0979042
0.138059
0.176322
0.216056
0.261475
0.317388
0.388688
0.48013
0.595792
0.73854
0.909611
1.1084
1.33248
1.57797
1.84005
2.11357
2.39366
2.67601
2.95707
3.23383
3.50368
3.76311
4.00671
4.22754
4.41829
4.5724
4.68552
4.75453
4.77712
4.75156
4.67665
4.55211
4.37924
4.1617
3.90588
3.62263
3.32456
3.02195
2.72187
2.43026
2.15232
1.89234
1.65362
1.43849
1.24833
1.08359
0.943865
0.828146
0.734545
0.660482
0.603193
0.560069
0.529035
0.508448
0.497081
0.493928
0.497904
0.507904
0.522169
0.538499
0.554776
0.569349
0.581294
0.590408
0.596958
0.601253
0.603186
0.602028
0.59656
0.585434
0.567762
0.543666
0.514552
0.483015
0.452355
0.425872
0.405886
0.393138
0.387539
0.388057
0.392895
0.399848
0.406731
0.411894
0.414481
0.414486
0.41258
0.409783
0.407035
0.404827
0.402929
0.400234
0.395163
0.386267
0.372845
0.355324
0.335255
0.314881
0.296427
0.281351
0.269836
0.261047
0.253239
0.244532
0.233685
0.220681
0.206934
0.195052
0.188254
0.189654
0.201279
0.223692
0.257092
0.301441
0.356329
0.420934
0.494143
0.575223
0.662766
0.751789
0.834805
0.903769
0.951601
0.973452
0.967307
0.933906
0.876255
0.799081
0.709228
0.61378
0.518295
0.427139
0.343535
0.269599
0.206052
0.152331
0.106916
0.0677782
0.0327978
0
-0.031625
0.187912
0.772051
1.81989
3.33
5.1376
6.89912
8.16075
8.51283
7.76606
6.05644
3.81182
1.58778
-0.144478
-1.15391
-1.4834
-1.34864
-1.23196
-1.12959
-1.04609
-0.98343
-0.937596
-0.904862
-0.880885
-0.860594
-0.839049
-0.812372
-0.778273
-0.736099
-0.686578
-0.631155
-0.5714
-0.508648
-0.44365
-0.376353
-0.305893
-0.230727
-0.148872
-0.0581547
0.043556
0.158182
0.287318
0.432156
0.593437
0.771414
0.965828
1.1759
1.40033
1.6373
1.8845
2.13911
2.39783
2.65687
2.91148
3.15431
3.37793
3.57667
3.74646
3.8825
3.97734
4.02864
4.03575
3.99595
3.9055
3.76216
3.56754
3.32793
3.05301
2.75358
2.44291
2.12993
1.81969
1.5173
1.22821
0.958011
0.71202
0.49458
0.309105
0.159092
0.0464251
-0.0334459
-0.0886536
-0.127979
-0.159248
-0.188138
-0.217636
-0.24817
-0.278233
-0.305245
-0.32686
-0.341639
-0.348556
-0.346952
-0.336915
-0.319255
-0.295395
-0.267186
-0.236679
-0.205875
-0.176487
-0.149812
-0.126663
-0.107395
-0.0919931
-0.0801916
-0.0716316
-0.0658739
-0.0623098
-0.0601732
-0.0584835
-0.0560526
-0.0516098
-0.0439762
-0.0319704
-0.01542
0.00366097
0.0216797
0.0344368
0.0382856
0.0312222
0.013574
-0.0119196
-0.0406551
-0.067193
-0.0869265
-0.097312
-0.0977531
-0.0891798
-0.0733358
-0.0522614
-0.0282082
-0.00319843
0.0213028
0.0445522
0.0665304
0.0879759
0.110236
0.135117
0.164683
0.200995
0.245751
0.299918
0.363396
0.434788
0.511746
0.590646
0.667232
0.736898
0.794523
0.834803
0.854361
0.850961
0.823761
0.773615
0.703284
0.617372
0.52186
0.423272
0.32765
0.239859
0.163389
0.0991241
0.045619
0
-0.0334469
0.0796072
0.455321
1.2562
2.59523
4.4163
6.41069
8.05434
8.79525
8.30918
6.67791
4.37575
2.06468
0.311903
-0.619658
-0.813254
-0.603332
-0.535137
-0.473884
-0.421378
-0.377592
-0.340563
-0.306905
-0.272742
-0.234799
-0.191565
-0.142593
-0.0880018
-0.028639
0.0344603
0.100462
0.168956
0.239965
0.31377
0.39066
0.470741
0.553872
0.639843
0.728754
0.821354
0.919341
1.02546
1.14336
1.27717
1.43091
1.60778
1.80952
2.03593
2.28461
2.55106
2.829
3.11102
3.38926
3.65545
3.90178
4.1224
4.31304
4.46961
4.58734
4.66296
4.69562
4.6832
4.62282
4.51226
4.35149
4.14399
3.897
3.62083
3.32862
3.03203
2.73787
2.45099
2.17478
1.91114
1.66091
1.42431
1.20146
0.992864
0.799664
0.623603
0.466938
0.331625
0.21937
0.133245
0.0739197
0.0374315
0.0186794
0.012586
0.0151289
0.0238621
0.0377657
0.0565319
0.0798172
0.106232
0.132534
0.154432
0.167622
0.168952
0.157299
0.133889
0.101998
0.0661724
0.0312107
0.000799751
-0.0232702
-0.0406105
-0.0513458
-0.0561543
-0.056181
-0.0527727
-0.0472729
-0.0409201
-0.0348488
-0.0301512
-0.0279512
-0.0292837
-0.0349543
-0.0452986
-0.0599453
-0.0776939
-0.0965864
-0.114184
-0.127995
-0.136032
-0.137173
-0.131086
-0.118378
-0.100403
-0.0788887
-0.0559856
-0.033861
-0.0140425
0.00289745
0.017498
0.0313595
0.04688
0.0668181
0.0938032
0.129827
0.175298
0.229948
0.293242
0.364275
0.441866
0.523747
0.605504
0.680932
0.743307
0.786166
0.804218
0.794203
0.755585
0.690961
0.606059
0.509173
0.410047
0.317089
0.235596
0.167689
0.114504
0.0751638
0.0472761
0.0276369
0.0129066
0
-0.01234
0.162739
0.712891
1.78804
3.40641
5.36186
7.21664
8.42602
8.55513
7.4823
5.47358
3.08064
0.913319
-0.596417
-1.32484
-1.43175
-1.31214
-1.19935
-1.09865
-1.01263
-0.940825
-0.877595
-0.819029
-0.762405
-0.705554
-0.647126
-0.586797
-0.525795
-0.466827
-0.41314
-0.367507
-0.331282
-0.303687
-0.281523
-0.25936
-0.230215
-0.186565
-0.122031
-0.0326921
0.0827467
0.223663
0.388799
0.576845
0.786191
1.01506
1.26165
1.52414
1.80046
2.08811
2.38386
2.68365
2.98264
3.27448
3.54953
3.79787
4.01229
4.18751
4.32037
4.40715
4.4474
4.44091
4.38736
4.28655
4.13904
3.94689
3.71399
3.44595
3.15066
2.83894
2.51874
2.1953
1.87398
1.56038
1.26028
0.979277
0.722406
0.493567
0.295779
0.13111
-0.00197744
-0.107516
-0.190717
-0.257079
-0.311623
-0.358443
-0.400612
-0.440352
-0.479273
-0.518503
-0.558631
-0.599505
-0.64004
-0.678093
-0.710875
-0.735628
-0.75038
-0.754533
-0.749037
-0.736135
-0.718769
-0.699886
-0.681775
-0.665809
-0.652544
-0.641817
-0.632957
-0.625099
-0.617483
-0.609736
-0.602083
-0.59552
-0.591709
-0.592666
-0.600306
-0.615981
-0.640109
-0.672027
-0.710066
-0.751824
-0.794536
-0.83557
-0.872745
-0.904125
-0.928289
-0.944435
-0.952298
-0.952132
-0.944663
-0.93102
-0.912623
-0.891042
-0.867863
-0.844576
-0.822464
-0.802622
-0.786026
-0.773406
-0.765204
-0.761466
-0.761705
-0.764812
-0.769031
-0.772036
-0.771113
-0.763419
-0.746375
-0.717695
-0.675692
-0.619427
-0.548768
-0.464388
-0.367708
-0.260828
-0.146191
-0.0262684
0.0949116
0.210445
0.312245
0.392787
0.446151
0.469261
0.462679
0.430612
0.380055
0.319347
0.256569
0.197767
0.145629
0.100964
0.0641473
0.0357404
0.0158068
0.00408273
0
0.00376096
0.0129992
0.0439647
0.29824
0.874196
1.95222
3.60179
5.65561
7.67888
9.09445
9.42219
8.50771
6.60731
4.27773
2.13217
0.59672
-0.212714
-0.451743
-0.414465
-0.396406
-0.380441
-0.366332
-0.353362
-0.340326
-0.325648
-0.307589
-0.284565
-0.255347
-0.219119
-0.175529
-0.12468
-0.0670368
-0.00330582
0.065704
0.139217
0.216613
0.297539
0.381981
0.470304
0.563236
0.661824
0.767352
0.881287
1.00525
1.14101
1.29045
1.45553
1.638
1.83912
2.05924
2.29743
2.55129
2.81697
3.08952
3.36353
3.63289
3.89083
4.13006
4.34222
4.51889
4.65728
4.75729
4.81118
4.80698
4.73559
4.59711
4.40204
4.16618
3.90247
3.61954
3.32581
3.02689
2.72595
2.42649
2.13305
1.85079
1.5848
1.3394
1.11745
0.920122
0.746834
0.595652
0.463824
0.348408
0.246944
0.157856
0.0806137
0.0157458
-0.0356397
-0.0726046
-0.0944504
-0.101191
-0.0938767
-0.0747037
-0.0468881
-0.0143233
0.0189082
0.0491237
0.0737783
0.0911131
0.100447
0.102135
0.097386
0.0880018
0.076077
0.0637087
0.0527135
0.0443671
0.0393936
0.0380767
0.0401147
0.044446
0.0494394
0.0532986
0.0544154
0.051679
0.0446615
0.0336278
0.0193799
0.00299683
-0.0144235
-0.0320021
-0.0491733
-0.0656171
-0.081154
-0.0956536
-0.108957
-0.120823
-0.130908
-0.138765
-0.143856
-0.145636
-0.143652
-0.137635
-0.1276
-0.113914
-0.0973085
-0.0788021
-0.0595736
-0.0407997
-0.023497
-0.00842667
0.00390831
0.013268
0.019671
0.0233903
0.0249606
0.0251928
0.025156
0.026148
0.0295208
0.0364759
0.0478664
0.0640656
0.0849525
0.110023
0.138593
0.170033
0.203922
0.240217
0.27925
0.321646
0.368185
0.419597
0.476707
0.540756
0.612549
0.687314
0.752319
0.791317
0.789118
0.737041
0.636995
0.50223
0.354179
0.21645
0.105863
0.03276
-0.000904238
0
0.0287558
0.074033
0.127364
0.25593
0.592664
1.2969
2.50088
4.19676
6.13973
7.85668
8.79779
8.57886
7.18075
4.98375
2.60783
0.645708
-0.564766
-1.01778
-0.950221
-0.820947
-0.701282
-0.59877
-0.517034
-0.453354
-0.400204
-0.353735
-0.311021
-0.269556
-0.227568
-0.18411
-0.13892
-0.0921587
-0.0440624
0.00539469
0.0567584
0.111212
0.170534
0.236915
0.312686
0.400015
0.500646
0.615731
0.745786
0.89074
1.05006
1.22292
1.40832
1.60522
1.81246
2.02871
2.25226
2.48088
2.71167
2.94107
3.16507
3.37954
3.58057
3.76486
3.92973
4.07265
4.19067
4.28033
4.33873
4.36372
4.35216
4.30065
4.20661
4.06928
3.89032
3.67377
3.42554
3.15403
2.86887
2.57704
2.28414
1.99596
1.71843
1.45746
1.21849
1.006
0.823285
0.67242
0.553096
0.462011
0.394332
0.344505
0.307071
0.277336
0.251765
0.228105
0.205259
0.183026
0.161764
0.142094
0.124716
0.110295
0.0993877
0.0924604
0.0899233
0.0922044
0.0997979
0.113242
0.13299
0.159375
0.192814
0.232907
0.276884
0.319777
0.355935
0.380182
0.388941
0.380971
0.357534
0.321985
0.278973
0.233525
0.189896
0.15075
0.117477
0.0907145
0.0707649
0.0578123
0.0518904
0.0529557
0.0609241
0.075616
0.0966421
0.123273
0.154377
0.188465
0.223529
0.257312
0.28776
0.31333
0.333179
0.347172
0.355721
0.359544
0.359461
0.356342
0.351223
0.345535
0.34131
0.341303
0.348554
0.365833
0.394943
0.43616
0.488027
0.54757
0.610846
0.673603
0.732161
0.78308
0.822132
0.845829
0.851468
0.836797
0.800384
0.74206
0.663212
0.565561
0.449413
0.315949
0.170956
0.0264836
-0.104056
-0.206817
-0.274729
-0.317345
0
0.634113
1.6566
3.08176
4.78996
6.48553
7.74319
8.15764
7.53271
6.00027
3.98447
2.01955
0.522335
-0.351665
-0.703735
-0.752999
-0.77752
-0.795082
-0.801338
-0.792645
-0.766737
-0.723305
-0.664162
-0.592842
-0.513726
-0.431034
-0.348121
-0.266742
-0.187752
-0.11181
-0.0394828
0.0288281
0.0929866
0.153314
0.210834
0.267498
0.326289
0.391167
0.466833
0.558298
0.670317
0.806782
0.970173
1.1612
1.3786
1.61945
1.87955
2.15388
2.43705
2.72376
3.00908
3.28823
3.55573
3.80437
4.02427
4.20549
4.34479
4.43971
4.48876
4.49204
4.45156
4.3709
4.2539
4.10302
3.91889
3.70637
3.4712
3.21788
2.9503
2.6726
2.39022
2.10988
1.83891
1.5843
1.35192
1.14584
0.967794
0.817465
0.693057
0.592004
0.511674
0.449822
0.404734
0.375406
0.361531
0.362771
0.377213
0.399659
0.422538
0.438225
0.440517
0.425927
0.394423
0.349435
0.297104
0.24489
0.199623
0.164837
0.14083
0.128251
0.124874
0.126969
0.13042
0.131746
0.128861
0.121397
0.11055
0.0985577
0.0879921
0.0808081
0.0779813
0.0797753
0.0858652
0.0954197
0.107286
0.120167
0.132789
0.144005
0.152826
0.158447
0.160241
0.157766
0.150804
0.139405
0.123926
0.105038
0.0836892
0.0610375
0.0383685
0.0170285
-0.0016099
-0.0161426
-0.0250087
-0.0264716
-0.0189149
-0.000785446
0.0292446
0.0720826
0.128032
0.196666
0.276775
0.366398
0.463665
0.565857
0.667518
0.760888
0.837868
0.890844
0.913684
0.90271
0.857487
0.781303
0.681173
0.567136
0.45073
0.341338
0.243666
0.158007
0.0831472
0.017409
-0.0418731
-0.0973701
-0.1515
-0.205641
-0.260024
-0.288981
0
0.797671
2.2258
4.19769
6.34762
8.10308
8.90084
8.44335
6.84589
4.58663
2.29295
0.486835
-0.582244
-0.958519
-0.879816
-0.824876
-0.77581
-0.736863
-0.709871
-0.69393
-0.685793
-0.680815
-0.674117
-0.662079
-0.64289
-0.615722
-0.580347
-0.536959
-0.485884
-0.4273
-0.36106
-0.286671
-0.203423
-0.110603
-0.00772724
0.105308
0.228205
0.360379
0.501197
0.650239
0.807522
0.973586
1.14942
1.3362
1.53498
1.74632
1.96997
2.20482
2.44885
2.69937
2.95321
3.20705
3.45622
3.69334
3.90843
4.09099
4.23363
4.33067
4.3774
4.37044
4.30832
4.19196
4.0247
3.81149
3.55761
3.27222
2.96724
2.65291
2.33602
2.02191
1.71638
1.42538
1.15438
0.907787
0.688435
0.497391
0.334021
0.196364
0.0816772
-0.0129668
-0.0901757
-0.151874
-0.199311
-0.233202
-0.253985
-0.261733
-0.256659
-0.239898
-0.214431
-0.185517
-0.159627
-0.142604
-0.138438
-0.148336
-0.170318
-0.199553
-0.229438
-0.253199
-0.265572
-0.26528
-0.254473
-0.236141
-0.21294
-0.187576
-0.162584
-0.140057
-0.121558
-0.108145
-0.100533
-0.0992573
-0.104732
-0.11717
-0.136492
-0.162141
-0.193015
-0.227496
-0.26289
-0.295954
-0.323591
-0.343407
-0.354131
-0.355788
-0.349582
-0.337554
-0.322122
-0.305683
-0.290086
-0.276608
-0.265994
-0.25845
-0.253703
-0.251119
-0.249858
-0.249057
-0.247982
-0.246085
-0.243005
-0.238412
-0.231801
-0.222302
-0.208593
-0.188969
-0.161556
-0.124606
-0.0768195
-0.0178738
0.0518443
0.131414
0.219773
0.315888
0.416391
0.513552
0.597989
0.660782
0.695301
0.698534
0.671342
0.617564
0.542504
0.451568
0.350678
0.244946
0.137499
0.0333044
-0.0612163
-0.139757
-0.197246
-0.231175
-0.242505
-0.235855
-0.215272
0
0.453584
1.31855
2.72319
4.62364
6.71401
8.46345
9.30202
8.87837
7.24684
4.86802
2.41184
0.470198
-0.667049
-1.0639
-1.01548
-0.963001
-0.911855
-0.862924
-0.816286
-0.771115
-0.726244
-0.680711
-0.633764
-0.585061
-0.534802
-0.483781
-0.433165
-0.384409
-0.338773
-0.296851
-0.258132
-0.220736
-0.181445
-0.136064
-0.0800411
-0.00918727
0.0792847
0.186265
0.311725
0.455206
0.615839
0.792583
0.984501
1.19087
1.41114
1.64473
1.89085
2.14829
2.41531
2.68959
2.9683
3.24829
3.52393
3.78348
4.01219
4.19816
4.33204
4.40901
4.42916
4.39586
4.31263
4.18053
3.99759
3.76651
3.49685
3.1986
2.88105
2.55339
2.22397
1.89998
1.5885
1.29599
1.02785
0.787951
0.57843
0.399669
0.25046
0.128355
0.0300869
-0.048009
-0.109621
-0.15811
-0.196557
-0.227835
-0.254311
-0.277763
-0.299312
-0.319389
-0.337756
-0.353619
-0.365796
-0.37295
-0.373714
-0.367012
-0.352195
-0.329174
-0.298494
-0.261323
-0.219359
-0.174644
-0.129354
-0.0855781
-0.0451239
-0.0096952
0.0191935
0.0404742
0.0535682
0.0584058
0.0555427
0.0462228
0.0323123
0.0160728
-0.000197554
-0.0145681
-0.0259011
-0.0339331
-0.0390816
-0.042348
-0.0450255
-0.0484188
-0.0535133
-0.0607723
-0.0700555
-0.0806601
-0.0914587
-0.101094
-0.108184
-0.111511
-0.110283
-0.104031
-0.0926265
-0.0763862
-0.0560513
-0.0327553
-0.00797271
0.0167065
0.0397997
0.0601591
0.0771601
0.090822
0.10185
0.111603
0.121991
0.13532
0.154101
0.180803
0.21759
0.265998
0.326807
0.401381
0.491087
0.594802
0.705594
0.810832
0.896907
0.952012
0.967853
0.940838
0.872828
0.771283
0.648461
0.519356
0.398184
0.292421
0.202309
0.129936
0.0754383
0.0369349
0.0113985
-0.00489797
0
0.23479
0.80588
1.88314
3.53394
5.5973
7.6402
9.07177
9.38598
8.40718
6.39186
3.92191
1.64957
0.0370655
-0.779623
-0.957961
-0.845293
-0.743057
-0.650877
-0.570766
-0.503194
-0.445033
-0.394212
-0.350668
-0.314315
-0.284796
-0.261158
-0.24159
-0.223361
-0.202988
-0.176613
-0.140479
-0.0919221
-0.0292701
0.0485626
0.142088
0.251199
0.375311
0.513527
0.664753
0.827777
1.0013
1.18397
1.37449
1.57169
1.77474
1.98327
2.19739
2.41771
2.64507
2.88034
3.12406
3.37621
3.63751
3.91018
4.19287
4.46809
4.70941
4.89162
4.99598
5.01489
4.95341
4.82582
4.64776
4.42755
4.16263
3.86171
3.54053
3.21129
2.8823
2.56048
2.25288
1.96597
1.70465
1.47184
1.2677
1.08986
0.934208
0.795975
0.6707
0.555086
0.447436
0.347663
0.256932
0.177026
0.109849
0.0570307
0.0193856
-0.00334771
-0.0123998
-0.00986866
0.00207359
0.0201098
0.0402988
0.0589377
0.0730319
0.0806939
0.0813851
0.075946
0.0664021
0.0555779
0.0465381
0.0418062
0.0430436
0.0510582
0.0655785
0.0852766
0.107705
0.129965
0.149236
0.163208
0.17036
0.170012
0.162226
0.147636
0.127444
0.103095
0.0760543
0.048175
0.0216918
-0.000981432
-0.0175038
-0.0258623
-0.0246244
-0.0131241
0.00845542
0.0391178
0.0771979
0.120594
0.166997
0.21432
0.260993
0.306055
0.349138
0.390437
0.430555
0.470268
0.510261
0.550901
0.592108
0.633323
0.673572
0.711554
0.745674
0.773854
0.793599
0.802621
0.798688
0.779921
0.745173
0.69351
0.622552
0.532123
0.427348
0.318922
0.218828
0.135567
0.0727708
0.0292462
0
0.0980741
0.439804
1.1652
2.40556
4.14063
6.1118
7.84123
8.78843
8.58435
7.21923
5.0704
2.74554
0.822837
-0.372262
-0.8446
-0.83846
-0.763211
-0.689662
-0.619115
-0.551786
-0.487019
-0.42361
-0.361126
-0.29976
-0.240233
-0.183645
-0.131005
-0.0832093
-0.0405536
-0.00248174
0.0325089
0.0667601
0.103164
0.144774
0.194432
0.254499
0.326497
0.41172
0.511709
0.628266
0.763387
0.919012
1.09657
1.29642
1.5174
1.75659
2.0095
2.27045
2.53334
2.79226
3.04216
3.2791
3.50036
3.70369
3.88761
4.05125
4.19333
4.31119
4.40057
4.45785
4.47971
4.46179
4.39963
4.28989
4.13156
3.9267
3.68057
3.40106
3.10031
2.78982
2.47696
2.16759
1.86708
1.58022
1.31121
1.06362
0.840315
0.643353
0.47383
0.332001
0.216901
0.126546
0.0582096
0.00872151
-0.0252202
-0.0467903
-0.0588098
-0.0636505
-0.063378
-0.0596237
-0.0536346
-0.0463574
-0.0385644
-0.0310025
-0.0245988
-0.0205438
-0.0201242
-0.0245201
-0.0344452
-0.0497898
-0.0694019
-0.0911077
-0.112
-0.128944
-0.139421
-0.14168
-0.13511
-0.120358
-0.0989705
-0.0734022
-0.0462477
-0.0197433
0.00451783
0.0255822
0.0428822
0.0555794
0.0625727
0.0627103
0.055026
0.0394715
0.0176058
-0.00712919
-0.0296113
-0.0439926
-0.0449213
-0.0286716
0.00620762
0.0589198
0.127062
0.207588
0.297475
0.393841
0.495575
0.602725
0.715673
0.834565
0.958002
1.07986
1.18786
1.267
1.30091
1.27547
1.18455
1.03546
0.850356
0.661422
0.500643
0.377855
0.280837
0.203399
0.142869
0.0961473
0.0590531
0.027809
0
0.0761444
0.454881
1.33677
2.82783
4.81533
6.92145
8.59568
9.31956
8.82847
7.23399
4.98255
2.67309
0.825108
-0.293493
-0.708125
-0.64943
-0.5836
-0.521737
-0.467035
-0.421202
-0.383859
-0.353259
-0.327226
-0.303161
-0.278432
-0.250672
-0.217779
-0.177958
-0.129816
-0.0722945
-0.00479331
0.0727579
0.159862
0.25563
0.358934
0.468661
0.584004
0.70472
0.831293
0.964953
1.10753
1.26119
1.428
1.60957
1.80665
2.01891
2.2448
2.48167
2.72597
2.97355
3.22005
3.46124
3.69326
3.91223
4.1135
4.29213
4.44391
4.5657
4.65483
4.70814
4.72193
4.69209
4.61456
4.48611
4.30534
4.07356
3.7955
3.48019
3.14041
2.78967
2.4386
2.09624
1.77065
1.46843
1.1945
0.952067
0.742724
0.566633
0.422734
0.308941
0.222473
0.160156
0.118339
0.0924543
0.0774581
0.068657
0.062046
0.054538
0.0440449
0.0294136
0.0102631
-0.0132103
-0.0403339
-0.0701427
-0.101616
-0.133698
-0.165305
-0.19538
-0.222951
-0.247179
-0.267394
-0.283149
-0.294306
-0.301097
-0.304188
-0.305034
-0.30611
-0.310399
-0.320725
-0.33905
-0.365898
-0.400064
-0.438757
-0.478107
-0.513906
-0.542712
-0.561779
-0.569451
-0.565179
-0.549359
-0.523099
-0.488264
-0.446859
-0.400691
-0.351454
-0.300545
-0.248893
-0.196826
-0.144097
-0.0900413
-0.0338543
0.0250491
0.0868342
0.150835
0.214831
0.275609
0.329472
0.37281
0.402541
0.416403
0.413073
0.392245
0.354711
0.302622
0.239069
0.168073
0.0941329
0.0215988
-0.0461393
-0.10701
-0.160028
-0.204845
-0.242446
-0.274298
-0.302058
-0.292109
0
0.724123
2.02574
3.88455
6.0176
7.89768
8.93248
8.72953
7.29687
5.05373
2.64261
0.652148
-0.597862
-1.11459
-1.13487
-1.06065
-0.988876
-0.92166
-0.860357
-0.805607
-0.756172
-0.711427
-0.671036
-0.634357
-0.600369
-0.56763
-0.534616
-0.499802
-0.461846
-0.419739
-0.37282
-0.320456
-0.261848
-0.195858
-0.120897
-0.0349529
0.0642306
0.178874
0.310849
0.461413
0.631048
0.81942
1.02546
1.24747
1.4833
1.73041
1.98593
2.24672
2.50934
2.77019
3.02571
3.2723
3.50649
3.72506
3.92429
4.09864
4.2412
4.34826
4.41638
4.43757
4.40221
4.30346
4.1409
3.92143
3.65708
3.36133
3.04961
2.73315
2.41743
2.10664
1.80537
1.51857
1.25124
1.00798
0.792458
0.606881
0.451739
0.325704
0.225709
0.147232
0.0847746
0.0330001
-0.0125362
-0.0548444
-0.0950989
-0.132823
-0.166161
-0.192688
-0.210343
-0.218091
-0.216174
-0.205946
-0.189442
-0.168896
-0.146536
-0.123997
-0.102524
-0.0830323
-0.0660499
-0.0516698
-0.0395482
-0.0290231
-0.0193785
-0.0102151
-0.0018847
0.00407896
0.00512099
-0.00173812
-0.0189499
-0.0475081
-0.0863616
-0.132361
-0.180738
-0.225941
-0.263031
-0.289157
-0.301523
-0.298453
-0.27935
-0.244525
-0.194984
-0.132239
-0.0582027
0.0245795
0.113219
0.204891
0.29625
0.3831
0.461075
0.526209
0.575287
0.606142
0.617785
0.610346
0.584878
0.543114
0.487243
0.419956
0.344162
0.262767
0.178417
0.0940223
0.0131711
-0.0603028
-0.12328
-0.173538
-0.21013
-0.233642
-0.246264
-0.233514
0
0.537543
1.56741
3.18102
5.23686
7.30858
8.79161
9.14456
8.14823
6.03545
3.40948
0.988437
-0.688242
-1.44199
-1.44887
-1.14209
-0.874016
-0.673248
-0.547323
-0.482132
-0.431587
-0.385512
-0.340914
-0.296228
-0.250845
-0.205025
-0.159508
-0.114676
-0.0698549
-0.022929
0.0295694
0.0918812
0.168103
0.261215
0.372065
0.498233
0.636764
0.784782
0.939419
1.09839
1.26049
1.42588
1.59605
1.7735
1.96126
2.16215
2.37816
2.60981
2.85581
3.11297
3.37638
3.63986
3.89539
4.13256
4.34215
4.51778
4.65519
4.75158
4.8038
4.81016
4.7684
4.67578
4.52982
4.32956
4.0769
3.77752
3.44109
3.08203
2.71579
2.35339
2.00419
1.67613
1.37524
1.10544
0.868516
0.664361
0.491308
0.346533
0.226454
0.127104
0.0444523
-0.0253062
-0.0855135
-0.138855
-0.187236
-0.231715
-0.272565
-0.309432
-0.341534
-0.367859
-0.387383
-0.399235
-0.402765
-0.397807
-0.384694
-0.364314
-0.338116
-0.308031
-0.276297
-0.245206
-0.216806
-0.192645
-0.173624
-0.159968
-0.151317
-0.146889
-0.145656
-0.146431
-0.148055
-0.149379
-0.149282
-0.146716
-0.1408
-0.130968
-0.117026
-0.0992149
-0.0784343
-0.0564158
-0.0352361
-0.0164949
-0.000602865
0.0137585
0.0297808
0.0521343
0.0860387
0.135977
0.204039
0.288413
0.385898
0.491808
0.597722
0.694849
0.775585
0.834564
0.868939
0.877933
0.861999
0.822033
0.759978
0.679438
0.577819
0.450784
0.306101
0.161393
0.0344223
-0.0621858
-0.123939
-0.154035
-0.160359
-0.151938
-0.136714
0
0.439222
1.36256
2.8683
4.86075
6.9887
8.70437
9.45894
8.94959
7.27968
4.92844
2.54214
0.664984
-0.446937
-0.850355
-0.797943
-0.714352
-0.635342
-0.564618
-0.504086
-0.452986
-0.408188
-0.367288
-0.327999
-0.288103
-0.245714
-0.199413
-0.148293
-0.0918873
-0.0300711
0.0370493
0.109234
0.186183
0.267598
0.353265
0.443173
0.537682
0.637722
0.744952
0.86182
0.991452
1.13732
1.30277
1.49038
1.70147
1.93572
2.19111
2.46416
2.75045
3.04524
3.3441
3.64333
3.93914
4.22604
4.4972
4.74511
4.95869
5.12282
5.22221
5.24581
5.18901
5.05439
4.85137
4.59375
4.29563
3.97454
3.64682
3.32169
3.00306
2.6941
2.39864
2.11979
1.8596
1.61894
1.39759
1.19455
1.00849
0.838259
0.683254
0.543716
0.42082
0.315883
0.230219
0.164701
0.119382
0.0932559
0.0841846
0.0896952
0.106837
0.130814
0.155473
0.17536
0.186494
0.186916
0.176883
0.15862
0.135704
0.112226
0.0919193
0.0768924
0.0679059
0.0651449
0.0684472
0.0769053
0.088387
0.100022
0.109061
0.11342
0.112036
0.104936
0.0929769
0.0773798
0.059273
0.0394941
0.018571
-0.0031868
-0.0253345
-0.0471317
-0.0675486
-0.0854366
-0.0998063
-0.110224
-0.116707
-0.119823
-0.120733
-0.120868
-0.121531
-0.123586
-0.127266
-0.132131
-0.137147
-0.140838
-0.141452
-0.137222
-0.126515
-0.107644
-0.0791981
-0.0402527
0.00939837
0.0690491
0.137262
0.211559
0.288249
0.362775
0.429753
0.482879
0.516087
0.524749
0.505389
0.456276
0.378104
0.274465
0.151805
0.0182667
-0.116402
-0.243039
-0.354209
-0.444785
129
283
443
621
789
951
1119
1295
1467
1631
1796
1972
2152
2319
2484
2656
2828
2987
3142
3297
3448
3599
3137
3277
3415
3551
3687
0
0
0
0
0
0
0
0
0
0
0
0
0
0
0
0
0
0
0
0
0
0
0
0
0
0
0
0
0
0
0
0
0
0
0
0
0
0
0
0
0
0
0
0
0
0
0
0
0
0
0
0
0
0
0
0
0
0
0
0
0
0
0
0
0
0
0
0
0
0
0
0
0
0
0
0
0
0
0
0
0
0
0
0
0
0
0
0
0
0
0
0
0
0
0
0
0
0
0
0
0
0
0
0
0
0
0
0
0
0
0
0
0
0
0
0
0
0
0
0
0
0
0
0
0
0
0
0
0
0
0
0
0
0
0
0
0
0
0
0
0
0
0
0
0
0
0
0
0
0
0
0
0
0
0
0
0
0
0
0
0
0
0
0
0
0
0
0
0
0
0
0
0
0
0
0
0
0
0
0
0
0
0
0
0
0
0
0
0
0
0
0
0
0
0
0
0
0
0
0
0
0
0
0
0
0
0
0
0
0
0
0
0
0
0
0
0
0
0
0
0
0
0
0
0
0
0
0
0
0
0
0
0
0
0
0
0
0
0
0
0
0
0
0
0
0
0
0
0
0
0
0
0
0
0
0
0
0
0
0
0
0
0
0
0
0
0
0
0
0
0
0
0
0
0
0
0
0
0
0
0
0
0
0
0
0
0
0
0
0
0
0
0
0
0
0
0
0
0
0
0
0
0
0
0
0
0
0
0
0
0
0
0
0
0
0
0
0
0
0
0
0
0
0
0
0
0
0
0
0
0
0
0
0
0
0
0
0
0
0
0
0
0
0
0
0
0
0
0
0
0
0
0
0
0
0
0
0
0
0
0
0
0
0
0
0
0
0
0
0
0
0
0
0
0
0
0
0
0
0
0
0
0
0
0
0
0
0
0
0
0
0
0
0
0
0
0
0
0
0
0
0
0
0
0
0
0
0
0
0
0
0
0
0
0
0
0
0
0
0
0
0
0
0
0
0
0
0
0
0
0
0
0
0
0
0
0
0
0
0
0
0
0
0
0
0
0
0
0
0
0
0
0
0
0
0
0
0
0
0
0
0
0
0
0
0
0
0
0
0
0
0
0
0
0
0
0
0
0
0
0
0
0
0
0
0
0
0
0
0
0
0
0
0
0
0
0
0
0
0
0
0
0
0
0
0
0
0
0
0
0
0
0
0
0
0
0
0
0
0
0
0
0
0
0
0
0
0
0
0
0
0
0
0
0
0
0
0
0
0
0
0
0
0
0
0
0
0
0
0
0
0
0
0
0
0
0
0
0
0
0
0
0
0
0
0
0
0
0
0
0
0
0
0
0
0
0
0
0
0
0
0
0
0
0
0
0
0
0
0
0
0
0
0
0
0
0
0
0
0
0
0
0
0
0
0
0
0
0
0
0
0
0
0
0
0
0
0
0
0
0
0
0
0
0
0
0
0
0
0
0
0
0
0
0
0
0
0
0
0
0
0
0
0
0
0
0
0
0
0
0
0
0
0
0
0
0
0
0
0
0
0
0
0
0
0
0
0
0
0
0
0
0
0
0
0
0
0
0
0
0
0
0
0
0
0
0
0
0
0
0
0
0
0
0
0
0
0
0
0
0
0
0
0
0
0
0
0
0
0
0
0
0
0
0
0
0
0
0
0
0
0
0
0
0
0
0
0
0
0
0
0
0
0
0
0
0
0
0
0
0
0
0
0
0
0
0
0
0
0
0
0
0
0
0
0
0
0
0
0
0
0
0
0
0
0
0
0
0
0
0
0
0
0
0
0
0
0
0
0
0
0
0
0
0
0
0
0
0
0
0
0
0
0
0
0
0
0
0
0
0
0
0
0
0
0
0
0
0
0
0
0
0
0
0
0
0
0
0
0
0
0
0
0
0
0
0
0
0
0
0
0
0
0
0
0
0
0
0
0
0
0
0
0
0
0
0
0
0
0
0
0
0
0
0
0
0
0
0
0
0
0
0
0
0
0
0
0
0
0
0
0
0
0
0
0
0
0
0
0
0
0
0
0
0
0
0
0
0
0
0
0
0
0
0
0
0
0
0
0
0
0
0
0
0
0
0
0
0
0
0
0
0
0
0
0
0
0
0
0
0
0
0
0
0
0
0
0
0
0
0
0
0
0
0
0
0
0
0
0
0
0
0
0
0
0
0
0
0
0
0
0
0
0
0
0
0
0
0
0
0
0
0
0
0
0
0
0
0
0
0
0
0
0
0
0
0
0
0
0
0
0
0
0
0
0
0
0
0
0
0
0
0
0
0
0
0
0
0
0
0
0
0
0
0
0
0
0
0
0
0
0
0
0
0
0
0
0
0
0
0
0
0
0
0
0
0
0
0
0
0
0
0
0
0
0
0
0
0
0
0
0
0
0
0
0
0
0
0
0
0
0
0
0
0
0
0
0
0
0
0
0
0
0
0
0
0
0
0
0
0
0
0
0
0
0
0
0
0
0
0
0
0
0
0
0
0
0
0
0
0
0
0
0
0
0
0
0
0
0
0
0
0
0
0
0
0
0
0
0
0
0
0
0
0
0
0
0
0
0
0
0
0
0
0
0
0
0
0
0
0
0
0
0
0
0
0
0
0
0
0
0
0
0
0
0
0
0
0
0
0
0
0
0
0
0
0
0
0
0
0
0
0
0
0
0
0
0
0
0
0
0
0
0
0
0
0
0
0
0
0
0
0
0
0
0
0
0
0
0
0
0
0
0
0
0
0
0
0
0
0
0
0
0
0
0
0
0
0
0
0
0
0
0
0
0
0
0
0
0
0
0
0
0
0
0
0
0
0
0
0
0
0
0
0
0
0
0
0
0
0
0
0
0
0
0
0
0
0
0
0
0
0
0
0
0
0
0
0
0
0
0
0
0
0
0
0
0
0
0
0
0
0
0
0
0
0
0
0
0
0
0
0
0
0
0
0
0
0
0
0
0
0
0
0
0
0
0
0
0
0
0
0
0
0
0
0
0
0
0
0
0
0
0
0
0
0
0
0
0
0
0
0
0
0
0
0
0
0
0
0
0
0
0
0
0
0
0
0
0
0
0
0
0
0
0
0
0
0
0
0
0
0
0
0
0
0
0
0
0
0
0
0
0
0
0
0
0
0
0
0
0
0
0
0
0
0
0
0
0
0
0
0
0
0
0
0
0
0
0
0
0
0
0
0
0
0
0
0
0
0
0
0
0
0
0
0
0
0
0
0
0
0
0
0
0
0
0
0
0
0
0
0
0
0
0
0
0
0
0
0
0
0
0
0
0
0
0
0
0
0
0
0
0
0
0
0
0
0
0
0
0
0
0
0
0
0
0
0
0
0
0
0
0
0
0
0
0
0
0
0
0
0
0
0
0
0
0
0
0
0
0
0
0
0
0
0
0
0
0
0
0
0
0
0
0
0
0
0
0
0
0
0
0
0
0
0
0
0
0
0
0
0
0
0
0
0
0
0
0
0
0
0
0
0
0
0
0
0
0
0
0
0
0
0
0
0
0
0
0
0
0
0
0
0
0
0
0
0
0
0
0
0
0
0
0
0
0
0
0
0
0
0
0
0
0
0
0
0
0
0
0
0
0
0
0
0
0
0
0
0
0
0
0
0
0
0
0
0
0
0
0
0
0
0
0
0
0
0
0
0
0
0
0
0
0
0
0
0
0
0
0
0
0
0
0
0
0
0
0
0
0
0
0
0
0
0
0
0
0
0
0
0
0
0
0
0
0
0
0
0
0
0
0
0
0
0
0
0
0
0
0
0
0
0
0
0
0
0
0
0
0
0
0
0
0
0
0
0
0
0
0
0
0
0
0
0
0
0
0
0
0
0
0
0
0
0
0
0
0
0
0
0
0
0
0
0
0
0
0
0
0
0
0
0
0
0
0
0
0
0
0
0
0
0
0
0
0
0
0
0
0
0
0
0
0
0
0
0
0
0
0
0
0
0
0
0
0
0
0
0
0
0
0
0
0
0
0
0
0
0
0
0
0
0
0
0
0
0
0
0
0
0
0
0
0
0
0
0
0
0
0
0
0
0
0
0
0
0
0
0
0
0
0
0
0
0
0
0
0
0
0
0
0
0
0
0
0
0
0
0
0
0
0
0
0
0
0
0
0
0
0
0
0
0
0
0
0
0
0
0
0
0
0
0
0
0
0
0
0
0
0
0
0
0
0
0
0
0
0
0
0
0
0
0
0
0
0
0
0
0
0
0
0
0
0
0
0
0
0
0
0
0
0
0
0
0
0
0
0
0
0
0
0
0
0
0
0
0
0
0
0
0
0
0
0
0
0
0
0
0
0
0
0
0
0
0
0
0
0
0
0
0
0
0
0
0
0
0
0
0
0
0
0
0
0
0
0
0
0
0
0
0
0
0
0
0
0
0
0
0
0
0
0
0
0
0
0
0
0
0
0
0
0
0
0
0
0
0
0
0
0
0
0
0
0
0
0
0
0
0
0
0
0
0
0
0
0
0
0
0
0
0
0
0
0
0
0
0
0
0
0
0
0
0
0
0
0
0
0
0
0
0
0
0
0
0
0
0
0
0
0
0
0
0
0
0
0
0
0
0
0
0
0
0
0
0
0
0
0
0
0
0
0
0
0
0
0
0
0
0
0
0
0
0
0
0
0
0
0
0
0
0
0
0
0
0
0
0
0
0
0
0
0
0
0
0
0
0
0
0
0
0
0
0
0
0
0
0
0
0
0
0
0
0
0
0
0
0
0
0
0
0
0
0
0
0
0
0
0
0
0
0
0
0
0
0
0
0
0
0
0
0
0
0
0
0
0
0
0
0
0
0
0
0
0
0
0
0
0
0
0
0
0
0
0
0
0
0
0
0
0
0
0
0
0
0
0
0
0
0
0
0
0
0
0
0
0
0
0
0
0
0
0
0
0
0
0
0
0
0
0
0
0
0
0
0
0
0
0
0
0
0
0
0
0
0
0
0
0
0
0
0
0
0
0
0
0
0
0
0
0
0
0
0
0
0
0
0
0
0
0
0
0
0
0
0
0
0
0
0
0
0
0
0
0
0
0
0
0
0
0
0
0
0
0
0
0
0
0
0
0
0
0
0
0
0
0
0
0
0
0
0
0
0
0
0
0
0
0
0
0
0
0
0
0
0
0
0
0
0
0
0
0
0
0
0
0
0
0
0
0
0
0
0
0
0
0
0
0
0
0
0
0
0
0
0
0
0
0
0
0
0
0
0
0
0
0
0
0
0
0
0
0
0
0
0
0
0
0
0
0
0
0
0
0
0
0
0
0
0
0
0
0
0
0
0
0
0
0
0
0
0
0
0
0
0
0
0
0
0
0
0
0
0
0
0
0
0
0
0
0
0
0
0
0
0
0
0
0
0
0
0
0
0
0
0
0
0
0
0
0
0
0
0
0
0
0
0
0
0
0
0
0
0
0
0
0
0
0
0
0
0
0
0
0
0
0
0
0
0
0
0
0
0
0
0
0
0
0
0
0
0
0
0
0
0
0
0
0
0
0
0
0
0
0
0
0
0
0
0
0
0
0
0
0
0
0
0
0
0
0
0
0
0
0
0
0
0
0
0
0
0
0
0
0
0
0
0
0
0
0
0
0
0
0
0
0
0
0
0
0
0
0
0
0
0
0
0
0
0
0
0
0
0
0
0
0
0
0
0
0
0
0
0
0
0
0
0
0
0
0
0
0
0
0
0
0
0
0
0
0
0
0
0
0
0
0
0
0
0
0
0
0
0
0
0
0
0
0
0
0
0
0
0
0
0
0
0
0
0
0
0
0
0
0
0
0
0
0
0
0
0
0
0
0
0
0
0
0
0
0
0
0
0
0
0
0
0
0
0
0
0
0
0
0
0
0
0
0
0
0
0
0
0
0
0
0
0
0
0
0
0
0
0
0
0
0
0
0
0
0
0
0
0
0
0
0
0
0
0
0
0
0
0
0
0
0
0
0
0
0
0
0
0
0
0
0
0
0
0
0
0
0
0
0
0
0
0
0
0
0
0
0
0
0
0
0
0
0
0
0
0
0
0
0
0
0
0
0
0
0
0
0
0
0
0
0
0
0
0
0
0
0
0
0
0
0
0
0
0
0
0
0
0
0
0
0
0
0
0
0
0
0
0
0
0
0
0
0
0
0
0
0
0
0
0
0
0
0
0
0
0
0
0
0
0
0
0
0
0
0
0
0
0
0
0
0
0
0
0
0
0
0
0
0
0
0
0
0
0
0
0
0
0
0
0
0
0
0
0
0
0
0
0
0
0
0
0
0
0
0
0
0
0
0
0
0
0
0
0
0
0
0
0
0
0
0
0
0
0
0
0
0
0
0
0
0
0
0
0
0
0
0
0
0
0
0
0
0
0
0
0
0
0
0
0
0
0
0
0
0
0
0
0
0
0
0
0
0
0
0
0
0
0
0
0
0
0
0
0
0
0
0
0
0
0
0
0
0
0
0
0
0
0
0
0
0
0
0
0
0
0
0
0
0
0
0
0
0
0
0
0
0
0
0
0
0
0
0
0
0
0
0
0
0
0
0
0
0
0
0
0
0
0
0
0
0
0
0
0
0
0
0
0
0
0
0
0
0
0
0
0
0
0
0
0
0
0
0
0
0
0
0
0
0
0
0
0
0
0
0
0
0
0
0
0
0
0
0
0
0
0
0
0
0
0
0
0
0
0
0
0
0
0
0
0
0
0
0
0
0
0
0
0
0
0
0
0
0
0
0
0
0
0
0
0
0
0
0
0
0
0
0
0
0
0
0
0
0
0
0
0
0
0
0
0
0
0
0
0
0
0
0
0
0
0
0
0
0
0
0
0
0
0
0
0
0
0
0
0
0
0
0
0
0
0
0
0
0
0
0
0
0
0
0
0
0
0
0
0
0
0
0
0
0
0
0
0
0
0
0
0
0
0
0
0
0
0
0
0
0
0
0
0
0
0
0
0
0
0
0
0
0
0
0
0
0
0
0
0
0
0
0
0
0
0
0
0
0
0
0
0
0
0
0
0
0
0
0
0
0
0
0
0
0
0
0
0
0
0
0
0
0
0
0
0
0
0
0
0
0
0
0
0
0
0
0
0
0
0
0
0
0
0
0
0
0
0
0
0
0
0
0
0
0
0
0
0
0
0
0
0
0
0
0
0
0
0
0
0
0
0
0
0
0
0
0
0
0
0
0
0
0
0
0
0
0
0
0
0
0
0
0
0
0
0
0
0
0
0
0
0
0
0
0
0
0
0
0
0
0
0
0
0
0
0
0
0
0
0
0
0
0
0
0
0
0
0
0
0
0
0
0
0
0
0
0
0
0
0
0
0
0
0
0
0
0
0
0
0
0
0
0
0
0
0
0
0
0
0
0
0
0
0
0
0
0
0
0
0
0
0
0
0
0
0
0
0
0
0
0
0
0
0
0
0
0
0
0
0
0
0
0
0
0
0
0
0
0
0
0
0
0
0
0
0
0
0
0
0
0
0
0
0
0
0
0
0
0
0
0
0
0
0
0
0
0
0
0
0
0
0
0
0
0
0
0
0
0
0
0
0
0
0
0
0
0
0
0
0
0
0
0
0
0
0
0
0
0
0
0
0
0
0
0
0
0
0
0
0
0
0
0
0
0
0
0
0
0
0
0
0
0
0
0
0
0
0
0
0
0
0
0
0
0
0
0
0
0
0
0
0
0
0
0
0
0
0
0
0
0
0
0
0
0
0
0
0
0
0
0
0
0
0
0
0
0
0
0
0
0
0
0
0
0
0
0
0
0
0
0
0
0
0
0
0
0
0
0
0
0
0
0
0
0
0
0
0
0
0
0
0
0
0
0
0
0
0
0
0
0
0
0
0
0
0
0
0
0
0
0
0
0
0
0
0
0
0
0
0
0
0
0
0
0
0
0
0
0
0
0
0
0
0
0
0
0
0
0
0
0
0
0
0
0
0
0
0
0
0
0
0
0
0
0
0
0
0
0
0
0
0
0
0
0
0
0
0
0
0
0
0
0
0
0
0
0
0
0
0
0
0
0
0
0
0
0
0
0
0
0
0
0
0
0
0
0
0
0
0
0
0
0
0
0
0
0
0
0
0
0
0
0
0
0
0
0
0
0
0
0
0
0
0
0
0
0
0
0
0
0
0
0
0
0
0
0
0
0
0
0
0
0
0
0
0
0
0
0
0
0
0
0
0
0
0
0
0
0
0
0
0
0
0
0
0
0
0
0
0
0
0
0
0
0
0
0
0
0
0
0
0
0
0
0
0
0
0
0
0
0
0
0
0
0
0
0
0
0
0
0
0
0
0
0
0
0
0
0
0
0
0
0
0
0
0
0
0
0
0
0
0
0
0
0
0
0
0
0
0
0
0
0
0
0
0
0
0
0
0
0
0
0
0
0
0
0
0
0
0
0
0
0
0
0
0
0
0
0
0
0
0
0
0
0
0
0
0
0
0
0
0
0
0
0
