-0.321459
-0.331149
-0.324417
-0.307677
-0.288292
-0.272519
-0.262997
-0.260582
-0.264185
-0.279367
0
0.605117
1.51663
2.61342
3.72625
4.68504
5.33639
5.53111
5.13004
4.06672
2.44215
0.570085
-1.1029
-2.185
-2.51347
-2.23715
-1.65619
-1.07471
-0.666157
-0.469862
-0.436325
-0.399183
-0.359047
-0.316628
-0.272181
-0.226925
-0.182796
-0.141909
-0.106022
-0.0761346
-0.0523397
-0.033893
-0.0194012
-0.00699224
0.00560813
0.021066
0.0423873
0.0726916
0.114748
0.170333
0.239594
0.320317
0.409508
0.501689
0.590406
0.670164
0.73769
0.792603
0.837311
0.876241
0.914724
0.957944
1.00952
1.07146
1.14544
1.23292
1.335
1.45234
1.58513
1.73301
1.89502
2.06955
2.25447
2.44714
2.64446
2.84282
3.03653
3.21577
3.37121
3.49495
3.58299
3.63667
3.66224
3.66818
3.66159
3.64499
3.61579
3.56701
3.49053
3.38008
3.23332
3.0523
2.84253
2.61141
2.36955
2.12397
1.87903
1.63864
1.40641
1.18562
0.979131
0.789208
0.617423
0.464518
0.330372
0.214051
0.113963
0.0280687
-0.0458722
-0.110056
-0.166427
-0.216521
-0.261353
-0.30136
-0.336396
-0.365768
-0.388377
-0.403059
-0.408867
-0.404808
-0.389814
-0.364862
-0.335211
-0.308393
-0.291802
-0.290746
-0.306992
-0.338261
-0.378791
-0.420746
-0.456025
-0.479223
-0.489174
-0.486664
-0.472982
-0.44984
-0.419573
-0.385176
-0.349492
-0.314727
-0.282132
-0.251913
-0.223384
-0.195307
-0.166348
-0.135506
-0.102346
-0.0677649
-0.0363791
-0.0161049
-0.0156549
-0.0413622
-0.0939504
-0.166635
-0.245706
-0.313805
-0.354889
-0.343016
-0.271826
-0.172766
-0.0873756
-0.0490842
-0.071085
-0.144208
-0.243354
-0.337984
-0.402211
-0.432557
-0.439955
-0.432302
-0.414236
-0.389255
-0.36107
-0.333483
-0.30978
-0.292382
-0.282701
-0.281185
-0.287525
-0.300948
-0.320505
-0.34525
-0.374193
-0.40626
-0.440269
-0.474689
-0.50762
-0.536966
-0.560775
-0.57723
-0.584626
-0.582727
-0.575266
-0.56752
-0.563934
-0.566191
-0.572194
-0.576543
-0.572467
-0.554542
-0.521097
-0.475924
-0.425592
-0.378261
-0.34114
-0.318395
-0.310247
-0.313433
-0.322693
-0.332524
-0.338755
-0.339717
-0.334644
-0.322899
-0.304208
-0.278557
-0.246176
-0.207576
-0.16364
-0.115591
-0.0645823
-0.011802
0.0415795
0.0944581
0.14584
0.194907
0.24112
0.284309
0.324775
0.36333
0.401248
0.440123
0.481662
0.527567
0.579617
0.639627
0.708188
0.781065
0.847261
0.892951
0.905101
0.875445
0.803788
0.699186
0.577947
0.458611
0.355811
0.271544
0.199995
0.138508
0.0879093
0.0474892
0.0178188
0
-0.0071022
0.00866261
0.487036
1.16849
1.98201
2.89283
3.84046
4.71288
5.35367
5.59034
5.27572
4.34147
2.85757
1.06811
-0.6458
-1.89423
-2.4197
-2.3083
-1.78884
-1.19319
-0.765159
-0.581079
-0.552706
-0.508218
-0.454447
-0.392176
-0.319645
-0.233772
-0.129083
-0.00503159
0.121667
0.228778
0.296301
0.313351
0.282271
0.217904
0.141938
0.0747051
0.0283495
-0.00187721
-0.0230688
-0.0380884
-0.0484795
-0.0548489
-0.05669
-0.0525557
-0.0404453
-0.01849
0.0143154
0.0586895
0.115205
0.183914
0.264327
0.355503
0.456195
0.565077
0.680996
0.803237
0.931713
1.06705
1.21052
1.36378
1.52852
1.70593
1.89624
2.09824
2.30905
2.52456
2.73789
2.94007
3.12242
3.27783
3.40163
3.4909
3.54418
3.56294
3.54925
3.50526
3.43303
3.33461
3.21208
3.06747
2.90262
2.72087
2.52608
2.32062
2.10636
1.88584
1.66222
1.43926
1.22104
1.01176
0.815405
0.635553
0.475715
0.338927
0.226322
0.13769
0.0736765
0.0323845
0.00855274
-0.00363712
-0.00948601
-0.0128693
-0.0158037
-0.0186028
-0.0205191
-0.0205767
-0.0184772
-0.0144541
-0.00903549
-0.00300179
0.0033617
0.0107967
0.0212921
0.037833
0.0636776
0.10135
0.151686
0.214164
0.284962
0.358933
0.431071
0.497815
0.557616
0.610413
0.654418
0.688865
0.710609
0.715259
0.700461
0.669063
0.630185
0.597383
0.58461
0.601743
0.6426
0.70051
0.771667
0.850877
0.932434
1.01125
1.08326
1.14563
1.19681
1.23576
1.26283
1.27931
1.28702
1.28827
1.2857
1.28216
1.28037
1.2825
1.28983
1.30278
1.31977
1.33716
1.35041
1.35507
1.34779
1.32702
1.29336
1.24955
1.20001
1.15004
1.10456
1.06677
1.03932
1.02424
1.01877
1.0175
1.01455
1.00535
0.988114
0.964146
0.937255
0.912358
0.893969
0.883715
0.881063
0.885065
0.894465
0.907403
0.921151
0.931889
0.935682
0.929239
0.910666
0.880079
0.839845
0.794311
0.749043
0.709785
0.680821
0.663548
0.658908
0.667097
0.688522
0.722026
0.761356
0.797573
0.82169
0.826293
0.806924
0.762855
0.697064
0.615498
0.525859
0.436136
0.351416
0.274439
0.207022
0.149968
0.103112
0.0657497
0.0370989
0.016647
0.00425434
0
0.00200462
0.012085
0.0373611
0.192661
0.473399
0.950914
1.68721
2.62854
3.59225
4.31892
4.55907
4.15336
3.0873
1.51638
-0.250488
-1.82784
-2.8831
-3.26532
-3.05843
-2.51406
-1.91347
-1.44205
-1.14999
-0.999744
-0.92012
-0.856131
-0.799777
-0.749876
-0.70707
-0.670983
-0.640023
-0.611595
-0.582652
-0.550455
-0.513324
-0.470946
-0.424628
-0.377129
-0.331336
-0.289148
-0.25075
-0.21454
-0.177675
-0.136986
-0.089838
-0.0354881
0.0257845
0.0937147
0.167869
0.247684
0.332552
0.421834
0.514805
0.610636
0.708426
0.807319
0.906672
1.00623
1.10624
1.20748
1.31118
1.41888
1.5322
1.65267
1.78158
1.91983
2.06786
2.2255
2.39171
2.56448
2.74101
2.91559
3.07821
3.21814
3.32606
3.39603
3.42639
3.4191
3.3777
3.30482
3.20036
3.06605
2.90423
2.71511
2.49792
2.2537
1.98613
1.70145
1.4079
1.11466
0.830771
0.564111
0.320694
0.104304
-0.0834555
-0.242855
-0.375609
-0.484138
-0.57024
-0.636168
-0.686435
-0.725027
-0.754804
-0.777029
-0.791244
-0.795661
-0.785417
-0.749165
-0.687912
-0.619439
-0.567542
-0.551792
-0.5787
-0.639011
-0.712125
-0.774799
-0.809416
-0.817541
-0.808337
-0.786441
-0.753848
-0.712276
-0.663434
-0.608833
-0.549663
-0.486735
-0.420484
-0.351051
-0.278455
-0.202817
-0.124587
-0.0447237
0.03526
0.113301
0.187048
0.25425
0.313067
0.362267
0.401264
0.429917
0.447583
0.45472
0.45214
0.441105
0.423578
0.402319
0.380669
0.362
0.348958
0.34369
0.345471
0.351357
0.357383
0.359956
0.35711
0.349207
0.338874
0.330266
0.327875
0.334507
0.353939
0.387963
0.43013
0.469566
0.495418
0.500663
0.484703
0.453669
0.418165
0.389218
0.374048
0.371171
0.37616
0.383845
0.389169
0.38899
0.382869
0.372614
0.360926
0.349924
0.340217
0.331343
0.322677
0.313996
0.305838
0.299355
0.295737
0.295485
0.297693
0.300584
0.301608
0.298074
0.28789
0.270191
0.245721
0.216867
0.18735
0.161557
0.143443
0.136147
0.141332
0.158934
0.188043
0.224948
0.265529
0.30643
0.345865
0.383779
0.421307
0.459802
0.499816
0.540411
0.579329
0.613262
0.638451
0.651323
0.649009
0.629711
0.592965
0.539828
0.473589
0.398419
0.319234
0.241924
0.172081
0.11396
0.0697163
0.0391192
0.0198309
0.00815754
0
-0.00601273
-0.0148291
-0.073715
0.0698507
0.628186
1.61398
2.8612
4.09872
5.06462
5.58159
5.5559
4.94681
3.77112
2.15519
0.373572
-1.20183
-2.24461
-2.59254
-2.43334
-1.99067
-1.52186
-1.17324
-0.974717
-0.885692
-0.807641
-0.729059
-0.649367
-0.568793
-0.490005
-0.418526
-0.361038
-0.323112
-0.307026
-0.310637
-0.32779
-0.350138
-0.369572
-0.380721
-0.383332
-0.378778
-0.368251
-0.352887
-0.333874
-0.312213
-0.288534
-0.262976
-0.235129
-0.203942
-0.167697
-0.124059
-0.0702612
-0.00344944
0.0788387
0.178144
0.294565
0.426489
0.570878
0.723583
0.87989
1.03518
1.18561
1.3286
1.46305
1.5892
1.70844
1.82294
1.9353
2.04836
2.1649
2.28748
2.41932
2.56765
2.73875
2.9234
3.10038
3.24805
3.35129
3.40342
3.40319
3.35022
3.24301
3.08072
2.86899
2.62095
2.35331
2.08309
1.82059
1.56859
1.32855
1.10298
0.893699
0.702001
0.528791
0.374692
0.24007
0.124988
0.0291151
-0.048406
-0.108556
-0.152762
-0.184006
-0.205891
-0.222157
-0.236319
-0.251338
-0.269396
-0.291754
-0.318668
-0.349344
-0.381859
-0.41367
-0.441785
-0.462754
-0.470865
-0.458771
-0.428893
-0.3928
-0.364851
-0.356223
-0.369897
-0.399023
-0.429441
-0.445164
-0.434355
-0.391626
-0.318479
-0.233357
-0.158574
-0.113457
-0.109682
-0.149071
-0.223124
-0.313783
-0.395881
-0.442911
-0.442026
-0.385577
-0.221747
0.0118273
0.247632
0.423901
0.507651
0.500575
0.428931
0.327638
0.229456
0.162214
0.129814
0.12517
0.142118
0.185326
0.248011
0.313887
0.365784
0.391341
0.387111
0.359199
0.320168
0.283783
0.260187
0.250067
0.249321
0.255707
0.267792
0.284015
0.302951
0.32312
0.343034
0.361418
0.377318
0.390149
0.399599
0.405396
0.406866
0.403174
0.393367
0.376907
0.354294
0.327512
0.300031
0.27631
0.260942
0.25756
0.267979
0.292447
0.329272
0.376158
0.428456
0.478523
0.51894
0.543982
0.550767
0.539697
0.513991
0.47851
0.438348
0.397761
0.359009
0.323124
0.290792
0.26246
0.238348
0.218468
0.202597
0.19023
0.180576
0.172594
0.165105
0.157101
0.148116
0.138541
0.129923
0.12534
0.128578
0.143186
0.171388
0.213291
0.266703
0.327649
0.391376
0.453461
0.511105
0.562602
0.606377
0.641195
0.666019
0.679344
0.679244
0.663765
0.631479
0.582058
0.516698
0.438307
0.350887
0.260078
0.17401
0.10033
0.0447712
0.0101732
-0.00377293
0
0.0178886
0.04431
0.0752197
0.109579
0.353314
0.924706
1.81226
2.90392
4.03852
5.05555
5.80215
6.1123
5.82055
4.83964
3.26147
1.39166
-0.340289
-1.55765
-2.09024
-2.00716
-1.57657
-1.02892
-0.537897
-0.185475
-0.042626
-0.0202923
-0.0106239
-0.00319099
0.00468349
0.0147991
0.0280527
0.0436136
0.0581724
0.067449
0.0678762
0.0582249
0.040567
0.0201363
0.00401764
-0.000909805
0.00996056
0.0352861
0.0719681
0.117019
0.166926
0.218619
0.270151
0.320931
0.371503
0.423071
0.476973
0.534177
0.595138
0.660122
0.729253
0.802623
0.880388
0.962831
1.05039
1.1437
1.24354
1.35089
1.4668
1.59205
1.72697
1.87113
2.0233
2.18153
2.34357
2.50731
2.67116
2.83432
2.99661
3.15823
3.31901
3.47297
3.60549
3.69771
3.73451
3.71077
3.6321
3.50938
3.35054
3.15535
2.92681
2.67453
2.40557
2.12458
1.83665
1.54818
1.2664
0.998455
0.750438
0.526714
0.32953
0.159055
0.0136988
-0.109271
-0.21304
-0.300632
-0.374302
-0.435664
-0.48555
-0.52426
-0.551902
-0.568752
-0.575533
-0.573511
-0.564174
-0.549931
-0.534375
-0.521269
-0.513955
-0.514866
-0.525152
-0.544508
-0.571228
-0.602474
-0.634698
-0.664346
-0.688276
-0.704066
-0.710355
-0.706972
-0.694819
-0.675494
-0.650758
-0.621997
-0.589894
-0.554424
-0.514813
-0.469751
-0.418008
-0.359869
-0.300853
-0.251388
-0.222389
-0.221032
-0.246928
-0.29031
-0.333595
-0.356394
-0.342372
-0.289929
-0.213991
-0.124611
-0.0284578
0.0649052
0.146731
0.21073
0.253807
0.275965
0.279473
0.267623
0.243539
0.209456
0.167715
0.119773
0.0666597
0.0100475
-0.0475855
-0.103077
-0.152936
-0.194348
-0.225246
-0.243472
-0.244814
-0.224793
-0.191574
-0.158504
-0.138515
-0.138916
-0.157727
-0.183779
-0.201141
-0.196077
-0.163155
-0.114406
-0.0570661
0.000654411
0.0520107
0.093454
0.124886
0.148445
0.165648
0.176662
0.17876
0.167591
0.140464
0.0992558
0.0511456
0.00654717
-0.0247887
-0.0375122
-0.0372532
-0.0279005
-0.0136389
0.00145378
0.0144629
0.0238842
0.0294004
0.0313196
0.0299576
0.0253124
0.0169477
0.00436516
-0.0125401
-0.0331194
-0.0558841
-0.0787423
-0.0994706
-0.116233
-0.128363
-0.135844
-0.139082
-0.138897
-0.136255
-0.132057
-0.126974
-0.121354
-0.115215
-0.108279
-0.100041
-0.0898002
-0.0767771
-0.0601632
-0.0392272
-0.0134733
0.0171448
0.0528757
0.092635
0.132442
0.16788
0.195884
0.216457
0.233391
0.253423
0.291572
0.361156
0.445431
0.508274
0.512694
0.44108
0.305522
0.143577
0.00267468
-0.0792782
-0.112772
-0.0903609
-0.0396626
0
-0.0062624
-0.0824442
-0.227633
-0.420352
-0.628623
-0.787469
-0.339656
0.537973
1.68309
2.87958
3.94392
4.76433
5.26887
5.36751
4.93851
3.89818
2.31627
0.477158
-1.18997
-2.29335
-2.66263
-2.40895
-1.82618
-1.21344
-0.740409
-0.429913
-0.232123
-0.126413
-0.0500876
0.0168001
0.0769088
0.12934
0.171159
0.199992
0.213911
0.212175
0.196026
0.169071
0.136935
0.106163
0.0826662
0.0702478
0.0681838
0.075182
0.0886316
0.105628
0.123979
0.142855
0.162923
0.186037
0.214703
0.251159
0.296949
0.353408
0.421727
0.502838
0.597419
0.705875
0.828235
0.963981
1.11187
1.26981
1.43483
1.60317
1.77047
1.9314
2.08003
2.21235
2.32649
2.42326
2.50626
2.58134
2.65551
2.73554
2.82659
2.93037
3.04711
3.17571
3.31151
3.44598
3.56681
3.66103
3.71767
3.72577
3.67493
3.55793
3.3741
3.13159
2.84669
2.54028
2.23309
1.93531
1.64989
1.38133
1.13389
0.911067
0.71547
0.549424
0.416452
0.318297
0.250277
0.206388
0.180611
0.168158
0.166167
0.173613
0.190646
0.220076
0.26012
0.302713
0.337225
0.354213
0.349143
0.324295
0.288016
0.251619
0.225222
0.212502
0.210265
0.214731
0.222464
0.22989
0.234189
0.233869
0.228954
0.220822
0.211854
0.204964
0.202734
0.207806
0.222451
0.248239
0.285748
0.334342
0.392462
0.457366
0.524658
0.588774
0.644231
0.686465
0.712383
0.720706
0.712124
0.689262
0.656451
0.619296
0.584059
0.556655
0.541467
0.543705
0.575564
0.655012
0.777244
0.906806
1.00287
1.03152
0.978625
0.857283
0.703657
0.56143
0.463157
0.40711
0.373134
0.351949
0.341479
0.341014
0.349956
0.368156
0.39532
0.430009
0.468929
0.507084
0.538944
0.559617
0.56585
0.556735
0.533933
0.501369
0.464444
0.428981
0.399994
0.380237
0.370167
0.369227
0.376758
0.391757
0.412984
0.438007
0.462887
0.483695
0.497243
0.501782
0.497417
0.486062
0.47092
0.455672
0.443645
0.436495
0.434714
0.438519
0.447868
0.462451
0.481837
0.505566
0.533153
0.564022
0.597411
0.631947
0.665014
0.692786
0.710711
0.714086
0.698836
0.66228
0.603746
0.519089
0.402898
0.270393
0.149575
0.0683204
0.0464242
0.0892628
0.185755
0.311849
0.438549
0.541704
0.618152
0.678333
0.729439
0.775061
0.818622
0.863093
0.909867
0.953713
0.983463
0.985889
0.950611
0.8743
0.762499
0.628307
0.488532
0.358989
0.245813
0.150507
0.0777083
0.0288252
0.00331678
0
0.0187602
0.0550493
0.148517
0.535473
1.07607
1.76473
2.59258
3.50742
4.38629
5.04207
5.26579
4.89723
3.89966
2.40735
0.715065
-0.805967
-1.83974
-2.22073
-2.05759
-1.53841
-0.916621
-0.397988
-0.107792
-0.0711846
-0.0437698
-0.0116524
0.0268373
0.0735005
0.12838
0.189439
0.254125
0.319922
0.384557
0.446284
0.503797
0.555546
0.599411
0.633509
0.655862
0.66486
0.660289
0.644203
0.621216
0.598018
0.582242
0.581061
0.597283
0.631615
0.684882
0.756241
0.84341
0.942661
1.04987
1.1612
1.27337
1.38399
1.49192
1.59753
1.70269
1.81054
1.92502
2.05018
2.18947
2.34501
2.51694
2.70315
2.9
3.10185
3.2969
3.47324
3.6221
3.74014
3.83028
3.90075
3.96244
4.02712
4.10577
4.18769
4.24681
4.25316
4.18407
4.03104
3.80102
3.51333
3.19378
2.86856
2.55061
2.24194
1.94421
1.65854
1.3847
1.12159
0.867733
0.622024
0.384247
0.155422
-0.0622369
-0.265742
-0.451971
-0.618232
-0.763409
-0.888532
-0.996518
-1.09172
-1.1792
-1.26384
-1.34954
-1.43862
-1.53148
-1.62663
-1.72053
-1.80742
-1.88113
-1.93625
-1.96936
-1.97968
-1.96922
-1.94233
-1.90491
-1.86345
-1.82414
-1.79217
-1.77116
-1.76284
-1.76694
-1.78126
-1.80211
-1.82494
-1.84518
-1.85922
-1.86556
-1.86405
-1.85474
-1.83858
-1.817
-1.79157
-1.76385
-1.73527
-1.70716
-1.68097
-1.65813
-1.63995
-1.62754
-1.62153
-1.62199
-1.62842
-1.63995
-1.65548
-1.67373
-1.69342
-1.71324
-1.73163
-1.74658
-1.75545
-1.75253
-1.71904
-1.60993
-1.42342
-1.21719
-1.06442
-1.02159
-1.10389
-1.279
-1.48077
-1.63507
-1.6892
-1.67855
-1.6451
-1.6035
-1.55939
-1.51689
-1.47926
-1.44875
-1.42671
-1.41398
-1.41071
-1.41654
-1.43057
-1.45112
-1.47594
-1.50119
-1.52145
-1.53131
-1.52662
-1.50568
-1.46981
-1.42317
-1.37174
-1.3218
-1.27846
-1.24367
-1.21795
-1.20003
-1.18738
-1.17686
-1.16527
-1.14993
-1.12852
-1.09939
-1.06188
-1.01583
-0.962346
-0.906335
-0.854439
-0.813003
-0.786388
-0.77585
-0.779353
-0.792299
-0.808812
-0.823073
-0.831217
-0.831806
-0.82408
-0.807754
-0.78346
-0.752391
-0.716949
-0.680137
-0.6449
-0.613582
-0.587481
-0.566642
-0.549936
-0.535419
-0.520848
-0.504232
-0.484243
-0.46032
-0.432539
-0.401206
-0.366706
-0.329319
-0.289175
-0.246347
-0.201048
-0.153806
-0.105714
-0.0585057
-0.0145384
0.0232848
0.051996
0.0692699
0.0736259
0.0647363
0.0435899
0.0124375
-0.0255113
-0.0666047
-0.107347
-0.144987
-0.177962
-0.205306
-0.226011
-0.238239
-0.239606
-0.2277
-0.199926
-0.154149
-0.0893616
0
0.240493
0.700206
1.2462
1.95413
2.86315
3.89754
4.86196
5.50541
5.60852
5.04786
3.83031
2.11353
0.207141
-1.48305
-2.58489
-2.91979
-2.59364
-1.9371
-1.31985
-0.95371
-0.815844
-0.719275
-0.555066
-0.424657
-0.318495
-0.236745
-0.178148
-0.1398
-0.117662
-0.10589
-0.0977772
-0.0868279
-0.068607
-0.0399084
0.00171156
0.057239
0.126022
0.206586
0.29635
0.388935
0.476175
0.551487
0.611706
0.658073
0.69596
0.733329
0.778406
0.837368
0.911722
0.997974
1.09261
1.19285
1.29617
1.40069
1.50549
1.61071
1.71751
1.82784
1.94408
2.06865
2.20349
2.34955
2.50627
2.6713
2.84088
3.00876
3.16749
3.31022
3.43191
3.5301
3.60494
3.65839
3.69307
3.71089
3.71287
3.6971
3.65997
3.59665
3.50221
3.37278
3.20662
3.0049
2.77192
2.51475
2.24272
1.9655
1.69124
1.4266
1.17644
0.943692
0.729635
0.534344
0.357183
0.197197
0.053295
-0.0757363
-0.191344
-0.29532
-0.389818
-0.477226
-0.559876
-0.639652
-0.717582
-0.793496
-0.865819
-0.931448
-0.986478
-1.02679
-1.04117
-1.01147
-0.939173
-0.848814
-0.770407
-0.728322
-0.733064
-0.779078
-0.848468
-0.918265
-0.968194
-0.992249
-0.996272
-0.985818
-0.964194
-0.933512
-0.895744
-0.852891
-0.806701
-0.759795
-0.715037
-0.674575
-0.639162
-0.607643
-0.576981
-0.542963
-0.501446
-0.449397
-0.383746
-0.308034
-0.233549
-0.173363
-0.138189
-0.133177
-0.156613
-0.200835
-0.25508
-0.30931
-0.357599
-0.400333
-0.440261
-0.479228
-0.518003
-0.555734
-0.589429
-0.614693
-0.627129
-0.623817
-0.604293
-0.57075
-0.527453
-0.479697
-0.432628
-0.389596
-0.353047
-0.324294
-0.303572
-0.290255
-0.283195
-0.281121
-0.282984
-0.288289
-0.296807
-0.308366
-0.322337
-0.337162
-0.349869
-0.356297
-0.352076
-0.333856
-0.300415
-0.253201
-0.196114
-0.134611
-0.0744684
-0.01987
0.0260142
0.0616827
0.0871697
0.103722
0.113313
0.118086
0.11983
0.119509
0.117132
0.111922
0.102763
0.0889621
0.0709502
0.0506643
0.0314454
0.0174618
0.0128324
0.0198748
0.0390249
0.0702606
0.112186
0.162495
0.217828
0.274041
0.326058
0.368079
0.3957
0.406148
0.399039
0.377015
0.345851
0.313714
0.289511
0.28068
0.292392
0.327238
0.376419
0.42675
0.464875
0.48096
0.470632
0.434944
0.379061
0.310613
0.238621
0.170653
0.11186
0.0660366
0.0368334
0.0265845
0.0360382
0.0642833
0.108928
0.166519
0.233102
0.304768
0.377943
0.449747
0.516786
0.574381
0.618334
0.644248
0.648479
0.629444
0.588654
0.53086
0.463046
0.392493
0.324481
0.259906
0.197051
0.132581
0.0618732
-0.0213375
-0.129129
-0.26278
-0.417465
-0.583056
-0.532967
0
1.00245
2.3014
3.60512
4.62821
5.20046
5.29261
4.95799
4.2517
3.2054
1.88002
0.436403
-0.861155
-1.73955
-2.03529
-1.85464
-1.39547
-0.911307
-0.568161
-0.404495
-0.319652
-0.216854
-0.107331
0.00764337
0.127378
0.243715
0.342463
0.408368
0.430423
0.40684
0.347796
0.274258
0.212261
0.184121
0.19546
0.233156
0.285582
0.348227
0.418048
0.493502
0.574642
0.662585
0.758583
0.86309
0.974834
1.09107
1.20889
1.32522
1.43722
1.54263
1.64026
1.73053
1.81536
1.89806
1.9829
2.07456
2.17734
2.29432
2.42663
2.57285
2.7307
2.89454
3.05414
3.19517
3.30568
3.37772
3.40859
3.40132
3.36448
3.31103
3.25633
3.25859
3.45465
3.77274
4.07359
4.2207
4.14274
3.86091
3.47151
3.09794
2.8316
2.63259
2.43538
2.23409
2.02772
1.81619
1.60119
1.38587
1.17421
0.970338
0.778036
0.600395
0.439741
0.297679
0.175153
0.0726162
-0.00992048
-0.0731586
-0.118857
-0.150597
-0.174379
-0.196474
-0.22205
-0.254205
-0.293504
-0.338173
-0.384904
-0.429969
-0.470263
-0.504589
-0.532556
-0.5543
-0.5703
-0.581086
-0.587163
-0.589151
-0.587901
-0.585028
-0.582711
-0.583393
-0.589277
-0.60173
-0.620763
-0.644686
-0.670038
-0.691913
-0.704418
-0.701889
-0.680031
-0.637066
-0.571241
-0.485543
-0.391976
-0.30367
-0.231057
-0.179333
-0.14825
-0.134145
-0.133002
-0.142904
-0.163533
-0.196695
-0.243321
-0.301712
-0.366874
-0.431234
-0.486433
-0.526136
-0.547355
-0.549524
-0.535108
-0.508843
-0.47663
-0.444398
-0.416445
-0.395596
-0.38383
-0.382042
-0.390131
-0.407094
-0.431066
-0.459274
-0.488202
-0.51217
-0.524869
-0.520553
-0.494244
-0.434221
-0.34944
-0.259765
-0.187106
-0.147704
-0.147115
-0.179694
-0.232018
-0.288183
-0.334781
-0.36833
-0.390951
-0.405127
-0.412703
-0.416495
-0.419649
-0.424885
-0.433885
-0.446856
-0.462341
-0.477361
-0.487882
-0.489528
-0.478521
-0.450698
-0.399296
-0.321313
-0.225999
-0.132915
-0.0614444
-0.0258188
-0.0316867
-0.0745435
-0.140334
-0.20866
-0.258487
-0.275555
-0.263165
-0.232648
-0.192704
-0.148703
-0.105062
-0.0655553
-0.032657
-0.00736866
0.0107233
0.023199
0.0324478
0.0412755
0.0525447
0.0688952
0.0925588
0.125101
0.170488
0.240997
0.364421
0.546241
0.74425
0.89756
0.952528
0.888951
0.728612
0.522464
0.328074
0.191658
0.112313
0.0630276
0.0304602
0.00995407
0
-0.000870037
0.0054564
0.0172097
0.0371253
0.221218
0.668898
1.40109
2.35666
3.37041
4.22244
4.71606
4.73434
4.25404
3.32884
2.07604
0.674725
-0.650847
-1.68051
-2.10152
-2.1912
-1.95637
-1.4806
-0.913219
-0.43855
-0.273957
-0.254858
-0.371339
-0.550957
-0.695355
-0.734832
-0.660734
-0.554869
-0.441855
-0.328549
-0.220924
-0.126705
-0.0502158
0.00643039
0.0432213
0.0628771
0.0712201
0.0765495
0.0878617
0.112554
0.154714
0.210802
0.277417
0.353492
0.438277
0.531556
0.633427
0.743756
0.861561
0.984599
1.10948
1.23188
1.34778
1.45458
1.55204
1.64265
1.73132
1.82451
1.92893
2.05004
2.1902
2.34905
2.52387
2.70981
2.90063
3.08758
3.25915
3.40598
3.52155
3.60284
3.65038
3.66763
3.65988
3.63286
3.5913
3.53804
3.47436
3.39936
3.31019
3.2029
3.07344
2.91852
2.73644
2.52779
2.29573
2.04593
1.78604
1.52478
1.27082
1.03176
0.813173
0.618122
0.447091
0.298459
0.168775
0.0539054
-0.050008
-0.145635
-0.233167
-0.31159
-0.378458
-0.430756
-0.46615
-0.483974
-0.485673
-0.474629
-0.455461
-0.433082
-0.411695
-0.394146
-0.381851
-0.374816
-0.371899
-0.371216
-0.370549
-0.367694
-0.360877
-0.34876
-0.330419
-0.30559
-0.27481
-0.239059
-0.200842
-0.163527
-0.130577
-0.104791
-0.0875909
-0.0785525
-0.0752946
-0.073737
-0.0686447
-0.0453033
0.053681
0.271122
0.541955
0.763752
0.845744
0.756448
0.539777
0.290462
0.109578
0.0686299
0.117615
0.192741
0.27708
0.361237
0.43585
0.493922
0.532333
0.552464
0.55959
0.561122
0.564251
0.573859
0.590311
0.611522
0.635705
0.660842
0.685287
0.7081
0.729029
0.748245
0.765965
0.782173
0.796553
0.808385
0.816773
0.82083
0.819847
0.813441
0.80165
0.785031
0.764561
0.741619
0.717872
0.695118
0.675197
0.659736
0.650071
0.647159
0.651469
0.663002
0.682631
0.708443
0.733824
0.751231
0.754873
0.743307
0.720479
0.694421
0.674012
0.665374
0.668033
0.677652
0.690706
0.703344
0.712283
0.715255
0.711026
0.699232
0.680402
0.655797
0.627231
0.597361
0.569277
0.545968
0.52975
0.52187
0.52245
0.530763
0.545694
0.565929
0.590356
0.618833
0.651643
0.689376
0.732744
0.782333
0.838562
0.901599
0.970467
1.04263
1.11319
1.17462
1.21947
1.24167
1.23781
1.2079
1.15511
1.08442
1.00071
0.906812
0.803756
0.677099
0.499489
0.290181
0.102308
-0.00450754
0
0.0999029
0.249224
0.402441
0.539098
0.649436
0.924861
1.49486
2.35836
3.40902
4.48924
5.43528
6.08517
6.26747
5.82508
4.69524
3.00236
1.08052
-0.626158
-1.74635
-2.12088
-1.87345
-1.44711
-1.02545
-0.771629
-0.699949
-0.626122
-0.543453
-0.456924
-0.368361
-0.280434
-0.196409
-0.119392
-0.0516401
0.00582886
0.0532697
0.0919225
0.123578
0.15021
0.17386
0.196228
0.218988
0.243952
0.273101
0.30847
0.351882
0.404564
0.466784
0.537737
0.615872
0.697658
0.777331
0.8489
0.907784
0.951976
0.982642
1.00396
1.02229
1.04485
1.07847
1.12763
1.19351
1.2762
1.37601
1.49284
1.62584
1.77341
1.93316
2.10187
2.27573
2.4506
2.62244
2.78784
2.9444
3.09095
3.22741
3.35441
3.47279
3.583
3.68409
3.77088
3.83196
3.85102
3.81199
3.70444
3.52724
3.28926
3.00734
2.70307
2.39923
2.10621
1.82813
1.5702
1.33599
1.12722
0.943083
0.781114
0.637996
0.510431
0.397595
0.299343
0.216092
0.149296
0.100361
0.0696419
0.0559223
0.0564683
0.0675621
0.0852106
0.105557
0.125682
0.143364
0.15644
0.163161
0.162356
0.153661
0.137874
0.117177
0.0950177
0.0755894
0.062968
0.060132
0.0694382
0.0910147
0.119548
0.148001
0.169861
0.181139
0.181441
0.173801
0.163502
0.156404
0.157048
0.166598
0.184816
0.211248
0.244932
0.284294
0.327351
0.371654
0.414316
0.45242
0.483465
0.505657
0.518135
0.521032
0.515327
0.502522
0.484218
0.461736
0.435986
0.407446
0.376343
0.342972
0.308126
0.273403
0.241477
0.215921
0.200798
0.201346
0.232763
0.314661
0.43428
0.560544
0.66047
0.711349
0.707068
0.656814
0.579145
0.495967
0.42862
0.38689
0.369938
0.374609
0.398461
0.440118
0.4941
0.552424
0.604944
0.641198
0.652902
0.634715
0.585187
0.507619
0.410408
0.306312
0.210516
0.174193
0.321377
0.591008
0.86777
1.04185
1.04942
0.891147
0.627165
0.355289
0.179608
0.166896
0.2139
0.271306
0.328146
0.379032
0.421636
0.456752
0.487436
0.517542
0.550155
0.586456
0.625507
0.663275
0.693741
0.711231
0.712357
0.697379
0.670535
0.639106
0.611358
0.593972
0.59
0.596264
0.609008
0.624867
0.641283
0.657358
0.673886
0.692571
0.715354
0.74246
0.767112
0.778258
0.76466
0.719822
0.645456
0.551723
0.453961
0.367223
0.300684
0.249269
0.209106
0.176283
0.146356
0.115479
0.0811555
0.0424908
0
-0.0495399
0.109344
0.630614
1.56329
2.79009
4.07046
5.15132
5.85623
6.0878
5.77855
4.875
3.40014
1.54263
-0.333387
-1.80707
-2.58373
-2.61872
-2.10502
-1.35082
-0.643928
-0.164966
0.0300691
0.0276226
0.0524591
0.0825863
0.118532
0.156583
0.190086
0.211995
0.217908
0.2084
0.189524
0.171177
0.16393
0.175555
0.204911
0.246656
0.296173
0.349587
0.402581
0.4512
0.492815
0.526504
0.553114
0.575029
0.595677
0.61892
0.648429
0.687202
0.736914
0.797911
0.870136
0.953424
1.04731
1.15106
1.26374
1.38437
1.51193
1.64552
1.78452
1.92869
2.07796
2.23218
2.39075
2.55241
2.71531
2.87734
3.03663
3.19197
3.34283
3.48851
3.62854
3.76254
3.88346
3.9766
4.02659
4.02507
3.97405
3.8827
3.76077
3.61332
3.44403
3.25921
3.063
2.85761
2.64496
2.42733
2.2073
1.9876
1.77106
1.56054
1.35894
1.1691
0.993938
0.836826
0.700935
0.588245
0.499675
0.434895
0.39219
0.36853
0.359858
0.361561
0.369033
0.378214
0.38601
0.390444
0.390595
0.386422
0.378514
0.367865
0.355654
0.343023
0.331035
0.320625
0.312508
0.307074
0.304326
0.303904
0.305003
0.306398
0.306883
0.305583
0.302164
0.29685
0.290237
0.283005
0.275661
0.268518
0.261904
0.256615
0.254284
0.257347
0.268506
0.289806
0.321698
0.362449
0.408428
0.454849
0.496979
0.531304
0.556283
0.572471
0.582057
0.588005
0.593153
0.599245
0.606959
0.61585
0.624374
0.630484
0.632258
0.628468
0.618951
0.604714
0.587739
0.570582
0.555866
0.545577
0.540783
0.541912
0.548856
0.560959
0.577243
0.596636
0.618202
0.641286
0.66555
0.690892
0.717272
0.74447
0.77181
0.797899
0.820378
0.836067
0.841706
0.834495
0.812858
0.777101
0.729772
0.675536
0.620521
0.571195
0.532693
0.507065
0.497383
0.502239
0.516348
0.533257
0.547204
0.554614
0.55482
0.549903
0.543797
0.541036
0.544798
0.556197
0.575353
0.601768
0.633906
0.669349
0.70532
0.739039
0.767947
0.789782
0.802161
0.803178
0.791092
0.764428
0.722216
0.663903
0.586614
0.487806
0.369797
0.244878
0.131252
0.0453772
-0.000525236
0
0.0496297
0.138294
0.304242
0.697445
1.24191
1.90826
2.64391
3.37994
4.03086
4.47251
4.53299
4.03777
2.91489
1.29847
-0.460231
-1.91681
-2.73377
-2.83417
-2.40336
-1.75486
-1.15484
-0.720433
-0.434751
-0.262486
-0.193312
-0.146896
-0.113031
-0.0911351
-0.078344
-0.0700161
-0.0607379
-0.0455324
-0.0213905
0.0118226
0.0528327
0.0998328
0.150578
0.20235
0.252375
0.298413
0.339062
0.373891
0.403372
0.428667
0.451329
0.473038
0.495458
0.520187
0.549007
0.584068
0.628017
0.683941
0.755068
0.844257
0.953355
1.08228
1.22905
1.39004
1.56016
1.73354
1.90386
2.06597
2.21687
2.35612
2.48579
2.6098
2.73301
2.86013
2.995
3.14228
3.30712
3.49322
3.69458
3.89036
4.05887
4.17529
4.21254
4.15225
3.99719
3.77436
3.52404
3.28024
3.05197
2.83106
2.61337
2.39807
2.1857
1.9775
1.77519
1.58072
1.39594
1.22216
1.05999
0.909103
0.768435
0.636413
0.511372
0.391941
0.277316
0.167343
0.062407
-0.036796
-0.129515
-0.215122
-0.293119
-0.362946
-0.424121
-0.476111
-0.518142
-0.549286
-0.568984
-0.577103
-0.574117
-0.561183
-0.540044
-0.512779
-0.481431
-0.447639
-0.412387
-0.376005
-0.338328
-0.299005
-0.257836
-0.215674
-0.17516
-0.139789
-0.112515
-0.0942426
-0.082834
-0.0731184
-0.0580207
-0.0304872
0.0144254
0.0756851
0.150881
0.236867
0.325295
0.405281
0.467521
0.506522
0.521952
0.518743
0.505823
0.493655
0.491231
0.503121
0.52658
0.557626
0.591184
0.621594
0.643846
0.654486
0.652043
0.636975
0.611273
0.577869
0.540236
0.501295
0.463245
0.427564
0.395004
0.365837
0.340155
0.317714
0.297896
0.279652
0.261037
0.239478
0.212483
0.178451
0.137445
0.0916578
0.0453324
0.00411911
-0.0259043
-0.0328177
0.00480051
0.101884
0.2252
0.331073
0.378969
0.345605
0.237757
0.0962344
-0.0164735
-0.0440176
0.0294024
0.14342
0.268262
0.390031
0.496881
0.580877
0.63879
0.671772
0.684135
0.681678
0.670103
0.653997
0.635553
0.615178
0.59214
0.565091
0.532682
0.494091
0.449364
0.399512
0.34632
0.291953
0.238483
0.187477
0.139854
0.09598
0.0561906
0.0205913
-0.0105121
-0.0363357
-0.0558284
0
0.438802
1.16448
2.11615
3.1814
4.22349
5.098
5.65767
5.7562
5.27566
4.18688
2.6156
0.858479
-0.693782
-1.7122
-2.03733
-1.87843
-1.5417
-1.21698
-1.00814
-0.864137
-0.678294
-0.496192
-0.329877
-0.194315
-0.101254
-0.0553686
-0.0525822
-0.0812053
-0.124979
-0.166568
-0.191791
-0.197034
-0.183516
-0.153398
-0.107348
-0.0492673
0.0124232
0.0688302
0.112706
0.140177
0.151567
0.151108
0.145697
0.143124
0.150154
0.170019
0.203233
0.249447
0.308336
0.379635
0.463053
0.558375
0.665489
0.784313
0.914637
1.05594
1.20718
1.36665
1.5319
1.69976
1.86653
2.02822
2.18155
2.32459
2.45717
2.58085
2.69842
2.81305
2.92734
3.04275
3.15787
3.26786
3.36382
3.43547
3.47427
3.4724
3.42291
3.32064
3.16357
2.95397
2.69919
2.41186
2.11172
1.81407
1.52673
1.25596
1.00691
0.782771
0.583609
0.407339
0.250607
0.109897
-0.0174511
-0.132573
-0.234949
-0.32282
-0.393908
-0.44327
-0.465699
-0.462131
-0.441838
-0.416474
-0.397171
-0.392025
-0.404711
-0.434415
-0.476895
-0.526154
-0.576176
-0.622636
-0.663418
-0.697687
-0.725033
-0.744027
-0.753547
-0.752595
-0.740678
-0.718247
-0.686875
-0.649523
-0.610019
-0.572393
-0.540114
-0.515434
-0.49899
-0.489744
-0.485233
-0.482082
-0.476796
-0.466467
-0.449268
-0.424779
-0.393672
-0.359167
-0.325425
-0.296528
-0.27554
-0.263902
-0.261307
-0.266021
-0.275498
-0.287038
-0.298627
-0.309295
-0.318863
-0.328376
-0.339992
-0.356146
-0.378672
-0.408048
-0.443005
-0.480655
-0.517073
-0.548087
-0.570619
-0.582923
-0.583415
-0.571361
-0.546882
-0.511473
-0.466938
-0.414988
-0.358933
-0.303647
-0.253466
-0.211127
-0.17709
-0.149572
-0.125378
-0.101243
-0.075173
-0.0472555
-0.0194955
0.0054173
0.0246964
0.0361698
0.0386585
0.0319696
0.0166353
-0.00638638
-0.0352563
-0.0684146
-0.104333
-0.140561
-0.173257
-0.198017
-0.210644
-0.208018
-0.188807
-0.15377
-0.105578
-0.0482952
0.0132368
0.0739174
0.128383
0.170373
0.194423
0.195953
0.172303
0.123906
0.0551204
-0.02884
-0.112584
-0.179061
-0.213525
-0.206984
-0.158065
-0.0728289
0.0372178
0.158123
0.276589
0.385254
0.481009
0.559684
0.617559
0.65222
0.662558
0.64812
0.609271
0.547521
0.465872
0.368989
0.263067
0.15532
0.0533619
-0.0360223
-0.108004
-0.160443
-0.194074
-0.212053
-0.218996
-0.219777
-0.218483
-0.217737
-0.223013
0
0.586351
1.53704
2.73355
3.96696
5.00654
5.66402
5.82236
5.42935
4.49369
3.10989
1.49059
-0.0506612
-1.19901
-1.77615
-1.69724
-1.50378
-1.24054
-0.993256
-0.800081
-0.6734
-0.57969
-0.497068
-0.418649
-0.341098
-0.262137
-0.180175
-0.0946233
-0.00605192
0.0838458
0.172786
0.257973
0.335839
0.40274
0.456716
0.497044
0.524457
0.541239
0.551083
0.558651
0.56888
0.58619
0.613313
0.650439
0.697023
0.752238
0.814658
0.882454
0.953783
1.02688
1.10067
1.17508
1.25115
1.33091
1.41702
1.51222
1.6187
1.73758
1.8683
2.0094
2.15861
2.31324
2.47066
2.62879
2.78644
2.94332
3.0999
3.25705
3.41559
3.57607
3.73684
3.89109
4.02864
4.13876
4.21278
4.2454
4.23444
4.1796
4.08127
3.9402
3.7587
3.54516
3.30889
3.05857
2.80204
2.54539
2.293
2.04868
1.81561
1.59632
1.39279
1.20667
1.03944
0.892507
0.767212
0.664622
0.586043
0.534786
0.51659
0.533123
0.572079
0.615538
0.646266
0.651656
0.626224
0.571785
0.495444
0.406421
0.313229
0.22199
0.135481
0.0552045
-0.0161772
-0.0761883
-0.122639
-0.154041
-0.170013
-0.171513
-0.160822
-0.141267
-0.116792
-0.09146
-0.0692702
-0.0534847
-0.0462685
-0.0484793
-0.0596071
-0.0779015
-0.100695
-0.124865
-0.147326
-0.165734
-0.178834
-0.185722
-0.186001
-0.17988
-0.168012
-0.151865
-0.133647
-0.116042
-0.102002
-0.0946695
-0.0969652
-0.110769
-0.136676
-0.173649
-0.218886
-0.268019
-0.315702
-0.356516
-0.386013
-0.400456
-0.39811
-0.381595
-0.357724
-0.334673
-0.319618
-0.317148
-0.328634
-0.352663
-0.386288
-0.426611
-0.472044
-0.522329
-0.577661
-0.638344
-0.704226
-0.773988
-0.844141
-0.909275
-0.963362
-1.00104
-1.01878
-1.01567
-0.993569
-0.956761
-0.911146
-0.863205
-0.818711
-0.782068
-0.75596
-0.741176
-0.736784
-0.740559
-0.749559
-0.760663
-0.771176
-0.779154
-0.783317
-0.782928
-0.777595
-0.767171
-0.751709
-0.73142
-0.706654
-0.677889
-0.645682
-0.610657
-0.573377
-0.534381
-0.494223
-0.453676
-0.414039
-0.37748
-0.347147
-0.326406
-0.318341
-0.324915
-0.34628
-0.380483
-0.423743
-0.471238
-0.51816
-0.560753
-0.597455
-0.628077
-0.652337
-0.670168
-0.681372
-0.685473
-0.681671
-0.668946
-0.646233
-0.612587
-0.567337
-0.510255
-0.441742
-0.36332
-0.275387
-0.181261
-0.0881473
-0.00416574
0.0630836
0.10781
0.126701
0.118842
0.0851569
0.02784
-0.0489398
-0.138799
-0.236287
-0.336368
-0.433713
-0.523134
-0.600638
-0.664211
-0.714196
-0.753096
-0.784813
-0.813559
-0.842822
-0.874559
-0.909418
-0.963309
-0.686536
0
1.06689
2.36693
3.68169
4.78319
5.4693
5.57578
4.99426
3.72278
1.92962
-0.0364417
-1.73686
-2.81167
-3.11978
-2.84022
-2.27199
-1.73098
-1.40038
-1.29534
-1.20985
-1.1012
-0.98939
-0.878247
-0.770655
-0.669015
-0.574565
-0.486916
-0.403925
-0.322089
-0.234357
-0.121649
0.0297184
0.192545
0.32159
0.375885
0.339296
0.230459
0.0974216
-0.00113945
-0.0204326
0.0284177
0.10522
0.193945
0.285371
0.371312
0.447067
0.512806
0.573874
0.63979
0.722112
0.83169
0.976026
1.15221
1.35316
1.573
1.80536
2.04278
2.27767
2.5031
2.71377
2.90667
3.08137
3.23987
3.38615
3.52537
3.66293
3.80353
3.95116
4.10924
4.2784
4.45582
4.63489
4.80261
4.9506
5.07738
5.15836
5.14475
4.98879
4.67825
4.25773
3.82096
3.47171
3.22215
3.00893
2.81262
2.62918
2.45452
2.28521
2.11891
1.95462
1.79272
1.63468
1.48273
1.33976
1.20863
1.09147
0.989684
0.903872
0.83403
0.781165
0.747508
0.732884
0.737217
0.759895
0.798967
0.852588
0.914114
0.976079
1.03232
1.07981
1.11929
1.15434
1.18938
1.22745
1.26877
1.31152
1.35353
1.39278
1.42808
1.45904
1.48533
1.50522
1.51659
1.51628
1.50209
1.47529
1.44219
20
266
487
717
960
1213
1458
1717
1978
2220
2464
2704
2925
3140
3375
3629
3520
3736
3512
3701
3720
0
0
0
0
0
0
0
0
0
0
0
0
0
0
0
0
0
0
0
0
0
0
0
0
0
0
0
0
0
0
0
0
0
0
0
0
0
0
0
0
0
0
0
0
0
0
0
0
0
0
0
0
0
0
0
0
0
0
0
0
0
0
0
0
0
0
0
0
0
0
0
0
0
0
0
0
0
0
0
0
0
0
0
0
0
0
0
0
0
0
0
0
0
0
0
0
0
0
0
0
0
0
0
0
0
0
0
0
0
0
0
0
0
0
0
0
0
0
0
0
0
0
0
0
0
0
0
0
0
0
0
0
0
0
0
0
0
0
0
0
0
0
0
0
0
0
0
0
0
0
0
0
0
0
0
0
0
0
0
0
0
0
0
0
0
0
0
0
0
0
0
0
0
0
0
0
0
0
0
0
0
0
0
0
0
0
0
0
0
0
0
0
0
0
0
0
0
0
0
0
0
0
0
0
0
0
0
0
0
0
0
0
0
0
0
0
0
0
0
0
0
0
0
0
0
0
0
0
0
0
0
0
0
0
0
0
0
0
0
0
0
0
0
0
0
0
0
0
0
0
0
0
0
0
0
0
0
0
0
0
0
0
0
0
0
0
0
0
0
0
0
0
0
0
0
0
0
0
0
0
0
0
0
0
0
0
0
0
0
0
0
0
0
0
0
0
0
0
0
0
0
0
0
0
0
0
0
0
0
0
0
0
0
0
0
0
0
0
0
0
0
0
0
0
0
0
0
0
0
0
0
0
0
0
0
0
0
0
0
0
0
0
0
0
0
0
0
0
0
0
0
0
0
0
0
0
0
0
0
0
0
0
0
0
0
0
0
0
0
0
0
0
0
0
0
0
0
0
0
0
0
0
0
0
0
0
0
0
0
0
0
0
0
0
0
0
0
0
0
0
0
0
0
0
0
0
0
0
0
0
0
0
0
0
0
0
0
0
0
0
0
0
0
0
0
0
0
0
0
0
0
0
0
0
0
0
0
0
0
0
0
0
0
0
0
0
0
0
0
0
0
0
0
0
0
0
0
0
0
0
0
0
0
0
0
0
0
0
0
0
0
0
0
0
0
0
0
0
0
0
0
0
0
0
0
0
0
0
0
0
0
0
0
0
0
0
0
0
0
0
0
0
0
0
0
0
0
0
0
0
0
0
0
0
0
0
0
0
0
0
0
0
0
0
0
0
0
0
0
0
0
0
0
0
0
0
0
0
0
0
0
0
0
0
0
0
0
0
0
0
0
0
0
0
0
0
0
0
0
0
0
0
0
0
0
0
0
0
0
0
0
0
0
0
0
0
0
0
0
0
0
0
0
0
0
0
0
0
0
0
0
0
0
0
0
0
0
0
0
0
0
0
0
0
0
0
0
0
0
0
0
0
0
0
0
0
0
0
0
0
0
0
0
0
0
0
0
0
0
0
0
0
0
0
0
0
0
0
0
0
0
0
0
0
0
0
0
0
0
0
0
0
0
0
0
0
0
0
0
0
0
0
0
0
0
0
0
0
0
0
0
0
0
0
0
0
0
0
0
0
0
0
0
0
0
0
0
0
0
0
0
0
0
0
0
0
0
0
0
0
0
0
0
0
0
0
0
0
0
0
0
0
0
0
0
0
0
0
0
0
0
0
0
0
0
0
0
0
0
0
0
0
0
0
0
0
0
0
0
0
0
0
0
0
0
0
0
0
0
0
0
0
0
0
0
0
0
0
0
0
0
0
0
0
0
0
0
0
0
0
0
0
0
0
0
0
0
0
0
0
0
0
0
0
0
0
0
0
0
0
0
0
0
0
0
0
0
0
0
0
0
0
0
0
0
0
0
0
0
0
0
0
0
0
0
0
0
0
0
0
0
0
0
0
0
0
0
0
0
0
0
0
0
0
0
0
0
0
0
0
0
0
0
0
0
0
0
0
0
0
0
0
0
0
0
0
0
0
0
0
0
0
0
0
0
0
0
0
0
0
0
0
0
0
0
0
0
0
0
0
0
0
0
0
0
0
0
0
0
0
0
0
0
0
0
0
0
0
0
0
0
0
0
0
0
0
0
0
0
0
0
0
0
0
0
0
0
0
0
0
0
0
0
0
0
0
0
0
0
0
0
0
0
0
0
0
0
0
0
0
0
0
0
0
0
0
0
0
0
0
0
0
0
0
0
0
0
0
0
0
0
0
0
0
0
0
0
0
0
0
0
0
0
0
0
0
0
0
0
0
0
0
0
0
0
0
0
0
0
0
0
0
0
0
0
0
0
0
0
0
0
0
0
0
0
0
0
0
0
0
0
0
0
0
0
0
0
0
0
0
0
0
0
0
0
0
0
0
0
0
0
0
0
0
0
0
0
0
0
0
0
0
0
0
0
0
0
0
0
0
0
0
0
0
0
0
0
0
0
0
0
0
0
0
0
0
0
0
0
0
0
0
0
0
0
0
0
0
0
0
0
0
0
0
0
0
0
0
0
0
0
0
0
0
0
0
0
0
0
0
0
0
0
0
0
0
0
0
0
0
0
0
0
0
0
0
0
0
0
0
0
0
0
0
0
0
0
0
0
0
0
0
0
0
0
0
0
0
0
0
0
0
0
0
0
0
0
0
0
0
0
0
0
0
0
0
0
0
0
0
0
0
0
0
0
0
0
0
0
0
0
0
0
0
0
0
0
0
0
0
0
0
0
0
0
0
0
0
0
0
0
0
0
0
0
0
0
0
0
0
0
0
0
0
0
0
0
0
0
0
0
0
0
0
0
0
0
0
0
0
0
0
0
0
0
0
0
0
0
0
0
0
0
0
0
0
0
0
0
0
0
0
0
0
0
0
0
0
0
0
0
0
0
0
0
0
0
0
0
0
0
0
0
0
0
0
0
0
0
0
0
0
0
0
0
0
0
0
0
0
0
0
0
0
0
0
0
0
0
0
0
0
0
0
0
0
0
0
0
0
0
0
0
0
0
0
0
0
0
0
0
0
0
0
0
0
0
0
0
0
0
0
0
0
0
0
0
0
0
0
0
0
0
0
0
0
0
0
0
0
0
0
0
0
0
0
0
0
0
0
0
0
0
0
0
0
0
0
0
0
0
0
0
0
0
0
0
0
0
0
0
0
0
0
0
0
0
0
0
0
0
0
0
0
0
0
0
0
0
0
0
0
0
0
0
0
0
0
0
0
0
0
0
0
0
0
0
0
0
0
0
0
0
0
0
0
0
0
0
0
0
0
0
0
0
0
0
0
0
0
0
0
0
0
0
0
0
0
0
0
0
0
0
0
0
0
0
0
0
0
0
0
0
0
0
0
0
0
0
0
0
0
0
0
0
0
0
0
0
0
0
0
0
0
0
0
0
0
0
0
0
0
0
0
0
0
0
0
0
0
0
0
0
0
0
0
0
0
0
0
0
0
0
0
0
0
0
0
0
0
0
0
0
0
0
0
0
0
0
0
0
0
0
0
0
0
0
0
0
0
0
0
0
0
0
0
0
0
0
0
0
0
0
0
0
0
0
0
0
0
0
0
0
0
0
0
0
0
0
0
0
0
0
0
0
0
0
0
0
0
0
0
0
0
0
0
0
0
0
0
0
0
0
0
0
0
0
0
0
0
0
0
0
0
0
0
0
0
0
0
0
0
0
0
0
0
0
0
0
0
0
0
0
0
0
0
0
0
0
0
0
0
0
0
0
0
0
0
0
0
0
0
0
0
0
0
0
0
0
0
0
0
0
0
0
0
0
0
0
0
0
0
0
0
0
0
0
0
0
0
0
0
0
0
0
0
0
0
0
0
0
0
0
0
0
0
0
0
0
0
0
0
0
0
0
0
0
0
0
0
0
0
0
0
0
0
0
0
0
0
0
0
0
0
0
0
0
0
0
0
0
0
0
0
0
0
0
0
0
0
0
0
0
0
0
0
0
0
0
0
0
0
0
0
0
0
0
0
0
0
0
0
0
0
0
0
0
0
0
0
0
0
0
0
0
0
0
0
0
0
0
0
0
0
0
0
0
0
0
0
0
0
0
0
0
0
0
0
0
0
0
0
0
0
0
0
0
0
0
0
0
0
0
0
0
0
0
0
0
0
0
0
0
0
0
0
0
0
0
0
0
0
0
0
0
0
0
0
0
0
0
0
0
0
0
0
0
0
0
0
0
0
0
0
0
0
0
0
0
0
0
0
0
0
0
0
0
0
0
0
0
0
0
0
0
0
0
0
0
0
0
0
0
0
0
0
0
0
0
0
0
0
0
0
0
0
0
0
0
0
0
0
0
0
0
0
0
0
0
0
0
0
0
0
0
0
0
0
0
0
0
0
0
0
0
0
0
0
0
0
0
0
0
0
0
0
0
0
0
0
0
0
0
0
0
0
0
0
0
0
0
0
0
0
0
0
0
0
0
0
0
0
0
0
0
0
0
0
0
0
0
0
0
0
0
0
0
0
0
0
0
0
0
0
0
0
0
0
0
0
0
0
0
0
0
0
0
0
0
0
0
0
0
0
0
0
0
0
0
0
0
0
0
0
0
0
0
0
0
0
0
0
0
0
0
0
0
0
0
0
0
0
0
0
0
0
0
0
0
0
0
0
0
0
0
0
0
0
0
0
0
0
0
0
0
0
0
0
0
0
0
0
0
0
0
0
0
0
0
0
0
0
0
0
0
0
0
0
0
0
0
0
0
0
0
0
0
0
0
0
0
0
0
0
0
0
0
0
0
0
0
0
0
0
0
0
0
0
0
0
0
0
0
0
0
0
0
0
0
0
0
0
0
0
0
0
0
0
0
0
0
0
0
0
0
0
0
0
0
0
0
0
0
0
0
0
0
0
0
0
0
0
0
0
0
0
0
0
0
0
0
0
0
0
0
0
0
0
0
0
0
0
0
0
0
0
0
0
0
0
0
0
0
0
0
0
0
0
0
0
0
0
0
0
0
0
0
0
0
0
0
0
0
0
0
0
0
0
0
0
0
0
0
0
0
0
0
0
0
0
0
0
0
0
0
0
0
0
0
0
0
0
0
0
0
0
0
0
0
0
0
0
0
0
0
0
0
0
0
0
0
0
0
0
0
0
0
0
0
0
0
0
0
0
0
0
0
0
0
0
0
0
0
0
0
0
0
0
0
0
0
0
0
0
0
0
0
0
0
0
0
0
0
0
0
0
0
0
0
0
0
0
0
0
0
0
0
0
0
0
0
0
0
0
0
0
0
0
0
0
0
0
0
0
0
0
0
0
0
0
0
0
0
0
0
0
0
0
0
0
0
0
0
0
0
0
0
0
0
0
0
0
0
0
0
0
0
0
0
0
0
0
0
0
0
0
0
0
0
0
0
0
0
0
0
0
0
0
0
0
0
0
0
0
0
0
0
0
0
0
0
0
0
0
0
0
0
0
0
0
0
0
0
0
0
0
0
0
0
0
0
0
0
0
0
0
0
0
0
0
0
0
0
0
0
0
0
0
0
0
0
0
0
0
0
0
0
0
0
0
0
0
0
0
0
0
0
0
0
0
0
0
0
0
0
0
0
0
0
0
0
0
0
0
0
0
0
0
0
0
0
0
0
0
0
0
0
0
0
0
0
0
0
0
0
0
0
0
0
0
0
0
0
0
0
0
0
0
0
0
0
0
0
0
0
0
0
0
0
0
0
0
0
0
0
0
0
0
0
0
0
0
0
0
0
0
0
0
0
0
0
0
0
0
0
0
0
0
0
0
0
0
0
0
0
0
0
0
0
0
0
0
0
0
0
0
0
0
0
0
0
0
0
0
0
0
0
0
0
0
0
0
0
0
0
0
0
0
0
0
0
0
0
0
0
0
0
0
0
0
0
0
0
0
0
0
0
0
0
0
0
0
0
0
0
0
0
0
0
0
0
0
0
0
0
0
0
0
0
0
0
0
0
0
0
0
0
0
0
0
0
0
0
0
0
0
0
0
0
0
0
0
0
0
0
0
0
0
0
0
0
0
0
0
0
0
0
0
0
0
0
0
0
0
0
0
0
0
0
0
0
0
0
0
0
0
0
0
0
0
0
0
0
0
0
0
0
0
0
0
0
0
0
0
0
0
0
0
0
0
0
0
0
0
0
0
0
0
0
0
0
0
0
0
0
0
0
0
0
0
0
0
0
0
0
0
0
0
0
0
0
0
0
0
0
0
0
0
0
0
0
0
0
0
0
0
0
0
0
0
0
0
0
0
0
0
0
0
0
0
0
0
0
0
0
0
0
0
0
0
0
0
0
0
0
0
0
0
0
0
0
0
0
0
0
0
0
0
0
0
0
0
0
0
0
0
0
0
0
0
0
0
0
0
0
0
0
0
0
0
0
0
0
0
0
0
0
0
0
0
0
0
0
0
0
0
0
0
0
0
0
0
0
0
0
0
0
0
0
0
0
0
0
0
0
0
0
0
0
0
0
0
0
0
0
0
0
0
0
0
0
0
0
0
0
0
0
0
0
0
0
0
0
0
0
0
0
0
0
0
0
0
0
0
0
0
0
0
0
0
0
0
0
0
0
0
0
0
0
0
0
0
0
0
0
0
0
0
0
0
0
0
0
0
0
0
0
0
0
0
0
0
0
0
0
0
0
0
0
0
0
0
0
0
0
0
0
0
0
0
0
0
0
0
0
0
0
0
0
0
0
0
0
0
0
0
0
0
0
0
0
0
0
0
0
0
0
0
0
0
0
0
0
0
0
0
0
0
0
0
0
0
0
0
0
0
0
0
0
0
0
0
0
0
0
0
0
0
0
0
0
0
0
0
0
0
0
0
0
0
0
0
0
0
0
0
0
0
0
0
0
0
0
0
0
0
0
0
0
0
0
0
0
0
0
0
0
0
0
0
0
0
0
0
0
0
0
0
0
0
0
0
0
0
0
0
0
0
0
0
0
0
0
0
0
0
0
0
0
0
0
0
0
0
0
0
0
0
0
0
0
0
0
0
0
0
0
0
0
0
0
0
0
0
0
0
0
0
0
0
0
0
0
0
0
0
0
0
0
0
0
0
0
0
0
0
0
0
0
0
0
0
0
0
0
0
0
0
0
0
0
0
0
0
0
0
0
0
0
0
0
0
0
0
0
0
0
0
0
0
0
0
0
0
0
0
0
0
0
0
0
0
0
0
0
0
0
0
0
0
0
0
0
0
0
0
0
0
0
0
0
0
0
0
0
0
0
0
0
0
0
0
0
0
0
0
0
0
0
0
0
0
0
0
0
0
0
0
0
0
0
0
0
0
0
0
0
0
0
0
0
0
0
0
0
0
0
0
0
0
0
0
0
0
0
0
0
0
0
0
0
0
0
0
0
0
0
0
0
0
0
0
0
0
0
0
0
0
0
0
0
0
0
0
0
0
0
0
0
0
0
0
0
0
0
0
0
0
0
0
0
0
0
0
0
0
0
0
0
0
0
0
0
0
0
0
0
0
0
0
0
0
0
0
0
0
0
0
0
0
0
0
0
0
0
0
0
0
0
0
0
0
0
0
0
0
0
0
0
0
0
0
0
0
0
0
0
0
0
0
0
0
0
0
0
0
0
0
0
0
0
0
0
0
0
0
0
0
0
0
0
0
0
0
0
0
0
0
0
0
0
0
0
0
0
0
0
0
0
0
0
0
0
0
0
0
0
0
0
0
0
0
0
0
0
0
0
0
0
0
0
0
0
0
0
0
0
0
0
0
0
0
0
0
0
0
0
0
0
0
0
0
0
0
0
0
0
0
0
0
0
0
0
0
0
0
0
0
0
0
0
0
0
0
0
0
0
0
0
0
0
0
0
0
0
0
0
0
0
0
0
0
0
0
0
0
0
0
0
0
0
0
0
0
0
0
0
0
0
0
0
0
0
0
0
0
0
0
0
0
0
0
0
0
0
0
0
0
0
0
0
0
0
0
0
0
0
0
0
0
0
0
0
0
0
0
0
0
0
0
0
0
0
0
0
0
0
0
0
0
0
0
0
0
0
0
0
0
0
0
0
0
0
0
0
0
0
0
0
0
0
0
0
0
0
0
0
0
0
0
0
0
0
0
0
0
0
0
0
0
0
0
0
0
0
0
0
0
0
0
0
0
0
0
0
0
0
0
0
0
0
0
0
0
0
0
0
0
0
0
0
0
0
0
0
0
0
0
0
0
0
0
0
0
0
0
0
0
0
0
0
0
0
0
0
0
0
0
0
0
0
0
0
0
0
0
0
0
0
0
0
0
0
0
0
0
0
0
0
0
0
0
0
0
0
0
0
0
0
0
0
0
0
0
0
0
0
0
0
0
0
0
0
0
0
0
0
0
0
0
0
0
0
0
0
0
0
0
0
0
0
0
0
0
0
0
0
0
0
0
0
0
0
0
0
0
0
0
0
0
0
0
0
0
0
0
0
0
0
0
0
0
0
0
0
0
0
0
0
0
0
0
0
0
0
0
0
0
0
0
0
0
0
0
0
0
0
0
0
0
0
0
