2.17153
2.14435
2.13167
2.12997
2.13614
2.14808
2.16483
2.18622
2.21236
2.24297
2.27689
2.31264
2.3485
2.38299
2.41531
2.44563
2.47497
2.50485
2.53672
2.57136
2.60884
2.64741
2.68429
2.71643
2.74141
2.75792
2.76584
2.76577
2.75849
2.74439
2.72408
2.69732
2.6641
2.62505
2.5817
2.5364
2.49212
2.4518
2.41781
2.3919
2.37505
2.36732
2.36791
2.37542
2.38818
2.40435
2.42232
2.44115
2.4608
2.48214
2.50678
2.53659
2.57345
2.61954
2.67504
2.7354
2.79239
2.83664
2.85989
2.85687
2.82629
2.77089
2.69657
2.61091
2.52168
2.43472
2.35311
2.27792
2.20927
2.14716
2.09163
2.04278
2.0009
1.96646
1.93993
1.92157
1.91125
1.90836
1.91084
1.91548
1.91794
1.89313
1.60469
1.03434
0.298989
-0.258662
0
1.50473
4.30749
7.95295
11.5727
14.177
15.0288
13.9289
11.2775
7.8867
4.64199
2.186
0.76131
0.250616
0.343736
0.667304
0.95926
1.19091
1.34431
1.43639
1.50529
1.56512
1.62172
1.67926
1.74077
1.80773
1.88003
1.95621
2.03371
2.10909
2.17868
2.23945
2.28962
2.32898
2.35907
2.38295
2.40482
2.42932
2.46094
2.50316
2.5579
2.62586
2.70672
2.79921
2.90111
3.00957
3.12133
3.23306
3.34161
3.44428
3.53902
3.6244
3.69946
3.76349
3.81594
3.8562
3.88337
3.89613
3.89292
3.87217
3.83273
3.77428
3.69757
3.60454
3.49812
3.38186
3.25946
3.13425
3.00875
2.88476
2.76365
2.64675
2.53565
2.43275
2.34082
2.26263
2.20051
2.15575
2.12811
2.11588
2.11597
2.12408
2.13551
2.14603
2.15256
2.15347
2.14868
2.13946
2.128
2.11685
2.10836
2.10411
2.10478
2.11035
2.11987
2.13208
2.14582
2.16035
2.17538
2.19088
2.20673
2.22247
2.23714
2.24947
2.25811
2.26208
2.26091
2.25472
2.24392
2.22895
2.21008
2.18736
2.16051
2.12922
2.09354
2.05408
2.01219
1.97037
1.93264
1.90354
1.88743
1.88756
1.90539
1.94017
1.98913
2.04807
2.11235
2.17777
2.24145
2.30201
2.3585
2.40999
2.45549
2.49377
2.52327
2.54222
2.54904
2.54277
2.52339
2.49198
2.45067
2.40232
2.35016
2.29725
2.24607
2.19819
2.15435
2.11488
2.07971
2.04853
2.02092
1.9965
1.97496
1.95615
1.94012
1.92704
1.9171
1.91035
1.90645
1.90432
1.90218
1.89518
1.79655
1.34249
0.597523
-0.222628
-0.612798
0
1.98428
5.26406
9.22438
12.867
15.1674
15.4731
13.7564
10.6014
6.9432
3.69491
1.43934
0.311748
0.0863764
0.384428
0.752246
1.07488
1.31003
1.43191
1.49937
1.54595
1.58018
1.60768
1.6332
1.65985
1.68868
1.71894
1.7489
1.77665
1.80098
1.82203
1.84142
1.86197
1.88709
1.91992
1.96221
2.01464
2.07712
2.14871
2.22788
2.31286
2.40199
2.49404
2.5883
2.68456
2.78306
2.88419
2.9883
3.09543
3.20524
3.31671
3.42783
3.53547
3.63524
3.72108
3.78656
3.8271
3.83967
3.82353
3.78074
3.71594
3.63519
3.54424
3.44687
3.34468
3.23812
3.12718
3.01167
2.89219
2.77025
2.64801
2.52784
2.41175
2.30149
2.19844
2.10421
2.02036
1.94818
1.88889
1.84331
1.81149
1.79255
1.7846
1.785
1.79074
1.79884
1.80686
1.8131
1.8166
1.81706
1.81475
1.81039
1.80498
1.79963
1.79546
1.7934
1.79407
1.7977
1.80395
1.81197
1.82044
1.82781
1.83264
1.83393
1.83133
1.82526
1.8167
1.80688
1.79689
1.78729
1.77794
1.76805
1.75662
1.74299
1.72725
1.71038
1.69396
1.67967
1.66877
1.6615
1.65746
1.65606
1.65673
1.65927
1.6641
1.67224
1.68512
1.70423
1.73057
1.76458
1.80594
1.85362
1.90596
1.96093
2.01649
2.07071
2.12181
2.16759
2.20496
2.23049
2.24086
2.23308
2.20552
2.15886
2.09647
2.02415
1.94905
1.87822
1.81629
1.76467
1.72471
1.69591
1.67677
1.66548
1.66051
1.66079
1.66547
1.67362
1.68284
1.68723
1.67786
1.64359
1.52798
1.14241
0.532468
-0.194332
-0.585582
0
1.90095
5.07135
8.97878
12.7028
15.214
15.751
14.1329
10.8517
6.88158
3.28303
0.801963
-0.344289
-0.416434
0.0885841
0.471284
0.797523
1.03316
1.17387
1.2849
1.38159
1.46753
1.54475
1.6144
1.67671
1.7315
1.77879
1.81936
1.85488
1.88777
1.92072
1.95619
1.99587
2.04053
2.09029
2.14478
2.20329
2.2651
2.32975
2.3972
2.4679
2.54275
2.62282
2.70899
2.80156
2.89993
3.00245
3.10644
3.20862
3.30542
3.39349
3.47002
3.53311
3.58169
3.61532
3.6339
3.63739
3.62551
3.59796
3.55435
3.49455
3.4189
3.32854
3.22548
3.11256
2.9932
2.87098
2.74916
2.63028
2.51599
2.40707
2.30355
2.2051
2.11148
2.02295
1.94072
1.86666
1.80288
1.75131
1.71315
1.68845
1.676
1.67362
1.67866
1.68863
1.70158
1.71647
1.7331
1.75177
1.77291
1.79682
1.82344
1.85241
1.88315
1.91503
1.94759
1.98055
2.0137
2.04672
2.07884
2.10857
2.13389
2.15247
2.16222
2.16179
2.15079
2.12989
2.10045
2.0642
2.02285
1.97805
1.93112
1.88317
1.83541
1.78924
1.74624
1.70804
1.67609
1.65157
1.63524
1.62751
1.62845
1.63793
1.65556
1.68092
1.71347
1.7525
1.79702
1.84567
1.8968
1.94803
1.99619
2.03778
2.06942
2.08826
2.09246
2.08145
2.056
2.01807
1.97051
1.91667
1.86009
1.80384
1.75031
1.70117
1.65745
1.61967
1.58778
1.56117
1.53878
1.51941
1.50188
1.48509
1.46792
1.449
1.42642
1.39755
1.35893
1.29998
1.12135
0.692073
0.0733384
-0.623852
-0.83164
0
2.14067
5.41265
9.16248
12.4501
14.3749
14.4058
12.5737
9.44913
5.91307
2.82108
0.714117
-0.300062
-0.464729
-0.159726
0.147921
0.424356
0.646119
0.804611
0.933112
1.04861
1.15679
1.26063
1.36202
1.46145
1.55773
1.64777
1.72735
1.79264
1.84124
1.87309
1.89097
1.90011
1.90723
1.91914
1.94135
1.97618
2.02271
2.07893
2.14276
2.21208
2.28498
2.36042
2.43836
2.51967
2.60564
2.69734
2.79498
2.89764
3.00272
3.10576
3.20145
3.2846
3.35091
3.39758
3.42343
3.42874
3.41478
3.38334
3.33663
3.27633
3.20362
3.11944
3.02492
2.92147
2.81068
2.69429
2.57442
2.45334
2.33329
2.21633
2.10418
1.99837
1.90045
1.81255
1.73701
1.67564
1.62979
1.59991
1.58516
1.58335
1.59125
1.60512
1.62141
1.63728
1.65089
1.66126
1.66809
1.67152
1.67197
1.67003
1.66641
1.66195
1.6575
1.65383
1.65152
1.65082
1.65171
1.65401
1.65745
1.66179
1.66684
1.67243
1.67837
1.68435
1.68987
1.6942
1.69658
1.69622
1.69261
1.68557
1.67539
1.66284
1.64905
1.63536
1.62316
1.61358
1.60742
1.60505
1.60638
1.61084
1.61747
1.62527
1.63363
1.64253
1.65278
1.66588
1.68384
1.7088
1.74265
1.7864
1.84021
1.90407
1.97787
2.06027
2.14536
2.22296
2.28189
2.31228
2.30794
2.26808
2.19781
2.1072
2.00917
1.91672
1.83756
1.77359
1.72502
1.69283
1.67428
1.66486
1.66005
1.65659
1.65329
1.65106
1.6522
1.65911
1.67294
1.69258
1.71439
1.73263
1.71079
1.40346
0.833939
0.125855
-0.355561
0
1.60251
4.47312
8.12949
11.6887
14.1669
14.8521
13.5817
10.7961
7.34161
4.12117
1.76463
0.471852
0.0720591
0.224601
0.561032
0.873401
1.13411
1.31654
1.43092
1.50976
1.56315
1.59586
1.61464
1.62721
1.64097
1.66164
1.69175
1.73074
1.77681
1.82796
1.8822
1.93798
1.99454
2.05209
2.11164
2.17473
2.24303
2.31791
2.4001
2.48956
2.58533
2.68568
2.78825
2.89034
2.98925
3.08252
3.16817
3.24464
3.31089
3.36676
3.41274
3.44982
3.4794
3.50314
3.52259
3.53893
3.55253
3.56257
3.56695
3.56252
3.54548
3.51206
3.4593
3.38563
3.29133
3.17859
3.05133
2.91482
2.77508
2.63761
2.50724
2.38804
2.28292
2.19364
2.12074
2.06358
2.02075
1.99045
1.97084
1.96027
1.95746
1.9614
1.97122
1.98604
2.00481
2.02628
2.04896
2.07126
2.09166
2.1089
2.12218
2.1312
2.13618
2.13773
2.13669
2.13393
2.13014
2.12575
2.12087
2.11537
2.10898
2.10143
2.09254
2.08227
2.07076
2.05827
2.0451
2.0316
2.01805
2.00468
1.99166
1.9791
1.96706
1.95556
1.94461
1.93426
1.92452
1.9154
1.90681
1.89853
1.89016
1.88122
1.87134
1.86056
1.84969
1.84072
1.83738
1.84433
1.86633
1.90697
1.96744
2.04797
2.14341
2.24371
2.33767
2.4152
2.46907
2.49561
2.49457
2.46835
2.42117
2.3589
2.28723
2.21078
2.1333
2.0577
1.98594
1.91933
1.85921
1.80698
1.76388
1.73112
1.70969
1.69898
1.69568
1.6945
1.68904
1.67256
1.63884
1.58273
1.50044
1.34117
0.984339
0.469851
-0.130268
-0.498414
0
1.79579
4.93745
8.9306
12.808
15.4488
16.0229
14.3507
10.9884
6.98229
3.41865
1.00456
-0.113265
-0.24163
0.132361
0.444687
0.711283
0.903863
1.01874
1.10548
1.18112
1.25056
1.31615
1.3792
1.44004
1.49836
1.55365
1.60564
1.65466
1.7017
1.7483
1.79618
1.84689
1.9014
1.95998
2.02225
2.08748
2.15483
2.22377
2.29421
2.36662
2.44181
2.5207
2.60393
2.69162
2.7831
2.87692
2.97088
3.06223
3.148
3.22533
3.29174
3.34532
3.38474
3.40915
3.41806
3.41137
3.38936
3.35266
3.30243
3.24037
3.16859
3.0894
3.00494
2.91687
2.82613
2.73301
2.63739
2.53912
2.43843
2.33622
2.23413
2.13448
2.03992
1.95314
1.8767
1.81248
1.76146
1.72364
1.69861
1.6847
1.67942
1.68019
1.68481
1.69183
1.70057
1.71103
1.72345
1.73797
1.75417
1.77121
1.78784
1.8027
1.81459
1.82275
1.82696
1.82753
1.82512
1.82046
1.81421
1.80674
1.7981
1.78806
1.7762
1.76212
1.74549
1.72619
1.70436
1.68034
1.65467
1.62802
1.60119
1.57508
1.55079
1.52967
1.51324
1.50295
1.49994
1.50471
1.51695
1.5357
1.55881
1.5838
1.60859
1.63205
1.65433
1.67665
1.70081
1.72843
1.76024
1.79554
1.83248
1.86836
1.90001
1.92431
1.93874
1.94162
1.9323
1.91119
1.87966
1.83992
1.79469
1.74704
1.70002
1.65635
1.61794
1.58598
1.56087
1.54198
1.52743
1.51438
1.49925
1.47776
1.44508
1.39591
1.32473
1.22628
1.09632
0.932725
0.729083
0.47831
0.195445
-0.479111
-0.727867
0
2.00005
5.1537
8.86804
12.2123
14.2283
14.2906
12.3627
9.0227
5.23679
1.98031
-0.115394
-0.928764
-0.771711
-0.186563
0.130043
0.407489
0.626609
0.795977
0.93847
1.05766
1.15755
1.24245
1.3165
1.38335
1.446
1.50677
1.56734
1.62866
1.69099
1.7538
1.81567
1.87438
1.92763
1.97361
2.01171
2.04285
2.06941
2.09481
2.12284
2.15702
2.19953
2.25128
2.31266
2.38358
2.46317
2.54981
2.64124
2.73413
2.82398
2.90598
2.97558
3.02904
3.06376
3.07843
3.07287
3.04786
3.0048
2.94608
2.87425
2.79171
2.70083
2.60411
2.50407
2.40297
2.30274
2.20488
2.11041
2.01986
1.9333
1.85049
1.77119
1.69544
1.6237
1.55707
1.49699
1.445
1.40243
1.37028
1.34858
1.33642
1.3324
1.33508
1.34323
1.35598
1.37275
1.393
1.41602
1.44079
1.46613
1.49087
1.51422
1.53589
1.55612
1.57539
1.59409
1.61204
1.62814
1.64048
1.64676
1.64508
1.63468
1.61646
1.59293
1.56776
1.54483
1.52731
1.51631
1.51169
1.51158
1.5127
1.51131
1.50405
1.4888
1.46514
1.43455
1.4002
1.36639
1.33785
1.31873
1.31173
1.31888
1.34097
1.37767
1.42769
1.48899
1.55859
1.63326
1.70949
1.7829
1.84922
1.90473
1.94682
1.97412
1.98641
1.98428
1.96863
1.94039
1.90121
1.85255
1.79594
1.73372
1.66909
1.60594
1.54839
1.50002
1.46336
1.44001
1.43051
1.43385
1.44649
1.46283
1.47688
1.48308
1.47698
1.45558
1.40796
1.24166
0.847642
0.283108
-0.350442
-0.626574
0
1.90037
5.01736
8.77876
12.2272
14.3698
14.5809
12.86
9.80913
6.34908
3.33626
1.2791
0.267564
0.0886638
0.419796
0.772612
1.07876
1.30271
1.43282
1.52042
1.59087
1.65049
1.70278
1.75012
1.79387
1.83472
1.87317
1.91006
1.9469
1.98588
2.02957
2.08041
2.1401
2.209
2.28613
2.36965
2.45717
2.5463
2.63509
2.72244
2.80819
2.89292
2.97768
3.06353
3.15127
3.24123
3.33328
3.42688
3.52123
3.61527
3.70773
3.79691
3.88057
3.95614
4.02095
4.07228
4.10761
4.12482
4.12236
4.09929
4.05538
3.99118
3.90864
3.81067
3.70061
3.58215
3.45932
3.33615
3.21629
3.10292
2.99855
2.90503
2.82353
2.75465
2.69859
2.65521
2.62415
2.60481
2.59634
2.59759
2.60704
2.6229
2.64294
2.66433
2.684
2.69934
2.70857
2.71114
2.70772
2.70014
2.69086
2.68259
2.67764
2.67739
2.68271
2.69377
2.71024
2.73094
2.75346
2.77479
2.79188
2.80205
2.80357
2.79591
2.77985
2.75723
2.73056
2.70256
2.67529
2.65009
2.62761
2.60781
2.59029
2.57466
2.56084
2.54931
2.54104
2.53726
2.53914
2.5474
2.56223
2.58327
2.60984
2.64115
2.67655
2.71562
2.758
2.8032
2.85033
2.89768
2.94267
2.98222
3.01328
3.03327
3.04056
3.03462
3.01612
2.98676
2.94901
2.90593
2.86042
2.815
2.77171
2.73203
2.69685
2.66653
2.64092
2.61938
2.60078
2.58344
2.56492
2.54204
2.51098
2.46747
2.40703
2.32533
2.21845
2.07786
1.81745
1.39117
0.858598
0.156214
0
0.971418
3.3928
7.07654
11.2612
14.8283
16.7251
16.3968
14.0096
10.3547
6.49616
3.35163
1.40572
0.654527
0.748275
1.17783
1.366
1.53454
1.67609
1.79113
1.88878
1.97094
2.03979
2.09781
2.14752
2.19128
2.23122
2.26914
2.30644
2.34404
2.38241
2.42158
2.46139
2.50161
2.54227
2.5839
2.62755
2.67469
2.727
2.78593
2.85252
2.92714
3.00932
3.09824
3.19282
3.2917
3.39323
3.4954
3.59581
3.69174
3.78046
3.85952
3.92701
3.98162
4.02248
4.04869
4.05975
4.05502
4.03371
3.99513
3.9391
3.8663
3.77855
3.67883
3.57112
3.45981
3.34877
3.24107
3.13866
3.04214
2.95085
2.86326
2.77752
2.69205
2.60602
2.51962
2.43401
2.35115
2.2734
2.20319
2.14272
2.0937
2.05698
2.03273
2.02044
2.01909
2.0272
2.04302
2.06472
2.09056
2.119
2.14872
2.17866
2.20783
2.23509
2.25924
2.27909
2.29369
2.30262
2.3062
2.30553
2.30227
2.29822
2.29476
2.29237
2.29039
2.2868
2.2787
2.26329
2.23869
2.20475
2.1633
2.11787
2.07308
2.03369
2.00305
1.98317
1.97512
1.97859
1.99214
2.01361
2.04051
2.07062
2.10214
2.13391
2.16525
2.19577
2.22507
2.2525
2.2771
2.29751
2.31216
2.31939
2.31764
2.30556
2.28229
2.24767
2.20243
2.14842
2.08854
2.02662
1.96715
1.91449
1.87225
1.84278
1.82696
1.82422
1.83263
1.84918
1.86983
1.8894
1.9006
1.89451
1.86166
1.79277
1.68025
1.51975
1.29292
1.00192
0.671447
0.0923193
0
0.84843
2.88706
5.99219
9.59454
12.7831
14.5968
14.4105
12.236
8.75782
5.04689
2.08926
0.391779
-0.12273
0.0881079
0.359555
0.581924
0.770994
0.922457
1.04882
1.16109
1.26274
1.35617
1.44342
1.52608
1.60525
1.68159
1.7554
1.82674
1.89552
1.96155
2.02469
2.08497
2.14272
2.19865
2.25382
2.30956
2.36729
2.42833
2.49369
2.56398
2.63938
2.71974
2.80455
2.89302
2.98408
3.07635
3.16812
3.25737
3.34184
3.4193
3.48766
3.54513
3.59021
3.62108
3.63607
3.63458
3.61649
3.58244
3.53402
3.4737
3.40458
3.32989
3.25238
3.17394
3.0954
3.01683
2.93788
2.85814
2.77732
2.69539
2.61243
2.52863
2.4441
2.35891
2.27325
2.18756
2.10285
2.02093
1.94478
1.87877
1.82729
1.79399
1.78112
1.78882
1.81478
1.85451
1.90215
1.95175
1.99839
2.03959
2.0751
2.10504
2.12977
2.14976
2.16552
2.17743
2.18582
2.19108
2.1937
2.1943
2.19347
2.19172
2.18933
2.18633
2.18253
2.17765
2.17138
2.1635
2.15387
2.14237
2.12884
2.11299
2.09443
2.07272
2.04754
2.01898
1.98759
1.95507
1.9249
1.90147
1.88902
1.89065
1.90752
1.93875
1.98187
2.03371
2.09119
2.15144
2.21236
2.27197
2.3274
2.37521
2.41159
2.43303
2.43712
2.42302
2.39159
2.34511
2.2868
2.22065
2.15072
2.08026
2.01206
1.94868
1.89248
1.84547
1.80932
1.78521
1.7738
1.77525
1.78929
1.8152
1.85151
1.89536
1.94222
1.9873
2.02599
2.04957
1.93994
1.48461
0.781058
-0.000738335
-0.436806
0
1.68032
4.59017
8.21712
11.6683
13.9835
14.5092
13.1531
10.3999
7.08606
4.05564
1.86701
0.673966
0.297495
0.414484
0.663774
0.892753
1.08179
1.21764
1.30927
1.37718
1.43078
1.47425
1.51015
1.54065
1.56795
1.59424
1.62169
1.65223
1.6874
1.72819
1.7749
1.82715
1.88393
1.94386
2.00543
2.06737
2.12892
2.19001
2.25131
2.31406
2.37983
2.4501
2.52595
2.6077
2.6948
2.78588
2.87894
2.9716
3.06147
3.14642
3.22472
3.29513
3.35687
3.40947
3.45256
3.48568
3.50794
3.51796
3.51415
3.49479
3.45828
3.40355
3.33049
3.24021
3.13506
3.0185
2.89474
2.76836
2.64363
2.52435
2.41368
2.31403
2.22699
2.15339
2.09348
2.04646
2.01082
1.98471
1.96622
1.95365
1.94574
1.94172
1.9413
1.9446
1.95191
1.96355
1.97966
1.99998
2.02382
2.04942
2.07418
2.0952
2.10986
2.11645
2.11451
2.1051
2.09058
2.07415
2.05922
2.04855
2.04381
2.04557
2.05362
2.06665
2.08285
2.10026
2.11723
2.13251
2.14525
2.15473
2.16023
2.16105
2.15645
2.14596
2.12964
2.10824
2.08327
2.05679
2.03121
2.00889
1.99183
1.9819
1.98091
1.99034
2.01131
2.04436
2.08926
2.14478
2.20869
2.27792
2.34812
2.41412
2.47078
2.51359
2.53913
2.54541
2.53193
2.49975
2.45131
2.39015
2.32058
2.24714
2.17387
2.10394
2.03941
1.98153
1.93077
1.88702
1.84982
1.81858
1.79253
1.77069
1.75163
1.73306
1.71176
1.68378
1.64471
1.58956
1.48829
1.22303
0.815183
0.323347
-0.155771
0
1.27338
3.87219
7.50071
11.3668
14.4286
15.7862
15.0381
12.4369
8.77557
5.05893
2.12167
0.368614
-0.259884
-0.122903
0.329427
0.740071
1.05801
1.2381
1.3176
1.36632
1.40158
1.42783
1.44897
1.46793
1.48648
1.50543
1.52511
1.54585
1.56847
1.5944
1.62562
1.66434
1.7125
1.77111
1.8402
1.91908
2.00644
2.10043
2.19905
2.30036
2.40272
2.50493
2.60616
2.70588
2.80369
2.8991
2.9914
3.07956
3.16222
3.23781
3.30463
3.36127
3.40664
3.44011
3.46146
3.47078
3.46831
3.45425
3.42862
3.3912
3.34168
3.27956
3.20441
3.11609
3.01487
2.90156
2.7776
2.6448
2.50532
2.3614
2.21522
2.0688
1.92398
1.78259
1.64723
1.52143
1.40869
1.31254
1.23599
1.18088
1.14731
1.13357
1.13637
1.1515
1.17456
1.20144
1.22925
1.25621
1.28136
1.3042
1.32445
1.3419
1.35634
1.36755
1.3754
1.3799
1.38128
1.37999
1.37663
1.37183
1.36615
1.35995
1.35334
1.34614
1.33794
1.3281
1.31591
1.30068
1.28187
1.25921
1.23283
1.20332
1.17174
1.13959
1.10867
1.0809
1.058
1.04132
1.03164
1.0292
1.03376
1.04478
1.06159
1.08351
1.10984
1.13995
1.17323
1.20901
1.24661
1.2854
1.32475
1.36403
1.40244
1.43894
1.47216
1.50042
1.52178
1.53416
1.53578
1.52529
1.50203
1.46623
1.4191
1.36285
1.30058
1.23596
1.1728
1.1145
1.0634
1.02081
0.986824
0.960158
0.938141
0.916571
0.89002
0.852574
0.798454
0.72266
0.621547
0.493281
0.338081
0.148249
-0.0709309
-0.309155
-0.652542
-0.697874
0
1.77169
4.62884
8.1365
11.4664
13.659
13.9975
12.3253
9.13811
5.38436
2.06786
-0.140538
-1.08831
-1.06181
-0.545897
-0.174518
0.151599
0.401954
0.566958
0.695027
0.797317
0.877426
0.939636
0.988502
1.02849
1.06368
1.09755
1.13282
1.17139
1.21437
1.26216
1.3146
1.3712
1.43138
1.49468
1.5609
1.63008
1.70243
1.7781
1.85699
1.93883
2.02289
2.10828
2.19437
2.28105
2.36874
2.45803
2.54918
2.64154
2.73323
2.82102
2.90114
2.97017
3.02584
3.06726
3.09466
3.10859
3.10922
3.09635
3.06859
3.02438
2.96274
2.88404
2.79026
2.68486
2.57224
2.45696
2.34281
2.23235
2.12738
2.02901
1.93795
1.85473
1.77987
1.71387
1.6571
1.60966
1.57129
1.54129
1.51872
1.50262
1.49221
1.48703
1.48709
1.49273
1.50455
1.52312
1.54884
1.5817
1.62118
1.66617
1.71502
1.76574
1.81616
1.86418
1.90809
1.9467
1.97936
2.00586
2.02624
2.04039
2.04807
2.04906
2.04317
2.03051
2.01173
1.98819
1.96183
1.93492
1.90972
1.88797
1.87061
1.85796
1.84959
1.8445
1.84118
1.83791
1.8329
1.82457
1.81181
1.79421
1.77214
1.74694
1.72156
1.70056
1.68909
1.69188
1.71219
1.75097
1.80645
1.87434
1.94861
2.02254
2.09028
2.14827
2.19428
2.22677
2.24518
2.24962
2.24064
2.2192
2.18655
2.14426
2.09436
2.03933
1.98192
1.92485
1.87052
1.82076
1.77677
1.73908
1.70769
1.68205
1.6611
1.64311
1.62546
1.6039
1.57272
1.52499
1.44864
1.26379
0.972858
0.61461
-0.0109564
0
1.18105
3.72144
7.2776
11.0059
13.8522
14.9685
14.0577
11.4758
8.05051
4.72159
2.19029
0.735624
0.242539
0.371899
0.665266
0.93891
1.17705
1.36987
1.52344
1.65368
1.76494
1.85748
1.93205
1.99011
2.03393
2.06665
2.09208
2.11445
2.13796
2.16632
2.2023
2.24769
2.30349
2.36993
2.44658
2.53246
2.62622
2.7263
2.83107
2.9389
3.04821
3.15749
3.26528
3.37017
3.47087
3.56623
3.6554
3.73791
3.81372
3.8832
3.94697
4.00553
4.05884
4.10577
4.14398
4.17068
4.18277
4.17779
4.1548
4.11483
4.06065
3.99593
3.92418
3.84782
3.76806
3.68475
3.59703
3.50414
3.40592
3.30327
3.19817
3.09364
2.99331
2.90096
2.81996
2.75278
2.70071
2.6638
2.6409
2.62978
2.62737
2.63049
2.63641
2.64332
2.65046
2.65816
2.66754
2.68012
2.6973
2.71985
2.74775
2.78027
2.81552
2.85054
2.88239
2.90903
2.92991
2.94613
2.96015
2.97495
2.99303
3.0157
3.04238
3.07003
3.09441
3.1115
3.11879
3.11618
3.10598
3.09223
3.07934
3.07072
3.06736
3.06873
3.07242
3.07537
3.07505
3.07054
3.06296
3.0553
3.05155
3.05571
3.06994
3.09439
3.12852
3.1714
3.22169
3.27781
3.33824
3.40169
3.46703
3.53315
3.59846
3.66044
3.71549
3.75927
3.78707
3.79438
3.77757
3.73444
3.66464
3.56983
3.45374
3.32194
3.18173
3.04062
2.90498
2.77987
2.66946
2.57671
2.50299
2.44809
2.41044
2.3871
2.37377
2.36503
2.35519
2.33877
2.31076
2.24433
1.91474
1.34933
0.64138
-0.0308037
0
1.23048
3.84539
7.5028
11.3756
14.4229
15.7811
15.0939
12.6365
9.188
5.71908
3.03799
1.54429
1.17844
1.55917
1.96585
2.19849
2.40288
2.57516
2.71787
2.83226
2.92117
2.98848
3.03809
3.07394
3.09961
3.11818
3.13236
3.1447
3.15772
3.17389
3.1955
3.22452
3.26221
3.30906
3.36479
3.42837
3.49799
3.57143
3.64613
3.71969
3.79062
3.85869
3.92514
3.99228
4.06287
4.13921
4.22226
4.31106
4.40282
4.49319
4.57721
4.65031
4.709
4.75127
4.77638
4.78444
4.77586
4.75129
4.71083
4.65419
4.58113
4.49179
4.38689
4.26797
4.13742
3.99855
3.85498
3.71049
3.56894
3.43395
3.30857
3.19501
3.09452
3.0073
2.93253
2.86875
2.8142
2.7672
2.7264
2.69091
2.66021
2.63402
2.61221
2.59454
2.58072
2.57046
2.56348
2.55959
2.5586
2.56028
2.56428
2.57006
2.57701
2.58453
2.59218
2.59971
2.60709
2.61437
2.6215
2.62821
2.63384
2.63733
2.63743
2.63296
2.62308
2.60756
2.58694
2.56239
2.53552
2.50798
2.48107
2.45545
2.43107
2.4073
2.38322
2.35807
2.33154
2.30397
2.27634
2.25009
2.22679
2.20776
2.19406
2.18636
2.18496
2.18982
2.20074
2.21748
2.23991
2.26802
2.3019
2.34171
2.38747
2.43894
2.49539
2.55532
2.61562
2.67027
2.71131
2.7304
2.72045
2.67757
2.60271
2.5023
2.38746
2.27173
2.16803
2.08277
2.01541
1.96497
1.92946
1.90539
1.88858
1.87501
1.86126
1.84476
1.82363
1.79633
1.76137
1.71714
1.65928
1.55443
1.26303
0.797987
0.231444
-0.224802
0
1.32546
3.90846
7.46912
11.2673
14.2922
15.6216
14.806
12.0812
8.28293
4.49317
1.60107
0.00451131
-0.419129
-0.111001
0.4076
0.85168
1.15185
1.27549
1.33118
1.37024
1.40188
1.42863
1.45222
1.47424
1.49608
1.519
1.54418
1.57271
1.60553
1.64331
1.68628
1.73414
1.78604
1.84076
1.89683
1.953
2.0087
2.06433
2.12128
2.18174
2.24819
2.32281
2.40698
2.50073
2.60286
2.71137
2.82361
2.9365
3.0468
3.15086
3.24438
3.32305
3.38375
3.4241
3.44269
3.43929
3.41476
3.3708
3.30943
3.23264
3.14277
3.04282
2.93536
2.8227
2.70742
2.59229
2.47995
2.37245
2.27088
2.17508
2.08376
1.99502
1.90694
1.81829
1.72905
1.64057
1.55568
1.47809
1.41161
1.35944
1.32359
1.30467
1.3019
1.31345
1.33676
1.36895
1.40691
1.44783
1.48931
1.52932
1.56622
1.59884
1.62657
1.64931
1.66743
1.68192
1.69421
1.70606
1.71934
1.73572
1.75636
1.78174
1.8113
1.84254
1.87194
1.89573
1.91067
1.91477
1.90749
1.88975
1.8635
1.8314
1.79638
1.76074
1.72621
1.69406
1.66503
1.63942
1.61729
1.59867
1.58385
1.57358
1.56916
1.57238
1.5851
1.60888
1.6446
1.69206
1.74989
1.81564
1.88601
1.95722
2.02536
2.08623
2.13517
2.16855
2.18401
2.18038
2.15805
2.11912
2.06735
2.00761
1.94502
1.88406
1.82741
1.77597
1.73018
1.69013
1.65582
1.62753
1.60597
1.59224
1.58755
1.59334
1.61154
1.64226
1.68052
1.71869
1.74746
1.70431
1.32883
0.699576
-0.0396149
-0.457144
0
1.68547
4.57721
8.17011
11.5819
13.8502
14.3045
12.838
9.94591
6.50728
3.41893
1.2677
0.192031
-0.0341022
0.224505
0.547166
0.838004
1.06548
1.20772
1.29903
1.36578
1.41704
1.45638
1.48649
1.51014
1.53008
1.54884
1.56868
1.59159
1.61929
1.65329
1.69483
1.74479
1.80353
1.87073
1.94529
2.02539
2.10866
2.19253
2.27471
2.3536
2.42857
2.49995
2.56884
2.63677
2.7052
2.77511
2.84673
2.91951
2.99211
3.06266
3.12932
3.19071
3.24612
3.29542
3.33845
3.37349
3.39774
3.40738
3.39763
3.36447
3.30635
3.22518
3.12595
3.01519
2.899
2.78168
2.6649
2.54914
2.43469
2.32216
2.21282
2.10874
2.01248
1.92661
1.85319
1.79345
1.74739
1.71347
1.68916
1.67135
1.65682
1.64272
1.6269
1.60811
1.58621
1.56221
1.53824
1.51793
1.50548
1.50477
1.51846
1.54718
1.58929
1.64113
1.69783
1.75426
1.80638
1.85193
1.88936
1.91799
1.93781
1.94918
1.95259
1.94846
1.93706
1.91855
1.89313
1.86121
1.82355
1.78144
1.73667
1.69146
1.64822
1.60923
1.5763
1.5505
1.53197
1.51996
1.51308
1.50959
1.50773
1.50606
1.50371
1.50048
1.4969
1.4941
1.49369
1.49761
1.50788
1.52639
1.55467
1.59407
1.64674
1.71574
1.79994
1.88753
1.96245
2.00915
2.01726
1.98492
1.91933
1.83443
1.74664
1.67038
1.61041
1.56462
1.53029
1.50545
1.48776
1.47457
1.46342
1.45237
1.44016
1.4262
1.41035
1.39261
1.37285
1.35051
1.32436
1.29242
1.25202
1.1999
1.12563
0.953799
0.58626
0.0605544
-0.545046
-0.762518
0
2.05768
5.27511
9.01875
12.3358
14.3001
14.3629
12.5555
9.45606
5.94438
2.86443
0.749245
-0.280755
-0.435822
-0.0730651
0.265562
0.554889
0.76189
0.879354
0.960944
1.02819
1.08635
1.13912
1.18862
1.23561
1.27974
1.32022
1.35644
1.38834
1.41664
1.44284
1.469
1.49748
1.53067
1.57069
1.61924
1.67746
1.74579
1.82394
1.91089
2.00503
2.10443
2.20708
2.31115
2.41517
2.51793
2.61844
2.71552
2.80769
2.89314
2.96985
3.03567
3.08864
3.12713
3.14974
3.15592
3.14576
3.11996
3.07986
3.02731
2.96442
2.89323
2.81537
2.73183
2.64308
2.54914
2.45021
2.34712
2.24162
2.13626
2.03399
1.93777
1.84974
1.77054
1.69961
1.63578
1.57789
1.52534
1.47824
1.43713
1.40257
1.37425
1.35167
1.33402
1.32038
1.31016
1.30341
1.30092
1.30394
1.31383
1.33138
1.35704
1.38961
1.4257
1.46095
1.49101
1.51248
1.52356
1.5243
1.51639
1.50259
1.48606
1.46955
1.45488
1.44297
1.43394
1.42735
1.42235
1.41786
1.41279
1.40609
1.39681
1.38418
1.36762
1.34701
1.3226
1.29524
1.26629
1.23748
1.21061
1.18728
1.16867
1.15532
1.14724
1.14412
1.14563
1.15159
1.162
1.17695
1.19647
1.22038
1.24819
1.27939
1.31351
1.35028
1.38969
1.43191
1.47706
1.52488
1.57422
1.62232
1.66396
1.69287
1.70291
1.68974
1.65227
1.59345
1.51975
1.43961
1.36115
1.2899
1.22637
1.16934
1.11701
1.06714
1.01762
0.96683
0.913379
0.85567
0.791474
0.718355
0.633011
0.532047
0.412858
0.268653
0.0966533
-0.0959303
-0.540204
-0.690896
0
1.91857
5.05849
8.88303
12.4282
14.6438
14.822
12.9011
9.48981
5.60277
2.24406
0.0435262
-0.895011
-0.899134
-0.486627
-0.272473
-0.0786182
0.084589
0.214197
0.327783
0.431155
0.526093
0.613934
0.695727
0.772272
0.844206
0.912068
0.976324
1.03734
1.09533
1.15048
1.20315
1.25398
1.30409
1.35509
1.40896
1.46777
1.53327
1.60651
1.68759
1.77569
1.86965
1.96807
2.06955
2.17274
2.27641
2.37927
2.4799
2.57663
2.66756
2.75068
2.82407
2.88614
2.93567
2.97184
2.99417
3.00239
2.99641
2.97624
2.94212
2.8946
2.83461
2.76341
2.68258
2.59388
2.499
2.39948
2.29652
2.19106
2.08388
1.9758
1.86783
1.76132
1.65801
1.56006
1.46992
1.39034
1.32392
1.27269
1.23786
1.21951
1.2169
1.22812
1.24965
1.27679
1.3047
1.32953
1.34905
1.36299
1.37285
1.38137
1.39167
1.40636
1.42681
1.45267
1.48243
1.51414
1.54556
1.57445
1.59882
1.61725
1.62907
1.63435
1.63389
1.6291
1.62176
1.61371
1.60648
1.601
1.59742
1.59495
1.59229
1.58806
1.58125
1.57158
1.55949
1.546
1.53225
1.51918
1.50706
1.49559
1.48391
1.47081
1.45492
1.43507
1.41062
1.38156
1.34875
1.31482
1.28511
1.26626
1.26485
1.2858
1.33108
1.399
1.48441
1.57971
1.67639
1.76713
1.84798
1.9164
1.97026
2.00844
2.03051
2.03623
2.02612
2.00121
1.96321
1.91462
1.85872
1.7992
1.7396
1.68309
1.63139
1.58367
1.53741
1.48958
1.43782
1.38109
1.31947
1.25307
1.18074
1.09991
1.00653
0.890095
0.712125
0.474446
0.199478
-0.249208
0
1.43351
4.16966
7.78636
11.3898
13.9337
14.6371
13.3011
10.3707
6.72706
3.32665
0.863888
-0.402221
-0.62103
-0.180754
0.373087
0.839349
1.15052
1.28503
1.36752
1.43346
1.48814
1.53427
1.57441
1.6109
1.64585
1.68109
1.71819
1.75833
1.80227
1.85027
1.9022
1.95757
2.01575
2.07612
2.13835
2.20256
2.26933
2.33958
2.41428
2.4941
2.57916
2.66883
2.76186
2.85663
2.9514
3.04464
3.13517
3.22228
3.30553
3.3845
3.45861
3.52698
3.5882
3.64016
3.68001
3.70484
3.71249
3.70167
3.67242
3.62621
3.56583
3.49483
3.41672
3.33431
3.24936
3.16266
3.07426
2.98408
2.89226
2.79928
2.70584
2.61269
2.52038
2.42924
2.33962
2.25215
2.1683
2.0912
2.0253
1.97519
1.94472
1.93573
1.94712
1.97546
2.01408
2.05564
2.09395
2.12543
2.14948
2.16793
2.18364
2.19908
2.21527
2.23171
2.24692
2.25943
2.26873
2.27565
2.28221
2.29084
2.30352
2.32075
2.34153
2.36425
2.38695
2.40735
2.42304
2.43173
2.43165
2.42159
2.40106
2.37042
2.33085
2.2842
2.2328
2.17905
2.12525
2.07338
2.02527
1.98312
1.94966
1.92739
1.91875
1.92557
1.94838
1.98584
2.03538
2.09187
2.14827
2.19791
2.23606
2.26093
2.27406
2.2797
2.28366
2.29161
2.30748
2.3319
2.36369
2.3996
2.43478
2.4639
2.48204
2.48552
2.4724
2.44271
2.39832
2.34264
2.28012
2.21519
2.15149
2.09137
2.03567
1.98412
1.93568
1.88909
1.84347
1.79865
1.75508
1.71339
1.67357
1.63394
1.58945
1.53189
1.45068
1.3142
1.00204
0.528876
-0.039222
-0.473765
0
1.77446
4.82771
8.61445
12.1798
14.4889
14.8364
13.1385
9.96195
6.27401
3.03911
0.86693
-0.129008
-0.231585
0.1189
0.375587
0.597383
0.762225
0.864426
0.939174
1.00166
1.05756
1.11098
1.16501
1.22145
1.2807
1.34199
1.40348
1.4626
1.51674
1.56389
1.6031
1.63482
1.66099
1.6848
1.71026
1.74151
1.78206
1.83403
1.89765
1.97154
2.0532
2.13945
2.22694
2.31263
2.39439
2.47123
2.54336
2.61191
2.6785
2.74463
2.81121
2.87806
2.94323
3.00323
3.05361
3.0898
3.10785
3.10488
3.0792
3.03027
2.95862
2.86615
2.75665
2.63424
2.50302
2.36722
2.23098
2.09793
1.9708
1.85131
1.74013
1.6372
1.54205
1.45432
1.37404
1.3018
1.23861
1.18564
1.14383
1.11358
1.09455
1.08542
1.08367
1.08581
1.08828
1.08814
1.0835
1.07373
1.05947
1.04225
1.02418
1.00755
0.994362
0.986234
0.984758
0.991013
1.00546
1.02792
1.05773
1.09231
1.12743
1.1585
1.18148
1.19376
1.19465
1.18532
1.16829
1.14664
1.12329
1.1003
1.07869
1.05887
1.04088
1.02461
1.00993
0.996837
0.985479
0.976139
0.969208
0.965146
0.964426
0.96747
0.974585
0.985878
1.00121
1.02023
1.04248
1.06745
1.09494
1.12541
1.16018
1.20133
1.25144
1.31298
1.3905
1.48978
1.60811
1.73111
1.84097
1.9215
1.96209
1.95953
1.91763
1.84574
1.75675
1.66527
1.58314
1.51657
1.46713
1.4336
1.41458
1.40548
1.40079
1.39573
1.38748
1.37589
1.36314
1.35261
1.34734
1.34822
1.35354
1.35929
1.3578
1.286
0.945157
0.385941
-0.26819
-0.578212
0
1.82786
4.90534
8.75008
12.4654
15.0194
15.6379
14.1356
11.0088
7.22307
3.80087
1.42283
0.246591
0.00102081
0.24779
0.547846
0.812333
1.01593
1.15195
1.25791
1.35417
1.44732
1.54043
1.63536
1.73319
1.83406
1.93707
2.04042
2.1408
2.23405
2.31631
2.38496
2.43945
2.48174
2.51613
2.5484
2.58477
2.63067
2.68892
2.76006
2.84395
2.93992
3.0466
3.16208
3.284
3.40965
3.53611
3.66035
3.77942
3.8906
3.99163
4.08087
4.15729
4.22029
4.26939
4.30388
4.32291
4.32577
4.31174
4.28038
4.23189
4.16746
4.08937
4.00084
3.90575
3.80816
3.71163
3.61889
3.53177
3.45118
3.3772
3.30924
3.24638
3.18761
3.13212
3.07946
3.02969
2.98338
2.9415
2.90527
2.87596
2.85467
2.84206
2.83826
2.84279
2.85478
2.87303
2.89596
2.92222
2.95125
2.98362
3.02109
3.06636
3.1249
3.20865
3.33148
3.48468
3.63646
3.75062
3.79961
3.77342
3.68236
3.55395
3.42529
3.33258
3.29031
3.28589
3.30462
3.3375
3.3794
3.42476
3.46829
3.50552
3.53326
3.54973
3.55462
3.54889
3.53462
3.51472
3.49257
3.4716
3.45495
3.44513
3.44372
3.45139
3.46804
3.4932
3.52643
3.56764
3.61687
3.67465
3.74123
3.81613
3.89793
3.98402
4.06923
4.14706
4.21129
4.25724
4.28259
4.28752
4.27429
4.24633
4.20736
4.16102
4.1106
4.05838
4.00612
3.9555
3.90811
3.86548
3.82887
3.79932
3.77754
3.76392
3.75842
3.76041
3.76871
3.78049
3.78933
3.78556
3.75753
3.69315
3.55997
3.27414
2.85775
2.36178
2.03333
2.60962
4.44539
7.4837
11.1606
14.5352
16.6194
16.7694
14.9583
11.7887
8.23177
95
262
429
593
759
926
1090
1252
1414
1575
1739
1903
2070
2234
2399
2566
2731
2900
3069
3238
3409
3578
3437
3590
3744
3716
3732
3500
3620
3741
0
0
0
0
0
0
0
0
0
0
0
0
0
0
0
0
0
0
0
0
0
0
0
0
0
0
0
0
0
0
0
0
0
0
0
0
0
0
0
0
0
0
0
0
0
0
0
0
0
0
0
0
0
0
0
0
0
0
0
0
0
0
0
0
0
0
0
0
0
0
0
0
0
0
0
0
0
0
0
0
0
0
0
0
0
0
0
0
0
0
0
0
0
0
0
0
0
0
0
0
0
0
0
0
0
0
0
0
0
0
0
0
0
0
0
0
0
0
0
0
0
0
0
0
0
0
0
0
0
0
0
0
0
0
0
0
0
0
0
0
0
0
0
0
0
0
0
0
0
0
0
0
0
0
0
0
0
0
0
0
0
0
0
0
0
0
0
0
0
0
0
0
0
0
0
0
0
0
0
0
0
0
0
0
0
0
0
0
0
0
0
0
0
0
0
0
0
0
0
0
0
0
0
0
0
0
0
0
0
0
0
0
0
0
0
0
0
0
0
0
0
0
0
0
0
0
0
0
0
0
0
0
0
0
0
0
0
0
0
0
0
0
0
0
0
0
0
0
0
0
0
0
0
0
0
0
0
0
0
0
0
0
0
0
0
0
0
0
0
0
0
0
0
0
0
0
0
0
0
0
0
0
0
0
0
0
0
0
0
0
0
0
0
0
0
0
0
0
0
0
0
0
0
0
0
0
0
0
0
0
0
0
0
0
0
0
0
0
0
0
0
0
0
0
0
0
0
0
0
0
0
0
0
0
0
0
0
0
0
0
0
0
0
0
0
0
0
0
0
0
0
0
0
0
0
0
0
0
0
0
0
0
0
0
0
0
0
0
0
0
0
0
0
0
0
0
0
0
0
0
0
0
0
0
0
0
0
0
0
0
0
0
0
0
0
0
0
0
0
0
0
0
0
0
0
0
0
0
0
0
0
0
0
0
0
0
0
0
0
0
0
0
0
0
0
0
0
0
0
0
0
0
0
0
0
0
0
0
0
0
0
0
0
0
0
0
0
0
0
0
0
0
0
0
0
0
0
0
0
0
0
0
0
0
0
0
0
0
0
0
0
0
0
0
0
0
0
0
0
0
0
0
0
0
0
0
0
0
0
0
0
0
0
0
0
0
0
0
0
0
0
0
0
0
0
0
0
0
0
0
0
0
0
0
0
0
0
0
0
0
0
0
0
0
0
0
0
0
0
0
0
0
0
0
0
0
0
0
0
0
0
0
0
0
0
0
0
0
0
0
0
0
0
0
0
0
0
0
0
0
0
0
0
0
0
0
0
0
0
0
0
0
0
0
0
0
0
0
0
0
0
0
0
0
0
0
0
0
0
0
0
0
0
0
0
0
0
0
0
0
0
0
0
0
0
0
0
0
0
0
0
0
0
0
0
0
0
0
0
0
0
0
0
0
0
0
0
0
0
0
0
0
0
0
0
0
0
0
0
0
0
0
0
0
0
0
0
0
0
0
0
0
0
0
0
0
0
0
0
0
0
0
0
0
0
0
0
0
0
0
0
0
0
0
0
0
0
0
0
0
0
0
0
0
0
0
0
0
0
0
0
0
0
0
0
0
0
0
0
0
0
0
0
0
0
0
0
0
0
0
0
0
0
0
0
0
0
0
0
0
0
0
0
0
0
0
0
0
0
0
0
0
0
0
0
0
0
0
0
0
0
0
0
0
0
0
0
0
0
0
0
0
0
0
0
0
0
0
0
0
0
0
0
0
0
0
0
0
0
0
0
0
0
0
0
0
0
0
0
0
0
0
0
0
0
0
0
0
0
0
0
0
0
0
0
0
0
0
0
0
0
0
0
0
0
0
0
0
0
0
0
0
0
0
0
0
0
0
0
0
0
0
0
0
0
0
0
0
0
0
0
0
0
0
0
0
0
0
0
0
0
0
0
0
0
0
0
0
0
0
0
0
0
0
0
0
0
0
0
0
0
0
0
0
0
0
0
0
0
0
0
0
0
0
0
0
0
0
0
0
0
0
0
0
0
0
0
0
0
0
0
0
0
0
0
0
0
0
0
0
0
0
0
0
0
0
0
0
0
0
0
0
0
0
0
0
0
0
0
0
0
0
0
0
0
0
0
0
0
0
0
0
0
0
0
0
0
0
0
0
0
0
0
0
0
0
0
0
0
0
0
0
0
0
0
0
0
0
0
0
0
0
0
0
0
0
0
0
0
0
0
0
0
0
0
0
0
0
0
0
0
0
0
0
0
0
0
0
0
0
0
0
0
0
0
0
0
0
0
0
0
0
0
0
0
0
0
0
0
0
0
0
0
0
0
0
0
0
0
0
0
0
0
0
0
0
0
0
0
0
0
0
0
0
0
0
0
0
0
0
0
0
0
0
0
0
0
0
0
0
0
0
0
0
0
0
0
0
0
0
0
0
0
0
0
0
0
0
0
0
0
0
0
0
0
0
0
0
0
0
0
0
0
0
0
0
0
0
0
0
0
0
0
0
0
0
0
0
0
0
0
0
0
0
0
0
0
0
0
0
0
0
0
0
0
0
0
0
0
0
0
0
0
0
0
0
0
0
0
0
0
0
0
0
0
0
0
0
0
0
0
0
0
0
0
0
0
0
0
0
0
0
0
0
0
0
0
0
0
0
0
0
0
0
0
0
0
0
0
0
0
0
0
0
0
0
0
0
0
0
0
0
0
0
0
0
0
0
0
0
0
0
0
0
0
0
0
0
0
0
0
0
0
0
0
0
0
0
0
0
0
0
0
0
0
0
0
0
0
0
0
0
0
0
0
0
0
0
0
0
0
0
0
0
0
0
0
0
0
0
0
0
0
0
0
0
0
0
0
0
0
0
0
0
0
0
0
0
0
0
0
0
0
0
0
0
0
0
0
0
0
0
0
0
0
0
0
0
0
0
0
0
0
0
0
0
0
0
0
0
0
0
0
0
0
0
0
0
0
0
0
0
0
0
0
0
0
0
0
0
0
0
0
0
0
0
0
0
0
0
0
0
0
0
0
0
0
0
0
0
0
0
0
0
0
0
0
0
0
0
0
0
0
0
0
0
0
0
0
0
0
0
0
0
0
0
0
0
0
0
0
0
0
0
0
0
0
0
0
0
0
0
0
0
0
0
0
0
0
0
0
0
0
0
0
0
0
0
0
0
0
0
0
0
0
0
0
0
0
0
0
0
0
0
0
0
0
0
0
0
0
0
0
0
0
0
0
0
0
0
0
0
0
0
0
0
0
0
0
0
0
0
0
0
0
0
0
0
0
0
0
0
0
0
0
0
0
0
0
0
0
0
0
0
0
0
0
0
0
0
0
0
0
0
0
0
0
0
0
0
0
0
0
0
0
0
0
0
0
0
0
0
0
0
0
0
0
0
0
0
0
0
0
0
0
0
0
0
0
0
0
0
0
0
0
0
0
0
0
0
0
0
0
0
0
0
0
0
0
0
0
0
0
0
0
0
0
0
0
0
0
0
0
0
0
0
0
0
0
0
0
0
0
0
0
0
0
0
0
0
0
0
0
0
0
0
0
0
0
0
0
0
0
0
0
0
0
0
0
0
0
0
0
0
0
0
0
0
0
0
0
0
0
0
0
0
0
0
0
0
0
0
0
0
0
0
0
0
0
0
0
0
0
0
0
0
0
0
0
0
0
0
0
0
0
0
0
0
0
0
0
0
0
0
0
0
0
0
0
0
0
0
0
0
0
0
0
0
0
0
0
0
0
0
0
0
0
0
0
0
0
0
0
0
0
0
0
0
0
0
0
0
0
0
0
0
0
0
0
0
0
0
0
0
0
0
0
0
0
0
0
0
0
0
0
0
0
0
0
0
0
0
0
0
0
0
0
0
0
0
0
0
0
0
0
0
0
0
0
0
0
0
0
0
0
0
0
0
0
0
0
0
0
0
0
0
0
0
0
0
0
0
0
0
0
0
0
0
0
0
0
0
0
0
0
0
0
0
0
0
0
0
0
0
0
0
0
0
0
0
0
0
0
0
0
0
0
0
0
0
0
0
0
0
0
0
0
0
0
0
0
0
0
0
0
0
0
0
0
0
0
0
0
0
0
0
0
0
0
0
0
0
0
0
0
0
0
0
0
0
0
0
0
0
0
0
0
0
0
0
0
0
0
0
0
0
0
0
0
0
0
0
0
0
0
0
0
0
0
0
0
0
0
0
0
0
0
0
0
0
0
0
0
0
0
0
0
0
0
0
0
0
0
0
0
0
0
0
0
0
0
0
0
0
0
0
0
0
0
0
0
0
0
0
0
0
0
0
0
0
0
0
0
0
0
0
0
0
0
0
0
0
0
0
0
0
0
0
0
0
0
0
0
0
0
0
0
0
0
0
0
0
0
0
0
0
0
0
0
0
0
0
0
0
0
0
0
0
0
0
0
0
0
0
0
0
0
0
0
0
0
0
0
0
0
0
0
0
0
0
0
0
0
0
0
0
0
0
0
0
0
0
0
0
0
0
0
0
0
0
0
0
0
0
0
0
0
0
0
0
0
0
0
0
0
0
0
0
0
0
0
0
0
0
0
0
0
0
0
0
0
0
0
0
0
0
0
0
0
0
0
0
0
0
0
0
0
0
0
0
0
0
0
0
0
0
0
0
0
0
0
0
0
0
0
0
0
0
0
0
0
0
0
0
0
0
0
0
0
0
0
0
0
0
0
0
0
0
0
0
0
0
0
0
0
0
0
0
0
0
0
0
0
0
0
0
0
0
0
0
0
0
0
0
0
0
0
0
0
0
0
0
0
0
0
0
0
0
0
0
0
0
0
0
0
0
0
0
0
0
0
0
0
0
0
0
0
0
0
0
0
0
0
0
0
0
0
0
0
0
0
0
0
0
0
0
0
0
0
0
0
0
0
0
0
0
0
0
0
0
0
0
0
0
0
0
0
0
0
0
0
0
0
0
0
0
0
0
0
0
0
0
0
0
0
0
0
0
0
0
0
0
0
0
0
0
0
0
0
0
0
0
0
0
0
0
0
0
0
0
0
0
0
0
0
0
0
0
0
0
0
0
0
0
0
0
0
0
0
0
0
0
0
0
0
0
0
0
0
0
0
0
0
0
0
0
0
0
0
0
0
0
0
0
0
0
0
0
0
0
0
0
0
0
0
0
0
0
0
0
0
0
0
0
0
0
0
0
0
0
0
0
0
0
0
0
0
0
0
0
0
0
0
0
0
0
0
0
0
0
0
0
0
0
0
0
0
0
0
0
0
0
0
0
0
0
0
0
0
0
0
0
0
0
0
0
0
0
0
0
0
0
0
0
0
0
0
0
0
0
0
0
0
0
0
0
0
0
0
0
0
0
0
0
0
0
0
0
0
0
0
0
0
0
0
0
0
0
0
0
0
0
0
0
0
0
0
0
0
0
0
0
0
0
0
0
0
0
0
0
0
0
0
0
0
0
0
0
0
0
0
0
0
0
0
0
0
0
0
0
0
0
0
0
0
0
0
0
0
0
0
0
0
0
0
0
0
0
0
0
0
0
0
0
0
0
0
0
0
0
0
0
0
0
0
0
0
0
0
0
0
0
0
0
0
0
0
0
0
0
0
0
0
0
0
0
0
0
0
0
0
0
0
0
0
0
0
0
0
0
0
0
0
0
0
0
0
0
0
0
0
0
0
0
0
0
0
0
0
0
0
0
0
0
0
0
0
0
0
0
0
0
0
0
0
0
0
0
0
0
0
0
0
0
0
0
0
0
0
0
0
0
0
0
0
0
0
0
0
0
0
0
0
0
0
0
0
0
0
0
0
0
0
0
0
0
0
0
0
0
0
0
0
0
0
0
0
0
0
0
0
0
0
0
0
0
0
0
0
0
0
0
0
0
0
0
0
0
0
0
0
0
0
0
0
0
0
0
0
0
0
0
0
0
0
0
0
0
0
0
0
0
0
0
0
0
0
0
0
0
0
0
0
0
0
0
0
0
0
0
0
0
0
0
0
0
0
0
0
0
0
0
0
0
0
0
0
0
0
0
0
0
0
0
0
0
0
0
0
0
0
0
0
0
0
0
0
0
0
0
0
0
0
0
0
0
0
0
0
0
0
0
0
0
0
0
0
0
0
0
0
0
0
0
0
0
0
0
0
0
0
0
0
0
0
0
0
0
0
0
0
0
0
0
0
0
0
0
0
0
0
0
0
0
0
0
0
0
0
0
0
0
0
0
0
0
0
0
0
0
0
0
0
0
0
0
0
0
0
0
0
0
0
0
0
0
0
0
0
0
0
0
0
0
0
0
0
0
0
0
0
0
0
0
0
0
0
0
0
0
0
0
0
0
0
0
0
0
0
0
0
0
0
0
0
0
0
0
0
0
0
0
0
0
0
0
0
0
0
0
0
0
0
0
0
0
0
0
0
0
0
0
0
0
0
0
0
0
0
0
0
0
0
0
0
0
0
0
0
0
0
0
0
0
0
0
0
0
0
0
0
0
0
0
0
0
0
0
0
0
0
0
0
0
0
0
0
0
0
0
0
0
0
0
0
0
0
0
0
0
0
0
0
0
0
0
0
0
0
0
0
0
0
0
0
0
0
0
0
0
0
0
0
0
0
0
0
0
0
0
0
0
0
0
0
0
0
0
0
0
0
0
0
0
0
0
0
0
0
0
0
0
0
0
0
0
0
0
0
0
0
0
0
0
0
0
0
0
0
0
0
0
0
0
0
0
0
0
0
0
0
0
0
0
0
0
0
0
0
0
0
0
0
0
0
0
0
0
0
0
0
0
0
0
0
0
0
0
0
0
0
0
0
0
0
0
0
0
0
0
0
0
0
0
0
0
0
0
0
0
0
0
0
0
0
0
0
0
0
0
0
0
0
0
0
0
0
0
0
0
0
0
0
0
0
0
0
0
0
0
0
0
0
0
0
0
0
0
0
0
0
0
0
0
0
0
0
0
0
0
0
0
0
0
0
0
0
0
0
0
0
0
0
0
0
0
0
0
0
0
0
0
0
0
0
0
0
0
0
0
0
0
0
0
0
0
0
0
0
0
0
0
0
0
0
0
0
0
0
0
0
0
0
0
0
0
0
0
0
0
0
0
0
0
0
0
0
0
0
0
0
0
0
0
0
0
0
0
0
0
0
0
0
0
0
0
0
0
0
0
0
0
0
0
0
0
0
0
0
0
0
0
0
0
0
0
0
0
0
0
0
0
0
0
0
0
0
0
0
0
0
0
0
0
0
0
0
0
0
0
0
0
0
0
0
0
0
0
0
0
0
0
0
0
0
0
0
0
0
0
0
0
0
0
0
0
0
0
0
0
0
0
0
0
0
0
0
0
0
0
0
0
0
0
0
0
0
0
0
0
0
0
0
0
0
0
0
0
0
0
0
0
0
0
0
0
0
0
0
0
0
0
0
0
0
0
0
0
0
0
0
0
0
0
0
0
0
0
0
0
0
0
0
0
0
0
0
0
0
0
0
0
0
0
0
0
0
0
0
0
0
0
0
0
0
0
0
0
0
0
0
0
0
0
0
0
0
0
0
0
0
0
0
0
0
0
0
0
0
0
0
0
0
0
0
0
0
0
0
0
0
0
0
0
0
0
0
0
0
0
0
0
0
0
0
0
0
0
0
0
0
0
0
0
0
0
0
0
0
0
0
0
0
0
0
0
0
0
0
0
0
0
0
0
0
0
0
0
0
0
0
0
0
0
0
0
0
0
0
0
0
0
0
0
0
0
0
0
0
0
0
0
0
0
0
0
0
0
0
0
0
0
0
0
0
0
0
0
0
0
0
0
0
0
0
0
0
0
0
0
0
0
0
0
0
0
0
0
0
0
0
0
0
0
0
0
0
0
0
0
0
0
0
0
0
0
0
0
0
0
0
0
0
0
0
0
0
0
0
0
0
0
0
0
0
0
0
0
0
0
0
0
0
0
0
0
0
0
0
0
0
0
0
0
0
0
0
0
0
0
0
0
0
0
0
0
0
0
0
0
0
0
0
0
0
0
0
0
0
0
0
0
0
0
0
0
0
0
0
0
0
0
0
0
0
0
0
0
0
0
0
0
0
0
0
0
0
0
0
0
0
0
0
0
0
0
0
0
0
0
0
0
0
0
0
0
0
0
0
0
0
0
0
0
0
0
0
0
0
0
0
0
0
0
0
0
0
0
0
0
0
0
0
0
0
0
0
0
0
0
0
0
0
0
0
0
0
0
0
0
0
0
0
0
0
0
0
0
0
0
0
0
0
0
0
0
0
0
0
0
0
0
0
0
0
0
0
0
0
0
0
0
0
0
0
0
0
0
0
0
0
0
0
0
0
0
0
0
0
0
0
0
0
0
0
0
0
0
0
0
0
0
0
0
0
0
0
0
0
0
0
0
0
0
0
0
0
0
0
0
0
0
0
0
0
0
0
0
0
0
0
0
0
0
0
0
0
0
0
0
0
0
0
