1.82238
1.91153
1.99374
2.06829
2.13441
2.19173
2.2405
2.28161
2.3166
2.34732
2.37563
2.40312
2.43095
2.45982
2.49016
2.52226
2.55627
2.59225
2.63001
2.66916
2.70893
2.74855
2.78781
2.82764
2.87043
2.92001
2.98106
3.05801
3.15391
3.26893
3.39998
3.54349
3.69364
3.84406
3.99023
4.13094
4.26883
4.4099
4.56193
4.73245
4.92645
5.14879
5.40688
5.67884
5.93289
6.14036
6.2838
6.35924
6.37262
6.33313
6.24747
6.11784
5.95372
5.76165
5.54144
5.29361
5.01935
4.72188
4.40745
4.0801
3.74402
3.40485
3.06954
2.74588
2.44175
2.16413
1.9183
1.70736
1.53275
1.39311
1.28373
1.19875
1.13238
1.07989
1.03824
1.00632
0.984528
0.974102
0.976538
0.995135
1.03182
1.07826
1.11927
1.13947
1.12869
1.08613
1.02106
0.949885
0.89035
0.855641
0.844009
0.84737
0.862121
0.88422
0.907763
0.926341
0.934968
0.930902
0.914136
0.887386
0.85552
0.824501
0.800139
0.78678
0.78511
0.794443
0.814407
0.844176
0.88253
0.926323
0.969566
1.00502
1.0257
1.02636
1.00488
0.963091
0.906492
0.842968
0.780711
0.725549
0.679636
0.643032
0.612951
0.585721
0.558648
0.531436
0.50658
0.488619
0.482591
0.492325
0.516732
0.553824
0.601354
0.656012
0.713879
0.770993
0.823024
0.866474
0.89899
0.919725
0.929583
0.931179
0.928428
0.925738
0.927013
0.934641
0.948529
0.96717
0.988429
1.00955
1.02766
1.04018
1.04505
1.04082
1.02658
1.00194
0.967184
0.923366
0.871727
0.814829
0.759438
0.716101
0.696081
0.708506
0.757446
0.843965
0.95916
1.08148
1.18815
1.262
1.29574
1.29228
1.26163
1.21648
1.16861
1.12589
1.0912
1.0664
1.05366
1.05463
1.07049
1.1013
1.14738
1.20907
1.28651
1.37945
1.48744
1.60948
1.74389
1.88868
2.04194
2.20048
2.35646
2.49736
2.60986
2.68168
2.70433
2.67526
2.59851
2.48359
2.34336
2.19183
2.04219
1.90174
1.77366
1.65973
1.56212
1.4828
1.42007
1.3704
1.32982
1.29492
1.26364
1.23542
1.21071
1.19004
1.17297
1.15719
1.13876
1.11208
1.07073
1.00852
0.915847
0.767291
0.570784
0.345009
0
0.180247
1.23354
3.31001
6.13022
9.0021
11.0893
11.7842
10.9635
8.98946
6.49933
4.13263
2.33389
1.28009
0.910652
1.02243
1.28305
1.52894
1.74683
1.92716
2.06893
2.17385
2.24744
2.29878
2.33884
2.37835
2.4257
2.4841
2.55274
2.63019
2.71301
2.79635
2.87553
2.94722
3.01017
3.06547
3.11623
3.16671
3.22109
3.28282
3.35456
3.43272
3.50834
3.57165
3.61645
3.64347
3.66117
3.68354
3.72571
3.79915
3.9032
4.02933
4.17233
4.32889
4.49564
4.6696
4.8488
5.03206
5.21892
5.40947
5.6042
5.80384
6.00927
6.2212
6.44069
6.66932
6.90717
7.14794
7.37532
7.56979
7.71374
7.79536
7.81054
7.76243
7.65842
7.50545
7.3062
7.06313
6.7856
6.48307
6.16168
5.82584
5.48013
5.13032
4.78346
4.44747
4.13046
3.83992
3.58183
3.36023
3.17696
3.03072
2.91702
2.82975
2.76231
2.70867
2.66415
2.62569
2.59171
2.56168
2.5355
2.51322
2.49473
2.4797
2.46762
2.45782
2.4495
2.44158
2.43275
2.42146
2.40607
2.38517
2.35788
2.32416
2.28499
2.24237
2.19912
2.15859
2.12424
2.09919
2.08581
2.08548
2.09848
2.12399
2.1602
2.20457
2.25416
2.30559
2.35491
2.39857
2.43386
2.45938
2.47511
2.48219
2.48246
2.47773
2.46926
2.45781
2.44347
2.42616
2.40623
2.38463
2.363
2.34339
2.32776
2.3173
2.31267
2.31342
2.31821
2.3249
2.33094
2.33365
2.33052
2.31952
2.2994
2.27008
2.23261
2.18917
2.14301
2.09807
2.05841
2.02751
2.00795
2.00106
2.00655
2.02238
2.04519
2.071
2.09586
2.11648
2.13055
2.13702
2.13601
2.1286
2.11656
2.10187
2.08631
2.0711
2.05666
2.04273
2.0284
2.01243
1.9936
1.97115
1.94515
1.91666
1.88773
1.86115
1.8398
1.82598
1.82118
1.82533
1.83729
1.85532
1.87764
1.90296
1.9306
1.96043
1.99263
2.02733
2.06444
2.10387
2.14537
2.18861
2.23329
2.2791
2.32569
2.37262
2.41919
2.46431
2.50618
2.54224
2.56951
2.58475
2.58488
2.56743
2.53093
2.47519
2.40139
2.31206
2.21131
2.10412
1.99522
1.88908
1.78968
1.70035
1.62348
1.55921
1.50611
1.4619
1.42414
1.39093
1.36122
1.33472
1.31132
1.29035
1.26974
1.24557
1.21113
1.1586
1.08062
0.972405
0.83369
0.66964
0.48378
-0.0463188
0
1.04078
3.20708
6.16491
9.17371
11.352
12.0287
11.0008
8.58683
5.48287
2.50362
0.313399
-0.768136
-0.824844
-0.248682
0.164698
0.514845
0.764185
0.904642
1.00956
1.09119
1.15305
1.19879
1.23083
1.2507
1.25955
1.25883
1.25055
1.23749
1.22311
1.21123
1.20541
1.20931
1.22624
1.25883
1.30872
1.37633
1.46077
1.55994
1.67073
1.78934
1.91162
2.03373
2.1521
2.26381
2.36682
2.46006
2.54348
2.61799
2.68527
2.74744
2.80761
2.8695
2.93746
3.01638
3.11136
3.22715
3.3674
3.53388
3.7255
3.93829
4.16752
4.40767
4.65304
4.8986
5.14062
5.37648
5.60321
5.821
6.05476
6.30329
6.51563
6.61966
6.56744
6.36231
6.04961
5.6807
5.28081
4.85751
4.43187
4.0136
3.60852
3.22422
2.86846
2.54791
2.26747
2.02976
1.8349
1.68071
1.56394
1.48065
1.42474
1.3874
1.36057
1.33777
1.31466
1.28926
1.26156
1.23277
1.20437
1.17731
1.15145
1.12583
1.09913
1.07041
1.03981
1.00889
0.980433
0.957737
0.943612
0.939853
0.946537
0.960415
0.975838
0.986799
0.988639
0.979347
0.960082
0.934793
0.909094
0.888727
0.877886
0.877607
0.886327
0.901518
0.920408
0.939913
0.95736
0.97101
0.980349
0.98609
0.989899
0.993911
1.00013
1.01004
1.02417
1.0411
1.05667
1.06531
1.06186
1.04322
1.00955
0.964545
0.914619
0.86722
0.828952
0.80312
0.789091
0.785352
0.790723
0.803591
0.822165
0.844727
0.869671
0.894778
0.917009
0.933067
0.939981
0.935825
0.920257
0.894633
0.861624
0.824522
0.786539
0.75025
0.717346
0.689339
0.667923
0.654936
0.652174
0.661004
0.683559
0.722605
0.773802
0.825528
0.865086
0.883063
0.876796
0.851393
0.817932
0.789775
0.778656
0.788225
0.815152
0.857089
0.912645
0.979855
1.05631
1.13953
1.2272
1.3175
1.4091
1.5011
1.59245
1.68057
1.76018
1.8233
1.86067
1.86444
1.83062
1.76004
1.65781
1.53184
1.39163
1.24807
1.10914
0.980263
0.865866
0.769984
0.694996
0.641206
0.607636
0.590904
0.585191
0.584259
0.582547
0.575929
0.561954
0.53951
0.508113
0.467112
0.415476
0.352031
0.274974
0.179386
0.0619198
-0.0738342
-0.226746
-0.38062
0
1.21987
3.3393
6.00377
8.48926
9.9859
9.98148
8.51178
6.11986
3.56401
1.47234
0.141911
-0.451972
-0.513947
-0.297258
-0.114117
0.0528034
0.197404
0.31585
0.413004
0.492118
0.554645
0.6028
0.639194
0.666604
0.687827
0.705616
0.722669
0.741664
0.765281
0.796143
0.836796
0.889475
0.957773
1.04872
1.16949
1.31264
1.45152
1.5563
1.60375
1.58584
1.51436
1.41961
1.34205
1.31858
1.36364
1.45452
1.56916
1.6968
1.83199
1.97097
2.11226
2.25655
2.40598
2.56322
2.73039
2.9081
3.09562
3.29118
3.49236
3.69669
3.90223
4.10793
4.31367
4.52006
4.72852
4.93876
5.14077
5.31683
5.44818
5.52235
5.53589
5.4909
5.38856
5.22527
4.99474
4.70893
4.38249
4.02712
3.65513
3.28028
2.91211
2.55608
2.21755
1.90067
1.60839
1.34257
1.1041
0.893056
0.709008
0.549814
0.412604
0.294167
0.191511
0.102465
0.0254253
-0.0401913
-0.0941008
-0.135359
-0.162934
-0.176043
-0.174403
-0.158421
-0.129306
-0.0891043
-0.0405632
0.0130836
0.067412
0.116806
0.155972
0.180837
0.189418
0.182475
0.163741
0.139528
0.117702
0.106199
0.111184
0.134038
0.172831
0.224628
0.286048
0.352674
0.419147
0.480158
0.531285
0.569496
0.593406
0.603301
0.600946
0.589256
0.571886
0.552795
0.535767
0.523911
0.51956
0.524193
0.53823
0.560995
0.590856
0.625384
0.66126
0.694625
0.721639
0.738973
0.744336
0.736932
0.71787
0.690381
0.659551
0.632922
0.618976
0.625171
0.656145
0.712355
0.789647
0.88051
0.974114
1.05966
1.12867
1.17642
1.2022
1.2084
1.19896
1.17775
1.14797
1.11195
1.07093
1.0264
0.980916
0.939441
0.908154
0.893042
0.898189
0.92443
0.968879
1.02555
1.0869
1.14573
1.19781
1.24123
1.27655
1.30645
1.33496
1.3665
1.40501
1.45312
1.5128
1.58566
1.67279
1.77618
1.90221
2.05582
2.22338
2.37947
2.49782
2.55984
2.56028
2.50744
2.41892
2.31518
2.21366
2.12232
2.03991
1.96309
1.88862
1.8136
1.73574
1.65386
1.56841
1.48171
1.39777
1.32179
1.25932
1.21921
1.22207
1.30591
1.47029
1.6588
1.80714
1.86392
1.80849
1.65572
1.44233
1.20276
0.952616
0.69384
0.429339
0.15128
0
0.472792
1.90877
4.30964
7.21282
9.80646
11.2617
11.1086
9.44184
6.84853
4.12066
1.9241
0.590099
0.092766
0.17116
0.423541
0.631814
0.824045
0.995112
1.14351
1.27162
1.37983
1.46981
1.54416
1.60601
1.65857
1.70479
1.74701
1.78696
1.82588
1.8646
1.90379
1.94401
1.98568
2.02893
2.0735
2.1186
2.16301
2.20556
2.24572
2.28403
2.32226
2.36322
2.41021
2.46639
2.53397
2.61364
2.70537
2.80881
2.92332
3.04817
3.1827
3.32637
3.47879
3.6396
3.80847
3.98503
4.16896
4.35992
4.55767
4.76198
4.97267
5.18951
5.41214
5.64049
5.87483
6.11428
6.35336
6.57823
6.77012
6.91156
6.98726
6.98508
6.89733
6.72297
6.47026
6.15787
5.81282
5.46406
5.12518
4.79695
4.47797
4.16868
3.86984
3.5827
3.3094
3.05302
2.81726
2.60612
2.42439
2.27536
2.15736
2.06559
1.99329
1.93318
1.87887
1.82615
1.77355
1.72232
1.67573
1.63762
1.61146
1.60301
1.61544
1.64123
1.66728
1.68002
1.6701
1.63564
1.58267
1.52277
1.46873
1.43014
1.40705
1.39497
1.39077
1.39194
1.39628
1.4026
1.41087
1.42208
1.43786
1.45977
1.48882
1.52615
1.57059
1.61395
1.64378
1.64768
1.61772
1.55416
1.46695
1.37387
1.29587
1.25106
1.24032
1.26029
1.30698
1.37554
1.45277
1.52373
1.57652
1.60482
1.60875
1.5939
1.5686
1.54063
1.51433
1.48948
1.46362
1.43393
1.39913
1.36059
1.32217
1.28883
1.26479
1.25149
1.24686
1.24934
1.25677
1.26699
1.27822
1.28919
1.29898
1.30695
1.31266
1.31596
1.31696
1.31597
1.31329
1.30899
1.30266
1.29358
1.28082
1.26361
1.2417
1.21553
1.18617
1.15512
1.124
1.09418
1.06666
1.04219
1.02136
1.00473
0.992847
0.986196
0.985038
0.989231
0.998141
1.01002
1.02111
1.02675
1.02308
1.00861
0.985431
0.959462
0.939464
0.934945
0.953547
0.997675
1.07496
1.17462
1.27603
1.35811
1.4058
1.41408
1.38819
1.34088
1.2881
1.24513
1.21951
1.21216
1.22352
1.25444
1.30482
1.37462
1.46232
1.56377
1.67055
1.76998
1.84937
1.89823
1.90969
1.88163
1.81722
1.72459
1.61553
1.50294
1.3974
1.30289
1.21834
1.14127
1.06935
0.999794
0.930207
0.859279
0.787177
0.715474
0.646638
0.583213
0.52729
0.480025
0.439324
0.401042
0.359912
0.310768
0.249666
0.17463
0.085868
-0.0149323
-0.123978
-0.236588
-0.316901
0
1.00205
2.85205
5.40653
8.16098
10.3749
11.3604
10.8002
8.90884
6.32363
3.78877
1.8322
0.623811
0.0525373
-0.0908826
0.0960542
0.275089
0.437513
0.574871
0.680932
0.758914
0.817734
0.863062
0.8979
0.925192
0.947505
0.967015
0.985452
1.00432
1.02504
1.04894
1.07699
1.10945
1.14575
1.18414
1.22217
1.25743
1.28825
1.31417
1.33611
1.35615
1.37698
1.40144
1.43152
1.46871
1.51432
1.56929
1.63416
1.70926
1.7947
1.89044
1.99645
2.11275
2.23942
2.37675
2.52523
2.6855
2.85822
3.04372
3.24168
3.45071
3.66809
3.88977
4.11066
4.32486
4.52611
4.70914
4.86992
5.00567
5.11299
5.18702
5.22427
5.22208
5.17703
5.08556
4.94511
4.75537
4.51915
4.24277
3.93557
3.61084
3.28032
2.95259
2.63485
2.33261
2.04957
1.78777
1.54809
1.33077
1.13589
0.963745
0.814861
0.68982
0.588888
0.511578
0.457035
0.425375
0.414762
0.415356
0.415811
0.406773
0.383621
0.348116
0.30804
0.274687
0.258938
0.267399
0.29552
0.339204
0.391517
0.44464
0.491746
0.528933
0.553891
0.565967
0.565544
0.553682
0.532326
0.503129
0.468462
0.431579
0.396541
0.367846
0.349842
0.345574
0.357092
0.384704
0.428784
0.488247
0.555983
0.620535
0.670973
0.699577
0.703867
0.687287
0.658215
0.627587
0.605947
0.599512
0.607762
0.628386
0.659229
0.697739
0.740817
0.785128
0.827404
0.864816
0.895196
0.917139
0.929995
0.933796
0.929111
0.916894
0.898328
0.874702
0.847389
0.817681
0.786751
0.755684
0.725461
0.696954
0.670926
0.648052
0.628874
0.613811
0.603157
0.597095
0.595727
0.599128
0.607372
0.620513
0.638487
0.661043
0.68769
0.717048
0.746833
0.774302
0.796642
0.811409
0.816913
0.812446
0.798359
0.775988
0.747612
0.715968
0.683641
0.65308
0.626386
0.605202
0.590671
0.583912
0.58594
0.59747
0.618941
0.650264
0.690581
0.73816
0.790523
0.844789
0.898137
0.948407
0.994265
1.03497
1.0704
1.10089
1.12695
1.14912
1.16774
1.18299
1.19505
1.20417
1.21089
1.21614
1.22132
1.22809
1.23815
1.25279
1.27271
1.29779
1.3264
1.35565
1.38246
1.40445
1.42078
1.43257
1.44287
1.45609
1.47713
1.51034
1.55813
1.62096
1.69795
1.78758
1.88777
1.9964
2.11118
2.2262
2.33142
2.41589
2.4698
2.487
2.4666
2.41277
2.33301
2.23567
2.12819
2.01735
1.90682
1.79886
1.69534
1.59767
1.50661
1.42228
1.34365
1.2691
1.19719
1.12751
1.06133
1.00177
0.955951
0.947119
1.02281
1.18943
1.39195
1.56357
1.65683
1.65528
1.56419
1.39358
1.14977
0.841679
0.498395
0.0497944
0
0.840208
2.83619
5.76308
8.86765
11.1557
11.8598
10.805
8.45718
5.65158
3.18789
1.52542
0.708729
0.500806
0.600645
0.755982
0.905271
1.04619
1.17569
1.29265
1.39716
1.48934
1.56951
1.63767
1.69395
1.7388
1.77253
1.79566
1.80927
1.81536
1.81677
1.817
1.8196
1.82763
1.8428
1.86573
1.89629
1.93377
1.97707
2.02502
2.07666
2.13151
2.18965
2.25175
2.31895
2.39265
2.47429
2.56497
2.6652
2.77471
2.89236
3.01634
3.14449
3.27475
3.40568
3.53671
3.66823
3.80131
3.93729
4.07734
4.22225
4.37237
4.52793
4.68937
4.85764
5.03415
5.22399
5.44191
5.69552
5.95377
6.17072
6.30533
6.33858
6.27748
6.14474
5.96125
5.73245
5.4543
5.13794
4.79561
4.43589
4.06642
3.69555
3.33213
2.98486
2.66102
2.36545
2.09998
1.86324
1.65129
1.45914
1.2846
1.12635
0.984164
0.863427
0.773891
0.724513
0.718955
0.75358
0.818363
0.899824
0.984479
1.06247
1.13006
1.18611
1.22903
1.25715
1.26965
1.26635
1.24781
1.21549
1.17185
1.12023
1.06459
1.00904
0.95735
0.912258
0.875921
0.849838
0.834703
0.83043
0.836256
0.850846
0.872471
0.89926
0.929284
0.960999
0.993469
1.02643
1.06015
1.09506
1.13131
1.16848
1.20502
1.23837
1.26546
1.2834
1.29014
1.28491
1.2683
1.24202
1.20846
1.17023
1.12987
1.08941
1.05038
1.01404
0.981448
0.953454
0.930622
0.913166
0.900939
0.893538
0.890328
0.890593
0.893995
0.900848
0.912203
0.929672
0.95561
0.993768
1.04658
1.11075
1.17613
1.22959
1.25895
1.25658
1.22175
1.16112
1.08715
1.01477
0.957198
0.920196
0.90058
0.892684
0.893124
0.897966
0.903974
0.909421
0.914437
0.920783
0.931163
0.948249
0.973761
1.00765
1.04836
1.0931
1.13827
1.18012
1.21481
1.23783
1.24669
1.24013
1.21846
1.18397
1.14091
1.09502
1.05251
1.01878
0.996536
0.984643
0.982162
0.987905
0.999931
1.01515
1.03078
1.04484
1.05642
1.06573
1.07376
1.0819
1.09148
1.10348
1.11813
1.13552
1.15545
1.17735
1.2004
1.22318
1.24385
1.26054
1.27185
1.27729
1.27754
1.27434
1.27019
1.268
1.2704
1.27962
1.29787
1.32701
1.36832
1.42238
1.48899
1.56687
1.6545
1.75072
1.85493
1.9681
2.09357
2.23147
2.36549
2.46889
2.51202
2.47434
2.35418
2.17113
1.96004
1.75984
1.6001
1.47501
1.37294
1.28983
1.22348
1.17059
1.12739
1.09057
1.05783
1.02829
1.00252
0.982179
0.969532
0.967336
0.97765
1.00084
1.03603
1.08141
1.13141
1.17193
1.18517
1.15345
1.06403
0.913908
0.7116
0.238715
0
0.608649
2.3074
4.90246
7.76377
10.0523
11.071
10.5465
8.70131
6.11039
3.45574
1.30767
-0.0035944
-0.424563
-0.143026
0.29492
0.686018
0.992524
1.19321
1.32778
1.40595
1.43837
1.43845
1.42018
1.39619
1.37594
1.3646
1.36424
1.37498
1.39618
1.42701
1.4661
1.51179
1.56234
1.61596
1.67114
1.72691
1.78293
1.83949
1.89727
1.95702
2.01922
2.08387
2.15041
2.21803
2.28584
2.35312
2.41957
2.48543
2.55151
2.61916
2.6903
2.76726
2.85266
2.94915
3.05912
3.18434
3.32567
3.48298
3.65516
3.84047
4.0367
4.24152
4.4525
4.66711
4.88256
5.09394
5.29266
5.46933
5.6146
5.72098
5.78386
5.80115
5.77173
5.69386
5.56458
5.38554
5.16275
4.8969
4.59142
4.25253
3.88872
3.51224
3.133
2.75946
2.40001
2.06246
1.75362
1.48155
1.25529
1.07361
0.931283
0.821142
0.73617
0.671161
0.623385
0.592049
0.57695
0.576989
0.587962
0.60592
0.626216
0.644493
0.65756
0.663868
0.663449
0.657453
0.647546
0.635571
0.623065
0.611408
0.602094
0.596796
0.597206
0.605715
0.626429
0.657424
0.684877
0.690464
0.65921
0.587725
0.488045
0.384136
0.302126
0.259242
0.247717
0.256051
0.276622
0.302114
0.327721
0.351953
0.375992
0.402127
0.432151
0.465859
0.502476
0.541055
0.580886
0.621837
0.664232
0.708801
0.754325
0.792868
0.81186
0.799269
0.750413
0.672351
0.582631
0.502212
0.446045
0.414461
0.398386
0.385572
0.365979
0.336871
0.303833
0.27759
0.26865
0.28235
0.310272
0.348771
0.393341
0.436682
0.471186
0.491459
0.495486
0.485286
0.466679
0.447863
0.436918
0.439029
0.454289
0.477493
0.502623
0.523475
0.535603
0.537372
0.529808
0.515498
0.497195
0.476932
0.455618
0.43329
0.40973
0.384763
0.358467
0.331301
0.304222
0.278726
0.257625
0.244303
0.24228
0.254277
0.281111
0.322434
0.373171
0.426592
0.47654
0.51954
0.555859
0.589046
0.624197
0.665723
0.715124
0.770907
0.830878
0.892315
0.953038
1.01209
1.06973
1.1269
1.18423
1.24104
1.29472
1.34113
1.37562
1.39391
1.3927
1.36977
1.32395
1.25523
1.16801
1.06544
0.952372
0.835236
0.721368
0.617941
0.52918
0.458524
0.407546
0.375903
0.361702
0.361995
0.373222
0.39131
0.41219
0.431323
0.442987
0.440791
0.418565
0.371064
0.294919
0.180868
0.0355529
-0.136
-0.377001
0
1.28062
3.40725
5.92693
8.16112
9.48523
9.55695
8.39912
6.35238
3.95779
1.80228
0.340496
-0.259062
-0.156837
0.132491
0.327568
0.501182
0.650013
0.775685
0.882444
0.970443
1.04041
1.09351
1.13095
1.15416
1.16501
1.16615
1.16096
1.15352
1.14819
1.14911
1.15934
1.18045
1.21256
1.25531
1.30713
1.36387
1.42079
1.47446
1.52376
1.57026
1.6176
1.67009
1.73099
1.80119
1.87815
1.95815
2.03684
2.11088
2.17937
2.24441
2.31086
2.38517
2.47388
2.58209
2.71085
2.85878
3.02403
3.20442
3.39752
3.60097
3.81271
4.03087
4.25351
4.47855
4.7027
4.92077
5.12623
5.31107
5.46487
5.57695
5.64156
5.65169
5.59866
5.47372
5.27105
4.99078
4.64074
4.23654
3.80171
3.36094
2.9274
2.50971
2.116
1.75287
1.42533
1.13678
0.889063
0.685143
0.536018
0.457351
0.440217
0.455552
0.472238
0.465521
0.423665
0.349662
0.257164
0.162825
0.0790977
0.00783005
-0.0545158
-0.108627
-0.152895
-0.185621
-0.204406
-0.207201
-0.193486
-0.165038
-0.125917
-0.081689
-0.0382062
-0.000164986
0.0303816
0.0520495
0.0641641
0.0666838
0.0599873
0.0443912
0.020085
-0.0129183
-0.0547502
-0.105563
-0.165714
-0.236514
-0.319474
-0.40995
-0.493588
-0.552637
-0.571292
-0.541675
-0.467556
-0.363703
-0.250844
-0.148481
-0.0669576
-0.00225973
0.0505133
0.0926249
0.124633
0.147233
0.160827
0.165607
0.162181
0.152184
0.138587
0.12555
0.11784
0.119992
0.134809
0.163949
0.209259
0.27145
0.346129
0.41985
0.477118
0.505333
0.499216
0.463938
0.414984
0.373676
0.359346
0.381301
0.429436
0.490876
0.548755
0.588312
0.601757
0.589872
0.559901
0.521171
0.480833
0.441513
0.40264
0.363102
0.321632
0.277098
0.228477
0.174575
0.113714
0.0442741
-0.0399908
-0.173491
-0.4835
-1.01113
-1.56519
-2.00269
-2.28959
-2.44305
-2.45797
-2.28002
-1.85681
-1.21745
-0.501764
0.0584448
0.283732
0.383468
0.457095
0.518281
0.568475
0.609692
0.643534
0.671282
0.694074
0.713041
0.729293
0.743777
0.757068
0.769236
0.779882
0.788245
0.793485
0.794952
0.792414
0.78614
0.776807
0.765216
0.751841
0.736307
0.716351
0.687294
0.642997
0.57686
0.483889
0.360081
0.210012
0.0380923
-0.278034
0
1.19335
3.32266
5.98307
8.43833
9.91131
9.92538
8.50925
6.16259
3.61928
1.54518
0.31166
-0.077574
0.0961081
0.266019
0.407525
0.538846
0.658025
0.762984
0.852064
0.924699
0.981085
1.02268
1.05255
1.07526
1.09618
1.1204
1.15152
1.18993
1.23516
1.28436
1.33246
1.37482
1.4089
1.43551
1.45892
1.48583
1.52341
1.57699
1.64818
1.73235
1.82365
1.91582
2.00273
2.08004
2.14632
2.20337
2.25584
2.31019
2.37333
2.45128
2.54786
2.66383
2.79815
2.94948
3.11606
3.29577
3.48634
3.68544
3.8905
4.09865
4.30659
4.51071
4.70718
4.89201
5.06183
5.21398
5.34646
5.45777
5.54413
5.59808
5.61246
5.58063
5.49526
5.35054
5.14471
4.88198
4.57289
4.23298
3.88015
3.53088
3.19441
2.87826
2.58723
2.32348
2.08701
1.87634
1.68919
1.52319
1.37633
1.24714
1.13463
1.03814
0.956802
0.888885
0.831524
0.781042
0.73361
0.685926
0.635834
0.582693
0.527396
0.472059
0.419488
0.37253
0.333374
0.303677
0.284389
0.275607
0.276837
0.287849
0.306673
0.329821
0.354185
0.377952
0.401185
0.425716
0.454265
0.489071
0.531217
0.578178
0.624675
0.664176
0.690815
0.701084
0.694766
0.675008
0.647681
0.620233
0.599518
0.590141
0.594823
0.614032
0.646882
0.689277
0.734239
0.774216
0.802605
0.814918
0.809321
0.786514
0.749127
0.700881
0.646165
0.588628
0.530652
0.473716
0.418717
0.366135
0.316541
0.271554
0.235265
0.212695
0.209731
0.231176
0.278564
0.350596
0.438683
0.529823
0.611052
0.673156
0.712854
0.732686
0.738901
0.738501
0.736773
0.735963
0.73631
0.737229
0.737713
0.736623
0.732641
0.724382
0.710526
0.690089
0.662846
0.629655
0.592463
0.553962
0.517002
0.484038
0.456166
0.434225
0.418908
0.410523
0.409254
0.415176
0.428209
0.448072
0.474263
0.506048
0.542423
0.582155
0.623531
0.663395
0.697866
0.723389
0.737992
0.742408
0.740543
0.738932
0.745283
0.766585
0.806472
0.863551
0.935
1.01836
1.11106
1.21042
1.31396
1.41944
1.5242
1.62396
1.71229
1.78164
1.82378
1.83164
1.80121
1.73304
1.63267
1.51013
1.37871
1.25262
1.14159
1.05029
0.985892
0.962852
0.988882
1.04418
1.10173
1.13595
1.13082
1.08476
1.01023
0.927908
0.857426
0.808422
0.771526
0.735688
0.690402
0.62593
0.535881
0.418726
0.277859
0.032047
0
0.615116
2.09983
4.3798
6.98362
9.16403
10.2109
9.7859
8.07316
5.66302
3.26145
1.40394
0.316643
-0.0546684
0.0772145
0.277264
0.453956
0.589506
0.676188
0.71793
0.728548
0.727
0.731158
0.752253
0.788096
0.835345
0.884751
0.926264
0.95281
0.963031
0.962197
0.960929
0.972066
1.00656
1.06827
1.15107
1.2517
1.35728
1.45372
1.52985
1.58073
1.60879
1.62279
1.63488
1.65711
1.69797
1.75767
1.83381
1.92485
2.02937
2.14552
2.27125
2.40439
2.54271
2.68399
2.8261
2.96724
3.10615
3.24245
3.37694
3.51166
3.64977
3.79507
3.95133
4.12311
4.32141
4.55034
4.78731
5.0014
5.16502
5.2621
5.28986
5.25441
5.16356
5.02128
4.82628
4.58597
4.30909
4.00298
3.67515
3.33457
2.99029
2.65013
2.32152
2.01104
1.7238
1.46308
1.23018
1.02465
0.844734
0.688029
0.552155
0.435341
0.336768
0.256616
0.196157
0.158917
0.152998
0.192214
0.282586
0.396903
0.498786
0.554413
0.543289
0.465853
0.34466
0.217418
0.123312
0.0877044
0.0935306
0.119411
0.156432
0.198229
0.239891
0.278864
0.315118
0.350607
0.38822
0.430615
0.478885
0.532499
0.590203
0.65008
0.709763
0.76721
0.821161
0.871292
0.918011
0.961882
1.00255
1.03807
1.06473
1.07758
1.07271
1.04951
1.01191
0.967749
0.92641
0.895543
0.878045
0.87191
0.869772
0.862098
0.840639
0.801331
0.745623
0.679872
0.613123
0.554138
0.507115
0.471469
0.446424
0.429475
0.417258
0.406448
0.394477
0.379957
0.362808
0.34418
0.326172
0.311279
0.302114
0.300885
0.308899
0.326189
0.351417
0.382096
0.415103
0.447339
0.47641
0.500814
0.520013
0.534232
0.544112
0.550391
0.553719
0.554463
0.552905
0.549429
0.544701
0.539808
0.536264
0.535906
0.540679
0.552372
0.57234
0.601287
0.639154
0.685126
0.737748
0.795085
0.854907
0.914846
0.9722
1.02403
1.06805
1.10277
1.12793
1.14467
1.15548
1.16363
1.17225
1.1834
1.19743
1.21163
1.22121
1.22082
1.20641
1.17683
1.13466
1.08612
1.0399
1.00529
0.98845
0.992255
1.01792
1.06351
1.12443
1.19453
1.26747
1.33822
1.40426
1.46503
1.52209
1.57871
1.63931
1.71103
1.80763
1.94425
2.11321
2.282
2.41441
2.48159
2.46755
2.37018
2.20142
1.98787
1.76876
1.58454
1.44963
1.35277
1.27927
1.2246
1.18466
1.1556
1.1345
1.11935
1.10868
1.10106
1.09397
1.08395
1.06695
1.03898
0.996681
0.937687
0.860646
0.765098
0.646593
0.501491
0.335112
0.149705
0
0.488404
2.00113
4.55487
7.63706
10.3437
11.778
11.4809
9.63445
6.93243
4.22169
2.13858
0.924295
0.468217
0.492369
0.725315
0.927291
1.11281
1.27552
1.41196
1.52114
1.60489
1.66746
1.71445
1.75158
1.78345
1.81301
1.84125
1.86779
1.89167
1.91192
1.9281
1.94053
1.95032
1.95909
1.96878
1.98126
1.99821
2.02116
2.05146
2.09018
2.13803
2.19525
2.26156
2.33619
2.41799
2.50568
2.59809
2.69423
2.7934
2.89517
2.99952
3.10684
3.21808
3.33488
3.4594
3.59409
3.74111
3.90157
4.07497
4.25887
4.44892
4.63978
4.82596
5.00296
5.16816
5.32136
5.46427
5.59988
5.73532
5.88955
6.07594
6.26479
6.40504
6.44473
6.34982
6.11648
5.77238
5.36586
4.9473
4.54888
4.17062
3.80711
3.45919
3.12983
2.82167
2.53686
2.27675
2.04176
1.83132
1.64406
1.47821
1.33198
1.20394
1.09332
0.999909
0.923835
0.865086
0.823232
0.797102
0.785087
0.784486
0.791522
0.802164
0.812605
0.819701
0.82129
0.816352
0.805017
0.788421
0.768459
0.747463
0.727781
0.711498
0.700188
0.694743
0.695414
0.702036
0.714059
0.730648
0.750727
0.773073
0.796093
0.817469
0.834549
0.844812
0.846437
0.838854
0.823071
0.801632
0.77822
0.756998
0.741687
0.734375
0.736277
0.748422
0.770582
0.80094
0.836102
0.870672
0.897495
0.910014
0.903795
0.87797
0.836013
0.785347
0.735592
0.695816
0.671737
0.662771
0.665324
0.673188
0.679936
0.681134
0.675508
0.664738
0.652202
0.641478
0.634997
0.633882
0.639464
0.653147
0.676456
0.712962
0.76823
0.838251
0.911382
0.972668
1.00866
1.0116
0.981187
0.923846
0.850716
0.775356
0.709466
0.659099
0.627149
0.613606
0.616745
0.633072
0.655933
0.678303
0.694493
0.701467
0.699386
0.691212
0.681525
0.674907
0.674366
0.680071
0.690713
0.703704
0.716223
0.726309
0.733602
0.739463
0.746472
0.757474
0.774551
0.797652
0.825598
0.856341
0.88686
0.914065
0.935435
0.949431
0.955572
0.954242
0.946346
0.933016
0.915604
0.895639
0.874956
0.856092
0.842335
0.837161
0.843533
0.863096
0.895605
0.938846
0.989142
1.04233
1.09494
1.14531
1.19362
1.24179
1.29305
1.3511
1.41915
1.49889
1.59092
1.6952
1.8075
1.91958
2.02219
2.10661
2.16579
2.19497
2.19178
2.15614
2.09016
1.99809
1.88669
1.76394
1.63899
1.52082
1.41562
1.32616
1.25474
1.20315
1.17002
1.15033
1.13812
1.12782
1.1153
1.09831
1.07627
1.0496
1.01873
0.983464
0.942951
0.895527
0.838733
0.769566
0.680903
0.562576
0.419554
0.262326
0
0.265363
1.4851
3.76344
6.69175
9.43362
11.0808
11.0883
9.53087
7.03472
4.44172
2.42083
1.24303
0.79946
0.787002
0.924563
1.06736
1.21134
1.35499
1.49545
1.62865
1.74965
1.85374
1.93729
1.99865
2.03872
2.06104
2.07139
2.07702
2.08556
2.10355
2.14123
2.21022
2.3062
2.40561
2.48036
2.50824
2.48161
2.41148
2.32486
2.25566
2.23155
2.2545
2.30781
2.37775
2.44906
2.51161
2.56507
2.6191
2.68878
2.78747
2.92079
3.07857
3.24853
3.42452
3.60188
3.77772
3.95096
4.12185
4.29111
4.45899
4.62487
4.7872
4.94385
5.09268
5.23222
5.36211
5.4834
5.59853
5.71094
5.82602
5.95891
6.13902
6.34636
6.52504
6.60144
6.51491
6.24553
5.8248
5.32389
4.82689
4.39887
4.01851
3.66534
3.34003
3.04371
2.77614
2.53573
2.31986
2.12522
1.94834
1.78625
1.63705
1.5003
1.37713
1.27019
1.18549
1.13768
1.1518
1.23441
1.34977
1.45233
1.50283
1.48125
1.39202
1.26071
1.12393
1.01679
0.956491
0.931467
0.929069
0.943152
0.97072
1.0094
1.05688
1.11096
1.16961
1.23088
1.29253
1.35164
1.40495
1.44909
1.48106
1.49859
1.50044
1.48644
1.45751
1.41542
1.3629
1.30365
1.24142
1.18082
1.12754
1.08702
1.06358
1.05953
1.07451
1.10545
1.14708
1.19302
1.23698
1.27434
1.30313
1.32227
1.33175
1.33265
1.32679
1.31642
1.30368
1.29028
1.27723
1.26458
1.2512
1.2349
1.21329
1.18478
1.14958
1.11
1.07101
1.0388
1.01905
1.01529
1.02786
1.05379
1.08772
1.1235
1.15596
1.18208
1.20103
1.21398
1.22335
1.23182
1.2415
1.25328
1.26701
1.28211
1.29776
1.31344
1.32911
1.34521
1.36245
1.38136
1.40192
1.42225
1.43847
1.44592
1.44078
1.42174
1.39094
1.354
1.31891
1.29423
1.28571
1.29432
1.32032
1.36309
1.42034
1.48865
1.56415
1.6432
1.7229
1.80148
1.87813
1.95283
2.02594
2.09783
2.16845
2.23696
2.30131
2.35779
2.40186
2.42896
2.43523
2.41856
2.37945
2.32136
2.25041
2.17436
2.10106
2.03609
1.98115
1.93718
1.90224
1.87124
1.8381
1.79745
1.7461
1.68395
1.61403
1.54161
1.47263
1.41153
1.36028
1.31896
1.28238
1.24211
1.18804
1.11036
0.98776
0.789938
0.529293
0.233226
0
0.372148
1.69326
4.00019
6.85853
9.45817
10.9571
10.8761
9.30947
6.84509
4.26992
2.23928
1.0671
0.700407
0.844498
1.01693
1.1612
1.28531
1.38132
1.4465
1.48215
1.49421
1.4935
1.49451
1.51238
1.55838
1.63614
1.74072
1.85312
1.95112
2.01822
2.04991
2.0542
2.04675
2.04371
2.05596
2.0813
2.11594
2.15825
2.2067
2.25984
2.31645
2.37564
2.43676
2.49931
2.56293
2.62737
2.69245
2.75815
2.82474
2.89291
2.96393
3.03977
3.12308
3.21699
3.32483
3.4497
3.59408
3.75949
3.94638
4.1541
4.38109
4.62512
4.88351
5.15468
5.43844
5.73486
6.04187
6.34794
6.63754
6.89543
7.08408
7.14729
7.03691
6.7434
6.31083
5.82661
5.38423
4.99723
4.62073
4.24587
3.87273
3.50422
3.1457
2.8046
2.48924
2.20732
1.96483
1.76578
1.6094
1.49152
1.40553
1.34356
1.29767
1.26074
1.22715
1.19296
1.15595
1.11556
1.07236
1.02778
0.983708
0.942117
0.904652
0.872341
0.845485
0.823619
0.805632
0.790015
0.775219
0.760008
0.74373
0.726475
0.709069
0.692906
0.67965
0.670873
0.667661
0.670706
0.680188
0.695102
0.713945
0.735448
0.759069
0.785212
0.815094
0.850296
0.892171
0.941311
0.996727
1.05673
1.11922
1.18099
1.23681
1.2807
1.30723
1.31256
1.2957
1.25949
1.21042
1.15734
1.10922
1.07284
1.04915
1.03629
1.03273
1.03614
1.04416
1.05479
1.06646
1.0778
1.08744
1.09387
1.0956
1.09162
1.0818
1.06727
1.05038
1.03425
1.0221
1.01617
1.01852
1.02828
1.04191
1.05493
1.06351
1.06577
1.06222
1.05539
1.0489
1.04623
1.04911
1.05776
1.07212
1.09145
1.11388
1.13483
1.14869
1.15063
1.13852
1.11461
1.08604
1.06386
1.06068
1.08766
1.14684
1.23784
1.35903
1.50591
1.67672
1.87269
2.0874
2.2992
2.47827
2.5892
2.60422
2.51905
2.35846
2.16676
1.98844
1.85076
1.74316
1.64977
1.56353
1.48132
1.40108
1.32121
1.24097
1.16083
1.08266
1.00983
0.946929
0.904262
0.910442
1.0034
1.15769
1.32097
1.43833
1.47462
1.42359
1.30166
1.13303
0.936564
0.721473
0.495889
0.264705
0.00765791
0
0.634252
2.19483
4.641
7.48279
9.90361
11.1072
10.6989
8.87006
6.27733
3.70939
1.75176
0.625601
0.233163
0.315206
0.453256
0.563928
0.661735
0.745095
0.815228
0.874667
0.92692
0.975547
1.02337
1.07202
1.12197
1.1731
1.22503
1.27754
1.33079
1.38547
1.44268
1.50381
1.57029
1.64367
1.7259
1.81962
1.92621
2.03939
2.1424
2.21457
2.23705
2.19965
2.10651
1.97826
1.84848
1.75455
1.72496
1.75115
1.81249
1.90475
2.02248
2.1608
2.31564
2.48385
2.66554
2.86133
3.07132
3.29443
3.52809
3.76841
4.01058
4.24956
4.48059
4.69887
4.89939
5.07772
5.2306
5.35441
5.4436
5.49317
5.4964
5.4462
5.33716
5.16762
4.94099
4.66564
4.35343
4.0174
3.67202
3.32622
2.98522
2.65359
2.33528
2.03351
1.7506
1.48788
1.24574
1.0238
0.821281
0.637445
0.471866
0.324598
0.195994
0.0866428
-0.00305805
-0.0735448
-0.125881
-0.161648
-0.182741
-0.191177
-0.189019
-0.178197
-0.160761
-0.139676
-0.119278
-0.104513
-0.100021
-0.109202
-0.133348
-0.171093
-0.21837
-0.268859
-0.31484
-0.348815
-0.36571
-0.360555
-0.323295
-0.228184
-0.0513367
0.172849
0.383119
0.522717
0.555822
0.478517
0.321574
0.14227
0.00484037
-0.0457429
-0.0329818
0.00457048
0.0513207
0.0957478
0.128057
0.141812
0.134746
0.108677
0.0686969
0.0219054
-0.0240238
-0.0629083
-0.0909896
-0.106434
-0.108752
-0.098343
-0.0759224
-0.0428759
-0.0010994
0.0470584
0.0991803
0.152569
0.204301
0.251784
0.293151
0.327523
0.355054
0.376675
0.393593
0.406384
0.414792
0.417773
0.413692
0.401312
0.380806
0.354307
0.325748
0.300058
0.282054
0.274572
0.27784
0.292032
0.316501
0.34967
0.389468
0.433136
0.477197
0.518117
0.552916
0.579693
0.598057
0.609302
0.616246
0.622716
0.632788
0.649951
0.676223
0.711656
0.754673
0.802868
0.853388
0.902954
0.948513
0.987846
1.01988
1.0448
1.06383
1.0789
1.09213
1.10523
1.1191
1.13361
1.14759
1.15905
1.16595
1.16713
1.16301
1.15603
1.15053
1.15203
1.16598
1.19645
1.24496
1.3091
1.38513
1.46791
1.55197
1.63264
1.70657
1.77185
1.8275
1.8733
1.90912
1.93466
1.94926
1.9518
1.94041
1.91336
1.86922
1.80766
1.73019
1.64065
1.54515
1.45123
1.36652
1.29679
1.24445
1.21025
1.19181
1.18461
1.18299
1.1811
1.17377
1.1569
1.12762
1.08423
1.02599
0.952724
0.864579
0.758767
0.627964
0.470579
0.292763
0.103701
0
0.48633
1.91106
4.29006
7.16801
9.7447
11.218
11.1425
9.60585
7.1497
4.51204
2.33684
0.979358
0.462858
0.56618
0.819032
0.985951
1.12228
1.22366
1.29204
1.33537
1.36567
1.39589
1.43669
1.49194
1.55972
1.63698
1.71946
1.80157
1.87759
1.94274
1.99426
2.0316
2.05621
2.07098
2.07938
2.08458
2.08874
2.093
2.09739
2.10199
2.10801
2.11841
2.13759
2.17029
236
481
710
939
1193
1466
1741
1987
2215
2460
2721
2990
3231
3458
3711
0
0
0
0
0
0
0
0
0
0
0
0
0
0
0
0
0
0
0
0
0
0
0
0
0
0
0
0
0
0
0
0
0
0
0
0
0
0
0
0
0
0
0
0
0
0
0
0
0
0
0
0
0
0
0
0
0
0
0
0
0
0
0
0
0
0
0
0
0
0
0
0
0
0
0
0
0
0
0
0
0
0
0
0
0
0
0
0
0
0
0
0
0
0
0
0
0
0
0
0
0
0
0
0
0
0
0
0
0
0
0
0
0
0
0
0
0
0
0
0
0
0
0
0
0
0
0
0
0
0
0
0
0
0
0
0
0
0
0
0
0
0
0
0
0
0
0
0
0
0
0
0
0
0
0
0
0
0
0
0
0
0
0
0
0
0
0
0
0
0
0
0
0
0
0
0
0
0
0
0
0
0
0
0
0
0
0
0
0
0
0
0
0
0
0
0
0
0
0
0
0
0
0
0
0
0
0
0
0
0
0
0
0
0
0
0
0
0
0
0
0
0
0
0
0
0
0
0
0
0
0
0
0
0
0
0
0
0
0
0
0
0
0
0
0
0
0
0
0
0
0
0
0
0
0
0
0
0
0
0
0
0
0
0
0
0
0
0
0
0
0
0
0
0
0
0
0
0
0
0
0
0
0
0
0
0
0
0
0
0
0
0
0
0
0
0
0
0
0
0
0
0
0
0
0
0
0
0
0
0
0
0
0
0
0
0
0
0
0
0
0
0
0
0
0
0
0
0
0
0
0
0
0
0
0
0
0
0
0
0
0
0
0
0
0
0
0
0
0
0
0
0
0
0
0
0
0
0
0
0
0
0
0
0
0
0
0
0
0
0
0
0
0
0
0
0
0
0
0
0
0
0
0
0
0
0
0
0
0
0
0
0
0
0
0
0
0
0
0
0
0
0
0
0
0
0
0
0
0
0
0
0
0
0
0
0
0
0
0
0
0
0
0
0
0
0
0
0
0
0
0
0
0
0
0
0
0
0
0
0
0
0
0
0
0
0
0
0
0
0
0
0
0
0
0
0
0
0
0
0
0
0
0
0
0
0
0
0
0
0
0
0
0
0
0
0
0
0
0
0
0
0
0
0
0
0
0
0
0
0
0
0
0
0
0
0
0
0
0
0
0
0
0
0
0
0
0
0
0
0
0
0
0
0
0
0
0
0
0
0
0
0
0
0
0
0
0
0
0
0
0
0
0
0
0
0
0
0
0
0
0
0
0
0
0
0
0
0
0
0
0
0
0
0
0
0
0
0
0
0
0
0
0
0
0
0
0
0
0
0
0
0
0
0
0
0
0
0
0
0
0
0
0
0
0
0
0
0
0
0
0
0
0
0
0
0
0
0
0
0
0
0
0
0
0
0
0
0
0
0
0
0
0
0
0
0
0
0
0
0
0
0
0
0
0
0
0
0
0
0
0
0
0
0
0
0
0
0
0
0
0
0
0
0
0
0
0
0
0
0
0
0
0
0
0
0
0
0
0
0
0
0
0
0
0
0
0
0
0
0
0
0
0
0
0
0
0
0
0
0
0
0
0
0
0
0
0
0
0
0
0
0
0
0
0
0
0
0
0
0
0
0
0
0
0
0
0
0
0
0
0
0
0
0
0
0
0
0
0
0
0
0
0
0
0
0
0
0
0
0
0
0
0
0
0
0
0
0
0
0
0
0
0
0
0
0
0
0
0
0
0
0
0
0
0
0
0
0
0
0
0
0
0
0
0
0
0
0
0
0
0
0
0
0
0
0
0
0
0
0
0
0
0
0
0
0
0
0
0
0
0
0
0
0
0
0
0
0
0
0
0
0
0
0
0
0
0
0
0
0
0
0
0
0
0
0
0
0
0
0
0
0
0
0
0
0
0
0
0
0
0
0
0
0
0
0
0
0
0
0
0
0
0
0
0
0
0
0
0
0
0
0
0
0
0
0
0
0
0
0
0
0
0
0
0
0
0
0
0
0
0
0
0
0
0
0
0
0
0
0
0
0
0
0
0
0
0
0
0
0
0
0
0
0
0
0
0
0
0
0
0
0
0
0
0
0
0
0
0
0
0
0
0
0
0
0
0
0
0
0
0
0
0
0
0
0
0
0
0
0
0
0
0
0
0
0
0
0
0
0
0
0
0
0
0
0
0
0
0
0
0
0
0
0
0
0
0
0
0
0
0
0
0
0
0
0
0
0
0
0
0
0
0
0
0
0
0
0
0
0
0
0
0
0
0
0
0
0
0
0
0
0
0
0
0
0
0
0
0
0
0
0
0
0
0
0
0
0
0
0
0
0
0
0
0
0
0
0
0
0
0
0
0
0
0
0
0
0
0
0
0
0
0
0
0
0
0
0
0
0
0
0
0
0
0
0
0
0
0
0
0
0
0
0
0
0
0
0
0
0
0
0
0
0
0
0
0
0
0
0
0
0
0
0
0
0
0
0
0
0
0
0
0
0
0
0
0
0
0
0
0
0
0
0
0
0
0
0
0
0
0
0
0
0
0
0
0
0
0
0
0
0
0
0
0
0
0
0
0
0
0
0
0
0
0
0
0
0
0
0
0
0
0
0
0
0
0
0
0
0
0
0
0
0
0
0
0
0
0
0
0
0
0
0
0
0
0
0
0
0
0
0
0
0
0
0
0
0
0
0
0
0
0
0
0
0
0
0
0
0
0
0
0
0
0
0
0
0
0
0
0
0
0
0
0
0
0
0
0
0
0
0
0
0
0
0
0
0
0
0
0
0
0
0
0
0
0
0
0
0
0
0
0
0
0
0
0
0
0
0
0
0
0
0
0
0
0
0
0
0
0
0
0
0
0
0
0
0
0
0
0
0
0
0
0
0
0
0
0
0
0
0
0
0
0
0
0
0
0
0
0
0
0
0
0
0
0
0
0
0
0
0
0
0
0
0
0
0
0
0
0
0
0
0
0
0
0
0
0
0
0
0
0
0
0
0
0
0
0
0
0
0
0
0
0
0
0
0
0
0
0
0
0
0
0
0
0
0
0
0
0
0
0
0
0
0
0
0
0
0
0
0
0
0
0
0
0
0
0
0
0
0
0
0
0
0
0
0
0
0
0
0
0
0
0
0
0
0
0
0
0
0
0
0
0
0
0
0
0
0
0
0
0
0
0
0
0
0
0
0
0
0
0
0
0
0
0
0
0
0
0
0
0
0
0
0
0
0
0
0
0
0
0
0
0
0
0
0
0
0
0
0
0
0
0
0
0
0
0
0
0
0
0
0
0
0
0
0
0
0
0
0
0
0
0
0
0
0
0
0
0
0
0
0
0
0
0
0
0
0
0
0
0
0
0
0
0
0
0
0
0
0
0
0
0
0
0
0
0
0
0
0
0
0
0
0
0
0
0
0
0
0
0
0
0
0
0
0
0
0
0
0
0
0
0
0
0
0
0
0
0
0
0
0
0
0
0
0
0
0
0
0
0
0
0
0
0
0
0
0
0
0
0
0
0
0
0
0
0
0
0
0
0
0
0
0
0
0
0
0
0
0
0
0
0
0
0
0
0
0
0
0
0
0
0
0
0
0
0
0
0
0
0
0
0
0
0
0
0
0
0
0
0
0
0
0
0
0
0
0
0
0
0
0
0
0
0
0
0
0
0
0
0
0
0
0
0
0
0
0
0
0
0
0
0
0
0
0
0
0
0
0
0
0
0
0
0
0
0
0
0
0
0
0
0
0
0
0
0
0
0
0
0
0
0
0
0
0
0
0
0
0
0
0
0
0
0
0
0
0
0
0
0
0
0
0
0
0
0
0
0
0
0
0
0
0
0
0
0
0
0
0
0
0
0
0
0
0
0
0
0
0
0
0
0
0
0
0
0
0
0
0
0
0
0
0
0
0
0
0
0
0
0
0
0
0
0
0
0
0
0
0
0
0
0
0
0
0
0
0
0
0
0
0
0
0
0
0
0
0
0
0
0
0
0
0
0
0
0
0
0
0
0
0
0
0
0
0
0
0
0
0
0
0
0
0
0
0
0
0
0
0
0
0
0
0
0
0
0
0
0
0
0
0
0
0
0
0
0
0
0
0
0
0
0
0
0
0
0
0
0
0
0
0
0
0
0
0
0
0
0
0
0
0
0
0
0
0
0
0
0
0
0
0
0
0
0
0
0
0
0
0
0
0
0
0
0
0
0
0
0
0
0
0
0
0
0
0
0
0
0
0
0
0
0
0
0
0
0
0
0
0
0
0
0
0
0
0
0
0
0
0
0
0
0
0
0
0
0
0
0
0
0
0
0
0
0
0
0
0
0
0
0
0
0
0
0
0
0
0
0
0
0
0
0
0
0
0
0
0
0
0
0
0
0
0
0
0
0
0
0
0
0
0
0
0
0
0
0
0
0
0
0
0
0
0
0
0
0
0
0
0
0
0
0
0
0
0
0
0
0
0
0
0
0
0
0
0
0
0
0
0
0
0
0
0
0
0
0
0
0
0
0
0
0
0
0
0
0
0
0
0
0
0
0
0
0
0
0
0
0
0
0
0
0
0
0
0
0
0
0
0
0
0
0
0
0
0
0
0
0
0
0
0
0
0
0
0
0
0
0
0
0
0
0
0
0
0
0
0
0
0
0
0
0
0
0
0
0
0
0
0
0
0
0
0
0
0
0
0
0
0
0
0
0
0
0
0
0
0
0
0
0
0
0
0
0
0
0
0
0
0
0
0
0
0
0
0
0
0
0
0
0
0
0
0
0
0
0
0
0
0
0
0
0
0
0
0
0
0
0
0
0
0
0
0
0
0
0
0
0
0
0
0
0
0
0
0
0
0
0
0
0
0
0
0
0
0
0
0
0
0
0
0
0
0
0
0
0
0
0
0
0
0
0
0
0
0
0
0
0
0
0
0
0
0
0
0
0
0
0
0
0
0
0
0
0
0
0
0
0
0
0
0
0
0
0
0
0
0
0
0
0
0
0
0
0
0
0
0
0
0
0
0
0
0
0
0
0
0
0
0
0
0
0
0
0
0
0
0
0
0
0
0
0
0
0
0
0
0
0
0
0
0
0
0
0
0
0
0
0
0
0
0
0
0
0
0
0
0
0
0
0
0
0
0
0
0
0
0
0
0
0
0
0
0
0
0
0
0
0
0
0
0
0
0
0
0
0
0
0
0
0
0
0
0
0
0
0
0
0
0
0
0
0
0
0
0
0
0
0
0
0
0
0
0
0
0
0
0
0
0
0
0
0
0
0
0
0
0
0
0
0
0
0
0
0
0
0
0
0
0
0
0
0
0
0
0
0
0
0
0
0
0
0
0
0
0
0
0
0
0
0
0
0
0
0
0
0
0
0
0
0
0
0
0
0
0
0
0
0
0
0
0
0
0
0
0
0
0
0
0
0
0
0
0
0
0
0
0
0
0
0
0
0
0
0
0
0
0
0
0
0
0
0
0
0
0
0
0
0
0
0
0
0
0
0
0
0
0
0
0
0
0
0
0
0
0
0
0
0
0
0
0
0
0
0
0
0
0
0
0
0
0
0
0
0
0
0
0
0
0
0
0
0
0
0
0
0
0
0
0
0
0
0
0
0
0
0
0
0
0
0
0
0
0
0
0
0
0
0
0
0
0
0
0
0
0
0
0
0
0
0
0
0
0
0
0
0
0
0
0
0
0
0
0
0
0
0
0
0
0
0
0
0
0
0
0
0
0
0
0
0
0
0
0
0
0
0
0
0
0
0
0
0
0
0
0
0
0
0
0
0
0
0
0
0
0
0
0
0
0
0
0
0
0
0
0
0
0
0
0
0
0
0
0
0
0
0
0
0
0
0
0
0
0
0
0
0
0
0
0
0
0
0
0
0
0
0
0
0
0
0
0
0
0
0
0
0
0
0
0
0
0
0
0
0
0
0
0
0
0
0
0
0
0
0
0
0
0
0
0
0
0
0
0
0
0
0
0
0
0
0
0
0
0
0
0
0
0
0
0
0
0
0
0
0
0
0
0
0
0
0
0
0
0
0
0
0
0
0
0
0
0
0
0
0
0
0
0
0
0
0
0
0
0
0
0
0
0
0
0
0
0
0
0
0
0
0
0
0
0
0
0
0
0
0
0
0
0
0
0
0
0
0
0
0
0
0
0
0
0
0
0
0
0
0
0
0
0
0
0
0
0
0
0
0
0
0
0
0
0
0
0
0
0
0
0
0
0
0
0
0
0
0
0
0
0
0
0
0
0
0
0
0
0
0
0
0
0
0
0
0
0
0
0
0
0
0
0
0
0
0
0
0
0
0
0
0
0
0
0
0
0
0
0
0
0
0
0
0
0
0
0
0
0
0
0
0
0
0
0
0
0
0
0
0
0
0
0
0
0
0
0
0
0
0
0
0
0
0
0
0
0
0
0
0
0
0
0
0
0
0
0
0
0
0
0
0
0
0
0
0
0
0
0
0
0
0
0
0
0
0
0
0
0
0
0
0
0
0
0
0
0
0
0
0
0
0
0
0
0
0
0
0
0
0
0
0
0
0
0
0
0
0
0
0
0
0
0
0
0
0
0
0
0
0
0
0
0
0
0
0
0
0
0
0
0
0
0
0
0
0
0
0
0
0
0
0
0
0
0
0
0
0
0
0
0
0
0
0
0
0
0
0
0
0
0
0
0
0
0
0
0
0
0
0
0
0
0
0
0
0
0
0
0
0
0
0
0
0
0
0
0
0
0
0
0
0
0
0
0
0
0
0
0
0
0
0
0
0
0
0
0
0
0
0
0
0
0
0
0
0
0
0
0
0
0
0
0
0
0
0
0
0
0
0
0
0
0
0
0
0
0
0
0
0
0
0
0
0
0
0
0
0
0
0
0
0
0
0
0
0
0
0
0
0
0
0
0
0
0
0
0
0
0
0
0
0
0
0
0
0
0
0
0
0
0
0
0
0
0
0
0
0
0
0
0
0
0
0
0
0
0
0
0
0
0
0
0
0
0
0
0
0
0
0
0
0
0
0
0
0
0
0
0
0
0
0
0
0
0
0
0
0
0
0
0
0
0
0
0
0
0
0
0
0
0
0
0
0
0
0
0
0
0
0
0
0
0
0
0
0
0
0
0
0
0
0
0
0
0
0
0
0
0
0
0
0
0
0
0
0
0
0
0
0
0
0
0
0
0
0
0
0
0
0
0
0
0
0
0
0
0
0
0
0
0
0
0
0
0
0
0
0
0
0
0
0
0
0
0
0
0
0
0
0
0
0
0
0
0
0
0
0
0
0
0
0
0
0
0
0
0
0
0
0
0
0
0
0
0
0
0
0
0
0
0
0
0
0
0
0
0
0
0
0
0
0
0
0
0
0
0
0
0
0
0
0
0
0
0
0
0
0
0
0
0
0
0
0
0
0
0
0
0
0
0
0
0
0
0
0
0
0
0
0
0
0
0
0
0
0
0
0
0
0
0
0
0
0
0
0
0
0
0
0
0
0
0
0
0
0
0
0
0
0
0
0
0
0
0
0
0
0
0
0
0
0
0
0
0
0
0
0
0
0
0
0
0
0
0
0
0
0
0
0
0
0
0
0
0
0
0
0
0
0
0
0
0
0
0
0
0
0
0
0
0
0
0
0
0
0
0
0
0
0
0
0
0
0
0
0
0
0
0
0
0
0
0
0
0
0
0
0
0
0
0
0
0
0
0
0
0
0
0
0
0
0
0
0
0
0
0
0
0
0
0
0
0
0
0
0
0
0
0
0
0
0
0
0
0
0
0
0
0
0
0
0
0
0
0
0
0
0
0
0
0
0
0
0
0
0
0
0
0
0
0
0
0
0
0
0
0
0
0
0
0
0
0
0
0
0
0
0
0
0
0
0
0
0
0
0
0
0
0
0
0
0
0
0
0
0
0
0
0
0
0
0
0
0
0
0
0
0
0
0
0
0
0
0
0
0
0
0
0
0
0
0
0
0
0
0
0
0
0
0
0
0
0
0
0
0
0
0
0
0
0
0
0
0
0
0
0
0
0
0
0
0
0
0
0
0
0
0
0
0
0
0
0
0
0
0
0
0
0
0
0
0
0
0
0
0
0
0
0
0
0
0
0
0
0
0
0
0
0
0
0
0
0
0
0
0
0
0
0
0
0
0
0
0
0
0
0
0
0
0
0
0
0
0
0
0
0
0
0
0
0
0
0
0
0
0
0
0
0
0
0
0
0
0
0
0
0
0
0
0
0
0
0
0
0
0
0
0
0
0
0
0
0
0
0
0
0
0
0
0
0
0
0
0
0
0
0
0
0
0
0
0
0
0
0
0
0
0
0
0
0
0
0
0
0
0
0
0
0
0
0
0
0
0
0
0
0
0
0
0
0
0
0
0
0
0
0
0
0
0
0
0
0
0
0
0
0
0
0
0
0
0
0
0
0
0
0
0
0
0
0
0
0
0
0
0
0
0
0
0
0
0
0
0
0
0
0
0
0
0
0
0
0
0
0
0
0
0
0
0
0
