21.6597
21.6597
21.6597
21.6597
21.6597
21.6597
21.6597
21.6597
21.6597
21.6597
21.6597
21.6597
21.6597
21.6597
21.6597
21.6597
21.6597
21.6597
21.6597
21.6597
21.6597
21.6597
21.6597
21.6597
21.6597
21.6597
21.6597
21.6597
21.6597
21.6597
21.6597
21.6597
21.6597
21.6597
21.6597
21.6597
21.6597
21.6597
21.6597
21.6597
21.6597
21.6597
21.6597
21.6597
21.6597
21.6597
21.6597
21.6597
21.6597
21.6597
21.6597
21.6597
21.6597
21.6597
21.6597
21.6597
21.6597
21.6597
21.6597
21.6597
21.6597
21.6597
21.6597
21.6597
21.6597
21.6597
21.6597
21.6597
21.6597
21.6597
21.6597
21.6597
21.6597
21.6597
21.6597
21.6597
21.6597
21.6597
21.6597
21.6597
21.6597
21.6597
21.6597
21.6597
21.6597
21.6597
21.6597
21.6597
21.6597
21.6597
21.6597
21.6597
21.6597
21.6597
21.6597
21.6597
21.6597
21.6597
21.6597
21.6597
21.6597
21.6597
21.6597
21.6597
21.6597
21.6597
21.6597
21.6597
21.6597
21.6597
21.6597
21.6597
21.6597
21.6597
21.6596
21.6596
21.6595
21.6593
21.659
21.6585
21.6577
21.6563
21.6539
21.6498
21.6432
21.6329
21.6175
21.5955
21.5651
21.5248
21.4737
21.411
21.3369
21.2519
21.1571
21.0534
20.9418
20.8229
20.6971
20.5647
20.426
20.2819
20.1335
19.9828
19.8317
19.6824
19.5367
19.3958
19.2603
19.1298
19.0038
18.8812
18.7608
18.6414
18.5217
18.4003
18.276
18.1475
18.0139
17.8745
17.7288
17.5769
17.4191
17.2554
17.0857
16.9091
16.7242
16.5291
16.3214
16.0991
15.8611
15.6073
15.3393
15.06
14.7736
14.4849
14.1988
13.9192
13.6491
13.3898
13.1416
12.9032
12.6734
12.4506
12.2336
12.0218
11.8153
11.6145
11.4199
11.2317
11.0499
10.8742
10.7042
10.5394
10.3794
10.2241
10.0732
9.92645
9.78303
9.64152
9.49991
9.3558
9.20678
9.05085
8.88685
8.71469
8.5354
8.35099
8.16408
7.97747
7.79371
7.61472
7.44151
7.27412
7.1117
6.95283
6.79585
6.6394
6.48274
6.32603
6.17025
6.01698
5.86791
5.72426
5.58629
5.45304
5.32226
5.19068
5.05452
4.91014
4.75458
4.58606
4.40423
4.21009
4.00579
3.79424
3.57871
3.36241
3.14825
2.93864
2.73547
2.5401
2.35332
2.17545
2.00625
1.84492
1.69012
1.53996
1.3921
1.24401
1.09308
0.935211
0.763554
0.577696
0.384181
0.190011
0
0.32687
1.01597
2.03797
3.27352
4.52654
5.56605
6.17707
6.21462
5.65208
4.60708
3.32325
2.09703
1.17375
0.664742
0.602624
0.600772
0.600875
0.601572
0.602243
0.603196
0.605533
0.610755
0.62025
0.634786
0.654229
0.677524
0.702932
0.72845
0.752274
0.773212
0.790921
0.80596
0.819628
0.833651
0.849841
0.869753
0.89445
0.92443
0.959713
1.00004
1.04513
1.09482
1.14913
1.20808
1.27156
1.33907
1.40892
1.47814
1.54314
1.60038
1.64711
1.68183
1.70435
1.71551
1.71643
1.70821
1.69172
1.66668
1.6321
1.58694
1.53051
1.46273
1.38429
1.2966
1.20158
1.10145
0.998484
0.894876
0.792646
0.693586
0.599204
0.510645
0.428605
0.353263
0.284304
0.221033
0.162592
0.108237
0.0575745
0.0107025
-0.0318024
-0.0690479
-0.100087
-0.124188
-0.141038
-0.150807
-0.154086
-0.15173
-0.144675
-0.133799
-0.119859
-0.103509
-0.0853485
-0.0659592
-0.0459053
-0.0256691
-0.0055748
0.0142715
0.0339882
0.0538498
0.0741653
0.095153
0.116832
0.138995
0.161219
0.182959
0.203618
0.222619
0.239428
0.253535
0.26442
0.271552
0.274485
0.273055
0.267662
0.259566
0.251083
0.245554
0.247153
0.262347
0.303425
0.383144
0.492046
0.607307
0.702117
0.754559
0.754244
0.704633
0.620892
0.524534
0.436729
0.366238
0.310679
0.267258
0.234906
0.211744
0.195221
0.182565
0.171176
0.15891
0.144202
0.126028
0.103737
0.076783
0.0443916
0.00499496
-0.0448311
-0.11128
-0.196413
-0.284674
-0.354365
-0.389562
-0.395901
0
0.772486
1.89275
3.22618
4.54118
5.57037
6.09073
5.99329
5.31917
4.24926
3.04766
1.97755
1.22134
0.83634
0.781134
0.820052
0.855691
0.886655
0.911748
0.930991
0.94546
0.956893
0.967189
0.977895
0.989946
1.00364
1.01874
1.03474
1.05102
1.06712
1.08275
1.09778
1.11223
1.12626
1.14018
1.1547
1.17121
1.19201
1.21986
1.2577
1.30807
1.37231
1.4501
1.53919
1.63567
1.73453
1.8305
1.91943
1.99824
2.06475
2.11794
2.15777
2.1848
2.1999
2.2039
2.19757
2.1818
2.15757
2.12586
2.08777
2.04463
1.99786
1.94872
1.89805
1.84619
1.79288
1.73741
1.67878
1.6159
1.54787
1.47414
1.39464
1.30992
1.22119
1.13031
1.03969
0.952162
0.870642
0.79789
0.736128
0.686807
0.65061
0.627322
0.615514
0.612924
0.61702
0.625418
0.636183
0.647974
0.659962
0.671602
0.682309
0.691203
0.696875
0.697629
0.691882
0.678722
0.658429
0.632755
0.604799
0.578452
0.557871
0.54827
0.551668
0.56385
0.577675
0.585875
0.583858
0.571324
0.552074
0.532274
0.517982
0.512335
0.51427
0.521521
0.532185
0.544261
0.555774
0.56501
0.570522
0.571239
0.566394
0.555515
0.538422
0.515227
0.486284
0.452054
0.412967
0.369334
0.321484
0.26964
0.214142
0.155693
0.095491
0.0352051
-0.0231796
-0.0776825
-0.126649
-0.16893
-0.203986
-0.232397
-0.256146
-0.277721
-0.299579
-0.323651
-0.35106
-0.38208
-0.416316
-0.453001
-0.491246
-0.530173
-0.568983
-0.606703
-0.642148
-0.673859
-0.700189
-0.719519
-0.60361
0
0.970683
2.24803
3.60939
4.76766
5.45792
5.51721
4.93448
3.85778
2.55151
1.31047
0.35997
-0.212201
-0.457782
-0.515282
-0.570757
-0.625087
-0.677388
-0.726825
-0.772707
-0.814581
-0.852258
-0.885777
-0.915326
-0.941148
-0.963568
-0.982899
-0.999387
-1.01327
-1.02485
-1.0345
-1.04252
-1.04916
-1.05445
-1.05821
-1.06009
-1.05966
-1.05651
-1.05034
-1.04103
-1.02868
-1.01355
-0.996117
-0.977
-0.956969
-0.936864
-0.917493
-0.899481
-0.883155
-0.868525
-0.855399
-0.843637
-0.833556
-0.826434
-0.824702
-0.831581
-0.850578
-0.884684
-0.935635
-1.00351
-1.08674
-1.18242
-1.28693
-1.39641
-1.50751
-1.61788
-1.72603
-1.83111
-1.93268
-2.03039
-2.12382
-2.2125
-2.29574
-2.37269
-2.44238
-2.50383
-2.55612
-2.5985
-2.63045
-2.65181
-2.66292
-2.66416
-2.65619
-2.63987
-2.61619
-2.5862
-2.55102
-2.51189
-2.47013
-2.4272
-2.38454
-2.34353
-2.3053
-2.27066
-2.24002
-2.21345
-2.1907
-2.17135
-2.15488
-2.14074
-2.12847
-2.11767
-2.10811
-2.09963
-2.09212
-2.08549
-2.07955
-2.07394
-2.06813
-2.06134
-2.05257
-2.04071
-2.02458
-2.00317
-1.9758
-1.94231
-1.90321
-1.85965
-1.81333
-1.76624
-1.72038
-1.67747
-1.63871
-1.60471
-1.57547
-1.5504
-1.52835
-1.50768
-1.48623
-1.46146
-1.43052
-1.3906
-1.33925
-1.27485
-1.19697
-1.10664
-1.00643
-0.900282
-0.793381
-0.694659
-0.613682
-0.558159
-0.53256
-0.53704
-0.567279
-0.615392
-0.671693
-0.726737
-0.772987
-0.807856
-0.831376
-0.843437
-0.843892
-0.832968
-0.811258
-0.779779
-0.740076
-0.694265
-0.644968
-0.595107
-0.547581
-0.50497
-0.469196
-0.440963
-0.419742
-0.403791
-0.390323
-0.375799
-0.356267
-0.327736
0
0.896145
2.13933
3.52065
4.76857
5.6345
5.96326
5.72847
5.03067
4.06343
3.056
2.20634
1.62717
1.32718
1.27046
1.26754
1.27006
1.2762
1.28581
1.29861
1.31419
1.33207
1.35183
1.37304
1.39536
1.41856
1.44257
1.46756
1.49396
1.52252
1.55435
1.59081
1.63344
1.68365
1.7425
1.81039
1.88694
1.97098
2.06071
2.15405
2.2489
2.34335
2.43588
2.52534
2.61095
2.69224
2.76906
2.84157
2.9103
2.97609
3.03995
3.10288
3.16545
3.2274
3.28668
3.33881
3.37809
3.39903
3.39821
3.37565
3.33506
3.28275
3.22556
3.16837
3.11217
3.05461
2.99162
2.9191
2.83471
2.73915
2.63637
2.53263
2.43478
2.34827
2.2737
2.21184
2.16286
2.1262
2.10092
2.08586
2.07996
2.08211
2.09102
2.10516
2.1228
2.14219
2.1617
2.18005
2.19642
2.21042
2.22203
2.23135
2.23845
2.24328
2.24549
2.24454
2.23967
2.23005
2.21484
2.1933
2.16492
2.12957
2.08756
2.03979
1.98778
1.9337
1.88019
1.83026
1.78708
1.75332
1.73082
1.72028
1.72103
1.73169
1.74911
1.76891
1.78678
1.7992
1.80401
1.80053
1.78929
1.77149
1.74848
1.72154
1.69167
1.65952
1.62568
1.59098
1.55663
1.52412
1.49499
1.47056
1.45183
1.43894
1.43114
1.42699
1.42455
1.42163
1.41602
1.40569
1.3891
1.36551
1.33525
1.29994
1.26247
1.22674
1.19707
1.17738
1.17099
1.18046
1.20591
1.2436
1.28515
1.32019
1.33916
1.33493
1.30388
1.2461
1.16502
1.06654
0.957882
0.846831
0.739461
0.639328
0.549204
0.471598
0.408271
0.360532
0.32834
0.308448
0.295311
0.282743
0.265059
0.238063
0.199616
0.149648
0.0896993
0.0216608
-0.0533199
-0.134242
-0.218661
-0.300924
-0.372697
-0.426516
-0.447627
0
0.842693
1.9862
3.25463
4.40217
5.18014
5.41606
5.07717
4.28506
3.26832
2.27291
1.4749
0.939491
0.641467
0.575512
0.518051
0.462655
0.409183
0.357626
0.308198
0.261403
0.218008
0.178933
0.145109
0.117342
0.0962471
0.0822262
0.0755083
0.0761959
0.0842979
0.0997326
0.122297
0.151627
0.187158
0.228138
0.27364
0.322612
0.373978
0.426778
0.480268
0.533976
0.587688
0.641357
0.69496
0.748329
0.801001
0.852158
0.900672
0.945233
0.984531
1.01744
1.04312
1.06108
1.07109
1.07307
1.06714
1.05326
1.03102
0.999749
0.958521
0.906318
0.842205
0.76556
0.676312
0.575129
0.463521
0.343832
0.219101
0.0928169
-0.0314022
-0.150168
-0.260635
-0.36073
-0.449223
-0.525667
-0.590208
-0.643357
-0.685801
-0.71829
-0.741608
-0.756613
-0.764383
-0.766111
-0.762962
-0.755859
-0.745268
-0.731067
-0.712597
-0.688875
-0.658957
-0.622277
-0.578869
-0.529849
-0.477928
-0.427129
-0.381786
-0.34576
-0.321748
-0.310881
-0.312698
-0.325476
-0.346799
-0.374054
-0.404773
-0.437215
-0.470181
-0.502638
-0.533566
-0.561892
-0.586555
-0.606661
-0.621679
-0.631656
-0.637286
-0.639861
-0.641148
-0.643186
-0.648071
-0.657745
-0.673788
-0.697173
-0.72802
-0.765441
-0.807379
-0.850668
-0.891309
-0.924973
-0.947492
-0.955001
-0.944999
-0.917509
-0.875199
-0.822875
-0.766888
-0.713866
-0.669344
-0.637055
-0.618591
-0.613473
-0.619595
-0.633915
-0.653192
-0.674528
-0.695712
-0.715321
-0.732102
-0.744643
-0.751544
-0.751524
-0.743587
-0.72721
-0.702928
-0.672018
-0.636236
-0.597456
-0.557356
-0.517233
-0.477985
-0.44021
-0.404294
-0.37048
-0.338931
-0.309617
-0.282213
-0.256036
-0.230098
-0.203259
-0.174468
-0.143024
-0.108756
-0.0722748
-0.0351021
0.000584412
0.0322929
0.0576157
0.0745987
0.0820122
0.0795029
0.0675751
0.0474709
0.0210953
-0.00943985
-0.0421043
-0.075016
-0.106477
-0.135014
-0.159414
-0.178777
-0.192606
-0.200881
-0.204121
-0.203548
-0.20108
-0.199027
-0.199796
-0.205563
-0.218332
-0.239596
-0.270528
-0.312431
-0.365578
-0.423738
-0.475977
-0.512057
-0.527331
-0.523694
0
0.890385
2.04433
3.28374
4.39277
5.17287
5.49095
5.31321
4.71444
3.85559
2.93197
2.11199
1.49267
1.08994
0.894049
0.81986
0.75532
0.696825
0.645352
0.60148
0.565343
0.53662
0.51457
0.498122
0.486011
0.476945
0.469855
0.464092
0.459576
0.456821
0.456827
0.460793
0.469799
0.484732
0.50602
0.533054
0.56471
0.599897
0.638019
0.679247
0.724492
0.775091
0.832302
0.896814
0.968033
1.04459
1.12483
1.20685
1.28877
1.36892
1.446
1.51896
1.5868
1.64828
1.70187
1.74598
1.77871
1.79808
1.80226
1.7898
1.75979
1.71181
1.6459
1.56264
1.46366
1.35109
1.22725
1.09476
0.956899
0.817607
0.681224
0.552164
0.434499
0.331595
0.24584
0.178523
0.129851
0.0990799
0.0846817
0.0845459
0.0962906
0.117319
0.144234
0.172145
0.195787
0.210776
0.214456
0.206583
0.189462
0.167448
0.145854
0.129648
0.121764
0.122391
0.131422
0.147687
0.169389
0.194466
0.220827
0.246611
0.269806
0.288104
0.299211
0.300964
0.291716
0.270764
0.238654
0.197266
0.149603
0.0993378
0.0502396
0.00532837
-0.0333313
-0.0642258
-0.0865875
-0.100285
-0.105678
-0.103464
-0.0946198
-0.0802933
-0.061879
-0.0414078
-0.0217072
-0.00589142
0.00319824
0.003508
-0.00577087
-0.0239899
-0.0491745
-0.0784775
-0.108786
-0.137445
-0.16291
-0.184612
-0.202573
-0.217328
-0.229785
-0.240996
-0.251958
-0.263475
-0.276065
-0.28989
-0.304732
-0.319971
-0.334605
-0.347336
-0.356696
-0.361287
-0.35993
-0.351706
-0.336388
-0.315685
-0.293655
-0.274944
-0.263446
-0.261055
-0.266837
-0.276942
-0.285304
-0.284912
-0.265089
-0.202794
-0.0900726
0.0409592
0.14727
0.191493
0.155823
0.0487457
-0.0981827
-0.242381
-0.346236
-0.401057
-0.427837
-0.440337
-0.444167
-0.442801
-0.439807
-0.438484
-0.441579
-0.451143
-0.468456
-0.494046
-0.527763
-0.568892
-0.616266
-0.66841
-0.72363
-0.779456
-0.831131
-0.871358
-0.892188
-0.886349
-0.849844
-0.784279
-0.675928
0
0.921099
2.00432
3.13194
4.1513
4.89417
5.21931
5.06413
4.47661
3.6038
2.63927
1.75661
1.06308
0.588208
0.339879
0.28322
0.240993
0.20723
0.182877
0.168161
0.162004
0.161201
0.161617
0.159586
0.152893
0.141348
0.126831
0.112733
0.103006
0.101187
0.10891
0.126036
0.152658
0.188597
0.233522
0.286987
0.348604
0.417751
0.493344
0.573695
0.656543
0.73936
0.819592
0.894967
0.963773
1.02501
1.07844
1.12449
1.1641
1.19855
1.22925
1.25749
1.28429
1.3102
1.33515
1.35827
1.37771
1.39065
1.39403
1.3848
1.36041
1.31923
1.26075
1.18551
1.09495
0.991083
0.876652
0.755203
0.629761
0.503062
0.377979
0.257367
0.143846
0.0395828
-0.0538742
-0.135585
-0.205174
-0.262862
-0.309198
-0.344899
-0.370717
-0.387357
-0.395438
-0.395464
-0.387846
-0.372945
-0.351195
-0.323109
-0.289299
-0.250754
-0.209946
-0.171671
-0.141515
-0.124385
-0.123061
-0.137163
-0.163046
-0.194778
-0.225888
-0.251247
-0.269391
-0.281841
-0.29025
-0.29649
-0.302507
-0.309793
-0.319057
-0.330095
-0.341901
-0.352962
-0.361681
-0.366794
-0.367752
-0.364949
-0.359367
-0.352536
-0.346141
-0.341693
-0.340263
-0.34239
-0.348138
-0.357268
-0.369399
-0.384087
-0.40085
-0.419151
-0.43824
-0.457005
-0.473962
-0.487405
-0.495653
-0.497334
-0.491675
-0.478664
-0.459084
-0.43437
-0.406354
-0.376888
-0.347522
-0.319215
-0.292285
-0.266519
-0.241296
-0.215793
-0.189177
-0.160719
-0.129832
-0.09599
-0.0586395
-0.0171173
0.0294861
0.0824631
0.143741
0.216097
0.301813
0.39529
0.479559
0.533577
0.538057
0.482625
0.371324
0.223261
0.066983
-0.0690735
-0.16945
-0.243056
-0.299249
-0.34064
-0.368483
-0.38456
-0.390825
-0.389581
-0.383463
-0.375139
-0.366951
-0.360626
-0.35704
-0.356091
-0.356705
-0.35701
-0.354645
-0.347139
-0.332378
-0.308885
-0.275917
-0.23251
0
0.625405
1.55654
2.6973
3.84614
4.75449
5.21588
5.14229
4.59156
3.73404
2.77976
1.90646
1.22156
0.764665
0.585251
0.594975
0.606491
0.614465
0.615067
0.606026
0.587205
0.560742
0.530746
0.502475
0.481262
0.470544
0.471327
0.48393
0.507705
0.540937
0.581232
0.625941
0.67252
0.718906
0.763542
0.805394
0.843917
0.879154
0.911807
0.94321
0.975275
1.01033
1.05083
1.09893
1.15605
1.2226
1.29774
1.37956
1.46567
1.55346
1.64048
1.72454
1.80367
1.87582
1.93848
1.98859
2.0234
2.03982
2.03495
2.00686
1.95516
1.88118
1.78787
1.67918
1.55945
1.43342
1.3046
1.17514
1.04651
0.919935
0.796535
0.677522
0.564288
0.458597
0.362149
0.276527
0.202961
0.142123
0.0940216
0.0580002
0.0328484
0.016951
0.00846481
0.00545197
0.0061615
0.0089035
0.0123291
0.0155472
0.0181755
0.0202576
0.0220634
0.0237946
0.0252632
0.0255302
0.0230103
0.0159782
0.00331421
-0.0148666
-0.0369995
-0.0604088
-0.0821274
-0.0998467
-0.112963
-0.122498
-0.130032
-0.137714
-0.147711
-0.161742
-0.18075
-0.204792
-0.233114
-0.264315
-0.296674
-0.328571
-0.358704
-0.386274
-0.411076
-0.43371
-0.455453
-0.477893
-0.50249
-0.530134
-0.560799
-0.593397
-0.625855
-0.655428
-0.679166
-0.694396
-0.699121
-0.69234
-0.674159
-0.645734
-0.609038
-0.566631
-0.521132
-0.474771
-0.429281
-0.385862
-0.345263
-0.308151
-0.275723
-0.250224
-0.234243
-0.230626
-0.241676
-0.267921
-0.307306
-0.35521
-0.405441
-0.451806
-0.489616
-0.518225
-0.5384
-0.550504
-0.555125
-0.552695
-0.543433
-0.52673
-0.501243
-0.466459
-0.425761
-0.387609
-0.362314
-0.359243
-0.38411
-0.437218
-0.513169
-0.602175
-0.692473
-0.772979
-0.837799
-0.682686
0
1.02546
2.2938
3.58471
4.63296
5.2085
5.19067
4.60732
3.62277
2.47819
1.40914
0.576202
0.0385719
-0.214587
-0.206111
-0.195362
-0.184556
-0.174694
-0.166578
-0.160627
-0.156603
-0.153995
-0.152238
-0.150697
-0.148646
-0.145264
-0.139658
-0.130897
-0.118095
-0.100545
-0.07789
-0.0502449
-0.0182503
0.0170319
0.0543655
0.092511
0.130745
0.16918
0.208903
0.251845
0.300402
0.356882
0.422909
0.498935
0.583785
0.675257
0.770252
0.865115
0.956106
1.03983
1.11353
1.17529
1.22401
1.25925
1.28093
1.28899
1.28316
1.26312
1.22864
1.17952
1.11591
1.03878
0.950066
0.852701
0.750278
0.646442
0.544165
0.445372
0.350404
0.257819
0.165245
0.0704094
-0.0278343
-0.128844
-0.230098
-0.327435
-0.41622
-0.492518
-0.554028
-0.600515
-0.633633
-0.656255
-0.671557
-0.68228
-0.690211
-0.695991
-0.699495
-0.700333
-0.698267
-0.693483
-0.686716
-0.679099
-0.671925
-0.666318
-0.662933
-0.6618
-0.662334
-0.663483
-0.663969
-0.662534
-0.658142
-0.650087
-0.638013
-0.621935
-0.60228
-0.579805
-0.555907
-0.533112
-0.514901
-0.504906
-0.506223
-0.520637
-0.548
-0.585996
-0.630354
-0.675524
-0.715665
-0.74604
-0.764304
-0.770389
-0.765745
-0.752558
-0.733165
-0.710385
-0.686866
-0.664096
-0.642038
-0.619165
-0.592935
-0.560615
-0.520267
-0.47139
-0.414496
-0.355021
-0.300396
-0.258082
-0.233722
-0.229917
-0.245974
-0.278515
-0.322617
-0.373051
-0.425043
-0.475655
-0.523123
-0.566364
-0.604677
-0.63751
-0.66428
-0.684336
-0.697099
-0.702344
-0.700521
-0.692311
-0.68002
-0.667071
-0.656677
-0.650843
-0.649634
-0.651011
-0.651309
-0.646221
-0.631973
-0.60693
-0.524781
0
0.811097
1.92264
3.21396
4.43411
5.27121
5.47892
4.99347
3.97325
2.73316
1.60727
0.815639
0.401466
0.262534
0.213704
0.167358
0.124558
0.0878262
0.0595181
0.0411938
0.0333775
0.0355606
0.0464516
0.0644161
0.0879536
0.115841
0.147393
0.18249
0.22117
0.263306
0.308406
0.355557
0.403528
0.450971
0.496653
0.539693
0.579713
0.616922
0.65211
0.686573
0.721966
0.760106
0.802741
0.85132
0.906793
0.969506
1.03918
1.11502
1.19585
1.28035
1.36715
1.45498
1.54263
1.62866
1.71078
1.78511
1.84626
1.88882
1.9075
1.89852
1.86095
1.7972
1.71258
1.6138
1.5071
1.39689
1.28531
1.17312
1.06079
0.949141
0.839637
0.734457
0.636122
0.54704
0.470082
0.407435
0.357636
0.317557
0.283733
0.253582
0.226202
0.202387
0.183904
0.172341
0.168072
0.169091
0.173147
0.177626
0.180341
0.180232
0.177693
0.174422
0.172861
0.175408
0.183487
0.1971
0.215224
0.236095
0.257247
0.27608
0.290452
0.299088
0.301779
0.299338
0.293343
0.285763
0.278555
0.27335
0.27125
0.272834
0.278391
0.288087
0.302036
0.320325
0.342944
0.369656
0.399862
0.4325
0.466095
0.49872
0.528001
0.551551
0.567589
0.575173
0.574414
0.566491
0.553412
0.537558
0.521104
0.50551
0.491192
0.477686
0.463947
0.448825
0.431545
0.41202
0.390883
0.369256
0.348339
0.32897
0.311358
0.295066
0.279176
0.262696
0.244961
0.225918
0.206166
0.186751
0.168764
0.152907
0.139073
0.126459
0.113521
0.0982736
0.0788288
0.0539187
0.0233287
-0.0118631
-0.0492968
-0.0855982
-0.116863
0
0.625019
1.6704
3.02889
4.4742
5.71504
6.47873
6.59822
6.07049
5.05738
3.82331
2.63794
1.69092
1.05686
0.715933
0.688521
0.684944
0.684515
0.686517
0.690327
0.695508
0.701801
0.709043
0.716985
0.725008
0.732173
0.737617
0.741096
0.743478
0.746938
0.75469
0.770257
0.7965
0.834595
0.883026
0.939339
1.00062
1.06389
1.12697
1.18917
1.25143
1.31596
1.38559
1.46274
1.54869
1.6427
1.7426
1.84527
1.94694
2.04366
2.13167
2.20751
2.26862
2.31426
2.3447
2.36101
2.36471
2.35738
2.34023
2.3138
2.27784
2.2316
2.17409
2.1048
2.02432
1.93466
1.83926
1.74251
1.64897
1.5621
1.48397
1.41568
1.35695
1.30635
1.26157
1.2199
1.17866
1.13565
1.08954
1.04006
0.987974
0.935669
0.886842
0.845417
0.814657
0.796441
0.790938
0.796736
0.811361
0.831968
0.855909
0.881078
0.906175
0.930241
0.952479
0.972078
0.988129
0.999615
1.00548
1.00439
0.995525
0.9786
0.954104
0.923462
0.889048
0.853945
0.821467
0.794569
0.775357
0.764649
0.762545
0.768599
0.78225
0.8031
0.830917
0.865379
0.905713
0.950423
0.997184
1.04345
1.08669
1.12483
1.15651
1.18122
1.19901
1.21027
1.21536
1.21426
1.20648
1.19098
1.16667
1.13272
1.08894
1.03612
0.976234
0.912324
0.848162
0.787672
0.734313
0.690016
0.655904
0.631806
0.616336
0.607226
0.601443
0.595172
0.584445
0.565628
0.535834
0.493291
0.435822
0.360948
0.268524
0.168227
0.0788881
0.018788
0
0.0259212
0.0894661
0.734559
1.6965
2.88781
4.16028
5.326
6.19111
6.59941
6.47836
5.86759
4.91342
3.82427
2.80448
1.99438
1.44336
1.13569
1.11572
1.10761
1.10495
1.10762
1.11395
1.12121
1.12641
1.12697
1.1214
1.10966
1.09323
1.07482
1.05789
1.04585
1.04133
1.04592
1.0605
1.08511
1.119
1.16083
1.209
1.26179
1.31782
1.37612
1.43614
1.4977
1.56085
1.62567
1.69202
1.75945
1.82702
1.89344
1.95718
2.01675
2.07091
2.11885
2.16015
2.19468
2.22246
2.24345
2.2573
2.26323
2.26007
2.24633
2.22045
2.181
2.12704
2.05835
1.97563
1.88056
1.77575
1.66456
1.5507
1.43788
1.32944
1.22814
1.13598
1.05413
0.983015
0.922474
0.871896
0.8304
0.796967
0.770525
0.749972
0.734232
0.722277
0.713155
0.706013
0.700138
0.694986
0.690218
0.685762
0.681824
0.678852
0.677438
0.678165
0.681461
0.687493
0.695992
0.706402
0.718027
0.730189
0.742304
0.753845
0.764212
0.772559
0.777712
0.778258
0.772762
0.760124
0.739965
0.712925
0.680764
0.646151
0.612654
0.584049
0.56358
0.55342
0.554374
0.565912
0.586516
0.614235
0.647275
0.684345
0.724791
0.768585
0.816229
0.868226
0.924383
0.982648
1.03802
1.08325
1.11041
1.11238
1.08449
1.02585
0.940162
0.835629
0.723822
0.617613
0.52667
0.453983
0.399343
0.363244
0.344794
0.340019
0.34381
0.351038
0.357347
0.359593
0.355858
0.345151
0.326984
0.301041
0.26753
0.226285
0.176114
0.118734
0.0581876
0
-0.0476738
0.0812138
0.763224
1.85661
3.22761
4.62857
5.77329
6.43253
6.50444
6.03508
5.18787
4.181
3.21644
2.42435
1.84386
1.44849
1.29376
1.23888
1.19233
1.14954
1.10807
1.06577
1.02114
0.973695
0.924696
0.877282
0.836463
0.808
0.796964
0.806909
0.839084
0.891994
0.96142
1.04099
1.12323
1.20096
1.26949
1.32777
1.37614
1.41495
1.44554
1.46996
1.49069
1.51031
1.53131
1.55595
1.58612
1.62331
1.66854
1.72225
1.78425
1.85359
1.92888
2.0079
2.08669
2.16027
2.22361
2.27223
2.30266
2.31257
2.3008
2.26714
2.2122
2.13771
2.04711
1.94397
1.83177
1.71428
1.59553
1.47921
1.36849
1.26598
1.17354
1.09216
1.02193
0.962181
0.911587
0.868512
0.831303
0.798601
0.769558
0.743934
0.722039
0.704535
0.692159
0.685434
0.684467
0.688837
0.697554
0.709125
0.721801
0.734023
0.744743
0.753613
0.760995
0.767804
0.775201
0.784247
0.795598
0.809281
0.82479
0.841329
0.857994
0.873934
0.888493
0.901241
0.911915
0.920311
0.926158
0.929095
0.928731
0.924756
0.91713
0.906246
0.892967
0.878715
0.865314
0.854655
0.848404
0.847786
0.85349
0.865727
0.884376
0.909157
0.939676
0.975467
1.01614
1.06128
1.11029
1.1622
1.2155
1.26783
1.31524
1.35177
1.37125
1.36769
1.33672
1.27713
1.19199
1.08885
0.978593
0.873192
0.782874
0.710169
0.657075
0.621629
0.599234
0.584127
0.570875
0.555465
0.53576
0.511308
0.482705
0.450872
0.416532
0.379827
0.340436
0.297685
0.250691
0.198541
0.142268
0.0871352
0.0402935
0.00919623
0
0.253873
1.09764
2.29724
3.68151
5.02374
6.1003
6.73415
6.8257
6.37851
5.50945
4.42364
3.35039
2.46738
1.85311
1.49356
1.40545
1.3387
1.27819
1.2255
1.18195
1.14822
1.12453
1.11059
1.10559
1.10824
1.11688
1.12972
1.1451
1.16179
1.17914
1.19715
1.21642
1.23795
1.26295
1.29262
1.328
1.3699
1.41886
1.47521
1.53901
1.61021
1.68852
1.77341
1.86397
1.95879
2.05591
2.15251
2.24439
2.32712
2.39685
2.45106
2.48915
2.51249
2.52392
2.52691
2.52439
2.51804
2.50815
2.49347
2.47197
2.44151
2.4003
2.34728
2.28218
2.20549
2.11875
2.02437
1.92464
1.82192
1.71883
1.61809
1.52226
1.43351
1.3534
1.28283
1.22206
1.17081
1.12841
1.09391
1.06609
1.04348
1.02434
1.0064
0.98707
0.963816
0.934555
0.898112
0.854562
0.805339
0.753071
0.70113
0.652963
0.611198
0.577937
0.55423
0.539248
0.530357
0.524358
0.518363
0.510518
0.500365
0.488774
0.477487
0.468439
0.463009
0.461388
0.46295
0.466408
0.469817
0.47093
0.467737
0.458877
0.443916
0.423413
0.398755
0.371767
0.344208
0.317286
0.291363
0.26596
0.240102
0.21288
0.184039
0.154369
0.125726
0.100646
0.0816827
0.070586
0.0679494
0.0733469
0.0845591
0.0987504
0.113316
0.126601
0.138264
0.149219
0.161225
0.176313
0.196178
0.221568
0.252573
0.288947
0.330113
0.375117
0.421606
0.464635
0.497783
0.514365
0.508999
0.479157
0.426095
0.354736
0.272506
0.187529
0.106453
0.0322216
-0.0343343
-0.092641
-0.14262
-0.184662
-0.219401
-0.247541
-0.269852
-0.287197
-0.300508
-0.310784
-0.31905
-0.326287
-0.333338
-0.340811
-0.349012
-0.357906
-0.367119
-0.375945
-0.383487
-0.388766
-0.389756
0
0.778653
1.86014
3.11037
4.33012
5.29442
5.80513
5.75125
5.15656
4.1855
3.09081
2.12016
1.42697
1.03258
0.864324
0.782752
0.706166
0.632867
0.563595
0.498856
0.438954
0.384187
0.33534
0.29407
0.262405
0.242342
0.235814
0.243966
0.266519
0.301505
0.345528
0.394502
0.444637
0.493439
0.540248
0.585455
0.630165
0.675917
0.724255
0.776331
0.83264
0.892943
0.956371
1.02166
1.08748
1.15271
1.21666
1.27917
1.34051
1.4011
1.46126
1.52086
1.57903
1.63393
1.68311
1.72386
1.75371
1.77082
1.77422
1.76369
1.73951
1.70214
1.65192
1.58961
1.516
1.43163
1.33712
1.23351
1.12252
1.00644
0.888091
0.770541
0.65686
0.549812
0.451582
0.363597
0.286501
0.220076
0.163502
0.115726
0.0758142
0.0434266
0.0187379
0.00227957
-0.00522804
-0.00330162
0.00788822
0.0277195
0.0542175
0.0840495
0.113417
0.138696
0.157036
0.166793
0.167724
0.160907
0.148412
0.132788
0.116486
0.101282
0.0880507
0.0767314
0.0666212
0.0568788
0.047069
0.0375535
0.0295759
0.0249972
0.0257536
0.033076
0.0476542
0.0690209
0.0937711
0.116541
0.131675
0.134551
0.122584
0.0956232
0.0556916
0.0062295
-0.0488359
-0.105719
-0.161707
-0.215018
-0.263666
-0.305318
-0.337411
-0.357677
-0.36413
-0.355579
-0.332155
-0.29564
-0.249446
-0.198198
-0.146984
-0.100355
-0.0609631
-0.0302428
-0.00847349
0.00523739
0.0125449
0.015379
0.0155374
0.0145024
0.0134306
0.01344
0.0159172
0.0227272
0.0361941
0.0587951
0.0959745
0.155999
0.240275
0.334508
0.419351
0.476572
0.494354
0.469822
0.408544
0.321994
0.224252
0.12882
0.0437903
-0.0289774
-0.0901094
-0.140561
-0.180891
-0.211263
-0.232013
-0.243723
-0.24715
-0.243744
-0.236654
-0.23066
-0.230993
-0.242419
-0.268249
-0.309525
-0.364639
-0.430533
-0.50056
-0.567302
-0.624096
-0.666322
-0.611567
0
0.961374
2.18058
3.46011
4.5415
5.18652
5.26441
4.80256
3.97159
3.01015
2.13008
1.45127
0.994302
0.720706
0.628102
0.558159
0.493197
0.432145
0.375301
0.32306
0.275949
0.23467
0.200109
0.173266
0.155072
0.146251
0.147271
0.158281
0.179086
0.209189
0.247856
0.294204
0.347275
0.405977
0.469105
0.535454
0.603805
0.672928
0.741714
0.809415
0.875845
0.941499
1.00751
1.07549
1.14717
1.22409
1.30715
1.39639
1.49088
1.58869
1.68687
1.78084
1.86548
1.93598
1.98853
2.02076
2.03189
2.02246
1.99382
1.94757
1.88546
1.81005
1.72332
1.62673
1.52175
1.41011
1.29389
1.17543
1.05708
0.941155
0.829749
0.724618
0.627079
0.537911
0.457298
0.384846
0.319682
0.26053
0.206076
0.155329
0.108183
0.0653267
0.028104
-0.00164099
-0.0221669
-0.0323953
-0.0322365
-0.0225921
-0.00508585
0.0183229
0.0455035
0.0745704
0.104122
0.132967
0.16001
0.184272
0.204931
0.221386
0.233293
0.240554
0.243255
0.241588
0.23575
0.22587
0.211955
0.193878
0.171409
0.144286
0.112338
0.0756786
0.0348149
-0.00918808
-0.0546568
-0.099365
-0.140702
-0.17595
-0.202693
-0.219257
-0.224978
-0.220389
-0.2062
-0.184875
-0.160793
-0.138293
-0.120727
-0.109762
-0.105151
-0.105057
-0.106803
-0.107773
-0.106218
-0.101808
-0.0949031
-0.0860574
-0.0758894
-0.0648483
-0.0530614
-0.0403222
-0.0262091
-0.0102809
0.00771704
0.0277668
0.0494796
0.0720799
0.094734
0.116815
0.138084
0.158688
0.178966
0.199084
0.218574
0.235819
0.248144
0.252353
0.245627
0.22645
0.1952
0.154204
0.107209
0.0584267
0.0114464
-0.0318252
-0.0710933
-0.106592
-0.138957
-0.16875
-0.196018
-0.220095
-0.239698
-0.253322
-0.259472
-0.256501
-0.244893
-0.229533
-0.21744
-0.21562
-0.228995
-0.258928
-0.302836
-0.355027
-0.408417
-0.456549
-0.465201
0
0.805083
1.91067
3.17991
4.39001
5.28594
5.66047
5.4294
4.66642
3.57727
2.42394
1.43533
0.743681
0.369443
0.268791
0.275283
0.282316
0.288444
0.292786
0.294872
0.294619
0.292242
0.288162
0.282939
0.277271
0.272003
0.268199
0.267186
0.270355
0.278991
0.294038
0.315903
0.344411
0.378934
0.418675
0.462991
0.511585
0.564652
0.622813
0.686799
0.75714
0.83386
0.916311
1.00327
1.09299
1.18334
1.272
1.35653
1.43439
1.50354
1.56257
1.61084
1.64849
1.67641
1.696
1.70874
1.71589
1.71794
1.71481
1.70574
1.68959
1.6651
1.63117
1.58699
1.53199
1.46582
1.38855
1.3011
1.20438
1.09959
0.988487
0.873318
0.756597
0.640817
0.528219
0.420689
0.3198
0.226989
0.144145
0.0735784
0.0171178
-0.0236187
-0.0476621
-0.055123
-0.0474623
-0.0270865
0.00195923
0.0349162
0.0669621
0.093567
0.11122
0.117948
0.113424
0.0989799
0.0774324
0.0526693
0.0289988
0.0103352
-0.000605011
-0.00335598
0.00108614
0.0104184
0.0214047
0.0305574
0.0348002
0.0319715
0.0210945
0.00241327
-0.0227668
-0.0522773
-0.0836619
-0.114591
-0.143085
-0.167735
-0.187781
-0.202899
-0.213152
-0.218815
-0.220225
-0.217696
-0.211526
-0.202053
-0.189622
-0.17481
-0.158235
-0.140429
-0.121704
-0.10208
-0.0813072
-0.0589717
-0.0346271
-0.00790539
0.0213649
0.0532768
0.0878559
0.125014
0.164479
0.205491
0.246164
0.282777
0.310461
0.32406
0.319436
0.294782
0.251492
0.194234
0.130108
0.0671007
0.0122308
-0.0314937
-0.0642737
-0.0863182
-0.0984302
-0.101992
-0.0985619
-0.0896256
-0.0765562
-0.0606498
-0.0435635
-0.0280257
-0.0176672
-0.016507
-0.0281841
-0.0550537
-0.0974621
-0.153476
-0.219973
-0.291449
-0.362482
-0.429076
-0.47574
0
0.854327
2.05317
3.44667
4.78829
5.79892
6.25461
6.06233
5.29095
4.14673
2.90516
1.8243
1.07147
0.683108
0.577446
0.554354
0.538526
0.528962
0.527791
0.536077
0.553486
0.578701
0.608713
0.640186
0.67041
0.698006
0.723137
0.74716
0.771918
0.79901
0.829074
0.862016
0.897698
0.936062
0.977276
1.02181
1.07035
1.12357
1.18188
1.24516
1.31273
1.38338
1.45548
1.52729
1.59725
1.66421
1.72763
1.7877
1.84524
1.90167
1.95868
2.01809
2.08158
2.15082
2.22737
2.31154
2.40003
2.48419
2.55239
2.59262
2.5947
2.55242
2.46516
2.33866
2.18437
2.01709
1.85146
1.69605
1.55211
1.41881
1.29652
1.18547
1.08554
0.996491
0.918006
0.849635
0.790719
0.740311
0.697171
0.65987
0.62699
0.597369
0.570351
0.545919
0.524727
0.507871
0.496625
0.49206
0.49469
0.50426
0.519712
0.539321
0.560936
0.582277
0.601282
0.616126
0.62553
0.628859
0.626204
0.618396
0.606884
0.593468
0.579894
0.567452
0.556722
0.547134
0.537266
0.52547
0.510605
0.492625
0.472828
0.453639
0.438023
0.428713
0.426973
0.43261
0.444954
0.462523
0.483284
0.505064
0.526073
0.545195
0.562066
0.576936
0.590377
0.602904
0.614759
0.625849
0.635899
0.644891
0.653517
0.663416
0.677061
0.697277
0.726533
0.766084
0.817386
0.879947
0.947681
1.00934
1.05334
1.0705
1.05624
1.01158
0.942694
0.858967
0.770494
0.685725
0.608399
0.538896
0.477337
0.424292
0.380331
0.345775
0.320619
0.304424
0.296209
0.294264
0.295728
0.296275
0.290896
0.274916
0.244909
0.199529
0.139705
0.0694327
-0.00506477
-0.0763123
0
0.6481
1.71868
3.07479
4.48414
5.67707
6.41398
6.54871
6.07381
5.12827
3.95509
2.82051
1.92893
1.37064
1.12258
1.10963
1.09615
1.08246
1.0686
1.05489
1.04195
1.03066
1.02198
1.01679
1.01575
1.01926
1.02746
1.04025
1.05741
1.07856
1.10335
1.13144
1.16257
1.19657
1.23348
1.27343
1.31667
1.36333
1.41335
1.46636
1.52174
1.57875
1.63681
1.69578
1.75612
1.81893
1.88581
1.95853
2.03868
2.12721
2.22413
2.32882
2.4398
2.55344
2.6627
2.7589
2.8339
2.88128
2.89727
2.88115
2.835
2.76292
2.67006
2.56152
2.4428
2.31802
2.18962
2.0591
1.92761
1.7964
1.66706
1.54156
1.42224
1.31158
1.2119
1.12545
1.0539
0.996819
0.952698
0.919311
0.894229
0.875248
0.860634
0.849141
0.839885
0.832157
0.825257
0.818609
0.811737
0.804358
0.796465
0.788356
0.780622
0.774038
0.769436
0.767611
0.769129
0.774227
0.782591
0.793164
0.804047
0.812694
0.816472
0.813231
0.80183
0.782492
0.756877
0.727802
0.698663
0.672682
0.652018
0.637309
0.628322
0.623165
0.618894
0.612518
0.601814
0.585907
0.565444
0.54235
0.519251
0.498778
0.48282
0.472053
0.46647
0.466031
0.470593
0.480147
0.494964
0.515609
0.542949
0.578391
0.623812
0.678602
0.734241
0.777386
0.794203
0.774845
0.717154
0.627972
0.521266
0.413655
0.319185
0.241325
0.176084
0.1208
0.0741417
0.0344603
0.000139236
-0.0302094
-0.0576474
-0.0830314
-0.107016
-0.130113
-0.15275
-0.175323
-0.198263
-0.222062
-0.247263
-0.274327
-0.303722
-0.335394
-0.368793
-0.402859
-0.435874
0
0.84682
2.02675
3.36658
4.62568
5.54919
5.93982
5.7288
5.00621
3.98451
2.90927
1.96733
1.24446
0.744332
0.467432
0.367316
0.274671
0.186309
0.103554
0.0280905
-0.0383527
-0.0938808
-0.136788
-0.165966
-0.181244
-0.183567
-0.174953
-0.158233
-0.136742
-0.113606
-0.0910284
-0.0702228
-0.051432
-0.0339052
-0.0160828
0.00404687
0.0284954
0.0588324
0.0958569
0.139396
0.188575
0.242081
0.298442
0.356327
0.414743
0.473093
0.531103
0.588669
0.645706
0.702043
0.757376
0.811292
0.863254
0.912421
0.957011
0.993232
1.01609
1.0199
0.99916
0.950884
0.876587
0.782769
0.679295
0.576167
0.480056
0.390489
0.303953
0.217525
0.128171
0.0336981
-0.0664805
-0.171003
-0.276766
-0.379349
-0.474136
-0.55734
-0.626786
-0.6822
-0.724971
-0.757458
-0.782095
-0.800671
-0.813815
-0.820818
-0.820158
-0.810102
-0.789355
-0.757879
-0.716801
-0.668062
-0.614215
-0.558197
-0.502977
-0.451221
-0.405095
-0.366078
-0.334953
-0.311871
-0.296491
-0.288178
-0.286297
-0.290402
-0.300056
-0.314824
-0.334183
-0.357277
-0.382708
-0.408471
-0.432084
-0.450899
-0.462509
-0.465299
-0.458721
-0.443071
-0.419291
-0.388838
-0.353479
-0.315036
-0.275209
-0.235458
-0.19697
-0.160653
-0.127111
-0.096611
-0.0690308
-0.0438305
-0.0200897
0.00335121
0.0276577
0.0537113
0.0818337
0.111618
0.141956
0.171038
0.196843
0.217676
0.232611
0.241704
0.245898
0.246664
0.245505
0.243486
0.240991
0.237769
0.233193
0.226621
0.21771
0.206608
0.193933
0.180567
0.167321
0.154622
0.141967
0.12739
0.108008
0.0810467
0.0449253
0
-0.05131
-0.104995
-0.156242
-0.200127
0.304001
1.39122
2.85696
4.45033
5.87452
6.88696
7.35862
7.27668
6.71347
5.79621
4.69014
3.58094
2.63841
1.96905
1.58562
1.50254
1.4585
1.42472
1.40246
1.3916
1.39081
1.39794
1.41046
1.42619
1.44364
1.462
1.48091
1.50005
1.51887
1.53637
1.55114
1.56186
1.56778
1.56934
1.56844
1.56848
1.57391
1.58958
1.61988
1.66706
1.73163
1.81327
1.91036
2.01993
2.1379
2.25957
2.38009
2.49511
266
419
577
747
932
1138
1333
1519
1691
1856
2018
2176
2334
2498
2674
2859
3042
3213
3382
3546
3708
3737
3714
0
0
0
0
0
0
0
0
0
0
0
0
0
0
0
0
0
0
0
0
0
0
0
0
0
0
0
0
0
0
0
0
0
0
0
0
0
0
0
0
0
0
0
0
0
0
0
0
0
0
0
0
0
0
0
0
0
0
0
0
0
0
0
0
0
0
0
0
0
0
0
0
0
0
0
0
0
0
0
0
0
0
0
0
0
0
0
0
0
0
0
0
0
0
0
0
0
0
0
0
0
0
0
0
0
0
0
0
0
0
0
0
0
0
0
0
0
0
0
0
0
0
0
0
0
0
0
0
0
0
0
0
0
0
0
0
0
0
0
0
0
0
0
0
0
0
0
0
0
0
0
0
0
0
0
0
0
0
0
0
0
0
0
0
0
0
0
0
0
0
0
0
0
0
0
0
0
0
0
0
0
0
0
0
0
0
0
0
0
0
0
0
0
0
0
0
0
0
0
0
0
0
0
0
0
0
0
0
0
0
0
0
0
0
0
0
0
0
0
0
0
0
0
0
0
0
0
0
0
0
0
0
0
0
0
0
0
0
0
0
0
0
0
0
0
0
0
0
0
0
0
0
0
0
0
0
0
0
0
0
0
0
0
0
0
0
0
0
0
0
0
0
0
0
0
0
0
0
0
0
0
0
0
0
0
0
0
0
0
0
0
0
0
0
0
0
0
0
0
0
0
0
0
0
0
0
0
0
0
0
0
0
0
0
0
0
0
0
0
0
0
0
0
0
0
0
0
0
0
0
0
0
0
0
0
0
0
0
0
0
0
0
0
0
0
0
0
0
0
0
0
0
0
0
0
0
0
0
0
0
0
0
0
0
0
0
0
0
0
0
0
0
0
0
0
0
0
0
0
0
0
0
0
0
0
0
0
0
0
0
0
0
0
0
0
0
0
0
0
0
0
0
0
0
0
0
0
0
0
0
0
0
0
0
0
0
0
0
0
0
0
0
0
0
0
0
0
0
0
0
0
0
0
0
0
0
0
0
0
0
0
0
0
0
0
0
0
0
0
0
0
0
0
0
0
0
0
0
0
0
0
0
0
0
0
0
0
0
0
0
0
0
0
0
0
0
0
0
0
0
0
0
0
0
0
0
0
0
0
0
0
0
0
0
0
0
0
0
0
0
0
0
0
0
0
0
0
0
0
0
0
0
0
0
0
0
0
0
0
0
0
0
0
0
0
0
0
0
0
0
0
0
0
0
0
0
0
0
0
0
0
0
0
0
0
0
0
0
0
0
0
0
0
0
0
0
0
0
0
0
0
0
0
0
0
0
0
0
0
0
0
0
0
0
0
0
0
0
0
0
0
0
0
0
0
0
0
0
0
0
0
0
0
0
0
0
0
0
0
0
0
0
0
0
0
0
0
0
0
0
0
0
0
0
0
0
0
0
0
0
0
0
0
0
0
0
0
0
0
0
0
0
0
0
0
0
0
0
0
0
0
0
0
0
0
0
0
0
0
0
0
0
0
0
0
0
0
0
0
0
0
0
0
0
0
0
0
0
0
0
0
0
0
0
0
0
0
0
0
0
0
0
0
0
0
0
0
0
0
0
0
0
0
0
0
0
0
0
0
0
0
0
0
0
0
0
0
0
0
0
0
0
0
0
0
0
0
0
0
0
0
0
0
0
0
0
0
0
0
0
0
0
0
0
0
0
0
0
0
0
0
0
0
0
0
0
0
0
0
0
0
0
0
0
0
0
0
0
0
0
0
0
0
0
0
0
0
0
0
0
0
0
0
0
0
0
0
0
0
0
0
0
0
0
0
0
0
0
0
0
0
0
0
0
0
0
0
0
0
0
0
0
0
0
0
0
0
0
0
0
0
0
0
0
0
0
0
0
0
0
0
0
0
0
0
0
0
0
0
0
0
0
0
0
0
0
0
0
0
0
0
0
0
0
0
0
0
0
0
0
0
0
0
0
0
0
0
0
0
0
0
0
0
0
0
0
0
0
0
0
0
0
0
0
0
0
0
0
0
0
0
0
0
0
0
0
0
0
0
0
0
0
0
0
0
0
0
0
0
0
0
0
0
0
0
0
0
0
0
0
0
0
0
0
0
0
0
0
0
0
0
0
0
0
0
0
0
0
0
0
0
0
0
0
0
0
0
0
0
0
0
0
0
0
0
0
0
0
0
0
0
0
0
0
0
0
0
0
0
0
0
0
0
0
0
0
0
0
0
0
0
0
0
0
0
0
0
0
0
0
0
0
0
0
0
0
0
0
0
0
0
0
0
0
0
0
0
0
0
0
0
0
0
0
0
0
0
0
0
0
0
0
0
0
0
0
0
0
0
0
0
0
0
0
0
0
0
0
0
0
0
0
0
0
0
0
0
0
0
0
0
0
0
0
0
0
0
0
0
0
0
0
0
0
0
0
0
0
0
0
0
0
0
0
0
0
0
0
0
0
0
0
0
0
0
0
0
0
0
0
0
0
0
0
0
0
0
0
0
0
0
0
0
0
0
0
0
0
0
0
0
0
0
0
0
0
0
0
0
0
0
0
0
0
0
0
0
0
0
0
0
0
0
0
0
0
0
0
0
0
0
0
0
0
0
0
0
0
0
0
0
0
0
0
0
0
0
0
0
0
0
0
0
0
0
0
0
0
0
0
0
0
0
0
0
0
0
0
0
0
0
0
0
0
0
0
0
0
0
0
0
0
0
0
0
0
0
0
0
0
0
0
0
0
0
0
0
0
0
0
0
0
0
0
0
0
0
0
0
0
0
0
0
0
0
0
0
0
0
0
0
0
0
0
0
0
0
0
0
0
0
0
0
0
0
0
0
0
0
0
0
0
0
0
0
0
0
0
0
0
0
0
0
0
0
0
0
0
0
0
0
0
0
0
0
0
0
0
0
0
0
0
0
0
0
0
0
0
0
0
0
0
0
0
0
0
0
0
0
0
0
0
0
0
0
0
0
0
0
0
0
0
0
0
0
0
0
0
0
0
0
0
0
0
0
0
0
0
0
0
0
0
0
0
0
0
0
0
0
0
0
0
0
0
0
0
0
0
0
0
0
0
0
0
0
0
0
0
0
0
0
0
0
0
0
0
0
0
0
0
0
0
0
0
0
0
0
0
0
0
0
0
0
0
0
0
0
0
0
0
0
0
0
0
0
0
0
0
0
0
0
0
0
0
0
0
0
0
0
0
0
0
0
0
0
0
0
0
0
0
0
0
0
0
0
0
0
0
0
0
0
0
0
0
0
0
0
0
0
0
0
0
0
0
0
0
0
0
0
0
0
0
0
0
0
0
0
0
0
0
0
0
0
0
0
0
0
0
0
0
0
0
0
0
0
0
0
0
0
0
0
0
0
0
0
0
0
0
0
0
0
0
0
0
0
0
0
0
0
0
0
0
0
0
0
0
0
0
0
0
0
0
0
0
0
0
0
0
0
0
0
0
0
0
0
0
0
0
0
0
0
0
0
0
0
0
0
0
0
0
0
0
0
0
0
0
0
0
0
0
0
0
0
0
0
0
0
0
0
0
0
0
0
0
0
0
0
0
0
0
0
0
0
0
0
0
0
0
0
0
0
0
0
0
0
0
0
0
0
0
0
0
0
0
0
0
0
0
0
0
0
0
0
0
0
0
0
0
0
0
0
0
0
0
0
0
0
0
0
0
0
0
0
0
0
0
0
0
0
0
0
0
0
0
0
0
0
0
0
0
0
0
0
0
0
0
0
0
0
0
0
0
0
0
0
0
0
0
0
0
0
0
0
0
0
0
0
0
0
0
0
0
0
0
0
0
0
0
0
0
0
0
0
0
0
0
0
0
0
0
0
0
0
0
0
0
0
0
0
0
0
0
0
0
0
0
0
0
0
0
0
0
0
0
0
0
0
0
0
0
0
0
0
0
0
0
0
0
0
0
0
0
0
0
0
0
0
0
0
0
0
0
0
0
0
0
0
0
0
0
0
0
0
0
0
0
0
0
0
0
0
0
0
0
0
0
0
0
0
0
0
0
0
0
0
0
0
0
0
0
0
0
0
0
0
0
0
0
0
0
0
0
0
0
0
0
0
0
0
0
0
0
0
0
0
0
0
0
0
0
0
0
0
0
0
0
0
0
0
0
0
0
0
0
0
0
0
0
0
0
0
0
0
0
0
0
0
0
0
0
0
0
0
0
0
0
0
0
0
0
0
0
0
0
0
0
0
0
0
0
0
0
0
0
0
0
0
0
0
0
0
0
0
0
0
0
0
0
0
0
0
0
0
0
0
0
0
0
0
0
0
0
0
0
0
0
0
0
0
0
0
0
0
0
0
0
0
0
0
0
0
0
0
0
0
0
0
0
0
0
0
0
0
0
0
0
0
0
0
0
0
0
0
0
0
0
0
0
0
0
0
0
0
0
0
0
0
0
0
0
0
0
0
0
0
0
0
0
0
0
0
0
0
0
0
0
0
0
0
0
0
0
0
0
0
0
0
0
0
0
0
0
0
0
0
0
0
0
0
0
0
0
0
0
0
0
0
0
0
0
0
0
0
0
0
0
0
0
0
0
0
0
0
0
0
0
0
0
0
0
0
0
0
0
0
0
0
0
0
0
0
0
0
0
0
0
0
0
0
0
0
0
0
0
0
0
0
0
0
0
0
0
0
0
0
0
0
0
0
0
0
0
0
0
0
0
0
0
0
0
0
0
0
0
0
0
0
0
0
0
0
0
0
0
0
0
0
0
0
0
0
0
0
0
0
0
0
0
0
0
0
0
0
0
0
0
0
0
0
0
0
0
0
0
0
0
0
0
0
0
0
0
0
0
0
0
0
0
0
0
0
0
0
0
0
0
0
0
0
0
0
0
0
0
0
0
0
0
0
0
0
0
0
0
0
0
0
0
0
0
0
0
0
0
0
0
0
0
0
0
0
0
0
0
0
0
0
0
0
0
0
0
0
0
0
0
0
0
0
0
0
0
0
0
0
0
0
0
0
0
0
0
0
0
0
0
0
0
0
0
0
0
0
0
0
0
0
0
0
0
0
0
0
0
0
0
0
0
0
0
0
0
0
0
0
0
0
0
0
0
0
0
0
0
0
0
0
0
0
0
0
0
0
0
0
0
0
0
0
0
0
0
0
0
0
0
0
0
0
0
0
0
0
0
0
0
0
0
0
0
0
0
0
0
0
0
0
0
0
0
0
0
0
0
0
0
0
0
0
0
0
0
0
0
0
0
0
0
0
0
0
0
0
0
0
0
0
0
0
0
0
0
0
0
0
0
0
0
0
0
0
0
0
0
0
0
0
0
0
0
0
0
0
0
0
0
0
0
0
0
0
0
0
0
0
0
0
0
0
0
0
0
0
0
0
0
0
0
0
0
0
0
0
0
0
0
0
0
0
0
0
0
0
0
0
0
0
0
0
0
0
0
0
0
0
0
0
0
0
0
0
0
0
0
0
0
0
0
0
0
0
0
0
0
0
0
0
0
0
0
0
0
0
0
0
0
0
0
0
0
0
0
0
0
0
0
0
0
0
0
0
0
0
0
0
0
0
0
0
0
0
0
0
0
0
0
0
0
0
0
0
0
0
0
0
0
0
0
0
0
0
0
0
0
0
0
0
0
0
0
0
0
0
0
0
0
0
0
0
0
0
0
0
0
0
0
0
0
0
0
0
0
0
0
0
0
0
0
0
0
0
0
0
0
0
0
0
0
0
0
0
0
0
0
0
0
0
0
0
0
0
0
0
0
0
0
0
0
0
0
0
0
0
0
0
0
0
0
0
0
0
0
0
0
0
0
0
0
0
0
0
0
0
0
0
0
0
0
0
0
0
0
0
0
0
0
0
0
0
0
0
0
0
0
0
0
0
0
0
0
0
0
0
0
0
0
0
0
0
0
0
0
0
0
0
0
0
0
0
0
0
0
0
0
0
0
0
0
0
0
0
0
0
0
0
0
0
0
0
0
0
0
0
0
0
0
0
0
0
0
0
0
0
0
0
0
0
0
0
0
0
0
0
0
0
0
0
0
0
0
0
0
0
0
0
0
0
0
0
0
0
0
0
0
0
0
0
0
0
0
0
0
0
0
0
0
0
0
0
0
0
0
0
0
0
0
0
0
0
0
0
0
0
0
0
0
0
0
0
0
0
0
0
0
0
0
0
0
0
0
0
0
0
0
0
0
0
0
0
0
0
0
0
0
0
0
0
0
0
0
0
0
0
0
0
0
0
0
0
0
0
0
0
0
0
0
0
0
0
0
0
0
0
0
0
0
0
0
0
0
0
0
0
0
0
0
0
0
0
0
0
0
0
0
0
0
0
0
0
0
0
0
0
0
0
0
0
0
0
0
0
0
0
0
0
0
0
0
0
0
0
0
0
0
0
0
0
0
0
0
0
0
0
0
0
0
0
0
0
0
0
0
0
0
0
0
0
0
0
0
0
0
0
0
0
0
0
0
0
0
0
0
0
0
0
0
0
0
0
0
0
0
0
0
0
0
0
0
0
0
0
0
0
0
0
0
0
0
0
0
0
0
0
0
0
0
0
0
0
0
0
0
0
0
0
0
0
0
0
0
0
0
0
0
0
0
0
0
0
0
0
0
0
0
0
0
0
0
0
0
0
0
0
0
0
0
0
0
0
0
0
0
0
0
0
0
0
0
0
0
0
0
0
0
0
0
0
0
0
0
0
0
0
0
0
0
0
0
0
0
0
0
0
0
0
0
0
0
0
0
0
0
0
0
0
0
0
0
0
0
0
0
0
0
0
0
0
0
0
0
0
0
0
0
0
0
0
0
0
0
0
0
0
0
0
0
0
0
0
0
0
0
0
0
0
0
0
0
0
0
0
0
0
0
0
0
0
0
0
0
0
0
0
0
0
0
0
0
0
0
0
0
0
0
0
0
0
0
0
0
0
0
0
0
0
0
0
0
0
0
0
0
0
0
0
0
0
0
0
0
0
0
0
0
0
0
0
0
0
0
0
0
0
0
0
0
0
0
0
0
0
0
0
0
0
0
0
0
0
0
0
0
0
0
0
0
0
0
0
0
0
0
0
0
0
0
0
0
0
0
0
0
0
0
0
0
0
0
0
0
0
0
0
0
0
0
0
0
0
0
0
0
0
0
0
0
0
0
0
0
0
0
0
0
0
0
0
0
0
0
0
0
0
0
0
0
0
0
0
0
0
0
0
0
0
0
0
0
0
0
0
0
0
0
0
0
0
0
0
0
0
0
0
0
0
0
0
0
0
0
0
0
0
0
0
0
0
0
0
0
0
0
0
0
0
0
0
0
0
0
0
0
0
0
0
0
0
0
0
0
0
0
0
0
0
0
0
0
0
0
0
0
0
0
0
0
0
0
0
0
0
0
0
0
0
0
0
0
0
0
0
0
0
0
0
0
0
0
0
0
0
0
0
0
0
0
0
0
0
0
0
0
0
0
0
0
0
0
0
0
0
0
0
0
0
0
0
0
0
0
0
0
0
0
0
0
0
0
0
0
0
0
0
0
0
0
0
0
0
0
0
0
0
0
0
0
0
0
0
0
0
0
0
0
0
0
0
0
0
0
0
0
0
0
0
0
0
0
0
0
0
0
0
0
0
0
0
0
0
0
0
0
0
0
0
0
0
0
0
0
0
0
0
0
0
0
0
0
0
0
0
0
0
0
0
0
0
0
0
0
0
0
0
0
0
0
0
0
0
0
0
0
0
0
0
0
0
0
0
0
0
0
0
0
0
0
0
0
0
0
0
0
0
0
0
0
0
0
0
0
0
0
0
0
0
0
0
0
0
0
0
0
0
0
0
0
0
0
0
0
0
0
0
0
0
0
0
0
0
0
0
0
0
0
0
0
0
0
0
0
0
0
0
0
0
0
0
0
0
0
0
0
0
0
0
0
0
0
0
0
0
0
0
0
0
0
0
0
0
0
0
0
0
0
0
0
0
0
0
0
0
0
0
0
0
0
0
0
0
0
0
0
0
0
0
0
0
0
0
0
0
0
0
0
0
0
0
0
0
0
0
0
0
0
0
0
0
0
0
0
0
0
0
0
0
0
0
0
0
0
0
0
0
0
0
0
0
0
0
0
0
0
0
0
0
0
0
0
0
0
0
0
0
0
0
0
0
0
0
0
0
0
0
0
0
0
0
0
0
0
0
0
0
0
0
0
0
0
0
0
0
0
0
0
0
0
0
0
0
0
0
0
0
0
0
0
0
0
0
0
0
0
0
0
0
0
0
0
0
0
0
0
0
0
0
0
0
0
0
0
0
0
0
0
0
0
0
0
0
0
0
0
0
0
0
0
0
0
0
0
0
0
0
0
0
0
0
0
0
0
0
0
0
0
0
0
0
0
0
0
0
0
0
0
0
0
0
0
0
0
0
0
0
0
0
0
0
0
0
0
0
0
0
0
0
0
0
0
0
0
0
0
0
0
0
0
0
0
0
0
0
0
0
0
0
0
0
0
0
0
