1.69656
1.66499
1.62654
1.59283
1.57185
1.56439
1.56528
1.5711
1.57909
1.58781
1.59743
1.60917
1.62437
1.64332
1.66502
1.6867
1.70493
1.71697
1.72196
1.72148
1.71935
1.72057
1.72982
1.7496
1.77915
1.81699
1.85902
1.89983
1.93426
1.95865
1.97172
1.97476
1.97111
1.9652
1.96122
1.9618
1.96751
1.9773
1.98768
1.99428
1.99367
1.98492
1.97037
1.95539
1.94693
1.95735
1.9975
2.05298
2.09526
2.0944
2.03361
1.91741
1.76906
1.61978
1.4963
1.4049
1.33514
1.28224
1.24437
1.21887
1.20201
1.187
1.16415
1.1231
1.05468
0.946082
0.790102
0.595336
0.120734
0
0.877696
3.05463
6.2812
9.70696
12.1834
12.8074
11.3927
8.56214
5.39506
2.86085
1.40163
0.888602
0.896041
0.985979
1.01136
1.03006
1.04218
1.0473
1.04534
1.0365
1.02117
1.0003
0.975519
0.949359
0.925825
0.910242
0.908244
0.924484
0.96125
1.0175
1.08867
1.16776
1.24613
1.31606
1.37258
1.41453
1.44464
1.46858
1.49318
1.52452
1.56595
1.61752
1.67724
1.74006
1.80056
1.8549
1.90222
1.94505
1.98845
2.03841
2.09993
2.17496
2.26178
2.35723
2.45787
2.55999
2.6601
2.75517
2.84242
2.91977
2.98542
3.03745
3.0736
3.09073
3.08569
3.0559
2.99954
2.91609
2.80677
2.67473
2.52493
2.36356
2.19731
2.03242
1.87344
1.72382
1.5859
1.46089
1.34896
1.24937
1.16082
1.08154
1.00862
0.939062
0.870721
0.803021
0.737441
0.677463
0.62789
0.594651
0.586185
0.608653
0.660046
0.726171
0.785828
0.819397
0.814079
0.767031
0.685834
0.58619
0.487434
0.407474
0.356699
0.33359
0.333494
0.355292
0.399494
0.465651
0.551904
0.658638
0.781212
0.904801
1.01282
1.09084
1.13013
1.12925
1.09338
1.03193
0.955808
0.875611
0.799556
0.735589
0.69028
0.668484
0.672106
0.699062
0.743219
0.795676
0.84707
0.890071
0.922788
0.945105
0.959246
0.968681
0.976947
0.986598
0.998848
1.01411
1.03221
1.05243
1.07379
1.09566
1.11815
1.14226
1.16975
1.20261
1.24234
1.28969
1.34361
1.39922
1.44958
1.48716
1.50544
1.50015
1.47006
1.4172
1.34682
1.26705
1.18821
1.11979
1.08269
1.13262
1.28468
1.48318
1.64528
1.70212
1.63172
1.46491
1.26543
1.09916
1.00665
0.959669
0.926937
0.893831
0.847117
0.774645
0.667343
0.51087
0.307949
0.0691059
-0.189234
0
1.11281
3.39828
6.66264
10.1519
12.7726
13.6028
12.3996
9.75318
6.75697
4.402
3.09867
2.61968
2.43264
2.14553
1.9303
1.73204
1.55436
1.40135
1.27535
1.17867
1.11338
1.07861
1.07308
1.09489
1.14163
1.21195
1.29849
1.38993
1.47439
1.54173
1.58566
1.60491
1.60343
1.58944
1.57351
1.56604
1.57467
1.60217
1.64586
1.7013
1.7644
1.8316
1.90089
1.97214
2.04663
2.12629
2.21285
2.30676
2.40782
2.51572
2.62951
2.74758
2.86762
2.98554
3.09607
3.19396
3.27527
3.3385
3.38487
3.41785
3.44176
3.46024
3.47528
3.48672
3.49246
3.48918
3.47297
3.43995
3.38674
3.3109
3.21131
3.08909
2.94702
2.78855
2.61803
2.44041
2.26065
2.08318
1.91171
1.74923
1.5982
1.46077
1.33898
1.23457
1.14898
1.08321
1.03668
1.00754
0.992696
0.988586
0.991013
0.995062
0.996612
0.993131
0.984023
0.970547
0.955269
0.941152
0.930506
0.924254
0.921282
0.9188
0.91317
0.901053
0.88052
0.851859
0.81791
0.78385
0.756232
0.741323
0.745611
0.784453
0.872047
0.988205
1.09967
1.17283
1.18675
1.14093
1.05407
0.954618
0.868417
0.810622
0.775172
0.75498
0.750458
0.762598
0.792542
0.8456
0.924026
1.01812
1.1121
1.18863
1.23352
1.23932
1.20644
1.14222
1.0588
0.970697
0.891641
0.830789
0.792745
0.778811
0.788653
0.824553
0.887448
0.974483
1.07725
1.18064
1.2668
1.31984
1.32841
1.28788
1.20189
1.08255
0.948756
0.822893
0.776048
1.03261
1.50215
1.99751
2.31675
2.32978
2.03668
1.55903
1.07222
0.726487
0.610436
0.594947
0.614805
0.655964
0.729115
0.856001
1.02966
1.20392
1.31683
1.31436
1.17829
0.93977
0.666992
0.43241
0.279018
0.17488
0.0874515
0.00692863
-0.102167
0
0.894717
2.93154
6.01866
9.50912
12.3794
13.6627
12.9192
10.463
7.19584
4.14957
2.02808
1.00411
0.823608
1.06573
1.04787
1.01849
0.978581
0.929599
0.877019
0.828716
0.792799
0.774124
0.775051
0.796912
0.839088
0.899243
0.972798
1.05641
1.14279
1.2233
1.29019
1.33845
1.3672
1.38003
1.38398
1.38752
1.39811
1.41914
1.45082
1.49105
1.53465
1.57543
1.60874
1.63337
1.65258
1.67388
1.70749
1.76385
1.85069
1.97005
2.11547
2.27703
2.44564
2.6123
2.76778
2.90444
3.01797
3.10738
3.17475
3.22445
3.2621
3.29325
3.32201
3.35025
3.37573
3.39178
3.38919
3.35871
3.2934
3.19002
3.04938
2.87565
2.6755
2.45945
2.23703
2.01544
1.80132
1.60126
1.42163
1.26754
1.14319
1.05923
1.02583
1.02863
1.04752
1.0623
1.05847
1.03064
0.982078
0.920907
0.855328
0.790448
0.727595
0.667403
0.612567
0.567976
0.539961
0.534889
0.556548
0.603954
0.671127
0.746912
0.818567
0.875227
0.910598
0.92395
0.919245
0.903025
0.882061
0.861615
0.844252
0.831391
0.824046
0.82289
0.828297
0.840207
0.858648
0.882408
0.907434
0.929125
0.94394
0.950936
0.952519
0.95393
0.961573
0.980792
1.01396
1.05794
1.10899
1.16086
1.20474
1.23231
1.23745
1.21768
1.17518
1.11714
1.05497
1.00215
0.971004
0.968871
1.00443
1.06725
1.13893
1.19952
1.23413
1.23706
1.2125
1.1722
1.1317
1.1059
1.10128
1.1197
1.162
1.22861
1.32134
1.44217
1.59129
1.75679
1.91112
2.02393
2.06705
2.02328
1.89594
1.71231
1.51642
1.35206
1.24436
1.17311
1.11731
1.06958
1.02491
0.981216
0.9398
0.904749
0.881488
0.874771
0.887598
0.925548
0.989015
1.05878
1.10364
1.09085
0.995362
0.808571
0.543344
0.232772
0
0.78694
2.96537
6.33785
10.063
12.9564
14.0418
13.036
10.4683
7.36738
4.72481
3.06101
2.31709
2.06937
1.8684
1.70347
1.55142
1.41509
1.29976
1.20788
1.13952
1.09282
1.06457
1.0509
1.04787
1.0517
1.05866
1.0655
1.06998
1.07122
1.06997
1.06867
1.07099
1.08116
1.1029
1.1385
1.18778
1.24854
1.31783
1.39202
1.46751
1.54152
1.61235
1.67951
1.74342
1.80507
1.8656
1.92601
1.98721
2.05011
2.11599
2.18677
2.26502
2.35364
2.45511
2.57055
2.69903
2.83908
2.9826
3.11885
3.2375
3.33122
3.39696
3.43577
3.45097
3.44585
3.42163
3.37959
3.31712
3.23085
3.11842
2.97973
2.81756
2.6375
2.4471
2.25478
2.06734
1.89009
1.72649
1.57807
1.44475
1.32544
1.2186
1.12264
1.03623
0.958343
0.88825
0.825581
0.770393
0.723435
0.686066
0.659976
0.646988
0.648542
0.665129
0.696013
0.73963
0.792021
0.846261
0.89405
0.927722
0.941644
0.933314
0.903932
0.858311
0.804093
0.750396
0.706009
0.676626
0.664136
0.668324
0.687853
0.719817
0.760363
0.805709
0.852934
0.900424
0.94783
0.995568
1.04414
1.09271
1.13677
1.16875
1.1805
1.16662
1.12732
1.06923
1.00383
0.944172
0.901052
0.87639
0.866733
0.869776
0.882941
0.902544
0.924956
0.947308
0.967758
0.985353
0.999542
1.00949
1.01288
1.00593
0.983862
0.941771
0.876156
0.786537
0.676484
0.553735
0.428664
0.361078
0.629943
1.15979
1.71871
2.03253
1.93152
1.45045
0.818544
0.349331
0.29836
0.568243
0.856842
1.10141
1.25329
1.29329
1.23717
1.1262
1.00757
0.915863
0.856593
0.815643
0.785727
0.763955
0.748037
0.736005
0.726062
0.716181
0.703679
0.684587
0.653615
0.604768
0.531551
0.408092
0.228815
0
-0.340384
-0.382796
0.709683
3.18859
6.63062
9.97693
11.9937
11.9174
9.88172
6.83311
3.98567
2.1773
1.5323
1.58987
1.67294
1.46793
1.27143
1.09221
0.938212
0.814094
0.720945
0.656578
0.616394
0.594595
0.585435
0.584073
0.587394
0.593813
0.602935
0.615042
0.630609
0.650076
0.673997
0.703131
0.738618
0.781991
0.834938
0.898829
0.975923
1.0685
1.17256
1.27399
1.35692
1.40956
1.42946
1.42551
1.41542
1.41929
1.45205
1.51685
1.60151
1.69759
1.79978
1.9046
2.01122
2.12102
2.23622
2.35833
2.4873
2.61602
2.73324
2.8274
2.89063
2.92123
2.92372
2.90649
2.87796
2.84301
2.80194
2.75094
2.68395
2.59525
2.48135
2.34236
2.18202
2.00694
1.82515
1.64457
1.47049
1.30741
1.1588
1.02709
0.913736
0.819316
0.743587
0.685685
0.645351
0.621808
0.610191
0.604713
0.600209
0.593342
0.583353
0.571972
0.562419
0.55784
0.559801
0.567208
0.577274
0.586049
0.590113
0.588081
0.581435
0.574352
0.572499
0.581192
0.603538
0.638272
0.682311
0.730156
0.775626
0.813457
0.840425
0.855673
0.86024
0.85613
0.845356
0.82979
0.810354
0.78753
0.761943
0.734758
0.707971
0.684492
0.667996
0.662484
0.67159
0.697715
0.746987
0.819228
0.902689
0.981887
1.04212
1.07393
1.07577
1.05405
1.0207
0.989389
0.970667
0.967525
0.978995
1.00344
1.03824
1.08021
1.12655
1.17529
1.22539
1.27631
1.32754
1.37818
1.42694
1.47227
1.51269
1.54688
1.57364
1.59091
1.59532
1.58394
1.55395
1.50384
1.43477
1.35119
1.26037
1.17092
1.09089
1.02494
0.974001
0.938326
0.91634
0.905098
0.900671
0.898372
0.891716
0.873477
0.836387
0.774161
0.68265
0.559449
0.406486
0.230753
0.0371601
0
0.642826
2.33873
5.13471
8.54402
11.6122
13.3054
13.0265
10.9351
7.85283
4.81489
2.57178
1.34803
0.940028
0.991774
1.04287
1.06787
1.07447
1.06083
1.03
0.989342
0.948649
0.917782
0.903861
0.909483
0.934235
0.974558
1.02515
1.08054
1.13636
1.1902
1.24081
1.28727
1.32923
1.36693
1.40094
1.43277
1.46511
1.50167
1.54629
1.60168
1.66844
1.74406
1.82491
1.90786
1.99028
2.07061
2.14835
2.22375
2.29728
2.36929
2.43999
2.50957
2.57859
2.6483
2.7207
2.7982
2.88319
2.97726
3.08097
3.19412
3.31277
3.42727
3.52588
3.5975
3.63365
3.6295
3.5836
3.4968
3.37131
3.21038
3.02285
2.81842
2.60517
2.39081
2.18326
1.98963
1.81525
1.66457
1.53956
1.43691
1.35117
1.2764
1.20769
1.14208
1.07883
1.01884
0.963848
0.915512
0.875088
0.843584
0.8219
0.811018
0.811899
0.825015
0.851971
0.891976
0.935677
0.967698
0.972446
0.939755
0.869573
0.773543
0.672411
0.589836
0.544877
0.537898
0.56096
0.607982
0.669804
0.736494
0.799712
0.855006
0.899594
0.932305
0.953254
0.963275
0.963301
0.954209
0.937117
0.913462
0.8851
0.855176
0.828725
0.811135
0.806814
0.817922
0.843715
0.880815
0.924295
0.969119
1.01143
1.04935
1.08162
1.10695
1.1238
1.13051
1.12526
1.10682
1.07548
1.03376
0.986534
0.9406
0.903701
0.882762
0.88254
0.906733
0.956688
1.03126
1.12693
1.23851
1.35973
1.48159
1.59279
1.68296
1.74397
1.77094
1.76276
1.72213
1.65507
1.56979
1.47545
1.38057
1.29082
1.2084
1.13496
1.07048
1.01348
0.962549
0.91746
0.879759
0.852524
0.844566
0.868464
0.914496
0.959999
0.977917
0.949195
0.87127
0.75768
0.629798
0.506322
0.394848
0.29044
0.189087
0
0.384141
1.93446
4.83632
8.57349
12.0391
14.0456
13.9326
11.8869
8.78338
5.68239
3.32949
1.93851
1.30407
1.07655
1.01959
0.970149
0.924043
0.882465
0.846495
0.817199
0.795728
0.783261
0.780856
0.789466
0.80979
0.842126
0.886257
0.941387
1.0061
1.07877
1.15727
1.23681
1.30779
1.35887
1.38
1.36673
1.32412
1.26814
1.22286
1.21366
1.25869
1.35293
1.47853
1.62495
1.77913
1.92833
2.06433
2.18232
2.28072
2.36119
2.42783
2.48609
2.54171
2.59973
2.66405
2.73731
2.82083
2.91476
3.01864
3.13175
3.25131
3.36908
3.47271
3.54858
3.5844
3.57198
3.50922
3.40041
3.25501
3.08545
2.90523
2.72581
2.55374
2.39244
2.24417
2.11045
1.9922
1.88928
1.79543
1.70151
1.59881
1.48203
1.35156
1.21404
1.08121
0.966394
0.880565
0.82923
0.811218
0.819608
0.844204
0.874499
0.902431
0.924135
0.937451
0.941972
0.93859
0.929155
0.915761
0.90067
0.88619
0.874641
0.868258
0.869109
0.87912
0.900035
0.934995
0.98724
1.04775
1.09802
1.11822
1.09563
1.03191
0.945057
0.864332
0.819774
0.865295
0.984847
1.12343
1.21666
1.22307
1.14253
1.01411
0.897098
0.844965
0.876681
0.953055
1.06382
1.18068
1.27452
1.3244
1.32412
1.28402
1.22714
1.18097
1.16766
1.19074
1.25506
1.33708
1.40352
1.42325
1.37881
1.27375
1.13275
0.993461
0.892606
0.851192
0.851926
0.87737
0.92226
0.981983
1.05411
1.13802
1.24357
1.41184
1.69541
2.03679
2.3303
2.47439
2.42308
2.20797
1.91818
1.65132
1.46847
1.35919
1.28415
1.22864
1.18956
1.16876
1.17059
1.19337
1.22255
1.23993
1.22952
1.18355
1.10547
1.00801
0.906958
0.813397
0.727416
0.642159
0.551071
0.442601
0.311389
0.158357
-0.0189174
0
0.91178
3.11446
6.51628
10.3414
13.3575
14.4716
13.331
10.5168
7.18747
4.42432
2.72752
1.95315
1.64009
1.4355
1.37446
1.31568
1.25793
1.20076
1.14407
1.08836
1.03484
0.985314
0.941872
0.906543
0.880858
0.865937
0.862467
0.870909
0.891567
0.924968
0.972054
1.0339
1.11275
1.21752
1.36287
1.53734
1.70507
1.82293
1.85861
1.80745
1.69754
1.57921
1.50413
1.50481
1.55885
1.63887
1.73296
1.83463
1.93854
2.04045
2.13741
2.22771
2.31049
2.38527
2.4519
2.51114
2.56451
2.6145
2.66476
2.71989
2.78484
2.87183
2.99464
3.1366
3.26609
3.34872
3.36206
3.30401
3.19012
3.04219
2.87632
2.69905
2.51474
2.32624
2.13599
1.94744
1.76531
1.59493
1.44103
1.30735
1.19622
1.10819
1.04082
0.990417
0.952888
0.924597
0.902829
0.885857
0.872674
0.862722
0.855213
0.849173
0.843617
0.837866
0.831809
0.825913
0.820936
0.817438
0.815307
0.813547
0.810448
0.804189
0.793636
0.779067
0.762513
0.747554
0.738586
0.739775
0.753995
0.781745
0.82173
0.870745
0.924249
0.976813
1.02133
1.05199
1.06515
1.06023
1.0402
1.01123
0.981241
0.957644
0.94503
0.943739
0.950212
0.95876
0.964154
0.963825
0.958719
0.952496
0.949556
0.95293
0.962557
0.976744
0.992878
1.00899
1.02492
1.04256
1.06493
1.0946
1.13268
1.17621
1.21888
1.25237
1.2682
1.25945
1.22204
1.15538
1.06263
0.95107
0.831061
0.71281
0.616344
0.655258
1.06199
1.65843
2.22137
2.56426
2.59173
2.31748
1.84603
1.33384
0.939974
0.772797
0.687216
0.620043
0.56151
0.511635
0.474447
0.463351
0.518856
0.684674
0.91847
1.14359
1.28593
1.30574
1.20508
1.01183
0.75747
0.46526
0.153407
-0.167805
0
1.15751
3.53427
6.76476
9.9039
11.8462
11.9164
10.2395
7.63511
5.1161
3.35016
2.43284
2.05376
1.84994
1.69788
1.55119
1.40915
1.27486
1.15443
1.05431
0.981457
0.942401
0.961674
1.08243
1.27708
1.48354
1.63665
1.69381
1.6502
1.53787
1.41113
1.32551
1.3182
1.36596
1.44488
1.54623
1.65044
1.73815
1.79518
1.81646
1.80739
1.7821
1.75914
1.75577
1.78124
1.83149
1.89977
1.98152
2.07284
2.17041
2.27223
2.37775
2.48754
2.60259
2.72406
2.8513
2.98051
3.10423
3.2118
3.29358
3.34291
3.35777
3.34184
3.30434
3.25853
3.2187
3.19631
3.19578
3.21454
3.23974
3.24943
3.21966
3.13121
2.97558
2.75846
2.4994
2.22727
1.97257
1.7534
1.56774
1.41513
1.29425
1.20086
1.12914
1.07311
1.02767
0.989278
0.956178
0.928197
0.906122
0.891194
0.884787
0.888428
0.902478
0.923437
0.94417
0.956474
0.953287
0.9308
0.889753
0.835474
0.776708
0.72366
0.685206
0.665527
0.665467
0.685575
0.725207
0.784049
0.861276
0.948229
1.03042
1.09383
1.12852
1.1314
1.10693
1.06533
1.01913
0.979632
0.952774
0.938257
0.935623
0.944472
0.965183
0.996448
1.03123
1.06135
1.07976
1.08294
1.07234
1.05377
1.03502
1.02261
1.01921
1.02176
1.0276
1.03405
1.0398
1.04572
1.05463
1.07035
1.09633
1.13385
1.18155
1.2369
1.29706
1.35902
1.41999
1.47778
1.53085
1.578
1.61809
1.64999
1.67262
1.68486
1.68582
1.67512
1.6531
1.62075
1.57942
1.53048
1.4752
1.41485
1.35064
1.28395
1.21675
1.15166
1.09167
1.03959
0.99767
0.967069
0.946415
0.929315
0.904897
0.860985
0.786976
0.676652
0.530154
0.354544
0.162725
0
0.605575
2.37348
5.31562
8.85908
11.9542
13.5224
13.0137
10.7177
7.60355
4.78106
2.93447
2.08716
1.79755
1.58523
1.47529
1.37588
1.28855
1.21612
1.15923
1.11727
1.08951
1.07601
1.07788
1.09677
1.13376
1.18819
1.25906
1.33951
1.41943
1.48899
1.5414
1.57467
1.5917
1.59869
1.60258
1.60854
1.61892
1.63218
1.6453
1.65682
1.66916
1.68916
1.72625
1.78909
1.88889
2.03112
2.19296
2.33859
2.43569
2.46756
2.43976
2.37964
2.32805
2.32493
2.39387
2.51955
2.67222
2.83394
2.99383
3.14253
3.27094
3.37196
3.44257
3.48178
3.48985
3.46782
3.41718
3.33973
3.23747
3.11253
2.96829
2.80843
2.63574
2.45302
2.26374
2.07218
1.8834
1.70293
1.53641
1.38894
1.26453
1.16553
1.09306
1.04934
1.03458
1.0383
1.04622
1.04488
1.02481
0.982755
0.922053
0.850903
0.77917
0.714936
0.660308
0.614625
0.576621
0.544661
0.517906
0.496919
0.483482
0.479761
0.487208
0.50563
0.532523
0.565003
0.59963
0.633036
0.662308
0.684632
0.697763
0.70029
0.691569
0.672105
0.643894
0.610476
0.576555
0.547265
0.527334
0.519191
0.524148
0.543013
0.575405
0.620535
0.677485
0.741525
0.803386
0.853108
0.882415
0.887098
0.868416
0.832805
0.789881
0.749409
0.718234
0.696835
0.683154
0.674745
0.668748
0.663114
0.657537
0.65376
0.655165
0.665752
0.688822
0.725731
0.775142
0.833443
0.89491
0.952718
0.999557
1.02869
1.03562
1.01827
0.977241
0.915883
0.839877
0.756441
0.673109
0.59636
0.530047
0.475084
0.430802
0.395011
0.364853
0.337599
0.31113
0.284068
0.255605
0.225275
0.192877
0.158256
0.121233
0.0818385
0.040414
-0.00244493
-0.0460726
-0.0898744
-0.133464
-0.176711
-0.213822
0
0.94522
3.03656
6.24034
9.85656
12.7285
13.8003
12.672
9.79293
6.19577
2.97931
0.860865
-0.00118408
0.089319
0.474521
0.511752
0.498952
0.434435
0.333011
0.2206
0.12279
0.0547164
0.00781546
-0.0242329
-0.0417428
-0.0423375
-0.0217555
0.0257675
0.107654
0.244979
0.41865
0.594636
0.736417
0.818934
0.836817
0.80358
0.743586
0.681702
0.634741
0.602445
0.581637
0.570691
0.568291
0.573382
0.585851
0.606939
0.639315
0.686772
0.75358
0.849926
1.0058
1.24736
1.52568
1.7717
1.92321
1.95079
1.8718
1.74634
1.65518
1.66815
1.80674
2.09203
2.43998
2.74154
2.90973
2.91246
2.77684
2.56478
2.33436
2.11069
1.8869
1.66018
1.43265
1.20755
0.989597
0.784633
0.598555
0.436595
0.302663
0.198031
0.119864
0.0620312
0.0171272
-0.0219638
-0.0606935
-0.101962
-0.145883
-0.190189
-0.231144
-0.264872
-0.288743
-0.301027
-0.301446
-0.292371
-0.277859
-0.262619
-0.251006
-0.246178
-0.249566
-0.260732
-0.277595
-0.296888
-0.314773
-0.327575
-0.332189
-0.326319
-0.308472
-0.277754
-0.234045
-0.177901
-0.110793
-0.0351187
0.0455021
0.125074
0.194699
0.245262
0.268963
0.261237
0.222395
0.15831
0.0797363
0.000368118
-0.0657589
-0.108852
-0.127562
-0.120663
-0.0875225
-0.028809
0.0579855
0.163781
0.270693
0.360605
0.419847
0.442842
0.433129
0.401362
0.36126
0.325413
0.300771
0.288289
0.288205
0.301945
0.330664
0.375214
0.435843
0.512019
0.603034
0.705021
0.810971
0.912083
0.998643
1.06123
1.09286
1.08932
1.04994
0.978154
0.881795
0.772757
0.665632
0.575412
0.513624
0.498602
0.541234
0.623525
0.717649
0.795327
0.835844
0.830056
0.780208
0.697003
0.595564
0.491169
0.393428
0.305032
0.22453
0.148566
0.0739689
-0.0016943
-0.079825
-0.160369
-0.37626
0
1.41397
4.02364
7.44753
10.7643
12.8529
12.946
11.0595
7.9931
4.87821
2.57811
1.33592
0.853105
0.659123
0.624541
0.615071
0.621566
0.645456
0.684141
0.731698
0.780346
0.822397
0.852001
0.866247
0.865355
0.852029
0.830336
0.804557
0.778439
0.754599
0.735097
0.721937
0.717197
0.723027
0.741449
0.774027
0.821467
0.883262
0.958175
1.04406
1.13801
1.23694
1.33798
1.4386
1.53718
1.6331
1.72675
1.81906
1.91095
2.00271
2.0932
2.17956
2.25832
2.32701
2.38552
2.43639
2.48394
2.53264
2.58539
2.64242
2.70192
2.76192
2.82038
2.8754
2.92449
2.96189
2.97943
2.96646
2.91129
2.80543
2.64773
2.44619
2.21628
1.97637
1.7424
1.52051
1.3111
1.11597
0.939616
0.786259
0.659174
0.561952
0.496764
0.46272
0.455183
0.466426
0.487318
0.509302
0.526533
0.53645
0.537215
0.528471
0.510915
0.486092
0.45624
0.424072
0.39245
0.363926
0.340301
0.322221
0.309314
0.300551
0.29461
0.290355
0.287187
0.285223
0.285193
0.28818
0.295199
0.306968
0.323618
0.344667
0.368915
0.394566
0.419719
0.442742
0.462541
0.478637
0.491053
0.50009
0.506074
0.50925
0.509646
0.507095
0.501314
0.491937
0.478536
0.460676
0.438047
0.410887
0.380365
0.348962
0.321365
0.304156
0.304869
0.341054
0.458227
0.641478
0.834043
0.9682
0.998855
0.927881
0.804903
0.704024
0.717566
0.89159
1.14354
1.34079
1.37992
1.24375
1.00682
0.790212
0.693056
0.736793
0.81806
0.890505
0.914145
0.870684
0.768908
0.637026
0.506799
0.399807
0.317176
0.249933
0.195404
0.153707
0.124725
0.110016
0.106172
0.106488
0.102507
0.0860547
0.0514741
-0.002773
-0.0736985
-0.154637
-0.268296
0
1.09912
3.30661
6.37539
9.4795
11.5575
11.8613
10.3524
7.69031
4.84505
2.61087
1.31591
0.837264
0.823029
0.777025
0.705558
0.633046
0.563998
0.503217
0.454832
0.421437
0.403533
0.399424
0.405575
0.417295
0.429545
0.437682
0.437558
0.426887
0.405373
0.375034
0.340351
0.308146
0.287058
0.286264
0.313964
0.375889
0.474178
0.607353
0.785386
1.00638
1.23103
1.41624
1.52739
1.5494
1.49372
1.3959
1.30305
1.25626
1.27657
1.3375
1.41816
1.50956
1.60581
1.70197
1.7945
1.88141
1.9622
2.03751
2.1087
2.17745
2.24527
2.31318
2.38132
2.44846
2.51048
2.55876
2.58225
2.56853
2.50677
2.39081
2.2215
2.00723
1.76269
1.50607
1.25523
1.02005
0.806281
0.619754
0.463982
0.340601
0.250685
0.194425
0.166829
0.156239
0.150614
0.139743
0.117074
0.0806355
0.0328205
-0.0208346
-0.0734176
-0.118615
-0.153399
-0.176905
-0.188736
-0.189181
-0.179432
-0.161297
-0.13677
-0.107797
-0.0760084
-0.042334
-0.00694072
0.0305833
0.0708265
0.114553
0.161127
0.206051
0.242728
0.264901
0.269462
0.258273
0.237916
0.217361
0.20462
0.204003
0.212745
0.227384
0.245096
0.263228
0.27989
0.29413
0.305811
0.315375
0.323723
0.33218
0.342606
0.35738
0.379149
0.410285
0.452197
0.504622
0.566543
0.634328
0.702954
0.768196
0.828143
0.88394
0.939383
0.999404
1.06986
1.15426
1.24342
1.32128
1.37128
1.38318
1.35689
1.3019
1.23303
1.16464
1.10479
1.05225
1.00326
0.95329
0.896245
0.825804
0.736919
0.627327
0.496712
0.348107
0.200259
0.0767192
0
-0.00176737
0.135415
0.360335
0.588566
0.736712
0.751209
0.621238
0.374736
0.0646175
0.0190634
0.771098
2.59354
5.38341
8.51401
10.9884
11.8963
10.9149
8.50779
5.66543
3.35335
2.04197
1.59863
1.54752
1.38919
1.2321
1.07963
0.935269
0.80299
0.686455
0.588861
0.513041
0.465605
0.464416
0.521227
0.609182
0.689392
0.724756
0.696639
0.614859
0.514581
0.441108
0.430222
0.481518
0.564659
0.664496
0.77272
0.881517
0.984755
1.07858
1.16139
1.23296
1.29353
1.34518
1.39043
1.43237
1.47502
1.5233
1.58249
1.65715
1.74982
1.85909
1.98014
2.10792
2.23661
2.36018
2.47343
2.57267
2.65597
2.72298
2.77442
2.81129
2.83472
2.84538
2.84328
2.82778
2.79775
2.75177
2.68831
2.60597
2.5037
2.38144
2.24035
2.08261
1.91151
1.73172
1.54906
1.37016
1.20183
1.05042
0.921259
0.822527
0.766058
0.748291
0.752631
0.759748
0.753889
0.727933
0.685021
0.636182
0.59532
0.573975
0.572523
0.586183
0.612177
0.648296
0.690969
0.735555
0.777242
0.811396
0.833933
0.842466
0.83656
0.818011
0.790732
0.760136
0.732081
0.711595
0.70177
0.702756
0.712026
0.726553
0.742662
0.756776
0.765969
0.768264
0.762742
0.749577
0.730097
0.706415
0.681499
0.658991
0.642777
0.636429
0.642651
0.662853
0.696964
0.743521
0.800018
0.863386
0.930481
0.998495
1.06527
1.12918
1.189
1.24369
1.29202
1.33241
1.36347
1.38415
1.39377
1.39222
1.37997
1.35788
1.32687
1.28763
1.24064
1.18685
1.12729
1.06345
0.99772
0.933228
0.873411
0.821391
0.778702
0.745889
0.722136
0.704903
0.689588
0.669958
0.639256
0.591239
0.521249
0.424731
0.301339
0.156933
0
-0.0807401
0.497948
2.07467
4.68708
7.90427
10.888
12.7065
12.7593
11.0692
8.26407
5.26084
2.84166
1.36747
0.758422
0.691415
0.791941
0.855746
0.901668
0.925801
0.928112
0.91256
0.886127
0.857026
0.832717
0.818405
0.814781
0.821845
0.8393
0.866529
0.902891
0.947726
1.00022
1.05919
1.12296
1.19022
1.25975
1.33042
1.40113
1.47025
1.53476
1.59063
1.63388
1.66205
1.6761
1.68141
1.68735
1.70527
1.74556
1.81498
1.91053
2.02568
2.1563
2.29796
2.44589
2.59563
2.74307
2.88434
3.01563
3.13321
3.23375
3.31463
3.37401
3.41086
3.42491
3.41646
3.38615
3.33481
3.26346
3.17378
3.06817
2.94926
2.81985
2.68287
2.54085
2.39557
2.24779
2.09737
1.94368
1.78629
1.62567
1.46368
1.30371
1.15055
1.01088
0.891978
0.798972
0.734767
0.699505
0.69051
0.702775
0.729865
0.765025
0.802161
0.836687
0.865606
0.887059
0.900117
0.904468
0.900155
0.887394
0.866501
0.837959
0.802665
0.762419
0.719958
0.680707
0.652692
0.645453
0.668458
0.745819
0.935516
1.21692
1.50785
1.72079
1.79799
1.73248
1.56712
1.37406
1.22538
1.16675
1.16615
1.19301
1.23074
1.26134
1.27073
1.25351
1.21518
1.17025
1.13688
1.13014
1.15542
1.20168
1.26112
1.32828
1.39767
1.4647
1.52601
1.57948
1.62415
1.66019
1.68843
1.71022
1.72712
1.74068
1.75217
1.76224
1.77086
1.77734
1.78054
1.77938
1.77319
1.76201
1.74651
1.72789
1.70766
1.68754
1.6693
1.65486
1.64598
1.64443
1.65255
1.66544
1.66964
1.64742
1.58213
1.46411
1.29399
1.07432
0.812661
0.537611
0.265796
0
0.045309
0.785385
2.65356
5.749
9.58913
13.1524
15.2681
15.1834
12.9786
9.54594
6.11975
3.64701
2.39615
2.02034
1.95791
1.86489
1.78189
1.7045
1.63448
1.57303
1.52095
1.47861
1.44599
1.42283
1.40868
1.40292
1.40487
1.41381
1.42915
1.4506
1.47813
1.51205
1.55288
1.60104
1.65683
1.72042
1.78976
1.85693
1.91253
1.9498
1.96874
1.97808
1.99361
2.03261
2.10884
2.2298
2.37453
2.51188
2.61664
2.68232
2.72337
2.76636
2.83581
2.94273
3.07037
3.2056
3.34042
3.46696
3.57852
3.67025
3.73885
3.78322
3.80421
3.80396
3.7854
3.75164
3.70531
3.64755
3.57642
3.48948
3.383
3.25357
3.09997
2.92439
2.73261
2.53305
2.33505
2.14613
1.97
1.81006
1.66797
1.54391
1.43728
1.34643
1.26857
1.20117
1.14276
1.09343
1.05493
1.03076
1.03356
1.0818
1.16071
1.23855
1.27793
1.25278
1.16164
1.02979
0.899132
0.811168
0.789456
0.809401
0.852896
0.913412
0.983298
1.05492
1.12188
1.17909
1.22279
1.25049
1.26083
1.25354
1.22944
1.19059
1.14035
1.08331
1.02498
0.971244
0.927404
0.897203
0.88394
0.888015
0.904986
0.929025
0.954909
0.979651
1.00319
1.02789
1.05705
1.09405
1.13925
1.18594
1.22321
1.23947
1.2264
1.18201
1.11179
1.02781
0.946373
0.884083
0.850129
0.846583
0.87586
0.937735
1.02838
1.14199
1.27096
1.4025
1.52187
1.6164
1.67695
1.69886
1.68203
1.63037
1.55058
1.45059
1.33813
1.2202
1.10157
0.985319
0.873872
0.769832
0.676219
0.596261
0.533137
0.489912
0.469805
0.476371
0.510896
0.563526
0.612778
0.63592
0.615119
0.542992
0.425652
0.281798
0
0.359019
1.7812
4.35256
7.61507
10.6344
12.3821
12.2426
10.3299
7.4067
4.4664
2.25685
1.02671
0.585698
0.555651
0.521795
0.491858
0.465542
0.445108
0.432559
0.429335
0.436152
0.45308
0.479815
0.516009
0.56148
0.616342
0.683203
0.763858
0.849302
0.923026
0.966901
0.968774
0.928881
0.861355
0.78961
0.737628
0.721324
0.73395
0.764246
0.806529
0.856793
0.911839
0.969866
1.03057
1.09483
1.16406
1.23966
1.32229
1.41184
1.50752
1.60789
1.71105
1.81482
1.91695
2.01532
2.10809
2.19376
2.27115
2.33905
2.39586
2.43998
2.4699
2.48378
2.47958
2.45536
2.4095
2.34099
2.24961
2.13619
2.00337
1.85554
1.6977
1.53546
1.37511
1.22296
1.08467
0.966197
0.874112
0.807061
0.755083
0.70561
0.64747
0.574436
0.487049
0.392046
0.299751
0.220498
0.158384
0.111956
0.0808047
0.0628087
0.0546618
0.0526346
0.0532439
0.0537356
0.0523238
0.0484351
0.042708
0.0368642
0.0334274
0.0352607
0.0449646
0.0642505
0.0934708
0.131116
0.174941
0.222068
0.269667
0.315606
0.35879
0.399125
0.437107
0.472952
0.506018
0.534326
0.554503
0.562802
0.556517
0.535271
0.501711
0.46139
0.421854
0.391193
0.374695
0.374606
0.395218
0.438694
0.498478
0.561887
0.615452
0.64852
0.656152
0.640526
0.610584
0.580104
0.564698
0.576405
0.619307
0.692087
0.801505
0.948241
1.11453
1.27466
1.4048
1.48796
1.51637
1.49114
1.42057
1.31805
1.20019
1.08445
0.98369
0.904865
0.849563
0.815432
0.799364
0.798864
0.810203
0.829137
0.850535
0.867857
0.875098
0.867733
0.843448
0.802411
0.746886
0.680256
0.605851
0.526084
0.442569
0.355409
0.265302
0.173498
0
0.565108
2.2976
5.18649
8.62045
11.5552
12.9795
12.4273
10.2134
7.23769
4.4914
2.59317
1.6234
1.28171
1.1868
1.13243
1.08405
1.04128
1.00604
0.979679
0.963012
0.95653
0.960178
0.973491
0.995567
1.02515
1.06055
1.09961
1.14013
1.18017
1.21822
1.25329
1.28452
1.31169
1.3354
1.35713
1.37951
1.40634
1.44212
1.49098
1.5555
1.63563
1.72717
1.82518
1.92429
2.01957
2.10766
2.18761
2.26106
2.3318
2.40483
2.48507
2.57628
2.67998
2.79632
2.92193
3.05105
3.17601
3.2866
3.3732
3.43025
3.45614
3.45396
3.43151
3.40003
3.37156
3.35508
3.35563
3.36467
3.36434
3.33362
3.25602
3.12554
2.94851
2.74085
2.52217
2.30957
2.10968
1.92305
1.75158
1.59768
1.464
1.35255
1.26491
1.20163
1.16316
1.14846
1.15212
1.16702
1.18647
1.20561
1.22201
1.23551
1.24715
1.25791
1.2677
1.27503
1.27774
1.27423
1.26469
1.25148
1.23874
1.23108
1.23212
1.24206
1.25937
1.28172
1.3054
1.32575
1.33794
1.33816
1.32435
1.29683
1.25855
1.21465
1.17248
1.13973
1.12275
1.12513
1.14689
1.18459
1.23222
1.28274
1.32967
1.36927
1.39924
1.41889
1.42899
1.43131
1.42814
1.4218
1.4143
1.40718
1.40143
1.3976
1.396
1.39679
1.40015
1.40634
1.41577
1.42901
1.44681
1.47002
1.49955
1.53618
1.58039
1.63213
1.69073
1.75468
1.82133
1.88734
1.94884
2.0015
2.04129
2.06518
2.07123
2.05869
2.02819
1.98167
1.92234
1.85443
1.78287
1.71276
1.64827
1.59268
1.54858
1.5173
1.49843
1.49003
1.48881
1.4904
1.4892
1.47848
1.45114
1.40004
1.31594
1.15502
0.892402
0.546153
0.15266
0
0.826462
2.99598
6.3562
10.1311
13.1719
14.4768
13.6803
11.2084
8.01539
5.08828
3.02968
1.93002
1.51965
1.43244
1.36928
1.30917
1.25229
1.20097
1.15803
1.12677
1.11053
1.11227
1.13424
1.17744
1.24128
1.32324
1.41901
1.52288
1.62843
1.7295
1.82141
1.90074
1.96529
2.01422
2.0477
2.0664
2.07156
2.06481
2.04829
2.02486
1.99826
1.97444
1.96087
1.96576
1.99699
2.08209
2.30434
2.65961
3.03769
3.31317
3.3975
3.2821
3.04965
2.83996
2.77999
2.9101
3.10238
3.29671
3.46491
3.5871
3.65516
3.67216
3.64872
3.59754
3.52873
3.44966
3.36345
3.27072
3.17139
3.06586
2.95522
2.84095
2.72426
2.60544
2.4836
2.35677
2.22295
2.08157
1.93458
1.78688
1.64563
1.51875
1.413
1.33201
1.2765
1.24416
1.23077
1.23153
1.24185
1.25867
1.28005
1.30457
1.33084
1.35702
1.38088
1.39992
1.41167
1.41405
1.4056
1.38549
1.35353
1.31019
1.25678
1.19558
1.12958
1.06309
1.00231
0.954337
0.926292
0.924287
0.952466
1.02044
1.14538
1.33451
1.5609
1.77687
1.94108
2.02523
2.0164
1.91759
1.74877
1.54772
1.36639
1.25616
1.22724
1.27806
1.38046
1.48626
1.54581
1.5292
1.43947
1.31154
1.19809
1.2062
1.42835
1.76332
2.03998
2.11295
1.93761
1.59006
1.22585
1.00405
1.01047
1.1132
1.23654
1.36308
1.48252
1.58829
1.67806
1.75315
1.81707
1.87345
1.92443
1.9701
2.00786
2.03345
2.04227
2.03044
1.99553
1.93683
1.85569
1.75719
1.64813
1.53542
1.42727
1.33233
1.25898
1.22457
1.26113
1.37945
1.5273
1.63848
1.65579
1.55472
1.35739
1.12377
0.919334
0.779047
0.682587
0.599423
0.521848
0.445849
0
0.48968
2.5441
6.10425
10.2841
13.7028
15.135
14.1184
11.1651
7.45841
4.23635
2.23372
1.48559
1.52621
1.75141
1.53318
1.31721
1.11304
0.933207
0.791734
0.699981
0.662499
0.674984
0.725446
0.798055
0.877898
0.954776
1.02586
1.09128
1.15113
1.20587
1.25591
1.30145
1.34255
1.37932
1.41239
1.44328
1.47431
1.50838
1.54852
1.59725
1.65591
1.72428
1.80048
1.88118
1.963
2.04321
2.12025
2.19407
2.2661
2.33879
2.41498
2.497
2.58633
2.68344
2.78664
2.89219
2.99497
3.08838
3.16431
3.21701
3.24285
3.24094
3.21367
3.16667
3.10795
3.04609
2.98794
2.93655
2.88951
2.84252
2.79026
2.72698
2.64749
2.54791
2.42623
2.28258
2.11981
1.94348
1.76032
1.57784
1.40521
1.25141
1.12397
1.02789
0.964769
0.932712
0.926673
0.939366
0.963443
0.989167
1.0069
1.00962
0.993891
0.960511
0.914389
0.863601
0.817641
0.785249
0.771491
0.775143
0.795332
0.829892
0.873702
0.917457
0.951632
0.969478
0.968703
0.952013
0.926101
0.899189
0.877993
0.86548
0.859782
0.858199
0.858729
0.862223
0.873194
0.900498
0.971753
1.10275
1.25838
1.37872
1.40808
1.32333
1.14672
0.936713
0.761647
0.670099
0.647362
0.658332
0.690316
0.739428
0.802246
0.878908
0.967628
1.05791
1.13451
1.18113
1.18625
1.14864
1.07972
1.00145
0.940548
0.92124
0.946109
1.00697
1.09905
1.22328
1.37774
1.55142
1.7198
1.8569
1.94172
1.96167
1.91548
1.81382
1.67687
1.52909
1.39318
1.28075
1.1899
1.11663
1.05859
1.01452
0.982173
0.958843
0.941681
0.927906
0.914863
0.899961
0.880524
0.853683
0.816429
0.765792
0.699017
0.610924
0.496755
0.360408
0.208871
0
0.181211
1.13345
3.07329
5.82707
8.75528
10.9575
11.6852
10.7255
8.50234
5.82799
3.47803
1.86904
1.01246
0.694998
0.719054
0.795466
0.862562
0.911773
0.938944
0.945474
0.937923
0.926155
0.920451
0.928465
0.951443
0.988658
1.03326
1.07606
1.10839
1.12461
1.12358
1.10868
1.08672
1.06612
1.05469
1.05704
1.07507
1.10926
1.15936
1.22456
1.30346
1.3941
1.49413
1.60092
1.71171
1.82374
1.93435
2.0411
2.14139
2.23264
2.31348
2.38346
2.44337
2.49524
2.5422
2.58779
2.63508
2.68582
2.74001
2.79556
2.84909
2.89696
2.93607
2.96427
2.98017
2.9817
2.96675
2.93257
2.87611
2.79511
2.68915
2.56034
2.41336
2.25484
2.09239
1.933
78
260
446
633
818
999
1184
1371
1554
1734
1916
2097
2274
2447
2615
2786
2962
3136
3316
3499
3680
0
0
0
0
0
0
0
0
0
0
0
0
0
0
0
0
0
0
0
0
0
0
0
0
0
0
0
0
0
0
0
0
0
0
0
0
0
0
0
0
0
0
0
0
0
0
0
0
0
0
0
0
0
0
0
0
0
0
0
0
0
0
0
0
0
0
0
0
0
0
0
0
0
0
0
0
0
0
0
0
0
0
0
0
0
0
0
0
0
0
0
0
0
0
0
0
0
0
0
0
0
0
0
0
0
0
0
0
0
0
0
0
0
0
0
0
0
0
0
0
0
0
0
0
0
0
0
0
0
0
0
0
0
0
0
0
0
0
0
0
0
0
0
0
0
0
0
0
0
0
0
0
0
0
0
0
0
0
0
0
0
0
0
0
0
0
0
0
0
0
0
0
0
0
0
0
0
0
0
0
0
0
0
0
0
0
0
0
0
0
0
0
0
0
0
0
0
0
0
0
0
0
0
0
0
0
0
0
0
0
0
0
0
0
0
0
0
0
0
0
0
0
0
0
0
0
0
0
0
0
0
0
0
0
0
0
0
0
0
0
0
0
0
0
0
0
0
0
0
0
0
0
0
0
0
0
0
0
0
0
0
0
0
0
0
0
0
0
0
0
0
0
0
0
0
0
0
0
0
0
0
0
0
0
0
0
0
0
0
0
0
0
0
0
0
0
0
0
0
0
0
0
0
0
0
0
0
0
0
0
0
0
0
0
0
0
0
0
0
0
0
0
0
0
0
0
0
0
0
0
0
0
0
0
0
0
0
0
0
0
0
0
0
0
0
0
0
0
0
0
0
0
0
0
0
0
0
0
0
0
0
0
0
0
0
0
0
0
0
0
0
0
0
0
0
0
0
0
0
0
0
0
0
0
0
0
0
0
0
0
0
0
0
0
0
0
0
0
0
0
0
0
0
0
0
0
0
0
0
0
0
0
0
0
0
0
0
0
0
0
0
0
0
0
0
0
0
0
0
0
0
0
0
0
0
0
0
0
0
0
0
0
0
0
0
0
0
0
0
0
0
0
0
0
0
0
0
0
0
0
0
0
0
0
0
0
0
0
0
0
0
0
0
0
0
0
0
0
0
0
0
0
0
0
0
0
0
0
0
0
0
0
0
0
0
0
0
0
0
0
0
0
0
0
0
0
0
0
0
0
0
0
0
0
0
0
0
0
0
0
0
0
0
0
0
0
0
0
0
0
0
0
0
0
0
0
0
0
0
0
0
0
0
0
0
0
0
0
0
0
0
0
0
0
0
0
0
0
0
0
0
0
0
0
0
0
0
0
0
0
0
0
0
0
0
0
0
0
0
0
0
0
0
0
0
0
0
0
0
0
0
0
0
0
0
0
0
0
0
0
0
0
0
0
0
0
0
0
0
0
0
0
0
0
0
0
0
0
0
0
0
0
0
0
0
0
0
0
0
0
0
0
0
0
0
0
0
0
0
0
0
0
0
0
0
0
0
0
0
0
0
0
0
0
0
0
0
0
0
0
0
0
0
0
0
0
0
0
0
0
0
0
0
0
0
0
0
0
0
0
0
0
0
0
0
0
0
0
0
0
0
0
0
0
0
0
0
0
0
0
0
0
0
0
0
0
0
0
0
0
0
0
0
0
0
0
0
0
0
0
0
0
0
0
0
0
0
0
0
0
0
0
0
0
0
0
0
0
0
0
0
0
0
0
0
0
0
0
0
0
0
0
0
0
0
0
0
0
0
0
0
0
0
0
0
0
0
0
0
0
0
0
0
0
0
0
0
0
0
0
0
0
0
0
0
0
0
0
0
0
0
0
0
0
0
0
0
0
0
0
0
0
0
0
0
0
0
0
0
0
0
0
0
0
0
0
0
0
0
0
0
0
0
0
0
0
0
0
0
0
0
0
0
0
0
0
0
0
0
0
0
0
0
0
0
0
0
0
0
0
0
0
0
0
0
0
0
0
0
0
0
0
0
0
0
0
0
0
0
0
0
0
0
0
0
0
0
0
0
0
0
0
0
0
0
0
0
0
0
0
0
0
0
0
0
0
0
0
0
0
0
0
0
0
0
0
0
0
0
0
0
0
0
0
0
0
0
0
0
0
0
0
0
0
0
0
0
0
0
0
0
0
0
0
0
0
0
0
0
0
0
0
0
0
0
0
0
0
0
0
0
0
0
0
0
0
0
0
0
0
0
0
0
0
0
0
0
0
0
0
0
0
0
0
0
0
0
0
0
0
0
0
0
0
0
0
0
0
0
0
0
0
0
0
0
0
0
0
0
0
0
0
0
0
0
0
0
0
0
0
0
0
0
0
0
0
0
0
0
0
0
0
0
0
0
0
0
0
0
0
0
0
0
0
0
0
0
0
0
0
0
0
0
0
0
0
0
0
0
0
0
0
0
0
0
0
0
0
0
0
0
0
0
0
0
0
0
0
0
0
0
0
0
0
0
0
0
0
0
0
0
0
0
0
0
0
0
0
0
0
0
0
0
0
0
0
0
0
0
0
0
0
0
0
0
0
0
0
0
0
0
0
0
0
0
0
0
0
0
0
0
0
0
0
0
0
0
0
0
0
0
0
0
0
0
0
0
0
0
0
0
0
0
0
0
0
0
0
0
0
0
0
0
0
0
0
0
0
0
0
0
0
0
0
0
0
0
0
0
0
0
0
0
0
0
0
0
0
0
0
0
0
0
0
0
0
0
0
0
0
0
0
0
0
0
0
0
0
0
0
0
0
0
0
0
0
0
0
0
0
0
0
0
0
0
0
0
0
0
0
0
0
0
0
0
0
0
0
0
0
0
0
0
0
0
0
0
0
0
0
0
0
0
0
0
0
0
0
0
0
0
0
0
0
0
0
0
0
0
0
0
0
0
0
0
0
0
0
0
0
0
0
0
0
0
0
0
0
0
0
0
0
0
0
0
0
0
0
0
0
0
0
0
0
0
0
0
0
0
0
0
0
0
0
0
0
0
0
0
0
0
0
0
0
0
0
0
0
0
0
0
0
0
0
0
0
0
0
0
0
0
0
0
0
0
0
0
0
0
0
0
0
0
0
0
0
0
0
0
0
0
0
0
0
0
0
0
0
0
0
0
0
0
0
0
0
0
0
0
0
0
0
0
0
0
0
0
0
0
0
0
0
0
0
0
0
0
0
0
0
0
0
0
0
0
0
0
0
0
0
0
0
0
0
0
0
0
0
0
0
0
0
0
0
0
0
0
0
0
0
0
0
0
0
0
0
0
0
0
0
0
0
0
0
0
0
0
0
0
0
0
0
0
0
0
0
0
0
0
0
0
0
0
0
0
0
0
0
0
0
0
0
0
0
0
0
0
0
0
0
0
0
0
0
0
0
0
0
0
0
0
0
0
0
0
0
0
0
0
0
0
0
0
0
0
0
0
0
0
0
0
0
0
0
0
0
0
0
0
0
0
0
0
0
0
0
0
0
0
0
0
0
0
0
0
0
0
0
0
0
0
0
0
0
0
0
0
0
0
0
0
0
0
0
0
0
0
0
0
0
0
0
0
0
0
0
0
0
0
0
0
0
0
0
0
0
0
0
0
0
0
0
0
0
0
0
0
0
0
0
0
0
0
0
0
0
0
0
0
0
0
0
0
0
0
0
0
0
0
0
0
0
0
0
0
0
0
0
0
0
0
0
0
0
0
0
0
0
0
0
0
0
0
0
0
0
0
0
0
0
0
0
0
0
0
0
0
0
0
0
0
0
0
0
0
0
0
0
0
0
0
0
0
0
0
0
0
0
0
0
0
0
0
0
0
0
0
0
0
0
0
0
0
0
0
0
0
0
0
0
0
0
0
0
0
0
0
0
0
0
0
0
0
0
0
0
0
0
0
0
0
0
0
0
0
0
0
0
0
0
0
0
0
0
0
0
0
0
0
0
0
0
0
0
0
0
0
0
0
0
0
0
0
0
0
0
0
0
0
0
0
0
0
0
0
0
0
0
0
0
0
0
0
0
0
0
0
0
0
0
0
0
0
0
0
0
0
0
0
0
0
0
0
0
0
0
0
0
0
0
0
0
0
0
0
0
0
0
0
0
0
0
0
0
0
0
0
0
0
0
0
0
0
0
0
0
0
0
0
0
0
0
0
0
0
0
0
0
0
0
0
0
0
0
0
0
0
0
0
0
0
0
0
0
0
0
0
0
0
0
0
0
0
0
0
0
0
0
0
0
0
0
0
0
0
0
0
0
0
0
0
0
0
0
0
0
0
0
0
0
0
0
0
0
0
0
0
0
0
0
0
0
0
0
0
0
0
0
0
0
0
0
0
0
0
0
0
0
0
0
0
0
0
0
0
0
0
0
0
0
0
0
0
0
0
0
0
0
0
0
0
0
0
0
0
0
0
0
0
0
0
0
0
0
0
0
0
0
0
0
0
0
0
0
0
0
0
0
0
0
0
0
0
0
0
0
0
0
0
0
0
0
0
0
0
0
0
0
0
0
0
0
0
0
0
0
0
0
0
0
0
0
0
0
0
0
0
0
0
0
0
0
0
0
0
0
0
0
0
0
0
0
0
0
0
0
0
0
0
0
0
0
0
0
0
0
0
0
0
0
0
0
0
0
0
0
0
0
0
0
0
0
0
0
0
0
0
0
0
0
0
0
0
0
0
0
0
0
0
0
0
0
0
0
0
0
0
0
0
0
0
0
0
0
0
0
0
0
0
0
0
0
0
0
0
0
0
0
0
0
0
0
0
0
0
0
0
0
0
0
0
0
0
0
0
0
0
0
0
0
0
0
0
0
0
0
0
0
0
0
0
0
0
0
0
0
0
0
0
0
0
0
0
0
0
0
0
0
0
0
0
0
0
0
0
0
0
0
0
0
0
0
0
0
0
0
0
0
0
0
0
0
0
0
0
0
0
0
0
0
0
0
0
0
0
0
0
0
0
0
0
0
0
0
0
0
0
0
0
0
0
0
0
0
0
0
0
0
0
0
0
0
0
0
0
0
0
0
0
0
0
0
0
0
0
0
0
0
0
0
0
0
0
0
0
0
0
0
0
0
0
0
0
0
0
0
0
0
0
0
0
0
0
0
0
0
0
0
0
0
0
0
0
0
0
0
0
0
0
0
0
0
0
0
0
0
0
0
0
0
0
0
0
0
0
0
0
0
0
0
0
0
0
0
0
0
0
0
0
0
0
0
0
0
0
0
0
0
0
0
0
0
0
0
0
0
0
0
0
0
0
0
0
0
0
0
0
0
0
0
0
0
0
0
0
0
0
0
0
0
0
0
0
0
0
0
0
0
0
0
0
0
0
0
0
0
0
0
0
0
0
0
0
0
0
0
0
0
0
0
0
0
0
0
0
0
0
0
0
0
0
0
0
0
0
0
0
0
0
0
0
0
0
0
0
0
0
0
0
0
0
0
0
0
0
0
0
0
0
0
0
0
0
0
0
0
0
0
0
0
0
0
0
0
0
0
0
0
0
0
0
0
0
0
0
0
0
0
0
0
0
0
0
0
0
0
0
0
0
0
0
0
0
0
0
0
0
0
0
0
0
0
0
0
0
0
0
0
0
0
0
0
0
0
0
0
0
0
0
0
0
0
0
0
0
0
0
0
0
0
0
0
0
0
0
0
0
0
0
0
0
0
0
0
0
0
0
0
0
0
0
0
0
0
0
0
0
0
0
0
0
0
0
0
0
0
0
0
0
0
0
0
0
0
0
0
0
0
0
0
0
0
0
0
0
0
0
0
0
0
0
0
0
0
0
0
0
0
0
0
0
0
0
0
0
0
0
0
0
0
0
0
0
0
0
0
0
0
0
0
0
0
0
0
0
0
0
0
0
0
0
0
0
0
0
0
0
0
0
0
0
0
0
0
0
0
0
0
0
0
0
0
0
0
0
0
0
0
0
0
0
0
0
0
0
0
0
0
0
0
0
0
0
0
0
0
0
0
0
0
0
0
0
0
0
0
0
0
0
0
0
0
0
0
0
0
0
0
0
0
0
0
0
0
0
0
0
0
0
0
0
0
0
0
0
0
0
0
0
0
0
0
0
0
0
0
0
0
0
0
0
0
0
0
0
0
0
0
0
0
0
0
0
0
0
0
0
0
0
0
0
0
0
0
0
0
0
0
0
0
0
0
0
0
0
0
0
0
0
0
0
0
0
0
0
0
0
0
0
0
0
0
0
0
0
0
0
0
0
0
0
0
0
0
0
0
0
0
0
0
0
0
0
0
0
0
0
0
0
0
0
0
0
0
0
0
0
0
0
0
0
0
0
0
0
0
0
0
0
0
0
0
0
0
0
0
0
0
0
0
0
0
0
0
0
0
0
0
0
0
0
0
0
0
0
0
0
0
0
0
0
0
0
0
0
0
0
0
0
0
0
0
0
0
0
0
0
0
0
0
0
0
0
0
0
0
0
0
0
0
0
0
0
0
0
0
0
0
0
0
0
0
0
0
0
0
0
0
0
0
0
0
0
0
0
0
0
0
0
0
0
0
0
0
0
0
0
0
0
0
0
0
0
0
0
0
0
0
0
0
0
0
0
0
0
0
0
0
0
0
0
0
0
0
0
0
0
0
0
0
0
0
0
0
0
0
0
0
0
0
0
0
0
0
0
0
0
0
0
0
0
0
0
0
0
0
0
0
0
0
0
0
0
0
0
0
0
0
0
0
0
0
0
0
0
0
0
0
0
0
0
0
0
0
0
0
0
0
0
0
0
0
0
0
0
0
0
0
0
0
0
0
0
0
0
0
0
0
0
0
0
0
0
0
0
0
0
0
0
0
0
0
0
0
0
0
0
0
0
0
0
0
0
0
0
0
0
0
0
0
0
0
0
0
0
0
0
0
0
0
0
0
0
0
0
0
0
0
0
0
0
0
0
0
0
0
0
0
0
0
0
0
0
0
0
0
0
0
0
0
0
0
0
0
0
0
0
0
0
0
0
0
0
0
0
0
0
0
0
0
0
0
0
0
0
0
0
0
0
0
0
0
0
0
0
0
0
0
0
0
0
0
0
0
0
0
0
0
0
0
0
0
0
0
0
0
0
0
0
0
0
0
0
0
0
0
0
0
0
0
0
0
0
0
0
0
0
0
0
0
0
0
0
0
0
0
0
0
0
0
0
0
0
0
0
0
0
0
0
0
0
0
0
0
0
0
0
0
0
0
0
0
0
0
0
0
0
0
0
0
0
0
0
0
0
0
0
0
0
0
0
0
0
0
0
0
0
0
0
0
0
0
0
0
0
0
0
0
0
0
0
0
0
0
0
0
0
0
0
0
0
0
0
0
0
0
0
0
0
0
0
0
0
0
0
0
0
0
0
0
0
0
0
0
0
0
0
0
0
0
0
0
0
0
0
0
0
0
0
0
0
0
0
0
0
0
0
0
0
0
0
0
0
0
0
0
0
0
0
0
0
0
0
0
0
0
0
0
0
0
0
0
0
0
0
0
0
0
0
0
0
0
0
0
0
0
0
0
0
0
0
0
0
0
0
0
0
0
0
0
0
0
0
0
0
0
0
0
0
0
0
0
0
0
0
0
0
0
0
0
0
0
0
0
0
0
0
0
0
0
0
0
0
0
0
0
0
0
0
0
0
0
0
0
0
0
0
0
0
0
0
0
0
0
0
0
0
0
0
0
0
0
0
0
0
0
0
0
0
0
0
0
0
0
0
0
0
0
0
0
0
0
0
0
0
0
0
0
0
0
0
0
0
0
0
0
0
0
0
0
0
0
0
0
0
0
0
0
0
0
0
0
0
0
0
0
0
0
0
0
0
0
0
0
0
0
0
0
0
0
0
0
0
0
0
0
0
0
0
0
0
0
0
0
0
0
0
0
0
0
0
0
0
0
0
0
0
0
0
0
0
0
0
0
0
0
0
0
0
0
0
0
0
0
0
0
0
0
0
0
0
0
0
0
0
0
0
0
0
0
0
0
0
0
0
0
0
0
0
0
0
0
0
0
0
0
0
0
0
0
0
0
0
0
0
0
0
0
0
0
0
0
0
0
0
0
0
0
0
0
0
0
0
0
0
0
0
0
0
0
0
0
0
0
0
0
0
0
0
0
0
0
0
0
0
0
0
0
0
0
0
0
0
0
0
0
0
0
0
0
0
0
0
0
0
0
0
0
0
0
0
0
0
0
0
0
0
0
0
0
0
0
0
0
0
0
0
0
0
0
0
0
0
0
0
0
0
0
0
0
0
0
0
0
0
0
0
0
0
0
0
0
0
0
0
0
0
0
0
0
0
0
0
0
0
0
0
0
0
0
0
0
0
0
0
0
0
0
0
0
0
0
0
0
0
0
0
0
0
0
0
0
0
0
0
0
0
0
0
0
0
0
0
0
0
0
0
0
0
0
0
0
0
0
0
0
0
0
0
0
0
0
0
0
0
0
0
0
0
0
0
0
0
0
0
0
0
0
0
0
0
0
0
0
0
0
0
0
0
0
0
0
