-0.813658
-0.818462
-0.812198
-0.798418
-0.781577
-0.765725
-0.753468
-0.7454
-0.740227
-0.735526
-0.728852
-0.718822
-0.705555
-0.691346
-0.679664
-0.673914
-0.67622
-0.686662
-0.703217
-0.722344
-0.739931
-0.752316
-0.757405
-0.75415
-0.74158
-0.718595
-0.684129
-0.63717
-0.576921
-0.502629
-0.41307
-0.307788
-0.188542
-0.0617538
0.0585512
0.155279
0.212256
0.217187
0.165154
0.0615938
-0.0772322
-0.22766
-0.365286
-0.473376
-0.554683
-0.617654
-0.666232
-0.702066
-0.726937
-0.742415
-0.749716
-0.74975
-0.74337
-0.731598
-0.715803
-0.698131
-0.682378
-0.673761
-0.67794
-0.700041
-0.743561
-0.809479
-0.895829
-0.99782
-1.11262
-0.840657
0
1.51494
3.63938
6.09925
8.41738
10.0156
10.4041
9.39678
7.24543
4.59332
2.23216
0.765518
0.361023
0.730754
1.03386
1.15143
1.21441
1.22968
1.21503
1.19248
1.18013
1.1867
1.20526
1.23257
1.26737
1.30973
1.36136
1.42508
1.50368
1.5986
1.7139
1.84425
1.97368
2.08443
2.16288
2.20426
2.21453
2.20891
2.20748
2.22958
2.28641
2.37474
2.48704
2.61764
2.76259
2.91858
3.08311
3.2549
3.43405
3.62172
3.81976
4.03022
4.25905
4.5293
4.88141
5.28884
5.66922
5.94465
6.07123
6.0532
5.93195
5.75548
5.54615
5.28371
4.94291
4.54034
4.09958
3.63872
3.17246
2.71254
2.2685
1.84993
1.46482
1.11885
0.814943
0.553211
0.331284
0.144896
-0.0113155
-0.142956
-0.255081
-0.351587
-0.434883
-0.505896
-0.564396
-0.609588
-0.640209
-0.654345
-0.651263
-0.635329
-0.613543
-0.592594
-0.576766
-0.566611
-0.559003
-0.548606
-0.530203
-0.500964
-0.462991
-0.420135
-0.377263
-0.339632
-0.311704
-0.296302
-0.29425
-0.304463
-0.324369
-0.350378
-0.378636
-0.405977
-0.430025
-0.449205
-0.462635
-0.47058
-0.473906
-0.47367
-0.470759
-0.465708
-0.458782
-0.450253
-0.440689
-0.431305
-0.423849
-0.420169
-0.421603
-0.428428
-0.439592
-0.452856
-0.465311
-0.474063
-0.477099
-0.47358
-0.463132
-0.445701
-0.421309
-0.389791
-0.350763
-0.30323
-0.245063
-0.175696
-0.101708
-0.0349848
0.0118517
0.0301968
0.0194006
-0.0120226
-0.0487154
-0.0736054
-0.0737736
-0.0490479
-0.00741711
0.0448622
0.103844
0.166015
0.228989
0.291705
0.3541
0.416446
0.478382
0.537359
0.587558
0.621007
0.629308
0.60599
0.548565
0.459702
0.347131
0.222273
0.0979101
-0.0152916
-0.11325
-0.196028
-0.263403
-0.316098
-0.356833
-0.389742
-0.419015
-0.448071
-0.478963
-0.512176
-0.546815
-0.58114
-0.613238
-0.641759
-0.666054
-0.686278
-0.703235
-0.718049
-0.731845
-0.745353
-0.60107
0
1.28451
3.27628
5.71066
8.04531
9.62464
9.93753
8.85369
6.70689
4.16109
1.91717
0.420972
-0.263932
-0.367463
-0.185981
-0.0113007
0.156282
0.310985
0.448072
0.568956
0.676673
0.773591
0.861625
0.942413
1.01759
1.08859
1.15649
1.22191
1.28509
1.34606
1.40504
1.46268
1.52041
1.58048
1.64589
1.72009
1.80644
1.90772
2.0257
2.16077
2.31221
2.47888
2.6596
2.85341
3.05988
3.279
3.51091
3.75557
4.01237
4.27997
4.55641
4.83931
5.12658
5.4165
5.70618
5.98923
6.2524
6.47355
6.62791
6.69887
6.68345
6.58806
6.41792
6.16789
5.82371
5.39843
4.92505
4.43294
3.94378
3.47252
3.03034
2.62794
2.27422
1.97595
1.73039
1.52952
1.363
1.22059
1.09425
0.979237
0.874168
0.780061
0.69892
0.631087
0.577038
0.535716
0.505008
0.482421
0.465857
0.454204
0.447592
0.447235
0.454942
0.472305
0.500168
0.53838
0.585519
0.639058
0.695801
0.752431
0.806109
0.854816
0.897362
0.933334
0.962859
0.986298
1.00391
1.01583
1.02212
1.02295
1.01879
1.0106
0.999863
0.9883
0.977521
0.968722
0.962179
0.956657
0.950048
0.9402
0.925795
0.906907
0.885004
0.862374
0.841227
0.822923
0.807469
0.793755
0.780241
0.765786
0.750249
0.734605
0.720608
0.710207
0.704752
0.704576
0.710104
0.721395
0.73818
0.759796
0.785241
0.812655
0.838569
0.858575
0.868564
0.866121
0.851777
0.829595
0.806758
0.79217
0.794458
0.819268
0.868018
0.943175
1.04608
1.17755
1.32923
1.47717
1.59266
1.64119
1.59264
1.43958
1.20972
0.960846
0.758316
0.646229
0.590407
0.558194
0.541261
0.534204
0.532451
0.532732
0.533047
0.532248
0.529446
0.523557
0.513169
0.496325
0.470909
0.435012
0.38727
0.326786
0.251892
0.162514
0.06175
-0.0465538
-0.168005
0
0.670646
1.98812
3.89098
6.07384
8.03617
9.2218
9.2155
7.93108
5.69969
3.17973
1.09346
-0.0868557
-0.323394
0.0441814
0.257092
0.448586
0.606718
0.732053
0.844485
0.951953
1.05837
1.16588
1.27453
1.38273
1.48797
1.5878
1.68075
1.76686
1.84772
1.92607
2.00514
2.08789
2.17634
2.27146
2.37348
2.48218
2.59732
2.71905
2.84811
2.98581
3.13377
3.29342
3.46555
3.64999
3.84539
4.04936
4.25875
4.47003
4.67965
4.88437
5.08131
5.26806
5.44237
5.60186
5.74449
5.86851
5.97198
6.052
6.10387
6.12061
6.09559
6.02138
5.89035
5.69636
5.43665
5.11344
4.7346
4.31314
3.86565
3.41108
2.96334
2.53388
2.13191
1.76407
1.4344
1.1445
0.893788
0.679803
0.498672
0.345324
0.214256
0.100245
0.000244904
-0.0865376
-0.159907
-0.218139
-0.258457
-0.278792
-0.279134
-0.261965
-0.231694
-0.193473
-0.151993
-0.110787
-0.0718758
-0.0372921
-0.00884056
0.0117336
0.0229004
0.0238235
0.0148544
-0.00222931
-0.0243912
-0.0479038
-0.0691654
-0.0857746
-0.0969467
-0.102884
-0.104757
-0.104646
-0.104757
-0.10685
-0.111879
-0.119926
-0.130461
-0.142804
-0.156604
-0.172181
-0.190521
-0.213004
-0.240916
-0.274926
-0.314724
-0.358919
-0.405172
-0.450521
-0.491966
-0.527007
-0.553635
-0.570391
-0.576105
-0.569389
-0.551698
-0.53195
-0.520903
-0.527762
-0.556627
-0.604213
-0.660071
-0.709553
-0.738548
-0.738216
-0.71541
-0.677463
-0.629655
-0.579614
-0.534804
-0.50075
-0.479921
-0.471301
-0.471136
-0.474465
-0.402804
-0.0745712
0.402964
0.840352
1.0487
0.930938
0.525079
-0.0221115
-0.523046
-0.800578
-0.836504
-0.822094
-0.79783
-0.770145
-0.741939
-0.715041
-0.690491
-0.669757
-0.65527
-0.650508
-0.660082
-0.688333
-0.737568
-0.806779
-0.891411
-0.984276
-1.07722
-1.1636
-1.2397
-1.30331
-1.35452
-1.39554
-1.42204
-0.97427
0
1.5938
3.71595
6.04773
8.10786
9.39008
9.53399
8.47064
6.47604
4.08937
1.91408
0.391397
-0.342041
-0.44467
-0.309438
-0.228872
-0.157628
-0.0917484
-0.0257393
0.0439587
0.119108
0.199687
0.28376
0.368212
0.449834
0.526834
0.599121
0.667021
0.73153
0.794182
0.856812
0.921349
0.989684
1.06356
1.14445
1.23351
1.33149
1.43877
1.55544
1.68147
1.81688
1.96181
2.11657
2.28153
2.457
2.64303
2.83936
3.04537
3.26004
3.48197
3.70935
3.93984
4.17049
4.39623
4.60853
4.79749
4.95395
5.06963
5.13753
5.15152
5.10558
4.99355
4.80991
4.55173
4.22395
3.83683
3.40462
2.94628
2.48341
2.03014
1.59645
1.19076
0.818951
0.484237
0.187465
-0.0724354
-0.29786
-0.49122
-0.654547
-0.790835
-0.902996
-0.993412
-1.064
-1.11636
-1.15169
-1.17141
-1.17705
-1.17038
-1.15356
-1.12908
-1.09968
-1.06807
-1.03656
-1.00675
-0.979191
-0.95364
-0.929226
-0.904659
-0.878538
-0.849632
-0.817081
-0.780461
-0.739727
-0.69508
-0.646815
-0.595217
-0.540549
-0.483153
-0.423601
-0.362834
-0.302353
-0.244359
-0.1911
-0.144279
-0.104467
-0.0708231
-0.0412821
-0.0132204
0.0156031
0.0464041
0.0779907
0.106538
0.127029
0.135103
0.128749
0.109229
0.0809441
0.0503469
0.0243238
0.00823956
0.0040987
0.0116287
0.0298651
0.0576668
0.0936293
0.136172
0.183546
0.233257
0.2814
0.323303
0.354616
0.372393
0.376151
0.368343
0.353905
0.338875
0.328535
0.32579
0.329739
0.338184
0.348065
0.356799
0.363321
0.368432
0.374385
0.383986
0.399571
0.421298
0.448266
0.479171
0.511708
0.541833
0.564141
0.573192
0.564478
0.535551
0.486864
0.421972
0.346917
0.268877
0.194487
0.127542
0.0685832
0.017411
-0.027653
-0.0690298
-0.109099
-0.149526
-0.190858
-0.232473
-0.272873
-0.310199
-0.342838
-0.37001
-0.391629
-0.408487
-0.422057
-0.433961
-0.445497
-0.457286
-0.469149
-0.480241
-0.454828
0
1.06174
2.81142
5.12452
7.63245
9.77011
10.9334
10.7154
9.11599
6.5926
3.89009
1.72139
0.477112
0.124059
0.326521
0.440483
0.546236
0.637863
0.713354
0.777629
0.835753
0.891896
0.950261
1.01423
1.08604
1.16659
1.25541
1.35089
1.45073
1.55244
1.65379
1.7533
1.85043
1.94564
2.04024
2.13614
2.23555
2.34064
2.45335
2.57515
2.70697
2.84904
3.00089
3.16139
3.32887
3.50144
3.67727
3.85499
4.03393
4.21424
4.3968
4.583
4.77433
4.97263
5.18112
5.40258
5.62973
5.84198
6.01542
6.12944
6.1713
6.13664
6.02611
5.84042
5.57766
5.23519
4.83028
4.38582
3.92087
3.44985
2.98352
2.5317
2.10404
1.70919
1.35421
1.04418
0.781546
0.567865
0.404646
0.28762
0.207924
0.155831
0.122092
0.0989748
0.0807949
0.0638914
0.046217
0.0268059
0.00549011
-0.0173996
-0.0412682
-0.0650785
-0.0873398
-0.106279
-0.120138
-0.127532
-0.127758
-0.120977
-0.108209
-0.0911938
-0.0721493
-0.0535141
-0.0376562
-0.0268139
-0.0228807
-0.0272146
-0.0404917
-0.0625753
-0.0924828
-0.128508
-0.168528
-0.210433
-0.25259
-0.294118
-0.335099
-0.376282
-0.418473
-0.461866
-0.505565
-0.547515
-0.584894
-0.614845
-0.635378
-0.64585
-0.64705
-0.641087
-0.630776
-0.618944
-0.607875
-0.599025
-0.593032
-0.58993
-0.589412
-0.590939
-0.593959
-0.597833
-0.601735
-0.604642
-0.605406
-0.602913
-0.596273
-0.584969
-0.568834
-0.548062
-0.5231
-0.494549
-0.463084
-0.429451
-0.394518
-0.359463
-0.326019
-0.296374
-0.2727
-0.256604
-0.248436
-0.246724
-0.247961
-0.246926
-0.237536
-0.214104
-0.17337
-0.115123
-0.0405327
0.0476635
0.141923
0.234211
0.318121
0.390571
0.45259
0.509003
0.56715
0.638032
0.7444
0.912152
1.12782
1.33957
1.4986
1.56996
1.53563
1.39629
1.17403
0.91299
0.673921
0.512026
0.425115
0.383885
0.369841
0.379294
0.408609
0.449932
0.493299
0.529777
0.552896
0.55947
0.549549
0.525507
0.490515
0.446922
0.395409
0.335455
0.26599
0.183478
0.0844793
-0.0291866
-0.152879
-0.316307
0
1.01846
2.83035
5.28947
7.97953
10.2688
11.4922
11.2231
9.50641
6.89385
4.21508
2.19784
1.16229
0.969809
1.22302
1.31353
1.37875
1.42244
1.44287
1.44434
1.43584
1.4285
1.43248
1.45302
1.48957
1.53876
1.59729
1.66219
1.73087
1.80166
1.874
1.94817
2.02495
2.10516
2.1894
2.27815
2.37219
2.47278
2.58179
2.70159
2.83469
2.98325
3.14855
3.33066
3.52832
3.73922
3.96025
4.18777
4.41787
4.64657
4.86997
5.0844
5.28659
5.47428
5.64635
5.80297
5.945
6.07164
6.17952
6.26363
6.31553
6.3204
6.26097
6.1228
5.89891
5.59212
5.21483
4.78664
4.33486
3.88048
3.43441
3.00573
2.60184
2.22832
1.8889
1.58569
1.31934
1.08959
0.895335
0.734567
0.60463
0.502543
0.425225
0.369732
0.333038
0.312133
0.304098
0.306055
0.315156
0.328676
0.344085
0.3593
0.372872
0.384072
0.392819
0.399457
0.404429
0.407965
0.409841
0.40938
0.405665
0.397862
0.385608
0.369278
0.350042
0.329681
0.310198
0.29337
0.280321
0.271269
0.265828
0.263202
0.262412
0.262584
0.263138
0.263867
0.264881
0.266456
0.268839
0.272062
0.275834
0.279364
0.281483
0.280961
0.276843
0.268728
0.256886
0.242178
0.225824
0.209123
0.193193
0.178774
0.166367
0.156144
0.147889
0.140963
0.134146
0.12561
0.113199
0.0947668
0.0685411
0.033411
-0.0109276
-0.0639673
-0.124445
-0.190361
-0.258763
-0.326246
-0.388366
-0.440024
-0.475854
-0.490192
-0.464536
-0.372201
-0.226756
-0.0719141
0.0450453
0.0907389
0.0564417
-0.0413063
-0.168646
-0.286312
-0.361045
-0.389774
-0.386216
-0.360122
-0.311807
-0.241679
-0.152196
-0.0548508
0.029417
0.0777599
0.069725
-0.00524483
-0.140342
-0.309146
-0.472149
-0.590958
-0.648232
-0.653208
-0.626658
-0.598586
-0.595706
-0.63014
-0.6942
-0.76355
-0.807527
-0.802308
-0.751195
-0.675668
-0.586993
-0.496914
-0.417163
-0.357353
-0.323453
-0.317063
-0.335533
-0.372712
-0.428284
-0.386301
0
0.909016
2.415
4.36683
6.36878
7.87814
8.39894
7.69367
5.91111
3.55615
1.29685
-0.306414
-1.01193
-0.940475
-0.539937
-0.221033
0.05116
0.264118
0.422963
0.554217
0.664454
0.758227
0.840112
0.914147
0.983468
1.05018
1.11544
1.17972
1.24312
1.30568
1.36761
1.42939
1.49187
1.55628
1.62416
1.69738
1.77805
1.86838
1.97041
2.08575
2.21516
2.35828
2.51346
2.67778
2.8474
3.01805
3.18569
3.34731
3.50157
3.64918
3.79278
3.93663
4.0858
4.24796
4.44569
4.73978
5.16815
5.61435
6.00738
6.30982
6.47238
6.44337
6.20453
5.79642
5.30505
4.81302
4.34012
3.85217
3.37479
2.91291
2.46939
2.05141
1.66575
1.31762
1.01026
0.744804
0.520447
0.334757
0.1842
0.0660024
-0.022032
-0.0857864
-0.133175
-0.171584
-0.207037
-0.243507
-0.282659
-0.324091
-0.365983
-0.405836
-0.441441
-0.471291
-0.493412
-0.506031
-0.507709
-0.497535
-0.475438
-0.442431
-0.40066
-0.353178
-0.303462
-0.25481
-0.209759
-0.169859
-0.135677
-0.107107
-0.0840605
-0.0668427
-0.056088
-0.052834
-0.0581252
-0.0723374
-0.094602
-0.122577
-0.152685
-0.180744
-0.202797
-0.216279
-0.220263
-0.214413
-0.199339
-0.176293
-0.146888
-0.113067
-0.0766729
-0.0402733
-0.00755491
0.0172881
0.0301371
0.0278666
0.00932016
-0.0240122
-0.0679088
-0.116041
-0.161195
-0.196839
-0.219613
-0.228945
-0.225338
-0.211129
-0.189821
-0.165216
-0.140565
-0.117801
-0.0974998
-0.0788652
-0.059968
-0.0381734
-0.010659
0.0249576
0.0702552
0.125808
0.191011
0.264051
0.342165
0.421646
0.498141
0.567268
0.625136
0.668685
0.695897
0.705867
0.69876
0.675681
0.638476
0.589474
0.531183
0.465957
0.395658
0.321354
0.243176
0.160383
0.0716501
-0.0252877
-0.134824
-0.261147
-0.397653
-0.52582
-0.623462
-0.671814
-0.661673
-0.596395
-0.490995
-0.367794
-0.249847
-0.151839
-0.0740391
-0.0113012
-0.0839478
0
0.734513
2.34502
4.71003
7.32047
9.43774
10.3838
9.82942
7.94005
5.30866
2.7068
0.77505
-0.195844
-0.297755
0.139048
0.501007
0.823992
1.07992
1.25451
1.38803
1.49375
1.5759
1.63927
1.68867
1.72888
1.76424
1.79862
1.83538
1.8774
1.92835
1.99205
2.06418
2.13088
2.17538
2.18456
2.15488
2.09458
2.02082
1.95299
1.90548
1.87799
1.86211
1.8527
1.84474
1.83277
1.8123
1.78071
1.73778
1.68571
1.62877
1.57235
1.52181
1.4813
1.45176
1.43243
1.42066
1.41186
1.39919
1.37329
1.32385
1.24015
1.11216
0.931854
0.694587
0.400334
0.0542792
-0.333375
-0.748369
-1.17324
-1.59374
-1.9978
-2.37558
-2.72014
-3.0277
-3.29737
-3.53069
-3.73074
-3.90109
-4.0439
-4.16086
-4.25389
-4.32428
-4.37286
-4.40065
-4.40938
-4.40159
-4.38042
-4.34889
-4.30928
-4.26276
-4.20922
-4.1473
-4.07544
-3.99269
-3.8995
-3.79682
-3.68929
-3.58525
-3.49304
-3.41858
-3.36346
-3.32434
-3.29375
-3.26206
-3.21993
-3.1609
-3.08455
-2.99277
-2.88744
-2.77045
-2.64373
-2.50883
-2.3668
-2.21819
-2.06342
-1.90303
-1.73805
-1.57009
-1.40134
-1.23442
-1.07206
-0.916924
-0.771402
-0.63776
-0.518407
-0.415313
-0.328841
-0.258366
-0.202126
-0.157178
-0.119629
-0.0851532
-0.0497469
-0.0105097
0.0337806
0.0822401
0.132729
0.182586
0.228966
0.269336
0.301823
0.325362
0.339669
0.345177
0.342923
0.334497
0.32196
0.308007
0.295881
0.289136
0.291332
0.305623
0.334295
0.378307
0.436933
0.509903
0.593543
0.678144
0.752644
0.807257
0.835531
0.835409
0.808939
0.760856
0.696758
0.621708
0.540793
0.457534
0.374442
0.293903
0.218295
0.150465
0.0933524
0.0464262
0.00729666
-0.0273636
-0.060521
-0.0936913
-0.126566
-0.157493
-0.184518
-0.206453
-0.224261
-0.239219
-0.252616
-0.26568
-0.279214
-0.293414
-0.307922
-0.318283
0
0.905565
2.55675
4.85601
7.39862
9.56906
10.749
10.5572
9.0182
6.57712
3.93818
1.78763
0.530001
0.170086
0.394763
0.562655
0.713634
0.836468
0.924964
0.988294
1.03531
1.06947
1.09472
1.11511
1.1344
1.15594
1.18271
1.21736
1.26234
1.31994
1.39206
1.48
1.58413
1.70368
1.83665
1.97999
2.13009
2.28334
2.43688
2.5892
2.74061
2.89331
3.05122
3.21945
3.40366
3.60922
3.84055
4.10049
4.38994
4.70763
5.05018
5.4124
5.78815
6.17092
6.55103
6.91438
7.24092
7.50924
7.71382
7.85272
7.91826
7.89878
7.78473
7.57385
7.27284
6.89624
6.46517
6.01306
5.5621
5.12093
4.695
4.2907
3.91346
3.56763
3.25636
2.98148
2.74341
2.54109
2.37192
2.23186
2.11577
2.01785
1.9322
1.85372
1.77877
1.70568
1.63477
1.56808
1.50854
1.45967
1.42563
1.40775
1.40265
1.4049
1.40885
1.41044
1.40832
1.40384
1.40009
1.4004
1.40674
1.4188
1.43533
1.45479
1.47526
1.49461
1.51072
1.52127
1.52416
1.51776
1.50103
1.47385
1.43716
1.39304
1.34433
1.29421
1.24556
1.20037
1.15973
1.12413
1.09359
1.06798
1.04728
1.03166
1.02146
1.01695
1.01818
1.02475
1.03539
1.04805
1.06042
1.07037
1.07636
1.07769
1.07442
1.06717
1.05671
1.04369
1.0285
1.01133
0.992313
0.971907
0.951069
0.931279
0.914334
0.901974
0.895652
0.896392
0.904027
0.917945
0.937651
0.96327
0.995763
1.03671
1.08773
1.14971
1.22187
1.30148
1.38532
1.4687
1.54603
1.61185
1.66135
1.69068
1.69703
1.67853
1.63418
1.56389
1.46871
1.35186
1.21803
1.07269
0.921974
0.772415
0.630117
0.500327
0.386942
0.29176
0.214856
0.154959
0.109897
0.0769373
0.0531145
0.0355688
0.0200356
0.00179615
-0.0235626
-0.0594381
-0.107569
-0.167733
-0.237931
-0.314971
-0.400171
0
0.886091
2.34502
4.3394
6.64134
8.81736
10.3172
10.6659
9.68644
7.62833
5.09854
2.80606
1.25646
0.571261
0.52806
0.699416
0.81136
0.911824
0.999828
1.07555
1.14272
1.20335
1.25829
1.30821
1.35389
1.3964
1.43717
1.47798
1.52073
1.56718
1.61862
1.67571
1.73841
1.80641
1.87953
1.95798
2.04268
2.13534
2.23813
2.35329
2.48257
2.62677
2.78554
2.9575
3.14068
3.33311
3.53323
3.7401
3.95338
4.17302
4.39889
4.63045
4.86681
5.10699
5.35025
5.59647
5.85255
6.13638
6.41864
6.63027
6.70042
6.59407
6.32764
5.9562
5.54146
5.11844
4.68959
4.26038
3.83469
3.41522
3.00615
2.6122
2.23821
1.88873
1.56771
1.27823
1.0223
0.800745
0.613403
0.458595
0.333543
0.234718
0.158176
0.0998904
0.0560103
0.0232969
-0.00115871
-0.019937
-0.0349372
-0.0472908
-0.0573214
-0.0646098
-0.0682085
-0.0669916
-0.0600806
-0.0472955
-0.029229
-0.00758839
0.0146508
0.0330643
0.042451
0.0381854
0.0171403
-0.0213125
-0.0746034
-0.136833
-0.199384
-0.252265
-0.283868
-0.265485
-0.176334
-0.0489278
0.0671738
0.126569
0.106747
0.0167627
-0.107667
-0.221019
-0.289537
-0.313017
-0.317601
-0.315373
-0.314112
-0.317756
-0.325805
-0.33469
-0.340282
-0.340269
-0.335994
-0.330157
-0.325056
-0.322657
-0.324
-0.328949
-0.3363
-0.344156
-0.350457
-0.353522
-0.352156
-0.345736
-0.334276
-0.318316
-0.298808
-0.277033
-0.254235
-0.231119
-0.207553
-0.182483
-0.154126
-0.120434
-0.0797286
-0.030741
0.0262797
0.0882422
0.14956
0.202923
0.240998
0.257897
0.25018
0.21755
0.163066
0.0928036
0.0148516
-0.0622477
-0.131326
-0.189176
-0.236861
-0.276061
-0.309568
-0.340616
-0.371886
-0.404704
-0.438635
-0.471583
-0.50033
-0.521363
-0.531953
-0.530388
-0.516418
-0.49117
-0.456753
-0.415732
-0.370708
-0.323185
-0.280773
0
0.682286
1.85756
3.47565
5.28957
6.8732
7.73378
7.5042
6.13446
3.9691
1.63605
-0.21981
-1.21428
-1.35131
-0.898803
-0.460976
-0.0843842
0.179287
0.303178
0.377278
0.432473
0.474604
0.507914
0.536613
0.564597
0.595276
0.63142
0.675203
0.728484
0.792807
0.869294
0.95849
1.0602
1.17335
1.29606
1.42585
1.56004
1.69627
1.83297
1.96966
2.10719
2.24766
2.39411
2.55015
2.71943
2.90518
3.10972
3.33417
3.57827
3.84034
4.11734
4.40527
4.69987
4.99428
5.27736
5.53334
5.74567
5.90487
6.00391
6.03772
6.00346
5.90128
5.73478
5.51069
5.23776
4.92733
4.5948
4.2516
3.9042
3.55666
3.21261
2.87569
2.5495
2.23752
1.94298
1.6687
1.41685
1.18879
0.984851
0.804419
0.646036
0.507725
0.387592
0.284964
0.199833
0.131872
0.0811997
0.0480706
0.0323013
0.0328585
0.0477568
0.0742836
0.109428
0.150317
0.194293
0.239314
0.283689
0.325478
0.362385
0.392028
0.412125
0.420933
0.417682
0.402829
0.378045
0.345962
0.30977
0.272807
0.237966
0.2074
0.182893
0.165665
0.156282
0.154636
0.160007
0.171205
0.186808
0.205412
0.22583
0.247189
0.268885
0.29045
0.311382
0.33103
0.348565
0.363053
0.373581
0.379393
0.379984
0.375154
0.365022
0.350082
0.331226
0.309712
0.287382
0.266772
0.251159
0.244106
0.248809
0.267585
0.301323
0.349164
0.408549
0.475709
0.546511
0.617441
0.686503
0.753489
0.819343
0.885664
0.954347
1.02495
1.08741
1.12335
1.11229
1.0405
0.908849
0.735589
0.551878
0.391199
0.277363
0.199952
0.150336
0.122572
0.109694
0.10584
0.10744
0.113227
0.123339
0.138034
0.156108
0.175711
0.194168
0.207979
0.213228
0.206293
0.184303
0.145584
0.0900019
0.0180969
-0.0666845
-0.159533
-0.292031
0
0.964657
2.67253
4.91911
7.25291
9.10711
9.98534
9.63381
8.14175
5.92842
3.60379
1.74455
0.681753
0.405132
0.633554
0.730321
0.820556
0.903639
0.980325
1.05439
1.12898
1.2067
1.28886
1.37527
1.4645
1.55459
1.64384
1.73145
1.81773
1.90383
1.99126
2.08138
2.17487
2.27186
2.37228
2.47606
2.5834
2.69485
2.81121
2.93335
3.0619
3.19714
3.339
3.4873
3.64199
3.80347
3.97264
4.15085
4.33959
4.54012
4.75311
4.97845
5.2155
5.4652
5.73194
6.0243
6.34577
6.66971
6.94589
7.11549
7.13851
7.01406
6.77624
6.46646
6.10184
5.66696
5.18367
4.68691
4.1927
3.70853
3.24054
2.79556
2.37943
1.99676
1.65078
1.34339
1.07578
0.848771
0.66112
0.510634
0.394247
0.308108
0.247753
0.2084
0.185319
0.174206
0.17148
0.174298
0.180737
0.189543
0.199792
0.210594
0.220851
0.229102
0.233538
0.232259
0.223653
0.206789
0.181783
0.14998
0.113874
0.0767201
0.041913
0.0122869
-0.0101452
-0.0248575
-0.0331383
-0.0372049
-0.0393967
-0.0414469
-0.044071
-0.0469568
-0.0490643
-0.0490566
-0.0458672
-0.0388472
-0.0274298
-0.0113697
0.00922012
0.033799
0.0613766
0.0903818
0.118744
0.144102
0.164077
0.176688
0.180643
0.175576
0.162147
0.142004
0.11758
0.0917552
0.0674446
0.0471659
0.0326033
0.0246166
0.0235043
0.0289207
0.0403606
0.0574735
0.0802081
0.108713
0.143024
0.182777
0.227195
0.27378
0.319075
0.360003
0.395066
0.425176
0.453754
0.485997
0.52752
0.582837
0.653207
0.739602
0.840126
0.950262
1.06139
1.15857
1.22653
1.25007
1.21646
1.12104
0.973149
0.7979
0.630358
0.503414
0.429779
0.389517
0.369103
0.361781
0.360504
0.35927
0.354077
0.34264
0.32403
0.29811
0.265342
0.226182
0.180584
0.128221
0.0689655
0.0033721
-0.0671432
-0.14024
-0.212978
-0.282742
-0.347638
-0.36758
0
0.941707
2.60919
4.91817
7.50309
9.78493
11.1465
11.1601
9.77725
7.3847
4.67709
2.38438
0.983518
0.538703
0.748207
0.878015
0.913128
0.931709
0.939005
0.94299
0.952736
0.976498
1.01889
1.07885
1.15603
1.24808
1.35128
1.46091
1.57256
1.68236
1.78715
1.88457
1.97334
2.05359
2.12683
2.19587
2.26461
2.33761
2.41951
2.51427
2.62457
2.75131
2.89332
3.04806
3.21238
3.38296
3.5568
3.7316
3.9059
4.07901
4.25092
4.42214
4.59361
4.76677
4.94536
5.14485
5.42038
5.79913
6.1936
6.50845
6.66899
6.64291
6.44452
6.11964
5.71828
5.26577
4.75213
4.20538
3.66607
3.14487
2.64532
2.17458
1.74048
1.3491
1.00425
0.70717
0.456685
0.249523
0.0809523
-0.0545051
-0.162392
-0.247773
-0.31494
-0.367303
-0.407465
-0.437361
-0.458423
-0.47173
-0.478053
-0.477885
-0.471513
-0.459173
-0.441263
-0.418416
-0.391721
-0.363477
-0.336765
-0.314629
-0.299398
-0.29216
-0.292627
-0.29941
-0.310596
-0.324381
-0.339466
-0.355294
-0.371922
-0.389749
-0.409317
-0.43112
-0.455409
-0.481954
-0.509746
-0.536881
-0.559782
-0.573784
-0.573943
-0.556283
-0.519108
-0.46392
-0.395529
-0.321263
-0.249475
-0.187825
-0.141295
-0.112577
-0.101745
-0.106837
-0.124703
-0.15157
-0.18362
-0.217943
-0.252207
-0.284353
-0.312617
-0.335567
-0.352159
-0.361779
-0.364231
-0.35969
-0.348621
-0.33171
-0.30986
-0.284096
-0.255438
-0.224896
-0.193315
-0.161156
-0.128351
-0.0942852
-0.0579766
-0.0183171
0.0258455
0.0746232
0.124517
0.168511
0.198918
0.210495
0.203268
0.183838
0.164459
0.160034
0.18406
0.243782
0.359874
0.53062
0.72241
0.894237
1.01545
1.06974
1.05303
0.970528
0.836002
0.671516
0.503769
0.354887
0.230953
0.125742
0.0327528
-0.0506392
-0.123622
-0.184505
-0.23118
-0.261774
-0.274442
-0.268646
-0.246332
-0.212634
-0.176381
-0.148057
-0.13715
-0.150663
-0.19207
-0.26081
-0.352353
-0.458827
-0.570132
-0.550446
0
1.19642
3.0712
5.42948
7.83755
9.71816
10.5401
10.0329
8.32422
5.91472
3.48143
1.60085
0.536026
0.197072
0.279884
0.347843
0.412807
0.473076
0.527836
0.577763
0.624496
0.670379
0.717898
0.769111
0.825273
0.886828
0.9534
1.02428
1.09884
1.17677
1.25809
1.34289
1.43102
1.52192
1.61454
1.70785
1.80118
1.89455
1.98891
2.08624
2.1893
2.30136
2.42571
2.56521
2.72198
2.89707
3.09043
3.30095
3.5267
3.76514
4.01345
4.26864
4.52766
4.78738
5.04338
5.2887
5.5137
5.70649
5.8556
5.95212
5.98787
5.95521
5.84744
5.66004
5.39267
5.05127
4.64948
4.2116
3.76434
3.32446
2.90178
2.50548
2.14219
1.81558
1.52643
1.27309
1.05233
0.860224
0.693051
0.548076
0.423887
0.319895
0.236033
0.172354
0.128459
0.103079
0.0939026
0.09817
0.112228
0.131969
0.153992
0.176207
0.198202
0.221217
0.247734
0.280708
0.323951
0.38241
0.455298
0.531883
0.597538
0.63814
0.644253
0.613658
0.551725
0.470006
0.383789
0.308721
0.253812
0.221612
0.211687
0.224059
0.259891
0.31396
0.373903
0.426975
0.463127
0.477273
0.470048
0.446831
0.415462
0.383547
0.356182
0.3342
0.316406
0.301543
0.28819
0.275011
0.261041
0.245846
0.229579
0.212985
0.197258
0.183981
0.17484
0.171283
0.174166
0.183843
0.199613
0.219193
0.2398
0.258883
0.274798
0.287188
0.296977
0.306033
0.316664
0.330995
0.350327
0.375557
0.407006
0.444219
0.486551
0.531926
0.577205
0.619555
0.657452
0.691444
0.724332
0.760586
0.805991
0.869469
0.956986
1.06144
1.16204
1.2343
1.25621
1.21243
1.09724
0.916793
0.690233
0.447871
0.225004
0.0434062
-0.0988683
-0.210919
-0.290064
-0.33716
-0.359073
-0.366133
-0.368017
-0.371753
-0.380621
-0.394205
-0.409529
-0.42281
-0.431182
-0.434103
-0.433121
-0.430008
-0.426274
-0.42295
-0.420949
-0.397604
0
0.931159
2.44409
4.42092
6.53275
8.26547
9.06354
8.56728
6.82827
4.35292
1.90776
0.175125
-0.542067
-0.392836
0.107338
0.390011
0.641464
0.851792
1.02444
1.17062
1.29254
1.39357
1.47734
1.54667
1.60346
1.64976
1.68747
1.71856
1.74596
1.77407
1.80866
1.85616
1.92255
2.01211
2.12461
2.2572
2.40783
2.57349
2.75067
2.93626
3.12768
3.32306
3.52119
3.72151
3.92401
4.1292
4.33798
4.55151
4.77091
4.99704
5.2301
5.46945
5.71375
5.96081
6.20703
6.44574
6.6656
6.85441
7.00179
7.09572
7.12398
7.07639
6.94611
6.72957
6.4264
6.04107
5.59388
5.11463
4.62523
4.13887
3.66486
3.21223
2.78898
2.40168
2.05519
1.75254
1.49479
1.28148
1.11066
0.978067
0.878018
0.804357
0.751156
0.713272
0.686649
0.668338
0.65626
0.648832
0.644588
0.641978
0.639227
0.634524
0.626275
0.61337
0.595371
0.57256
0.545872
0.516739
0.486932
0.458352
0.432898
0.412452
0.398727
0.393089
0.396417
0.408993
0.430186
0.457573
0.486167
0.50971
0.522383
0.520196
0.502046
0.470066
0.429112
0.38549
0.3453
0.312489
0.287603
0.269737
0.257175
0.247394
0.237712
0.225885
0.210527
0.191311
0.168931
0.144875
0.121039
0.0992616
0.0809418
0.0667887
0.0569679
0.0509663
0.0477165
0.0462025
0.0459087
0.0470974
0.0507782
0.0583443
0.07101
0.0902914
0.115197
0.141884
0.165629
0.182687
0.191886
0.195227
0.197199
0.203164
0.217533
0.241217
0.2726
0.310151
0.352251
0.397115
0.44302
0.488405
0.531755
0.571259
0.604284
0.62741
0.637283
0.630739
0.605565
0.561225
0.49927
0.423286
0.338402
0.250514
0.165352
0.0870024
0.018684
-0.0367439
-0.0771814
-0.101272
-0.108149
-0.0971302
-0.0678928
-0.0224957
0.0309898
0.0797365
0.110473
0.111975
0.0772333
0.00458775
-0.102526
-0.237105
-0.390723
-0.554868
-0.72234
-0.58552
0
1.21328
3.09682
5.44167
7.78162
9.51552
10.1216
9.37552
7.46673
4.94644
2.5157
0.747443
-0.11883
-0.211717
0.0712484
0.233893
0.373623
0.485485
0.570841
0.643963
0.711444
0.776343
0.841256
0.908255
0.978783
1.05344
1.1322
1.21454
1.29948
1.38585
1.4726
1.55908
1.64523
1.73149
1.81871
1.90784
1.99979
2.09532
2.1952
2.30041
2.41232
2.53278
2.66408
2.80872
2.96903
3.14675
3.34264
3.55635
3.78632
4.03009
4.28459
4.54657
4.81333
5.08217
5.34793
5.60098
5.82732
6.01154
6.13879
6.19757
6.17996
6.08045
5.8954
5.62482
5.27571
4.86727
4.42894
3.98616
3.55236
3.13308
2.73429
2.361
2.01662
1.70298
1.42048
1.16839
0.945217
0.749086
0.578117
0.430937
0.30641
0.203555
0.121557
0.0595562
0.0164415
-0.00928917
-0.0195889
-0.0168463
-0.00382023
0.0165817
0.0411613
0.0664371
0.0888508
0.105081
0.112303
0.108469
0.0925808
0.0648748
0.0268745
-0.0187548
-0.068545
-0.118722
-0.165821
-0.207304
-0.241808
-0.268815
-0.288763
-0.302792
-0.312396
-0.319065
-0.323959
-0.327694
-0.330278
-0.331186
-0.32957
-0.324557
-0.315569
-0.302575
-0.28609
-0.267492
-0.248711
-0.231786
-0.21846
-0.209891
-0.206524
-0.208163
-0.214136
-0.223511
-0.235183
-0.24815
-0.261562
-0.274761
-0.287391
-0.299497
-0.311602
-0.32465
-0.339735
-0.357721
-0.378842
-0.402432
-0.426896
-0.44996
-0.46917
-0.482476
-0.488965
-0.488366
-0.481706
-0.471151
-0.459208
-0.448154
-0.439604
-0.434358
-0.432482
-0.433526
-0.436735
-0.441138
-0.445571
-0.448585
-0.44843
-0.443182
-0.430995
-0.410407
-0.38077
-0.342474
-0.295986
-0.242169
-0.182182
-0.11718
-0.0485315
0.0218683
0.0909699
0.153626
0.20316
0.233122
0.238655
0.218349
0.175466
0.117848
0.0561882
0.0010643
-0.0402315
-0.0667902
-0.0815411
-0.0904642
-0.0998077
-0.113304
-0.13045
-0.146471
-0.153915
-0.145243
-0.116825
-0.0611347
0.0187546
0.105942
0.179074
0.21835
0.210063
0.149147
0.0397207
-0.106004
-0.270101
-0.395016
0
1.1382
3.07708
5.5825
8.15468
10.1577
11.0236
10.4661
8.61499
5.99492
3.32943
1.25427
0.0869999
-0.23095
-0.0107574
0.116438
0.232326
0.32903
0.403107
0.456947
0.495615
0.526058
0.555078
0.58756
0.625248
0.667993
0.714991
0.765242
0.818008
0.87321
0.931562
0.994456
1.06369
1.14116
1.22853
1.32711
1.43776
1.5609
1.69653
1.84426
2.00343
2.17327
2.35307
2.54237
2.74103
2.94926
3.16737
3.39554
3.63351
3.88038
4.13451
4.39361
4.65494
4.91509
5.16813
5.40328
5.60727
5.76841
5.87555
5.92031
5.8986
5.80998
5.65521
5.43374
5.14359
4.79226
4.3989
3.98056
3.55012
3.11867
2.69635
2.29268
1.9156
1.57063
1.26052
0.985131
0.741825
0.526278
0.333494
0.158825
-0.00120373
-0.148726
-0.282833
-0.396842
-0.478007
-0.513456
-0.496745
-0.432308
-0.335621
-0.228769
-0.133321
-0.0623594
-0.0115122
0.026457
0.0557599
0.0793412
0.100146
0.120582
0.142118
0.165027
0.187928
0.207429
0.218984
0.218028
0.201302
0.168044
0.120692
0.0647952
0.00805245
-0.041335
-0.0765497
-0.0942744
-0.0941773
-0.0790999
-0.053996
-0.024459
0.00466433
0.0306577
0.0523095
0.0691391
0.081185
0.0885509
0.0909603
0.0877425
0.0780571
0.061131
0.0367312
0.00560598
-0.0302578
-0.0676503
-0.102453
-0.130191
-0.146868
-0.149368
-0.134159
-0.0977883
-0.0383614
0.0394492
0.120069
0.184344
0.215623
0.204568
0.153118
0.0757514
-0.003584
-0.0590112
-0.0724533
-0.0487549
-0.00197992
0.0546083
0.106645
0.143426
0.161296
0.164441
0.162869
0.168549
0.191268
0.232557
0.28832
0.354621
0.4279
0.504182
0.578768
0.645542
0.698868
0.734304
0.748896
0.741747
0.714338
0.670342
0.614818
0.553046
0.489377
0.426425
0.36501
0.305252
0.24697
0.189917
0.134002
0.0794113
0.026611
-0.0237082
-0.0707424
-0.113708
-0.151958
-0.185076
-0.212935
-0.235698
-0.253785
-0.267791
-0.278398
-0.286293
-0.292121
-0.296478
-0.292788
0
0.814053
2.31008
4.42545
6.82545
8.97499
10.3056
10.4165
9.23268
7.0553
4.4729
2.15262
0.593528
-0.0428265
0.0597506
0.375432
0.597326
0.783597
0.929121
1.04153
1.13608
1.2178
1.29179
1.36229
1.43217
1.50271
1.57397
1.64533
1.71614
1.78626
1.85641
1.92821
2.00396
2.08626
2.17769
2.28043
2.39625
2.52653
2.67245
2.83505
3.01517
3.21325
3.42898
3.66104
3.907
4.16349
4.42665
4.69272
4.95858
5.22221
5.48269
5.74006
5.99457
6.24592
6.49205
6.72583
6.93431
7.10326
7.2201
7.27579
7.26413
7.17979
7.01734
6.77266
6.44674
6.05198
5.61307
5.15715
4.70356
4.26119
3.83569
3.43241
3.0551
2.70606
2.38651
2.09686
1.83696
1.60613
1.40305
1.22559
1.07071
0.934505
0.812484
0.70027
0.594732
0.494119
0.399609
0.316964
0.255273
0.223138
0.224973
0.25892
0.317143
0.388158
0.459997
0.523456
0.575914
0.617339
0.646574
0.6633
0.667825
0.660893
0.643543
0.617001
0.582644
0.542044
0.4972
0.450342
0.404548
0.364097
0.33339
0.316125
0.314313
0.327574
0.35301
0.385736
0.419888
0.449762
0.471606
0.483655
0.484327
0.473053
0.450213
0.417169
0.37599
0.329419
0.280595
0.232641
0.188177
0.148866
0.11548
0.0874588
0.0632061
0.0409689
0.0195923
-0.000947189
-0.0194154
-0.0336466
-0.0411955
-0.0400659
-0.029393
-0.00930471
0.0191405
0.0543656
0.0946936
0.138426
0.184251
0.230878
0.276908
0.320823
0.361288
0.397568
0.429965
0.46008
0.490747
0.5256
0.568834
0.627292
0.708529
0.809768
0.913353
0.997359
1.04264
1.03866
0.986274
0.897302
0.791309
0.690711
0.613511
0.562865
0.53355
0.519931
0.518174
0.523403
0.530794
0.536499
0.538135
0.534714
0.526107
0.512294
0.492809
0.466972
0.433184
0.389607
0.334728
0.266698
0.184531
0.0901979
-0.0129782
-0.121979
0
0.590345
1.82729
3.73204
6.08492
8.42885
10.1734
10.786
10.0112
8.01753
5.37895
2.8636
1.11517
0.394672
0.5244
0.927162
1.04395
1.13277
1.19113
1.22314
1.2363
1.24094
1.24793
1.26516
1.29548
1.34052
1.40155
1.47859
1.57042
1.6749
1.78903
1.90937
2.03234
2.15472
2.27409
2.38912
2.49972
2.60699
2.71296
2.82028
2.9319
3.0507
3.17928
3.31968
3.47314
3.63994
3.81929
4.00938
4.20767
4.41141
4.61827
4.82691
5.03739
5.25114
5.47227
5.7147
6.01136
6.37421
6.73668
7.02762
7.20829
7.26782
7.20909
7.03923
6.7676
6.40623
5.96785
5.47797
4.97286
4.47549
3.99316
3.52973
3.09238
2.6879
2.32166
1.99726
1.71631
1.4784
1.28144
1.122
0.995981
0.898821
0.825992
0.773472
0.737672
0.715173
0.703117
0.699218
0.701708
0.709188
0.72037
0.733866
0.747581
0.758218
0.761704
0.753819
0.731113
0.691882
0.636883
0.569537
0.494949
0.421171
0.356541
0.308148
0.280683
0.275859
0.29245
0.326816
0.373724
0.427245
0.481512
0.53206
0.575776
0.610526
0.634802
0.647446
0.64776
0.635441
0.610577
0.573778
0.526271
0.47003
0.407888
0.343455
0.28084
0.224134
0.17693
0.142377
0.122861
0.118266
0.124356
0.134549
0.142038
0.141419
0.129889
0.10773
0.0780071
0.0456686
0.0163367
-0.00533955
-0.0169606
-0.017799
-0.00799606
0.011589
0.0393646
0.0731327
0.110409
0.148805
0.186326
0.221581
0.253833
0.283117
0.310232
0.336576
0.363955
0.394329
0.429478
0.47062
0.518714
0.573284
0.631493
0.688579
0.738767
0.776258
0.796358
0.796192
0.775175
0.735117
0.679923
0.614876
0.545571
0.476723
0.411096
0.349
0.289376
0.230919
0.172451
0.11358
0.0551016
-0.000889921
-0.0514099
-0.0932477
-0.123701
-0.141186
-0.145585
-0.138273
-0.121839
-0.0995735
-0.0748666
-0.0505049
-0.0282805
-0.00881865
0.00816567
0
0.353398
1.30463
2.95175
5.15856
7.53253
9.51118
10.5421
10.2961
8.81978
6.54165
4.111
2.1403
0.978962
0.62787
0.818062
0.921503
1.00983
1.08279
1.13764
1.17635
1.20223
1.22028
75
266
453
640
833
1039
1239
1428
1618
1812
1996
2179
2370
2567
2761
2953
3155
3351
3541
3734
3038
3192
3342
3486
3625
3595
3713
0
0
0
0
0
0
0
0
0
0
0
0
0
0
0
0
0
0
0
0
0
0
0
0
0
0
0
0
0
0
0
0
0
0
0
0
0
0
0
0
0
0
0
0
0
0
0
0
0
0
0
0
0
0
0
0
0
0
0
0
0
0
0
0
0
0
0
0
0
0
0
0
0
0
0
0
0
0
0
0
0
0
0
0
0
0
0
0
0
0
0
0
0
0
0
0
0
0
0
0
0
0
0
0
0
0
0
0
0
0
0
0
0
0
0
0
0
0
0
0
0
0
0
0
0
0
0
0
0
0
0
0
0
0
0
0
0
0
0
0
0
0
0
0
0
0
0
0
0
0
0
0
0
0
0
0
0
0
0
0
0
0
0
0
0
0
0
0
0
0
0
0
0
0
0
0
0
0
0
0
0
0
0
0
0
0
0
0
0
0
0
0
0
0
0
0
0
0
0
0
0
0
0
0
0
0
0
0
0
0
0
0
0
0
0
0
0
0
0
0
0
0
0
0
0
0
0
0
0
0
0
0
0
0
0
0
0
0
0
0
0
0
0
0
0
0
0
0
0
0
0
0
0
0
0
0
0
0
0
0
0
0
0
0
0
0
0
0
0
0
0
0
0
0
0
0
0
0
0
0
0
0
0
0
0
0
0
0
0
0
0
0
0
0
0
0
0
0
0
0
0
0
0
0
0
0
0
0
0
0
0
0
0
0
0
0
0
0
0
0
0
0
0
0
0
0
0
0
0
0
0
0
0
0
0
0
0
0
0
0
0
0
0
0
0
0
0
0
0
0
0
0
0
0
0
0
0
0
0
0
0
0
0
0
0
0
0
0
0
0
0
0
0
0
0
0
0
0
0
0
0
0
0
0
0
0
0
0
0
0
0
0
0
0
0
0
0
0
0
0
0
0
0
0
0
0
0
0
0
0
0
0
0
0
0
0
0
0
0
0
0
0
0
0
0
0
0
0
0
0
0
0
0
0
0
0
0
0
0
0
0
0
0
0
0
0
0
0
0
0
0
0
0
0
0
0
0
0
0
0
0
0
0
0
0
0
0
0
0
0
0
0
0
0
0
0
0
0
0
0
0
0
0
0
0
0
0
0
0
0
0
0
0
0
0
0
0
0
0
0
0
0
0
0
0
0
0
0
0
0
0
0
0
0
0
0
0
0
0
0
0
0
0
0
0
0
0
0
0
0
0
0
0
0
0
0
0
0
0
0
0
0
0
0
0
0
0
0
0
0
0
0
0
0
0
0
0
0
0
0
0
0
0
0
0
0
0
0
0
0
0
0
0
0
0
0
0
0
0
0
0
0
0
0
0
0
0
0
0
0
0
0
0
0
0
0
0
0
0
0
0
0
0
0
0
0
0
0
0
0
0
0
0
0
0
0
0
0
0
0
0
0
0
0
0
0
0
0
0
0
0
0
0
0
0
0
0
0
0
0
0
0
0
0
0
0
0
0
0
0
0
0
0
0
0
0
0
0
0
0
0
0
0
0
0
0
0
0
0
0
0
0
0
0
0
0
0
0
0
0
0
0
0
0
0
0
0
0
0
0
0
0
0
0
0
0
0
0
0
0
0
0
0
0
0
0
0
0
0
0
0
0
0
0
0
0
0
0
0
0
0
0
0
0
0
0
0
0
0
0
0
0
0
0
0
0
0
0
0
0
0
0
0
0
0
0
0
0
0
0
0
0
0
0
0
0
0
0
0
0
0
0
0
0
0
0
0
0
0
0
0
0
0
0
0
0
0
0
0
0
0
0
0
0
0
0
0
0
0
0
0
0
0
0
0
0
0
0
0
0
0
0
0
0
0
0
0
0
0
0
0
0
0
0
0
0
0
0
0
0
0
0
0
0
0
0
0
0
0
0
0
0
0
0
0
0
0
0
0
0
0
0
0
0
0
0
0
0
0
0
0
0
0
0
0
0
0
0
0
0
0
0
0
0
0
0
0
0
0
0
0
0
0
0
0
0
0
0
0
0
0
0
0
0
0
0
0
0
0
0
0
0
0
0
0
0
0
0
0
0
0
0
0
0
0
0
0
0
0
0
0
0
0
0
0
0
0
0
0
0
0
0
0
0
0
0
0
0
0
0
0
0
0
0
0
0
0
0
0
0
0
0
0
0
0
0
0
0
0
0
0
0
0
0
0
0
0
0
0
0
0
0
0
0
0
0
0
0
0
0
0
0
0
0
0
0
0
0
0
0
0
0
0
0
0
0
0
0
0
0
0
0
0
0
0
0
0
0
0
0
0
0
0
0
0
0
0
0
0
0
0
0
0
0
0
0
0
0
0
0
0
0
0
0
0
0
0
0
0
0
0
0
0
0
0
0
0
0
0
0
0
0
0
0
0
0
0
0
0
0
0
0
0
0
0
0
0
0
0
0
0
0
0
0
0
0
0
0
0
0
0
0
0
0
0
0
0
0
0
0
0
0
0
0
0
0
0
0
0
0
0
0
0
0
0
0
0
0
0
0
0
0
0
0
0
0
0
0
0
0
0
0
0
0
0
0
0
0
0
0
0
0
0
0
0
0
0
0
0
0
0
0
0
0
0
0
0
0
0
0
0
0
0
0
0
0
0
0
0
0
0
0
0
0
0
0
0
0
0
0
0
0
0
0
0
0
0
0
0
0
0
0
0
0
0
0
0
0
0
0
0
0
0
0
0
0
0
0
0
0
0
0
0
0
0
0
0
0
0
0
0
0
0
0
0
0
0
0
0
0
0
0
0
0
0
0
0
0
0
0
0
0
0
0
0
0
0
0
0
0
0
0
0
0
0
0
0
0
0
0
0
0
0
0
0
0
0
0
0
0
0
0
0
0
0
0
0
0
0
0
0
0
0
0
0
0
0
0
0
0
0
0
0
0
0
0
0
0
0
0
0
0
0
0
0
0
0
0
0
0
0
0
0
0
0
0
0
0
0
0
0
0
0
0
0
0
0
0
0
0
0
0
0
0
0
0
0
0
0
0
0
0
0
0
0
0
0
0
0
0
0
0
0
0
0
0
0
0
0
0
0
0
0
0
0
0
0
0
0
0
0
0
0
0
0
0
0
0
0
0
0
0
0
0
0
0
0
0
0
0
0
0
0
0
0
0
0
0
0
0
0
0
0
0
0
0
0
0
0
0
0
0
0
0
0
0
0
0
0
0
0
0
0
0
0
0
0
0
0
0
0
0
0
0
0
0
0
0
0
0
0
0
0
0
0
0
0
0
0
0
0
0
0
0
0
0
0
0
0
0
0
0
0
0
0
0
0
0
0
0
0
0
0
0
0
0
0
0
0
0
0
0
0
0
0
0
0
0
0
0
0
0
0
0
0
0
0
0
0
0
0
0
0
0
0
0
0
0
0
0
0
0
0
0
0
0
0
0
0
0
0
0
0
0
0
0
0
0
0
0
0
0
0
0
0
0
0
0
0
0
0
0
0
0
0
0
0
0
0
0
0
0
0
0
0
0
0
0
0
0
0
0
0
0
0
0
0
0
0
0
0
0
0
0
0
0
0
0
0
0
0
0
0
0
0
0
0
0
0
0
0
0
0
0
0
0
0
0
0
0
0
0
0
0
0
0
0
0
0
0
0
0
0
0
0
0
0
0
0
0
0
0
0
0
0
0
0
0
0
0
0
0
0
0
0
0
0
0
0
0
0
0
0
0
0
0
0
0
0
0
0
0
0
0
0
0
0
0
0
0
0
0
0
0
0
0
0
0
0
0
0
0
0
0
0
0
0
0
0
0
0
0
0
0
0
0
0
0
0
0
0
0
0
0
0
0
0
0
0
0
0
0
0
0
0
0
0
0
0
0
0
0
0
0
0
0
0
0
0
0
0
0
0
0
0
0
0
0
0
0
0
0
0
0
0
0
0
0
0
0
0
0
0
0
0
0
0
0
0
0
0
0
0
0
0
0
0
0
0
0
0
0
0
0
0
0
0
0
0
0
0
0
0
0
0
0
0
0
0
0
0
0
0
0
0
0
0
0
0
0
0
0
0
0
0
0
0
0
0
0
0
0
0
0
0
0
0
0
0
0
0
0
0
0
0
0
0
0
0
0
0
0
0
0
0
0
0
0
0
0
0
0
0
0
0
0
0
0
0
0
0
0
0
0
0
0
0
0
0
0
0
0
0
0
0
0
0
0
0
0
0
0
0
0
0
0
0
0
0
0
0
0
0
0
0
0
0
0
0
0
0
0
0
0
0
0
0
0
0
0
0
0
0
0
0
0
0
0
0
0
0
0
0
0
0
0
0
0
0
0
0
0
0
0
0
0
0
0
0
0
0
0
0
0
0
0
0
0
0
0
0
0
0
0
0
0
0
0
0
0
0
0
0
0
0
0
0
0
0
0
0
0
0
0
0
0
0
0
0
0
0
0
0
0
0
0
0
0
0
0
0
0
0
0
0
0
0
0
0
0
0
0
0
0
0
0
0
0
0
0
0
0
0
0
0
0
0
0
0
0
0
0
0
0
0
0
0
0
0
0
0
0
0
0
0
0
0
0
0
0
0
0
0
0
0
0
0
0
0
0
0
0
0
0
0
0
0
0
0
0
0
0
0
0
0
0
0
0
0
0
0
0
0
0
0
0
0
0
0
0
0
0
0
0
0
0
0
0
0
0
0
0
0
0
0
0
0
0
0
0
0
0
0
0
0
0
0
0
0
0
0
0
0
0
0
0
0
0
0
0
0
0
0
0
0
0
0
0
0
0
0
0
0
0
0
0
0
0
0
0
0
0
0
0
0
0
0
0
0
0
0
0
0
0
0
0
0
0
0
0
0
0
0
0
0
0
0
0
0
0
0
0
0
0
0
0
0
0
0
0
0
0
0
0
0
0
0
0
0
0
0
0
0
0
0
0
0
0
0
0
0
0
0
0
0
0
0
0
0
0
0
0
0
0
0
0
0
0
0
0
0
0
0
0
0
0
0
0
0
0
0
0
0
0
0
0
0
0
0
0
0
0
0
0
0
0
0
0
0
0
0
0
0
0
0
0
0
0
0
0
0
0
0
0
0
0
0
0
0
0
0
0
0
0
0
0
0
0
0
0
0
0
0
0
0
0
0
0
0
0
0
0
0
0
0
0
0
0
0
0
0
0
0
0
0
0
0
0
0
0
0
0
0
0
0
0
0
0
0
0
0
0
0
0
0
0
0
0
0
0
0
0
0
0
0
0
0
0
0
0
0
0
0
0
0
0
0
0
0
0
0
0
0
0
0
0
0
0
0
0
0
0
0
0
0
0
0
0
0
0
0
0
0
0
0
0
0
0
0
0
0
0
0
0
0
0
0
0
0
0
0
0
0
0
0
0
0
0
0
0
0
0
0
0
0
0
0
0
0
0
0
0
0
0
0
0
0
0
0
0
0
0
0
0
0
0
0
0
0
0
0
0
0
0
0
0
0
0
0
0
0
0
0
0
0
0
0
0
0
0
0
0
0
0
0
0
0
0
0
0
0
0
0
0
0
0
0
0
0
0
0
0
0
0
0
0
0
0
0
0
0
0
0
0
0
0
0
0
0
0
0
0
0
0
0
0
0
0
0
0
0
0
0
0
0
0
0
0
0
0
0
0
0
0
0
0
0
0
0
0
0
0
0
0
0
0
0
0
0
0
0
0
0
0
0
0
0
0
0
0
0
0
0
0
0
0
0
0
0
0
0
0
0
0
0
0
0
0
0
0
0
0
0
0
0
0
0
0
0
0
0
0
0
0
0
0
0
0
0
0
0
0
0
0
0
0
0
0
0
0
0
0
0
0
0
0
0
0
0
0
0
0
0
0
0
0
0
0
0
0
0
0
0
0
0
0
0
0
0
0
0
0
0
0
0
0
0
0
0
0
0
0
0
0
0
0
0
0
0
0
0
0
0
0
0
0
0
0
0
0
0
0
0
0
0
0
0
0
0
0
0
0
0
0
0
0
0
0
0
0
0
0
0
0
0
0
0
0
0
0
0
0
0
0
0
0
0
0
0
0
0
0
0
0
0
0
0
0
0
0
0
0
0
0
0
0
0
0
0
0
0
0
0
0
0
0
0
0
0
0
0
0
0
0
0
0
0
0
0
0
0
0
0
0
0
0
0
0
0
0
0
0
0
0
0
0
0
0
0
0
0
0
0
0
0
0
0
0
0
0
0
0
0
0
0
0
0
0
0
0
0
0
0
0
0
0
0
0
0
0
0
0
0
0
0
0
0
0
0
0
0
0
0
0
0
0
0
0
0
0
0
0
0
0
0
0
0
0
0
0
0
0
0
0
0
0
0
0
0
0
0
0
0
0
0
0
0
0
0
0
0
0
0
0
0
0
0
0
0
0
0
0
0
0
0
0
0
0
0
0
0
0
0
0
0
0
0
0
0
0
0
0
0
0
0
0
0
0
0
0
0
0
0
0
0
0
0
0
0
0
0
0
0
0
0
0
0
0
0
0
0
0
0
0
0
0
0
0
0
0
0
0
0
0
0
0
0
0
0
0
0
0
0
0
0
0
0
0
0
0
0
0
0
0
0
0
0
0
0
0
0
0
0
0
0
0
0
0
0
0
0
0
0
0
0
0
0
0
0
0
0
0
0
0
0
0
0
0
0
0
0
0
0
0
0
0
0
0
0
0
0
0
0
0
0
0
0
0
0
0
0
0
0
0
0
0
0
0
0
0
0
0
0
0
0
0
0
0
0
0
0
0
0
0
0
0
0
0
0
0
0
0
0
0
0
0
0
0
0
0
0
0
0
0
0
0
0
0
0
0
0
0
0
0
0
0
0
0
0
0
0
0
0
0
0
0
0
0
0
0
0
0
0
0
0
0
0
0
0
0
0
0
0
0
0
0
0
0
0
0
0
0
0
0
0
0
0
0
0
0
0
0
0
0
0
0
0
0
0
0
0
0
0
0
0
0
0
0
0
0
0
0
0
0
0
0
0
0
0
0
0
0
0
0
0
0
0
0
0
0
0
0
0
0
0
0
0
0
0
0
0
0
0
0
0
0
0
0
0
0
0
0
0
0
0
0
0
0
0
0
0
0
0
0
0
0
0
0
0
0
0
0
0
0
0
0
0
0
0
0
0
0
0
0
0
0
0
0
0
0
0
0
0
0
0
0
0
0
0
0
0
0
0
0
0
0
0
0
0
0
0
0
0
0
0
0
0
0
0
0
0
0
0
0
0
0
0
0
0
0
0
0
0
0
0
0
0
0
0
0
0
0
0
0
0
0
0
0
0
0
0
0
0
0
0
0
0
0
0
0
0
0
0
0
0
0
0
0
0
0
0
0
0
0
0
0
0
0
0
0
0
0
0
0
0
0
0
0
0
0
0
0
0
0
0
0
0
0
0
0
0
0
0
0
0
0
0
0
0
0
0
0
0
0
0
0
0
0
0
0
0
0
0
0
0
0
0
0
0
0
0
0
0
0
0
0
0
0
0
0
0
0
0
0
0
0
0
0
0
0
0
0
0
0
0
0
0
0
0
0
0
0
0
0
0
0
0
0
0
0
0
0
0
0
0
0
0
0
0
0
0
0
0
0
0
0
0
0
0
0
0
0
0
0
0
0
0
0
0
0
0
0
0
0
0
0
0
0
0
0
0
0
0
0
0
0
0
0
0
0
0
0
0
0
0
0
0
0
0
0
0
0
0
0
0
0
0
0
0
0
0
0
0
0
0
0
0
0
0
0
0
0
0
0
0
0
0
0
0
0
0
0
0
0
0
0
0
0
0
0
0
0
0
0
0
0
0
0
0
0
0
0
0
0
0
0
0
0
0
0
0
0
0
0
0
0
0
0
0
0
0
0
0
0
0
0
0
0
0
0
0
0
0
0
0
0
0
0
0
0
0
0
0
0
0
0
0
0
0
0
0
0
0
0
0
0
0
0
0
0
0
0
0
0
0
0
0
0
0
0
0
0
0
0
0
0
0
0
0
0
0
0
0
0
0
0
0
0
0
0
0
0
0
0
0
0
0
0
0
0
0
0
0
0
0
0
0
0
0
0
0
0
0
0
0
0
0
0
0
0
0
0
0
0
0
0
0
0
0
0
0
0
0
0
0
0
0
0
0
0
0
0
0
0
0
0
0
0
0
0
0
0
0
0
0
0
0
0
0
0
0
0
0
0
0
0
0
0
0
0
0
0
0
0
0
0
0
0
0
0
0
0
0
0
0
0
0
0
0
0
0
0
0
0
0
0
0
0
0
0
0
0
0
0
0
0
0
0
0
0
0
0
0
0
0
0
0
0
0
0
0
0
0
0
0
0
0
0
0
0
0
0
0
0
0
0
0
0
0
0
0
0
0
0
0
0
0
0
0
0
0
0
0
0
0
0
0
0
0
0
0
0
0
0
0
0
0
0
0
0
0
0
0
0
0
0
0
0
0
0
0
0
0
0
0
0
0
0
0
0
0
0
0
0
0
0
