0.0711168
0.0923798
0.103723
0.108864
0.113436
0.123912
0.146245
0.183957
0.238112
0.308212
0.39311
0.491666
0.602064
0.720022
0.836374
0.938709
1.01452
1.05307
1.04762
0.997436
0.908782
0.794465
0.671658
0.558404
0.466405
0.39746
0.348851
0.318989
0.305454
0.304359
0.310917
0.320016
0.326608
0.326182
0.315246
0.291644
0.25478
0.20503
0.143908
0.0756285
0.00548878
-0.0616768
-0.122282
-0.174231
0
0.59401
1.7481
3.61304
6.10238
8.78955
10.9839
11.9941
11.4561
9.53962
6.89473
4.35576
2.56962
1.7543
1.70485
1.99666
1.95124
1.90233
1.85129
1.80085
1.75558
1.72067
1.70054
1.69522
1.70571
1.73195
1.77333
1.82866
1.89598
1.97407
2.06173
2.15735
2.25889
2.36407
2.47062
2.57674
2.68148
2.78511
2.88918
2.99648
3.11066
3.23574
3.37552
3.533
3.70969
3.90561
4.11932
4.34795
4.58748
4.8333
5.08087
5.32633
5.56714
5.80195
6.02969
6.25109
6.48823
6.80904
7.18804
7.54096
7.79551
7.89922
7.82604
7.57835
7.18164
6.67247
6.08897
5.50034
4.97038
4.48336
4.02274
3.58691
3.17921
2.80202
2.4571
2.14574
1.86895
1.62736
1.42107
1.24951
1.1108
1.00141
0.916537
0.850867
0.799388
0.758161
0.724886
0.699542
0.683386
0.678577
0.687169
0.710019
0.748782
0.800383
0.856414
0.907564
0.946411
0.969657
0.978968
0.980094
0.980547
0.986652
1.00123
1.02252
1.04045
1.04174
1.01511
0.956433
0.871622
0.776149
0.69094
0.635962
0.619545
0.645422
0.708808
0.789916
0.865808
0.917585
0.935323
0.919409
0.878518
0.825641
0.773858
0.731386
0.699895
0.678593
0.665954
0.660177
0.657657
0.653816
0.644799
0.628607
0.605841
0.579768
0.555583
0.539006
0.534636
0.544182
0.568011
0.601666
0.63827
0.67061
0.693005
0.702642
0.700088
0.688992
0.675162
0.665287
0.664932
0.677214
0.703052
0.742375
0.793999
0.853001
0.912233
0.964291
1.00283
1.02357
1.02487
1.00774
0.975622
0.933815
0.888965
0.847797
0.816293
0.799457
0.801031
0.824073
0.870105
0.938877
1.02941
1.14401
1.27706
1.41117
1.52769
1.61068
1.6502
1.64375
1.59535
1.5131
1.40648
1.28471
1.1568
1.02819
0.902358
0.782027
0.669503
0.566846
0.476034
0.398763
0.336401
0.289896
0.259774
0.246646
0.251094
0.271698
0.302713
0.334839
0.357895
0.36243
0.341265
0.290596
0.210483
0.104687
-0.0199713
-0.154531
0
0.751431
2.28809
4.58438
7.33178
9.96204
11.789
12.2487
11.1506
8.80875
5.94597
3.38903
1.71114
1.02513
1.03835
1.20218
1.24103
1.27329
1.30098
1.32606
1.35006
1.3737
1.39655
1.41702
1.43325
1.44449
1.45221
1.4606
1.47587
1.50463
1.55179
1.61894
1.70155
1.79459
1.89366
1.99524
2.09791
2.20293
2.3141
2.43686
2.57704
2.73896
2.92413
3.13262
3.36259
3.61033
3.8708
4.13838
4.40758
4.67348
4.93212
5.18045
5.41628
5.63749
5.8414
6.02484
6.18447
6.31674
6.41764
6.4834
6.51045
6.49499
6.43332
6.32219
6.15926
5.9435
5.67566
5.35875
5.00125
4.61609
4.21441
3.80462
3.39514
2.99406
2.60849
2.24407
1.90481
1.59326
1.31082
1.05918
0.842388
0.666048
0.531552
0.43968
0.389767
0.37878
0.401303
0.451309
0.516516
0.584006
0.642245
0.68273
0.7009
0.696216
0.671555
0.632187
0.584569
0.535255
0.489429
0.450487
0.419863
0.397546
0.382985
0.375531
0.374268
0.378086
0.385807
0.396056
0.407284
0.41786
0.426163
0.430744
0.430472
0.424909
0.41448
0.400618
0.385758
0.373118
0.366238
0.368975
0.38772
0.427133
0.478275
0.525979
0.554412
0.553077
0.520875
0.46633
0.403999
0.348893
0.311543
0.290337
0.280569
0.279415
0.285132
0.296
0.310472
0.327176
0.344801
0.361874
0.376774
0.387859
0.393705
0.393408
0.386842
0.374829
0.359129
0.342274
0.327224
0.316815
0.313207
0.317701
0.331499
0.353814
0.380437
0.406349
0.42728
0.441108
0.448585
0.453096
0.459524
0.472668
0.495592
0.527654
0.566808
0.610734
0.656747
0.701947
0.743816
0.780879
0.813008
0.841503
0.868915
0.89858
0.934274
0.981816
1.04701
1.12427
1.1965
1.24318
1.24802
1.20537
1.12244
1.01652
0.908565
0.816099
0.743892
0.686876
0.640793
0.603509
0.573125
0.547652
0.525149
0.503752
0.481656
0.457126
0.428554
0.394613
0.354216
0.306484
0.251514
0.191403
0.129719
0.0702626
0.0161706
-0.0308022
-0.0705952
-0.104655
0
0.445552
1.41727
2.99208
5.01834
7.10254
8.70745
9.33826
8.75116
7.08317
4.82037
2.59872
0.936515
0.0494413
-0.156354
0.114816
0.399312
0.661887
0.877798
1.02712
1.10033
1.10228
1.05263
0.981607
0.922062
0.900315
0.92053
0.969408
1.03678
1.11713
1.2065
1.30161
1.40037
1.50217
1.60785
1.71929
1.83872
1.96803
2.10811
2.25854
2.41789
2.58383
2.75407
2.92712
3.10282
3.28235
3.4678
3.66141
3.86482
4.07839
4.30083
4.52973
4.76187
4.99361
5.22067
5.43868
5.64413
5.83354
6.00188
6.14283
6.25313
6.32212
6.32684
6.23918
6.03916
5.72679
5.3256
4.87543
4.41843
3.97839
3.55497
3.14813
2.76159
2.39879
2.06296
1.75719
1.48428
1.24695
1.04761
0.886379
0.761744
0.670694
0.608967
0.571456
0.552742
0.547646
0.551681
0.561322
0.574039
0.588164
0.602608
0.616606
0.629584
0.641112
0.65099
0.65937
0.666818
0.674272
0.682864
0.693648
0.707291
0.723958
0.743139
0.763541
0.783381
0.800994
0.815407
0.826762
0.836477
0.847039
0.86147
0.882584
0.912229
0.950621
0.996626
1.04711
1.09737
1.14133
1.17277
1.18716
1.18232
1.15909
1.12144
1.07586
1.03013
0.991405
0.96453
0.949646
0.944818
0.946288
0.949581
0.950882
0.947972
0.940449
0.929257
0.915827
0.901246
0.88589
0.869462
0.851393
0.831286
0.80927
0.786158
0.763389
0.742784
0.726078
0.714535
0.708908
0.709417
0.715755
0.726721
0.74028
0.754457
0.767903
0.780306
0.792497
0.806194
0.823461
0.846065
0.874901
0.909575
0.949164
0.992718
1.0393
1.08821
1.139
1.19134
1.24447
1.29617
1.34233
1.37746
1.39567
1.39193
1.36324
1.30923
1.23219
1.13654
1.0279
0.912582
0.795884
0.681381
0.571399
0.467677
0.371581
0.284117
0.206172
0.138839
0.0835473
0.041565
0.0136079
0
0.000523001
0.013645
0.037041
0.0676568
0.102149
0.137384
0.170912
0.183174
0.416313
1.18441
2.62395
4.63856
6.87543
8.81357
9.93342
9.90601
8.72547
6.72597
4.46302
2.50223
1.21154
0.658376
0.655856
0.872428
1.06188
1.23876
1.39835
1.53724
1.65822
1.76267
1.85168
1.9274
1.99289
2.05178
2.10787
2.16468
2.22498
2.29051
2.3619
2.43884
2.52036
2.60537
2.69317
2.78381
2.87816
2.97778
3.08461
3.20065
3.32776
3.46739
3.62092
3.78956
3.97432
4.17577
4.39375
4.627
4.87297
5.12779
5.38657
5.6438
5.89394
6.13135
6.34976
6.54229
6.70285
6.82754
6.91304
6.95549
6.95031
6.89243
6.77688
6.59977
6.35953
6.05799
5.70317
5.30739
4.88445
4.44766
4.00816
3.57571
3.15914
2.76619
2.40341
2.07713
1.79148
1.54883
1.34979
1.19311
1.07578
0.993329
0.940341
0.911042
0.899865
0.90181
0.912948
0.93045
0.952531
0.978367
1.00786
1.04137
1.07944
1.12249
1.1706
1.22328
1.2795
1.33761
1.39558
1.4511
1.50153
1.54388
1.57523
1.59338
1.5968
1.58501
1.55886
1.52071
1.47427
1.4242
1.3754
1.33216
1.29714
1.27185
1.25679
1.2513
1.25368
1.26129
1.27083
1.27888
1.28219
1.27807
1.2646
1.2409
1.20726
1.16517
1.11715
1.06648
1.01654
0.970285
0.930291
0.89772
0.871659
0.850026
0.830397
0.810818
0.790325
0.769008
0.747654
0.727217
0.708311
0.691037
0.675319
0.660985
0.647921
0.636089
0.625416
0.61564
0.606137
0.596017
0.584395
0.570743
0.555192
0.538639
0.522605
0.508902
0.499226
0.494538
0.495204
0.501213
0.512062
0.526954
0.545009
0.565356
0.587512
0.611622
0.638606
0.670168
0.708648
0.756717
0.817002
0.891487
0.982069
1.09478
1.24074
1.42386
1.61999
1.79324
1.90907
1.9443
1.89323
1.76779
1.5927
1.39884
1.21609
1.05851
0.922502
0.8016
0.691507
0.589946
0.495531
0.407531
0.326216
0.252953
0.18976
0.13873
0.102685
0.0844484
0.0824882
0.0899393
0.0983597
0.100092
0.0903891
0.0685678
0.0378685
0.00420033
-0.0257222
0
0.493171
1.42757
2.90586
4.90429
7.18856
9.31008
10.7149
10.9479
9.86894
7.75833
5.22818
2.9634
1.43201
0.732904
0.651513
0.793007
0.871163
0.939465
0.996315
1.04155
1.07755
1.10654
1.1314
1.15516
1.18055
1.20974
1.24432
1.28546
1.3342
1.39172
1.45943
1.53909
1.63253
1.74139
1.86674
2.0087
2.16636
2.33783
2.52053
2.71163
2.90854
3.10915
3.31209
3.51655
3.72205
3.92817
4.13428
4.3395
4.54285
4.74352
4.94117
5.13619
5.32969
5.52335
5.71927
5.92047
6.13095
6.35262
6.57737
6.7835
6.94739
7.04689
7.06159
6.97349
6.7699
6.44745
6.01594
5.50125
4.9505
4.407
3.88486
3.38708
2.92119
2.4936
2.10838
1.76725
1.4696
1.21293
0.993349
0.806239
0.646901
0.51227
0.400203
0.30813
0.234413
0.177922
0.137588
0.112094
0.0997807
0.0987307
0.10694
0.122309
0.142756
0.166605
0.192208
0.217953
0.242336
0.264066
0.282204
0.296152
0.305737
0.311148
0.312845
0.311452
0.307637
0.302008
0.295044
0.287072
0.278289
0.268779
0.258535
0.247421
0.235092
0.220857
0.203621
0.182226
0.155739
0.123967
0.0877969
0.04968
0.0138059
-0.0147815
-0.0311477
-0.0314798
-0.0138887
0.0211644
0.070859
0.131341
0.196175
0.256941
0.306022
0.338041
0.350905
0.346108
0.328165
0.303253
0.277489
0.255243
0.237802
0.224507
0.214143
0.20502
0.195387
0.183817
0.169396
0.151751
0.130972
0.107552
0.0823997
0.0567809
0.0324102
0.0116592
-0.00298623
-0.00934798
-0.00616275
0.00641986
0.0270614
0.0524971
0.0788164
0.102505
0.121393
0.135178
0.145366
0.154644
0.165917
0.181176
0.201056
0.225056
0.250561
0.274125
0.292712
0.304734
0.310612
0.312697
0.314652
0.320546
0.334035
0.35686
0.389487
0.432405
0.48597
0.550092
0.624409
0.708394
0.800642
0.897382
0.990623
1.07006
1.12556
1.14931
1.13752
1.09153
1.01758
0.925591
0.827006
0.73241
0.647657
0.573775
0.510253
0.4566
0.411709
0.373927
0.341672
0.313846
0.290041
0.27047
0.255621
0.246158
0.242153
0.241609
0.24078
0.235215
0.220932
0.195517
0.158748
0.112539
0.0602622
0
0.306148
1.03952
2.28951
4.02308
6.01908
7.8598
9.01902
9.0547
7.83702
5.67554
3.2353
1.2511
0.192553
0.0815663
0.549833
0.743619
0.907821
1.0247
1.08844
1.11798
1.12228
1.11233
1.09897
1.09042
1.09115
1.1042
1.13159
1.17398
1.23068
1.29983
1.37903
1.46562
1.55735
1.65285
1.75172
1.8544
1.96163
2.07388
2.1909
2.31149
2.43375
2.55571
2.67607
2.79502
2.91469
3.03924
3.17438
3.32642
3.50102
3.70195
3.93003
4.1825
4.45586
4.74209
5.02421
5.28155
5.497
5.65906
5.76195
5.80409
5.78588
5.70784
5.56972
5.37086
5.11353
4.80434
4.45254
4.06942
3.66731
3.25723
2.84771
2.44624
2.05921
1.69161
1.3471
1.0283
0.737201
0.477804
0.256292
0.0746044
-0.0659783
-0.165611
-0.226576
-0.25358
-0.253504
-0.234614
-0.205436
-0.173616
-0.144789
-0.12231
-0.10726
-0.0986907
-0.0941691
-0.0904857
-0.0844057
-0.073298
-0.0555309
-0.0309767
-0.000269425
0.035859
0.0764821
0.120521
0.166738
0.213625
0.259005
0.300156
0.33422
0.358657
0.371758
0.373001
0.363125
0.343914
0.317814
0.287536
0.25585
0.225126
0.197631
0.17545
0.160381
0.153735
0.156078
0.167031
0.185231
0.208482
0.2341
0.25937
0.282086
0.300765
0.31483
0.324614
0.331169
0.335952
0.340423
0.345673
0.352119
0.359329
0.36602
0.370201
0.369447
0.361109
0.342966
0.31359
0.272779
0.22189
0.163546
0.102484
0.0454629
-0.00056628
-0.0298364
-0.0390008
-0.0278955
0.000395548
0.0401924
0.0844147
0.126024
0.159727
0.182098
0.192036
0.190638
0.18069
0.165974
0.150529
0.137787
0.130024
0.128319
0.132623
0.141806
0.152877
0.160065
0.156417
0.135561
0.0934634
0.0298099
-0.0515798
-0.143575
-0.237618
-0.326012
-0.404171
-0.470281
-0.52485
-0.569155
-0.603569
-0.626592
-0.635063
-0.625486
-0.595878
-0.548643
-0.488815
-0.422163
-0.35533
-0.294379
-0.243321
-0.203817
-0.175049
-0.188897
0
0.656741
1.9062
3.6967
5.74597
7.57231
8.62973
8.51638
7.17342
4.96268
2.54632
0.60523
-0.454951
-0.640998
-0.277786
0.0263247
0.278197
0.450672
0.54405
0.608959
0.66339
0.712348
0.75867
0.804639
0.852115
0.902754
0.958162
1.01992
1.08943
1.16769
1.25503
1.35106
1.45465
1.56439
1.67899
1.79765
1.92037
2.04802
2.18209
2.32435
2.47633
2.63886
2.81177
2.99389
3.18325
3.37748
3.57428
3.77179
3.96882
4.16484
4.35979
4.55383
4.74705
4.93936
5.13043
5.31987
5.50731
5.69283
5.88052
6.08974
6.31643
6.51411
6.60358
6.50759
6.19009
5.67676
5.04644
4.40455
3.84641
3.34882
2.88165
2.44446
2.0392
1.66632
1.32528
1.01514
0.7353
0.489378
0.281001
0.111575
-0.0180006
-0.108496
-0.163158
-0.187804
-0.190086
-0.178166
-0.159196
-0.138236
-0.117505
-0.0969451
-0.0749515
-0.0493955
-0.0188126
0.0170817
0.0575895
0.100268
0.140815
0.174245
0.196178
0.203868
0.196896
0.177328
0.149309
0.118173
0.089357
0.0673021
0.0539392
0.0493396
0.0531738
0.0646375
0.0825008
0.104703
0.128167
0.14949
0.165472
0.173566
0.172214
0.160965
0.140305
0.11125
0.0748319
0.0319223
-0.0171269
-0.0725444
-0.134843
-0.204392
-0.281015
-0.363708
-0.450555
-0.538894
-0.625688
-0.708006
-0.783497
-0.85073
-0.909302
-0.959714
-1.00307
-1.04067
-1.07365
-1.1027
-1.12787
-1.14867
-1.16409
-1.17286
-1.17371
-1.16559
-1.14794
-1.12066
-1.08415
-1.03967
-0.990647
-0.942907
-0.90217
-0.872253
-0.853513
-0.842066
-0.83026
-0.808462
-0.767776
-0.702866
-0.602887
-0.479349
-0.357908
-0.26541
-0.219689
-0.22298
-0.261249
-0.309255
-0.338942
-0.327764
-0.263699
-0.0973553
0.164802
0.442899
0.662551
0.772555
0.752964
0.616151
0.402016
0.169198
-0.0172473
-0.116924
-0.156033
-0.166351
-0.163557
-0.153735
-0.143347
-0.13779
-0.140464
-0.152257
-0.171603
-0.195153
-0.218902
-0.23945
-0.2552
-0.266835
-0.276097
-0.285497
-0.29755
-0.313986
-0.335213
-0.360216
-0.386903
-0.406195
0
0.925689
2.4318
4.42296
6.62569
8.60683
9.86521
9.99976
8.89904
6.84258
4.42121
2.29196
0.900311
0.331929
0.3675
0.529041
0.620909
0.696787
0.756491
0.802802
0.840969
0.877528
0.91876
0.969244
1.02988
1.09937
1.17566
1.2562
1.33823
1.41931
1.49765
1.57214
1.64228
1.70823
1.77095
1.83217
1.89445
1.96109
2.0359
2.12276
2.22494
2.34457
2.48208
2.63604
2.80426
2.98429
3.1737
3.37064
3.57403
3.78358
3.99946
4.22188
4.45071
4.68556
4.92554
5.16857
5.41037
5.64212
5.85097
6.02689
6.15289
6.20467
6.15827
5.99977
5.73107
5.36917
4.9411
4.47855
4.01414
3.55925
3.11611
2.68814
2.27913
1.89215
1.52971
1.19392
0.888329
0.61815
0.38716
0.196479
0.0463175
-0.0642734
-0.137468
-0.17651
-0.18542
-0.168697
-0.13114
-0.0781674
-0.0154372
0.0519169
0.117085
0.173335
0.215072
0.238819
0.243926
0.232739
0.21014
0.18252
0.156435
0.136816
0.125774
0.123541
0.12976
0.14139
0.15409
0.163837
0.168131
0.166737
0.161741
0.156875
0.15633
0.163421
0.178814
0.2018
0.229723
0.257308
0.278236
0.286869
0.279606
0.255759
0.217746
0.170473
0.120072
0.0723243
0.0310885
-0.00278025
-0.0297291
-0.0505751
-0.0661572
-0.0767043
-0.0816075
-0.079692
-0.0698727
-0.0519083
-0.0263577
0.00392756
0.0350615
0.0631807
0.0855177
0.1011
0.110868
0.117259
0.123539
0.133168
0.148665
0.17205
0.205617
0.253904
0.326114
0.4317
0.560108
0.682818
0.766889
0.786855
0.73437
0.621746
0.478383
0.341474
0.243882
0.191314
0.167852
0.164331
0.174017
0.187238
0.195498
0.193802
0.181995
0.164613
0.149304
0.144397
0.156614
0.187229
0.233267
0.292661
0.364299
0.446676
0.538448
0.638171
0.743457
0.851116
0.957037
1.05498
1.13518
1.18847
1.20539
1.17765
1.10097
0.978276
0.8213
0.649343
0.485025
0.34853
0.24239
0.159977
0.0993431
0.0589706
0.0350674
0.0223871
0.0156999
0.0105793
0.00394059
-0.00573485
-0.0184841
-0.0331912
-0.048054
-0.0611005
-0.0706949
-0.0757107
-0.0755438
-0.0701087
-0.0597944
0
0.428485
1.38196
2.95497
5.01391
7.18178
8.93526
9.78333
9.45321
8.00599
5.83038
3.50841
1.60355
0.462094
0.115363
0.320812
0.405771
0.480569
0.539537
0.582009
0.612463
0.638875
0.670024
0.712753
0.767561
0.83235
0.904738
0.981297
1.05791
1.13036
1.19552
1.25188
1.29992
1.34202
1.38211
1.425
1.47562
1.53824
1.61584
1.7094
1.81884
1.94389
2.08407
2.23879
2.40745
2.58935
2.78352
2.98855
3.20255
3.42307
3.64722
3.87179
4.09333
4.30826
4.51273
4.70275
4.87415
5.02224
5.14151
5.22629
5.27231
5.27474
5.22832
5.12789
4.96941
4.75103
4.47422
4.14435
3.77079
3.36829
2.95175
2.53298
2.12203
1.72771
1.3572
1.01595
0.708008
0.436633
0.203332
0.00850539
-0.147768
-0.266081
-0.349284
-0.401256
-0.426836
-0.431632
-0.42101
-0.401213
-0.377804
-0.355133
-0.336016
-0.321757
-0.312467
-0.307562
-0.306232
-0.307584
-0.310975
-0.315842
-0.321507
-0.327121
-0.331748
-0.334568
-0.335171
-0.333747
-0.331018
-0.328332
-0.327329
-0.329377
-0.335042
-0.343725
-0.353612
-0.362005
-0.365995
-0.363301
-0.352306
-0.333303
-0.309836
-0.286717
-0.268473
-0.257937
-0.255492
-0.259217
-0.265827
-0.271969
-0.275448
-0.276033
-0.274639
-0.272815
-0.272642
-0.276397
-0.286423
-0.304713
-0.332474
-0.369862
-0.415658
-0.467115
-0.520104
-0.569606
-0.610475
-0.638285
-0.650565
-0.646208
-0.625997
-0.590902
-0.542945
-0.488691
-0.43806
-0.399706
-0.378584
-0.373965
-0.378934
-0.382075
-0.371148
-0.33745
-0.28044
-0.208733
-0.128913
-0.046532
0.0343436
0.112377
0.189306
0.269459
0.363494
0.490819
0.652217
0.817384
0.946393
1.00727
0.987152
0.894216
0.752413
0.592785
0.444521
0.323328
0.227463
0.151217
0.0908476
0.0448317
0.0126603
-0.00685916
-0.0150855
-0.0149597
-0.0100128
-0.00391412
0
0.00148358
-0.00341215
-0.015226
-0.0335265
-0.0570995
-0.08401
-0.112221
-0.139703
-0.123028
0.307532
1.25526
2.73871
4.60334
6.53233
8.10894
8.91918
8.68337
7.38124
5.30928
3.01049
1.07801
-0.0806471
-0.390512
-0.0498734
0.371421
0.733235
0.976347
1.083
1.13984
1.18492
1.22716
1.27179
1.32307
1.38385
1.45529
1.53693
1.62701
1.72287
1.82169
1.92101
2.01932
2.11642
2.21337
2.31235
2.41605
2.52716
2.64768
2.77855
2.91951
3.06919
3.22556
3.38647
3.55012
3.71548
3.8824
4.05155
4.22425
4.40218
4.58718
4.78102
4.98531
5.20127
5.43248
5.69091
5.99258
6.31759
6.61615
6.83838
6.95342
6.95835
6.86938
6.70029
6.44499
6.08309
5.63513
5.14869
4.65738
4.18265
3.7346
3.31605
2.93229
2.58562
2.27555
1.99951
1.7538
1.53446
1.33799
1.16175
1.00409
0.864182
0.741816
0.637062
0.550042
0.480684
0.42849
0.392531
0.371584
0.364177
0.368623
0.383055
0.405443
0.433606
0.465224
0.497857
0.528955
0.555735
0.575808
0.58755
0.590491
0.585623
0.575425
0.56349
0.553763
0.549708
0.554662
0.568367
0.586198
0.601802
0.60956
0.606683
0.594058
0.575506
0.555865
0.538815
0.525112
0.51311
0.500691
0.485539
0.465937
0.441262
0.412123
0.38022
0.348084
0.318627
0.294651
0.279174
0.275649
0.290613
0.33713
0.423994
0.532432
0.633564
0.697869
0.705559
0.652941
0.552451
0.427603
0.306016
0.212436
0.151802
0.119485
0.112604
0.131435
0.174257
0.237579
0.316518
0.405278
0.497844
0.587411
0.667126
0.731579
0.777313
0.803291
0.811113
0.804772
0.789879
0.772445
0.757483
0.747453
0.741876
0.738883
0.734776
0.725179
0.706207
0.675546
0.633188
0.581614
0.525374
0.470143
0.421335
0.382223
0.356486
0.345054
0.342022
0.338803
0.326549
0.298511
0.25153
0.186233
0.106038
0.0155618
-0.0806812
-0.179417
-0.278506
-0.376103
-0.470348
-0.559075
-0.523226
0
1.1483
2.97095
5.26122
7.55488
9.26698
9.91238
9.30048
7.61326
5.33488
3.06835
1.32078
0.34527
0.100078
0.328884
0.473239
0.603458
0.71161
0.794223
0.856749
0.903793
0.941966
0.978444
1.01954
1.0692
1.12933
1.20065
1.28313
1.3761
1.47847
1.58891
1.70586
1.82755
1.952
2.07722
2.20147
2.32365
2.44371
2.56295
2.68413
2.81129
2.94923
3.1028
3.27606
3.47148
3.68941
3.92791
4.18307
4.44967
4.72208
4.99522
5.26525
5.5296
5.78628
6.03385
6.27241
6.50232
6.7161
6.89715
7.02375
7.07348
7.02589
6.86542
6.58653
6.2002
5.73698
5.24103
4.74941
4.27231
3.80943
3.36388
2.9409
2.54607
2.185
1.8628
1.58427
1.3527
1.16717
1.02308
0.913314
0.829257
0.76202
0.70352
0.647297
0.588928
0.52609
0.458392
0.386929
0.313722
0.241653
0.174303
0.116091
0.0726467
0.0498544
0.0525518
0.0844514
0.14701
0.238699
0.365123
0.507361
0.640216
0.74062
0.795258
0.804534
0.780907
0.742417
0.704721
0.675562
0.651637
0.629323
0.605786
0.579027
0.548413
0.514555
0.478746
0.442291
0.40603
0.370289
0.335221
0.301046
0.268235
0.237541
0.209835
0.185973
0.166436
0.151031
0.139179
0.130273
0.124068
0.120913
0.121682
0.127391
0.138902
0.156785
0.178725
0.199806
0.214548
0.218825
0.211435
0.194624
0.173359
0.15366
0.140732
0.136541
0.140005
0.149628
0.16388
0.180916
0.198724
0.215409
0.229573
0.2405
0.248255
0.253667
0.25816
0.263448
0.271161
0.282494
0.297832
0.316954
0.339319
0.364261
0.391288
0.420362
0.452032
0.487381
0.527776
0.574627
0.629673
0.694388
0.765485
0.832746
0.883711
0.907316
0.897265
0.853727
0.782697
0.693578
0.596365
0.499658
0.408037
0.323339
0.247041
0.180571
0.125094
0.0800448
0.0421978
0.00724373
-0.0291821
-0.0703228
-0.117348
-0.168934
-0.22151
-0.270071
-0.309595
-0.336228
-0.347317
-0.342198
-0.322302
-0.290924
-0.252394
0
0.607765
1.78028
3.60515
5.90575
8.21672
9.91103
10.4451
9.60931
7.64868
5.17345
2.89671
1.33374
0.623829
0.554906
0.651478
0.686073
0.717071
0.746874
0.77735
0.809361
0.841155
0.869095
0.889364
0.900048
0.902813
0.903433
0.910851
0.934994
0.983996
1.05742
1.15078
1.26345
1.38924
1.51659
1.63526
1.73972
1.83126
1.91788
2.01205
2.12677
2.27139
2.44534
2.6402
2.84826
3.06257
3.27618
3.48378
3.68258
3.87255
4.05604
4.23676
4.41865
4.605
4.79848
4.99881
5.19875
5.38308
5.53595
5.64401
5.69748
5.68969
5.61612
5.47346
5.25955
4.97416
4.62098
4.21665
3.78156
3.33255
2.88132
2.43632
2.00546
1.59581
1.21334
0.862677
0.547046
0.268332
0.0271814
-0.17688
-0.34535
-0.480542
-0.585036
-0.66169
-0.714603
-0.749477
-0.771617
-0.785335
-0.793558
-0.797819
-0.798645
-0.7962
-0.790571
-0.783179
-0.776268
-0.772086
-0.771816
-0.774725
-0.777914
-0.776833
-0.766377
-0.742178
-0.703727
-0.652303
-0.587957
-0.512119
-0.430664
-0.35404
-0.292944
-0.256026
-0.247936
-0.268258
-0.311758
-0.369909
-0.433128
-0.492918
-0.544749
-0.587719
-0.621856
-0.647304
-0.664546
-0.674288
-0.677711
-0.676752
-0.673274
-0.668691
-0.663711
-0.658289
-0.651873
-0.643857
-0.634052
-0.623024
-0.612215
-0.603514
-0.598685
-0.598805
-0.603983
-0.613449
-0.625956
-0.640318
-0.655774
-0.672122
-0.689499
-0.707941
-0.726951
-0.745166
-0.760106
-0.768698
-0.767974
-0.755966
-0.732422
-0.698462
-0.657888
-0.61555
-0.57617
-0.543346
-0.519043
-0.503704
-0.49682
-0.4976
-0.505276
-0.519241
-0.538684
-0.561933
-0.586038
-0.606744
-0.618918
-0.617375
-0.598908
-0.562254
-0.507032
-0.434838
-0.348987
-0.253957
-0.154656
-0.0557699
0.0386753
0.125321
0.199337
0.254225
0.285608
0.288714
0.259601
0.197045
0.104198
-0.0108932
-0.136337
-0.258747
-0.366619
-0.456652
-0.527369
-0.577748
-0.608685
-0.622432
-0.622022
-0.610829
-0.592395
-0.570014
-0.547919
-0.531387
-0.525858
-0.536338
-0.566578
-0.618308
-0.690819
-0.780991
-0.883734
-0.994553
-0.726936
0
1.25322
3.00606
5.08229
7.13576
8.69098
9.27745
8.63182
6.86624
4.48019
2.16823
0.512315
-0.259474
-0.307614
-0.0722827
0.0626691
0.18045
0.277814
0.354093
0.417349
0.471895
0.520294
0.565407
0.610083
0.656821
0.707429
0.762753
0.822583
0.885704
0.950383
1.01485
1.07774
1.13845
1.19741
1.25613
1.31696
1.38283
1.45686
1.54191
1.64037
1.75392
1.8835
2.02943
2.19142
2.36878
2.56033
2.76441
2.97885
3.20102
3.42798
3.65678
3.88485
4.11011
4.33063
4.54397
4.74701
4.93486
5.09865
5.22376
5.29407
5.29708
5.22685
5.08357
4.87084
4.59282
4.25351
3.86955
3.46098
3.04295
2.6257
2.2179
1.82848
1.46581
1.13678
0.846215
0.596527
0.387
0.214456
0.073924
-0.0404986
-0.134757
-0.214068
-0.282357
-0.341959
-0.3936
-0.436259
-0.467942
-0.486289
-0.489207
-0.473596
-0.43611
-0.378985
-0.311375
-0.245148
-0.192385
-0.163287
-0.164725
-0.19944
-0.265701
-0.357295
-0.463944
-0.572388
-0.669229
-0.743751
-0.791953
-0.815571
-0.814164
-0.788871
-0.746039
-0.695536
-0.647373
-0.609794
-0.588029
-0.583766
-0.595348
-0.618648
-0.64841
-0.679768
-0.709582
-0.737119
-0.763495
-0.790538
-0.819967
-0.852433
-0.886916
-0.920672
-0.949724
-0.969703
-0.977407
-0.971796
-0.951881
-0.917114
-0.86655
-0.801994
-0.733159
-0.673362
-0.635018
-0.625996
-0.646645
-0.68883
-0.737595
-0.774968
-0.784599
-0.762091
-0.712985
-0.642364
-0.553744
-0.450012
-0.33658
-0.223421
-0.120825
-0.0363366
0.0271184
0.0721711
0.106551
0.141189
0.18732
0.253413
0.348716
0.474244
0.610947
0.73439
0.822878
0.863493
0.85452
0.804455
0.728686
0.644946
0.568412
0.505342
0.454312
0.411357
0.372996
0.336817
0.301221
0.265866
0.231641
0.200239
0.173479
0.152398
0.136815
0.125971
0.11814
0.110818
0.100848
0.0848978
0.0600083
0.0240736
-0.023728
-0.0831277
-0.151694
-0.225678
-0.319735
0
0.929523
2.5206
4.59549
6.75238
8.45994
9.2179
8.74389
7.11818
4.80106
2.4765
0.771012
-0.00833993
0.0353633
0.40897
0.565871
0.69266
0.785921
0.851017
0.901872
0.945562
0.988511
1.03492
1.08577
1.14038
1.19687
1.25263
1.30509
1.35239
1.39384
1.43012
1.4633
1.49658
1.53396
1.57982
1.6385
1.71371
1.80825
1.92391
2.06133
2.21984
2.39738
2.59068
2.79545
3.00685
3.21986
3.42996
3.63354
3.82837
4.01382
4.19094
4.36228
4.53148
4.70319
4.88765
5.11215
5.40379
5.7265
6.01328
6.21439
6.31407
6.32168
6.246
6.07448
5.77521
5.32229
4.74069
4.10829
3.5071
2.96498
2.46793
2.01226
1.60422
1.24708
0.941077
0.68383
0.470857
0.296445
0.154583
0.0397573
-0.0525294
-0.125635
-0.181596
-0.219974
-0.239864
-0.246543
-0.248472
-0.25414
-0.269185
-0.294078
-0.323676
-0.349055
-0.360949
-0.353294
-0.329273
-0.294503
-0.25267
-0.207998
-0.164379
-0.124805
-0.0912222
-0.064727
-0.0462389
-0.0364043
-0.0357667
-0.0447203
-0.0631331
-0.0899426
-0.122936
-0.158859
-0.193862
-0.224185
-0.247103
-0.261063
-0.265928
-0.262904
-0.254154
-0.242263
-0.229716
-0.218388
-0.209459
-0.203412
-0.200152
-0.199221
-0.200042
-0.202153
-0.205383
-0.209974
-0.216615
-0.226497
-0.240825
-0.260404
-0.285189
-0.313878
-0.3439
-0.371016
-0.390471
-0.398081
-0.391265
-0.369683
-0.335327
-0.292096
-0.245035
-0.199735
-0.162012
-0.136005
-0.123557
-0.123817
-0.133316
-0.146688
-0.158014
-0.16239
-0.15713
-0.143254
-0.122019
-0.0947592
-0.0620088
-0.0229787
0.0242033
0.0815859
0.15422
0.241247
0.331755
0.410628
0.463443
0.481083
0.462092
0.412204
0.341731
0.262204
0.183409
0.110215
0.0438591
-0.0157377
-0.0690764
-0.116782
-0.159415
-0.197327
-0.230563
-0.258853
-0.281754
-0.298909
-0.310258
-0.316225
-0.318221
-0.319056
-0.321975
-0.329679
-0.343456
-0.362655
-0.38471
-0.405775
-0.421777
-0.429557
-0.42859
-0.392535
0
0.732993
1.98861
3.80822
5.97046
8.00197
9.33395
9.53394
8.49605
6.49591
4.08756
1.89238
0.373615
-0.305166
-0.28434
-0.0596415
0.119872
0.268835
0.382319
0.462914
0.5232
0.570988
0.614669
0.661725
0.716787
0.781743
0.856914
0.941146
1.03199
1.12612
1.21919
1.30707
1.38683
1.45748
1.52027
1.57868
1.63766
1.70268
1.77849
1.868
1.97147
2.0879
2.21554
2.35259
2.49805
2.65212
2.81616
2.99191
3.18056
3.38172
3.59268
3.80867
4.02381
4.23163
4.42591
4.60145
4.75422
4.88075
4.97706
5.03846
5.0611
5.04071
4.97215
4.85039
4.6718
4.43542
4.1438
3.80323
3.42335
3.01831
2.60169
2.1845
1.77705
1.38859
1.02692
0.698168
0.406588
0.15446
-0.0578702
-0.231382
-0.368357
-0.473305
-0.551633
-0.608534
-0.64831
-0.673984
-0.687333
-0.689312
-0.679877
-0.658258
-0.627417
-0.594022
-0.565367
-0.546993
-0.540643
-0.543576
-0.54958
-0.551301
-0.542889
-0.523226
-0.495259
-0.462022
-0.426872
-0.393497
-0.36565
-0.346734
-0.338767
-0.34244
-0.356973
-0.380102
-0.408295
-0.437277
-0.462822
-0.481636
-0.492197
-0.494414
-0.490541
-0.484099
-0.478678
-0.47683
-0.479338
-0.485077
-0.491509
-0.495639
-0.495118
-0.4891
-0.478334
-0.465669
-0.454682
-0.448419
-0.448385
-0.454194
-0.463981
-0.475325
-0.486247
-0.495908
-0.504399
-0.512055
-0.519022
-0.524846
-0.52836
-0.527923
-0.521919
-0.50933
-0.490492
-0.466466
-0.438651
-0.408846
-0.378679
-0.349139
-0.320322
-0.291431
-0.261022
-0.227433
-0.189241
-0.145641
-0.0967326
-0.0433554
0.0132397
0.0715653
0.13009
0.187339
0.241885
0.292412
0.33755
0.37577
0.405129
0.422643
0.425799
0.413081
0.384268
0.341102
0.28764
0.230048
0.175707
0.131833
0.109494
0.115595
0.139999
0.164717
0.170627
0.144597
0.0841665
-0.0018528
-0.0968813
-0.182705
-0.246619
-0.290495
-0.321029
-0.342088
-0.358408
-0.374624
-0.394156
-0.418479
-0.446935
-0.477124
-0.469247
0
1.10912
2.92672
5.28073
7.75075
9.75641
10.7346
10.3538
8.67704
6.17888
3.57634
1.53546
0.406469
0.131815
0.364547
0.48948
0.602459
0.696045
0.769047
0.831004
0.888758
0.946483
1.00796
1.07621
1.15304
1.23866
1.33161
1.42967
1.52916
1.62575
1.71571
1.79687
1.86925
1.93521
1.99894
2.06566
2.1405
2.22744
2.32862
2.44488
2.57665
2.72404
2.88694
3.06505
3.25747
3.46226
3.67607
3.89417
4.11085
4.32029
4.51798
4.70174
4.87234
5.032
5.18473
5.36016
5.64248
6.01069
6.35826
6.60498
6.70557
6.64269
6.41981
6.0622
5.62068
5.16527
4.74584
4.34323
3.9453
3.55049
3.15998
2.7767
2.4045
2.04784
1.71126
1.39897
1.11488
0.86522
0.656067
0.488052
0.360348
0.270556
0.214628
0.186992
0.18101
0.189747
0.206868
0.227325
0.2479
0.267162
0.284578
0.300155
0.314128
0.326713
0.337957
0.347707
0.355639
0.36132
0.364282
0.364119
0.360617
0.353903
0.344598
0.333947
0.323839
0.316676
0.315046
0.321949
0.341674
0.377313
0.422506
0.464879
0.490833
0.490252
0.460178
0.40592
0.339269
0.274719
0.225271
0.194636
0.180323
0.179863
0.191253
0.2121
0.239476
0.270281
0.301536
0.330659
0.355604
0.374915
0.387685
0.393495
0.39265
0.386112
0.375537
0.363193
0.35198
0.344941
0.34459
0.352283
0.368868
0.39218
0.417847
0.440989
0.457663
0.465946
0.466296
0.461089
0.45361
0.446906
0.442716
0.441337
0.442426
0.445343
0.449321
0.453727
0.458241
0.462958
0.468432
0.475698
0.486259
0.502027
0.525169
0.557848
0.601857
0.65819
0.726642
0.806662
0.896123
0.988775
1.07519
1.14583
1.19272
1.21076
1.19819
1.15635
1.08888
1.00075
0.897636
0.78606
0.670852
0.555323
0.441887
0.33231
0.22787
0.129685
0.0394899
-0.0392272
-0.10164
-0.143344
-0.160052
-0.149299
-0.112167
-0.0529614
0.0181055
0.0862864
0.136775
0.158135
0.144823
0.0981977
0.0259955
-0.0593577
0
0.52884
1.70303
3.56019
5.88512
8.20053
9.8922
10.4367
9.63295
7.71377
5.26132
2.95828
1.30637
0.461474
0.260271
0.382238
0.478678
0.569348
0.652281
0.726737
0.79461
0.858036
0.918426
0.976833
1.03405
1.09051
1.14621
1.20072
1.2532
1.30277
1.34893
1.392
1.43343
1.47582
1.52258
1.57725
1.6427
1.72035
1.80973
1.90927
2.01645
2.12909
2.2463
2.36911
2.50037
2.64412
2.80454
2.98488
3.18546
3.4048
3.64058
3.88908
4.14549
4.40457
4.6597
4.90334
5.12788
5.32491
5.48459
5.59819
5.66097
5.66603
5.60419
5.4659
5.24474
4.94128
4.56562
4.13734
3.68368
3.23029
2.78986
2.37022
1.97829
1.6186
1.29358
1.00404
0.749611
0.529309
0.341588
0.184497
0.055834
-0.0464912
-0.124882
-0.182019
-0.220724
-0.243779
-0.254067
-0.255006
-0.25006
-0.242272
-0.233904
-0.226181
-0.219234
-0.212315
-0.204198
-0.193665
-0.179952
-0.16298
-0.143241
-0.121602
-0.0991053
-0.0767729
-0.0555405
-0.0363665
-0.0204453
-0.00927126
-0.00465379
-0.00854864
-0.0226542
-0.0478937
-0.0839268
-0.129289
-0.181087
-0.23333
-0.279228
-0.312691
-0.32959
-0.328481
-0.310612
-0.279232
-0.238475
-0.192236
-0.143644
-0.0943351
-0.0450238
0.00390251
0.0519794
0.0982949
0.141177
0.178343
0.207398
0.226282
0.233837
0.230181
0.216773
0.196141
0.17137
0.145524
0.121107
0.0996416
0.0819761
0.0686424
0.0599561
0.0561355
0.0574342
0.0642351
0.0770779
0.0966345
0.123603
0.158515
0.201489
0.251963
0.308574
0.369245
0.430682
0.489156
0.541277
0.584647
0.618296
0.642795
0.660025
0.672685
0.68369
0.69554
0.709769
0.727004
0.746954
0.767431
0.784222
0.792444
0.787812
0.767881
0.73288
0.685801
0.631705
0.576452
0.525176
0.480119
0.44161
0.409396
0.381907
0.356608
0.330711
0.301796
0.268308
0.229843
0.187136
0.141776
0.0957134
0.0507099
0.00785513
-0.0325157
-0.0708056
-0.1079
-0.1448
-0.182327
-0.220825
-0.260164
-0.302107
0
0.797684
2.16615
3.99179
5.9586
7.62341
8.5464
8.43612
7.26344
5.30081
3.05167
1.07423
-0.229566
-0.749582
-0.632115
-0.225479
0.177735
0.525578
0.766371
0.898281
0.99031
1.06486
1.12769
1.17945
1.22152
1.25558
1.28361
1.3079
1.33095
1.35534
1.38339
1.41695
1.45734
1.50539
1.56189
1.62785
1.70454
1.79335
1.89534
2.01077
2.13876
2.27682
2.42204
2.57184
2.72408
2.87738
3.0311
3.18527
3.34016
3.49613
3.65338
3.81204
3.9723
4.13508
4.30657
4.53694
4.97139
5.52884
6.04332
6.36274
6.42257
6.26144
5.96861
5.61369
5.21298
4.74287
4.22702
3.72638
3.25242
2.80089
2.36913
1.96043
1.57868
1.2272
0.908737
0.625717
0.3807
0.174339
0.00608611
-0.126022
-0.224934
-0.295366
-0.342794
-0.372804
-0.390426
-0.399646
-0.403167
-0.402479
-0.398177
-0.390477
-0.379622
-0.366088
-0.350998
-0.336253
-0.324136
-0.316706
-0.315188
-0.319525
-0.328241
-0.338714
-0.347818
-0.352741
-0.351802
-0.344882
-0.333038
-0.318245
-0.302735
-0.288326
-0.275944
-0.265464
-0.255887
-0.245748
-0.23366
-0.21889
-0.201491
-0.182323
-0.163384
-0.148247
-0.141113
-0.145865
-0.164927
-0.198245
-0.243
-0.293502
-0.341633
-0.379354
-0.400738
-0.403389
-0.388821
-0.361719
-0.328447
-0.295385
-0.267073
-0.245566
-0.232376
-0.22813
-0.232775
-0.245686
-0.265946
-0.292296
-0.323173
-0.356795
-0.391295
-0.424869
-0.455941
-0.483153
-0.505181
-0.520926
-0.529462
-0.529992
-0.521904
-0.504824
-0.478669
-0.443677
-0.400431
-0.349883
-0.293558
-0.233097
-0.170559
-0.108424
-0.0492809
0.00430608
0.0498204
0.0845637
0.103427
0.102278
0.0777762
0.0279058
-0.0466985
-0.141786
-0.249484
-0.359523
-0.461412
-0.546818
-0.61446
-0.663669
-0.696405
-0.716199
-0.726966
-0.732039
-0.733695
-0.733167
-0.730983
-0.727457
-0.72292
-0.71776
-0.712439
-0.707394
-0.702921
-0.699118
-0.695887
-0.692996
-0.690254
-0.510574
0
1.01999
2.6192
4.64766
6.70005
8.2097
8.65666
7.80352
5.83705
3.32399
0.986123
-0.595943
-1.19965
-0.99292
-0.678326
-0.406872
-0.209488
-0.0970246
-0.037562
-0.0140953
-0.0104685
-0.0113939
-0.00536947
0.0117218
0.041387
0.0848814
0.142529
0.213692
0.296968
0.390389
0.491613
0.598212
0.7079
0.818754
0.929414
1.03923
1.14838
1.25796
1.36993
1.48706
1.61263
1.75006
1.90234
2.07161
2.25871
2.46293
2.68217
2.91316
3.15193
3.39431
3.63637
3.87457
4.10511
4.3224
4.51801
4.6835
4.81157
4.8941
4.92414
4.89779
4.81454
4.67581
4.48288
4.23592
3.94206
3.61474
3.26452
2.89883
2.5244
2.14826
1.77766
1.41955
1.08003
0.764168
0.475853
0.21818
-0.00581512
-0.194883
-0.349013
-0.469193
54
260
468
666
875
1093
1287
1492
1703
1896
2085
2287
2495
2688
2885
3081
3284
3482
3676
3734
3038
3192
3342
3486
3625
3595
3713
0
0
0
0
0
0
0
0
0
0
0
0
0
0
0
0
0
0
0
0
0
0
0
0
0
0
0
0
0
0
0
0
0
0
0
0
0
0
0
0
0
0
0
0
0
0
0
0
0
0
0
0
0
0
0
0
0
0
0
0
0
0
0
0
0
0
0
0
0
0
0
0
0
0
0
0
0
0
0
0
0
0
0
0
0
0
0
0
0
0
0
0
0
0
0
0
0
0
0
0
0
0
0
0
0
0
0
0
0
0
0
0
0
0
0
0
0
0
0
0
0
0
0
0
0
0
0
0
0
0
0
0
0
0
0
0
0
0
0
0
0
0
0
0
0
0
0
0
0
0
0
0
0
0
0
0
0
0
0
0
0
0
0
0
0
0
0
0
0
0
0
0
0
0
0
0
0
0
0
0
0
0
0
0
0
0
0
0
0
0
0
0
0
0
0
0
0
0
0
0
0
0
0
0
0
0
0
0
0
0
0
0
0
0
0
0
0
0
0
0
0
0
0
0
0
0
0
0
0
0
0
0
0
0
0
0
0
0
0
0
0
0
0
0
0
0
0
0
0
0
0
0
0
0
0
0
0
0
0
0
0
0
0
0
0
0
0
0
0
0
0
0
0
0
0
0
0
0
0
0
0
0
0
0
0
0
0
0
0
0
0
0
0
0
0
0
0
0
0
0
0
0
0
0
0
0
0
0
0
0
0
0
0
0
0
0
0
0
0
0
0
0
0
0
0
0
0
0
0
0
0
0
0
0
0
0
0
0
0
0
0
0
0
0
0
0
0
0
0
0
0
0
0
0
0
0
0
0
0
0
0
0
0
0
0
0
0
0
0
0
0
0
0
0
0
0
0
0
0
0
0
0
0
0
0
0
0
0
0
0
0
0
0
0
0
0
0
0
0
0
0
0
0
0
0
0
0
0
0
0
0
0
0
0
0
0
0
0
0
0
0
0
0
0
0
0
0
0
0
0
0
0
0
0
0
0
0
0
0
0
0
0
0
0
0
0
0
0
0
0
0
0
0
0
0
0
0
0
0
0
0
0
0
0
0
0
0
0
0
0
0
0
0
0
0
0
0
0
0
0
0
0
0
0
0
0
0
0
0
0
0
0
0
0
0
0
0
0
0
0
0
0
0
0
0
0
0
0
0
0
0
0
0
0
0
0
0
0
0
0
0
0
0
0
0
0
0
0
0
0
0
0
0
0
0
0
0
0
0
0
0
0
0
0
0
0
0
0
0
0
0
0
0
0
0
0
0
0
0
0
0
0
0
0
0
0
0
0
0
0
0
0
0
0
0
0
0
0
0
0
0
0
0
0
0
0
0
0
0
0
0
0
0
0
0
0
0
0
0
0
0
0
0
0
0
0
0
0
0
0
0
0
0
0
0
0
0
0
0
0
0
0
0
0
0
0
0
0
0
0
0
0
0
0
0
0
0
0
0
0
0
0
0
0
0
0
0
0
0
0
0
0
0
0
0
0
0
0
0
0
0
0
0
0
0
0
0
0
0
0
0
0
0
0
0
0
0
0
0
0
0
0
0
0
0
0
0
0
0
0
0
0
0
0
0
0
0
0
0
0
0
0
0
0
0
0
0
0
0
0
0
0
0
0
0
0
0
0
0
0
0
0
0
0
0
0
0
0
0
0
0
0
0
0
0
0
0
0
0
0
0
0
0
0
0
0
0
0
0
0
0
0
0
0
0
0
0
0
0
0
0
0
0
0
0
0
0
0
0
0
0
0
0
0
0
0
0
0
0
0
0
0
0
0
0
0
0
0
0
0
0
0
0
0
0
0
0
0
0
0
0
0
0
0
0
0
0
0
0
0
0
0
0
0
0
0
0
0
0
0
0
0
0
0
0
0
0
0
0
0
0
0
0
0
0
0
0
0
0
0
0
0
0
0
0
0
0
0
0
0
0
0
0
0
0
0
0
0
0
0
0
0
0
0
0
0
0
0
0
0
0
0
0
0
0
0
0
0
0
0
0
0
0
0
0
0
0
0
0
0
0
0
0
0
0
0
0
0
0
0
0
0
0
0
0
0
0
0
0
0
0
0
0
0
0
0
0
0
0
0
0
0
0
0
0
0
0
0
0
0
0
0
0
0
0
0
0
0
0
0
0
0
0
0
0
0
0
0
0
0
0
0
0
0
0
0
0
0
0
0
0
0
0
0
0
0
0
0
0
0
0
0
0
0
0
0
0
0
0
0
0
0
0
0
0
0
0
0
0
0
0
0
0
0
0
0
0
0
0
0
0
0
0
0
0
0
0
0
0
0
0
0
0
0
0
0
0
0
0
0
0
0
0
0
0
0
0
0
0
0
0
0
0
0
0
0
0
0
0
0
0
0
0
0
0
0
0
0
0
0
0
0
0
0
0
0
0
0
0
0
0
0
0
0
0
0
0
0
0
0
0
0
0
0
0
0
0
0
0
0
0
0
0
0
0
0
0
0
0
0
0
0
0
0
0
0
0
0
0
0
0
0
0
0
0
0
0
0
0
0
0
0
0
0
0
0
0
0
0
0
0
0
0
0
0
0
0
0
0
0
0
0
0
0
0
0
0
0
0
0
0
0
0
0
0
0
0
0
0
0
0
0
0
0
0
0
0
0
0
0
0
0
0
0
0
0
0
0
0
0
0
0
0
0
0
0
0
0
0
0
0
0
0
0
0
0
0
0
0
0
0
0
0
0
0
0
0
0
0
0
0
0
0
0
0
0
0
0
0
0
0
0
0
0
0
0
0
0
0
0
0
0
0
0
0
0
0
0
0
0
0
0
0
0
0
0
0
0
0
0
0
0
0
0
0
0
0
0
0
0
0
0
0
0
0
0
0
0
0
0
0
0
0
0
0
0
0
0
0
0
0
0
0
0
0
0
0
0
0
0
0
0
0
0
0
0
0
0
0
0
0
0
0
0
0
0
0
0
0
0
0
0
0
0
0
0
0
0
0
0
0
0
0
0
0
0
0
0
0
0
0
0
0
0
0
0
0
0
0
0
0
0
0
0
0
0
0
0
0
0
0
0
0
0
0
0
0
0
0
0
0
0
0
0
0
0
0
0
0
0
0
0
0
0
0
0
0
0
0
0
0
0
0
0
0
0
0
0
0
0
0
0
0
0
0
0
0
0
0
0
0
0
0
0
0
0
0
0
0
0
0
0
0
0
0
0
0
0
0
0
0
0
0
0
0
0
0
0
0
0
0
0
0
0
0
0
0
0
0
0
0
0
0
0
0
0
0
0
0
0
0
0
0
0
0
0
0
0
0
0
0
0
0
0
0
0
0
0
0
0
0
0
0
0
0
0
0
0
0
0
0
0
0
0
0
0
0
0
0
0
0
0
0
0
0
0
0
0
0
0
0
0
0
0
0
0
0
0
0
0
0
0
0
0
0
0
0
0
0
0
0
0
0
0
0
0
0
0
0
0
0
0
0
0
0
0
0
0
0
0
0
0
0
0
0
0
0
0
0
0
0
0
0
0
0
0
0
0
0
0
0
0
0
0
0
0
0
0
0
0
0
0
0
0
0
0
0
0
0
0
0
0
0
0
0
0
0
0
0
0
0
0
0
0
0
0
0
0
0
0
0
0
0
0
0
0
0
0
0
0
0
0
0
0
0
0
0
0
0
0
0
0
0
0
0
0
0
0
0
0
0
0
0
0
0
0
0
0
0
0
0
0
0
0
0
0
0
0
0
0
0
0
0
0
0
0
0
0
0
0
0
0
0
0
0
0
0
0
0
0
0
0
0
0
0
0
0
0
0
0
0
0
0
0
0
0
0
0
0
0
0
0
0
0
0
0
0
0
0
0
0
0
0
0
0
0
0
0
0
0
0
0
0
0
0
0
0
0
0
0
0
0
0
0
0
0
0
0
0
0
0
0
0
0
0
0
0
0
0
0
0
0
0
0
0
0
0
0
0
0
0
0
0
0
0
0
0
0
0
0
0
0
0
0
0
0
0
0
0
0
0
0
0
0
0
0
0
0
0
0
0
0
0
0
0
0
0
0
0
0
0
0
0
0
0
0
0
0
0
0
0
0
0
0
0
0
0
0
0
0
0
0
0
0
0
0
0
0
0
0
0
0
0
0
0
0
0
0
0
0
0
0
0
0
0
0
0
0
0
0
0
0
0
0
0
0
0
0
0
0
0
0
0
0
0
0
0
0
0
0
0
0
0
0
0
0
0
0
0
0
0
0
0
0
0
0
0
0
0
0
0
0
0
0
0
0
0
0
0
0
0
0
0
0
0
0
0
0
0
0
0
0
0
0
0
0
0
0
0
0
0
0
0
0
0
0
0
0
0
0
0
0
0
0
0
0
0
0
0
0
0
0
0
0
0
0
0
0
0
0
0
0
0
0
0
0
0
0
0
0
0
0
0
0
0
0
0
0
0
0
0
0
0
0
0
0
0
0
0
0
0
0
0
0
0
0
0
0
0
0
0
0
0
0
0
0
0
0
0
0
0
0
0
0
0
0
0
0
0
0
0
0
0
0
0
0
0
0
0
0
0
0
0
0
0
0
0
0
0
0
0
0
0
0
0
0
0
0
0
0
0
0
0
0
0
0
0
0
0
0
0
0
0
0
0
0
0
0
0
0
0
0
0
0
0
0
0
0
0
0
0
0
0
0
0
0
0
0
0
0
0
0
0
0
0
0
0
0
0
0
0
0
0
0
0
0
0
0
0
0
0
0
0
0
0
0
0
0
0
0
0
0
0
0
0
0
0
0
0
0
0
0
0
0
0
0
0
0
0
0
0
0
0
0
0
0
0
0
0
0
0
0
0
0
0
0
0
0
0
0
0
0
0
0
0
0
0
0
0
0
0
0
0
0
0
0
0
0
0
0
0
0
0
0
0
0
0
0
0
0
0
0
0
0
0
0
0
0
0
0
0
0
0
0
0
0
0
0
0
0
0
0
0
0
0
0
0
0
0
0
0
0
0
0
0
0
0
0
0
0
0
0
0
0
0
0
0
0
0
0
0
0
0
0
0
0
0
0
0
0
0
0
0
0
0
0
0
0
0
0
0
0
0
0
0
0
0
0
0
0
0
0
0
0
0
0
0
0
0
0
0
0
0
0
0
0
0
0
0
0
0
0
0
0
0
0
0
0
0
0
0
0
0
0
0
0
0
0
0
0
0
0
0
0
0
0
0
0
0
0
0
0
0
0
0
0
0
0
0
0
0
0
0
0
0
0
0
0
0
0
0
0
0
0
0
0
0
0
0
0
0
0
0
0
0
0
0
0
0
0
0
0
0
0
0
0
0
0
0
0
0
0
0
0
0
0
0
0
0
0
0
0
0
0
0
0
0
0
0
0
0
0
0
0
0
0
0
0
0
0
0
0
0
0
0
0
0
0
0
0
0
0
0
0
0
0
0
0
0
0
0
0
0
0
0
0
0
0
0
0
0
0
0
0
0
0
0
0
0
0
0
0
0
0
0
0
0
0
0
0
0
0
0
0
0
0
0
0
0
0
0
0
0
0
0
0
0
0
0
0
0
0
0
0
0
0
0
0
0
0
0
0
0
0
0
0
0
0
0
0
0
0
0
0
0
0
0
0
0
0
0
0
0
0
0
0
0
0
0
0
0
0
0
0
0
0
0
0
0
0
0
0
0
0
0
0
0
0
0
0
0
0
0
0
0
0
0
0
0
0
0
0
0
0
0
0
0
0
0
0
0
0
0
0
0
0
0
0
0
0
0
0
0
0
0
0
0
0
0
0
0
0
0
0
0
0
0
0
0
0
0
0
0
0
0
0
0
0
0
0
0
0
0
0
0
0
0
0
0
0
0
0
0
0
0
0
0
0
0
0
0
0
0
0
0
0
0
0
0
0
0
0
0
0
0
0
0
0
0
0
0
0
0
0
0
0
0
0
0
0
0
0
0
0
0
0
0
0
0
0
0
0
0
0
0
0
0
0
0
0
0
0
0
0
0
0
0
0
0
0
0
0
0
0
0
0
0
0
0
0
0
0
0
0
0
0
0
0
0
0
0
0
0
0
0
0
0
0
0
0
0
0
0
0
0
0
0
0
0
0
0
0
0
0
0
0
0
0
0
0
0
0
0
0
0
0
0
0
0
0
0
0
0
0
0
0
0
0
0
0
0
0
0
0
0
0
0
0
0
0
0
0
0
0
0
0
0
0
0
0
0
0
0
0
0
0
0
0
0
0
0
0
0
0
0
0
0
0
0
0
0
0
0
0
0
0
0
0
0
0
0
0
0
0
0
0
0
0
0
0
0
0
0
0
0
0
0
0
0
0
0
0
0
0
0
0
0
0
0
0
0
0
0
0
0
0
0
0
0
0
0
0
0
0
0
0
0
0
0
0
0
0
0
0
0
0
0
0
0
0
0
0
0
0
0
0
0
0
0
0
0
0
0
0
0
0
0
0
0
0
0
0
0
0
0
0
0
0
0
0
0
0
0
0
0
0
0
0
0
0
0
0
0
0
0
0
0
0
0
0
0
0
0
0
0
0
0
0
0
0
0
0
0
0
0
0
0
0
0
0
0
0
0
0
0
0
0
0
0
0
0
0
0
0
0
0
0
0
0
0
0
0
0
0
0
0
0
0
0
0
0
0
0
0
0
0
0
0
0
0
0
0
0
0
0
0
0
0
0
0
0
0
0
0
0
0
0
0
0
0
0
0
0
0
0
0
0
0
0
0
0
0
0
0
0
0
0
0
0
0
0
0
0
0
0
0
0
0
0
0
0
0
0
0
0
0
0
0
0
0
0
0
0
0
0
0
0
0
0
0
0
0
0
0
0
0
0
0
0
0
0
0
0
0
0
0
0
0
0
0
0
0
0
0
0
0
0
0
0
0
0
0
0
0
0
0
0
0
0
0
0
0
0
0
0
0
0
0
0
0
0
0
0
0
0
0
0
0
0
0
0
0
0
0
0
0
0
0
0
0
0
0
0
0
0
0
0
0
0
0
0
0
0
0
0
0
0
0
0
0
0
0
0
0
0
0
0
0
0
0
0
0
0
0
0
0
0
0
0
0
0
0
0
0
0
0
0
0
0
0
0
0
0
0
0
0
0
0
0
0
0
0
0
0
0
0
0
0
0
0
0
0
0
0
0
0
0
0
0
0
0
0
0
0
0
0
0
0
0
0
0
0
0
0
0
0
0
0
0
0
0
0
0
0
0
0
0
0
0
0
0
0
0
0
0
0
0
0
0
0
0
0
0
0
0
0
0
0
0
0
0
0
0
0
0
0
0
0
0
0
0
0
0
0
0
0
0
0
0
0
0
0
0
0
0
0
0
0
0
0
0
0
0
0
0
0
0
0
0
0
0
0
0
0
0
0
0
0
0
0
0
0
0
0
0
0
0
0
0
0
0
0
0
0
0
0
0
0
0
0
0
0
0
0
0
0
0
0
0
0
0
0
0
0
0
0
0
0
0
0
0
0
0
0
0
0
0
0
0
0
0
0
0
0
0
0
0
0
0
0
0
0
0
0
0
0
0
0
0
0
0
0
0
0
0
0
0
0
0
0
0
0
0
0
0
0
0
0
0
0
0
0
0
0
0
0
0
0
0
0
0
0
0
0
0
0
0
0
0
0
0
0
0
0
0
0
0
0
0
0
0
0
0
0
0
0
0
0
0
0
0
0
0
0
0
0
0
0
0
0
0
0
0
0
0
0
0
0
0
0
0
0
0
0
0
0
0
0
0
0
0
0
0
0
0
0
0
0
0
0
0
0
0
0
0
0
0
0
0
0
0
0
0
0
0
0
0
0
0
0
0
0
0
0
0
0
0
0
0
0
0
0
0
0
0
0
0
0
0
0
0
0
0
0
0
0
0
0
0
0
0
0
0
0
0
0
0
0
0
0
0
0
0
0
0
0
0
0
0
0
0
0
0
0
0
0
0
0
0
0
0
0
0
0
0
0
0
0
0
0
0
0
0
0
0
0
0
0
0
0
0
0
0
0
0
0
0
0
0
0
0
0
0
0
0
0
0
0
0
0
0
0
0
0
0
0
0
0
0
0
0
0
0
0
0
0
0
0
0
0
0
0
0
0
0
0
0
0
0
0
0
0
0
0
0
0
0
0
0
0
0
0
0
0
0
0
0
0
0
0
0
0
0
0
0
0
0
0
0
0
0
0
0
0
0
0
0
0
0
0
0
0
0
0
0
0
0
0
0
0
0
0
0
0
0
0
0
0
0
0
0
0
0
0
0
0
0
0
0
0
0
0
0
0
0
0
0
0
0
0
0
0
0
0
0
0
0
0
0
0
0
0
0
0
0
0
0
0
0
0
0
0
0
0
0
0
0
0
0
0
0
0
0
0
0
0
0
0
0
0
0
0
0
0
0
0
0
0
0
0
0
0
0
0
0
0
0
0
0
0
0
0
0
0
0
0
0
0
0
0
0
0
0
0
0
0
