0.525751
-0.236025
-0.460088
-0.421382
-0.390544
-0.366518
-0.350816
-0.343298
-0.342302
-0.345064
-0.348289
-0.348705
-0.343716
-0.331407
-0.31035
-0.279734
-0.239398
-0.1898
-0.132055
-0.0679595
0.000124741
0.0694096
0.13703
0.200459
0.257892
0.308573
0.352912
0.392902
0.432502
0.477554
0.535676
0.615843
0.727548
0.879567
1.0785
1.32744
1.62386
1.96196
2.33382
2.73105
3.13677
3.52112
3.85053
4.10379
4.26755
4.3349
4.30571
4.18782
3.99753
3.7581
3.49538
3.23141
2.97566
2.72721
2.48268
2.23901
1.99346
1.74409
1.49048
1.23419
0.978755
0.729274
0.491681
0.271867
0.0748002
-0.0962011
-0.239763
-0.355978
-0.446797
-0.517215
-0.572996
-0.619405
-0.660236
-0.697277
-0.730346
-0.757892
-0.777956
-0.78916
-0.791643
-0.786514
-0.776225
-0.763616
-0.751057
-0.73977
-0.729518
-0.718752
-0.70511
-0.686128
-0.660085
-0.626675
-0.5866
-0.541647
-0.496374
-0.458691
-0.436991
-0.437858
-0.463873
-0.512433
-0.576259
-0.645612
-0.711345
-0.767463
-0.81412
-0.851853
-0.881997
-0.905427
-0.921906
-0.930276
-0.929328
-0.91887
-0.901217
-0.879103
-0.856546
-0.837842
-0.826415
-0.823974
-0.830127
-0.842535
-0.857549
-0.871155
-0.879947
-0.882026
-0.877517
-0.867847
-0.855069
-0.841778
-0.830824
-0.825046
-0.827171
-0.83965
-0.864091
-0.901013
-0.950748
-1.01216
-1.07744
-1.13523
-1.17391
-1.18447
-1.16264
-1.10925
-1.02872
-0.92661
-0.807461
-0.676199
-0.535209
-0.383892
-0.228238
-0.0836938
0.0304593
0.0974579
0.109525
0.0711988
-0.00217428
-0.0901705
-0.174657
-0.246564
-0.308201
-0.364043
-0.41725
-0.47019
-0.5239
-0.577592
-0.628962
-0.675087
-0.713565
-0.715559
0
1.2355
3.00597
5.18875
7.43284
9.19255
9.91757
9.32552
7.58484
5.26625
3.07069
1.49988
0.673432
0.380172
0.207462
0.0357961
-0.132379
-0.29305
-0.44165
-0.573458
-0.684159
-0.770629
-0.831118
-0.865287
-0.87417
-0.859983
-0.825819
-0.77529
-0.712154
-0.639986
-0.562023
-0.480883
-0.398463
-0.316047
-0.234433
-0.153987
-0.0746243
0.0042593
0.0838808
0.166146
0.253662
0.349635
0.457634
0.581213
0.723448
0.88646
1.071
1.27626
1.49988
1.7383
1.98735
2.24293
2.50173
2.76167
3.02205
3.28423
3.55264
3.82258
4.06621
4.24141
4.30993
4.25416
4.08326
3.82634
3.51737
3.18082
2.83042
2.4746
2.11908
1.76858
1.42885
1.10705
0.810736
0.546827
0.320832
0.136232
-0.00643177
-0.110166
-0.181812
-0.23128
-0.268245
-0.300383
-0.332181
-0.364612
-0.395769
-0.422274
-0.441081
-0.449308
-0.449352
-0.450056
-0.462757
-0.497138
-0.557327
-0.639902
-0.734642
-0.827727
-0.905985
-0.962689
-0.99926
-1.01512
-1.01116
-0.988765
-0.949296
-0.89422
-0.825682
-0.745434
-0.660194
-0.578426
-0.50863
-0.457328
-0.427612
-0.418857
-0.427617
-0.449189
-0.479073
-0.51316
-0.548858
-0.584149
-0.616715
-0.643658
-0.661568
-0.666912
-0.656658
-0.62896
-0.582408
-0.516593
-0.434452
-0.346415
-0.267839
-0.213449
-0.193709
-0.211896
-0.262944
-0.33474
-0.411679
-0.479288
-0.529188
-0.56244
-0.583046
-0.593271
-0.595442
-0.591541
-0.582915
-0.57039
-0.554635
-0.536517
-0.517277
-0.498407
-0.481301
-0.466819
-0.45495
-0.444671
-0.434054
-0.420527
-0.401222
-0.373501
-0.335096
-0.284009
-0.21877
-0.138406
-0.0420912
0.0704212
0.196908
0.328778
0.450978
0.54753
0.605387
0.617987
0.587566
0.525348
0.44931
0.379915
0.33489
0.319417
0.328733
0.362794
0.410136
0.451852
0.468362
0.444165
0.371373
0.250927
0.0911316
-0.0958099
-0.29766
-0.506543
0
1.14204
2.97266
5.36724
7.94346
10.1038
11.2331
10.9769
9.43598
7.13756
4.78108
2.90677
1.68849
0.960409
0.444669
0.236543
0.0614388
-0.0872185
-0.203254
-0.284713
-0.333633
-0.3551
-0.355893
-0.342852
-0.32203
-0.29763
-0.271735
-0.244588
-0.215257
-0.182487
-0.145203
-0.103099
-0.0572758
-0.00910225
0.0408035
0.0933399
0.151012
0.217273
0.295396
0.387438
0.492597
0.60867
0.734293
0.868741
1.01213
1.16565
1.33136
1.51174
1.70898
1.92428
2.15728
2.40573
2.66617
2.93313
3.19827
3.45087
3.67828
3.86642
4.0029
4.07893
4.08638
4.01838
3.87124
3.64687
3.35465
3.01138
2.63895
2.26077
1.89281
1.54133
1.21078
0.904523
0.624022
0.369428
0.140218
-0.0642223
-0.244237
-0.399702
-0.5303
-0.635754
-0.716212
-0.772556
-0.806751
-0.821846
-0.821731
-0.811134
-0.796155
-0.783478
-0.778457
-0.784147
-0.800702
-0.825415
-0.853524
-0.879621
-0.899249
-0.909331
-0.910497
-0.905726
-0.898716
-0.892189
-0.886945
-0.882064
-0.87609
-0.868355
-0.860383
-0.855578
-0.857854
-0.869891
-0.892004
-0.92217
-0.957089
-0.993575
-1.02947
-1.06389
-1.09602
-1.12471
-1.14822
-1.16437
-1.17101
-1.16664
-1.1518
-1.12747
-1.09568
-1.0592
-1.02111
-0.984319
-0.951222
-0.923566
-0.902536
-0.888936
-0.883652
-0.887214
-0.899908
-0.921489
-0.950853
-0.985878
-1.02357
-1.06051
-1.09358
-1.12051
-1.14017
-1.15324
-1.16134
-1.16611
-1.16829
-1.1671
-1.16012
-1.14385
-1.11461
-1.06987
-1.00962
-0.935701
-0.85127
-0.760753
-0.669694
-0.583944
-0.508784
-0.448225
-0.404659
-0.378782
-0.369735
-0.375405
-0.392775
-0.418248
-0.447884
-0.477584
-0.503085
-0.520364
-0.525992
-0.517536
-0.49393
-0.455669
-0.404724
-0.34418
-0.27767
-0.203266
0
0.727333
2.12738
4.05432
6.05709
7.53552
7.99759
7.28671
5.65416
3.63592
1.80589
0.542115
-0.0787781
-0.220208
-0.295136
-0.373088
-0.451833
-0.528958
-0.599179
-0.655611
-0.6913
-0.701199
-0.683839
-0.642053
-0.582431
-0.513615
-0.443978
-0.379461
-0.321984
-0.270266
-0.220524
-0.167899
-0.107833
-0.0381054
0.0421223
0.133358
0.235488
0.347804
0.469114
0.59782
0.732045
0.869838
1.00953
1.15011
1.29163
1.43544
1.58418
1.74158
1.91187
2.09916
2.30662
2.53775
2.79861
3.09266
3.41366
3.73964
4.03377
4.26808
4.42244
4.47815
4.41805
4.23364
3.93266
3.5405
3.09423
2.63417
2.19099
1.77089
1.37224
0.996251
0.645996
0.323186
0.0283573
-0.238821
-0.479161
-0.693633
-0.883188
-1.04876
-1.19111
-1.31132
-1.41142
-1.49393
-1.56159
-1.61712
-1.66308
-1.70187
-1.73582
-1.76739
-1.7997
-1.83593
-1.87836
-1.92755
-1.98199
-2.03695
-2.08594
-2.12247
-2.14194
-2.14282
-2.12684
-2.09794
-2.06069
-2.01866
-1.97384
-1.92628
-1.87499
-1.81899
-1.75793
-1.69235
-1.62499
-1.5603
-1.50282
-1.45581
-1.42039
-1.39552
-1.37879
-1.36772
-1.36091
-1.35845
-1.36158
-1.37144
-1.38768
-1.40741
-1.42494
-1.43254
-1.42191
-1.3877
-1.32874
-1.24017
-1.11667
-0.966563
-0.812606
-0.679302
-0.586672
-0.545367
-0.554494
-0.60244
-0.670182
-0.736075
-0.781694
-0.799824
-0.791274
-0.759661
-0.709012
-0.642443
-0.562664
-0.471914
-0.371778
-0.263372
-0.147774
-0.0264931
0.0981873
0.223154
0.344545
0.457629
0.556256
0.633461
0.684707
0.706946
0.699282
0.663498
0.604101
0.527654
0.44143
0.351797
0.26289
0.17584
0.090308
0.00488815
-0.0819988
-0.178004
0
0.816181
2.38756
4.53659
6.78755
8.49963
9.11322
8.40037
6.58519
4.25205
2.08407
0.572052
-0.152135
-0.277362
-0.157917
-0.0464558
0.0577076
0.150875
0.229782
0.293672
0.342677
0.37719
0.398009
0.40654
0.40485
0.395557
0.381776
0.367103
0.35548
0.351096
0.358064
0.379955
0.419271
0.476776
0.551763
0.64198
0.744349
0.855254
0.971722
1.0922
1.21699
1.34816
1.48908
1.64348
1.81447
2.00353
2.20967
2.43005
2.65995
2.89337
3.1239
3.34584
3.55533
3.75096
3.93395
4.1065
4.27158
4.43457
4.59267
4.72066
4.77813
4.72678
4.5482
4.25295
3.87623
3.46286
3.05019
2.65258
2.26733
1.89373
1.53356
1.1892
0.863936
0.562033
0.289253
0.0511072
-0.148413
-0.306916
-0.424116
-0.502028
-0.544871
-0.558714
-0.550764
-0.528219
-0.499607
-0.474414
-0.460931
-0.465257
-0.490672
-0.537314
-0.602301
-0.680351
-0.764803
-0.848819
-0.926917
-0.996266
-1.05569
-1.10474
-1.14354
-1.17353
-1.19678
-1.21458
-1.22655
-1.23026
-1.22154
-1.19243
-1.12067
-0.99681
-0.852145
-0.73481
-0.687488
-0.725404
-0.82763
-0.947008
-1.03341
-1.05769
-1.03788
-1.00221
-0.963433
-0.93211
-0.915247
-0.915186
-0.929841
-0.954043
-0.981444
-1.00645
-1.02595
-1.0389
-1.04554
-1.0469
-1.04457
-1.04034
-1.03585
-1.03259
-1.03184
-1.03458
-1.04137
-1.05223
-1.06642
-1.08236
-1.09781
-1.11016
-1.11697
-1.1165
-1.10828
-1.09261
-1.07054
-1.04359
-1.01288
-0.97866
-0.940137
-0.895697
-0.843536
-0.782436
-0.712447
-0.635329
-0.554313
-0.473342
-0.39665
-0.328176
-0.2712
-0.22842
-0.202475
-0.195253
-0.208084
-0.241776
-0.29617
-0.371079
-0.466061
-0.574491
-0.684722
-0.784671
-0.864325
-0.917586
-0.783786
0
1.24889
2.97706
5.02355
7.00377
8.39777
8.76423
7.95973
6.22677
4.09199
2.13198
0.738059
-0.0100217
-0.313651
-0.612579
-0.890553
-1.13819
-1.33925
-1.4806
-1.55586
-1.56781
-1.52809
-1.45437
-1.36605
-1.28005
-1.2046
-1.14163
-1.0925
-1.0564
-1.03094
-1.01291
-0.999145
-0.986439
-0.971873
-0.952671
-0.92585
-0.888074
-0.835919
-0.766482
-0.678046
-0.570387
-0.44604
-0.307137
-0.154301
0.0128387
0.195664
0.395999
0.6151
0.852535
1.10533
1.36789
1.63185
1.88579
2.11707
2.31383
2.46754
2.57379
2.63167
2.64304
2.61158
2.54166
2.43743
2.3021
2.13758
1.94585
1.72943
1.49038
1.22971
0.948059
0.646457
0.326242
-0.0109492
-0.363039
-0.731567
-1.11828
-1.49786
-1.8256
-2.05323
-2.14855
-2.11103
-1.97387
-1.79082
-1.61587
-1.48711
-1.39906
-1.33904
-1.31163
-1.31865
-1.36143
-1.43983
-1.55326
-1.70626
-1.87458
-2.02532
-2.1254
-2.15045
-2.09077
-1.95218
-1.75222
-1.5142
-1.25702
-1.011
-0.805637
-0.668178
-0.624722
-0.694298
-0.878041
-1.14879
-1.44845
-1.69935
-1.82986
-1.84483
-1.79237
-1.6796
-1.51615
-1.32177
-1.13049
-0.975885
-0.882567
-0.866576
-0.932116
-1.06556
-1.23274
-1.38527
-1.47642
-1.48184
-1.43126
-1.34849
-1.25341
-1.16654
-1.10445
-1.07655
-1.08414
-1.12134
-1.17726
-1.23881
-1.29399
-1.33528
-1.35927
-1.36608
-1.35833
-1.33882
-1.31116
-1.28022
-1.25071
-1.22566
-1.20582
-1.18954
-1.17328
-1.15264
-1.12351
-1.08296
-1.03031
-0.966609
-0.892513
-0.808061
-0.71246
-0.60247
-0.47048
-0.307547
-0.123553
0.0482824
0.167082
0.199863
0.13593
-0.00643549
-0.184781
-0.348242
-0.457971
-0.513544
-0.539244
-0.549415
-0.549923
-0.545026
-0.536531
-0.523804
-0.499689
0
0.907497
2.12018
3.72126
5.73583
7.91038
9.66756
10.3446
9.57982
7.5624
4.95551
2.55017
0.888771
0.0856429
-0.0927678
-0.119927
-0.169958
-0.227135
-0.291309
-0.360575
-0.431389
-0.499037
-0.558422
-0.604878
-0.633924
-0.64139
-0.626155
-0.595573
-0.562285
-0.538009
-0.529127
-0.533759
-0.541634
-0.537103
-0.50437
-0.432933
-0.325723
-0.194389
-0.0476347
0.107959
0.266799
0.425344
0.58249
0.739281
0.898202
1.06234
1.23456
1.41709
1.61157
1.81882
2.03854
2.26912
2.50739
2.74887
2.98649
3.21181
3.41633
3.59246
3.73407
3.83314
3.88058
3.87207
3.80322
3.67027
3.47145
3.20865
2.8885
2.52251
2.12615
1.71827
1.31487
0.928144
0.569128
0.246697
-0.0325863
-0.262302
-0.437309
-0.561641
-0.646169
-0.703933
-0.747871
-0.788796
-0.834002
-0.886615
-0.945648
-1.00662
-1.06298
-1.1082
-1.13623
-1.14321
-1.1228
-1.07778
-1.02101
-0.968121
-0.932684
-0.922205
-0.93666
-0.969925
-1.01313
-1.05815
-1.10014
-1.13767
-1.16967
-1.19494
-1.21197
-1.21895
-1.21435
-1.19746
-1.16914
-1.13098
-1.08528
-1.03446
-0.980565
-0.925247
-0.870041
-0.817927
-0.774072
-0.745289
-0.738117
-0.755863
-0.796334
-0.85166
-0.91058
-0.962218
-0.999611
-1.02477
-1.04078
-1.05071
-1.05761
-1.06354
-1.06898
-1.07293
-1.07353
-1.06901
-1.05852
-1.04214
-1.02115
-0.99772
-0.974026
-0.951523
-0.930486
-0.910035
-0.888662
-0.865091
-0.838983
-0.811975
-0.788718
-0.775244
-0.776572
-0.794221
-0.824588
-0.858955
-0.885284
-0.89133
-0.868
-0.815814
-0.740641
-0.6474
-0.543186
-0.435946
-0.332967
-0.240165
-0.161797
-0.100423
-0.0572786
-0.0329277
-0.0265117
-0.0364187
-0.0602081
-0.0948079
-0.135746
-0.176991
-0.21183
-0.233577
-0.236353
-0.215767
-0.169379
-0.0968745
0
0.126682
0.395297
1.05596
1.98332
3.21193
4.69241
6.1877
7.27797
7.52793
6.73852
5.10423
3.14644
1.45087
0.381121
-0.0456916
-0.0511969
-0.0712087
-0.0963523
-0.128993
-0.170646
-0.221112
-0.278459
-0.338704
-0.395097
-0.440215
-0.467816
-0.474423
-0.460232
-0.429009
-0.386985
-0.341075
-0.297023
-0.257996
-0.224123
-0.192752
-0.159259
-0.118061
-0.0647826
0.0044836
0.0930507
0.202866
0.334309
0.486205
0.65609
0.84013
1.03495
1.23768
1.44603
1.6583
1.8731
2.08909
2.30461
2.51754
2.72535
2.9251
3.11364
3.28768
3.44356
3.57654
3.68084
3.75111
3.78216
3.76851
3.70502
3.58775
3.41492
3.18762
2.91029
2.59079
2.2419
1.87769
1.51023
1.1503
0.80786
0.491404
0.207483
-0.0393991
-0.246519
-0.413885
-0.543387
-0.638423
-0.703281
-0.743083
-0.763113
-0.768433
-0.763643
-0.752817
-0.739608
-0.727464
-0.720016
-0.720444
-0.731016
-0.752383
-0.782961
-0.819021
-0.854294
-0.881758
-0.895365
-0.891599
-0.870271
-0.834287
-0.788498
-0.738126
-0.68744
-0.639179
-0.594883
-0.556761
-0.527762
-0.511694
-0.512274
-0.530617
-0.563045
-0.600655
-0.631235
-0.642928
-0.628055
-0.589934
-0.533995
-0.465729
-0.391499
-0.317121
-0.246952
-0.183982
-0.130315
-0.0868413
-0.0541133
-0.0325893
-0.0226999
-0.0248723
-0.0395313
-0.0669548
-0.106818
-0.156824
-0.213548
-0.270747
-0.317981
-0.343674
-0.338195
-0.296043
-0.210128
-0.0970355
0.0187023
0.112283
0.165952
0.17328
0.139393
0.0779498
0.0067266
-0.0563467
-0.10013
-0.120065
-0.113039
-0.0758502
-0.00568581
0.109194
0.295365
0.579933
0.935837
1.28365
1.55183
1.69128
1.68142
1.53188
1.28099
0.98826
0.717492
0.509672
0.351005
0.217496
0.0969594
-0.0130372
-0.114666
-0.209207
-0.29751
-0.372042
0
0.765537
2.00404
3.71421
5.6601
7.34393
8.1809
7.80145
6.28301
4.1338
2.02499
0.454861
-0.434518
-0.794558
-0.758984
-0.720154
-0.681018
-0.642359
-0.604807
-0.5686
-0.533523
-0.499047
-0.464625
-0.429965
-0.395173
-0.360634
-0.326679
-0.293181
-0.259206
-0.222895
-0.181642
-0.132549
-0.0731548
-0.00203638
0.0811545
0.176307
0.28141
0.393911
0.511683
0.633697
0.760289
0.892954
1.03377
1.18474
1.34721
1.52091
1.70525
1.89931
2.10183
2.31138
2.52657
2.74618
2.96943
3.19625
3.42819
3.67199
3.94854
4.2696
4.59179
4.83725
4.9344
4.85729
4.63527
4.32743
3.98254
3.61772
3.24027
2.86113
2.48593
2.11842
1.76204
1.41994
1.09489
0.789294
0.505656
0.24718
0.0183865
-0.176853
-0.335363
-0.451867
-0.516977
-0.532895
-0.517368
-0.490623
-0.469496
-0.462856
-0.470252
-0.484262
-0.49534
-0.496849
-0.48903
-0.476161
-0.462974
-0.453471
-0.449157
-0.448495
-0.447711
-0.442438
-0.429374
-0.408203
-0.379777
-0.344769
-0.303604
-0.255956
-0.200783
-0.136765
-0.0608436
0.0263308
0.11476
0.190325
0.239599
0.255268
0.239649
0.204643
0.168015
0.147394
0.153786
0.183069
0.22816
0.281778
0.334512
0.377527
0.404445
0.412412
0.402175
0.37735
0.343296
0.306043
0.27132
0.243524
0.226828
0.22471
0.239658
0.27278
0.323715
0.390268
0.468109
0.551099
0.630294
0.693282
0.728745
0.727798
0.686095
0.60576
0.496322
0.373835
0.257927
0.167444
0.113789
0.0985463
0.12042
0.172613
0.244768
0.325242
0.403409
0.472241
0.525912
0.560827
0.576397
0.57478
0.56088
0.542098
0.527682
0.527604
0.551071
0.612113
0.728653
0.905797
1.12844
1.35988
1.55579
1.68537
1.72661
1.6637
1.49454
1.24151
0.952182
0.684066
0.481905
0.341729
0.236116
0.151726
0.0855475
0.0342361
0
0.507155
1.56195
3.06749
4.94606
7.02126
8.95077
10.2564
10.5071
9.55791
7.6745
5.42695
3.41298
1.99604
1.21758
0.907715
0.877331
0.839078
0.795562
0.745473
0.689085
0.628305
0.567292
0.512025
0.468678
0.442123
0.434673
0.445466
0.470677
0.504503
0.540625
0.573795
0.600918
0.621225
0.636173
0.648746
0.662446
0.680181
0.703869
0.733442
0.76666
0.800246
0.831214
0.858315
0.883207
0.91103
0.950184
1.01127
1.10526
1.24115
1.42412
1.65316
1.92624
2.2466
2.60722
2.98054
3.32016
3.58997
3.76624
3.83397
3.78739
3.63497
3.40407
3.13812
2.88355
2.66996
2.48719
2.31588
2.14585
1.97131
1.78783
1.59274
1.38495
1.16426
0.930688
0.68413
0.423697
0.145699
-0.164076
-0.504807
-0.834373
-1.09443
-1.23399
-1.23195
-1.10549
-0.90093
-0.673837
-0.47006
-0.304892
-0.170513
-0.0771263
-0.0305877
-0.0368876
-0.100824
-0.223267
-0.420488
-0.677865
-0.935775
-1.12668
-1.1991
-1.1366
-0.96268
-0.729729
-0.497505
-0.310999
-0.167362
-0.0485895
0.0514167
0.133888
0.196325
0.234255
0.239546
0.201114
0.109557
-0.0509767
-0.292708
-0.569426
-0.821108
-0.996183
-1.0685
-1.04172
-0.941469
-0.801291
-0.649872
-0.503516
-0.364935
-0.233536
-0.110311
0.0009758
0.09493
0.16592
0.208634
0.220659
0.204588
0.168486
0.12416
0.0837021
0.0556371
0.0407692
0.0347289
0.0320416
0.0263722
0.0125279
-0.0120991
-0.0470514
-0.0893218
-0.134538
-0.178292
-0.217416
-0.25045
-0.276728
-0.295679
-0.306995
-0.310617
-0.306857
-0.296185
-0.280303
-0.262118
-0.244728
-0.230475
-0.220006
-0.211685
-0.201641
-0.184478
-0.154482
-0.107178
-0.0412552
0.0430272
0.144136
0.257182
0.37363
0.481398
0.567729
0.622181
0.63795
0.613115
0.551303
0.461297
0.355316
0.246217
0.144458
0.0545826
-0.0246001
-0.0954548
-0.159573
-0.218674
-0.274014
-0.324235
0
0.883857
2.35974
4.3822
6.72806
8.94905
10.4473
10.707
9.57668
7.40217
4.88321
2.72391
1.30384
0.58405
0.279752
0.178088
0.0753065
-0.0286659
-0.134397
-0.241845
-0.34865
-0.448153
-0.530744
-0.58623
-0.607027
-0.59088
-0.541966
-0.469891
-0.387017
-0.305155
-0.231568
-0.167898
-0.113594
-0.0674192
-0.0275928
0.00835252
0.0435248
0.0814235
0.125914
0.181142
0.251256
0.33992
0.449658
0.58123
0.732977
0.900878
1.07977
1.26377
1.44711
1.62507
1.79474
1.95548
2.10894
2.2587
2.40976
2.57063
2.76375
3.04489
3.45833
3.92816
4.348
4.6321
4.71945
4.575
4.19262
3.60694
2.90904
2.25339
1.7693
1.40273
1.08945
0.808067
0.558344
0.340835
0.156135
0.00678916
-0.110298
-0.208278
-0.30224
-0.405699
-0.526935
-0.66652
-0.816955
-0.964566
-1.09296
-1.19037
-1.2544
-1.28021
-1.26189
-1.18812
-1.0604
-0.904321
-0.752632
-0.634849
-0.571411
-0.570509
-0.627728
-0.727863
-0.848149
-0.962622
-1.05012
-1.10152
-1.11787
-1.10548
-1.07111
-1.01996
-0.957638
-0.890017
-0.822649
-0.760386
-0.707269
-0.666408
-0.639358
-0.626331
-0.626114
-0.636044
-0.65211
-0.66932
-0.682323
-0.686244
-0.677562
-0.654707
-0.617054
-0.567281
-0.513463
-0.466189
-0.43498
-0.425803
-0.439522
-0.471827
-0.514746
-0.559276
-0.598222
-0.628977
-0.653278
-0.67346
-0.692478
-0.712838
-0.73574
-0.760788
-0.786277
-0.809822
-0.828991
-0.841904
-0.846832
-0.842049
-0.82577
-0.796329
-0.752668
-0.694964
-0.625057
-0.546712
-0.464342
-0.382558
-0.305301
-0.235274
-0.173832
-0.121599
-0.0784555
-0.0444069
-0.0199243
-0.00590878
-0.0035496
-0.0133377
-0.0347163
-0.0657371
-0.103057
-0.14231
-0.178777
-0.208169
-0.227309
-0.234987
-0.231234
-0.216873
-0.193414
-0.158123
0
0.636537
1.74098
3.21824
4.81509
6.14712
6.807
6.54635
5.43467
3.86381
2.35767
1.29034
0.705516
0.362531
0.0353891
-0.232596
-0.468118
-0.660165
-0.802384
-0.893872
-0.938953
-0.945956
-0.925305
-0.887398
-0.84152
-0.792841
-0.743443
-0.692753
-0.63834
-0.577083
-0.506472
-0.425669
-0.335996
-0.240682
-0.144497
-0.0520348
0.0337076
0.112291
0.186046
0.259509
0.338329
0.428013
0.532071
0.651913
0.787926
0.939423
1.10467
1.2813
1.46672
1.65848
1.85447
2.05295
2.25234
2.45078
2.64485
2.82925
2.9973
3.14136
3.25371
3.32735
3.35542
3.33295
3.25615
3.12296
2.93384
2.69263
2.40686
2.08718
1.74618
1.39782
1.05258
0.718249
0.402136
0.110801
-0.150113
-0.376081
-0.561943
-0.700287
-0.787993
-0.834653
-0.855931
-0.868693
-0.887307
-0.920512
-0.969789
-1.02962
-1.08954
-1.13732
-1.1642
-1.16737
-1.14804
-1.10838
-1.05371
-0.991314
-0.929486
-0.878308
-0.848505
-0.847537
-0.879234
-0.942302
-1.02919
-1.12654
-1.21564
-1.27742
-1.29747
-1.27011
-1.19992
-1.10027
-0.989343
-0.885336
-0.798662
-0.735046
-0.69687
-0.68247
-0.687004
-0.703637
-0.724805
-0.743533
-0.754363
-0.75416
-0.742754
-0.72178
-0.693427
-0.660579
-0.626751
-0.596192
-0.573971
-0.565336
-0.575032
-0.606599
-0.661392
-0.742809
-0.8489
-0.961873
-1.05947
-1.12028
-1.12879
-1.07831
-0.970834
-0.814605
-0.620602
-0.393701
-0.129979
0.155636
0.420982
0.606451
0.654791
0.539597
0.285107
-0.0343117
-0.317287
-0.475806
-0.51747
-0.507963
-0.475644
-0.434196
-0.395329
-0.366222
-0.348231
-0.337175
-0.325063
-0.302643
-0.262198
-0.197199
0
0.708864
1.66243
2.79377
4.03294
5.25186
6.23472
6.71162
6.46615
5.46453
3.91789
2.22184
0.795201
-0.0995915
-0.431558
-0.477941
-0.517182
-0.551927
-0.580051
-0.599314
-0.60779
-0.604332
-0.588906
-0.562664
-0.527696
-0.486509
-0.441424
-0.394044
-0.344918
-0.293668
-0.239353
-0.180946
-0.117803
-0.0499842
0.0216531
0.0958478
0.171276
0.246942
0.322573
0.398898
0.477756
0.561994
0.655166
0.761052
0.883064
1.02364
1.18376
1.36267
1.55795
1.76602
1.98275
2.20423
2.42747
2.6509
2.87449
3.09991
3.33197
3.58109
3.85913
4.15523
4.42675
4.62482
4.70388
4.6285
4.38445
3.99237
3.51264
3.02879
2.60845
2.24188
1.89981
1.57069
1.25292
0.947455
0.65727
0.387304
0.14369
-0.0680101
-0.243825
-0.380782
-0.477638
-0.539016
-0.572942
-0.588005
-0.59159
-0.588681
-0.581535
-0.570223
-0.553736
-0.531192
-0.503001
-0.470794
-0.436695
-0.40332
-0.373325
-0.349043
-0.332586
-0.325037
-0.326577
-0.336353
-0.352411
-0.371803
-0.390941
-0.40618
-0.414467
-0.413928
-0.40396
-0.384753
-0.356927
-0.321028
-0.277261
-0.225617
-0.165829
-0.0976449
-0.0250607
0.0436816
0.0987542
0.131518
0.137225
0.116591
0.0757598
0.0248862
-0.0239954
-0.0605223
-0.0793944
-0.0778436
-0.0543504
-0.00689347
0.0645509
0.156292
0.258189
0.353885
0.427066
0.465267
0.462698
0.421801
0.353017
0.272647
0.199304
0.149891
0.13133
0.140715
0.173641
0.226425
0.295461
0.375295
0.458194
0.536724
0.605339
0.661488
0.706165
0.743754
0.781174
0.82652
0.892174
1.00247
1.18264
1.3998
1.59307
1.69767
1.6686
1.50058
1.23335
0.936079
0.676982
0.495889
0.36407
0.254083
0.157303
0.0685676
0
0.471002
1.7001
3.705
6.18715
8.57359
10.1983
10.5727
9.6149
7.69413
5.44902
3.47673
2.08232
1.23169
0.703942
0.538788
0.43825
0.356472
0.295492
0.250108
0.21242
0.174701
0.132415
0.0862707
0.0424931
0.0110969
0.0026804
0.0240008
0.0722383
0.144479
0.234552
0.331281
0.422968
0.500052
0.557051
0.593397
0.613115
0.623642
0.634235
0.653857
0.688926
0.744208
0.823493
0.929072
1.06154
1.21975
1.40123
1.60239
1.81866
2.0447
2.27468
2.50257
2.72261
2.92973
3.11983
3.28966
3.43834
3.56659
3.67627
3.76957
3.84742
3.9041
3.9265
3.8986
3.79959
3.61187
3.33018
2.96781
2.55633
2.13809
1.75433
1.42005
1.13147
0.890856
0.695147
0.537747
0.410442
0.304974
0.214073
0.131989
0.0545872
-0.0203887
-0.0932935
-0.162734
-0.225739
-0.278245
-0.315127
-0.327521
-0.306563
-0.256441
-0.192466
-0.13429
-0.100205
-0.102105
-0.142703
-0.215334
-0.305807
-0.39558
-0.467576
-0.512134
-0.52591
-0.510409
-0.470171
-0.409755
-0.335683
-0.255476
-0.176712
-0.106643
-0.0527545
-0.0204596
-0.0126302
-0.0296341
-0.0689874
-0.125269
-0.190579
-0.255678
-0.311657
-0.351734
-0.372035
-0.371789
-0.355552
-0.333158
-0.315092
-0.308936
-0.316935
-0.335054
-0.353854
-0.361028
-0.344954
-0.293475
-0.19628
-0.0691452
0.0580877
0.154021
0.195575
0.173902
0.0954555
-0.0206345
-0.147072
-0.253653
-0.319381
-0.339086
-0.316581
-0.258113
-0.169854
-0.0576262
0.0709718
0.207554
0.344109
0.473999
0.592466
0.696673
0.784722
0.855153
0.906693
0.937955
0.946717
0.930215
0.885899
0.812375
0.708606
0.568301
0.392493
0.203015
0.0328014
-0.0867291
-0.133539
-0.100941
0
0.156733
0.819518
1.87351
3.45374
5.53688
7.81512
9.72202
10.6476
10.2412
8.61299
6.29134
3.96081
2.1491
1.05046
0.553402
0.4299
0.320606
0.214459
0.113026
0.018236
-0.0677909
-0.142915
-0.205216
-0.253137
-0.285548
-0.30164
-0.300807
-0.282385
-0.245524
-0.18928
-0.112978
-0.0168073
0.097516
0.227951
0.369286
0.510387
0.638546
0.742792
0.816575
0.859441
0.877255
0.881073
0.885168
0.90486
0.951487
1.03092
1.14741
1.30434
1.5019
1.73636
2.00006
2.28227
2.56999
2.84851
3.105
3.3306
3.52172
3.68038
3.81332
3.93027
4.04014
4.15606
4.28373
4.39467
4.43778
4.3591
4.12467
3.73763
3.24171
2.70901
2.21673
1.80043
1.43788
1.12441
0.861758
0.648086
0.478774
0.348195
0.249871
0.173715
0.108205
0.043972
-0.0246541
-0.098801
-0.174945
-0.24531
-0.300959
-0.334833
-0.344113
-0.331114
-0.302526
-0.267393
-0.234655
-0.209846
-0.195684
-0.192988
-0.2005
-0.215468
-0.234257
-0.253294
-0.269581
-0.281102
-0.286987
-0.287366
-0.28393
-0.279553
-0.277112
-0.278593
-0.284504
-0.293802
-0.304385
-0.31395
-0.320845
-0.324618
-0.32568
-0.324711
-0.321775
-0.315587
-0.303294
-0.280956
-0.244489
-0.185701
-0.0976739
0.00879292
0.109003
0.176578
0.194068
0.16067
0.0931865
0.0190594
-0.0358483
-0.0589068
-0.0610094
-0.0549972
-0.0544703
-0.068014
-0.0953509
-0.127832
-0.152708
-0.15876
-0.142189
-0.109164
-0.0644891
-0.0105306
0.0507056
0.117972
0.190708
0.26859
0.350931
0.436384
0.522381
0.605596
0.682845
0.75194
0.812214
0.8645
0.910506
0.951557
0.987635
1.01684
1.03488
1.03597
1.01424
0.965199
0.886909
0.780462
0.649884
0.497978
0.333716
0.165629
0
-0.152121
0.409246
1.47895
3.04745
5.04783
7.25296
9.20791
10.3204
10.1307
8.60904
6.25289
3.86595
2.14048
1.31717
1.1499
1.08335
0.954718
0.831872
0.721076
0.629152
0.561998
0.521119
0.49875
0.483465
0.464757
0.436805
0.400603
0.363557
0.336617
0.330035
0.349502
0.390403
0.447744
0.515226
0.587025
0.659683
0.73288
0.808948
0.891489
0.983784
1.08653
1.19889
1.31989
1.44838
1.58344
1.7248
1.87294
2.029
2.19424
2.36957
2.55506
2.74969
2.95143
3.15759
3.36532
3.5721
3.77584
3.97437
4.16409
4.33767
4.48348
4.584
4.61828
4.56796
4.42302
4.18476
3.86529
3.48465
3.06767
2.6437
2.22999
1.83626
1.47254
1.14696
0.86542
0.632113
0.447665
0.305542
0.195067
0.104547
0.0234029
-0.056179
-0.138434
-0.224112
-0.311277
-0.396403
-0.475758
-0.546127
-0.603522
-0.644548
-0.666769
-0.668574
-0.649545
-0.610835
-0.555384
-0.487835
-0.414098
-0.340646
-0.273629
-0.218462
-0.178802
-0.156033
-0.149134
-0.154756
-0.167641
-0.18146
-0.190024
-0.187471
-0.167739
-0.135848
-0.1055
-0.0926956
-0.1088
-0.154862
-0.219846
-0.283805
-0.324827
-0.327015
-0.295826
-0.229789
-0.144843
-0.0612507
0.00335492
0.0396694
0.0489671
0.0410423
0.028801
0.0219869
0.0228257
0.0262323
0.0241484
0.00979431
-0.0185314
-0.0563186
-0.0947305
-0.124288
-0.138311
-0.13806
-0.126169
-0.103695
-0.0715624
-0.0300557
0.0211798
0.0827086
0.15468
0.235809
0.323791
0.415825
0.508073
0.595248
0.671344
0.731137
0.770695
0.788004
0.783286
0.758848
0.718473
0.666501
0.606902
0.542937
0.476639
0.408937
0.340299
0.271097
0.201786
0.132899
0.0649518
0
0.224333
0.944904
2.31138
4.23688
6.32201
7.96987
8.64609
8.14026
6.66771
4.7481
2.9417
1.6053
0.800319
0.371275
0.191883
0.0835998
-0.00431191
-0.0660717
-0.0988428
-0.103071
-0.0821246
-0.0413451
0.0131571
0.0755842
0.140865
0.205541
0.266855
0.322324
0.370356
0.410287
0.442769
0.469982
0.495435
0.523231
0.557031
0.599072
0.649358
0.705975
0.767034
0.831261
0.898525
0.970387
1.05023
1.14294
1.25413
1.38905
1.55187
1.74479
1.9675
2.21702
2.48792
2.77304
3.06447
3.35162
3.61889
3.85178
4.03816
4.16858
4.23675
4.23965
4.17705
4.05084
3.86471
3.62426
3.34254
3.03303
2.70725
2.37542
2.04631
1.7269
1.42274
1.13752
0.87315
0.630138
0.408181
0.206798
0.0257834
-0.134617
-0.273879
-0.391557
-0.486903
-0.558872
-0.60958
-0.644876
-0.671118
-0.693604
-0.715298
-0.736409
-0.755013
-0.768472
-0.775062
-0.775186
-0.771339
-0.767401
-0.767236
-0.77324
-0.785409
-0.801232
-0.816384
-0.825903
-0.825616
-0.813289
-0.788438
-0.751319
-0.70246
-0.643088
-0.575128
-0.500522
-0.422905
-0.347274
-0.278347
-0.219372
-0.171188
-0.132037
-0.0983449
-0.0662305
-0.0331604
0.00104094
0.0333534
0.0589316
0.0731666
0.0735766
0.060694
0.037635
0.00869725
-0.0222231
-0.0526181
-0.0815047
-0.108131
-0.131384
-0.149419
-0.159747
-0.159771
-0.147541
-0.123005
-0.0872277
-0.0419358
0.0106164
0.0684878
0.130699
0.197528
0.270337
0.350982
0.440972
0.541471
0.651934
0.767907
0.879525
0.973626
1.03684
1.05802
1.03038
0.953074
0.831947
0.679208
0.511875
0.349046
0.207723
0.100377
0.0323329
0.000904846
0
0.346776
1.0061
2.08666
3.72128
5.82332
7.98238
9.55673
9.95897
8.97662
6.91105
4.43467
2.25496
0.801448
0.115007
-0.033084
0.0839279
0.189825
0.276979
0.334465
0.353086
0.328616
0.264922
0.175348
0.0810818
0.00638993
-0.0279407
-0.0142032
0.0460599
0.142378
0.25752
0.372298
0.471784
0.549132
0.601022
0.629536
0.641482
0.647165
0.658826
0.688881
0.747437
0.839804
0.966531
1.12505
1.31026
1.51571
1.73258
1.95036
2.1607
2.35913
2.5458
2.7249
2.90302
3.08667
3.27988
3.48287
3.69105
3.89139
4.06761
4.20395
4.28817
4.31278
4.27449
4.1726
4.00773
3.78195
3.50753
3.19655
2.85911
2.50639
2.15147
1.80777
1.48703
1.19889
0.948152
0.734821
0.55527
0.403834
0.27457
0.162716
0.0654874
-0.0178762
-0.0867006
-0.140007
-0.17712
-0.198527
-0.205954
-0.202507
-0.192073
-0.178502
-0.164959
-0.153549
-0.145288
-0.140389
-0.138683
-0.140029
-0.144515
-0.152447
-0.16415
-0.17971
-0.198783
-0.220552
-0.243801
-0.267052
-0.288683
-0.307044
-0.320237
-0.326196
-0.322876
-0.308462
-0.281716
-0.242321
-0.1911
-0.130048
-0.0621551
0.00888641
0.0790316
0.144056
0.199492
0.24088
0.264934
0.269524
0.254198
0.220682
0.173112
0.117831
0.0626227
0.0154923
-0.0167748
-0.0309779
-0.0260642
-0.00348815
0.0322367
0.0738556
0.113559
0.144421
0.161545
0.16273
0.148624
0.122434
0.0893076
0.0555416
0.0275299
0.010802
0.00948752
0.0259806
0.0609982
0.113904
0.182403
0.263392
0.351761
0.440455
0.522137
0.589921
0.637915
0.661554
0.657788
0.625262
0.564617
0.478928
0.367492
0.241568
0.123012
0.0356851
0
0.0239493
0.113183
0.259249
0.446602
0.662713
1.01297
1.74435
3.0469
4.90215
6.98814
8.74301
9.59427
9.24561
7.83951
5.88054
3.96372
2.49411
1.57332
1.08467
0.955642
0.910323
0.867777
0.823626
0.774985
0.720203
0.659183
0.593373
0.525763
0.460391
0.401844
0.354878
0.3245
0.314683
0.327876
0.364876
0.424537
0.503714
0.597565
0.700291
0.806186
0.910779
1.01195
1.10991
1.20663
1.3055
1.41054
1.52559
1.6535
1.79589
1.95281
2.12278
2.3029
2.48913
2.67654
2.85933
3.02972
3.18022
3.30544
3.40285
3.47394
3.52474
3.5655
3.61164
3.73531
4.05766
4.49225
4.87802
5.06563
4.97968
4.63899
4.13345
3.57686
3.06286
2.62409
2.22904
1.85923
1.51084
1.1877
0.895247
0.638379
0.420305
0.242416
0.103886
0.00187302
-0.0685232
-0.113294
-0.138634
-0.150127
-0.152182
-0.147776
-0.138325
-0.124158
-0.104625
-0.0784844
-0.0443587
-0.00130043
0.0507634
0.111785
0.177396
0.240019
0.291727
0.326835
0.343964
0.346581
0.341656
0.336897
0.337677
0.345104
0.355174
0.360827
0.355281
0.335495
0.304438
0.271365
0.250029
0.282563
0.467856
0.798617
1.1579
1.41578
1.483
1.33783
1.02351
0.628971
0.270327
0.0705643
0.0236246
0.0493658
0.105805
0.17817
0.2542
0.323308
0.378139
0.415143
0.434058
0.436599
0.424902
0.401069
0.366546
0.321004
0.264131
0.19644
0.119665
0.036729
-0.046662
-0.12418
-0.190169
-0.240704
-0.274065
-0.290473
-0.291282
-0.27802
-0.252077
-0.214787
-0.165898
-0.105126
-0.0325966
0.0508244
0.143401
0.242458
0.344926
0.447654
0.547578
0.641936
0.728288
0.804319
0.867719
0.916204
0.947437
0.958803
0.947607
0.911487
0.848979
0.756001
0.620312
0.439398
0.247724
0.0883102
0
0.00900764
0.109287
0.587868
1.57725
2.82526
4.43558
6.43987
8.60275
10.3844
11.1567
10.558
8.73243
6.27318
3.90842
2.15273
1.14745
0.736838
0.679116
0.61693
0.553447
0.488551
0.422716
0.357193
0.294115
0.236476
0.188329
0.154218
0.13789
0.141755
0.168742
0.22149
0.290336
0.362236
0.424861
0.470607
0.498925
0.515936
0.531572
0.555665
0.59482
0.647756
0.711993
0.78685
0.872245
0.968938
1.07847
1.20263
1.34273
1.49873
1.66896
1.85054
2.03977
2.23288
2.4269
2.62032
2.81333
3.00761
3.20668
3.4171
3.64426
3.8759
4.08322
4.23311
4.29966
4.27089
4.14807
3.93849
3.64712
3.2739
2.83348
2.35382
1.85886
1.3669
0.893718
0.454277
0.063591
-0.257577
-0.496496
-0.661412
-0.768645
-0.837856
-0.887193
-0.929809
-0.972508
-1.01638
-1.05867
-1.09532
-1.12367
-1.14225
-1.15018
-1.14738
-1.13457
-1.1133
-1.08593
-1.055
-1.02299
-0.99217
-0.964678
-0.942922
-0.930143
-0.928977
-0.941466
-0.968138
-1.00716
-1.05402
-1.10207
-1.14392
-1.17324
-1.18511
-1.17854
-1.15859
-1.1346
-1.116
-1.1089
-1.11387
-1.12545
-1.13362
-1.12682
-1.09548
-1.03641
-0.954964
-0.858318
-0.753761
-0.65049
-0.558037
-0.485037
-0.43834
-0.422589
-0.439921
-0.489676
-0.568107
-0.671613
-0.791754
-0.907379
-0.99633
-1.041
-1.03343
-0.977812
-0.889139
-0.78824
-0.69515
-0.622843
-0.569175
-0.531548
-0.506684
-0.490409
-0.478834
-0.469382
-0.461115
-0.454154
-0.449045
-0.445939
-0.443774
-0.439769
-0.429328
-0.406804
-0.366672
-0.304948
-0.220407
-0.115205
0.00529876
0.133449
0.260616
0.378645
0.480652
0.560356
0.612379
0.63508
0.628737
0.595589
0.53991
0.46746
0.385823
0.30274
0.22484
0.156678
0.100439
0.0563107
0.0232892
0
-0.00699255
0.19158
0.83647
1.93563
3.49775
5.36614
7.15759
8.34571
8.4866
7.45654
5.53464
3.27477
1.26144
-0.103113
-0.688372
-0.471346
-0.182846
0.0756581
0.262423
0.350724
0.338372
0.249218
0.125721
0.0153947
-0.0437519
-0.0497589
-0.019932
0.0331579
0.102136
0.18137
0.265237
0.348142
0.424893
0.491804
0.547022
0.590838
0.625855
0.656914
0.690642
0.734637
0.796389
0.882181
0.994804
1.13415
1.29866
1.48552
1.69026
1.90691
2.12887
2.34704
2.55122
2.7332
2.88865
3.01871
3.13053
3.2364
3.35249
3.52491
3.84548
4.2922
4.73694
5.06641
5.22344
5.20815
5.0525
4.7871
4.42077
3.94931
3.41139
2.87191
2.3688
1.91434
1.50756
1.1489
0.843815
0.59459
0.404238
0.278843
0.214998
0.186388
0.164583
0.124944
0.0521907
-0.0561721
-0.189909
-0.329844
-0.454191
-0.546002
-0.606458
-0.641015
-0.651872
-0.643547
-0.623272
-0.600099
-0.581702
-0.573101
-0.575965
-0.588606
-0.606671
-0.624401
-0.63616
-0.637875
-0.628886
-0.61043
-0.584422
-0.553581
-0.520739
-0.488314
-0.458043
-0.430988
-0.407812
-0.388715
-0.37354
-0.361698
-0.352021
-0.342725
-0.331599
-0.316433
-0.295581
-0.268466
-0.235893
-0.200011
-0.164016
-0.131697
-0.106969
-0.0940439
-0.0961185
-0.115431
-0.152915
-0.207853
-0.277614
-0.357605
-0.441515
-0.521848
-0.590904
-0.642674
-0.666773
-0.638385
-0.509396
-0.257118
0.0481286
0.32001
0.484153
0.498186
0.358771
0.0991829
-0.215204
-0.491197
-0.621024
-0.590586
-0.452118
-0.247671
0.0284626
0.394611
0.806181
1.18728
1.47297
1.62605
1.64365
1.55249
1.39558
1.21675
1.05019
0.910176
0.79348
0.695447
0.613875
0.54582
0.486178
0.427883
0.363423
0.285827
0.191496
0.0809484
-0.0580437
0
0.75365
2.21378
4.18159
6.29473
8.09767
9.13619
9.091
7.9213
5.93139
3.68469
1.77681
0.582745
0.127721
0.155005
0.178161
0.202152
0.227618
0.255714
0.287684
0.324605
0.367108
0.415192
0.468206
0.525024
0.584362
0.645183
0.707047
0.770246
0.835739
0.904896
0.979104
1.05949
1.14639
1.23824
1.32999
1.41438
1.48512
1.54001
1.58331
1.62663
1.68723
1.78416
1.93285
2.13965
2.39168
2.67081
2.96242
3.25007
3.51641
3.74778
3.93638
4.08136
4.18861
4.26954
4.33669
4.41728
4.63156
5.07905
5.61128
6.05921
6.28379
6.21239
5.8562
5.30056
4.67104
4.08757
3.59853
3.15744
2.74277
2.34973
1.98375
1.6527
1.3639
1.13108
0.985518
0.962757
1.04076
1.16062
1.2613
1.29824
1.25501
1.14442
1.00011
0.862583
0.765497
0.713982
0.695059
0.698973
0.720536
0.75583
0.800826
0.850908
175
361
537
707
882
1060
1240
1413
1599
1786
1961
2126
2296
2465
2636
2803
2966
3134
3311
3490
3663
3709
1999
2044
2099
2188
2267
2305
2383
2574
2644
2770
2879
2970
3166
3231
3275
3359
3489
3555
3606
3753
3708
3735
0
0
0
0
0
0
0
0
0
0
0
0
0
0
0
0
0
0
0
0
0
0
0
0
0
0
0
0
0
0
0
0
0
0
0
0
0
0
0
0
0
0
0
0
0
0
0
0
0
0
0
0
0
0
0
0
0
0
0
0
0
0
0
0
0
0
0
0
0
0
0
0
0
0
0
0
0
0
0
0
0
0
0
0
0
0
0
0
0
0
0
0
0
0
0
0
0
0
0
0
0
0
0
0
0
0
0
0
0
0
0
0
0
0
0
0
0
0
0
0
0
0
0
0
0
0
0
0
0
0
0
0
0
0
0
0
0
0
0
0
0
0
0
0
0
0
0
0
0
0
0
0
0
0
0
0
0
0
0
0
0
0
0
0
0
0
0
0
0
0
0
0
0
0
0
0
0
0
0
0
0
0
0
0
0
0
0
0
0
0
0
0
0
0
0
0
0
0
0
0
0
0
0
0
0
0
0
0
0
0
0
0
0
0
0
0
0
0
0
0
0
0
0
0
0
0
0
0
0
0
0
0
0
0
0
0
0
0
0
0
0
0
0
0
0
0
0
0
0
0
0
0
0
0
0
0
0
0
0
0
0
0
0
0
0
0
0
0
0
0
0
0
0
0
0
0
0
0
0
0
0
0
0
0
0
0
0
0
0
0
0
0
0
0
0
0
0
0
0
0
0
0
0
0
0
0
0
0
0
0
0
0
0
0
0
0
0
0
0
0
0
0
0
0
0
0
0
0
0
0
0
0
0
0
0
0
0
0
0
0
0
0
0
0
0
0
0
0
0
0
0
0
0
0
0
0
0
0
0
0
0
0
0
0
0
0
0
0
0
0
0
0
0
0
0
0
0
0
0
0
0
0
0
0
0
0
0
0
0
0
0
0
0
0
0
0
0
0
0
0
0
0
0
0
0
0
0
0
0
0
0
0
0
0
0
0
0
0
0
0
0
0
0
0
0
0
0
0
0
0
0
0
0
0
0
0
0
0
0
0
0
0
0
0
0
0
0
0
0
0
0
0
0
0
0
0
0
0
0
0
0
0
0
0
0
0
0
0
0
0
0
0
0
0
0
0
0
0
0
0
0
0
0
0
0
0
0
0
0
0
0
0
0
0
0
0
0
0
0
0
0
0
0
0
0
0
0
0
0
0
0
0
0
0
0
0
0
0
0
0
0
0
0
0
0
0
0
0
0
0
0
0
0
0
0
0
0
0
0
0
0
0
0
0
0
0
0
0
0
0
0
0
0
0
0
0
0
0
0
0
0
0
0
0
0
0
0
0
0
0
0
0
0
0
0
0
0
0
0
0
0
0
0
0
0
0
0
0
0
0
0
0
0
0
0
0
0
0
0
0
0
0
0
0
0
0
0
0
0
0
0
0
0
0
0
0
0
0
0
0
0
0
0
0
0
0
0
0
0
0
0
0
0
0
0
0
0
0
0
0
0
0
0
0
0
0
0
0
0
0
0
0
0
0
0
0
0
0
0
0
0
0
0
0
0
0
0
0
0
0
0
0
0
0
0
0
0
0
0
0
0
0
0
0
0
0
0
0
0
0
0
0
0
0
0
0
0
0
0
0
0
0
0
0
0
0
0
0
0
0
0
0
0
0
0
0
0
0
0
0
0
0
0
0
0
0
0
0
0
0
0
0
0
0
0
0
0
0
0
0
0
0
0
0
0
0
0
0
0
0
0
0
0
0
0
0
0
0
0
0
0
0
0
0
0
0
0
0
0
0
0
0
0
0
0
0
0
0
0
0
0
0
0
0
0
0
0
0
0
0
0
0
0
0
0
0
0
0
0
0
0
0
0
0
0
0
0
0
0
0
0
0
0
0
0
0
0
0
0
0
0
0
0
0
0
0
0
0
0
0
0
0
0
0
0
0
0
0
0
0
0
0
0
0
0
0
0
0
0
0
0
0
0
0
0
0
0
0
0
0
0
0
0
0
0
0
0
0
0
0
0
0
0
0
0
0
0
0
0
0
0
0
0
0
0
0
0
0
0
0
0
0
0
0
0
0
0
0
0
0
0
0
0
0
0
0
0
0
0
0
0
0
0
0
0
0
0
0
0
0
0
0
0
0
0
0
0
0
0
0
0
0
0
0
0
0
0
0
0
0
0
0
0
0
0
0
0
0
0
0
0
0
0
0
0
0
0
0
0
0
0
0
0
0
0
0
0
0
0
0
0
0
0
0
0
0
0
0
0
0
0
0
0
0
0
0
0
0
0
0
0
0
0
0
0
0
0
0
0
0
0
0
0
0
0
0
0
0
0
0
0
0
0
0
0
0
0
0
0
0
0
0
0
0
0
0
0
0
0
0
0
0
0
0
0
0
0
0
0
0
0
0
0
0
0
0
0
0
0
0
0
0
0
0
0
0
0
0
0
0
0
0
0
0
0
0
0
0
0
0
0
0
0
0
0
0
0
0
0
0
0
0
0
0
0
0
0
0
0
0
0
0
0
0
0
0
0
0
0
0
0
0
0
0
0
0
0
0
0
0
0
0
0
0
0
0
0
0
0
0
0
0
0
0
0
0
0
0
0
0
0
0
0
0
0
0
0
0
0
0
0
0
0
0
0
0
0
0
0
0
0
0
0
0
0
0
0
0
0
0
0
0
0
0
0
0
0
0
0
0
0
0
0
0
0
0
0
0
0
0
0
0
0
0
0
0
0
0
0
0
0
0
0
0
0
0
0
0
0
0
0
0
0
0
0
0
0
0
0
0
0
0
0
0
0
0
0
0
0
0
0
0
0
0
0
0
0
0
0
0
0
0
0
0
0
0
0
0
0
0
0
0
0
0
0
0
0
0
0
0
0
0
0
0
0
0
0
0
0
0
0
0
0
0
0
0
0
0
0
0
0
0
0
0
0
0
0
0
0
0
0
0
0
0
0
0
0
0
0
0
0
0
0
0
0
0
0
0
0
0
0
0
0
0
0
0
0
0
0
0
0
0
0
0
0
0
0
0
0
0
0
0
0
0
0
0
0
0
0
0
0
0
0
0
0
0
0
0
0
0
0
0
0
0
0
0
0
0
0
0
0
0
0
0
0
0
0
0
0
0
0
0
0
0
0
0
0
0
0
0
0
0
0
0
0
0
0
0
0
0
0
0
0
0
0
0
0
0
0
0
0
0
0
0
0
0
0
0
0
0
0
0
0
0
0
0
0
0
0
0
0
0
0
0
0
0
0
0
0
0
0
0
0
0
0
0
0
0
0
0
0
0
0
0
0
0
0
0
0
0
0
0
0
0
0
0
0
0
0
0
0
0
0
0
0
0
0
0
0
0
0
0
0
0
0
0
0
0
0
0
0
0
0
0
0
0
0
0
0
0
0
0
0
0
0
0
0
0
0
0
0
0
0
0
0
0
0
0
0
0
0
0
0
0
0
0
0
0
0
0
0
0
0
0
0
0
0
0
0
0
0
0
0
0
0
0
0
0
0
0
0
0
0
0
0
0
0
0
0
0
0
0
0
0
0
0
0
0
0
0
0
0
0
0
0
0
0
0
0
0
0
0
0
0
0
0
0
0
0
0
0
0
0
0
0
0
0
0
0
0
0
0
0
0
0
0
0
0
0
0
0
0
0
0
0
0
0
0
0
0
0
0
0
0
0
0
0
0
0
0
0
0
0
0
0
0
0
0
0
0
0
0
0
0
0
0
0
0
0
0
0
0
0
0
0
0
0
0
0
0
0
0
0
0
0
0
0
0
0
0
0
0
0
0
0
0
0
0
0
0
0
0
0
0
0
0
0
0
0
0
0
0
0
0
0
0
0
0
0
0
0
0
0
0
0
0
0
0
0
0
0
0
0
0
0
0
0
0
0
0
0
0
0
0
0
0
0
0
0
0
0
0
0
0
0
0
0
0
0
0
0
0
0
0
0
0
0
0
0
0
0
0
0
0
0
0
0
0
0
0
0
0
0
0
0
0
0
0
0
0
0
0
0
0
0
0
0
0
0
0
0
0
0
0
0
0
0
0
0
0
0
0
0
0
0
0
0
0
0
0
0
0
0
0
0
0
0
0
0
0
0
0
0
0
0
0
0
0
0
0
0
0
0
0
0
0
0
0
0
0
0
0
0
0
0
0
0
0
0
0
0
0
0
0
0
0
0
0
0
0
0
0
0
0
0
0
0
0
0
0
0
0
0
0
0
0
0
0
0
0
0
0
0
0
0
0
0
0
0
0
0
0
0
0
0
0
0
0
0
0
0
0
0
0
0
0
0
0
0
0
0
0
0
0
0
0
0
0
0
0
0
0
0
0
0
0
0
0
0
0
0
0
0
0
0
0
0
0
0
0
0
0
0
0
0
0
0
0
0
0
0
0
0
0
0
0
0
0
0
0
0
0
0
0
0
0
0
0
0
0
0
0
0
0
0
0
0
0
0
0
0
0
0
0
0
0
0
0
0
0
0
0
0
0
0
0
0
0
0
0
0
0
0
0
0
0
0
0
0
0
0
0
0
0
0
0
0
0
0
0
0
0
0
0
0
0
0
0
0
0
0
0
0
0
0
0
0
0
0
0
0
0
0
0
0
0
0
0
0
0
0
0
0
0
0
0
0
0
0
0
0
0
0
0
0
0
0
0
0
0
0
0
0
0
0
0
0
0
0
0
0
0
0
0
0
0
0
0
0
0
0
0
0
0
0
0
0
0
0
0
0
0
0
0
0
0
0
0
0
0
0
0
0
0
0
0
0
0
0
0
0
0
0
0
0
0
0
0
0
0
0
0
0
0
0
0
0
0
0
0
0
0
0
0
0
0
0
0
0
0
0
0
0
0
0
0
0
0
0
0
0
0
0
0
0
0
0
0
0
0
0
0
0
0
0
0
0
0
0
0
0
0
0
0
0
0
0
0
0
0
0
0
0
0
0
0
0
0
0
0
0
0
0
0
0
0
0
0
0
0
0
0
0
0
0
0
0
0
0
0
0
0
0
0
0
0
0
0
0
0
0
0
0
0
0
0
0
0
0
0
0
0
0
0
0
0
0
0
0
0
0
0
0
0
0
0
0
0
0
0
0
0
0
0
0
0
0
0
0
0
0
0
0
0
0
0
0
0
0
0
0
0
0
0
0
0
0
0
0
0
0
0
0
0
0
0
0
0
0
0
0
0
0
0
0
0
0
0
0
0
0
0
0
0
0
0
0
0
0
0
0
0
0
0
0
0
0
0
0
0
0
0
0
0
0
0
0
0
0
0
0
0
0
0
0
0
0
0
0
0
0
0
0
0
0
0
0
0
0
0
0
0
0
0
0
0
0
0
0
0
0
0
0
0
0
0
0
0
0
0
0
0
0
0
0
0
0
0
0
0
0
0
0
0
0
0
0
0
0
0
0
0
0
0
0
0
0
0
0
0
0
0
0
0
0
0
0
0
0
0
0
0
0
0
0
0
0
0
0
0
0
0
0
0
0
0
0
0
0
0
0
0
0
0
0
0
0
0
0
0
0
0
0
0
0
0
0
0
0
0
0
0
0
0
0
0
0
0
0
0
0
0
0
0
0
0
0
0
0
0
0
0
0
0
0
0
0
0
0
0
0
0
0
0
0
0
0
0
0
0
0
0
0
0
0
0
0
0
0
0
0
0
0
0
0
0
0
0
0
0
0
0
0
0
0
0
0
0
0
0
0
0
0
0
0
0
0
0
0
0
0
0
0
0
0
0
0
0
0
0
0
0
0
0
0
0
0
0
0
0
0
0
0
0
0
0
0
0
0
0
0
0
0
0
0
0
0
0
0
0
0
0
0
0
0
0
0
0
0
0
0
0
0
0
0
0
0
0
0
0
0
0
0
0
0
0
0
0
0
0
0
0
0
0
0
0
0
0
0
0
0
0
0
0
0
0
0
0
0
0
0
0
0
0
0
0
0
0
0
0
0
0
0
0
0
0
0
0
0
0
0
0
0
0
0
0
0
0
0
0
0
0
0
0
0
0
0
0
0
0
0
0
0
0
0
0
0
0
0
0
0
0
0
0
0
0
0
0
0
0
0
0
0
0
0
0
0
0
0
0
0
0
0
0
0
0
0
0
0
0
0
0
0
0
0
0
0
0
0
0
0
0
0
0
0
0
0
0
0
0
0
0
0
0
0
0
0
0
0
0
0
0
0
0
0
0
0
0
0
0
0
0
0
0
0
0
0
0
0
0
0
0
0
0
0
0
0
0
0
0
0
0
0
0
0
0
0
0
0
0
0
0
0
0
0
0
0
0
0
0
0
0
0
0
0
0
0
0
0
0
0
0
0
0
0
0
0
0
0
0
0
0
0
0
0
0
0
0
0
0
0
0
0
0
0
0
0
0
0
0
0
0
0
0
0
0
0
0
0
0
0
0
0
0
0
0
0
0
0
0
0
0
0
0
0
0
0
0
0
0
0
0
0
0
0
0
0
0
0
0
0
0
0
0
0
0
0
0
0
0
0
0
0
0
0
0
0
0
0
0
0
0
0
0
0
0
0
0
0
0
0
0
0
0
0
0
0
0
0
0
0
0
0
0
0
0
0
0
0
0
0
0
0
0
0
0
0
0
0
0
0
0
0
0
0
0
0
0
0
0
0
0
0
0
0
0
0
0
0
0
0
0
0
0
0
0
0
0
0
0
0
0
0
0
0
0
0
0
0
0
0
0
0
0
0
0
0
0
0
0
0
0
0
0
0
0
0
0
0
0
0
0
0
0
0
0
0
0
0
0
0
0
0
0
0
0
0
0
0
0
0
0
0
0
0
0
0
0
0
0
0
0
0
0
0
0
0
0
0
0
0
0
0
0
0
0
0
0
0
0
0
0
0
0
0
0
0
0
0
0
0
0
0
0
0
0
0
0
0
0
0
0
0
0
0
0
0
0
0
0
0
0
0
0
0
0
0
0
0
0
0
0
0
0
0
0
0
0
0
0
0
0
0
0
0
0
0
0
0
0
0
0
0
0
0
0
0
0
0
0
0
0
0
0
0
0
0
0
0
0
0
0
0
0
0
0
0
0
0
0
0
0
0
0
0
0
0
0
0
0
0
0
0
0
0
0
0
0
0
0
0
0
0
0
0
0
0
0
0
0
0
0
0
0
0
0
0
0
0
0
0
0
0
0
0
0
0
0
0
0
0
0
0
0
0
0
0
0
0
0
0
0
0
0
0
0
0
0
0
0
0
0
0
0
0
0
0
0
0
0
0
0
0
0
0
0
0
0
0
0
0
0
0
0
0
0
0
0
0
0
0
0
0
0
0
0
0
0
0
0
0
0
0
0
0
0
0
0
0
0
0
0
0
0
0
0
0
0
0
0
0
0
0
0
0
0
0
0
0
0
0
0
0
0
0
0
0
0
0
0
0
0
0
0
0
0
0
0
0
0
0
0
0
0
0
0
0
0
0
0
0
0
0
0
0
0
0
0
0
0
0
0
0
0
0
0
0
0
0
0
0
0
0
0
0
0
0
0
0
0
0
0
0
0
0
0
0
0
0
0
0
0
0
0
0
0
0
0
0
0
0
0
0
0
0
0
0
0
0
0
0
0
0
0
0
0
0
0
0
0
0
0
0
0
0
0
0
0
0
0
0
0
0
0
0
0
0
0
0
0
0
0
0
0
0
0
0
0
0
0
0
0
0
0
0
0
0
0
0
0
0
0
0
0
0
0
0
0
0
0
0
0
0
0
0
0
0
0
0
0
0
0
0
0
0
0
0
0
0
0
0
0
0
0
0
0
0
0
0
0
0
0
0
0
0
0
0
0
0
0
0
0
0
0
0
0
0
0
0
0
0
0
0
0
0
0
0
0
0
0
0
0
0
0
0
0
0
0
0
0
0
0
0
0
0
0
0
0
0
0
0
0
0
0
0
0
0
0
0
0
0
0
0
0
0
0
0
0
0
0
0
0
0
0
0
0
0
0
0
0
0
0
0
0
0
0
0
0
0
0
0
0
0
0
0
0
0
0
0
0
0
0
0
0
0
0
0
0
0
0
0
0
0
0
0
0
0
0
0
0
0
0
0
0
0
0
0
0
0
0
0
0
0
0
0
0
0
0
0
0
0
0
0
0
0
0
0
0
0
0
0
0
0
0
0
0
0
0
0
0
0
0
0
0
0
0
0
0
0
0
0
0
0
0
0
0
0
0
0
0
0
0
0
0
0
0
0
0
0
0
0
0
0
0
0
0
0
0
0
0
0
0
0
0
0
0
0
0
0
0
0
0
0
0
0
0
0
0
0
0
0
0
0
0
0
0
0
0
0
0
0
0
0
0
0
0
0
0
0
0
0
0
0
0
0
0
0
0
0
0
0
0
0
0
0
0
0
0
0
0
0
0
0
0
0
0
0
0
0
0
0
0
0
0
0
0
0
0
0
0
0
0
0
0
0
0
0
0
0
