-0.318152
-0.32385
-0.313503
-0.288354
-0.252108
-0.209777
-0.16714
-0.129025
-0.0983574
-0.0757889
-0.0599579
-0.0483124
-0.0382172
-0.0279907
-0.0175034
-0.00803146
-0.00156479
0
0.00898285
0.0124779
0.00970078
-0.00423203
0.24548
0.929234
2.12615
3.7128
5.33424
6.50417
6.80672
6.09762
4.5908
2.77297
1.18639
0.197266
-0.128533
0.0125492
0.175711
0.322504
0.453159
0.562558
0.649986
0.713954
0.754325
0.772414
0.771207
0.755527
0.73194
0.708287
0.692793
0.691743
0.708042
0.744136
0.802362
0.886893
0.98789
1.08901
1.1755
1.23945
1.28278
1.31659
1.357
1.41925
1.51262
1.631
1.76538
1.91107
2.06517
2.22537
2.39021
2.55896
2.73126
2.90666
3.08412
3.26178
3.4369
3.60603
3.7654
3.91144
4.04117
4.15249
4.24397
4.31481
4.36501
4.3949
4.40481
4.39503
4.36593
4.31817
4.25294
4.17212
4.07823
3.97432
3.86332
3.74752
3.62828
3.50611
3.38077
3.25171
3.11866
2.98217
2.84379
2.706
2.57179
2.44393
2.32464
2.21518
2.11576
2.02571
1.94381
1.86877
1.79957
1.73584
1.67789
1.62669
1.5835
1.5501
1.53021
1.5247
1.51972
1.49388
1.42342
1.28946
1.0847
0.816715
0.506443
0.1826
-0.127113
-0.415329
-0.67789
-0.909836
-1.10903
-1.27578
-1.41217
-1.52126
-1.60598
-1.66835
-1.70974
-1.73186
-1.73591
-1.72323
-1.69571
-1.65401
-1.60286
-1.54909
-1.49891
-1.45633
-1.42201
-1.39332
-1.3655
-1.3336
-1.29441
-1.24752
-1.19614
-1.14584
-1.10283
-1.07223
-1.05682
-1.05659
-1.06901
-1.08965
-1.11293
-1.13368
-1.14817
-1.15375
-1.14894
-1.13389
-1.10979
-1.07832
-1.04158
-1.0018
-0.961081
-0.921201
-0.883786
-0.850434
-0.822572
-0.801262
-0.787048
-0.779642
-0.777655
-0.778523
-0.77868
-0.773972
-0.760221
-0.734146
-0.693482
-0.636765
-0.563689
-0.475028
-0.372636
-0.259286
-0.137442
-0.00972252
0.121448
0.253803
0.383693
0.503911
0.605534
0.677019
0.70788
0.69442
0.643461
0.571042
0.49655
0.43571
0.392274
0.359248
0.331992
0.307587
0.282298
0.252382
0.215044
0.169225
0.116134
0.0593132
0.00411339
-0.0434143
-0.0739849
-0.0744316
-0.0502922
-0.0163807
0.0104263
0.0194164
0.0116257
0
0.00450134
0.0426491
0.12384
0.232868
0.357784
0.493523
0.635018
0.77788
0.734359
0.847522
1.38037
2.47727
4.07858
5.8607
7.30484
7.89916
7.38455
5.897
3.91211
2.01851
0.655985
-0.032156
-0.174088
-0.0358425
0.0799519
0.185128
0.27551
0.348445
0.40663
0.453271
0.49002
0.519255
0.543825
0.566759
0.590997
0.61919
0.653549
0.695736
0.747068
0.80865
0.881182
0.964828
1.05903
1.16239
1.27262
1.38671
1.50133
1.61289
1.71836
1.8164
1.90767
1.99485
2.08222
2.17488
2.2778
2.39487
2.52828
2.67711
2.83906
3.01176
3.19233
3.37752
3.56399
3.74849
3.92805
4.10006
4.26207
4.41072
4.54101
4.6479
4.72814
4.77708
4.78891
4.75742
4.67716
4.54466
4.35956
4.12557
3.85194
3.55493
3.24984
2.94869
2.66138
2.39659
2.16097
1.95999
1.79728
1.66977
1.5702
1.48988
1.42046
1.35542
1.29078
1.22517
1.15917
1.09439
1.0323
0.973676
0.919006
0.868447
0.82204
0.780065
0.743175
0.712531
0.689722
0.676559
0.674783
0.685744
0.710719
0.753769
0.819072
0.899125
0.97782
1.03797
1.06659
1.05919
1.02111
0.965393
0.908229
0.863861
0.836794
0.823692
0.821153
0.82673
0.838236
0.853452
0.870319
0.887142
0.902632
0.915825
0.925889
0.931923
0.932933
0.927888
0.915852
0.896261
0.869217
0.835691
0.797576
0.757523
0.718589
0.683687
0.654999
0.634298
0.622435
0.618272
0.618848
0.620419
0.619216
0.612138
0.597247
0.574003
0.543247
0.507013
0.468292
0.430384
0.396333
0.368679
0.349286
0.340576
0.344278
0.353274
0.352477
0.324944
0.257668
0.147073
-0.00243187
-0.167192
-0.317102
-0.425595
-0.477835
-0.473945
-0.426705
-0.355659
-0.280447
-0.214052
-0.157835
-0.112249
-0.0755047
-0.0438354
-0.0125988
0.0224747
0.0641983
0.113108
0.167065
0.223421
0.278988
0.329227
0.36845
0.392225
0.397197
0.381617
0.345789
0.292183
0.225029
0.149423
0.0702667
-0.00858116
-0.0851574
-0.157986
-0.225537
-0.28659
-0.339761
-0.383503
-0.416263
-0.436435
-0.443244
-0.436727
-0.417893
-0.388708
-0.351873
-0.310406
-0.267112
-0.224112
-0.182576
-0.142731
-0.104546
-0.0679249
-0.0329689
0
-0.0390594
0.0147247
0.542135
1.77975
3.62695
5.59587
7.00524
7.31909
6.42525
4.6824
2.7146
1.09408
0.108533
-0.276078
-0.286595
-0.27357
-0.279306
-0.291426
-0.309972
-0.333923
-0.361584
-0.391155
-0.421264
-0.451346
-0.481662
-0.513053
-0.546463
-0.582408
-0.620534
-0.659422
-0.696667
-0.729224
-0.753978
-0.768568
-0.771435
-0.761441
-0.738217
-0.701982
-0.653266
-0.592641
-0.520728
-0.437827
-0.344028
-0.239466
-0.124543
-0.000101089
0.132473
0.271301
0.414213
0.559091
0.704279
0.848965
0.993445
1.13915
1.28855
1.44907
1.65183
1.96032
2.31951
2.63359
2.82607
2.84882
2.69392
2.40533
2.07497
1.81163
1.68214
1.59073
1.48633
1.36566
1.22261
1.05527
0.866903
0.665371
0.461454
0.266357
0.0868271
-0.0714073
-0.204504
-0.311707
-0.39482
-0.457292
-0.503423
-0.53772
-0.564174
-0.58633
-0.608105
-0.632626
-0.661848
-0.696207
-0.734429
-0.773717
-0.810408
-0.840961
-0.863007
-0.875009
-0.877943
-0.877011
-0.878313
-0.886237
-0.9014
-0.919795
-0.933604
-0.933486
-0.911622
-0.864367
-0.7972
-0.717969
-0.632498
-0.545592
-0.461357
-0.382664
-0.310875
-0.245866
-0.186261
-0.129845
-0.0740334
-0.0163361
0.0451996
0.111633
0.182904
0.257748
0.333854
0.407751
0.474998
0.531332
0.573692
0.600764
0.61341
0.614767
0.609942
0.605354
0.609075
0.642166
0.732296
0.855981
0.967139
1.01815
0.982878
0.869926
0.719228
0.583854
0.506219
0.490027
0.498614
0.517735
0.53509
0.540919
0.530874
0.507273
0.478136
0.454177
0.444925
0.455508
0.481407
0.516655
0.557482
0.60123
0.645974
0.690766
0.735527
0.780676
0.826621
0.873286
0.919777
0.964166
1.00398
1.03686
1.06121
1.07665
1.08406
1.08517
1.08192
1.07574
1.06702
1.05468
1.03657
1.00985
0.971834
0.920691
0.856093
0.779478
0.693963
0.603937
0.514415
0.429856
0.353626
0.288385
0.235726
0.196038
0.168549
0.151598
0.142944
0.139394
0.136666
0.130314
0.116271
0.0912285
0.0528831
0
-0.0624817
-0.139263
-0.229245
-0.330364
-0.44286
-0.563805
-0.689149
-0.814477
-0.90481
-0.675625
-0.104949
0.869999
2.23696
3.83216
5.30768
6.21032
6.17282
5.11483
3.31658
1.30124
-0.408434
-1.50619
-1.96907
-1.95712
-1.86163
-1.77358
-1.69983
-1.64364
-1.60421
-1.57747
-1.55771
-1.53957
-1.5196
-1.4972
-1.47315
-1.44878
-1.42542
-1.40385
-1.38419
-1.36601
-1.34867
-1.33152
-1.31404
-1.29561
-1.27525
-1.25136
-1.22173
-1.18373
-1.13479
-1.07285
-0.997164
-0.908231
-0.806916
-0.694103
-0.570745
-0.437809
-0.296369
-0.147865
0.00560226
0.161091
0.314806
0.462411
0.599967
0.724768
0.836063
0.935404
1.0265
1.11388
1.2076
1.33356
1.48634
1.62615
1.69596
1.64628
1.45886
1.15746
0.798671
0.446894
0.147392
-0.120533
-0.372708
-0.60984
-0.831566
-1.0372
-1.22573
-1.39601
-1.54709
-1.67851
-1.79047
-1.88381
-1.95981
-2.01893
-2.06168
-2.08944
-2.1035
-2.10538
-2.09708
-2.08114
-2.06051
-2.03824
-2.01711
-1.9994
-1.98686
-1.98087
-1.98256
-1.99252
-2.01127
-2.03924
-2.07617
-2.12129
-2.17365
-2.2281
-2.27602
-2.30857
-2.31896
-2.30422
-2.26573
-2.20835
-2.13859
-2.06274
-1.98579
-1.9103
-1.83782
-1.76962
-1.70674
-1.64998
-1.59988
-1.55667
-1.52038
-1.49128
-1.46904
-1.45313
-1.44274
-1.43654
-1.43262
-1.42854
-1.42162
-1.40932
-1.39008
-1.36355
-1.32937
-1.28776
-1.2403
-1.18992
-1.14061
-1.0974
-1.06602
-1.05104
-1.05534
-1.07913
-1.11933
-1.16964
-1.22154
-1.26612
-1.2962
-1.30958
-1.30879
-1.2957
-1.27332
-1.24469
-1.21181
-1.17507
-1.13315
-1.08349
-1.0232
-0.9504
-0.863006
-0.759255
-0.646373
-0.53713
-0.444604
-0.37843
-0.342284
-0.333347
-0.343762
-0.363364
-0.382602
-0.395473
-0.400426
-0.397734
-0.38753
-0.369806
-0.344619
-0.312115
-0.272755
-0.226457
-0.17494
-0.122725
-0.0749146
-0.0357353
-0.0072525
0.011097
0.0219032
0.0283897
0.0329079
0.0361504
0.0375427
0.0359077
0.0304085
0.0212036
0.00968514
-0.00178375
-0.0105633
-0.0147415
-0.01366
-0.00784721
0
0.00745087
0.00984764
0.00490646
-0.00789375
-0.0273453
-0.0711823
0.10331
0.619122
1.58592
3.01564
4.71853
6.27722
7.17115
7.02229
5.81714
3.94605
2.01573
0.550295
-0.226244
-0.405106
-0.234922
-0.0991322
0.0247055
0.128074
0.205466
0.260727
0.296185
0.314114
0.317705
0.310481
0.295966
0.277571
0.258156
0.240384
0.227387
0.222948
0.230863
0.25493
0.298491
0.363891
0.451993
0.561853
0.690646
0.833847
0.985463
1.13916
1.28892
1.42969
1.55859
1.67561
1.78372
1.88843
1.9966
2.11491
2.24822
2.3984
2.56243
2.73556
2.91251
3.08754
3.25482
3.40728
3.53817
3.64458
3.72537
3.7807
3.81167
3.81984
3.80667
3.77287
3.71809
3.64223
3.54645
3.43052
3.29398
3.13776
2.96462
2.77931
2.58767
2.39589
2.21007
2.03543
1.87575
1.73316
1.60818
1.49987
1.4062
1.32501
1.25313
1.18565
1.1176
1.04473
0.964235
0.875514
0.780373
0.68278
0.58807
0.501622
0.426884
0.366883
0.323133
0.295731
0.283683
0.285372
0.298949
0.322591
0.355843
0.397776
0.444662
0.49044
0.528338
0.552285
0.558548
0.54697
0.521387
0.489062
0.459277
0.4409
0.442303
0.47985
0.549698
0.628823
0.688976
0.707819
0.677367
0.606454
0.516932
0.435738
0.385831
0.368559
0.372812
0.390395
0.417173
0.44876
0.481039
0.510955
0.537056
0.559685
0.580742
0.603081
0.62985
0.665549
0.713081
0.765576
0.810006
0.832064
0.82127
0.774815
0.698607
0.605277
0.510048
0.426234
0.3575
0.301524
0.25658
0.22234
0.198176
0.183323
0.176926
0.178881
0.189467
0.205663
0.221929
0.23279
0.235049
0.229718
0.222592
0.222932
0.256302
0.348677
0.474083
0.580013
0.615655
0.559103
0.429329
0.277632
0.163401
0.127165
0.150415
0.199413
0.262235
0.3366
0.425524
0.544885
0.723688
0.939992
1.12825
1.21028
1.1436
0.951725
0.716536
0.536636
0.473166
0.480395
0.498629
0.511264
0.506234
0.477212
0.424324
0.353033
0.271871
0.190032
0.114341
0.0475319
-0.00748329
-0.0485889
-0.0748188
-0.0865055
-0.0853516
-0.0743176
-0.0572456
-0.0382652
-0.0210838
-0.00832443
-0.00129166
0
-0.0634453
0.0828667
0.687481
1.84976
3.45164
5.14303
6.44485
6.936
6.43691
5.09646
3.33479
1.66614
0.488836
-0.0548771
-0.0857334
0.0134884
0.0342781
0.0385368
0.0252045
-0.00412598
-0.0456028
-0.0941032
-0.144496
-0.192988
-0.237864
-0.278196
-0.313343
-0.342619
-0.36434
-0.375022
-0.37109
-0.348578
-0.304238
-0.236667
-0.147001
-0.0388718
0.0823963
0.2111
0.342386
0.473651
0.604268
0.735095
0.868086
1.00569
1.15015
1.30291
1.46408
1.63223
1.80435
1.97622
2.14281
2.29878
2.43987
2.56337
2.6686
2.75691
2.83134
2.89593
2.95411
3.00898
3.06198
3.10957
3.14282
3.1499
3.11952
3.04387
2.92035
2.75145
2.54327
2.30336
2.04162
1.76813
1.48901
1.20809
0.929561
0.658316
0.400413
0.164602
-0.0426392
-0.216289
-0.353751
-0.455451
-0.524872
-0.567965
-0.592122
-0.604952
-0.613237
-0.622052
-0.634566
-0.652544
-0.676617
-0.706579
-0.741656
-0.780921
-0.823495
-0.868645
-0.915843
-0.964787
-1.01533
-1.06732
-1.1204
-1.17376
-1.22601
-1.27511
-1.31877
-1.35494
-1.38228
-1.40015
-1.40941
-1.41173
-1.40912
-1.40335
-1.39565
-1.38662
-1.3764
-1.365
-1.35252
-1.33921
-1.32527
-1.31081
-1.29569
-1.27947
-1.26157
-1.24137
-1.21857
-1.19316
-1.1662
-1.14047
-1.11956
-1.10693
-1.10505
-1.11482
-1.13545
-1.16498
-1.20105
-1.2416
-1.28491
-1.33023
-1.37739
-1.42635
-1.47686
-1.52819
-1.57835
-1.6233
-1.65799
-1.67728
-1.67734
-1.65701
-1.61852
-1.5672
-1.51024
-1.45486
-1.40609
-1.36484
-1.33028
-1.30157
-1.27722
-1.25561
-1.23526
-1.21505
-1.19422
-1.1722
-1.1485
-1.12259
-1.09397
-1.06216
-1.0269
-0.988231
-0.946572
-0.902707
-0.857689
-0.812805
-0.769413
-0.728797
-0.692149
-0.660672
-0.636095
-0.62192
-0.621389
-0.637514
-0.672401
-0.725898
-0.794467
-0.871154
-0.94499
-1.00358
-1.0357
-0.999485
-0.876942
-0.715431
-0.576682
-0.508617
-0.525932
-0.607173
-0.708564
-0.786794
-0.817733
-0.815777
-0.798764
-0.772285
-0.737278
-0.693347
-0.633567
-0.534754
-0.377954
-0.197126
-0.0518791
0
-0.0639984
-0.232636
-0.459327
-0.703818
-0.510278
0.204391
1.45394
3.09297
4.8021
6.14548
6.71677
6.31983
5.07448
3.36971
1.68362
0.377
-0.420911
-0.78886
-0.833067
-0.744217
-0.646215
-0.541254
-0.433941
-0.330851
-0.239055
-0.162551
-0.10363
-0.0609756
-0.0298561
-0.00341415
0.0253181
0.0618145
0.1099
0.163715
0.212894
0.247737
0.264322
0.267272
0.269079
0.286474
0.335389
0.420669
0.533642
0.668175
0.820163
0.984409
1.15506
1.3258
1.4914
1.64858
1.79646
1.93661
2.07251
2.20878
2.35015
2.50059
2.66226
2.83643
3.02736
3.2379
3.44965
3.63386
3.76341
3.82241
3.81294
3.7537
3.6698
3.57883
3.48246
3.37515
3.25666
3.12451
2.97774
2.8175
2.64633
2.46712
2.28278
2.09467
1.90328
1.70888
1.51215
1.31467
1.11924
0.929783
0.751406
0.590355
0.451756
0.339032
0.253717
0.195353
0.161767
0.149583
0.15488
0.173766
0.202773
0.238582
0.278595
0.320852
0.363231
0.403422
0.439119
0.468238
0.489186
0.501073
0.503823
0.498162
0.485519
0.467879
0.447702
0.427476
0.40946
0.395475
0.386942
0.384943
0.387592
0.388104
0.377472
0.346909
0.28028
0.166562
0.0373581
-0.060788
-0.0866669
-0.0228409
0.117027
0.295367
0.468476
0.605457
0.712762
0.805973
0.888171
0.960048
1.02262
1.07521
1.11563
1.14158
1.15197
1.1475
1.13034
1.10299
1.06717
1.02404
0.973828
0.916042
0.850117
0.776334
0.696387
0.613547
0.532669
0.466299
0.472525
0.637939
0.899895
1.14174
1.25127
1.17466
0.938844
0.633464
0.371974
0.257309
0.270292
0.325583
0.406927
0.503714
0.598642
0.675436
0.722942
0.737888
0.725228
0.695929
0.663137
0.638234
0.626023
0.624861
0.632374
0.646758
0.666184
0.688348
0.710156
0.728003
0.738196
0.737267
0.722349
0.691537
0.644169
0.580948
0.503909
0.416222
0.322309
0.226514
0.132883
0.0453053
-0.032589
-0.0974983
-0.146857
-0.176833
-0.1745
-0.126569
-0.0528824
0.0178333
0.0588539
0.0586456
0.0286743
0
0.0111679
0.0859703
0.217339
0.372734
0.540427
0.727728
0.772952
1.05454
1.82625
3.12293
4.65471
5.88296
6.27115
5.57654
4.00137
2.09841
0.484936
-0.451408
-0.682676
-0.481221
-0.360469
-0.258702
-0.181767
-0.129966
-0.0976749
-0.0750198
-0.050972
-0.0166988
0.0301201
0.0867439
0.149885
0.215833
0.280266
0.338363
0.385878
0.420682
0.44268
0.453886
0.458242
0.461192
0.468985
0.487874
0.523386
0.578193
0.651966
0.74509
0.857817
0.989042
1.13656
1.29678
1.4655
1.63674
1.80419
1.96239
2.10759
2.23801
2.35369
2.45323
2.53756
2.60777
2.66377
2.70458
2.7289
2.73589
2.72555
2.69871
2.65665
2.60127
2.53347
2.45251
2.35648
2.24387
2.11393
1.96556
1.79821
1.61302
1.41302
1.20305
0.989246
0.778244
0.576311
0.388636
0.218776
0.0676094
-0.0660225
-0.1846
-0.290964
-0.38738
-0.474898
-0.553112
-0.620554
-0.675321
-0.715903
-0.741419
-0.751632
-0.749113
-0.739266
-0.728081
-0.72092
-0.72159
-0.731916
-0.751861
-0.779992
-0.814062
-0.851367
-0.88908
-0.924337
-0.953638
-0.973565
-0.981079
-0.974208
-0.952675
-0.918193
-0.87421
-0.825136
-0.775301
-0.727852
-0.684167
-0.644611
-0.608632
-0.575268
-0.543135
-0.510664
-0.475938
-0.436509
-0.389441
-0.331227
-0.249429
-0.137066
-0.0125042
0.0952095
0.158667
0.164427
0.118285
0.0412197
-0.0407192
-0.106594
-0.150958
-0.180686
-0.200399
-0.212115
-0.217365
-0.217436
-0.215241
-0.215404
-0.22235
-0.239003
-0.265642
-0.299568
-0.335948
-0.369583
-0.396804
-0.417331
-0.432194
-0.443407
-0.452686
-0.460488
-0.465772
-0.466507
-0.460544
-0.446832
-0.425945
-0.397792
-0.362246
-0.318978
-0.267436
-0.207136
-0.137178
-0.0558788
0.0320419
0.116115
0.185147
0.231417
0.253921
0.259082
0.258515
0.264748
0.287231
0.333532
0.391887
0.441147
0.458967
0.430025
0.351511
0.234325
0.0996933
-0.0276726
-0.127689
-0.200572
-0.254797
-0.294754
-0.32266
-0.341449
-0.354316
-0.364367
-0.374292
-0.385978
-0.400191
-0.416436
-0.432465
-0.442949
-0.441194
-0.42106
-0.3792
-0.316793
-0.239125
-0.157234
-0.0836456
-0.028709
0.00250855
0.0117462
0
-0.0473747
0.213866
0.960237
2.26183
3.94204
5.54888
6.51788
6.45961
5.38496
3.70795
2.01957
0.784763
0.154856
-0.0150768
-0.00627747
-0.0623253
-0.115369
-0.163832
-0.205691
-0.239475
-0.264313
-0.279869
-0.286192
-0.283503
-0.271984
-0.251731
-0.222486
-0.183762
-0.135018
-0.0758961
-0.00650825
0.0722595
0.158673
0.250521
0.344378
0.43548
0.519437
0.593408
0.656969
0.712472
0.764713
0.819939
0.884464
0.963285
1.05779
1.16661
1.28786
1.4195
1.55935
1.70558
1.85697
2.01298
2.17364
2.33916
2.51003
2.68701
2.87055
3.05747
3.23509
3.38572
3.49035
3.53387
3.51173
3.43452
3.3264
3.21659
3.12593
3.05103
2.97463
2.88694
2.77834
2.64118
2.47195
2.27234
2.04908
1.81261
1.57478
1.34565
1.132
0.938554
0.767677
0.619978
0.495162
0.392686
0.312011
0.252463
0.213953
0.194665
0.19082
0.197382
0.208486
0.217969
0.219751
0.208883
0.182094
0.138305
0.0790354
0.00388012
-0.0765707
-0.146064
-0.18908
-0.195804
-0.165557
-0.107045
-0.0351118
0.0347187
0.0916105
0.136666
0.172351
0.202405
0.231135
0.261826
0.29586
0.331964
0.366014
0.392744
0.407455
0.407494
0.393131
0.367689
0.336984
0.308252
0.288306
0.281048
0.289011
0.3185
0.373017
0.445526
0.520475
0.581579
0.616386
0.619729
0.595192
0.554241
0.513209
0.488884
0.49205
0.536993
0.627356
0.735541
0.825429
0.864412
0.83299
0.730094
0.574143
0.400049
0.251514
0.16121
0.122831
0.139858
0.205029
0.302487
0.412509
0.516926
0.606325
0.681955
0.74462
0.794545
0.832864
0.861171
0.881098
0.893955
0.900464
0.900599
0.893536
0.877883
0.851953
0.810507
0.74213
0.643512
0.53668
0.452022
0.416984
0.444718
0.528486
0.644856
0.763886
0.860615
0.927485
0.974025
1.0058
1.02154
1.01997
0.999593
0.959175
0.898469
0.818919
0.7241
0.619704
0.513014
0.411959
0.323068
0.253754
0.213491
0.212519
0.254853
0.326353
0.399606
0.448564
0.45426
0.409375
0.321021
0.209957
0.104852
0.0324902
0.00242443
0
0.0130529
0.047172
0.144529
0.477975
1.31334
2.75137
4.58879
6.34287
7.44654
7.50879
6.49733
4.74401
2.77991
1.10267
0.00328617
-0.473362
-0.451999
-0.0920063
0.314144
0.679304
0.886109
0.857929
0.600365
0.212966
-0.144971
-0.314381
-0.236104
-0.110465
0.0148832
0.1308
0.229895
0.307619
0.362744
0.39726
0.415812
0.424855
0.431738
0.443441
0.465328
0.501357
0.554135
0.624731
0.712671
0.816482
0.934166
1.06343
1.20204
1.34822
1.50059
1.65801
1.81929
1.98278
2.14614
2.30615
2.45815
2.59751
2.71999
2.82232
2.90276
2.96105
2.99818
3.01572
3.01522
2.99784
2.96494
2.91615
2.85056
2.76731
2.66598
2.54704
2.41195
2.26267
2.10146
1.93063
1.75218
1.56763
1.37812
1.18462
0.988464
0.791733
0.597644
0.410662
0.236869
0.0821892
-0.0481986
-0.144858
-0.195879
-0.205165
-0.18814
-0.162877
-0.144918
-0.143371
-0.15948
-0.18776
-0.218957
-0.243687
-0.25721
-0.260096
-0.254777
-0.243462
-0.229159
-0.214875
-0.202989
-0.194972
-0.191476
-0.192751
-0.199156
-0.211666
-0.23157
-0.260098
-0.29774
-0.346132
-0.398289
-0.441906
-0.463457
-0.452718
-0.406513
-0.330122
-0.235855
-0.139468
-0.055744
0.0112679
0.0586761
0.0872869
0.101813
0.109989
0.123822
0.200471
0.40235
0.666854
0.885473
0.958968
0.845819
0.585058
0.281751
0.0576216
-0.0112999
0.197856
0.558369
0.888795
1.02713
0.900313
0.548958
0.0990048
-0.288366
-0.445072
-0.411258
-0.333661
-0.236135
-0.128538
-0.0211031
0.0769214
0.159664
0.221854
0.261345
0.278744
0.277603
0.264361
0.247678
0.236924
0.240013
0.261242
0.297774
0.34543
0.397533
0.446805
0.487372
0.516259
0.533947
0.543883
0.551168
0.560852
0.57593
0.59897
0.627588
0.655101
0.673681
0.677056
0.662382
0.630557
0.584992
0.529622
0.467324
0.400432
0.330768
0.259768
0.189425
0.122623
0.0628402
0.013543
-0.0227977
-0.0437774
-0.0484156
-0.0388685
-0.0203033
0.00118866
0.0198835
0.031533
0.0341391
0.0283086
0.0171509
0.00571451
0
0.00651808
0.0277613
0.0647254
0.115187
0.179276
0.398046
0.674486
1.18151
2.16245
3.67004
5.41961
6.85723
7.42469
6.85841
5.33214
3.36197
1.54554
0.298293
-0.276288
-0.342783
-0.264222
-0.197822
-0.138498
-0.0875401
-0.0449806
-0.00894308
0.0221949
0.0500689
0.0762004
0.101778
0.127699
0.154614
0.183142
0.214091
0.248544
0.287749
0.332841
0.384512
0.442795
0.50691
0.575876
0.648769
0.725146
0.8053
0.890209
0.981194
1.0794
1.18527
1.29823
1.41665
1.53849
1.66169
1.78452
1.90595
2.02579
2.14467
2.26386
2.385
2.50989
2.64012
2.77793
2.92798
3.09272
3.25991
3.40838
3.51644
3.56951
3.56433
3.50783
3.41172
3.28617
3.13629
2.9678
2.78647
2.59631
2.40031
2.2014
2.00265
1.80723
1.61814
1.43792
1.26828
1.11005
0.963147
0.826774
0.699644
0.580242
0.467027
0.358563
0.253595
0.15111
0.0504333
-0.0486399
-0.145679
-0.239486
-0.328062
-0.408549
-0.477675
-0.532407
-0.570465
-0.587484
-0.577325
-0.543607
-0.499812
-0.460418
-0.436071
-0.430053
-0.43765
-0.448762
-0.452615
-0.442446
-0.420566
-0.391644
-0.361831
-0.337564
-0.323705
-0.322269
-0.331894
-0.348087
-0.364151
-0.373032
-0.369502
-0.350963
-0.313473
-0.263064
-0.209224
-0.161174
-0.124105
-0.0971597
-0.0741283
-0.0463036
-0.00216637
0.0560645
0.114546
0.154702
0.16214
0.132534
0.072209
-0.00543842
-0.0847857
-0.152352
-0.204258
-0.241404
-0.264883
-0.275608
-0.274088
-0.262821
-0.245789
-0.227507
-0.212376
-0.204047
-0.204906
-0.215706
-0.235404
-0.261198
-0.288782
-0.312918
-0.328162
-0.329821
-0.314544
-0.281032
-0.223802
-0.146714
-0.0647987
0.00562201
0.0520599
0.0696439
0.062073
0.039476
0.0142776
-0.00304146
-0.00869007
-0.00489721
0.00637417
0.0239767
0.0468451
0.0741362
0.105448
0.140914
0.181167
0.22729
0.281165
0.346693
0.430677
0.536251
0.649209
0.745832
0.800796
0.795199
0.723021
0.594132
0.433137
0.273894
0.150073
0.0694589
0.0198861
-0.00198078
0
0.0206973
0.05337
0.0928065
0.134991
0.178044
0.221286
0.264608
0.343631
0.597771
1.22484
2.34274
3.8548
5.42364
6.58845
6.96422
6.41243
5.09431
3.38865
1.73194
0.465819
-0.249466
-0.441351
-0.25512
-0.0986303
0.0388667
0.149198
0.228266
0.285037
0.327978
0.36003
0.384577
0.405044
0.424541
0.445578
0.469874
0.498312
0.531041
0.56759
0.607434
0.650293
0.696254
0.745844
0.79995
0.85966
0.926081
1.00009
1.08245
1.17377
1.27451
1.38488
1.50481
1.63377
1.77065
1.9137
2.06062
2.20884
2.35593
2.49998
2.64004
2.77621
2.90961
3.04208
3.1758
3.31339
3.45838
3.61447
3.77784
3.93009
4.04771
4.10807
4.0975
4.01885
3.89289
3.74886
3.60639
3.4605
3.29545
3.11149
2.90979
2.69163
2.46291
2.23329
2.01436
1.81633
1.64577
1.5076
1.40377
1.33465
1.29787
1.283
1.27539
1.26225
1.23461
1.18842
1.12475
1.04876
0.967988
0.890254
0.820915
0.761421
0.712858
0.677268
0.657047
0.654196
0.670256
0.706368
0.762618
0.837354
0.930818
1.03657
1.14142
1.23217
1.29935
1.33977
1.35723
1.36082
1.36163
1.36891
1.38807
1.41737
1.4476
1.46728
1.4678
1.44737
1.41202
1.37364
1.34597
1.34042
1.35731
1.39143
1.43924
1.49884
1.56866
1.6454
1.72181
1.78909
1.83917
1.8662
1.86784
1.84562
1.80441
1.75099
1.6925
1.63503
1.58182
1.53436
1.49363
1.46033
1.43479
1.41701
1.40654
1.40253
1.40368
1.40792
1.41204
1.41234
1.40547
1.38921
1.36298
1.32804
1.28701
1.24308
1.19885
1.15543
1.11217
1.067
1.01704
0.959484
0.892426
0.815518
0.730166
0.639349
0.545425
0.512796
0.765758
1.27358
1.89962
2.43416
2.69037
2.59135
2.1896
1.62021
1.03615
0.5681
0.347582
0.505961
0.700614
0.890707
1.06113
1.19887
1.29593
1.35073
1.3673
1.35288
1.315
1.2595
1.19294
1.11897
1.03883
0.953546
0.864179
0.771724
0.676786
0.579189
0.477102
0.366208
0.246273
0.121552
0
-0.0587829
0.27471
1.09169
2.44569
4.19272
5.9638
7.26624
7.68765
7.09567
5.70796
3.98619
2.42004
1.33019
0.791148
0.684635
0.833979
0.974105
1.09921
1.19578
1.2524
1.26216
1.22469
1.14767
1.04679
0.943501
0.860274
0.810626
0.792036
0.796405
0.819085
0.858422
0.912466
0.979462
1.05765
1.1459
1.24347
1.3493
1.46274
1.58152
1.69845
1.80575
1.89773
1.97317
2.03653
2.09714
2.16674
2.25625
2.37294
2.51244
2.67018
2.84344
3.0293
3.2248
3.42738
3.63559
3.8499
4.07355
4.3133
4.56355
4.79392
4.96511
5.03971
4.9962
4.84279
4.62139
4.39208
4.196
4.01104
3.80242
3.57161
3.32232
3.05557
2.77356
2.48113
2.18531
1.89434
1.6167
1.36016
1.13091
0.933299
0.772723
0.659509
0.598983
0.574763
0.567442
0.559429
0.539357
0.504474
0.459995
0.415564
0.380219
0.357502
0.343117
0.330705
0.312097
0.280149
0.231194
0.166296
0.0909561
0.0135188
-0.0570914
-0.115621
-0.161316
-0.193481
-0.211916
-0.218017
-0.214367
-0.204315
-0.191998
-0.182351
-0.179716
-0.186831
-0.204005
-0.228565
-0.254855
-0.275023
-0.280588
-0.2645
-0.217505
-0.129016
-0.0181009
0.0883039
0.166341
0.204558
0.207168
0.189989
0.17154
0.164142
0.167668
0.175175
0.181413
0.181578
0.172687
0.15405
0.126928
0.0937601
0.0575218
0.0206048
-0.0156279
-0.0504061
-0.0834545
-0.114964
-0.145375
-0.17513
-0.204459
-0.233249
-0.261041
-0.287116
-0.310605
-0.330648
-0.346212
-0.356064
-0.358724
-0.352522
-0.335795
-0.30721
-0.266106
-0.212731
-0.147663
-0.0729986
0.00844417
0.0938297
0.179938
0.261246
0.329779
0.376145
0.389948
0.364602
0.303326
0.221865
0.14476
0.0958384
0.0875682
0.109433
0.147048
0.181531
0.196928
0.185924
0.151664
0.105391
0.0613068
0.0308778
0.0149313
0.00875969
0.00883026
0.00963583
0.00552406
-0.00782719
-0.0323048
-0.0668864
-0.10788
-0.149759
-0.186344
-0.212944
-0.227475
-0.22801
-0.211919
-0.177287
-0.125798
-0.0680095
-0.0205482
0
-0.0215545
-0.0870525
-0.190574
-0.316256
-0.564636
-0.464684
0.255768
1.70658
3.70087
5.73843
7.16354
7.44573
6.43975
4.47372
2.20494
0.322001
-0.743952
-0.953643
-0.594817
-0.347571
-0.175537
-0.121955
-0.182027
-0.309683
-0.440643
-0.517761
-0.508725
-0.455976
-0.384609
-0.301604
-0.214771
-0.133801
-0.0668508
-0.0189517
0.00906487
0.020748
0.0231971
0.0253922
0.0361468
0.0618154
0.103342
0.159216
0.227824
0.307514
0.396344
0.492347
0.593783
0.699281
0.80788
0.919023
1.03252
1.14851
1.26738
1.38972
1.51612
1.64712
1.78303
1.92388
2.0693
2.21853
2.37073
2.52273
2.66578
2.78809
2.87733
2.92418
2.9248
2.88103
2.79803
2.68126
2.53477
2.36611
2.18397
1.99389
1.79967
1.60472
1.41214
1.22444
1.04364
0.871351
0.709008
0.558116
0.420304
0.297226
0.190574
0.100963
0.0274038
-0.0325479
-0.0826203
-0.127279
-0.171338
-0.219102
-0.273633
-0.336249
-0.406316
-0.481369
-0.557607
-0.630666
-0.696529
-0.751771
-0.794035
-0.824283
-0.84611
-0.863957
-0.881612
-0.900975
-0.921445
-0.940093
-0.952512
-0.954075
-0.942039
-0.916266
-0.87528
-0.820359
-0.755547
-0.687364
-0.625485
-0.579878
-0.558247
-0.564659
-0.597567
-0.648218
-0.701017
-0.737041
-0.740241
-0.703956
-0.629722
-0.539683
-0.461411
-0.415676
-0.407906
-0.427591
-0.455442
-0.473866
-0.475027
-0.467218
-0.457057
-0.450154
-0.45135
-0.463832
-0.488868
-0.525949
-0.573027
-0.626157
-0.680935
-0.731488
-0.770873
-0.791867
-0.782608
-0.691775
-0.495129
-0.258182
-0.0635794
0.0251818
-0.0112024
-0.144141
-0.314493
-0.460151
-0.540458
-0.571701
-0.583318
-0.585982
-0.582522
-0.574462
-0.56157
-0.541876
-0.512199
-0.469031
-0.40957
-0.332968
-0.241374
-0.137861
-0.0253912
0.0911446
0.202443
0.298265
0.370442
0.414499
0.430822
0.424697
0.404743
0.379953
0.356426
0.335295
0.313181
0.285665
0.248716
0.200329
0.141352
0.075321
0.00756989
-0.0561108
-0.11223
-0.15837
-0.192621
-0.214386
-0.224389
-0.223992
-0.216006
-0.203492
-0.189086
-0.174449
-0.159992
-0.144982
-0.128019
-0.107762
-0.0833431
-0.0552393
-0.0275848
-0.006884
0
-0.00671082
-0.0336191
-0.0776138
-0.134151
-0.177718
0.0932591
0.820108
2.04918
3.6496
5.29235
6.52965
6.96398
6.42546
5.05758
3.26013
1.51961
0.220043
-0.474509
-0.62708
-0.472686
-0.383157
-0.302722
-0.233123
-0.174104
-0.12198
-0.0739504
-0.0272631
0.0203306
0.070035
0.122088
0.17597
0.230654
0.284951
0.337791
0.38838
0.436252
0.481197
0.523271
0.5629
0.600898
0.638575
0.677812
0.721036
0.771046
0.830701
0.902543
0.988453
1.08915
1.20445
1.3336
1.47538
1.62812
1.78986
1.95826
2.13061
2.3037
2.47388
2.63703
2.78895
2.92589
3.04478
3.14347
3.22069
3.27576
3.30833
3.31835
3.3057
3.27019
3.2117
3.13044
3.0272
2.90343
2.76122
2.60325
2.43252
2.25172
2.06333
1.86989
1.67415
1.47933
1.28908
1.10727
0.937758
0.785026
0.652812
0.540566
0.445752
0.364861
0.294659
0.233227
0.180348
0.137168
0.105307
0.0850766
0.0751898
0.0746396
0.0811499
0.0915402
0.102606
0.111682
0.116992
0.117745
0.114017
0.106514
0.0963376
0.0848507
0.0735241
0.0638821
0.0574497
0.0555871
0.0592681
0.0688732
0.0840854
0.103941
0.127038
0.151834
0.176959
0.201457
0.224932
0.247564
0.269984
0.293063
0.317617
0.344169
0.372686
0.402178
0.430857
0.456375
0.476189
0.487984
0.490077
0.481753
0.463489
0.437149
0.405494
0.371922
0.339892
0.31225
0.291075
0.27693
0.268774
0.265075
0.264876
0.268625
0.278416
0.297818
0.33876
0.412042
0.502001
0.579355
0.613242
0.585452
0.499068
0.377091
0.251919
0.151334
0.0825173
0.0324787
-0.00572476
-0.0323169
-0.0459479
-0.0455348
-0.0292619
0.00425611
0.0546786
0.121425
0.197624
0.27396
0.341406
0.393777
0.429386
0.451292
0.466166
0.482313
0.507537
0.546853
0.610248
0.705821
0.82307
0.935026
1.01243
1.03097
0.978382
0.859533
0.696713
0.523405
0.372538
0.256952
0.165251
0.0877633
0.0216706
-0.033599
-0.0774718
-0.108756
-0.125475
-0.122921
-0.0885318
-0.00712094
0.118341
0.258791
0.38123
0.459477
0.479916
0.443227
0.363676
0.265865
0.177702
0.120436
0.0934445
0.0837825
0.0820256
0.0839674
0.0882836
0
0.277628
1.15252
2.6368
4.45192
6.10468
7.07972
7.0572
6.04827
4.38046
2.54692
1.0047
0.0225591
-0.365774
-0.309741
-0.233686
-0.169469
-0.125212
-0.102916
-0.0983183
-0.103002
-0.107877
-0.106578
-0.0978066
-0.0835804
-0.0675878
-0.0524749
-0.0376914
-0.0188796
0.0109173
0.058766
0.12917
0.218389
0.320542
0.431526
0.547311
0.664104
0.778971
0.890057
0.996517
1.09786
1.19323
1.2824
1.36577
1.44454
1.52159
1.60201
1.69261
1.80059
1.93161
2.08824
2.26601
2.45861
2.66162
2.87192
3.08817
3.3119
3.58712
3.91116
4.209
4.37954
4.3595
4.1648
3.88467
3.6315
3.47367
3.37354
3.27157
3.16276
3.04679
2.92323
2.79284
2.65762
2.52032
2.38379
2.25052
2.12223
1.99982
1.88358
1.77357
1.67015
1.57426
1.48763
1.41263
1.35191
1.30782
1.28187
1.27515
1.29088
1.33022
1.38318
1.43683
1.4791
1.50167
1.50176
1.48213
1.44955
1.41243
1.37863
1.35198
1.33319
1.32264
1.32063
1.32723
1.34132
1.36065
1.38289
1.4062
1.42963
1.4532
1.47769
1.50406
1.53286
1.56377
1.59564
1.62686
1.65574
1.68107
1.70254
1.72095
1.73813
1.75667
1.77934
1.80842
1.84612
1.89532
1.95773
2.02905
2.09869
2.15442
2.18553
2.18564
2.15433
2.09704
2.02336
1.94439
1.86969
1.8036
1.74645
1.69767
1.65703
1.62442
1.59955
1.58201
1.57135
1.56702
1.56802
1.57261
1.57894
1.58545
1.59128
1.59656
1.60235
1.61031
1.62209
1.63875
1.66015
1.68526
1.71207
1.73804
1.7607
1.77805
1.78882
1.79246
1.7889
1.77828
1.76099
1.73725
1.70707
1.67044
1.62773
1.58003
1.52937
1.47871
1.43186
1.39388
1.37515
1.39965
1.48779
1.61154
1.72664
1.79044
1.77875
1.69448
1.56462
1.42706
1.31347
1.23295
1.16969
1.11397
1.06215
1.01264
0.96452
0.91764
0.872385
0.829442
0.789519
0.753274
0.721227
0.693765
0.671106
0.653182
0.639522
0.629089
0.619128
0.604438
0.578664
0.535604
0.470746
0.382552
0.273039
0.09263
0
0.412052
1.49253
3.1833
5.15648
6.88189
7.81682
7.64079
6.41035
4.53645
2.59126
1.05256
0.126429
-0.266449
-0.361652
-0.326451
-0.287942
-0.246337
-0.202005
-0.158752
-0.121728
-0.0953583
-0.0813641
-0.0777809
-0.0794636
-0.0798382
-0.0731247
-0.0566998
-0.0325699
-0.00277061
0.0314125
0.0683636
0.106994
0.147118
0.189486
0.235512
0.286785
0.344528
0.409193
0.480339
0.556533
0.636444
0.719275
0.804973
0.894391
0.989147
1.0912
1.20222
1.32295
1.45264
1.58889
1.72788
1.86367
1.98983
2.10076
2.19279
2.26482
2.31839
2.35718
2.386
2.40967
2.43165
2.45349
2.47261
2.48219
2.4731
2.43642
2.36566
2.25817
2.11533
1.94176
1.74401
1.53106
1.31071
1.08789
0.866217
0.649076
0.439757
0.241413
0.0569492
-0.111155
-0.261038
-0.391622
-0.502682
-0.594842
-0.669468
-0.728404
-0.773915
-0.808431
-0.834336
-0.853818
-0.868777
-0.880797
-0.891153
-0.900878
-0.910836
-0.921783
-0.934401
-0.949279
-0.966814
-0.987061
-1.00961
-1.03352
-1.05733
-1.07927
-1.09761
-1.11108
-1.11866
-1.12077
-1.11892
-1.11497
-1.11042
-1.10582
-1.10068
-1.0937
-1.08343
-1.0687
-1.04939
-1.02824
-1.00983
-0.998832
-0.998163
-1.00772
-1.02408
-1.04131
-1.05275
-1.0529
-1.04007
-1.01614
-0.983793
-0.945022
-0.901885
-0.856355
-0.810194
-0.766513
-0.73013
-0.706874
-0.702138
-0.718304
-0.752752
-0.797956
-0.844045
-0.882667
-0.91007
-0.930026
-0.945512
-0.959596
-0.97396
-0.988387
-1.00132
-1.01113
-1.01727
-1.02092
-1.02405
-1.02873
-1.03615
-1.0461
-1.0571
-1.067
-1.07369
-1.076
-1.07334
-1.06467
-1.04855
-1.02303
-0.985791
-0.934653
-0.86835
-0.787254
-0.694358
-0.592613
-0.488762
-0.391098
-0.306727
-0.2399
-0.191143
-0.15745
-0.133482
-0.11335
-0.092417
-0.068758
-0.042977
-0.0173225
0.00496731
0.0206545
0.0273382
0.0239225
0.0106344
-0.011331
-0.0403488
-0.0748644
-0.11346
-0.155122
-0.199158
-0.244926
-0.291594
-0.338105
-0.383218
-0.425558
-0.463688
-0.496035
-0.520788
-0.53539
-0.537235
-0.523882
-0.493566
-0.445913
-0.382542
-0.306605
-0.223604
-0.142165
-0.0706949
-0.0154961
0.02066
0.0390984
0.0190008
0
0.357676
1.28252
2.80666
4.68077
6.37994
7.29819
7.04802
5.68021
3.67284
1.68952
0.2618
-0.415865
-0.483757
-0.298692
-0.240042
-0.190516
-0.152337
-0.126297
-0.111195
-0.104424
-0.101946
-0.0987299
-0.0895969
-0.0698076
-0.0353338
0.0165096
0.0864614
0.173403
0.274753
0.3867
0.504655
0.62391
0.740369
0.8511
0.954618
1.05086
1.14091
1.22652
1.30967
1.39225
1.47589
1.56201
1.65203
1.7476
1.85067
1.96351
2.08839
2.22723
2.38106
2.54957
2.73084
2.9213
3.11593
3.3086
3.49092
3.65352
3.78972
3.89544
3.96975
4.01481
4.03532
4.03731
4.02659
4.00705
3.97956
3.9401
3.88209
3.79773
3.68098
3.53035
3.35024
3.15032
2.94313
2.74094
2.55014
2.37287
2.21108
2.06521
1.93472
1.81859
1.71567
1.62478
1.54447
1.47322
1.40921
1.35032
1.29437
1.23924
1.18338
1.12624
1.06849
1.01223
0.960715
0.918626
0.896783
0.917844
0.989106
1.08193
1.15622
1.17809
1.1353
1.04315
0.937972
0.861392
0.843419
0.875429
0.933222
1.00574
1.08852
1.17823
1.27171
1.36605
1.45865
1.54701
1.62906
1.70368
1.77084
1.83183
1.88922
1.94648
2.01046
2.09242
2.18365
2.25927
2.28834
2.24919
2.14157
1.9889
1.83022
1.70579
1.63874
1.60763
1.59953
1.60992
1.63273
1.66153
1.69076
1.71685
1.73863
1.7573
1.77591
1.79834
1.82807
1.86693
1.9176
1.97703
2.03541
2.08151
2.10641
2.10625
2.08306
2.04342
1.99578
1.94775
1.90398
1.86538
1.83198
1.80427
1.78244
1.76643
1.75614
1.75061
1.74855
1.74875
1.75044
1.75372
1.75957
1.76962
1.7857
1.80922
1.84021
1.87822
1.92168
1.96753
2.01072
2.04428
2.06161
2.05734
2.0287
1.97661
1.90618
1.82624
1.7478
1.68174
31
242
454
662
866
1077
1288
1494
1700
1910
2116
2316
2518
2724
2935
3143
3355
3571
2992
3149
3312
3476
3629
3712
0
0
0
0
0
0
0
0
0
0
0
0
0
0
0
0
0
0
0
0
0
0
0
0
0
0
0
0
0
0
0
0
0
0
0
0
0
0
0
0
0
0
0
0
0
0
0
0
0
0
0
0
0
0
0
0
0
0
0
0
0
0
0
0
0
0
0
0
0
0
0
0
0
0
0
0
0
0
0
0
0
0
0
0
0
0
0
0
0
0
0
0
0
0
0
0
0
0
0
0
0
0
0
0
0
0
0
0
0
0
0
0
0
0
0
0
0
0
0
0
0
0
0
0
0
0
0
0
0
0
0
0
0
0
0
0
0
0
0
0
0
0
0
0
0
0
0
0
0
0
0
0
0
0
0
0
0
0
0
0
0
0
0
0
0
0
0
0
0
0
0
0
0
0
0
0
0
0
0
0
0
0
0
0
0
0
0
0
0
0
0
0
0
0
0
0
0
0
0
0
0
0
0
0
0
0
0
0
0
0
0
0
0
0
0
0
0
0
0
0
0
0
0
0
0
0
0
0
0
0
0
0
0
0
0
0
0
0
0
0
0
0
0
0
0
0
0
0
0
0
0
0
0
0
0
0
0
0
0
0
0
0
0
0
0
0
0
0
0
0
0
0
0
0
0
0
0
0
0
0
0
0
0
0
0
0
0
0
0
0
0
0
0
0
0
0
0
0
0
0
0
0
0
0
0
0
0
0
0
0
0
0
0
0
0
0
0
0
0
0
0
0
0
0
0
0
0
0
0
0
0
0
0
0
0
0
0
0
0
0
0
0
0
0
0
0
0
0
0
0
0
0
0
0
0
0
0
0
0
0
0
0
0
0
0
0
0
0
0
0
0
0
0
0
0
0
0
0
0
0
0
0
0
0
0
0
0
0
0
0
0
0
0
0
0
0
0
0
0
0
0
0
0
0
0
0
0
0
0
0
0
0
0
0
0
0
0
0
0
0
0
0
0
0
0
0
0
0
0
0
0
0
0
0
0
0
0
0
0
0
0
0
0
0
0
0
0
0
0
0
0
0
0
0
0
0
0
0
0
0
0
0
0
0
0
0
0
0
0
0
0
0
0
0
0
0
0
0
0
0
0
0
0
0
0
0
0
0
0
0
0
0
0
0
0
0
0
0
0
0
0
0
0
0
0
0
0
0
0
0
0
0
0
0
0
0
0
0
0
0
0
0
0
0
0
0
0
0
0
0
0
0
0
0
0
0
0
0
0
0
0
0
0
0
0
0
0
0
0
0
0
0
0
0
0
0
0
0
0
0
0
0
0
0
0
0
0
0
0
0
0
0
0
0
0
0
0
0
0
0
0
0
0
0
0
0
0
0
0
0
0
0
0
0
0
0
0
0
0
0
0
0
0
0
0
0
0
0
0
0
0
0
0
0
0
0
0
0
0
0
0
0
0
0
0
0
0
0
0
0
0
0
0
0
0
0
0
0
0
0
0
0
0
0
0
0
0
0
0
0
0
0
0
0
0
0
0
0
0
0
0
0
0
0
0
0
0
0
0
0
0
0
0
0
0
0
0
0
0
0
0
0
0
0
0
0
0
0
0
0
0
0
0
0
0
0
0
0
0
0
0
0
0
0
0
0
0
0
0
0
0
0
0
0
0
0
0
0
0
0
0
0
0
0
0
0
0
0
0
0
0
0
0
0
0
0
0
0
0
0
0
0
0
0
0
0
0
0
0
0
0
0
0
0
0
0
0
0
0
0
0
0
0
0
0
0
0
0
0
0
0
0
0
0
0
0
0
0
0
0
0
0
0
0
0
0
0
0
0
0
0
0
0
0
0
0
0
0
0
0
0
0
0
0
0
0
0
0
0
0
0
0
0
0
0
0
0
0
0
0
0
0
0
0
0
0
0
0
0
0
0
0
0
0
0
0
0
0
0
0
0
0
0
0
0
0
0
0
0
0
0
0
0
0
0
0
0
0
0
0
0
0
0
0
0
0
0
0
0
0
0
0
0
0
0
0
0
0
0
0
0
0
0
0
0
0
0
0
0
0
0
0
0
0
0
0
0
0
0
0
0
0
0
0
0
0
0
0
0
0
0
0
0
0
0
0
0
0
0
0
0
0
0
0
0
0
0
0
0
0
0
0
0
0
0
0
0
0
0
0
0
0
0
0
0
0
0
0
0
0
0
0
0
0
0
0
0
0
0
0
0
0
0
0
0
0
0
0
0
0
0
0
0
0
0
0
0
0
0
0
0
0
0
0
0
0
0
0
0
0
0
0
0
0
0
0
0
0
0
0
0
0
0
0
0
0
0
0
0
0
0
0
0
0
0
0
0
0
0
0
0
0
0
0
0
0
0
0
0
0
0
0
0
0
0
0
0
0
0
0
0
0
0
0
0
0
0
0
0
0
0
0
0
0
0
0
0
0
0
0
0
0
0
0
0
0
0
0
0
0
0
0
0
0
0
0
0
0
0
0
0
0
0
0
0
0
0
0
0
0
0
0
0
0
0
0
0
0
0
0
0
0
0
0
0
0
0
0
0
0
0
0
0
0
0
0
0
0
0
0
0
0
0
0
0
0
0
0
0
0
0
0
0
0
0
0
0
0
0
0
0
0
0
0
0
0
0
0
0
0
0
0
0
0
0
0
0
0
0
0
0
0
0
0
0
0
0
0
0
0
0
0
0
0
0
0
0
0
0
0
0
0
0
0
0
0
0
0
0
0
0
0
0
0
0
0
0
0
0
0
0
0
0
0
0
0
0
0
0
0
0
0
0
0
0
0
0
0
0
0
0
0
0
0
0
0
0
0
0
0
0
0
0
0
0
0
0
0
0
0
0
0
0
0
0
0
0
0
0
0
0
0
0
0
0
0
0
0
0
0
0
0
0
0
0
0
0
0
0
0
0
0
0
0
0
0
0
0
0
0
0
0
0
0
0
0
0
0
0
0
0
0
0
0
0
0
0
0
0
0
0
0
0
0
0
0
0
0
0
0
0
0
0
0
0
0
0
0
0
0
0
0
0
0
0
0
0
0
0
0
0
0
0
0
0
0
0
0
0
0
0
0
0
0
0
0
0
0
0
0
0
0
0
0
0
0
0
0
0
0
0
0
0
0
0
0
0
0
0
0
0
0
0
0
0
0
0
0
0
0
0
0
0
0
0
0
0
0
0
0
0
0
0
0
0
0
0
0
0
0
0
0
0
0
0
0
0
0
0
0
0
0
0
0
0
0
0
0
0
0
0
0
0
0
0
0
0
0
0
0
0
0
0
0
0
0
0
0
0
0
0
0
0
0
0
0
0
0
0
0
0
0
0
0
0
0
0
0
0
0
0
0
0
0
0
0
0
0
0
0
0
0
0
0
0
0
0
0
0
0
0
0
0
0
0
0
0
0
0
0
0
0
0
0
0
0
0
0
0
0
0
0
0
0
0
0
0
0
0
0
0
0
0
0
0
0
0
0
0
0
0
0
0
0
0
0
0
0
0
0
0
0
0
0
0
0
0
0
0
0
0
0
0
0
0
0
0
0
0
0
0
0
0
0
0
0
0
0
0
0
0
0
0
0
0
0
0
0
0
0
0
0
0
0
0
0
0
0
0
0
0
0
0
0
0
0
0
0
0
0
0
0
0
0
0
0
0
0
0
0
0
0
0
0
0
0
0
0
0
0
0
0
0
0
0
0
0
0
0
0
0
0
0
0
0
0
0
0
0
0
0
0
0
0
0
0
0
0
0
0
0
0
0
0
0
0
0
0
0
0
0
0
0
0
0
0
0
0
0
0
0
0
0
0
0
0
0
0
0
0
0
0
0
0
0
0
0
0
0
0
0
0
0
0
0
0
0
0
0
0
0
0
0
0
0
0
0
0
0
0
0
0
0
0
0
0
0
0
0
0
0
0
0
0
0
0
0
0
0
0
0
0
0
0
0
0
0
0
0
0
0
0
0
0
0
0
0
0
0
0
0
0
0
0
0
0
0
0
0
0
0
0
0
0
0
0
0
0
0
0
0
0
0
0
0
0
0
0
0
0
0
0
0
0
0
0
0
0
0
0
0
0
0
0
0
0
0
0
0
0
0
0
0
0
0
0
0
0
0
0
0
0
0
0
0
0
0
0
0
0
0
0
0
0
0
0
0
0
0
0
0
0
0
0
0
0
0
0
0
0
0
0
0
0
0
0
0
0
0
0
0
0
0
0
0
0
0
0
0
0
0
0
0
0
0
0
0
0
0
0
0
0
0
0
0
0
0
0
0
0
0
0
0
0
0
0
0
0
0
0
0
0
0
0
0
0
0
0
0
0
0
0
0
0
0
0
0
0
0
0
0
0
0
0
0
0
0
0
0
0
0
0
0
0
0
0
0
0
0
0
0
0
0
0
0
0
0
0
0
0
0
0
0
0
0
0
0
0
0
0
0
0
0
0
0
0
0
0
0
0
0
0
0
0
0
0
0
0
0
0
0
0
0
0
0
0
0
0
0
0
0
0
0
0
0
0
0
0
0
0
0
0
0
0
0
0
0
0
0
0
0
0
0
0
0
0
0
0
0
0
0
0
0
0
0
0
0
0
0
0
0
0
0
0
0
0
0
0
0
0
0
0
0
0
0
0
0
0
0
0
0
0
0
0
0
0
0
0
0
0
0
0
0
0
0
0
0
0
0
0
0
0
0
0
0
0
0
0
0
0
0
0
0
0
0
0
0
0
0
0
0
0
0
0
0
0
0
0
0
0
0
0
0
0
0
0
0
0
0
0
0
0
0
0
0
0
0
0
0
0
0
0
0
0
0
0
0
0
0
0
0
0
0
0
0
0
0
0
0
0
0
0
0
0
0
0
0
0
0
0
0
0
0
0
0
0
0
0
0
0
0
0
0
0
0
0
0
0
0
0
0
0
0
0
0
0
0
0
0
0
0
0
0
0
0
0
0
0
0
0
0
0
0
0
0
0
0
0
0
0
0
0
0
0
0
0
0
0
0
0
0
0
0
0
0
0
0
0
0
0
0
0
0
0
0
0
0
0
0
0
0
0
0
0
0
0
0
0
0
0
0
0
0
0
0
0
0
0
0
0
0
0
0
0
0
0
0
0
0
0
0
0
0
0
0
0
0
0
0
0
0
0
0
0
0
0
0
0
0
0
0
0
0
0
0
0
0
0
0
0
0
0
0
0
0
0
0
0
0
0
0
0
0
0
0
0
0
0
0
0
0
0
0
0
0
0
0
0
0
0
0
0
0
0
0
0
0
0
0
0
0
0
0
0
0
0
0
0
0
0
0
0
0
0
0
0
0
0
0
0
0
0
0
0
0
0
0
0
0
0
0
0
0
0
0
0
0
0
0
0
0
0
0
0
0
0
0
0
0
0
0
0
0
0
0
0
0
0
0
0
0
0
0
0
0
0
0
0
0
0
0
0
0
0
0
0
0
0
0
0
0
0
0
0
0
0
0
0
0
0
0
0
0
0
0
0
0
0
0
0
0
0
0
0
0
0
0
0
0
0
0
0
0
0
0
0
0
0
0
0
0
0
0
0
0
0
0
0
0
0
0
0
0
0
0
0
0
0
0
0
0
0
0
0
0
0
0
0
0
0
0
0
0
0
0
0
0
0
0
0
0
0
0
0
0
0
0
0
0
0
0
0
0
0
0
0
0
0
0
0
0
0
0
0
0
0
0
0
0
0
0
0
0
0
0
0
0
0
0
0
0
0
0
0
0
0
0
0
0
0
0
0
0
0
0
0
0
0
0
0
0
0
0
0
0
0
0
0
0
0
0
0
0
0
0
0
0
0
0
0
0
0
0
0
0
0
0
0
0
0
0
0
0
0
0
0
0
0
0
0
0
0
0
0
0
0
0
0
0
0
0
0
0
0
0
0
0
0
0
0
0
0
0
0
0
0
0
0
0
0
0
0
0
0
0
0
0
0
0
0
0
0
0
0
0
0
0
0
0
0
0
0
0
0
0
0
0
0
0
0
0
0
0
0
0
0
0
0
0
0
0
0
0
0
0
0
0
0
0
0
0
0
0
0
0
0
0
0
0
0
0
0
0
0
0
0
0
0
0
0
0
0
0
0
0
0
0
0
0
0
0
0
0
0
0
0
0
0
0
0
0
0
0
0
0
0
0
0
0
0
0
0
0
0
0
0
0
0
0
0
0
0
0
0
0
0
0
0
0
0
0
0
0
0
0
0
0
0
0
0
0
0
0
0
0
0
0
0
0
0
0
0
0
0
0
0
0
0
0
0
0
0
0
0
0
0
0
0
0
0
0
0
0
0
0
0
0
0
0
0
0
0
0
0
0
0
0
0
0
0
0
0
0
0
0
0
0
0
0
0
0
0
0
0
0
0
0
0
0
0
0
0
0
0
0
0
0
0
0
0
0
0
0
0
0
0
0
0
0
0
0
0
0
0
0
0
0
0
0
0
0
0
0
0
0
0
0
0
0
0
0
0
0
0
0
0
0
0
0
0
0
0
0
0
0
0
0
0
0
0
0
0
0
0
0
0
0
0
0
0
0
0
0
0
0
0
0
0
0
0
0
0
0
0
0
0
0
0
0
0
0
0
0
0
0
0
0
0
0
0
0
0
0
0
0
0
0
0
0
0
0
0
0
0
0
0
0
0
0
0
0
0
0
0
0
0
0
0
0
0
0
0
0
0
0
0
0
0
0
0
0
0
0
0
0
0
0
0
0
0
0
0
0
0
0
0
0
0
0
0
0
0
0
0
0
0
0
0
0
0
0
0
0
0
0
0
0
0
0
0
0
0
0
0
0
0
0
0
0
0
0
0
0
0
0
0
0
0
0
0
0
0
0
0
0
0
0
0
0
0
0
0
0
0
0
0
0
0
0
0
0
0
0
0
0
0
0
0
0
0
0
0
0
0
0
0
0
0
0
0
0
0
0
0
0
0
0
0
0
0
0
0
0
0
0
0
0
0
0
0
0
0
0
0
0
0
0
0
0
0
0
0
0
0
0
0
0
0
0
0
0
0
0
0
0
0
0
0
0
0
0
0
0
0
0
0
0
0
0
0
0
0
0
0
0
0
0
0
0
0
0
0
0
0
0
0
0
0
0
0
0
0
0
0
0
0
0
0
0
0
0
0
0
0
0
0
0
0
0
0
0
0
0
0
0
0
0
0
0
0
0
0
0
0
0
0
0
0
0
0
0
0
0
0
0
0
0
0
0
0
0
0
0
0
0
0
0
0
0
0
0
0
0
0
0
0
0
0
0
0
0
0
0
0
0
0
0
0
0
0
0
0
0
0
0
0
0
0
0
0
0
0
0
0
0
0
0
0
0
0
0
0
0
0
0
0
0
0
0
0
0
0
0
0
0
0
0
0
0
0
0
0
0
0
0
0
0
0
0
0
0
0
0
0
0
0
0
0
0
0
0
0
0
0
0
0
0
0
0
0
0
0
0
0
0
0
0
0
0
0
0
0
0
0
0
0
0
0
0
0
0
0
0
0
0
0
0
0
0
0
0
0
0
0
0
0
0
0
0
0
0
0
0
0
0
0
0
0
0
0
0
0
0
0
0
0
0
0
0
0
0
0
0
0
0
0
0
0
0
0
0
0
0
0
0
0
0
0
0
0
0
0
0
0
0
0
0
0
0
0
0
0
0
0
0
0
0
0
0
0
0
0
0
0
0
0
0
0
0
0
0
0
0
0
0
0
0
0
0
0
0
0
0
0
0
0
0
0
0
0
0
0
0
0
0
0
0
0
0
0
0
0
0
0
0
0
0
0
0
0
0
0
0
0
0
0
0
0
0
0
0
0
0
0
0
0
0
0
0
0
0
0
0
0
0
0
0
0
0
0
0
0
0
0
0
0
0
0
0
0
0
0
0
0
0
0
0
0
0
0
0
0
0
0
0
0
0
0
0
0
0
0
0
0
0
0
0
0
0
0
0
0
0
0
0
0
0
0
0
0
0
0
0
0
0
0
0
0
0
0
0
0
0
0
0
0
0
0
0
0
0
0
0
0
0
0
0
0
0
0
0
0
0
0
0
0
0
0
0
0
0
0
0
0
0
0
0
0
0
0
0
0
0
0
0
0
0
0
0
0
0
0
0
0
0
0
0
0
0
0
0
0
0
0
0
0
0
0
0
0
0
0
0
0
0
0
0
0
0
0
0
0
0
0
0
0
0
0
0
0
0
0
0
0
0
0
0
0
0
0
0
0
0
0
0
0
0
0
0
0
0
0
0
0
0
0
0
0
0
0
0
0
0
0
0
0
0
0
0
0
0
0
0
0
0
0
0
0
0
0
0
0
0
0
0
0
0
0
0
0
0
0
0
0
0
0
0
0
0
0
0
0
0
0
0
0
0
0
0
0
0
0
0
0
0
0
0
0
0
0
0
0
0
0
0
0
0
0
0
0
0
0
0
0
0
0
0
0
0
0
0
0
0
0
0
0
0
0
0
0
0
0
0
0
0
0
0
0
0
