3.92673
3.56751
3.22569
2.89977
2.58972
2.29719
2.02524
1.77767
1.55861
1.37181
1.2183
1.09693
1.00467
0.937079
0.889196
0.856272
0.83439
0.820765
0.813719
0.812341
0.816083
0.824256
0.835436
0.845664
0.848884
0.838634
0.810137
0.762408
0.699551
0.630635
0.568042
0.524714
0.508946
0.522541
0.567842
0.645961
0.747929
0.85623
0.952538
1.02171
1.05449
1.04875
1.00908
0.945056
0.868749
0.791925
0.723127
0.665935
0.620367
0.585086
0.558684
0.53986
0.527349
0.52016
0.517633
0.519346
0.524878
0.533666
0.544859
0.557009
0.568167
0.576362
0.580051
0.57852
0.572066
0.561867
0.549554
0.53662
0.523847
0.510998
0.49694
0.479925
0.45819
0.430641
0.397445
0.360368
0.322711
0.288854
0.263468
0.250598
0.252974
0.27257
0.309971
0.360253
0.409551
0.442591
0.446937
0.416694
0.354369
0.269977
0.177563
0.0906042
0.0182559
-0.0403132
-0.0880796
-0.126704
-0.158607
-0.18664
-0.213966
-0.244161
-0.280922
-0.327576
-0.386386
-0.457863
-0.540352
-0.630283
-0.725121
-0.576941
0
0.929307
2.18246
3.70892
5.32514
6.60922
6.96338
5.88843
3.32612
-0.182628
-3.67598
-6.19892
-7.21925
-6.78873
-5.39455
-3.64466
-1.99678
-0.662442
0.324387
0.945011
0.926232
0.873538
0.793303
0.696297
0.603185
0.536885
0.513995
0.526409
0.56139
0.615681
0.680563
0.747561
0.811385
0.871563
0.93243
1.00134
1.08563
1.18943
1.31178
1.44486
1.58149
1.71544
1.84289
1.96372
2.0817
2.20367
2.33792
2.49198
2.66958
2.87266
3.10099
3.35158
3.61906
3.89643
4.17585
4.44879
4.70564
4.93683
5.13451
5.2923
5.40518
5.4698
5.48336
5.44373
5.34969
5.20126
4.99993
4.74884
4.45279
4.11962
3.76048
3.38543
3.00193
2.61665
2.23618
1.86673
1.51391
1.18234
0.875485
0.595414
0.342923
0.116878
-0.0849985
-0.265449
-0.426865
-0.56976
-0.692725
-0.793334
-0.868299
-0.914463
-0.930181
-0.916425
-0.876187
-0.814795
-0.743111
-0.673101
-0.615264
-0.576766
-0.560388
-0.56445
-0.583673
-0.610675
-0.637715
-0.658635
-0.670062
-0.670808
-0.661169
-0.64229
-0.615868
-0.583996
-0.548704
-0.51198
-0.47547
-0.439862
-0.404547
-0.367474
-0.325381
-0.274363
-0.206554
-0.113811
-0.00600185
0.0919199
0.150403
0.147426
0.0787203
-0.0387636
-0.171869
-0.282733
-0.342136
-0.35472
-0.336916
-0.294891
-0.241393
-0.190276
-0.153582
-0.139276
-0.149932
-0.182518
-0.229172
-0.278834
-0.319458
-0.341755
-0.341486
-0.316483
-0.26433
-0.193909
-0.120253
-0.0590391
-0.0225414
-0.0167282
-0.040259
-0.0854
-0.140256
-0.191507
-0.228721
-0.247023
-0.244737
-0.215192
-0.152936
-0.069162
0.00975819
0.0553719
0.0466085
-0.0219175
-0.136586
-0.268719
-0.384939
-0.459745
-0.493414
-0.502682
-0.495768
-0.480299
-0.462855
-0.44745
-0.43495
-0.423464
-0.409395
-0.388804
-0.359369
-0.320074
-0.27087
-0.212881
-0.148103
-0.0780193
0
0.145121
0.700803
1.90711
3.68187
5.51109
6.61056
6.28981
4.31727
1.07522
-2.57914
-5.6609
-7.43495
-7.65448
-6.57938
-4.79685
-2.94493
-1.47265
-0.53633
-0.0536781
0.134472
0.248916
0.364697
0.481838
0.60029
0.719457
0.838188
0.954988
1.06824
1.17633
1.27718
1.36858
1.45031
1.52357
1.59153
1.65956
1.73468
1.82408
1.93308
2.06311
2.21067
2.36851
2.52636
2.67533
2.81129
2.93685
3.06114
3.19729
3.35859
3.55455
3.7838
4.0393
4.31291
4.59521
4.87572
5.14407
5.38991
5.60406
5.78124
5.91864
6.01547
6.07222
6.08984
6.06888
6.00882
5.9078
5.76415
5.57717
5.34483
5.06638
4.74366
4.38171
3.98885
3.5764
3.15703
2.7438
2.34868
1.98124
1.64771
1.35064
1.08913
0.859744
0.657622
0.477761
0.316346
0.171101
0.0411312
-0.0730537
-0.169952
-0.247634
-0.303807
-0.336882
-0.346361
-0.33272
-0.297524
-0.243459
-0.17424
-0.0943535
-0.00864296
0.0781659
0.161986
0.239844
0.30922
0.368215
0.415468
0.450064
0.471508
0.479819
0.475789
0.461294
0.439536
0.41508
0.393665
0.381725
0.385317
0.409073
0.455208
0.522855
0.61003
0.70937
0.810075
0.900938
0.972198
1.01688
1.03142
1.01565
0.972473
0.907413
0.828631
0.745402
0.66692
0.602023
0.557589
0.537176
0.540414
0.563058
0.597284
0.63423
0.666239
0.688651
0.700609
0.70476
0.705994
0.709732
0.719846
0.737792
0.763055
0.79378
0.827002
0.859372
0.887892
0.910474
0.926234
0.935469
0.939375
0.939564
0.937527
0.934085
0.929029
0.92091
0.907402
0.885971
0.854822
0.813875
0.765423
0.714118
0.666737
0.630621
0.611897
0.613878
0.638806
0.681912
0.733751
0.783381
0.820724
0.838135
0.830806
0.796227
0.733354
0.64211
0.527068
0.391021
0.237587
0.0673564
-0.179074
0
0.760905
2.11449
3.92032
5.85194
7.40744
8.01018
7.21395
4.9304
1.55079
-2.13464
-5.21289
-6.98883
-7.22276
-6.15946
-4.35903
-2.44417
-0.884664
0.107983
0.567781
0.708553
0.895316
1.08481
1.27381
1.45425
1.61459
1.74304
1.83217
1.88304
1.90677
1.92282
1.95404
2.02014
2.12891
2.27104
2.43437
2.60997
2.78676
2.95462
3.10638
3.23918
3.35473
3.45875
3.5596
3.66668
3.7886
3.93076
4.09635
4.28662
4.50037
4.73402
4.98209
5.23789
5.49425
5.74429
5.98193
6.20174
6.39879
6.56914
6.70987
6.81805
6.88985
6.92085
6.9058
6.83908
6.71572
6.53266
6.29
5.99183
5.6464
5.26533
4.86288
4.4522
4.04257
3.64031
3.24915
2.87078
2.50595
2.15565
1.82217
1.50977
1.22322
0.967342
0.747473
0.565308
0.420189
0.309801
0.23189
0.182643
0.158483
0.155954
0.171273
0.199932
0.236612
0.275531
0.311083
0.33907
0.356405
0.361648
0.355124
0.338863
0.316393
0.292405
0.272276
0.26145
0.264675
0.285219
0.324238
0.383
0.457468
0.538998
0.617333
0.682468
0.726397
0.74439
0.735615
0.703084
0.652962
0.59358
0.532975
0.477338
0.430604
0.393428
0.362227
0.331677
0.297355
0.258191
0.217785
0.184082
0.167501
0.178151
0.237239
0.371539
0.555274
0.734293
0.8527
0.873383
0.791115
0.63285
0.445379
0.277253
0.164653
0.102237
0.0731455
0.0697441
0.0899216
0.130599
0.187612
0.255288
0.326665
0.394886
0.45411
0.50027
0.531474
0.547973
0.551713
0.545614
0.532778
0.515812
0.496272
0.474624
0.450497
0.423135
0.391976
0.357205
0.320136
0.283308
0.250207
0.224667
0.210591
0.211427
0.228421
0.258701
0.294822
0.326057
0.340998
0.329805
0.286014
0.207644
0.0973824
-0.0381844
-0.190136
-0.349126
-0.507101
-0.652696
-0.481463
0
0.856125
2.25229
4.1978
6.36897
8.09655
8.58814
7.30534
4.28722
0.219843
-3.80998
-6.7575
-8.03028
-7.66041
-6.17702
-4.2835
-2.53779
-1.19602
-0.253844
0.402682
0.740619
1.00299
1.24647
1.46355
1.64582
1.78913
1.89147
1.95373
1.98058
1.98088
1.96731
1.95493
1.95892
1.99178
2.05713
2.15157
2.26944
2.40576
2.55348
2.70305
2.84669
2.9803
3.10443
3.22413
3.34757
3.48392
3.6409
3.82256
4.02639
4.24741
4.47956
4.71549
4.94755
5.16876
5.37387
5.55968
5.72496
5.8695
5.99143
6.08759
6.15552
6.19102
6.18775
6.13872
6.03804
5.8821
5.67009
5.40362
5.08618
4.72751
4.33841
3.9274
3.50205
3.07128
2.64547
2.23574
1.85276
1.50697
1.21183
0.976067
0.789932
0.636822
0.497848
0.356983
0.205111
0.0418118
-0.125414
-0.283887
-0.420341
-0.527909
-0.59941
-0.631641
-0.625761
-0.587083
-0.523019
-0.444167
-0.364379
-0.296259
-0.249071
-0.227312
-0.230294
-0.252826
-0.286771
-0.322996
-0.353428
-0.373291
-0.380545
-0.374511
-0.355419
-0.324418
-0.283472
-0.235144
-0.182426
-0.128638
-0.0774905
-0.032979
0.00127707
0.0223384
0.0284227
0.0193763
-0.00298367
-0.0347918
-0.0704378
-0.103216
-0.126385
-0.134603
-0.125146
-0.0958211
-0.0515593
-0.00165663
0.0430862
0.0728279
0.0806431
0.0635168
0.0223869
-0.0384315
-0.112054
-0.18939
-0.262197
-0.322571
-0.364289
-0.383874
-0.381104
-0.358687
-0.32115
-0.273364
-0.219316
-0.161952
-0.102829
-0.0433533
0.014499
0.0679112
0.113551
0.148294
0.169979
0.177842
0.172466
0.15538
0.128537
0.0944575
0.0551991
0.0123616
-0.0325645
-0.0782599
-0.123658
-0.167952
-0.21046
-0.250322
-0.286173
-0.315968
-0.337162
-0.347286
-0.341743
-0.317319
-0.280993
-0.244984
-0.22292
-0.225398
-0.256545
-0.313049
-0.385852
-0.46356
-0.536062
-0.599231
-0.651668
-0.677673
-0.486222
0
0.810187
2.00328
3.54575
5.1781
6.36733
6.46151
5.01131
2.07523
-1.70493
-5.33234
-7.86633
-8.7924
-8.16443
-6.48075
-4.40216
-2.4765
-0.999731
-0.0386178
0.460381
0.490858
0.525385
0.562559
0.603724
0.649643
0.699487
0.751799
0.805432
0.860412
0.918268
0.981689
1.05365
1.13645
1.23034
1.33381
1.4454
1.56358
1.68677
1.81355
1.94279
2.07376
2.20618
2.34038
2.47746
2.61929
2.76838
2.92748
3.09898
3.28435
3.48366
3.69532
3.9163
4.14248
4.36912
4.59142
4.80458
5.00349
5.18309
5.33907
5.46765
5.56475
5.62595
5.64702
5.62373
5.55213
5.42899
5.25236
5.02209
4.74036
4.41199
4.0452
3.65166
3.24281
2.82834
2.4174
2.01824
1.63784
1.28178
0.954475
0.659533
0.400946
0.181526
0.0031395
-0.132431
-0.220904
-0.264203
-0.272193
-0.257692
-0.234658
-0.216158
-0.212565
-0.230278
-0.271042
-0.331859
-0.405372
-0.481407
-0.548816
-0.597277
-0.619274
-0.611315
-0.57437
-0.513313
-0.435696
-0.350352
-0.266134
-0.191841
-0.134779
-0.100144
-0.090307
-0.1041
-0.136545
-0.179473
-0.223154
-0.258628
-0.279991
-0.284236
-0.275021
-0.25916
-0.24336
-0.231207
-0.221674
-0.209769
-0.188999
-0.15456
-0.105116
-0.0455826
0.0136156
0.0603078
0.0843428
0.0805409
0.049959
-0.00069828
-0.0610987
-0.120027
-0.169204
-0.205404
-0.228073
-0.236895
-0.234221
-0.223068
-0.205987
-0.184353
-0.158364
-0.127768
-0.0921778
-0.0542995
-0.0207787
8.4877e-005
0.00159721
-0.0180243
-0.053911
-0.0953007
-0.1286
-0.141577
-0.13023
-0.0987638
-0.0518343
0.00595894
0.067783
0.125743
0.172732
0.203282
0.213931
0.203139
0.17093
0.118501
0.0480333
-0.0371214
-0.132271
-0.231948
-0.325567
-0.401538
-0.449919
-0.46524
-0.448363
-0.406457
-0.351015
-0.294629
-0.247716
-0.213286
-0.191438
-0.181136
-0.179592
-0.184472
-0.195652
0
0.591755
1.74137
3.40015
5.18781
6.44185
6.46181
4.85295
1.78553
-1.99876
-5.46059
-7.68444
-8.23433
-7.27334
-5.4154
-3.4115
-1.8385
-0.925178
-0.564879
-0.459186
-0.233939
-0.00930519
0.207323
0.402619
0.561108
0.668987
0.719726
0.718582
0.684026
0.644793
0.632652
0.672883
0.770355
0.907972
1.06763
1.23738
1.40798
1.5718
1.72372
1.86157
1.9862
2.10099
2.21129
2.3238
2.44589
2.58488
2.74726
2.93771
3.15817
3.40701
3.6787
3.96538
4.25411
4.53003
4.77963
4.99283
5.16413
5.29241
5.37969
5.42937
5.44438
5.42768
5.3787
5.29533
5.17471
5.01413
4.81206
4.56883
4.2883
3.97636
3.6393
3.28381
2.91685
2.54504
2.17438
1.81008
1.4567
1.11835
0.798864
0.501887
0.230749
-0.0117208
-0.223439
-0.403276
-0.551192
-0.668294
-0.756794
-0.819113
-0.857418
-0.876313
-0.883912
-0.888197
-0.895765
-0.910679
-0.933825
-0.963021
-0.993846
-1.02094
-1.03954
-1.04748
-1.04413
-1.02941
-1.00408
-0.969755
-0.928687
-0.883538
-0.837285
-0.793053
-0.753414
-0.719857
-0.69243
-0.669634
-0.648703
-0.626238
-0.599079
-0.565098
-0.523754
-0.476064
-0.423605
-0.368001
-0.310241
-0.25038
-0.187787
-0.121079
-0.050127
0.0192078
0.0754211
0.104868
0.0967501
0.047584
-0.0369404
-0.143501
-0.255209
-0.356256
-0.438804
-0.502838
-0.549153
-0.577448
-0.588692
-0.584614
-0.566557
-0.539231
-0.507884
-0.477173
-0.450189
-0.427858
-0.408992
-0.390972
-0.370762
-0.345888
-0.315788
-0.280807
-0.241768
-0.200176
-0.158128
-0.118319
-0.0836582
-0.0569992
-0.0408428
-0.037038
-0.0465267
-0.0691597
-0.103606
-0.147372
-0.196756
-0.247852
-0.296717
-0.340009
-0.375499
-0.402122
-0.421023
-0.435607
-0.449821
-0.466715
-0.487219
-0.509553
-0.529488
-0.541393
-0.539714
-0.520653
-0.48424
-0.43247
-0.367566
-0.292766
-0.211746
-0.127884
-0.0443443
0
0.206282
0.899901
2.26125
4.13624
5.95498
6.91898
6.38503
4.22662
0.941498
-2.56485
-5.38264
-6.95383
-7.20424
-6.43986
-5.12436
-3.67581
-2.36648
-1.32065
-0.565679
-0.0965423
0.109483
0.334337
0.569397
0.821462
1.09557
1.36349
1.58184
1.71054
1.73265
1.66514
1.55454
1.45954
1.42904
1.47732
1.57033
1.687
1.81722
1.9532
2.08837
2.21863
2.34306
2.46399
2.58648
2.71734
2.86369
3.03156
3.22454
3.44266
3.68253
3.9377
4.19937
4.45726
4.70062
4.92098
5.1133
5.27653
5.41324
5.52838
5.62502
5.70742
5.77754
5.83174
5.8594
5.84647
5.77769
5.63968
5.4245
5.13249
4.77386
4.36776
3.9387
3.51096
3.09893
2.70469
2.32966
1.97219
1.62819
1.29259
0.960985
0.631015
0.303586
-0.0152656
-0.314087
-0.577584
-0.79084
-0.943841
-1.03192
-1.05643
-1.02472
-0.949717
-0.848625
-0.740761
-0.644469
-0.5723
-0.52654
-0.507667
-0.513663
-0.539929
-0.58063
-0.629852
-0.682039
-0.733101
-0.779611
-0.818553
-0.847235
-0.86333
-0.86497
-0.85082
-0.820097
-0.772566
-0.708599
-0.626981
-0.524991
-0.406745
-0.289429
-0.194698
-0.142619
-0.144697
-0.199106
-0.290566
-0.395293
-0.489167
-0.555719
-0.597114
-0.622288
-0.637001
-0.645539
-0.651158
-0.655432
-0.658287
-0.65858
-0.65489
-0.646327
-0.632924
-0.615024
-0.593242
-0.568432
-0.541618
-0.514007
-0.487018
-0.462241
-0.441258
-0.425356
-0.415208
-0.410631
-0.410495
-0.412829
-0.41507
-0.414439
-0.40836
-0.39473
-0.372158
-0.34021
-0.299536
-0.251647
-0.199268
-0.146783
-0.0990634
-0.0601221
-0.0320982
-0.0146705
-0.00518465
0.000433922
0.00619459
0.0145404
0.0250823
0.0325064
0.0283382
0.00381832
-0.0468059
-0.123716
-0.220581
-0.32555
-0.423838
-0.501091
-0.550983
-0.570428
-0.558956
-0.52008
-0.460349
-0.387965
-0.311366
-0.237534
-0.17091
-0.113785
-0.0669565
-0.0295754
0
0.022246
0.0322575
0.38507
1.34734
3.00224
5.09164
6.99753
7.92753
7.25005
4.82501
1.14605
-2.81023
-5.96611
-7.56718
-7.4401
-5.97511
-3.88101
-1.861
-0.373515
0.442858
0.701918
0.770388
0.909268
1.07671
1.31336
1.65066
2.02733
2.35865
2.5725
2.63557
2.55976
2.39078
2.19136
2.02999
1.96872
2.00562
2.11499
2.27672
2.4762
2.70152
2.94231
3.18863
3.43185
3.66567
3.8868
4.09496
4.29243
4.48305
4.6712
4.86067
5.05393
5.25178
5.45353
5.65757
5.86222
6.06652
6.27068
6.47621
6.68644
6.9072
7.14213
7.37954
7.59107
7.7438
7.80982
7.7722
7.62662
7.37942
7.04312
6.6322
6.16492
5.6695
5.16792
4.67247
4.19199
3.73535
3.30983
2.92028
2.56869
2.25421
1.9738
1.72328
1.49857
1.29678
1.11692
0.959899
0.828406
0.729112
0.675108
0.675384
0.712003
0.757339
0.782921
0.768708
0.709538
0.616197
0.51084
0.4187
0.35938
0.331386
0.325649
0.337393
0.362007
0.394758
0.431651
0.469738
0.506871
0.540662
0.567832
0.584521
0.586718
0.571711
0.539572
0.493867
0.441145
0.3893
0.345363
0.312245
0.28877
0.273338
0.262479
0.25087
0.233228
0.205717
0.166981
0.118601
0.0648139
0.0115458
-0.0350303
-0.0700293
-0.0923505
-0.101987
-0.101298
-0.0962596
-0.0951678
-0.105776
-0.133316
-0.179022
-0.239527
-0.307284
-0.371942
-0.422309
-0.449621
-0.451233
-0.421094
-0.347052
-0.222129
-0.0692702
0.0753082
0.176654
0.211524
0.17585
0.0861183
-0.0259985
-0.123516
-0.174696
-0.175871
-0.139819
-0.0658077
0.0501639
0.192217
0.329692
0.4318
0.475731
0.453269
0.37326
0.258598
0.138659
0.0401083
-0.0256427
-0.064664
-0.0846164
-0.0904039
-0.0856014
-0.0738032
-0.058434
-0.0421991
-0.0268023
-0.0128636
0
0.0128238
0.0273899
0.0454841
0.0687149
0.0981779
0.134534
0.178945
0.237076
0.375212
0.748684
1.41699
2.52272
4.07571
5.77574
6.99336
7.01333
5.4338
2.46392
-1.10522
-4.25933
-6.22679
-6.77088
-6.16285
-4.91651
-3.49323
-2.15111
-0.975573
0.00377071
0.723131
0.879115
0.850602
0.814794
0.790108
0.791974
0.829704
0.904067
1.00093
1.10808
1.21677
1.31895
1.40847
1.48173
1.53788
1.57854
1.60741
1.62983
1.65202
1.68073
1.72268
1.78386
1.86864
1.97896
2.11368
2.26974
2.44174
2.61908
2.79141
2.95192
3.09957
3.23994
3.38429
3.54715
3.74308
3.99216
4.37017
4.88753
5.42515
5.85923
6.11151
6.16798
6.06648
5.8661
5.61659
5.34164
5.04479
4.7284
4.39544
4.048
3.68789
3.31715
2.93806
2.55355
2.16746
1.7846
1.41056
1.05151
0.713742
0.40301
0.123991
-0.120347
-0.329798
-0.506512
-0.65449
-0.778698
-0.884009
-0.974233
-1.05145
-1.11582
-1.16594
-1.19939
-1.2113
-1.19303
-1.13926
-1.06469
-0.993105
-0.948215
-0.944766
-0.98228
-1.04446
-1.10497
-1.13752
-1.12611
-1.08096
-1.01778
-0.946037
-0.875417
-0.813372
-0.763425
-0.724687
-0.692629
-0.660803
-0.622954
-0.57553
-0.518405
-0.45333
-0.383847
-0.31525
-0.253024
-0.201706
-0.164065
-0.140762
-0.130516
-0.130668
-0.137949
-0.149225
-0.162023
-0.174936
-0.187459
-0.199742
-0.212312
-0.225743
-0.240369
-0.256098
-0.272388
-0.288369
-0.303091
-0.315787
-0.326124
-0.334359
-0.341202
-0.347518
-0.353956
-0.360605
-0.366818
-0.371237
-0.372048
-0.367367
-0.355752
-0.336523
-0.309931
-0.277123
-0.240044
-0.201306
-0.164128
-0.131866
-0.107066
-0.0909031
-0.0827161
-0.0798269
-0.0777667
-0.0709252
-0.0535243
-0.0207172
0.0295229
0.0975614
0.184932
0.288547
0.395818
0.490728
0.558067
0.586587
0.57126
0.514162
0.424004
0.31461
0.202634
0.102817
0.0232625
-0.031997
-0.0603777
-0.0623631
-0.0408826
0
0.0513183
0.115353
0.18992
0.275099
0.371256
0.478378
0.597655
0.73677
0.980396
1.36076
2.05525
3.26457
5.00063
6.91743
8.33011
8.4784
6.92097
3.8238
-0.049303
-3.65352
-6.10663
-7.01048
-6.5024
-5.06799
-3.2713
-1.56282
-0.217289
0.647334
1.038
1.13907
1.30412
1.48382
1.68709
1.90225
2.09878
2.24238
2.31059
2.30455
2.25107
2.1937
2.17679
2.22941
2.33618
2.4724
2.62422
2.78192
2.93656
3.08113
3.21146
3.32674
3.42943
3.52468
3.61948
3.72156
3.8383
3.97568
4.13754
4.32534
4.53799
4.77199
5.02189
5.28082
5.54113
5.79477
6.03138
6.23895
6.4109
6.54443
6.64154
6.70943
6.75971
6.80607
6.86736
6.95532
7.03797
7.05201
6.92872
6.62495
6.14403
5.53779
4.88894
4.2816
3.73893
3.24064
2.78755
2.38142
2.02145
1.70514
1.42903
1.18925
0.981752
0.802434
0.647253
0.512417
0.394661
0.29169
0.202434
0.127235
0.0676306
0.0254089
0.00227509
-0.0010149
0.0146112
0.0469446
0.0915663
0.140745
0.186203
0.220652
0.239114
0.239733
0.223909
0.195823
0.16154
0.127885
0.10069
0.0838287
0.0794262
0.0887352
0.110992
0.141191
0.172163
0.196574
0.208645
0.205459
0.187508
0.158372
0.1237
0.0898371
0.062072
0.04338
0.0347551
0.0356485
0.0443274
0.0567423
0.0651562
0.0604626
0.0346172
-0.0170504
-0.0940014
-0.189846
-0.293309
-0.390685
-0.469127
-0.522645
-0.551824
-0.556279
-0.539219
-0.510705
-0.482014
-0.46296
-0.459846
-0.474443
-0.504116
-0.542962
-0.583556
-0.618834
-0.644865
-0.660608
-0.665312
-0.660086
-0.648185
-0.63316
-0.61775
-0.603082
-0.588394
-0.571348
-0.54879
-0.517682
-0.476384
-0.425044
-0.364444
-0.296036
-0.221996
-0.145062
-0.0686682
0.00352268
0.0679384
0.121327
0.160958
0.18404
0.189356
0.177124
0.149199
0.109315
0.0630592
0.0174433
-0.020005
-0.0424877
-0.0452646
-0.025724
0.0181202
0.0811043
0.14798
0.202377
0.231399
0.229212
0.198476
0.149096
0.0946897
0.0480431
0.0171227
0
0.0196745
0.193131
0.649008
1.65399
3.27998
5.22552
6.8433
7.38616
6.3628
3.81176
0.333917
-3.1403
-5.72567
-6.90741
-6.66889
-5.40107
-3.68314
-2.0538
-0.856633
-0.186797
0.0715281
0.181589
0.30644
0.433744
0.562881
0.694104
0.827778
0.964071
1.10264
1.2424
1.38144
1.51724
1.64714
1.76881
1.88084
1.98307
2.07673
2.16439
2.24967
2.33701
2.43129
2.53754
2.66052
2.80424
2.9714
3.1627
3.37648
3.60884
3.85538
4.10672
4.35257
4.58552
4.80308
5.0082
5.20793
5.41072
5.62337
5.84945
6.08634
6.32687
6.56137
6.77491
6.94414
7.05625
7.09573
7.04329
6.88235
6.60942
6.24058
5.80886
5.35345
4.90708
4.47819
4.06483
3.66956
3.29466
2.94216
2.61397
2.31182
2.03695
1.78998
1.57079
1.37856
1.21201
1.06954
0.949352
0.849432
0.767507
0.701127
0.647263
0.602115
0.561829
0.52296
0.482928
0.440344
0.395133
0.348426
0.302285
0.259281
0.222109
0.193342
0.175051
0.168641
0.17513
0.194505
0.226239
0.269514
0.323337
0.386475
0.458976
0.538726
0.617939
0.686935
0.736912
0.763301
0.767913
0.758477
0.745432
0.737362
0.737198
0.740105
0.740067
0.730401
0.706184
0.666297
0.614409
0.558666
0.51018
0.480523
0.489876
0.569256
0.713569
0.879248
1.01353
1.07458
1.04571
0.938846
0.787725
0.635588
0.522738
0.46251
0.44331
0.455319
0.50118
0.571513
0.647353
0.708193
0.736555
0.721885
0.662692
0.566517
0.448019
0.325856
0.217827
0.133659
0.0777294
0.0539876
0.0623556
0.0989466
0.15697
0.228185
0.304583
0.379879
0.450496
0.515022
0.573562
0.626463
0.673337
0.712876
0.742599
0.759717
0.762188
0.74943
0.722354
0.682803
0.632771
0.574314
0.509354
0.439414
0.366132
0.291885
0.219849
0.15363
0.0966275
0.0519421
0.0217828
0.00538176
0
0.000915122
0.00681093
0.0165501
0.030865
0.0519719
0.0830556
0.133384
0.260092
0.603298
1.09498
1.96331
3.36761
5.1426
6.70548
7.25645
6.19316
3.49052
-0.20341
-3.83342
-6.41231
-7.42706
-6.968
-5.55992
-3.84478
-2.31328
-1.19202
-0.473414
-0.0178266
0.291979
0.509196
0.708031
0.895943
1.07448
1.24536
1.40977
1.56693
1.71302
1.8392
1.93381
1.98849
2.00376
1.99139
1.97204
1.96945
2.0037
2.07633
2.17905
2.30689
2.45629
2.62344
2.80397
2.9946
3.19366
3.40102
3.61759
3.84442
4.08172
4.32816
4.5805
4.83423
5.08416
5.32486
5.55131
5.7606
5.95173
6.12525
6.27983
6.40986
6.50629
6.55822
6.54794
6.45846
6.28322
6.03222
5.72991
5.40455
5.07498
4.74328
4.40526
4.05497
3.68775
3.30243
2.90214
2.49399
2.08763
1.69224
1.31596
0.964935
0.642818
0.35097
0.0891939
-0.143192
-0.344136
-0.509258
-0.636314
-0.722532
-0.765921
-0.766938
-0.724184
-0.642485
-0.539824
-0.437076
-0.354135
-0.306638
-0.304036
-0.348964
-0.437396
-0.5591
-0.698067
-0.835077
-0.95222
-1.03282
-1.06401
-1.00977
-0.825327
-0.570366
-0.328089
-0.173209
-0.1442
-0.230533
-0.380232
-0.524699
-0.609018
-0.616005
-0.584432
-0.537018
-0.48287
-0.428349
-0.378604
-0.337721
-0.309546
-0.29658
-0.300401
-0.321544
-0.358943
-0.409442
-0.468059
-0.527343
-0.579136
-0.616019
-0.632632
-0.626515
-0.598312
-0.551422
-0.491299
-0.424851
-0.358772
-0.299211
-0.251192
-0.218047
-0.201048
-0.19934
-0.210194
-0.229545
-0.252658
-0.274826
-0.292289
-0.30232
-0.30299
-0.293481
-0.27413
-0.246246
-0.211988
-0.174116
-0.135391
-0.0977635
-0.0617838
-0.0263213
0.0112875
0.0546395
0.107312
0.171778
0.250947
0.343645
0.441196
0.531444
0.601903
0.642528
0.647539
0.615979
0.551275
0.460366
0.352784
0.240278
0.132622
0.0374249
-0.0390531
-0.0930485
-0.123729
-0.133042
-0.125032
-0.104864
-0.0779398
-0.0494675
-0.0239232
-0.00602379
0
-0.00687938
-0.0320091
-0.076185
-0.137736
-0.212386
-0.297319
-0.362718
-0.0506405
0.73515
2.08341
3.90066
5.79175
7.08437
7.07959
5.42414
2.37328
-1.26044
-4.47177
-6.51218
-7.15124
-6.62565
-5.37806
-3.80976
-2.1909
-0.714657
0.431594
1.07475
1.10678
1.1644
1.23212
1.31671
1.41918
1.528
1.6268
1.70114
1.74458
1.76098
1.76239
1.76409
1.77974
1.81418
1.86622
1.93678
2.02689
2.13656
2.26449
2.40804
2.56451
2.72719
2.88853
3.04326
3.1905
3.3345
3.48368
3.64784
3.8347
4.04661
4.27913
4.52267
4.76051
4.9769
5.16225
5.31601
5.44632
5.56654
5.69059
5.83145
5.98542
6.13529
6.25739
6.32879
6.3312
6.25119
6.07919
5.80991
5.44703
5.01176
4.52585
4.01207
3.49479
2.99044
2.50728
2.05321
1.6332
1.24952
0.902252
0.590155
0.311388
0.0641341
-0.153119
-0.341659
-0.502865
-0.637949
-0.748066
-0.837163
-0.912085
-0.979739
-1.04556
-1.11223
-1.17908
-1.2426
-1.29767
-1.33928
-1.3649
-1.37309
-1.36394
-1.33847
-1.29773
-1.24292
-1.17494
-1.09275
-0.994349
-0.881898
-0.766321
-0.662855
-0.586995
-0.550512
-0.558567
-0.608713
-0.691583
-0.792558
-0.893741
-0.978455
-1.03637
-1.06131
-1.02371
-0.871544
-0.637176
-0.393272
-0.216916
-0.157985
-0.219191
-0.358011
-0.509491
-0.618067
-0.661618
-0.674523
-0.677629
-0.680633
-0.689737
-0.706321
-0.727431
-0.747679
-0.761589
-0.766109
-0.761412
-0.747575
-0.724509
-0.691696
-0.647866
-0.591181
-0.51991
-0.432432
-0.326167
-0.205564
-0.084206
0.0218549
0.0987065
0.138823
0.143405
0.122068
0.090055
0.0639649
0.056657
0.0711148
0.10433
0.152166
0.209741
0.27049
0.327619
0.375112
0.408446
0.424977
0.424032
0.406832
0.376306
0.337066
0.294424
0.254041
0.221417
0.201193
0.196526
0.208647
0.236692
0.277786
0.327967
0.381302
0.428624
0.460421
0.46882
0.449341
0.402232
0.332795
0.250322
0.165842
0.0893512
0.0260619
-0.0245901
-0.0641067
-0.0948536
-0.118906
-0.132583
0
0.555348
1.79171
3.79076
6.24516
8.39822
9.26912
8.12315
4.92819
0.487367
-3.88069
-6.94405
-8.08404
-7.45467
-5.7441
-3.7503
-2.04156
-0.840161
-0.0947251
0.375679
0.77814
1.15276
1.49043
1.76313
1.94573
2.02453
2.00427
1.91
1.7827
1.66978
1.61311
1.62083
1.67567
1.76174
1.86843
1.988
2.11258
2.23564
2.35311
2.46407
2.5707
2.67766
2.79103
2.91708
3.06086
3.22534
3.41167
3.61914
3.84519
4.08569
4.33526
4.58771
4.83648
5.07486
5.297
5.49824
5.67543
5.82683
5.95074
6.04377
6.10254
6.12456
6.1062
6.04364
5.9342
5.77759
5.57633
5.33529
5.06038
4.75763
4.4331
4.09025
3.72976
3.35232
2.95976
2.55599
2.14748
1.74311
1.35343
0.989627
0.661711
0.377186
0.140438
-0.0469862
-0.188545
-0.290615
-0.361336
-0.409397
-0.443001
-0.469109
-0.492993
-0.518027
-0.545641
-0.575414
-0.605348
-0.632068
-0.651668
-0.660573
-0.656363
-0.638346
-0.607758
-0.567555
-0.521871
-0.475255
-0.432489
-0.397077
-0.370402
-0.351341
-0.336401
-0.320511
-0.298402
-0.266213
-0.222383
-0.16904
-0.110902
-0.0536445
-0.00212312
0.0407363
0.0739316
0.0973388
0.110195
0.110794
0.096253
0.0636164
0.0113736
-0.0593394
-0.144348
-0.236937
-0.328935
-0.412942
-0.483597
-0.53558
-0.564614
-0.567551
-0.542456
-0.488803
-0.407777
-0.302638
-0.175776
-0.0336571
0.107911
0.232536
0.327064
0.384786
0.406634
0.399751
0.37402
0.33813
0.297105
0.252868
0.205453
0.155346
0.105024
0.0595185
0.0259621
0.0122485
0.0307015
0.102529
0.237423
0.408907
0.574501
0.694265
0.741696
0.708512
0.60414
0.452018
0.284274
0.134986
0.0257356
-0.0422291
-0.0774218
-0.0890729
-0.0840295
-0.0678894
-0.0466509
-0.0261774
-0.0114197
-0.00560491
-0.00988367
-0.0232083
-0.042471
-0.0629198
-0.0788375
-0.0844064
-0.0746163
-0.0466434
0
0.0659203
0.147696
0.244027
0.36027
0.552441
0.960758
1.7191
2.93832
4.57126
6.29606
7.51469
7.5435
5.95777
2.89518
-0.904191
-4.39107
-6.67316
-7.37108
-6.67277
-5.11612
-3.29023
-1.63305
-0.372634
0.446694
0.911702
1.12547
1.27878
1.41458
1.53039
1.6244
1.69789
1.75507
1.80238
1.84734
1.89714
1.95733
2.03037
2.11672
2.21569
2.32557
2.44409
2.56895
2.69829
2.83104
2.96701
3.10689
3.25205
3.4042
3.56505
3.73581
3.91681
4.10713
4.30449
4.50534
4.70525
4.89943
5.08383
5.25602
5.41582
5.56552
5.7093
5.85311
6.00794
6.18918
6.3953
6.59379
6.74102
6.79855
6.74588
6.58574
6.33962
6.03391
5.68361
5.29087
4.86602
4.42263
3.96969
3.51456
3.06581
2.63258
2.22324
1.8443
1.49987
1.19169
0.919701
0.682757
0.479192
0.307449
0.167166
0.0574821
-0.0261324
-0.0892069
-0.137726
-0.17734
-0.212647
-0.246787
-0.281437
-0.317088
-0.353392
-0.389443
-0.424036
-0.455568
-0.482057
-0.5012
-0.51051
-0.507514
-0.490038
-0.456252
-0.404498
-0.331234
-0.23032
-0.10057
0.0385402
0.15699
0.224909
0.223744
0.155015
0.0415664
-0.0808877
-0.179088
-0.236996
-0.270126
-0.293001
-0.318055
-0.351864
-0.391723
-0.426645
-0.442236
-0.427162
-0.378099
-0.29897
-0.207548
-0.125659
-0.0723129
-0.058299
-0.0834859
-0.13713
-0.200943
-0.254314
-0.280528
-0.275619
-0.247146
-0.202898
-0.153812
-0.110532
-0.0801413
-0.0641351
-0.0582771
-0.0542468
-0.042378
-0.0145866
0.0301525
0.0965526
0.185882
0.283315
0.367154
0.417565
0.423798
0.388861
0.328995
0.267573
0.226234
0.217777
0.235032
0.267951
0.31195
0.363521
0.41944
0.475904
0.52796
0.569983
0.595913
0.59995
0.577515
0.526152
0.446162
0.340904
0.216804
0.0807095
-0.0520744
-0.162903
-0.234288
-0.253658
-0.216483
-0.127587
0
0.148435
0.299757
0.441654
0.57122
0.689492
0.776345
0.781386
1.24049
2.40451
4.23085
6.26795
7.75157
7.91964
6.39731
3.43393
-0.163896
-3.38269
-5.44107
-6.07533
-5.53843
-4.36201
-3.05713
-1.92311
-1.03042
-0.320158
0.278244
0.687256
0.949305
1.16449
1.35112
1.5117
1.64609
1.75615
1.84551
1.91933
1.98355
2.04426
2.10694
2.17581
2.25329
2.34125
2.43839
2.53919
2.63809
2.73241
2.82447
2.92205
3.03685
3.18129
3.36485
3.58878
3.84437
4.12349
4.41893
4.72322
5.02952
5.33224
5.62727
5.91167
6.18304
6.43801
6.6716
6.87891
7.05527
7.19613
7.29758
7.35648
7.37022
7.33626
7.2517
7.11333
6.92052
6.67402
6.37379
6.02253
5.62612
5.19381
4.73896
4.27511
3.81549
3.37246
2.95618
2.57377
2.229
1.92093
1.64546
1.39668
1.16854
0.956335
0.757676
0.572843
0.404462
0.256964
0.136205
0.0468011
-0.00821137
-0.0278696
-0.0136148
0.0323184
0.106267
0.200441
0.302397
0.396407
0.467825
0.505479
0.503234
0.4609
0.384306
0.284446
0.175713
0.073512
-0.00975213
-0.0691911
-0.104963
-0.117797
-0.10899
-0.0812456
-0.0410992
0.00290689
0.0429915
0.0735519
0.0919278
0.0982998
0.0948263
0.0844294
0.0697902
0.0530643
0.0361103
0.0213939
0.0126277
0.0147604
0.0331003
0.0727546
0.140477
0.233592
0.33927
0.439715
0.51721
0.558336
0.556629
0.513424
0.437183
0.341647
0.243096
0.15698
0.0936252
0.054956
0.0373148
0.036568
0.049611
0.0730734
0.103287
0.136577
0.16921
0.197203
0.216355
0.222708
0.213175
0.186258
0.142871
0.0869019
0.024929
-0.033443
-0.0777815
-0.0989053
-0.0867406
-0.0316756
0.0579265
0.16396
0.265464
0.344204
0.388709
0.395986
0.371132
0.325444
0.273489
0.228739
0.1994
0.195195
0.205419
0.209069
0.18434
0.11971
0.0210339
-0.089218
-0.18034
-0.225105
-0.216946
-0.17394
-0.0996444
0
0.117833
0.24762
0.385067
0.528751
0.680525
0.863014
1.23119
1.81383
2.69743
3.92373
5.35459
6.58719
7.0225
6.12357
3.74861
0.34279
-3.17636
-5.81544
-6.96052
-6.61501
-5.28716
-3.63503
-2.12377
-0.900354
0.0969542
0.945866
1.53394
1.68348
1.79028
1.88136
1.95872
2.02459
2.07996
2.12556
2.16198
2.18932
2.20862
2.22328
2.23974
2.26682
2.31402
2.38916
2.49502
2.62696
2.7794
2.94719
3.12432
3.30465
3.48289
3.65513
3.81926
3.97506
4.12399
4.26884
4.41321
4.5609
4.71547
4.87988
5.05636
5.2465
5.45138
5.67166
5.90925
6.1718
6.46986
6.79049
7.08925
7.31401
7.42358
7.40326
7.26947
7.06037
6.81572
6.55489
6.26942
5.95045
5.59759
5.21023
4.78768
4.33276
3.85361
3.36334
2.8786
2.41793
1.99857
1.63403
1.33932
1.1264
0.99483
0.926994
0.898186
0.884549
0.867455
0.83587
0.786537
0.72238
0.6499
0.576452
0.50778
0.446437
0.392889
0.346911
0.307983
0.275251
0.247533
0.223355
0.200969
0.178335
0.153339
0.124231
0.0901159
0.0513834
0.0098475
-0.031151
-0.067373
-0.0946033
-0.109582
-0.110691
-0.0981755
-0.073701
-0.0399321
0.00049243
0.0456291
0.0944285
0.146476
0.201776
0.257439
0.306126
0.337959
0.343807
0.318913
0.264947
0.189512
0.103568
0.0182939
-0.0585469
-0.124695
-0.178976
-0.220134
-0.24751
-0.260968
-0.261464
-0.252199
-0.237624
-0.221629
-0.206408
-0.191851
-0.175763
-0.154942
-0.126699
-0.090255
-0.0476685
-0.00285404
0.0390295
0.0728079
0.0943993
0.101548
0.0941703
0.0744547
0.0468796
0.0178229
-0.00531163
-0.0149385
-0.0049212
0.0289293
0.0910296
0.171205
0.254006
0.323551
0.368363
0.384178
0.373753
0.344255
0.303883
0.259642
0.215962
0.175337
0.140009
0.112063
0.0932973
0.0859822
0.0896902
0.100202
0.111081
0.11522
0.106808
0.0830615
0.0451916
-0.00165415
-0.0494141
-0.0891052
-0.11376
-0.119201
-0.0938283
0
0.423954
0.944383
1.60929
2.65829
4.22572
6.07334
7.53411
7.77789
6.27953
3.18809
-0.663505
-4.1315
-6.28891
-6.7926
-5.90995
-4.26035
-2.47679
-0.983069
0.0497884
0.629238
0.791405
0.896325
1.00376
1.115
1.23105
1.35021
1.46792
1.57866
1.6777
1.76236
1.83252
1.89028
1.93858
1.98212
2.02623
2.07688
2.14063
2.22387
2.3314
2.46481
2.62157
2.79337
2.97374
3.15727
3.34153
3.52804
3.72182
3.92966
4.15745
4.40769
4.6763
4.95808
5.23951
5.5021
5.72939
5.91146
6.0475
6.14578
6.22121
6.29122
6.37334
6.48614
6.62959
6.77863
6.89827
6.95384
6.91727
6.76989
6.50434
6.12702
5.65991
5.13868
4.60467
4.08388
3.58368
3.10586
2.65495
2.23457
1.84814
1.49932
1.19302
0.944125
0.78923
0.752656
0.794381
0.857659
0.889133
0.858726
0.768932
0.648826
0.536442
0.459506
0.418504
0.395389
0.381779
0.372906
0.365564
0.358422
0.351573
0.345692
0.341292
0.338468
0.337301
0.338226
0.34238
0.351612
0.368055
0.39341
0.428224
0.471162
0.519627
0.570461
0.620189
0.665523
0.703639
0.732177
0.749088
0.752493
0.740759
0.712806
0.668673
0.610089
0.540331
0.464797
0.392369
0.332089
0.29113
0.273128
0.277444
0.299589
0.332653
0.3692
0.403181
0.431431
0.452684
0.467607
0.47827
0.487454
0.497653
0.510507
0.526262
0.543419
0.558112
0.564196
0.555068
0.525453
0.473399
0.397357
0.30683
0.223747
0.172029
0.169615
0.222169
0.321146
0.447013
0.575993
0.687263
0.775032
0.840863
0.883734
0.904623
0.905809
0.890764
0.863008
0.82642
0.785053
0.742822
0.70304
0.667832
0.638086
0.613107
0.590514
0.567231
0.540531
0.509044
0.473445
0.436547
0.402733
0.376832
0.363418
0.366929
0.38623
0.412192
0.431878
0.431837
0.401509
0.335743
0.235839
0.109048
-0.0337453
-0.203149
0
0.783025
2.23929
4.20648
6.24286
7.72689
8.04984
6.84541
4.17233
0.561117
-3.12234
-5.96679
-7.34515
-7.13205
-5.70557
-3.73799
-1.88705
-0.541815
0.258099
0.708794
0.866705
0.979195
1.0722
1.14651
1.20815
1.2672
1.33534
1.42285
1.53589
1.67108
1.82206
1.98368
2.14715
2.30102
2.43587
2.54655
2.63344
2.70246
2.76375
2.82949
2.91135
3.01857
3.15209
3.31046
3.49298
3.69792
3.92217
4.16148
4.41077
4.66448
4.91713
5.1638
5.40073
5.6256
5.83777
6.03812
6.22887
6.41319
6.59477
6.77897
6.97588
7.18947
7.39283
7.53722
7.56945
7.45524
7.19525
6.82391
6.39143
5.93977
5.48821
5.03894
4.59238
4.15055
3.71731
3.2982
2.89991
2.52942
2.19275
1.89396
1.63432
1.41215
1.22313
1.06121
0.919711
0.792659
0.67599
0.568966
0.473581
0.394872
0.352156
0.432976
0.721028
1.1208
1.46586
1.60818
1.49813
1.20354
0.860579
0.595948
0.471968
0.425598
0.405728
0.398828
0.401505
0.412321
0.431306
0.459484
0.499159
0.554506
0.625353
0.699251
0.75846
0.785453
0.769209
0.709568
0.617916
0.51419
0.421645
0.360241
0.332929
0.335563
0.366635
0.430104
0.519404
0.61637
0.702303
0.763285
0.794228
0.800022
0.793218
0.789057
0.799774
0.828006
0.871296
0.921443
0.966698
0.995796
1.00129
0.981625
0.941434
0.890212
0.839748
0.801157
0.780271
0.777187
0.789626
0.815608
0.851764
0.894173
0.939744
0.986912
1.03578
1.08767
1.1442
1.20626
1.27328
1.34279
1.41126
1.4746
1.52899
1.5716
1.60098
1.61698
1.62042
1.61245
1.59417
1.56558
1.52564
1.47193
1.40192
1.31345
1.2059
1.08111
0.943896
0.801797
0.663982
0.54154
0.451324
0.400481
0.375484
0.353632
0.312996
0.24212
0.14504
0.0395583
-0.0501454
-0.103068
-0.117356
-0.0972295
0
0.366216
0.878719
1.66362
2.84223
4.3617
5.89577
6.89034
6.76844
5.2111
2.36453
-1.15125
-4.45393
-6.73086
-7.53405
-6.90656
-5.30057
-3.35095
-1.62052
-0.425955
0.200819
0.422118
0.509886
0.601404
0.696279
0.796148
0.902293
1.01528
1.13477
1.25948
1.38734
1.51575
1.64205
1.76402
117
301
486
672
859
1044
1231
1421
1609
1802
1996
2191
2386
2582
2774
2961
3152
3342
3532
3723
3534
3704
0
0
0
0
0
0
0
0
0
0
0
0
0
0
0
0
0
0
0
0
0
0
0
0
0
0
0
0
0
0
0
0
0
0
0
0
0
0
0
0
0
0
0
0
0
0
0
0
0
0
0
0
0
0
0
0
0
0
0
0
0
0
0
0
0
0
0
0
0
0
0
0
0
0
0
0
0
0
0
0
0
0
0
0
0
0
0
0
0
0
0
0
0
0
0
0
0
0
0
0
0
0
0
0
0
0
0
0
0
0
0
0
0
0
0
0
0
0
0
0
0
0
0
0
0
0
0
0
0
0
0
0
0
0
0
0
0
0
0
0
0
0
0
0
0
0
0
0
0
0
0
0
0
0
0
0
0
0
0
0
0
0
0
0
0
0
0
0
0
0
0
0
0
0
0
0
0
0
0
0
0
0
0
0
0
0
0
0
0
0
0
0
0
0
0
0
0
0
0
0
0
0
0
0
0
0
0
0
0
0
0
0
0
0
0
0
0
0
0
0
0
0
0
0
0
0
0
0
0
0
0
0
0
0
0
0
0
0
0
0
0
0
0
0
0
0
0
0
0
0
0
0
0
0
0
0
0
0
0
0
0
0
0
0
0
0
0
0
0
0
0
0
0
0
0
0
0
0
0
0
0
0
0
0
0
0
0
0
0
0
0
0
0
0
0
0
0
0
0
0
0
0
0
0
0
0
0
0
0
0
0
0
0
0
0
0
0
0
0
0
0
0
0
0
0
0
0
0
0
0
0
0
0
0
0
0
0
0
0
0
0
0
0
0
0
0
0
0
0
0
0
0
0
0
0
0
0
0
0
0
0
0
0
0
0
0
0
0
0
0
0
0
0
0
0
0
0
0
0
0
0
0
0
0
0
0
0
0
0
0
0
0
0
0
0
0
0
0
0
0
0
0
0
0
0
0
0
0
0
0
0
0
0
0
0
0
0
0
0
0
0
0
0
0
0
0
0
0
0
0
0
0
0
0
0
0
0
0
0
0
0
0
0
0
0
0
0
0
0
0
0
0
0
0
0
0
0
0
0
0
0
0
0
0
0
0
0
0
0
0
0
0
0
0
0
0
0
0
0
0
0
0
0
0
0
0
0
0
0
0
0
0
0
0
0
0
0
0
0
0
0
0
0
0
0
0
0
0
0
0
0
0
0
0
0
0
0
0
0
0
0
0
0
0
0
0
0
0
0
0
0
0
0
0
0
0
0
0
0
0
0
0
0
0
0
0
0
0
0
0
0
0
0
0
0
0
0
0
0
0
0
0
0
0
0
0
0
0
0
0
0
0
0
0
0
0
0
0
0
0
0
0
0
0
0
0
0
0
0
0
0
0
0
0
0
0
0
0
0
0
0
0
0
0
0
0
0
0
0
0
0
0
0
0
0
0
0
0
0
0
0
0
0
0
0
0
0
0
0
0
0
0
0
0
0
0
0
0
0
0
0
0
0
0
0
0
0
0
0
0
0
0
0
0
0
0
0
0
0
0
0
0
0
0
0
0
0
0
0
0
0
0
0
0
0
0
0
0
0
0
0
0
0
0
0
0
0
0
0
0
0
0
0
0
0
0
0
0
0
0
0
0
0
0
0
0
0
0
0
0
0
0
0
0
0
0
0
0
0
0
0
0
0
0
0
0
0
0
0
0
0
0
0
0
0
0
0
0
0
0
0
0
0
0
0
0
0
0
0
0
0
0
0
0
0
0
0
0
0
0
0
0
0
0
0
0
0
0
0
0
0
0
0
0
0
0
0
0
0
0
0
0
0
0
0
0
0
0
0
0
0
0
0
0
0
0
0
0
0
0
0
0
0
0
0
0
0
0
0
0
0
0
0
0
0
0
0
0
0
0
0
0
0
0
0
0
0
0
0
0
0
0
0
0
0
0
0
0
0
0
0
0
0
0
0
0
0
0
0
0
0
0
0
0
0
0
0
0
0
0
0
0
0
0
0
0
0
0
0
0
0
0
0
0
0
0
0
0
0
0
0
0
0
0
0
0
0
0
0
0
0
0
0
0
0
0
0
0
0
0
0
0
0
0
0
0
0
0
0
0
0
0
0
0
0
0
0
0
0
0
0
0
0
0
0
0
0
0
0
0
0
0
0
0
0
0
0
0
0
0
0
0
0
0
0
0
0
0
0
0
0
0
0
0
0
0
0
0
0
0
0
0
0
0
0
0
0
0
0
0
0
0
0
0
0
0
0
0
0
0
0
0
0
0
0
0
0
0
0
0
0
0
0
0
0
0
0
0
0
0
0
0
0
0
0
0
0
0
0
0
0
0
0
0
0
0
0
0
0
0
0
0
0
0
0
0
0
0
0
0
0
0
0
0
0
0
0
0
0
0
0
0
0
0
0
0
0
0
0
0
0
0
0
0
0
0
0
0
0
0
0
0
0
0
0
0
0
0
0
0
0
0
0
0
0
0
0
0
0
0
0
0
0
0
0
0
0
0
0
0
0
0
0
0
0
0
0
0
0
0
0
0
0
0
0
0
0
0
0
0
0
0
0
0
0
0
0
0
0
0
0
0
0
0
0
0
0
0
0
0
0
0
0
0
0
0
0
0
0
0
0
0
0
0
0
0
0
0
0
0
0
0
0
0
0
0
0
0
0
0
0
0
0
0
0
0
0
0
0
0
0
0
0
0
0
0
0
0
0
0
0
0
0
0
0
0
0
0
0
0
0
0
0
0
0
0
0
0
0
0
0
0
0
0
0
0
0
0
0
0
0
0
0
0
0
0
0
0
0
0
0
0
0
0
0
0
0
0
0
0
0
0
0
0
0
0
0
0
0
0
0
0
0
0
0
0
0
0
0
0
0
0
0
0
0
0
0
0
0
0
0
0
0
0
0
0
0
0
0
0
0
0
0
0
0
0
0
0
0
0
0
0
0
0
0
0
0
0
0
0
0
0
0
0
0
0
0
0
0
0
0
0
0
0
0
0
0
0
0
0
0
0
0
0
0
0
0
0
0
0
0
0
0
0
0
0
0
0
0
0
0
0
0
0
0
0
0
0
0
0
0
0
0
0
0
0
0
0
0
0
0
0
0
0
0
0
0
0
0
0
0
0
0
0
0
0
0
0
0
0
0
0
0
0
0
0
0
0
0
0
0
0
0
0
0
0
0
0
0
0
0
0
0
0
0
0
0
0
0
0
0
0
0
0
0
0
0
0
0
0
0
0
0
0
0
0
0
0
0
0
0
0
0
0
0
0
0
0
0
0
0
0
0
0
0
0
0
0
0
0
0
0
0
0
0
0
0
0
0
0
0
0
0
0
0
0
0
0
0
0
0
0
0
0
0
0
0
0
0
0
0
0
0
0
0
0
0
0
0
0
0
0
0
0
0
0
0
0
0
0
0
0
0
0
0
0
0
0
0
0
0
0
0
0
0
0
0
0
0
0
0
0
0
0
0
0
0
0
0
0
0
0
0
0
0
0
0
0
0
0
0
0
0
0
0
0
0
0
0
0
0
0
0
0
0
0
0
0
0
0
0
0
0
0
0
0
0
0
0
0
0
0
0
0
0
0
0
0
0
0
0
0
0
0
0
0
0
0
0
0
0
0
0
0
0
0
0
0
0
0
0
0
0
0
0
0
0
0
0
0
0
0
0
0
0
0
0
0
0
0
0
0
0
0
0
0
0
0
0
0
0
0
0
0
0
0
0
0
0
0
0
0
0
0
0
0
0
0
0
0
0
0
0
0
0
0
0
0
0
0
0
0
0
0
0
0
0
0
0
0
0
0
0
0
0
0
0
0
0
0
0
0
0
0
0
0
0
0
0
0
0
0
0
0
0
0
0
0
0
0
0
0
0
0
0
0
0
0
0
0
0
0
0
0
0
0
0
0
0
0
0
0
0
0
0
0
0
0
0
0
0
0
0
0
0
0
0
0
0
0
0
0
0
0
0
0
0
0
0
0
0
0
0
0
0
0
0
0
0
0
0
0
0
0
0
0
0
0
0
0
0
0
0
0
0
0
0
0
0
0
0
0
0
0
0
0
0
0
0
0
0
0
0
0
0
0
0
0
0
0
0
0
0
0
0
0
0
0
0
0
0
0
0
0
0
0
0
0
0
0
0
0
0
0
0
0
0
0
0
0
0
0
0
0
0
0
0
0
0
0
0
0
0
0
0
0
0
0
0
0
0
0
0
0
0
0
0
0
0
0
0
0
0
0
0
0
0
0
0
0
0
0
0
0
0
0
0
0
0
0
0
0
0
0
0
0
0
0
0
0
0
0
0
0
0
0
0
0
0
0
0
0
0
0
0
0
0
0
0
0
0
0
0
0
0
0
0
0
0
0
0
0
0
0
0
0
0
0
0
0
0
0
0
0
0
0
0
0
0
0
0
0
0
0
0
0
0
0
0
0
0
0
0
0
0
0
0
0
0
0
0
0
0
0
0
0
0
0
0
0
0
0
0
0
0
0
0
0
0
0
0
0
0
0
0
0
0
0
0
0
0
0
0
0
0
0
0
0
0
0
0
0
0
0
0
0
0
0
0
0
0
0
0
0
0
0
0
0
0
0
0
0
0
0
0
0
0
0
0
0
0
0
0
0
0
0
0
0
0
0
0
0
0
0
0
0
0
0
0
0
0
0
0
0
0
0
0
0
0
0
0
0
0
0
0
0
0
0
0
0
0
0
0
0
0
0
0
0
0
0
0
0
0
0
0
0
0
0
0
0
0
0
0
0
0
0
0
0
0
0
0
0
0
0
0
0
0
0
0
0
0
0
0
0
0
0
0
0
0
0
0
0
0
0
0
0
0
0
0
0
0
0
0
0
0
0
0
0
0
0
0
0
0
0
0
0
0
0
0
0
0
0
0
0
0
0
0
0
0
0
0
0
0
0
0
0
0
0
0
0
0
0
0
0
0
0
0
0
0
0
0
0
0
0
0
0
0
0
0
0
0
0
0
0
0
0
0
0
0
0
0
0
0
0
0
0
0
0
0
0
0
0
0
0
0
0
0
0
0
0
0
0
0
0
0
0
0
0
0
0
0
0
0
0
0
0
0
0
0
0
0
0
0
0
0
0
0
0
0
0
0
0
0
0
0
0
0
0
0
0
0
0
0
0
0
0
0
0
0
0
0
0
0
0
0
0
0
0
0
0
0
0
0
0
0
0
0
0
0
0
0
0
0
0
0
0
0
0
0
0
0
0
0
0
0
0
0
0
0
0
0
0
0
0
0
0
0
0
0
0
0
0
0
0
0
0
0
0
0
0
0
0
0
0
0
0
0
0
0
0
0
0
0
0
0
0
0
0
0
0
0
0
0
0
0
0
0
0
0
0
0
0
0
0
0
0
0
0
0
0
0
0
0
0
0
0
0
0
0
0
0
0
0
0
0
0
0
0
0
0
0
0
0
0
0
0
0
0
0
0
0
0
0
0
0
0
0
0
0
0
0
0
0
0
0
0
0
0
0
0
0
0
0
0
0
0
0
0
0
0
0
0
0
0
0
0
0
0
0
0
0
0
0
0
0
0
0
0
0
0
0
0
0
0
0
0
0
0
0
0
0
0
0
0
0
0
0
0
0
0
0
0
0
0
0
0
0
0
0
0
0
0
0
0
0
0
0
0
0
0
0
0
0
0
0
0
0
0
0
0
0
0
0
0
0
0
0
0
0
0
0
0
0
0
0
0
0
0
0
0
0
0
0
0
0
0
0
0
0
0
0
0
0
0
0
0
0
0
0
0
0
0
0
0
0
0
0
0
0
0
0
0
0
0
0
0
0
0
0
0
0
0
0
0
0
0
0
0
0
0
0
0
0
0
0
0
0
0
0
0
0
0
0
0
0
0
0
0
0
0
0
0
0
0
0
0
0
0
0
0
0
0
0
0
0
0
0
0
0
0
0
0
0
0
0
0
0
0
0
0
0
0
0
0
0
0
0
0
0
0
0
0
0
0
0
0
0
0
0
0
0
0
0
0
0
0
0
0
0
0
0
0
0
0
0
0
0
0
0
0
0
0
0
0
0
0
0
0
0
0
0
0
0
0
0
0
0
0
0
0
0
0
0
0
0
0
0
0
0
0
0
0
0
0
0
0
0
0
0
0
0
0
0
0
0
0
0
0
0
0
0
0
0
0
0
0
0
0
0
0
0
0
0
0
0
0
0
0
0
0
0
0
0
0
0
0
0
0
0
0
0
0
0
0
0
0
0
0
0
0
0
0
0
0
0
0
0
0
0
0
0
0
0
0
0
0
0
0
0
0
0
0
0
0
0
0
0
0
0
0
0
0
0
0
0
0
0
0
0
0
0
0
0
0
0
0
0
0
0
0
0
0
0
0
0
0
0
0
0
0
0
0
0
0
0
0
0
0
0
0
0
0
0
0
0
0
0
0
0
0
0
0
0
0
0
0
0
0
0
0
0
0
0
0
0
0
0
0
0
0
0
0
0
0
0
0
0
0
0
0
0
0
0
0
0
0
0
0
0
0
0
0
0
0
0
0
0
0
0
0
0
0
0
0
0
0
0
0
0
0
0
0
0
0
0
0
0
0
0
0
0
0
0
0
0
0
0
0
0
0
0
0
0
0
0
0
0
0
0
0
0
0
0
0
0
0
0
0
0
0
0
0
0
0
0
0
0
0
0
0
0
0
0
0
0
0
0
0
0
0
0
0
0
0
0
0
0
0
0
0
0
0
0
0
0
0
0
0
0
0
0
0
0
0
0
0
0
0
0
0
0
0
0
0
0
0
0
0
0
0
0
0
0
0
0
0
0
0
0
0
0
0
0
0
0
0
0
0
0
0
0
0
0
0
0
0
0
0
0
0
0
0
0
0
0
0
0
0
0
0
0
0
0
0
0
0
0
0
0
0
0
0
0
0
0
0
0
0
0
0
0
0
0
0
0
0
0
0
0
0
0
0
0
0
0
0
0
0
0
0
0
0
0
0
0
0
0
0
0
0
0
0
0
0
0
0
0
0
0
0
0
0
0
0
0
0
0
0
0
0
0
0
0
0
0
0
0
0
0
0
0
0
0
0
0
0
0
0
0
0
0
0
0
0
0
0
0
0
0
0
0
0
0
0
0
0
0
0
0
0
0
0
0
0
0
0
0
0
0
0
0
0
0
0
0
0
0
0
0
0
0
0
0
0
0
0
0
0
0
0
0
0
0
0
0
0
0
0
0
0
0
0
0
0
0
0
0
0
0
0
0
0
0
0
0
0
0
0
0
0
0
0
0
0
0
0
0
0
0
0
0
0
0
0
0
0
0
0
0
0
0
0
0
0
0
0
0
0
0
0
0
0
0
0
0
0
0
0
0
0
0
0
0
0
0
0
0
0
0
0
0
0
0
0
0
0
0
0
0
0
0
0
0
0
0
0
0
0
0
0
0
0
0
0
0
0
0
0
0
0
0
0
0
0
0
0
0
0
0
0
0
0
0
0
0
0
0
0
0
0
0
0
0
0
0
0
0
0
0
0
0
0
0
0
0
0
0
0
0
0
0
0
0
0
0
0
0
0
0
0
0
0
0
0
0
0
0
0
0
0
0
0
0
0
0
0
0
0
0
0
0
0
0
0
0
0
0
0
0
0
0
0
0
0
0
0
0
0
0
0
0
0
0
0
0
0
0
0
0
0
0
0
0
0
0
0
0
0
0
0
0
0
0
0
0
0
0
0
0
0
0
0
0
0
0
0
0
0
0
0
0
0
0
0
0
0
0
0
0
0
0
0
0
0
0
0
0
0
0
0
0
0
0
0
0
0
0
0
0
0
0
0
0
0
0
0
0
0
0
0
0
0
0
0
0
0
0
0
0
0
0
0
0
0
0
0
0
0
0
0
0
0
0
0
0
0
0
0
0
0
0
0
0
0
0
0
0
0
0
0
0
0
0
0
0
0
0
0
0
0
0
0
0
0
0
0
0
0
0
0
0
0
0
0
0
0
0
0
0
0
0
0
0
0
0
0
0
0
0
0
0
0
0
0
0
0
0
0
0
0
0
0
0
0
0
0
0
0
0
0
0
0
0
0
0
0
0
0
0
0
0
0
0
0
0
0
0
0
0
0
0
0
0
0
0
0
0
0
0
0
0
0
0
0
0
0
0
0
0
0
0
0
0
0
0
0
0
0
0
0
0
0
0
0
0
0
0
0
0
0
0
0
0
0
0
0
0
0
0
0
0
0
0
0
0
0
0
0
0
0
0
0
0
0
0
0
0
0
0
0
0
0
0
0
0
0
0
0
0
0
0
0
0
0
0
0
0
0
0
0
0
0
0
0
0
0
0
0
0
0
0
0
0
0
0
0
0
0
0
0
0
0
0
0
0
0
0
0
0
0
0
0
0
0
0
0
0
0
0
0
0
0
0
0
0
0
0
0
0
0
0
0
0
0
0
0
0
0
0
0
0
0
0
0
0
0
0
0
0
0
0
0
0
0
0
0
0
0
0
0
0
