-0.0686642
-0.263622
-0.421255
-0.536027
-0.598237
-0.55094
-0.337054
-0.0350651
0.251984
0.42996
0.445026
0.300956
0.0533936
-0.215957
-0.431304
-0.54786
-0.601553
-0.623086
-0.624421
-0.610433
-0.584372
-0.549238
-0.507729
-0.462302
-0.415317
-0.369476
-0.328497
-0.296173
-0.275835
-0.269327
-0.276027
-0.292356
-0.312066
-0.327312
-0.330153
-0.314079
-0.277739
-0.220335
-0.141142
-0.0355248
0.105038
0.275717
0.443875
0.566547
0.602559
0.529277
0.35494
0.119068
-0.120423
-0.308065
-0.421948
-0.488684
-0.526287
-0.540156
-0.536702
-0.521627
-0.498853
-0.470149
-0.435514
-0.394128
-0.345496
-0.290335
-0.231074
-0.170876
-0.113026
-0.0600391
-0.0129745
0.0226879
0
0.388223
1.30088
2.68824
4.2982
5.68108
6.28164
5.62967
3.57573
0.443035
-3.02313
-5.91821
-7.53244
-7.61362
-6.41607
-4.53152
-2.60567
-1.08467
-0.0997566
0.477111
0.810699
0.931956
1.04089
1.14447
1.24659
1.3528
1.46927
1.60137
1.75221
1.92131
2.10812
2.30597
2.4976
2.66228
2.78321
2.85255
2.87471
2.86687
2.85584
2.87161
2.93936
3.06805
3.24338
3.45019
3.67921
3.92311
4.17511
4.42968
4.68304
4.93315
5.17936
5.42189
5.66103
5.89658
6.1272
6.34975
6.55869
6.74673
6.90681
7.03229
7.11781
7.15976
7.15625
7.10675
7.01154
6.87135
6.68745
6.46405
6.20657
5.92047
5.61145
5.28582
4.95029
4.61147
4.27542
3.94714
3.63028
3.32715
3.03895
2.76626
2.50948
2.26934
2.04713
1.84466
1.66397
1.50677
1.3747
1.27023
1.19279
1.13503
1.0879
1.04287
0.994068
0.939656
0.881757
0.824923
0.773556
0.728941
0.688235
0.642173
0.576663
0.475377
0.323018
0.108472
-0.172933
-0.518438
-0.918249
-1.35697
-1.81359
-2.27254
-2.72255
-3.15527
-3.5661
-3.95449
-4.32375
-4.68018
-5.03196
-5.38771
-5.75517
-6.14007
-6.54985
-6.99567
-7.48186
-7.98913
-8.46368
-8.84838
-9.14381
-9.36224
-9.48528
-9.46203
-9.22537
-8.72182
-7.95251
-7.01755
-6.14217
-5.51038
-5.02809
-4.61042
-4.24494
-3.92757
-3.6521
-3.41148
-3.19916
-3.01008
-2.84103
-2.69058
-2.55858
-2.44537
-2.35112
-2.27538
-2.21678
-2.17313
-2.14157
-2.1188
-2.10119
-2.08492
-2.06601
-2.04048
-2.00461
-1.95527
-1.8905
-1.80999
-1.71529
-1.60942
-1.49781
-1.38767
-1.28584
-1.19704
-1.12263
-1.06039
-1.00519
-0.950568
-0.890619
-0.82182
-0.744121
-0.660943
-0.576875
-0.496833
-0.424666
-0.362153
-0.308651
-0.262457
-0.221172
0
0.390773
1.11732
2.41803
4.31113
6.37292
7.7741
7.63967
5.5498
1.86183
-2.37528
-5.89118
-7.77339
-7.81718
-6.48222
-4.54615
-2.70521
-1.33751
-0.487164
0.0110075
0.386691
0.727033
1.05206
1.35193
1.6178
1.8414
2.01501
2.1356
2.20619
2.23357
2.22805
2.20309
2.17427
2.15754
2.16684
2.21169
2.29275
2.40292
2.53512
2.68386
2.84413
3.01195
3.1849
3.3622
3.54443
3.73284
3.92875
4.13293
4.34534
4.56504
4.79028
5.01868
5.24737
5.47308
5.69225
5.901
6.09536
6.27136
6.42465
6.54969
6.63918
6.68587
6.68455
6.6299
6.51733
6.34426
6.11131
5.82293
5.48745
5.11637
4.72438
4.32629
3.93326
3.55524
3.20128
2.87851
2.59202
2.34471
2.13743
1.9701
1.84154
1.74912
1.69001
1.66131
1.65997
1.68247
1.72455
1.78122
1.847
1.91648
1.98502
2.04935
2.10779
2.16015
2.20704
2.24843
2.2833
2.30925
2.32225
2.31843
2.29649
2.25933
2.2143
2.17146
2.1408
2.12905
2.1369
2.16171
2.19308
2.21761
2.2231
2.20201
2.15368
2.08465
2.00707
1.93547
1.8828
1.85486
1.84895
1.85983
1.87938
1.89766
1.90493
1.89345
1.85856
1.79907
1.71709
1.61753
1.50805
1.39657
1.29048
1.19644
1.11934
1.06109
1.02423
1.01072
1.01482
1.02261
1.02021
0.998362
0.955607
0.898821
0.840565
0.794572
0.771613
0.77416
0.801532
0.856228
0.941936
1.06359
1.22585
1.43045
1.69022
1.9942
2.29673
2.54697
2.70653
2.76139
2.72287
2.61878
2.48049
2.33245
2.18737
2.04774
1.91381
1.78576
1.66337
1.54594
1.43146
1.31654
1.19737
1.07086
0.935802
0.793655
0.648588
0.506675
0.374487
0.256487
0.154331
0.0688602
0
-0.0432182
0.00559635
0.288516
0.930227
2.1159
3.84334
5.75598
7.16133
7.30471
5.76612
2.73583
-1.02287
-4.50662
-6.89455
-7.82617
-7.42464
-6.12465
-4.44471
-2.8132
-1.4895
-0.562708
0.0020565
0.247335
0.376414
0.501944
0.62716
0.752354
0.876809
0.998839
1.11622
1.22669
1.32853
1.42093
1.50413
1.57922
1.64771
1.71233
1.77628
1.84319
1.917
2.00168
2.10066
2.21624
2.34919
2.49845
2.66125
2.83582
3.02085
3.21582
3.4209
3.63638
3.86205
4.09665
4.33748
4.58113
4.82385
5.0622
5.29357
5.51634
5.72911
5.92894
6.11027
6.26647
6.38766
6.46104
6.47452
6.41987
6.29366
6.09589
5.82754
5.4894
5.09534
4.6617
4.19953
3.71782
3.22668
2.73819
2.26582
1.82313
1.42308
1.08425
0.84458
0.751723
0.791392
0.894343
0.985387
1.00433
0.920417
0.737713
0.491504
0.236756
0.0303982
-0.105001
-0.187727
-0.234505
-0.250606
-0.243289
-0.219868
-0.186076
-0.145233
-0.0984339
-0.0455667
0.0142891
0.078307
0.137742
0.180256
0.193333
0.168393
0.104064
0.00744705
-0.107091
-0.221328
-0.318431
-0.390805
-0.43904
-0.462363
-0.465958
-0.457742
-0.446293
-0.438935
-0.440503
-0.453057
-0.476413
-0.509117
-0.549144
-0.594444
-0.643601
-0.695422
-0.748393
-0.80037
-0.848512
-0.889487
-0.919913
-0.936798
-0.937702
-0.921076
-0.887956
-0.844367
-0.79986
-0.763909
-0.743427
-0.740871
-0.753561
-0.774482
-0.794342
-0.804226
-0.798741
-0.778122
-0.745288
-0.703439
-0.655918
-0.606136
-0.556845
-0.509592
-0.464566
-0.420751
-0.376324
-0.329179
-0.277454
-0.219967
-0.156536
-0.088101
-0.0165186
0.0552158
0.122256
0.178307
0.217444
0.235107
0.229471
0.202427
0.159679
0.109713
0.0618659
0.0241059
-2.99454e-005
-0.0113182
-0.0105972
0
0.0192556
0.0434148
0.0708102
0.100715
0.133417
0.173551
0.356692
0.804204
1.65322
2.9995
4.73693
6.45763
7.4996
7.18501
5.17407
1.73856
-2.24674
-5.64416
-7.55631
-7.70115
-6.44536
-4.50957
-2.56732
-0.989427
0.163896
0.987039
1.51964
1.66141
1.78233
1.89341
1.99533
2.0898
2.17905
2.26518
2.34944
2.43227
2.51338
2.59239
2.66962
2.74652
2.82547
2.90914
2.99949
3.0972
3.20106
3.30923
3.42031
3.53356
3.64944
3.76971
3.8972
4.03528
4.18698
4.35444
4.53849
4.7382
4.95091
5.1726
5.39864
5.62466
5.84752
6.06596
6.28033
6.49307
6.7127
6.94835
7.18223
7.37559
7.48583
7.48455
7.3662
7.14519
6.84617
6.4942
6.11075
5.71387
5.31248
4.91079
4.51151
4.11751
3.73204
3.35864
3.00091
2.66219
2.34524
2.05197
1.78333
1.53944
1.31981
1.12377
0.95099
0.801464
0.675629
0.574398
0.498578
0.447986
0.421416
0.416356
0.429423
0.456238
0.491057
0.528491
0.564305
0.595901
0.622326
0.643816
0.661092
0.674671
0.684507
0.69005
0.690685
0.68632
0.677877
0.667481
0.658315
0.654194
0.658779
0.674636
0.703559
0.747564
0.808575
0.88582
0.971686
1.05292
1.11524
1.14675
1.14114
1.09961
1.03077
0.948385
0.867421
0.799407
0.747447
0.709473
0.681802
0.659736
0.640154
0.623515
0.614403
0.620278
0.648796
0.704697
0.785309
0.885434
0.995164
1.10241
1.19548
1.26531
1.30683
1.31923
1.30532
1.2703
1.2205
1.16234
1.10072
1.03868
0.977584
0.917418
0.857219
0.795548
0.730966
0.662533
0.5902
0.515023
0.439142
0.36553
0.297558
0.238475
0.190874
0.156257
0.134825
0.125456
0.125582
0.131031
0.136724
0.137885
0.130981
0.11452
0.0895251
0.0595523
0.0302012
0.00817628
0
0.0141268
0.0499357
0.107814
0.186091
0.287983
0.446489
0.724717
1.25976
2.20802
3.56475
5.05628
6.1665
6.31126
5.10297
2.57335
-0.772968
-4.11548
-6.61721
-7.72762
-7.35698
-5.86147
-3.86476
-2.00094
-0.683113
0.00948701
0.281686
0.509848
0.753511
0.987466
1.20769
1.40764
1.58282
1.73162
1.85538
1.95818
2.04625
2.12706
2.20831
2.29697
2.39858
2.51674
2.65298
2.80795
2.98184
3.17447
3.38548
3.61453
3.86142
4.12622
4.4094
4.71201
5.03567
5.38245
5.75455
6.15373
6.58076
7.03488
7.52111
8.05555
8.63142
9.18125
9.63119
9.92482
10.0397
9.99331
9.83367
9.61763
9.38962
9.17083
8.95618
8.73648
8.50557
8.2583
7.99026
7.69849
7.38167
7.04133
6.68269
6.31458
5.94864
5.598
5.27563
4.9956
4.77856
4.6439
4.57762
4.55193
4.5368
4.50845
4.45457
4.37455
4.27543
4.16606
4.05234
3.93607
3.8168
3.69323
3.56398
3.42825
3.28593
3.13762
2.98465
2.82855
2.67113
2.5144
2.36055
2.2119
2.07087
1.93988
1.82124
1.71685
1.62818
1.55631
1.50063
1.45743
1.42156
1.38766
1.35152
1.31102
1.26646
1.22004
1.17469
1.13281
1.09531
1.06122
1.02837
0.994476
0.958372
0.920664
0.883639
0.850432
0.823831
0.804933
0.793352
0.78749
0.785054
0.783801
0.782046
0.778759
0.7733
0.765024
0.753128
0.736669
0.714944
0.688039
0.657201
0.624823
0.594018
0.567895
0.548834
0.538148
0.53581
0.540961
0.552509
0.569599
0.591712
0.618314
0.648384
0.679255
0.705619
0.720165
0.714983
0.683567
0.622858
0.534697
0.426141
0.308393
0.194496
0.0962964
0.0219355
-0.0208783
-0.0377962
-0.0399529
-0.039209
-0.0436296
-0.0551551
-0.0703853
-0.0839067
-0.0923747
-0.0974592
-0.104655
-0.120785
-0.151749
-0.200111
-0.263827
-0.34193
-0.380164
0
0.864071
2.25009
4.03811
5.87148
7.17779
7.35029
6.02187
3.2862
-0.267836
-3.74836
-6.2853
-7.3366
-6.85093
-5.23495
-3.16103
-1.30047
-0.0864864
0.401673
0.406479
0.507874
0.613751
0.723556
0.838164
0.958421
1.08521
1.21939
1.36154
1.51159
1.66837
1.82941
1.99091
2.1478
2.29322
2.41918
2.5209
2.59662
2.6486
2.68344
2.71183
2.74731
2.80441
2.89624
3.03123
3.20697
3.41877
3.6627
3.93305
4.2222
4.52139
4.82145
5.11356
5.38922
5.64041
5.86033
6.04399
6.18791
6.2898
6.34874
6.36419
6.33603
6.26473
6.15161
5.99908
5.81066
5.5908
5.34481
5.07881
4.798
4.50553
4.203
3.89118
3.57031
3.24082
2.904
2.56276
2.22202
1.88877
1.57225
1.2822
1.02719
0.813436
0.643834
0.517728
0.431413
0.379244
0.35496
0.352842
0.368104
0.397593
0.439016
0.490487
0.549945
0.61379
0.676453
0.731355
0.772258
0.794525
0.796189
0.778536
0.746064
0.705802
0.666133
0.635395
0.619837
0.622525
0.643945
0.683305
0.73956
0.81123
0.895702
0.984241
1.06091
1.10857
1.1131
1.06829
0.979415
0.863359
0.744607
0.648335
0.593287
0.574768
0.586715
0.625243
0.684381
0.757563
0.838073
0.921044
1.00283
1.07987
1.14744
1.19868
1.22761
1.22874
1.19902
1.13984
1.05825
0.966346
0.879415
0.812127
0.774864
0.771273
0.797832
0.84538
0.901868
0.95522
0.997533
1.02494
1.03361
1.02043
0.984383
0.926156
0.848537
0.75664
0.656768
0.55912
0.473998
0.409608
0.37043
0.357107
0.363454
0.379879
0.395933
0.402548
0.393276
0.364364
0.314093
0.242058
0.150786
0.0438102
-0.0758323
-0.20345
-0.332845
-0.456582
-0.557298
-0.518657
0
0.679703
1.59863
2.89988
4.52618
6.05267
6.78174
6.08351
3.78097
0.333824
-3.31045
-6.12535
-7.44756
-7.21998
-5.92107
-4.25433
-2.79865
-1.80584
-1.21469
-0.810266
-0.416707
-0.117916
0.144725
0.381556
0.594728
0.785654
0.958148
1.11694
1.26504
1.4032
1.53001
1.64192
1.73582
1.81167
1.87382
1.93046
1.9915
2.06581
2.15745
2.26527
2.3873
2.52178
2.66702
2.82185
2.98606
3.16031
3.34585
3.544
3.75563
3.98084
4.21876
4.46762
4.7249
4.9877
5.25245
5.51442
5.76603
5.99482
6.18727
6.33016
6.41103
6.42161
6.36077
6.2351
6.05591
5.83392
5.57447
5.28339
4.96748
4.631
4.27603
3.90563
3.52518
3.14196
2.76423
2.40028
2.05735
1.74103
1.45496
1.20089
0.979104
0.788854
0.62881
0.497373
0.392808
0.313207
0.25637
0.21993
0.201124
0.195821
0.198486
0.203307
0.204905
0.199156
0.183907
0.159404
0.12826
0.0949053
0.0645855
0.0419127
0.0311447
0.0346663
0.049184
0.0675943
0.0813728
0.0830772
0.0685326
0.0380371
-0.00370483
-0.0488384
-0.0883873
-0.115685
-0.127954
-0.123486
-0.103019
-0.0709728
-0.0340221
0.000267029
0.0247486
0.0338295
0.0242123
-0.00478096
-0.0512989
-0.111375
-0.179546
-0.249576
-0.315293
-0.371902
-0.416401
-0.446519
-0.46144
-0.460723
-0.446876
-0.42495
-0.400454
-0.378077
-0.360616
-0.34845
-0.339699
-0.330993
-0.318564
-0.299776
-0.273874
-0.241072
-0.202488
-0.161296
-0.122511
-0.0911991
-0.0713699
-0.0652016
-0.0729206
-0.093383
-0.125094
-0.16717
-0.219482
-0.281899
-0.354444
-0.435598
-0.521828
-0.607071
-0.683955
-0.745243
-0.78522
-0.800593
-0.790695
-0.757121
-0.703103
-0.633522
-0.554171
-0.469587
-0.384182
-0.301857
-0.225491
-0.15647
-0.0949093
-0.04366
0
0.389737
1.1833
2.37965
3.8601
5.31122
6.21435
5.98621
4.26593
1.19378
-2.52385
-5.85751
-7.89913
-8.24972
-7.13035
-5.18233
-3.11153
-1.40092
-0.220955
0.484398
0.815769
0.908482
0.992959
1.0727
1.14745
1.21774
1.28523
1.35291
1.42525
1.50788
1.60681
1.72735
1.87273
2.04445
2.24729
2.47118
2.68787
2.86834
2.99249
3.05642
3.07473
3.0768
3.09857
3.17245
3.31408
3.51009
3.74556
4.01157
4.30055
4.60406
4.91335
5.21971
5.51488
5.79075
6.03962
6.2554
6.43432
6.57486
6.67762
6.74493
6.77995
6.78555
6.76307
6.71102
6.62647
6.50468
6.34032
6.129
5.86886
5.56175
5.21377
4.83507
4.43965
4.04142
3.65287
3.28471
2.94493
2.63726
2.36157
2.1146
1.891
1.68477
1.49041
1.30394
1.12352
0.949756
0.787155
0.642877
0.524196
0.437354
0.385412
0.366833
0.375376
0.401497
0.43487
0.467142
0.494251
0.516099
0.535724
0.557422
0.584605
0.61788
0.655378
0.692933
0.725361
0.747973
0.75785
0.75455
0.740164
0.718835
0.69594
0.676803
0.665577
0.665893
0.682072
0.713889
0.751296
0.780918
0.790497
0.773438
0.731613
0.675137
0.619079
0.578397
0.562459
0.567926
0.5892
0.620578
0.65344
0.678606
0.688698
0.679616
0.65131
0.607753
0.556108
0.505263
0.464041
0.439263
0.43324
0.444732
0.471317
0.510248
0.557641
0.608786
0.657674
0.695949
0.715711
0.710713
0.67793
0.61916
0.541704
0.457461
0.380323
0.322587
0.291609
0.283858
0.295086
0.317639
0.342399
0.360791
0.366117
0.354295
0.324037
0.276626
0.215858
0.146292
0.0729713
0.000535774
-0.0675653
-0.129615
-0.185937
-0.237356
-0.285102
-0.330226
-0.371959
-0.388243
0
0.783111
1.91071
3.31449
4.86199
6.26397
7.05322
6.7239
5.00062
2.06856
-1.4101
-4.53746
-6.55382
-7.13215
-6.44153
-4.97836
-3.29472
-1.78326
-0.607202
0.241567
0.77582
0.888919
0.97602
1.04961
1.11292
1.17189
1.23354
1.30394
1.38647
1.48005
1.58138
1.6872
1.7942
1.89967
2.00187
2.09989
2.19311
2.28083
2.3627
2.43864
2.50952
2.57765
2.64712
2.72345
2.81287
2.92129
3.05315
3.20918
3.38844
3.5892
3.80821
4.04081
4.28129
4.52325
4.75997
4.98491
5.1912
5.37047
5.51351
5.61499
5.6705
5.67615
5.62917
5.52841
5.37484
5.17133
4.92217
4.63249
4.31218
3.97058
3.61423
3.24904
2.88159
2.51876
2.16709
1.83206
1.51743
1.22496
0.954479
0.704418
0.472586
0.257005
0.0565509
-0.128753
-0.297852
-0.449115
-0.580789
-0.69114
-0.779861
-0.848474
-0.89948
-0.935806
-0.960221
-0.974907
-0.98127
-0.97997
-0.971081
-0.954353
-0.929336
-0.895703
-0.853594
-0.802746
-0.744685
-0.685454
-0.63285
-0.594252
-0.574295
-0.573376
-0.587771
-0.611366
-0.638111
-0.664026
-0.688265
-0.711441
-0.73446
-0.758098
-0.782608
-0.807608
-0.832131
-0.854778
-0.873833
-0.886863
-0.89159
-0.886086
-0.86933
-0.84169
-0.805116
-0.762911
-0.71916
-0.678008
-0.642775
-0.615976
-0.599053
-0.592319
-0.59472
-0.604235
-0.617674
-0.630769
-0.638541
-0.635946
-0.61872
-0.584848
-0.531882
-0.458532
-0.372121
-0.285881
-0.213053
-0.163029
-0.138788
-0.136652
-0.14848
-0.165353
-0.181077
-0.194355
-0.206811
-0.220478
-0.23685
-0.255848
-0.275546
-0.292768
-0.304346
-0.307903
-0.30338
-0.296405
-0.295206
-0.307512
-0.337305
-0.382841
-0.436768
-0.488326
-0.526701
-0.544826
-0.544141
-0.525568
-0.491721
-0.446306
-0.393402
-0.335066
-0.268559
0
0.582429
1.59813
3.05669
4.70801
6.03251
6.41183
5.42172
3.07452
-0.136926
-3.41967
-5.98566
-7.31598
-7.27713
-6.08477
-4.17989
-2.08903
-0.295547
0.873278
1.3242
1.1818
1.10429
1.05641
1.0532
1.10365
1.20237
1.33374
1.4894
1.66228
1.84066
2.00874
2.15328
2.2666
2.34852
2.40684
2.45574
2.51213
2.59092
2.70084
2.83897
2.99562
3.1633
3.33679
3.51215
3.68737
3.86255
4.03954
4.22135
4.41139
4.61289
4.82859
5.06041
5.30926
5.57483
5.85743
6.15817
6.47102
6.77561
7.04592
7.25814
7.39548
7.45003
7.42103
7.31163
7.12636
6.87117
6.55936
6.21028
5.84119
5.46569
5.09296
4.72783
4.37342
4.03197
3.70479
3.3928
3.09705
2.81899
2.56033
2.32264
2.107
1.91386
1.74077
1.58291
1.43476
1.29172
1.15213
1.01938
0.902636
0.814526
0.76636
0.763459
0.802499
0.871828
0.954516
1.03284
1.09372
1.13239
1.14652
1.13787
1.11135
1.07379
1.03313
0.996238
0.968644
0.9547
0.957213
0.979486
1.02114
1.07446
1.12904
1.1743
1.20177
1.20681
1.18904
1.15168
1.10007
1.04001
0.976723
0.91331
0.851312
0.791418
0.733903
0.679009
0.627269
0.579719
0.537977
0.504161
0.480621
0.469524
0.472874
0.493248
0.53161
0.579836
0.622112
0.641146
0.623428
0.564038
0.469055
0.3544
0.241336
0.150236
0.0901466
0.0588051
0.0552097
0.0747212
0.11086
0.157173
0.208267
0.26081
0.312964
0.363106
0.408413
0.443548
0.461847
0.456035
0.420613
0.354259
0.261199
0.150867
0.0358395
-0.0712723
-0.161908
-0.23562
-0.293163
-0.336376
-0.368988
-0.39636
-0.423882
-0.455727
-0.494112
-0.538996
-0.588266
-0.638337
-0.684987
-0.723972
-0.739907
-0.518184
0
0.786311
1.94408
3.4511
5.04358
6.22101
6.41354
5.25085
2.78459
-0.471759
-3.71859
-6.17473
-7.3584
-7.21594
-6.06504
-4.413
-2.75251
-1.41746
-0.531616
-0.041909
0.151212
0.300427
0.441105
0.574181
0.698783
0.814556
0.921679
1.02095
1.11382
1.20227
1.28859
1.37514
1.46406
1.55699
1.65499
1.75851
1.86758
1.98198
2.10139
2.22548
2.35387
2.48611
2.62172
2.76034
2.902
3.04738
3.19802
3.35622
3.5249
3.70711
3.90559
4.12212
4.35713
4.60925
4.87522
5.15055
5.42805
5.69328
5.92748
6.11343
6.23736
6.29072
6.27028
6.17649
6.01121
5.77617
5.47361
5.11891
4.72966
4.31856
3.89644
3.47402
3.06102
2.66485
2.29022
1.93885
1.61004
1.30158
1.01093
0.736068
0.476076
0.231247
0.00294762
-0.206442
-0.392947
-0.550184
-0.671211
-0.75201
-0.789318
-0.781828
-0.731535
-0.644526
-0.526406
-0.394079
-0.26965
-0.173161
-0.118479
-0.110737
-0.14587
-0.212175
-0.293335
-0.372056
-0.433881
-0.472018
-0.486327
-0.478678
-0.450691
-0.404316
-0.341641
-0.265758
-0.183694
-0.105864
-0.0423504
-0.000838852
0.0150782
0.00650368
-0.0216389
-0.0627035
-0.110811
-0.162621
-0.217188
-0.274949
-0.335879
-0.397882
-0.455985
-0.502597
-0.523736
-0.482245
-0.335514
-0.120725
0.0894529
0.221661
0.229871
0.109875
-0.101459
-0.339187
-0.531312
-0.623438
-0.636828
-0.60919
-0.56082
-0.501271
-0.437423
-0.374731
-0.316686
-0.264804
-0.21905
-0.178503
-0.142176
-0.108867
-0.0775188
-0.0470404
-0.016157
0.0164717
0.0518057
0.0903322
0.129414
0.163096
0.183973
0.185794
0.165988
0.126964
0.0755924
0.0211172
-0.0276068
-0.0658623
-0.0935789
-0.112142
-0.123448
-0.130174
-0.13531
-0.141659
-0.151475
-0.166264
-0.186703
-0.212639
-0.243103
-0.276343
-0.30993
-0.340639
-0.364991
-0.379801
-0.382786
-0.369169
-0.318858
0
0.452086
1.1722
2.38218
4.10839
5.97088
7.2224
7.07664
5.15244
1.74724
-2.245
-5.72127
-7.82956
-8.25681
-7.24044
-5.3633
-3.27474
-1.46752
-0.175335
0.603477
0.930406
1.05142
1.16866
1.28547
1.40304
1.52123
1.63848
1.75209
1.85882
1.95554
2.03997
2.11125
2.17022
2.2195
2.26328
2.30703
2.35697
2.41958
2.50089
2.60573
2.73684
2.89417
3.0781
3.28713
3.50497
3.71438
3.9028
4.06682
4.21362
4.35836
4.51856
4.70742
4.92839
5.16903
5.41842
5.66604
5.9023
6.12055
6.31808
6.49557
6.64958
6.77426
6.86546
6.90665
6.87413
6.74835
6.52434
6.21552
5.84871
5.45338
5.05113
4.65016
4.25128
3.85475
3.46118
3.07241
2.69184
2.32427
1.97528
1.65039
1.35431
1.09044
0.860746
0.665879
0.505756
0.379152
0.28426
0.220467
0.185675
0.174307
0.178891
0.19119
0.203089
0.207338
0.199043
0.176431
0.141158
0.0980247
0.0540148
0.0167317
-0.00748644
-0.0141362
-0.0013588
0.0238486
0.0513532
0.0719317
0.0809035
0.0797369
0.0749338
0.0747874
0.0855722
0.107824
0.137179
0.169653
0.200694
0.22636
0.244017
0.25242
0.25133
0.241014
0.222022
0.195147
0.16185
0.124638
0.0871614
0.0538773
0.0293353
0.0173012
0.0190242
0.0348333
0.0632042
0.100886
0.14354
0.184695
0.216227
0.230326
0.220752
0.18408
0.120514
0.0339489
-0.068797
-0.179313
-0.289037
-0.391385
-0.482184
-0.557309
-0.61406
-0.650939
-0.667699
-0.665384
-0.646316
-0.613938
-0.572553
-0.526951
-0.482054
-0.44296
-0.413704
-0.396804
-0.39291
-0.400749
-0.417481
-0.439449
-0.463139
-0.486049
-0.50726
-0.527216
-0.547105
-0.568389
-0.592256
-0.619185
-0.648702
-0.679357
-0.708944
-0.735031
-0.755279
-0.767809
-0.770927
-0.764871
-0.751684
-0.733706
-0.712365
-0.687247
-0.655888
-0.614459
-0.559115
-0.487507
-0.399409
-0.282166
0
0.409859
1.17265
2.49426
4.29265
6.08136
7.10457
6.68415
4.59186
1.2249
-2.52663
-5.64777
-7.40206
-7.57147
-6.44637
-4.61688
-2.69934
-1.12981
-0.0901796
0.446458
0.584441
0.636697
0.69878
0.771142
0.858075
0.962436
1.08518
1.22561
1.38175
1.55031
1.72764
1.90683
2.07821
2.23257
2.36334
2.46853
2.55196
2.62318
2.69591
2.78534
2.90449
3.05714
3.24186
3.45459
3.68844
3.93425
4.18175
4.42109
4.64434
4.8465
5.02606
5.18484
5.32745
5.46032
5.59064
5.72557
5.87315
6.04445
6.25149
6.4919
6.73618
6.94536
7.08356
7.12571
7.06121
6.89317
6.63405
6.30023
5.9083
5.48226
5.0426
4.60074
4.16256
3.73226
3.31363
2.90956
2.52216
2.15296
1.80334
1.47493
1.16982
0.890553
0.639691
0.419279
0.231417
0.0773804
-0.0469238
-0.149173
-0.238018
-0.321078
-0.403093
-0.484855
-0.563274
-0.63258
-0.686296
-0.720538
-0.730008
-0.714389
-0.682299
-0.647647
-0.624984
-0.62581
-0.655812
-0.713666
-0.791547
-0.877038
-0.955785
-1.01585
-1.05174
-1.06176
-1.0358
-0.956043
-0.82309
-0.676659
-0.566281
-0.536039
-0.608179
-0.773171
-0.991878
-1.20953
-1.37501
-1.47206
-1.5241
-1.53974
-1.52275
-1.47932
-1.41705
-1.34386
-1.26764
-1.19507
-1.13108
-1.07871
-1.03951
-1.01434
-1.00427
-1.01123
-1.03808
-1.08786
-1.16242
-1.27008
-1.41021
-1.55763
-1.67946
-1.74486
-1.73467
-1.64712
-1.49806
-1.31605
-1.13438
-0.98097
-0.862161
-0.78312
-0.743277
-0.73604
-0.750604
-0.77419
-0.794191
-0.801608
-0.792245
-0.763856
-0.711814
-0.632038
-0.528688
-0.418672
-0.322293
-0.257919
-0.237199
-0.262006
-0.324096
-0.407445
-0.49241
-0.560407
-0.602757
-0.62024
-0.616415
-0.59144
-0.548766
-0.498624
-0.456833
-0.439539
-0.460024
-0.525808
-0.636854
-0.785514
-0.95833
-1.13918
-1.31292
-1.38589
-0.853648
0
1.18539
2.78647
4.74844
6.72603
8.0792
8.11496
6.46674
3.36059
-0.426076
-3.89658
-6.24883
-7.13761
-6.68656
-5.3195
-3.54811
-1.81267
-0.399746
0.576978
0.964791
1.10988
1.23736
1.35113
1.45324
1.54645
1.63403
1.71936
1.80562
1.89543
1.99058
2.09194
2.19932
2.31164
2.42723
2.54417
2.66078
2.77624
2.89087
3.00614
3.12429
3.24772
3.37841
3.51749
3.66516
3.82115
3.98529
4.1578
4.33925
4.53032
4.73116
4.94089
5.15725
5.37679
5.59543
5.8093
6.01539
6.21151
6.39466
6.5605
6.70419
6.81952
6.89577
6.92067
6.88413
6.78072
6.60974
6.37365
6.07626
5.72442
5.33237
4.91404
4.48113
4.04395
3.61238
3.19657
2.8062
2.44951
2.13241
1.85805
1.62699
1.4365
1.28015
1.14939
1.03476
0.92705
0.818486
0.703683
0.579157
0.444338
0.308819
0.19047
0.109011
0.0800533
0.109835
0.192397
0.310299
0.4388
0.552291
0.633831
0.674526
0.676506
0.651728
0.618158
0.594436
0.594563
0.620154
0.667729
0.731272
0.797013
0.85013
0.878945
0.878
0.849402
0.802124
0.749358
0.704611
0.67758
0.670485
0.680524
0.695789
0.701886
0.68731
0.647548
0.586383
0.514156
0.444022
0.387854
0.349086
0.325784
0.317104
0.32224
0.336034
0.350538
0.358583
0.35584
0.342238
0.322145
0.303166
0.293921
0.301617
0.328332
0.371442
0.428252
0.495952
0.570526
0.645463
0.710161
0.753407
0.765114
0.7391
0.676212
0.586268
0.487328
0.401686
0.349509
0.341761
0.368973
0.418662
0.480602
0.543374
0.596833
0.634012
0.652025
0.651861
0.63729
0.613331
0.584917
0.555594
0.527185
0.500241
0.47439
0.448812
0.422626
0.395084
0.365543
0.333312
0.297261
0.256247
0.209521
0.157359
0.101811
0.0471384
0
-0.0400991
-0.0577888
-0.0483963
-0.00364475
0.104707
0.479429
0.88605
1.4629
2.49448
4.08447
5.9176
7.25958
7.2763
5.51234
2.22159
-1.68397
-5.05328
-7.02438
-7.34724
-6.35477
-4.67522
-2.90956
-1.44802
-0.451282
0.0884352
0.272068
0.472319
0.675394
0.879883
1.08359
1.28161
1.46574
1.62734
1.7597
1.86015
1.93153
1.98232
2.02502
2.07328
2.13841
2.22645
2.33462
2.45814
2.58763
2.71376
2.83066
2.93815
3.0421
3.15258
3.28058
3.43432
3.61523
3.81691
4.03146
4.25096
4.46766
4.67563
4.87185
5.05661
5.23293
5.40538
5.57864
5.75744
5.94151
6.11884
6.27108
6.37958
6.43062
6.41766
6.34018
6.20058
6.00118
5.74315
5.43645
5.09122
4.71547
4.31665
3.90288
3.48246
3.063
2.65174
2.25541
1.87991
1.5302
1.21012
0.922407
0.668637
0.449121
0.262982
0.108316
-0.0175091
-0.117426
-0.194
-0.249318
-0.285601
-0.304895
-0.309258
-0.301093
-0.282676
-0.257773
-0.230264
-0.20351
-0.179782
-0.159978
-0.143734
-0.129798
-0.116501
-0.102101
-0.08494
-0.0634808
-0.0364174
-0.00295868
0.0367485
0.0815422
0.128349
0.172942
0.211047
0.239517
0.25719
0.265069
0.265791
0.262652
0.258622
0.255637
0.254553
0.255799
0.259616
0.266307
0.276334
0.290241
0.308441
0.330917
0.357075
0.38555
0.414032
0.439245
0.457617
0.465878
0.461705
0.444262
0.414513
0.375227
0.330702
0.28623
0.247352
0.218592
0.203712
0.205102
0.223368
0.257247
0.30381
0.358949
0.41805
0.476705
0.531442
0.580022
0.621221
0.654796
0.681771
0.704201
0.724949
0.747462
0.775369
0.811863
0.860012
0.923105
0.997018
1.06983
1.12697
1.1556
1.14857
1.10623
1.03545
0.946843
0.851401
0.757787
0.670038
0.58993
0.518664
0.456986
0.40506
0.36247
0.327991
0.299353
0.273635
0.247728
0.218844
0.185003
0.145366
0.100338
0.0514469
0
-0.0236797
0.228195
0.996516
2.45808
4.47141
6.45506
7.53753
6.96077
4.52408
0.777963
-3.1847
-6.22835
-7.66615
-7.46738
-6.1138
-4.26112
-2.43718
-0.92094
0.212139
0.985205
1.30146
1.43507
1.55021
1.65084
1.7381
1.81472
1.885
1.95454
2.02959
2.11621
2.21928
2.34166
2.48364
2.64235
2.81329
2.99125
3.17086
3.34743
3.51759
3.67957
3.83332
3.98022
4.12281
4.26439
4.4086
4.55902
4.71881
4.89029
5.07465
5.27173
5.48005
5.69704
5.91945
6.14385
6.367
6.58598
6.79706
6.99427
7.16962
7.3154
7.42236
7.48173
7.48763
7.43837
7.33595
7.18391
6.98444
6.73844
6.44985
6.12187
5.75689
5.35809
4.93042
4.48151
4.02229
3.56606
3.12699
2.71842
2.35148
2.03411
1.77153
1.56463
1.41125
1.30762
1.25081
1.23462
1.24902
1.28212
1.32118
1.35371
1.36957
1.36227
1.32973
1.27457
1.20383
1.12797
1.0591
1.00878
0.984075
0.98517
1.01584
1.07636
1.15385
1.22843
1.28109
1.29868
1.27712
1.22196
1.14613
1.06599
0.996879
0.946973
0.916019
0.901738
0.902276
0.915519
0.936855
0.958176
0.969913
0.962713
0.929019
0.864616
0.769755
0.64959
0.513773
0.375259
0.247715
0.141645
0.0790623
0.103694
0.239451
0.431655
0.606367
0.698262
0.674318
0.545053
0.359195
0.183298
0.0744999
0.0497341
0.0744293
0.123824
0.187286
0.258731
0.332168
0.39923
0.451605
0.482282
0.487099
0.46651
0.426643
0.378779
0.336969
0.314355
0.318843
0.346466
0.395529
0.457678
0.522259
0.578888
0.619669
0.640493
0.641282
0.625308
0.598018
0.56582
0.534404
0.50756
0.487696
0.476234
0.472165
0.47144
0.468737
0.458831
0.437978
0.404893
0.361005
0.309946
0.256461
0.205083
0.158598
0.117955
0.083001
0.0527538
0.0256111
0
-0.0231293
0.0411514
0.53656
1.69278
3.52903
5.72235
7.61722
8.42224
7.55613
4.97206
1.2579
-2.58068
-5.54716
-7.04262
-7.01172
-5.81861
-3.99634
-2.0397
-0.308778
0.98568
1.77136
1.85619
1.85359
1.84697
1.84841
1.8697
1.91978
2.00249
2.11166
2.23865
2.37548
2.51468
2.6497
2.77584
2.89085
2.99494
3.09039
3.1807
3.26986
3.36156
3.45874
3.5635
3.67711
3.80028
3.93339
4.07659
4.22977
4.39247
4.56376
4.74227
4.92645
5.11488
5.30672
5.50198
5.70161
5.90738
6.12166
6.34867
6.59756
6.8873
7.24169
7.64718
8.04118
8.35857
8.53775
8.52959
8.30907
7.88465
7.30081
6.63546
5.99827
5.45579
4.9795
4.54167
4.13573
3.76382
3.42679
3.12425
2.85462
2.61608
2.40582
2.21933
2.05228
1.90146
1.76546
1.64551
1.54433
1.46555
1.41237
1.38664
1.38719
1.40973
1.44738
1.49216
1.53328
1.55868
1.55883
1.5281
1.4662
1.37886
1.27734
1.17632
1.09077
1.03256
1.00264
1.00113
1.02596
1.07257
1.13474
1.20569
1.27717
1.33858
1.37995
1.39367
1.37662
1.3313
1.26544
1.18967
1.11429
1.04624
0.986026
0.932567
0.88373
0.837503
0.793009
0.750788
0.712321
0.679165
0.651867
0.629811
0.611905
0.596587
0.58227
0.567705
0.552137
0.53525
0.517035
0.497573
0.476851
0.454778
0.43129
0.406557
0.38122
0.35659
0.334886
0.319079
0.312245
0.316903
0.334251
0.363634
0.402688
0.447073
0.49166
0.531543
0.562877
0.583285
0.591748
0.588129
0.572581
0.545385
0.507109
0.457773
0.397803
0.328523
0.252423
0.173171
0.0953705
0.0239201
-0.0365643
-0.082222
-0.109677
-0.116522
-0.103974
-0.0778576
-0.0462463
-0.0178753
-0.000584793
0
-0.00735397
-0.0333431
-0.0744316
-0.125035
-0.178532
-0.228855
-0.27142
-0.298502
-0.248296
0.141745
0.795391
1.83614
3.34861
5.20646
6.95009
7.85447
7.24282
4.89423
1.27228
-2.62376
-5.72257
-7.36583
-7.514
-6.58769
-5.12208
-3.49974
-1.90265
-0.425818
0.808855
1.64282
1.69072
1.6002
1.49294
1.39473
1.33359
1.33214
1.39095
1.48978
1.61604
1.76244
1.92184
2.0867
2.24951
2.40384
2.54479
2.66933
2.77629
2.86584
2.93983
3.00191
3.05714
3.11203
3.17449
3.25337
3.35773
3.49551
3.67216
3.88872
4.14215
4.42476
4.72489
5.02872
5.32055
5.58634
5.81555
6.00198
6.14364
6.24156
6.2982
6.3158
6.29526
6.23784
6.14257
6.0078
5.83292
5.61922
5.37014
5.09096
4.78809
4.46855
4.13774
3.7998
3.45767
3.11356
2.76956
2.42821
2.09299
1.76835
1.4595
1.17181
0.910206
0.678366
0.47823
0.309942
0.172054
0.0607182
-0.0294104
-0.103765
-0.166852
-0.221494
-0.268548
-0.307171
-0.335572
-0.351969
-0.354825
-0.344572
-0.324164
-0.298276
-0.27198
-0.249519
-0.233333
-0.223611
-0.21844
-0.214437
-0.207626
-0.194388
-0.172314
-0.140429
-0.0987065
-0.0478353
0.0108027
0.0747036
0.138049
0.192296
0.227945
0.236297
0.211457
0.151974
0.0616329
-0.0508483
-0.17306
-0.290909
-0.393277
-0.466981
-0.473302
-0.333477
-0.0405407
0.303627
0.580391
0.695868
0.612079
0.356267
0.00719299
-0.331643
-0.562886
-0.677269
-0.732889
-0.761331
-0.772034
-0.773108
-0.771941
-0.773942
-0.781739
-0.795022
-0.811018
-0.825427
-0.8336
-0.831938
-0.818051
-0.790099
-0.746621
-0.686622
-0.608842
-0.506862
-0.367665
-0.197636
-0.0294667
0.0954654
0.145134
0.115002
0.0337613
-0.0492838
-0.0894371
-0.0697216
-0.0208148
0.0341975
0.0753521
0.0888891
0.0705155
0.024718
-0.0386382
-0.10831
-0.175114
-0.234962
-0.285825
-0.326176
-0.355141
-0.372739
-0.379794
-0.377634
-0.367951
-0.352398
-0.332256
-0.3082
-0.280157
-0.246236
-0.196178
0
0.494504
1.22761
2.26422
3.64896
5.24515
6.60529
7.0476
5.97284
3.25604
-0.554419
-4.40202
-7.18312
-8.23729
-7.58654
-5.81401
-3.69915
-1.84984
-0.523822
0.321589
0.855621
1.05542
1.18288
1.2911
1.37828
1.44609
1.49959
1.54648
1.59581
1.6564
1.73514
1.83504
1.95598
2.09626
2.25303
2.42217
2.5988
2.77786
2.9547
3.12563
3.28837
3.4424
3.5891
3.73162
3.8746
4.02355
4.18417
4.36155
4.55944
4.77971
5.02201
5.28383
5.56072
5.84681
6.13545
6.41873
6.68632
6.9256
7.12529
7.27726
7.37529
7.41547
7.39651
7.31949
7.18705
7.0021
6.76664
6.48429
6.16124
5.80344
5.41533
5.00037
4.56301
4.10979
3.64922
3.19127
2.74655
2.32521
1.93585
1.58523
1.27918
1.01723
0.794521
0.604014
0.438282
0.291078
0.158296
0.0381127
-0.0695662
-0.164031
-0.245522
-0.313963
-0.36992
-0.41444
-0.448786
-0.474176
-0.49136
-0.501037
-0.503513
-0.498698
-0.486224
-0.465736
-0.437121
-0.400298
-0.358399
-0.318655
-0.290118
-0.281471
-0.298521
-0.342291
-0.408371
-0.487725
-0.568644
-0.639541
-0.69362
-0.728606
-0.742778
-0.736815
-0.713211
-0.676219
-0.630724
-0.581033
-0.530226
-0.480084
-0.431631
-0.386702
-0.349798
-0.328253
-0.331744
-0.36914
-0.444587
-0.55451
-0.686919
-0.82338
-0.942997
-1.03023
-1.07757
-1.08031
-1.04027
-0.965254
-0.866502
-0.759019
-0.657449
-0.573685
-0.515207
-0.484416
-0.478913
-0.492464
-0.516307
-0.540523
-0.556466
-0.557824
-0.540017
-0.500426
-0.43924
-0.359308
-0.263686
-0.157847
-0.050803
0.0471331
0.126687
0.180939
0.206257
0.202706
0.173869
0.126091
0.0672705
0.00544434
-0.0530695
-0.104634
-0.147666
-0.182131
-0.209289
-0.231058
-0.249448
-0.266233
-0.282885
-0.300686
-0.32082
-0.344298
-0.371732
-0.403
-0.43704
-0.471898
-0.505088
-0.534141
-0.557215
-0.566519
-0.415008
0
0.805432
2.12392
3.86918
5.67618
6.96402
7.14066
5.87047
3.27306
-0.0701143
-3.32952
-5.75683
-6.94881
-6.91572
-5.9622
-4.49776
-2.89793
-1.44882
-0.330747
0.395997
0.688633
0.761769
0.824692
0.88577
0.949816
1.02151
1.10469
1.20167
1.31289
1.43668
1.57049
1.71179
1.85814
2.00743
2.15784
2.30755
2.45435
2.59567
2.72922
2.85378
2.97011
3.08169
3.19477
3.31775
3.45982
3.62926
3.83077
4.0648
4.32871
4.61672
4.92004
5.22787
5.52874
5.81149
6.06659
6.28726
6.4695
6.61186
6.71473
6.77934
6.80679
6.79716
6.7493
6.66089
6.52908
6.35144
6.12702
5.8573
5.54662
5.20214
4.83361
4.45156
4.06619
3.68671
3.32056
2.97332
2.64888
2.35004
2.07894
1.83738
1.62725
1.4542
1.32558
1.23475
1.16937
1.1156
1.06206
1.00326
0.940841
0.882419
0.838428
0.818462
0.822215
0.846616
0.890239
0.950596
1.02291
1.09931
1.17105
1.23037
1.2717
1.29244
1.29316
1.27713
1.24941
1.21569
1.18142
1.15089
1.12706
1.11223
1.10882
1.11845
1.14188
1.17865
1.22688
1.28324
1.34283
1.40024
1.45042
1.48943
1.51486
1.52594
1.52338
1.50921
1.4869
1.46027
1.43347
1.41068
1.39579
1.39262
1.40234
1.42063
1.44014
1.45296
1.4533
1.43952
1.41476
1.38583
1.36087
1.34645
1.34431
1.35401
1.37037
1.38668
1.39724
1.39938
1.39401
1.38456
1.37504
1.36822
1.36456
1.36367
1.36558
1.37181
1.38592
1.4131
1.45874
1.53086
1.63907
1.77123
1.90021
1.9963
2.03786
2.01837
1.94713
1.84368
1.72937
1.62043
1.52253
1.43495
1.35741
1.29139
1.23843
1.20001
1.17708
1.16962
1.1763
1.19449
1.22047
1.25008
1.27883
1.30289
1.31966
1.3282
1.32926
1.3201
1.25158
1.57062
2.48609
3.99373
5.78937
7.28255
7.76271
6.69576
4.03144
77
260
443
625
808
989
1165
1341
1517
1696
1874
2059
2247
2436
2625
2811
2998
3184
3373
3561
3534
3704
0
0
0
0
0
0
0
0
0
0
0
0
0
0
0
0
0
0
0
0
0
0
0
0
0
0
0
0
0
0
0
0
0
0
0
0
0
0
0
0
0
0
0
0
0
0
0
0
0
0
0
0
0
0
0
0
0
0
0
0
0
0
0
0
0
0
0
0
0
0
0
0
0
0
0
0
0
0
0
0
0
0
0
0
0
0
0
0
0
0
0
0
0
0
0
0
0
0
0
0
0
0
0
0
0
0
0
0
0
0
0
0
0
0
0
0
0
0
0
0
0
0
0
0
0
0
0
0
0
0
0
0
0
0
0
0
0
0
0
0
0
0
0
0
0
0
0
0
0
0
0
0
0
0
0
0
0
0
0
0
0
0
0
0
0
0
0
0
0
0
0
0
0
0
0
0
0
0
0
0
0
0
0
0
0
0
0
0
0
0
0
0
0
0
0
0
0
0
0
0
0
0
0
0
0
0
0
0
0
0
0
0
0
0
0
0
0
0
0
0
0
0
0
0
0
0
0
0
0
0
0
0
0
0
0
0
0
0
0
0
0
0
0
0
0
0
0
0
0
0
0
0
0
0
0
0
0
0
0
0
0
0
0
0
0
0
0
0
0
0
0
0
0
0
0
0
0
0
0
0
0
0
0
0
0
0
0
0
0
0
0
0
0
0
0
0
0
0
0
0
0
0
0
0
0
0
0
0
0
0
0
0
0
0
0
0
0
0
0
0
0
0
0
0
0
0
0
0
0
0
0
0
0
0
0
0
0
0
0
0
0
0
0
0
0
0
0
0
0
0
0
0
0
0
0
0
0
0
0
0
0
0
0
0
0
0
0
0
0
0
0
0
0
0
0
0
0
0
0
0
0
0
0
0
0
0
0
0
0
0
0
0
0
0
0
0
0
0
0
0
0
0
0
0
0
0
0
0
0
0
0
0
0
0
0
0
0
0
0
0
0
0
0
0
0
0
0
0
0
0
0
0
0
0
0
0
0
0
0
0
0
0
0
0
0
0
0
0
0
0
0
0
0
0
0
0
0
0
0
0
0
0
0
0
0
0
0
0
0
0
0
0
0
0
0
0
0
0
0
0
0
0
0
0
0
0
0
0
0
0
0
0
0
0
0
0
0
0
0
0
0
0
0
0
0
0
0
0
0
0
0
0
0
0
0
0
0
0
0
0
0
0
0
0
0
0
0
0
0
0
0
0
0
0
0
0
0
0
0
0
0
0
0
0
0
0
0
0
0
0
0
0
0
0
0
0
0
0
0
0
0
0
0
0
0
0
0
0
0
0
0
0
0
0
0
0
0
0
0
0
0
0
0
0
0
0
0
0
0
0
0
0
0
0
0
0
0
0
0
0
0
0
0
0
0
0
0
0
0
0
0
0
0
0
0
0
0
0
0
0
0
0
0
0
0
0
0
0
0
0
0
0
0
0
0
0
0
0
0
0
0
0
0
0
0
0
0
0
0
0
0
0
0
0
0
0
0
0
0
0
0
0
0
0
0
0
0
0
0
0
0
0
0
0
0
0
0
0
0
0
0
0
0
0
0
0
0
0
0
0
0
0
0
0
0
0
0
0
0
0
0
0
0
0
0
0
0
0
0
0
0
0
0
0
0
0
0
0
0
0
0
0
0
0
0
0
0
0
0
0
0
0
0
0
0
0
0
0
0
0
0
0
0
0
0
0
0
0
0
0
0
0
0
0
0
0
0
0
0
0
0
0
0
0
0
0
0
0
0
0
0
0
0
0
0
0
0
0
0
0
0
0
0
0
0
0
0
0
0
0
0
0
0
0
0
0
0
0
0
0
0
0
0
0
0
0
0
0
0
0
0
0
0
0
0
0
0
0
0
0
0
0
0
0
0
0
0
0
0
0
0
0
0
0
0
0
0
0
0
0
0
0
0
0
0
0
0
0
0
0
0
0
0
0
0
0
0
0
0
0
0
0
0
0
0
0
0
0
0
0
0
0
0
0
0
0
0
0
0
0
0
0
0
0
0
0
0
0
0
0
0
0
0
0
0
0
0
0
0
0
0
0
0
0
0
0
0
0
0
0
0
0
0
0
0
0
0
0
0
0
0
0
0
0
0
0
0
0
0
0
0
0
0
0
0
0
0
0
0
0
0
0
0
0
0
0
0
0
0
0
0
0
0
0
0
0
0
0
0
0
0
0
0
0
0
0
0
0
0
0
0
0
0
0
0
0
0
0
0
0
0
0
0
0
0
0
0
0
0
0
0
0
0
0
0
0
0
0
0
0
0
0
0
0
0
0
0
0
0
0
0
0
0
0
0
0
0
0
0
0
0
0
0
0
0
0
0
0
0
0
0
0
0
0
0
0
0
0
0
0
0
0
0
0
0
0
0
0
0
0
0
0
0
0
0
0
0
0
0
0
0
0
0
0
0
0
0
0
0
0
0
0
0
0
0
0
0
0
0
0
0
0
0
0
0
0
0
0
0
0
0
0
0
0
0
0
0
0
0
0
0
0
0
0
0
0
0
0
0
0
0
0
0
0
0
0
0
0
0
0
0
0
0
0
0
0
0
0
0
0
0
0
0
0
0
0
0
0
0
0
0
0
0
0
0
0
0
0
0
0
0
0
0
0
0
0
0
0
0
0
0
0
0
0
0
0
0
0
0
0
0
0
0
0
0
0
0
0
0
0
0
0
0
0
0
0
0
0
0
0
0
0
0
0
0
0
0
0
0
0
0
0
0
0
0
0
0
0
0
0
0
0
0
0
0
0
0
0
0
0
0
0
0
0
0
0
0
0
0
0
0
0
0
0
0
0
0
0
0
0
0
0
0
0
0
0
0
0
0
0
0
0
0
0
0
0
0
0
0
0
0
0
0
0
0
0
0
0
0
0
0
0
0
0
0
0
0
0
0
0
0
0
0
0
0
0
0
0
0
0
0
0
0
0
0
0
0
0
0
0
0
0
0
0
0
0
0
0
0
0
0
0
0
0
0
0
0
0
0
0
0
0
0
0
0
0
0
0
0
0
0
0
0
0
0
0
0
0
0
0
0
0
0
0
0
0
0
0
0
0
0
0
0
0
0
0
0
0
0
0
0
0
0
0
0
0
0
0
0
0
0
0
0
0
0
0
0
0
0
0
0
0
0
0
0
0
0
0
0
0
0
0
0
0
0
0
0
0
0
0
0
0
0
0
0
0
0
0
0
0
0
0
0
0
0
0
0
0
0
0
0
0
0
0
0
0
0
0
0
0
0
0
0
0
0
0
0
0
0
0
0
0
0
0
0
0
0
0
0
0
0
0
0
0
0
0
0
0
0
0
0
0
0
0
0
0
0
0
0
0
0
0
0
0
0
0
0
0
0
0
0
0
0
0
0
0
0
0
0
0
0
0
0
0
0
0
0
0
0
0
0
0
0
0
0
0
0
0
0
0
0
0
0
0
0
0
0
0
0
0
0
0
0
0
0
0
0
0
0
0
0
0
0
0
0
0
0
0
0
0
0
0
0
0
0
0
0
0
0
0
0
0
0
0
0
0
0
0
0
0
0
0
0
0
0
0
0
0
0
0
0
0
0
0
0
0
0
0
0
0
0
0
0
0
0
0
0
0
0
0
0
0
0
0
0
0
0
0
0
0
0
0
0
0
0
0
0
0
0
0
0
0
0
0
0
0
0
0
0
0
0
0
0
0
0
0
0
0
0
0
0
0
0
0
0
0
0
0
0
0
0
0
0
0
0
0
0
0
0
0
0
0
0
0
0
0
0
0
0
0
0
0
0
0
0
0
0
0
0
0
0
0
0
0
0
0
0
0
0
0
0
0
0
0
0
0
0
0
0
0
0
0
0
0
0
0
0
0
0
0
0
0
0
0
0
0
0
0
0
0
0
0
0
0
0
0
0
0
0
0
0
0
0
0
0
0
0
0
0
0
0
0
0
0
0
0
0
0
0
0
0
0
0
0
0
0
0
0
0
0
0
0
0
0
0
0
0
0
0
0
0
0
0
0
0
0
0
0
0
0
0
0
0
0
0
0
0
0
0
0
0
0
0
0
0
0
0
0
0
0
0
0
0
0
0
0
0
0
0
0
0
0
0
0
0
0
0
0
0
0
0
0
0
0
0
0
0
0
0
0
0
0
0
0
0
0
0
0
0
0
0
0
0
0
0
0
0
0
0
0
0
0
0
0
0
0
0
0
0
0
0
0
0
0
0
0
0
0
0
0
0
0
0
0
0
0
0
0
0
0
0
0
0
0
0
0
0
0
0
0
0
0
0
0
0
0
0
0
0
0
0
0
0
0
0
0
0
0
0
0
0
0
0
0
0
0
0
0
0
0
0
0
0
0
0
0
0
0
0
0
0
0
0
0
0
0
0
0
0
0
0
0
0
0
0
0
0
0
0
0
0
0
0
0
0
0
0
0
0
0
0
0
0
0
0
0
0
0
0
0
0
0
0
0
0
0
0
0
0
0
0
0
0
0
0
0
0
0
0
0
0
0
0
0
0
0
0
0
0
0
0
0
0
0
0
0
0
0
0
0
0
0
0
0
0
0
0
0
0
0
0
0
0
0
0
0
0
0
0
0
0
0
0
0
0
0
0
0
0
0
0
0
0
0
0
0
0
0
0
0
0
0
0
0
0
0
0
0
0
0
0
0
0
0
0
0
0
0
0
0
0
0
0
0
0
0
0
0
0
0
0
0
0
0
0
0
0
0
0
0
0
0
0
0
0
0
0
0
0
0
0
0
0
0
0
0
0
0
0
0
0
0
0
0
0
0
0
0
0
0
0
0
0
0
0
0
0
0
0
0
0
0
0
0
0
0
0
0
0
0
0
0
0
0
0
0
0
0
0
0
0
0
0
0
0
0
0
0
0
0
0
0
0
0
0
0
0
0
0
0
0
0
0
0
0
0
0
0
0
0
0
0
0
0
0
0
0
0
0
0
0
0
0
0
0
0
0
0
0
0
0
0
0
0
0
0
0
0
0
0
0
0
0
0
0
0
0
0
0
0
0
0
0
0
0
0
0
0
0
0
0
0
0
0
0
0
0
0
0
0
0
0
0
0
0
0
0
0
0
0
0
0
0
0
0
0
0
0
0
0
0
0
0
0
0
0
0
0
0
0
0
0
0
0
0
0
0
0
0
0
0
0
0
0
0
0
0
0
0
0
0
0
0
0
0
0
0
0
0
0
0
0
0
0
0
0
0
0
0
0
0
0
0
0
0
0
0
0
0
0
0
0
0
0
0
0
0
0
0
0
0
0
0
0
0
0
0
0
0
0
0
0
0
0
0
0
0
0
0
0
0
0
0
0
0
0
0
0
0
0
0
0
0
0
0
0
0
0
0
0
0
0
0
0
0
0
0
0
0
0
0
0
0
0
0
0
0
0
0
0
0
0
0
0
0
0
0
0
0
0
0
0
0
0
0
0
0
0
0
0
0
0
0
0
0
0
0
0
0
0
0
0
0
0
0
0
0
0
0
0
0
0
0
0
0
0
0
0
0
0
0
0
0
0
0
0
0
0
0
0
0
0
0
0
0
0
0
0
0
0
0
0
0
0
0
0
0
0
0
0
0
0
0
0
0
0
0
0
0
0
0
0
0
0
0
0
0
0
0
0
0
0
0
0
0
0
0
0
0
0
0
0
0
0
0
0
0
0
0
0
0
0
0
0
0
0
0
0
0
0
0
0
0
0
0
0
0
0
0
0
0
0
0
0
0
0
0
0
0
0
0
0
0
0
0
0
0
0
0
0
0
0
0
0
0
0
0
0
0
0
0
0
0
0
0
0
0
0
0
0
0
0
0
0
0
0
0
0
0
0
0
0
0
0
0
0
0
0
0
0
0
0
0
0
0
0
0
0
0
0
0
0
0
0
0
0
0
0
0
0
0
0
0
0
0
0
0
0
0
0
0
0
0
0
0
0
0
0
0
0
0
0
0
0
0
0
0
0
0
0
0
0
0
0
0
0
0
0
0
0
0
0
0
0
0
0
0
0
0
0
0
0
0
0
0
0
0
0
0
0
0
0
0
0
0
0
0
0
0
0
0
0
0
0
0
0
0
0
0
0
0
0
0
0
0
0
0
0
0
0
0
0
0
0
0
0
0
0
0
0
0
0
0
0
0
0
0
0
0
0
0
0
0
0
0
0
0
0
0
0
0
0
0
0
0
0
0
0
0
0
0
0
0
0
0
0
0
0
0
0
0
0
0
0
0
0
0
0
0
0
0
0
0
0
0
0
0
0
0
0
0
0
0
0
0
0
0
0
0
0
0
0
0
0
0
0
0
0
0
0
0
0
0
0
0
0
0
0
0
0
0
0
0
0
0
0
0
0
0
0
0
0
0
0
0
0
0
0
0
0
0
0
0
0
0
0
0
0
0
0
0
0
0
0
0
0
0
0
0
0
0
0
0
0
0
0
0
0
0
0
0
0
0
0
0
0
0
0
0
0
0
0
0
0
0
0
0
0
0
0
0
0
0
0
0
0
0
0
0
0
0
0
0
0
0
0
0
0
0
0
0
0
0
0
0
0
0
0
0
0
0
0
0
0
0
0
0
0
0
0
0
0
0
0
0
0
0
0
0
0
0
0
0
0
0
0
0
0
0
0
0
0
0
0
0
0
0
0
0
0
0
0
0
0
0
0
0
0
0
0
0
0
0
0
0
0
0
0
0
0
0
0
0
0
0
0
0
0
0
0
0
0
0
0
0
0
0
0
0
0
0
0
0
0
0
0
0
0
0
0
0
0
0
0
0
0
0
0
0
0
0
0
0
0
0
0
0
0
0
0
0
0
0
0
0
0
0
0
0
0
0
0
0
0
0
0
0
0
0
0
0
0
0
0
0
0
0
0
0
0
0
0
0
0
0
0
0
0
0
0
0
0
0
0
0
0
0
0
0
0
0
0
0
0
0
0
0
0
0
0
0
0
0
0
0
0
0
0
0
0
0
0
0
0
0
0
0
0
0
0
0
0
0
0
0
0
0
0
0
0
0
0
0
0
0
0
0
0
0
0
0
0
0
0
0
0
0
0
0
0
0
0
0
0
0
0
0
0
0
0
0
0
0
0
0
0
0
0
0
0
0
0
0
0
0
0
0
0
0
0
0
0
0
0
0
0
0
0
0
0
0
0
0
0
0
0
0
0
0
0
0
0
0
0
0
0
0
0
0
0
0
0
0
0
0
0
0
0
0
0
0
0
0
0
0
0
0
0
0
0
0
0
0
0
0
0
0
0
0
0
0
0
0
0
0
0
0
0
0
0
0
0
0
0
0
0
0
0
0
0
0
0
0
0
0
0
0
0
0
0
0
0
0
0
0
0
0
0
0
0
0
0
0
0
0
0
0
0
0
0
0
0
0
0
0
0
0
0
0
0
0
0
0
0
0
0
0
0
0
0
0
0
0
0
0
0
0
0
0
0
0
0
0
0
0
0
0
0
0
0
0
0
0
0
0
0
0
0
0
0
0
0
0
0
0
0
0
0
0
0
0
0
0
0
0
0
0
0
0
0
0
0
0
0
0
0
0
0
0
0
0
0
0
0
0
0
0
0
0
0
0
0
0
0
0
0
0
0
0
0
0
0
0
0
0
0
0
0
0
0
0
0
0
0
0
0
0
0
0
0
0
0
0
0
0
0
0
0
0
0
0
0
0
0
0
0
0
0
0
0
0
0
0
0
0
0
0
0
0
0
0
0
0
0
0
0
0
0
0
0
0
0
0
0
0
0
0
0
0
0
0
0
0
0
0
0
0
0
0
0
0
0
0
0
0
0
0
0
0
0
0
0
0
0
0
0
0
0
0
0
0
0
0
0
0
0
0
0
0
0
0
0
0
0
0
0
0
0
0
0
0
0
0
0
0
0
0
0
0
0
0
0
0
0
0
0
0
0
0
0
0
0
0
0
0
0
0
0
0
0
0
0
0
0
0
0
0
0
0
0
0
0
0
0
0
0
0
0
0
0
0
0
0
0
0
0
0
0
0
0
0
0
0
0
0
0
0
0
0
0
0
0
0
0
0
0
0
0
0
0
0
0
0
0
0
0
0
0
0
0
0
0
0
0
0
0
0
0
0
0
0
0
0
0
0
0
0
0
0
0
0
0
0
0
0
0
0
0
0
0
0
0
0
0
0
0
0
0
0
0
0
0
0
0
0
0
0
0
0
0
0
0
0
0
0
0
0
0
0
0
0
0
0
0
0
0
0
0
0
0
0
0
0
0
0
0
0
0
0
0
0
0
0
0
0
0
0
0
0
0
0
0
0
0
0
0
0
0
0
0
0
0
0
0
0
0
0
0
0
0
0
0
0
0
0
0
0
0
0
0
0
0
0
0
0
0
0
0
0
0
0
0
0
0
0
0
0
0
0
0
0
0
0
0
0
0
0
0
0
0
0
0
0
0
0
0
0
0
0
0
0
0
0
0
0
0
0
0
0
0
0
