2.22115
2.22752
2.24348
2.26865
2.30218
2.34283
2.38929
2.44019
2.49461
2.55183
2.61141
2.67314
2.73711
2.80379
2.87389
2.94818
3.02719
3.11079
3.19794
3.28667
3.37394
3.45633
3.53076
3.59522
3.64916
3.6935
3.73022
3.76167
3.78963
3.81472
3.83583
3.85002
3.85308
3.84047
3.8083
3.75396
3.67636
3.57572
3.45327
3.3111
3.15323
2.98462
2.8098
2.63316
2.45958
2.29406
2.14115
2.00433
1.88548
1.78475
1.7007
1.63073
1.57161
1.52008
1.47326
1.42892
1.38555
1.34239
1.29925
1.25649
1.21491
1.17581
1.14087
1.11181
1.09017
1.07699
1.07249
1.076
1.08598
1.10023
1.11631
1.13185
1.14493
1.15393
1.1575
1.15427
1.14285
1.12212
1.09118
1.04971
0.998217
0.938246
0.872356
0.803928
0.736798
0.674579
0.620337
0.576538
0.545094
0.527711
0.523965
0.53062
0.543075
0.556
0.563608
0.560976
0.544848
0.514182
0.470369
0.417026
0.359374
0.303262
0.254089
0.215341
0.187635
0.171422
0.165949
0.1696
0.180179
0.195329
0.213156
0.232134
0.251146
0.269494
0.28684
0.303053
0.318068
0.331795
0.344063
0.354619
0.363215
0.369718
0.374255
0.377346
0.379978
0.383597
0.389982
0.401012
0.418319
0.443089
0.477103
0.520917
0.568849
0.612422
0.643514
0.657211
0.653707
0.638356
0.619831
0.607185
0.607082
0.618899
0.639746
0.667685
0.700953
0.737656
0.775988
0.814383
0.851525
0.886375
0.918368
0.947429
0.974035
0.99923
1.02453
1.05173
1.08265
1.11888
1.16146
1.21079
1.26702
1.33006
1.39973
1.47576
1.55697
1.63944
1.71554
1.7761
1.81232
1.8177
1.78956
1.72949
1.64286
1.53772
1.42376
1.31122
1.20705
1.11502
1.03989
0.99336
0.986959
1.00897
1.03871
1.05261
1.03087
0.962263
0.845285
0.686186
0.495494
0.284948
0.0528249
0
0.490304
1.89153
4.30152
7.34051
10.1668
11.7994
11.6076
9.66763
6.73498
3.83589
1.74881
0.705651
0.457079
0.5745
0.639585
0.681653
0.717806
0.747818
0.772794
0.794218
0.814007
0.834284
0.857042
0.883808
0.915383
0.951902
0.992477
1.03469
1.0748
1.10869
1.13267
1.14416
1.1423
1.12829
1.10542
1.07875
1.05447
1.03874
1.03634
1.04947
1.07751
1.12169
1.17732
1.23526
1.28691
1.32693
1.3549
1.37527
1.39553
1.42338
1.46394
1.51646
1.57643
1.63999
1.70346
1.76355
1.81845
1.8683
1.91527
1.96312
2.01643
2.07961
2.15585
2.2463
2.3491
2.46051
2.57601
2.68988
2.79655
2.89154
2.97206
3.037
3.08657
3.12046
3.13678
3.13512
3.11393
3.07126
3.00594
2.91857
2.81206
2.69128
2.56213
2.43046
2.30059
2.17501
2.05547
1.94296
1.83788
1.74019
1.64962
1.56573
1.48804
1.4161
1.34951
1.28791
1.23099
1.1785
1.12981
1.0839
1.0397
0.99634
0.953381
0.910979
0.869821
0.830922
0.795347
0.763713
0.736418
0.71368
0.69548
0.681642
0.671919
0.666056
0.663815
0.665016
0.669496
0.677057
0.687384
0.699952
0.71395
0.728238
0.741353
0.751518
0.756804
0.755494
0.746324
0.728819
0.703628
0.672769
0.639449
0.609286
0.589154
0.585693
0.603846
0.649225
0.729437
0.832037
0.935001
1.01641
1.061
1.06387
1.03041
0.973235
0.907666
0.847081
0.797042
0.755845
0.719666
0.684518
0.645514
0.597741
0.537385
0.462735
0.374821
0.277495
0.176916
0.0805669
0.00699301
0.0344595
0.284523
0.643597
0.991109
1.23219
1.29094
1.13794
0.816297
0.434988
0.127364
0.0223571
0.0789646
0.173323
0.27527
0.377483
0.475164
0.56449
0.643019
0.70979
0.765114
0.810072
0.845172
0.871696
0.890541
0.902196
0.906991
0.905345
0.897869
0.885295
0.868356
0.847791
0.824793
0.800824
0.778394
0.761708
0.756149
0.767605
0.80138
0.861114
0.948028
1.06073
1.19764
1.36477
1.56629
1.78942
2.0044
2.17872
2.28145
2.29224
2.20846
2.04677
1.83871
1.62204
1.42997
1.26875
1.12934
1.00509
0.893665
0.795543
0.71198
0.644005
0.591683
0.553415
0.526436
0.507104
0.491369
0.474766
0.453448
0.424947
0.388591
0.345589
0.297751
0
0.0402662
0.886491
2.84453
5.7562
8.89659
11.2074
11.798
10.4263
7.63969
4.47425
1.91342
0.459545
0.0545267
0.308121
0.769284
1.11351
1.32317
1.34583
1.18984
0.924814
0.655662
0.473692
0.412712
0.399785
0.405462
0.423273
0.454167
0.498572
0.55579
0.623639
0.69857
0.775795
0.850219
0.917335
0.974
1.0189
1.05267
1.07761
1.09731
1.11606
1.13801
1.16678
1.20511
1.25442
1.31534
1.388
1.46724
1.54589
1.61742
1.67791
1.72726
1.769
1.80906
1.85369
1.90766
1.97124
2.04269
2.12025
2.20185
2.28529
2.36856
2.45019
2.52931
2.60575
2.67988
2.75257
2.82497
2.89842
2.97422
3.05374
3.13859
3.22903
3.31856
3.3943
3.44108
3.44654
3.40604
3.32491
3.21671
3.09784
2.98107
2.86988
2.76153
2.65366
2.54456
2.43316
2.31949
2.20484
2.09158
1.98272
1.88126
1.78966
1.70933
1.64046
1.58205
1.53208
1.48795
1.44687
1.40623
1.36402
1.31905
1.27115
1.22127
1.17145
1.12489
1.08627
1.06023
1.05096
1.06125
1.09632
1.16087
1.24443
1.33086
1.40398
1.45214
1.47121
1.465
1.44343
1.41912
1.40361
1.40142
1.41173
1.43431
1.46316
1.49048
1.50918
1.51515
1.50868
1.49448
1.48037
1.47505
1.48506
1.51727
1.57818
1.65409
1.72288
1.7625
1.75899
1.71177
1.63407
1.54762
1.47392
1.42614
1.39809
1.38129
1.37316
1.37303
1.38153
1.40138
1.44813
1.5676
1.79038
2.05135
2.2707
2.38898
2.38354
2.26859
2.08598
1.89328
1.75014
1.68611
1.6698
1.67514
1.69149
1.71469
1.74244
1.77296
1.80494
1.83745
1.86977
1.90118
1.93074
1.95707
1.97843
1.99277
1.99795
1.992
1.9735
1.94178
1.89714
1.8409
1.77526
1.70321
1.62825
1.55405
1.48436
1.42357
1.37588
1.34464
1.33227
1.33975
1.36623
1.41256
1.4753
1.54279
1.60276
1.64546
1.66637
1.66725
1.6554
1.64122
1.63508
1.64436
1.66869
1.71673
1.80672
1.95417
2.13042
2.28926
2.36527
2.29716
2.06332
1.70492
1.31952
1.02664
0.906687
0.860539
0.853503
0.880233
0.923035
0.961609
0.978781
0.963786
0.913844
0.833544
0.732163
0.619887
0.504506
0.389722
0.276178
0.163369
-0.087477
0
0.899253
2.88249
5.70417
8.57442
10.4725
10.6604
9.08534
6.40669
3.62956
1.58947
0.608009
0.490827
0.789141
0.849828
0.869084
0.864338
0.838185
0.799329
0.759088
0.727447
0.708543
0.700322
0.700596
0.708333
0.722992
0.744367
0.772809
0.809889
0.858729
0.92116
0.989023
1.04701
1.07934
1.07666
1.04152
0.989763
0.9461
0.93518
0.971798
1.04421
1.13407
1.23117
1.32894
1.42192
1.50606
1.57903
1.64013
1.68988
1.72957
1.7608
1.78525
1.80462
1.82061
1.83507
1.85005
1.86784
1.89079
1.92109
1.96044
2.00969
2.06871
2.13631
2.21045
2.28854
2.36756
2.44496
2.51926
2.59028
2.65901
2.72749
2.79975
2.87958
2.96332
3.03687
3.08178
3.08087
3.02271
2.9048
2.73532
2.53235
2.31966
2.11923
1.93849
1.77268
1.61723
1.47083
1.33259
1.20203
1.07927
0.965072
0.860564
0.766859
0.68478
0.614647
0.555579
0.504926
0.459427
0.415901
0.371918
0.326253
0.279018
0.23144
0.18541
0.142936
0.1054
0.0736345
0.0482033
0.0292671
0.0167123
0.0102269
0.00937824
0.0136104
0.0221625
0.0341033
0.0482217
0.0630052
0.0770212
0.089163
0.0988215
0.105914
0.110755
0.113816
0.115474
0.115851
0.114808
0.111959
0.106874
0.0992403
0.0889753
0.0762503
0.061426
0.0449177
0.0270306
0.00781746
-0.0130388
-0.0360956
-0.0619726
-0.0910809
-0.123342
-0.158014
-0.193702
-0.228549
-0.260534
-0.287761
-0.308823
-0.32248
-0.327724
-0.323695
-0.309756
-0.285843
-0.252223
-0.209741
-0.159948
-0.106648
-0.0557045
-0.0133066
0.0153246
0.0269268
0.0206642
-0.00204754
-0.0382513
-0.0844238
-0.137357
-0.194389
-0.253684
-0.313984
-0.374102
-0.432487
-0.487004
-0.535111
-0.574238
-0.602256
-0.617976
-0.620079
-0.608938
-0.588344
-0.564587
-0.544217
-0.532651
-0.53298
-0.54523
-0.566194
-0.589917
-0.608802
-0.615301
-0.6044
-0.574677
-0.528257
-0.469304
-0.40212
-0.331776
-0.262723
-0.197829
-0.137853
-0.0815191
-0.0261425
0.0313768
0.0934822
0.160908
0.232725
0.306534
0.378249
0.443308
0.497582
0.538061
0.563152
0.572568
0.566963
0.547496
0.515658
0.473601
0.423059
0.366
0.304901
0.242676
0.182387
0.126711
0.0774874
0.0356472
0
-0.028273
-0.0640741
-0.116416
-0.192787
-0.30901
-0.460271
-0.631927
-0.861529
-0.46574
0.923322
3.34082
6.31288
8.94782
10.3167
9.92659
7.98808
5.29352
2.78431
1.09251
0.332845
0.219159
0.355933
0.381098
0.403012
0.423051
0.440929
0.456653
0.470393
0.482275
0.492394
0.500834
0.507762
0.513586
0.519065
0.525303
0.533581
0.545107
0.560707
0.580465
0.603994
0.630397
0.658168
0.685379
0.710538
0.733179
0.754186
0.77574
0.800829
0.832422
0.872572
0.921766
0.978062
1.0387
1.10121
1.16311
1.2222
1.27628
1.32358
1.36333
1.39539
1.42045
1.44029
1.4579
1.47735
1.50331
1.54026
1.591
1.6557
1.73321
1.82145
1.9173
2.01691
2.11613
2.21117
2.29907
2.37796
2.44709
2.50654
2.55653
2.5971
2.62839
2.64997
2.66075
2.65926
2.64391
2.61336
2.56688
2.50453
2.42737
2.33812
2.24
2.13631
2.0304
1.92543
1.82413
1.72859
1.64019
1.5598
1.48792
1.42496
1.37135
1.32757
1.29397
1.27057
1.25737
1.25392
1.25583
1.25445
1.2402
1.20508
1.14534
1.06336
0.966022
0.869063
0.78996
0.742984
0.73519
0.764749
0.822162
0.893894
0.966986
1.033
1.09188
1.14489
1.19443
1.24312
1.29264
1.34314
1.3929
1.43776
1.47278
1.49387
1.4993
1.49084
1.47379
1.45598
1.44574
1.44961
1.4691
1.5003
1.54
1.58526
1.63285
1.67971
1.72336
1.76182
1.79386
1.81913
1.83797
1.85137
1.86077
1.86782
1.87397
1.88012
1.88618
1.89079
1.8916
1.886
1.872
1.84909
1.81869
1.78416
1.75029
1.72243
1.70477
1.70038
1.71118
1.73726
1.77694
1.82818
1.88688
1.94632
1.9996
2.04105
2.06725
2.07739
2.07315
2.05805
2.03642
2.01259
1.99013
1.97114
1.95718
1.94966
1.94956
1.95739
1.97303
1.99563
2.02363
2.05496
2.08721
2.11806
2.14556
2.16832
2.18563
2.19751
2.20451
2.20764
2.20803
2.20676
2.20464
2.20217
2.19954
2.19685
2.19422
2.19206
2.19116
2.19281
2.20002
2.22558
2.33914
2.63467
3.03849
3.44671
3.74293
3.82704
3.65663
3.27005
2.77234
2.28952
1.93866
1.74688
1.61374
1.5021
1.40727
1.33116
1.27577
1.24101
1.22174
1.21044
1.19856
1.17769
1.14059
1.08195
0.99874
0.87889
0.711671
0.510049
0.146251
0
0.593195
2.29103
5.06756
8.33792
11.0947
12.3426
11.6089
9.21108
6.09365
3.33101
1.61142
1.01114
1.14017
1.4904
1.49771
1.49864
1.48987
1.47232
1.45042
1.42967
1.41372
1.40156
1.39043
1.37741
1.3598
1.33619
1.30714
1.27525
1.24453
1.21936
1.20312
1.19695
1.20129
1.21531
1.2374
1.26578
1.29889
1.33586
1.37641
1.4207
1.46905
1.52155
1.57818
1.63869
1.70253
1.76894
1.83695
1.90559
1.97395
2.04132
2.10717
2.17112
2.23293
2.29246
2.34975
2.405
2.45874
2.51173
2.56493
2.61925
2.67533
2.7333
2.79275
2.8527
2.91188
2.96936
3.02513
3.08036
3.13766
3.20446
3.30681
3.48396
3.70444
3.90784
4.03622
4.05842
3.97695
3.81966
3.62527
3.42961
3.25181
3.08108
2.90972
2.73679
2.56343
2.39199
2.22619
2.07066
1.93062
1.81328
1.72685
1.67152
1.63966
1.62081
1.60471
1.58394
1.55517
1.51883
1.47769
1.43512
1.3937
1.35449
1.31795
1.28451
1.25458
1.22858
1.2069
1.18979
1.17734
1.16933
1.16527
1.16428
1.1652
1.16686
1.16829
1.16891
1.16856
1.16757
1.16658
1.16638
1.16762
1.1706
1.17515
1.18055
1.18507
1.18651
1.18295
1.17361
1.15952
1.14379
1.13115
1.12701
1.13617
1.16092
1.20174
1.25653
1.32105
1.38963
1.45618
1.51507
1.56181
1.59337
1.60838
1.60699
1.59078
1.56251
1.52596
1.48558
1.4456
1.40976
1.38107
1.36135
1.35113
1.34958
1.35479
1.36421
1.37511
1.38511
1.39245
1.39613
1.39592
1.39219
1.38575
1.37771
1.36923
1.36138
1.35489
1.35018
1.34701
1.34408
1.33955
1.33165
1.31945
1.30332
1.2852
1.26816
1.25573
1.25103
1.25507
1.2678
1.28825
1.31436
1.34332
1.37174
1.39587
1.41255
1.41966
1.41658
1.40447
1.3864
1.36707
1.35233
1.34836
1.3605
1.39101
1.44144
1.51168
1.59953
1.70405
1.81971
1.93527
2.03876
2.11998
2.17194
2.19137
2.17833
2.13518
2.06543
1.97307
1.86406
1.74459
1.62026
1.49606
1.37654
1.26582
1.16733
1.08359
1.0157
0.963088
0.923787
0.894826
0.870563
0.842339
0.80164
0.741719
0.658982
0.553675
0.42956
0
-0.273879
0.136904
1.62892
4.26556
7.556
10.509
12.0337
11.4996
9.10522
5.78928
2.72713
0.739859
-0.0147011
0.073884
0.45
0.559657
0.665799
0.76796
0.86471
0.954229
1.03419
1.10236
1.15761
1.19944
1.22847
1.24672
1.2574
1.26414
1.26999
1.27652
1.2834
1.28885
1.29069
1.28746
1.27915
1.26715
1.25362
1.24066
1.22962
1.22102
1.21557
1.2144
1.21923
1.23241
1.25659
1.29422
1.34651
1.4132
1.49297
1.58375
1.68229
1.78499
1.88869
1.9911
2.09098
2.18794
2.28194
2.3729
2.46013
2.54264
2.61943
2.68999
2.7547
2.81508
2.87341
2.93221
2.99344
3.05791
3.12487
3.19248
3.25814
3.31875
3.37057
3.40893
3.42979
3.43007
3.40738
3.36053
3.28985
3.19741
3.08685
2.96279
2.83013
2.69383
2.55758
2.42433
2.29695
2.17836
2.07157
1.98073
1.91574
1.8885
1.88838
1.89636
1.89104
1.85664
1.78918
1.69779
1.6008
1.51832
1.46402
1.43066
1.41613
1.41494
1.41804
1.41684
1.40573
1.38368
1.35415
1.32351
1.29837
1.28294
1.27781
1.27824
1.27708
1.26789
1.24763
1.21758
1.18234
1.14769
1.11848
1.09604
1.08003
1.07118
1.0707
1.0802
1.10245
1.14785
1.23352
1.34826
1.4617
1.53915
1.55742
1.51657
1.44082
1.367
1.32614
1.32781
1.3462
1.36618
1.37373
1.3616
1.33221
1.2962
1.26723
1.25571
1.26198
1.27854
1.30008
1.32122
1.33834
1.3506
1.35964
1.36825
1.37877
1.39155
1.40403
1.41204
1.41193
1.40247
1.3855
1.36528
1.34683
1.33414
1.32792
1.32705
1.33067
1.33793
1.34783
1.3593
1.3713
1.38262
1.39203
1.39839
1.40075
1.39858
1.39184
1.38102
1.36705
1.3512
1.33494
1.31983
1.3074
1.29909
1.29611
1.2992
1.30858
1.32377
1.34372
1.36686
1.39145
1.41573
1.4383
1.45811
1.47449
1.48731
1.49709
1.50504
1.51309
1.5239
1.5407
1.56853
1.62252
1.73629
1.92223
2.13179
2.3069
2.40396
2.40599
2.32078
2.17105
1.98571
1.79807
1.64379
1.53379
1.45943
1.4104
1.37962
1.3649
1.362
1.36468
1.36553
1.35686
1.33134
1.28257
1.20567
1.09782
0.958759
0.791143
0.600583
0.361326
-0.0551895
0
1.00751
3.22427
6.36634
9.54698
11.6022
11.6756
9.70587
6.48396
3.22766
0.952393
0.0349987
0.197776
0.839067
1.16991
1.44465
1.6312
1.72602
1.74096
1.68945
1.58394
1.4428
1.29585
1.18054
1.12508
1.12407
1.15534
1.20484
1.26629
1.33582
1.40982
1.48503
1.55878
1.62922
1.69542
1.75721
1.815
1.86927
1.92021
1.9675
2.01014
2.04666
2.07552
2.09579
2.10772
2.113
2.11474
2.11693
2.12371
2.13858
2.16343
2.19824
2.24187
2.29295
2.35021
2.41263
2.47964
2.55126
2.62803
2.71078
2.80031
2.89701
3.00048
3.10929
3.22115
3.33159
3.43441
3.52341
3.59349
3.64162
3.66712
3.67125
3.65634
3.62472
3.5785
3.52009
3.45033
3.36897
3.27589
3.17147
3.05677
2.93362
2.80451
2.6723
2.54013
2.41112
2.28809
2.17331
2.06828
1.97366
1.88927
1.81419
1.74703
1.68618
1.6301
1.57757
1.52786
1.48078
1.43663
1.39601
1.35958
1.32786
1.30099
1.27822
1.25787
1.23777
1.21555
1.18911
1.15704
1.11884
1.07512
1.02755
0.978858
0.934155
0.899606
0.881243
0.883647
0.908668
0.954612
1.01624
1.08573
1.15431
1.21457
1.26356
1.30009
1.32409
1.337
1.34113
1.33905
1.33315
1.32528
1.31655
1.30764
1.299
1.29092
1.28367
1.27748
1.27245
1.26847
1.26511
1.26142
1.25596
1.24714
1.23361
1.21473
1.19078
1.163
1.13331
1.1039
1.077
1.05428
1.03736
1.0284
1.0294
1.04225
1.06835
1.11188
1.17667
1.25416
1.32901
1.38569
1.41408
1.41302
1.39037
1.35937
1.33284
1.31788
1.31102
1.30692
1.29897
1.28164
1.25275
1.2146
1.17347
1.13775
1.11532
1.10929
1.11743
1.13793
1.16781
1.20307
1.23963
1.27404
1.30419
1.32961
1.3514
1.37187
1.39396
1.42055
1.45391
1.49508
1.54388
1.59957
1.66118
1.72773
1.79841
1.87277
1.95074
2.0325
2.11742
2.20057
2.27164
2.31742
2.32553
2.28861
2.20727
2.09052
1.95339
1.81305
1.6843
1.57152
1.47351
1.39018
1.32243
1.27057
1.2337
1.20882
1.19161
1.17707
1.15989
1.135
1.09798
1.04545
0.975447
0.887561
0.780663
0.657868
0.272246
0
0.406376
1.87446
4.39225
7.39576
9.91515
11.0047
10.2273
7.8924
4.8887
2.22019
0.538257
-0.0622624
0.0805095
0.481815
0.571541
0.652533
0.719702
0.771756
0.808671
0.832803
0.848485
0.861334
0.877161
0.901042
0.936545
0.984988
1.04758
1.11956
1.19376
1.26315
1.32302
1.372
1.41178
1.44558
1.47626
1.50496
1.5313
1.55382
1.5712
1.58315
1.59086
1.597
1.60521
1.61936
1.64213
1.67515
1.71942
1.77536
1.84286
1.92137
2.00997
2.10735
2.21168
2.32063
2.43132
2.54042
2.64456
2.74092
2.82769
2.90436
2.97172
3.03164
3.08654
3.13892
3.1908
3.24338
3.29696
3.35099
3.40406
3.45399
3.4983
3.53442
3.55995
3.57281
3.57128
3.554
3.51996
3.46849
3.39978
3.31461
3.21375
3.09846
2.97042
2.83166
2.68453
2.53119
2.37388
2.21512
2.05782
1.9053
1.76123
1.62937
1.51289
1.41432
1.33612
1.27809
1.23778
1.21178
1.19658
1.18923
1.18767
1.19073
1.19765
1.20768
1.21953
1.23094
1.23921
1.24194
1.23781
1.22713
1.21188
1.19536
1.18137
1.17324
1.17267
1.17961
1.19325
1.21252
1.23592
1.26167
1.28781
1.31188
1.3303
1.33916
1.33475
1.31441
1.27766
1.22704
1.16829
1.10952
1.05961
1.02623
1.01643
1.03653
1.0832
1.14218
1.19617
1.23102
1.2395
1.22305
1.19146
1.16029
1.14611
1.16077
1.20339
1.26287
1.33064
1.39691
1.45343
1.49552
1.52249
1.53658
1.54099
1.538
1.52893
1.51328
1.49034
1.46017
1.42418
1.38502
1.34594
1.30994
1.27836
1.25134
1.22883
1.21026
1.19472
1.18116
1.16854
1.15589
1.14239
1.12744
1.11071
1.09223
1.07256
1.05293
1.0356
1.02365
1.02032
1.02835
1.04916
1.0823
1.12529
1.17427
1.22393
1.26945
1.30792
1.33917
1.36597
1.39339
1.42752
1.47407
1.53607
1.61332
1.70459
1.80851
1.92332
2.04714
2.17861
2.31709
2.46187
2.6071
2.73469
2.81482
2.81576
2.71905
2.53119
2.28525
2.03116
1.81863
1.65962
1.53229
1.42438
1.33384
1.25909
1.19786
1.14737
1.10441
1.06535
1.02643
0.983885
0.933322
0.866228
0.7595
0.592667
0.37801
0.137086
0
0.380756
1.64877
3.91909
6.818
9.49724
10.9815
10.6811
8.73799
5.95661
3.3587
1.66076
1.00232
1.04645
1.30919
1.31414
1.31353
1.30618
1.29059
1.26704
1.23769
1.20641
1.17767
1.15577
1.14401
1.144
1.15477
1.17495
1.20294
1.23784
1.27995
1.33265
1.41136
1.52836
1.66217
1.77226
1.82012
1.79218
1.70922
1.61583
1.55648
1.55249
1.58051
1.61876
1.66074
1.70293
1.74563
1.79205
1.84607
1.90978
1.98238
2.05912
2.13374
2.20131
2.26041
2.3136
2.3659
2.42206
2.48427
2.55016
2.61419
2.67064
2.71666
2.75407
2.78876
2.82834
2.87906
2.94274
3.0156
3.0945
3.17701
3.26076
3.34355
3.42291
3.49508
3.55475
3.59604
3.61199
3.59627
3.54519
3.45938
3.34418
3.20867
3.06373
2.91953
2.7816
2.65198
2.53217
2.42267
2.32302
2.23213
2.14866
2.0713
1.99904
1.93123
1.86768
1.80853
1.75412
1.70493
1.66139
1.62381
1.59238
1.5672
1.54826
1.53541
1.52845
1.5272
1.53059
1.53693
1.54451
1.55207
1.55901
1.56541
1.57165
1.5778
1.58308
1.5856
1.58287
1.57294
1.55546
1.53231
1.50729
1.48503
1.46949
1.46241
1.46276
1.46914
1.47958
1.49243
1.50696
1.52346
1.54293
1.56635
1.59411
1.62527
1.65858
1.69241
1.72523
1.75595
1.7842
1.81028
1.83488
1.85869
1.88203
1.90466
1.92575
1.94408
1.95833
1.9673
1.97008
1.96601
1.95458
1.93536
1.90814
1.87301
1.83042
1.78157
1.7283
1.67378
1.62222
1.57788
1.54442
1.5242
1.51792
1.52459
1.54175
1.56596
1.5933
1.62013
1.64345
1.66126
1.67274
1.67812
1.67838
1.67475
1.66828
1.65952
1.64859
1.6352
1.61918
1.60078
1.58088
1.5611
1.54352
1.53049
1.52412
1.5261
1.53814
1.56162
1.59745
1.64584
1.70611
1.77672
1.85537
1.93884
2.02193
2.09902
2.16511
2.21646
2.25081
2.2671
2.26493
2.24398
2.20386
2.14472
2.06722
1.97357
1.86794
1.75627
1.64549
1.54235
1.45103
1.37472
1.31469
1.27043
1.24008
1.22082
1.20919
1.20163
1.19306
1.1777
1.14937
1.09547
0.958134
0.726581
0.427799
0.0499511
0
0.699906
2.44965
5.17347
8.2764
10.7865
11.7868
10.9042
8.52989
5.60627
3.11429
1.60051
1.03108
1.00158
1.08652
1.0652
1.04538
1.02737
1.01186
0.999203
0.98942
0.982191
0.977013
0.973191
0.970035
0.967192
0.964835
0.963743
0.965189
0.970679
0.981611
0.998986
1.02315
1.05374
1.0905
1.13314
1.1818
1.23789
1.30356
1.37578
1.44233
1.48662
1.4936
1.45685
1.38331
1.29314
1.21441
1.17403
1.18231
1.22521
1.28978
1.37114
1.46373
1.56208
1.6617
1.75993
1.85572
1.94943
2.04245
2.13674
2.23506
2.34131
2.45511
2.56281
2.64506
2.68406
2.67184
2.61557
2.53696
2.4649
2.4243
2.42577
2.45191
2.48878
2.52953
2.56916
2.60307
2.62716
2.63792
2.63254
2.60869
2.5645
2.4987
2.41083
2.30153
2.17269
2.02742
1.86986
1.70487
1.53734
1.37187
1.21269
1.06443
0.931707
0.81762
0.724378
0.653283
0.60456
0.577205
0.568962
0.576433
0.59534
0.620862
0.647965
0.671976
0.688725
0.69487
0.688155
0.667637
0.633835
0.588771
0.535861
0.479454
0.424902
0.377507
0.341662
0.320142
0.313657
0.320783
0.338312
0.361944
0.387193
0.410465
0.42971
0.444469
0.455985
0.46691
0.480675
0.502282
0.539926
0.595201
0.654302
0.697295
0.706609
0.675158
0.610128
0.530463
0.459206
0.41445
0.397749
0.397876
0.407575
0.423114
0.441638
0.460789
0.47892
0.495105
0.509024
0.520771
0.530666
0.539084
0.546353
0.55269
0.55817
0.562709
0.566063
0.56782
0.567459
0.564544
0.558839
0.550486
0.540107
0.528797
0.517946
0.508907
0.50264
0.499516
0.498629
0.497274
0.491812
0.478952
0.456964
0.426496
0.390657
0.354287
0.322655
0.300063
0.287941
0.285242
0.291024
0.303637
0.321237
0.341982
0.364638
0.388301
0.412326
0.436241
0.459698
0.482436
0.504285
0.525177
0.545164
0.564454
0.583474
0.602937
0.623909
0.648335
0.682993
0.760914
0.971729
1.28273
1.59375
1.79624
1.81997
1.66045
1.37143
1.03349
0.724033
0.510731
0.377693
0.281389
0.203973
0.140532
0.0910654
0.0555204
0.0314031
0.0145044
0
-0.016252
-0.0388835
-0.0706347
-0.11265
-0.164397
-0.223812
-0.291258
-0.571091
-0.58923
0.120681
1.8593
4.45907
7.20683
9.11139
9.39789
7.93032
5.28874
2.45072
0.289857
-0.79465
-0.929707
-0.545221
-0.379145
-0.261009
-0.169464
-0.106332
-0.0677659
-0.045889
-0.0313759
-0.016174
0.00380821
0.0302219
0.0603183
0.088848
0.110628
0.122759
0.12587
0.123968
0.12305
0.129112
0.146387
0.174264
0.210407
0.253008
0.300323
0.350475
0.401712
0.452489
0.501664
0.54861
0.593212
0.635762
0.67675
0.716536
0.754926
0.791136
0.823944
0.852305
0.876238
0.897482
0.919587
0.947312
0.985479
1.03767
1.10352
1.18044
1.26553
1.35568
1.44641
1.53315
1.61266
1.68374
1.74748
1.80699
1.86661
1.93082
2.00366
2.08913
2.18953
2.30421
2.42395
2.53051
2.60423
2.62444
2.57419
2.4491
2.26419
2.05189
1.85002
1.68532
1.54766
1.42167
1.30144
1.18405
1.06725
0.949959
0.832355
0.715824
0.602624
0.495486
0.397186
0.310174
0.236277
0.176506
0.131031
0.0993591
0.0802437
0.0711493
0.067934
0.0661295
0.0619959
0.0532209
0.0392992
0.0214592
0.00214539
-0.015773
-0.0298108
-0.0387814
-0.0427846
-0.0420805
-0.0372732
-0.0290112
-0.0177335
-0.00347309
0.014131
0.0356997
0.0618487
0.093343
0.130945
0.172778
0.212488
0.242058
0.254299
0.245592
0.217642
0.17731
0.13442
0.0984152
0.0750844
0.0628065
0.0594012
0.0630186
0.071954
0.0853286
0.103195
0.12608
0.154827
0.18876
0.224829
0.257989
0.282558
0.293858
0.289639
0.270867
0.241614
0.208008
0.176492
0.151916
0.135889
0.126336
0.120732
0.116142
0.110381
0.102735
0.0939935
0.0858729
0.0801411
0.077595
0.0778446
0.080276
0.0839368
0.0877585
0.0907912
0.092334
0.0919548
0.0894356
0.0846978
0.0777619
0.0687663
0.0580115
0.0460262
0.0336196
0.0218625
0.0120302
0.00550985
0.00375729
0.00816546
0.0198038
0.03934
0.0668819
0.101851
0.142934
0.188146
0.235028
0.280948
0.323448
0.360579
0.391175
0.415007
0.432837
0.44636
0.458046
0.470906
0.488194
0.513319
0.551957
0.61485
0.717779
0.862613
1.01779
1.14583
1.21257
1.19529
1.08946
0.912035
0.6992
0.497308
0.346935
0.242494
0.163563
0.0999783
0.0493837
0.0107268
-0.0168191
-0.0338119
-0.0388943
-0.0302752
-0.0137755
0
0.00299435
-0.0189674
-0.0706167
-0.225138
-0.550926
-0.356991
0.779955
2.99103
5.89381
8.61729
10.1495
9.85254
7.82702
4.87314
2.0615
0.194742
-0.505326
-0.339478
0.176393
0.263392
0.341011
0.402425
0.444774
0.469322
0.480382
0.483598
0.484438
0.486358
0.490898
0.498623
0.509235
0.521542
0.533226
0.541475
0.543845
0.539075
0.527753
0.512565
0.497966
0.489272
0.491369
0.50744
0.538076
0.581582
0.633417
0.687214
0.736884
0.778135
0.809455
0.832349
0.850794
0.8701
0.895499
0.930456
0.975827
1.03057
1.09334
1.16216
1.2352
1.31132
1.39023
1.47226
1.55786
1.64701
1.73899
1.8323
1.92527
2.01646
2.10514
2.19151
2.27659
2.36184
2.44868
2.53813
2.63052
2.72454
2.81453
2.89151
2.94565
2.96881
2.95688
2.91102
2.83673
2.74145
2.6319
2.51355
2.39139
2.26829
2.14623
2.02708
1.91255
1.80381
1.70115
1.6039
1.51062
1.41947
1.32877
1.23748
1.14556
1.0541
0.965177
0.881485
0.806134
0.742202
0.691818
0.655987
0.635536
0.630254
0.636499
0.650054
0.667277
0.686127
0.706734
0.731271
0.763153
0.810181
0.88309
0.97811
1.0752
1.14984
1.18269
1.16669
1.10916
1.02871
0.948706
0.889955
0.85837
0.846859
0.84875
0.86005
0.878153
0.900236
0.923843
0.947188
0.969237
0.989552
1.00797
1.0241
1.037
1.04534
1.04748
1.04215
1.02901
1.00918
0.985305
0.961129
0.940749
0.927503
0.92267
0.927286
0.94062
0.95955
0.980038
0.998309
1.01184
1.01999
1.02414
1.02737
1.03362
1.04675
1.06906
1.10365
1.15158
1.2081
1.26258
1.30297
1.31864
1.30284
1.25441
1.17816
1.08384
0.983973
0.891125
0.812912
0.750535
0.70379
0.674074
0.661904
0.66708
0.688779
0.725547
0.775231
0.834918
0.90127
0.970116
1.03588
1.09338
1.13882
1.17052
1.18934
1.19835
1.2021
1.20551
1.21282
1.22615
1.24588
1.27187
1.30378
1.34113
1.38366
1.43255
1.49537
1.61258
1.87523
2.2347
2.5906
2.81301
2.80365
2.54923
2.13014
1.67951
1.32528
1.1671
1.09869
1.05264
1.01623
0.987136
0.963036
0.941066
0.918132
0.891172
0.857412
0.814586
0.761093
0.695921
0.61597
0.514136
0.394776
0.264905
0.00358462
0
0.70061
2.47061
5.28384
8.54058
11.2114
12.3019
11.3824
8.8378
5.66038
2.92274
1.26968
0.725076
0.864103
1.16448
1.16305
1.16384
1.16775
1.17546
1.18667
1.20019
1.21427
1.22718
1.23768
1.24529
1.25027
1.25319
1.25442
1.25379
1.2505
1.24335
1.23128
1.21399
1.1924
1.16874
1.14642
1.12944
1.12158
1.12595
1.14445
1.17754
1.22439
1.28317
1.35148
1.42652
1.50578
1.58736
1.66932
1.74903
1.82187
1.88218
1.92429
1.94405
1.94123
1.92146
1.89637
1.88152
1.89237
1.93991
2.01937
2.12039
2.23706
2.36405
2.49557
2.62611
2.75101
2.86646
2.96919
3.05634
3.1262
3.1785
3.21351
3.23202
3.23523
3.22454
3.20125
3.16615
3.11919
3.05985
2.98757
2.90139
2.80002
2.68283
2.55035
2.40447
2.24854
2.08706
1.92533
1.76891
1.6231
1.49233
1.37973
1.28695
1.21406
1.15939
1.11952
1.08963
1.06411
1.03774
1.00644
0.967874
0.921773
0.869666
0.81515
0.76391
0.721773
0.693392
0.681233
0.685112
0.702388
0.728684
0.758902
0.788192
0.813211
0.83188
0.84289
0.84591
0.841533
0.831202
0.817104
0.801993
0.788941
0.781022
0.780903
0.7902
0.810144
0.841047
0.882227
0.932131
0.988751
1.04852
1.10666
1.15835
1.19939
1.22679
1.23913
1.23665
1.22115
1.19558
1.16362
1.12915
1.09528
1.06397
1.036
1.01114
0.987969
0.964648
0.939703
0.91273
0.884793
0.85836
0.836759
0.823317
0.821317
0.833503
0.858883
0.891127
0.920606
0.937933
0.936523
0.914463
0.875241
0.827075
0.78084
0.747034
0.731966
0.734228
0.748498
0.770528
0.796425
0.822374
0.845265
0.863038
0.874756
0.880499
0.881218
0.87867
0.8753
0.874344
0.879796
0.895604
0.924939
0.969311
1.02792
1.09814
1.17442
1.25017
1.31945
1.37844
1.42624
1.4648
1.49818
1.53121
1.56816
1.61217
1.66491
1.72384
1.78151
1.82808
1.85375
1.85039
1.81281
1.73958
1.63349
1.50138
1.35338
1.20146
1.05603
0.922894
0.804055
0.701218
0.616072
0.549164
0.500163
0.467975
0.450787
0.445592
0.446679
0.447265
0.441111
0.4234
0.391382
0.257796
0
0.246185
1.44755
3.71895
6.60513
9.16642
10.3992
9.76638
7.50545
4.50884
1.84812
0.246171
-0.189932
0.136734
0.587826
0.628254
0.642559
0.628671
0.591906
0.542568
0.491927
0.449415
0.417104
0.395276
0.385158
0.388141
0.404717
0.434189
0.474565
0.523943
0.580216
0.641302
0.70538
0.770693
0.834059
0.890153
0.932327
0.953786
0.94999
0.921072
0.873097
0.817469
0.768569
0.740403
0.738233
0.759489
0.804844
0.872714
0.959555
1.06061
1.17049
1.28411
1.39759
1.50795
1.61297
1.71107
1.80124
1.88288
1.95577
2.01995
2.07577
2.12402
2.16588
2.20291
2.23704
2.27044
2.30537
2.34396
2.38806
2.43914
2.4985
2.56783
2.64902
2.7396
2.82715
2.89502
2.92624
2.90804
2.83528
2.71086
2.54307
2.3422
2.11922
1.88962
1.66315
1.44576
1.24348
1.06294
0.915064
0.816375
0.770088
0.757699
0.755118
0.740339
0.700066
0.632884
0.548064
0.460845
0.386254
0.330514
0.289602
0.260472
0.240993
0.22842
0.220117
0.214112
0.209349
0.205643
0.203401
0.203255
0.205684
0.210801
0.218508
0.22862
0.240865
0.254929
0.270467
0.287045
0.304065
0.320698
0.335886
0.348399
0.356972
0.360542
0.358449
0.350657
0.337905
0.321775
0.304607
0.289284
0.278869
0.276151
0.283201
0.300995
0.3298
0.368959
0.415695
0.464135
0.507001
0.537746
0.551876
0.547876
0.52748
0.495158
0.456923
0.418832
0.385484
0.35859
0.338032
0.323425
0.314529
0.310968
0.312311
0.318038
0.327655
0.340268
0.354351
0.368246
0.380651
0.391096
0.400216
0.409684
0.421763
0.438594
0.461758
0.491952
0.526801
0.560976
0.588553
0.60503
0.609021
0.603025
0.592933
0.586339
0.590139
0.608013
0.637818
0.676354
0.717748
0.755785
0.785925
0.806797
0.820679
0.832855
0.850067
0.878568
0.921179
0.976911
1.04368
1.11866
1.19683
1.27152
1.33575
1.38381
1.4117
1.41739
1.40081
1.36357
1.30859
1.23958
1.16045
1.07513
0.986874
0.897954
0.809937
0.724185
0.642121
0.565296
0.495401
0.434209
0.383187
0.343306
0.31511
0.299113
0.293851
0.296823
0.305229
0.316373
0.327864
0.0826039
0
0.523749
1.99498
4.3775
7.10724
9.25136
9.94893
8.88502
6.48457
3.68402
1.42525
0.203637
-0.0606739
0.189549
0.36239
0.449087
0.520297
0.572007
0.603552
0.614925
0.607614
0.585897
0.557636
0.533603
0.525074
0.540434
0.580828
0.638069
0.705995
0.776552
0.841349
0.892613
0.925257
0.937104
0.928922
0.904218
0.868825
0.83021
0.796438
0.774863
0.770274
0.782466
0.808914
0.847998
0.897473
0.954757
1.01731
1.08314
1.15078
1.21909
1.287
1.35285
1.41467
1.47056
1.51952
1.56216
1.6011
1.64066
1.68578
1.74071
1.80786
1.88586
1.97206
2.06419
2.16025
2.25868
2.35864
2.45995
2.56291
2.66711
2.7689
2.86085
2.93359
2.97835
2.98924
2.96442
2.90597
2.81896
2.71007
2.58682
2.45568
2.3204
2.18272
2.0434
1.90284
1.76154
1.62048
1.48122
1.34583
1.21661
1.09575
0.985033
0.885702
0.798982
0.726887
0.670927
0.631343
0.608179
0.600926
0.608173
0.627504
0.655753
0.689542
0.725856
0.76241
0.797903
0.831321
0.862088
0.889814
0.914259
0.935359
0.953208
0.967928
0.979099
0.986227
0.988431
0.984793
0.974896
0.959306
0.939784
0.919123
0.900694
0.88767
0.881676
0.883843
0.89504
0.915576
0.944935
0.981539
1.02277
1.06473
1.10193
1.12877
1.14047
1.13405
1.10917
1.06865
1.01839
0.966429
0.921356
0.890455
0.875606
0.874748
0.887222
0.910674
0.940399
0.970534
0.996239
1.01478
1.02605
1.0324
1.03777
1.04632
1.06197
1.0862
1.11388
1.13662
1.14625
1.13833
1.11417
1.08053
1.04741
1.02499
1.0186
1.02689
1.04863
1.08439
1.13227
1.18542
1.233
1.26396
1.26932
1.24444
1.19072
1.11594
1.033
0.956951
0.901274
0.869823
0.859834
0.870531
0.898915
0.940785
0.991814
1.04791
1.10657
1.16668
1.22789
1.29024
1.35386
1.41864
1.48397
1.54856
1.61028
1.66608
1.71243
1.74611
1.76435
1.76515
1.74755
1.71167
1.65879
1.59131
1.51263
1.42739
1.3404
1.25591
1.17765
1.1086
1.05068
1.00466
0.969806
0.942689
0.916739
0.884276
0.837706
0.770715
0.671205
0.521001
0.33044
0.117917
-0.0963283
0
0.682321
2.22727
4.67005
7.59654
10.1642
11.4341
10.8601
8.62409
5.56786
2.75444
0.942873
0.303292
0.49993
1.0039
1.07648
1.13964
1.18822
1.22239
1.24737
1.27122
1.30166
1.34201
1.39386
1.45246
1.50791
1.55001
1.57192
1.57253
1.5565
1.53227
1.50896
1.49374
1.48864
1.49239
1.50536
1.52792
1.56034
1.60259
1.65406
1.71325
1.77736
1.84344
1.9087
1.9707
2.0277
2.0789
2.12449
2.16551
2.20367
2.24094
2.27928
2.32028
2.36497
2.41368
2.46622
2.52197
2.5801
2.64014
2.70228
2.76748
2.83725
2.91322
2.99651
3.08718
3.18385
3.28375
3.38328
3.4781
3.56371
3.6362
3.6926
3.73099
3.75043
3.75076
3.73242
3.69618
3.643
3.57386
3.48978
3.39178
3.28102
3.15892
3.02718
2.88784
2.74367
2.59811
2.45514
2.31888
2.19313
2.08096
1.98438
1.90414
1.83982
1.79009
1.75288
1.72574
1.70619
1.69205
1.68148
1.673
1.66536
1.65737
1.64776
1.63519
1.6184
1.59645
1.56897
1.53642
1.50017
1.46245
1.42617
1.39495
1.37254
1.36244
1.36757
1.38997
1.43045
1.4916
1.58003
1.68912
1.79657
1.87846
1.91724
1.90864
1.86391
1.80557
1.75848
1.74038
1.74935
1.77283
1.80386
1.83824
1.87143
1.89868
1.91597
1.9207
1.91191
1.89047
1.85914
1.8223
1.78533
1.75369
1.73196
200
433
665
893
1125
1355
1587
1815
2043
2270
2496
2721
2947
3170
3390
3612
3699
3456
3655
3711
3680
0
0
0
0
0
0
0
0
0
0
0
0
0
0
0
0
0
0
0
0
0
0
0
0
0
0
0
0
0
0
0
0
0
0
0
0
0
0
0
0
0
0
0
0
0
0
0
0
0
0
0
0
0
0
0
0
0
0
0
0
0
0
0
0
0
0
0
0
0
0
0
0
0
0
0
0
0
0
0
0
0
0
0
0
0
0
0
0
0
0
0
0
0
0
0
0
0
0
0
0
0
0
0
0
0
0
0
0
0
0
0
0
0
0
0
0
0
0
0
0
0
0
0
0
0
0
0
0
0
0
0
0
0
0
0
0
0
0
0
0
0
0
0
0
0
0
0
0
0
0
0
0
0
0
0
0
0
0
0
0
0
0
0
0
0
0
0
0
0
0
0
0
0
0
0
0
0
0
0
0
0
0
0
0
0
0
0
0
0
0
0
0
0
0
0
0
0
0
0
0
0
0
0
0
0
0
0
0
0
0
0
0
0
0
0
0
0
0
0
0
0
0
0
0
0
0
0
0
0
0
0
0
0
0
0
0
0
0
0
0
0
0
0
0
0
0
0
0
0
0
0
0
0
0
0
0
0
0
0
0
0
0
0
0
0
0
0
0
0
0
0
0
0
0
0
0
0
0
0
0
0
0
0
0
0
0
0
0
0
0
0
0
0
0
0
0
0
0
0
0
0
0
0
0
0
0
0
0
0
0
0
0
0
0
0
0
0
0
0
0
0
0
0
0
0
0
0
0
0
0
0
0
0
0
0
0
0
0
0
0
0
0
0
0
0
0
0
0
0
0
0
0
0
0
0
0
0
0
0
0
0
0
0
0
0
0
0
0
0
0
0
0
0
0
0
0
0
0
0
0
0
0
0
0
0
0
0
0
0
0
0
0
0
0
0
0
0
0
0
0
0
0
0
0
0
0
0
0
0
0
0
0
0
0
0
0
0
0
0
0
0
0
0
0
0
0
0
0
0
0
0
0
0
0
0
0
0
0
0
0
0
0
0
0
0
0
0
0
0
0
0
0
0
0
0
0
0
0
0
0
0
0
0
0
0
0
0
0
0
0
0
0
0
0
0
0
0
0
0
0
0
0
0
0
0
0
0
0
0
0
0
0
0
0
0
0
0
0
0
0
0
0
0
0
0
0
0
0
0
0
0
0
0
0
0
0
0
0
0
0
0
0
0
0
0
0
0
0
0
0
0
0
0
0
0
0
0
0
0
0
0
0
0
0
0
0
0
0
0
0
0
0
0
0
0
0
0
0
0
0
0
0
0
0
0
0
0
0
0
0
0
0
0
0
0
0
0
0
0
0
0
0
0
0
0
0
0
0
0
0
0
0
0
0
0
0
0
0
0
0
0
0
0
0
0
0
0
0
0
0
0
0
0
0
0
0
0
0
0
0
0
0
0
0
0
0
0
0
0
0
0
0
0
0
0
0
0
0
0
0
0
0
0
0
0
0
0
0
0
0
0
0
0
0
0
0
0
0
0
0
0
0
0
0
0
0
0
0
0
0
0
0
0
0
0
0
0
0
0
0
0
0
0
0
0
0
0
0
0
0
0
0
0
0
0
0
0
0
0
0
0
0
0
0
0
0
0
0
0
0
0
0
0
0
0
0
0
0
0
0
0
0
0
0
0
0
0
0
0
0
0
0
0
0
0
0
0
0
0
0
0
0
0
0
0
0
0
0
0
0
0
0
0
0
0
0
0
0
0
0
0
0
0
0
0
0
0
0
0
0
0
0
0
0
0
0
0
0
0
0
0
0
0
0
0
0
0
0
0
0
0
0
0
0
0
0
0
0
0
0
0
0
0
0
0
0
0
0
0
0
0
0
0
0
0
0
0
0
0
0
0
0
0
0
0
0
0
0
0
0
0
0
0
0
0
0
0
0
0
0
0
0
0
0
0
0
0
0
0
0
0
0
0
0
0
0
0
0
0
0
0
0
0
0
0
0
0
0
0
0
0
0
0
0
0
0
0
0
0
0
0
0
0
0
0
0
0
0
0
0
0
0
0
0
0
0
0
0
0
0
0
0
0
0
0
0
0
0
0
0
0
0
0
0
0
0
0
0
0
0
0
0
0
0
0
0
0
0
0
0
0
0
0
0
0
0
0
0
0
0
0
0
0
0
0
0
0
0
0
0
0
0
0
0
0
0
0
0
0
0
0
0
0
0
0
0
0
0
0
0
0
0
0
0
0
0
0
0
0
0
0
0
0
0
0
0
0
0
0
0
0
0
0
0
0
0
0
0
0
0
0
0
0
0
0
0
0
0
0
0
0
0
0
0
0
0
0
0
0
0
0
0
0
0
0
0
0
0
0
0
0
0
0
0
0
0
0
0
0
0
0
0
0
0
0
0
0
0
0
0
0
0
0
0
0
0
0
0
0
0
0
0
0
0
0
0
0
0
0
0
0
0
0
0
0
0
0
0
0
0
0
0
0
0
0
0
0
0
0
0
0
0
0
0
0
0
0
0
0
0
0
0
0
0
0
0
0
0
0
0
0
0
0
0
0
0
0
0
0
0
0
0
0
0
0
0
0
0
0
0
0
0
0
0
0
0
0
0
0
0
0
0
0
0
0
0
0
0
0
0
0
0
0
0
0
0
0
0
0
0
0
0
0
0
0
0
0
0
0
0
0
0
0
0
0
0
0
0
0
0
0
0
0
0
0
0
0
0
0
0
0
0
0
0
0
0
0
0
0
0
0
0
0
0
0
0
0
0
0
0
0
0
0
0
0
0
0
0
0
0
0
0
0
0
0
0
0
0
0
0
0
0
0
0
0
0
0
0
0
0
0
0
0
0
0
0
0
0
0
0
0
0
0
0
0
0
0
0
0
0
0
0
0
0
0
0
0
0
0
0
0
0
0
0
0
0
0
0
0
0
0
0
0
0
0
0
0
0
0
0
0
0
0
0
0
0
0
0
0
0
0
0
0
0
0
0
0
0
0
0
0
0
0
0
0
0
0
0
0
0
0
0
0
0
0
0
0
0
0
0
0
0
0
0
0
0
0
0
0
0
0
0
0
0
0
0
0
0
0
0
0
0
0
0
0
0
0
0
0
0
0
0
0
0
0
0
0
0
0
0
0
0
0
0
0
0
0
0
0
0
0
0
0
0
0
0
0
0
0
0
0
0
0
0
0
0
0
0
0
0
0
0
0
0
0
0
0
0
0
0
0
0
0
0
0
0
0
0
0
0
0
0
0
0
0
0
0
0
0
0
0
0
0
0
0
0
0
0
0
0
0
0
0
0
0
0
0
0
0
0
0
0
0
0
0
0
0
0
0
0
0
0
0
0
0
0
0
0
0
0
0
0
0
0
0
0
0
0
0
0
0
0
0
0
0
0
0
0
0
0
0
0
0
0
0
0
0
0
0
0
0
0
0
0
0
0
0
0
0
0
0
0
0
0
0
0
0
0
0
0
0
0
0
0
0
0
0
0
0
0
0
0
0
0
0
0
0
0
0
0
0
0
0
0
0
0
0
0
0
0
0
0
0
0
0
0
0
0
0
0
0
0
0
0
0
0
0
0
0
0
0
0
0
0
0
0
0
0
0
0
0
0
0
0
0
0
0
0
0
0
0
0
0
0
0
0
0
0
0
0
0
0
0
0
0
0
0
0
0
0
0
0
0
0
0
0
0
0
0
0
0
0
0
0
0
0
0
0
0
0
0
0
0
0
0
0
0
0
0
0
0
0
0
0
0
0
0
0
0
0
0
0
0
0
0
0
0
0
0
0
0
0
0
0
0
0
0
0
0
0
0
0
0
0
0
0
0
0
0
0
0
0
0
0
0
0
0
0
0
0
0
0
0
0
0
0
0
0
0
0
0
0
0
0
0
0
0
0
0
0
0
0
0
0
0
0
0
0
0
0
0
0
0
0
0
0
0
0
0
0
0
0
0
0
0
0
0
0
0
0
0
0
0
0
0
0
0
0
0
0
0
0
0
0
0
0
0
0
0
0
0
0
0
0
0
0
0
0
0
0
0
0
0
0
0
0
0
0
0
0
0
0
0
0
0
0
0
0
0
0
0
0
0
0
0
0
0
0
0
0
0
0
0
0
0
0
0
0
0
0
0
0
0
0
0
0
0
0
0
0
0
0
0
0
0
0
0
0
0
0
0
0
0
0
0
0
0
0
0
0
0
0
0
0
0
0
0
0
0
0
0
0
0
0
0
0
0
0
0
0
0
0
0
0
0
0
0
0
0
0
0
0
0
0
0
0
0
0
0
0
0
0
0
0
0
0
0
0
0
0
0
0
0
0
0
0
0
0
0
0
0
0
0
0
0
0
0
0
0
0
0
0
0
0
0
0
0
0
0
0
0
0
0
0
0
0
0
0
0
0
0
0
0
0
0
0
0
0
0
0
0
0
0
0
0
0
0
0
0
0
0
0
0
0
0
0
0
0
0
0
0
0
0
0
0
0
0
0
0
0
0
0
0
0
0
0
0
0
0
0
0
0
0
0
0
0
0
0
0
0
0
0
0
0
0
0
0
0
0
0
0
0
0
0
0
0
0
0
0
0
0
0
0
0
0
0
0
0
0
0
0
0
0
0
0
0
0
0
0
0
0
0
0
0
0
0
0
0
0
0
0
0
0
0
0
0
0
0
0
0
0
0
0
0
0
0
0
0
0
0
0
0
0
0
0
0
0
0
0
0
0
0
0
0
0
0
0
0
0
0
0
0
0
0
0
0
0
0
0
0
0
0
0
0
0
0
0
0
0
0
0
0
0
0
0
0
0
0
0
0
0
0
0
0
0
0
0
0
0
0
0
0
0
0
0
0
0
0
0
0
0
0
0
0
0
0
0
0
0
0
0
0
0
0
0
0
0
0
0
0
0
0
0
0
0
0
0
0
0
0
0
0
0
0
0
0
0
0
0
0
0
0
0
0
0
0
0
0
0
0
0
0
0
0
0
0
0
0
0
0
0
0
0
0
0
0
0
0
0
0
0
0
0
0
0
0
0
0
0
0
0
0
0
0
0
0
0
0
0
0
0
0
0
0
0
0
0
0
0
0
0
0
0
0
0
0
0
0
0
0
0
0
0
0
0
0
0
0
0
0
0
0
0
0
0
0
0
0
0
0
0
0
0
0
0
0
0
0
0
0
0
0
0
0
0
0
0
0
0
0
0
0
0
0
0
0
0
0
0
0
0
0
0
0
0
0
0
0
0
0
0
0
0
0
0
0
0
0
0
0
0
0
0
0
0
0
0
0
0
0
0
0
0
0
0
0
0
0
0
0
0
0
0
0
0
0
0
0
0
0
0
0
0
0
0
0
0
0
0
0
0
0
0
0
0
0
0
0
0
0
0
0
0
0
0
0
0
0
0
0
0
0
0
0
0
0
0
0
0
0
0
0
0
0
0
0
0
0
0
0
0
0
0
0
0
0
0
0
0
0
0
0
0
0
0
0
0
0
0
0
0
0
0
0
0
0
0
0
0
0
0
0
0
0
0
0
0
0
0
0
0
0
0
0
0
0
0
0
0
0
0
0
0
0
0
0
0
0
0
0
0
0
0
0
0
0
0
0
0
0
0
0
0
0
0
0
0
0
0
0
0
0
0
0
0
0
0
0
0
0
0
0
0
0
0
0
0
0
0
0
0
0
0
0
0
0
0
0
0
0
0
0
0
0
0
0
0
0
0
0
0
0
0
0
0
0
0
0
0
0
0
0
0
0
0
0
0
0
0
0
0
0
0
0
0
0
0
0
0
0
0
0
0
0
0
0
0
0
0
0
0
0
0
0
0
0
0
0
0
0
0
0
0
0
0
0
0
0
0
0
0
0
0
0
0
0
0
0
0
0
0
0
0
0
0
0
0
0
0
0
0
0
0
0
0
0
0
0
0
0
0
0
0
0
0
0
0
0
0
0
0
0
0
0
0
0
0
0
0
0
0
0
0
0
0
0
0
0
0
0
0
0
0
0
0
0
0
0
0
0
0
0
0
0
0
0
0
0
0
0
0
0
0
0
0
0
0
0
0
0
0
0
0
0
0
0
0
0
0
0
0
0
0
0
0
0
0
0
0
0
0
0
0
0
0
0
0
0
0
0
0
0
0
0
0
0
0
0
0
0
0
0
0
0
0
0
0
0
0
0
0
0
0
0
0
0
0
0
0
0
0
0
0
0
0
0
0
0
0
0
0
0
0
0
0
0
0
0
0
0
0
0
0
0
0
0
0
0
0
0
0
0
0
0
0
0
0
0
0
0
0
0
0
0
0
0
0
0
0
0
0
0
0
0
0
0
0
0
0
0
0
0
0
0
0
0
0
0
0
0
0
0
0
0
0
0
0
0
0
0
0
0
0
0
0
0
0
0
0
0
0
0
0
0
0
0
0
0
0
0
0
0
0
0
0
0
0
0
0
0
0
0
0
0
0
0
0
0
0
0
0
0
0
0
0
0
0
0
0
0
0
0
0
0
0
0
0
0
0
0
0
0
0
0
0
0
0
0
0
0
0
0
0
0
0
0
0
0
0
0
0
0
0
0
0
0
0
0
0
0
0
0
0
0
0
0
0
0
0
0
0
0
0
0
0
0
0
0
0
0
0
0
0
0
0
0
0
0
0
0
0
0
0
0
0
0
0
0
0
0
0
0
0
0
0
0
0
0
0
0
0
0
0
0
0
0
0
0
0
0
0
0
0
0
0
0
0
0
0
0
0
0
0
0
0
0
0
0
0
0
0
0
0
0
0
0
0
0
0
0
0
0
0
0
0
0
0
0
0
0
0
0
0
0
0
0
0
0
0
0
0
0
0
0
0
0
0
0
0
0
0
0
0
0
0
0
0
0
0
0
0
0
0
0
0
0
0
0
0
0
0
0
0
0
0
0
0
0
0
0
0
0
0
0
0
0
0
0
0
0
0
0
0
0
0
0
0
0
0
0
0
0
0
0
0
0
0
0
0
0
0
0
0
0
0
0
0
0
0
0
0
0
0
0
0
0
0
0
0
0
0
0
0
0
0
0
0
0
0
0
0
0
0
0
0
0
0
0
0
0
0
0
0
0
0
0
0
0
0
0
0
0
0
0
0
0
0
0
0
0
0
0
0
0
0
0
0
0
0
0
0
0
0
0
0
0
0
0
0
0
0
0
0
0
0
0
0
0
0
0
0
0
0
0
0
0
0
0
0
0
0
0
0
0
0
0
0
0
0
0
0
0
0
0
0
0
0
0
0
0
0
0
0
0
0
0
0
0
0
0
0
0
0
0
0
0
0
0
0
0
0
0
0
0
0
0
0
0
0
0
0
0
0
0
0
0
0
0
0
0
0
0
0
0
0
0
0
0
0
0
0
0
0
0
0
0
0
0
0
0
0
0
0
0
0
0
0
0
0
0
0
0
0
0
0
0
0
0
0
0
0
0
0
0
0
0
0
0
0
0
0
0
0
0
0
0
0
0
0
0
0
0
0
0
0
0
0
0
0
0
0
0
0
0
0
0
0
0
0
0
0
0
0
0
0
0
0
0
0
0
0
0
0
0
0
0
0
0
0
0
0
0
0
0
0
0
0
0
0
0
0
0
0
0
0
0
0
0
0
0
0
0
0
0
0
0
0
0
0
0
0
0
0
0
0
0
0
0
0
0
0
0
0
0
0
0
0
0
0
0
0
0
0
0
0
0
0
0
0
0
0
0
0
0
0
0
0
0
0
0
0
0
0
0
0
0
0
0
0
0
0
0
0
0
0
0
0
0
0
0
0
0
0
0
0
0
0
0
0
0
0
0
0
0
0
0
0
0
0
0
0
0
0
0
0
0
0
0
0
0
0
0
0
0
0
0
0
0
0
0
0
0
0
0
0
0
0
0
0
0
0
0
0
0
0
0
0
0
0
0
0
0
0
0
0
0
0
0
0
0
0
0
0
0
0
0
0
0
0
0
0
0
0
0
0
0
0
0
0
0
0
0
0
0
0
0
0
0
0
0
0
0
0
0
0
0
0
0
0
0
0
0
0
0
0
0
0
0
0
0
0
0
0
0
0
0
0
0
0
0
0
0
0
0
0
0
0
0
0
0
0
0
0
0
0
0
0
0
0
0
0
0
0
0
0
0
0
0
0
0
0
0
0
0
0
0
0
0
0
0
0
0
0
0
0
0
0
0
0
0
0
0
0
0
0
0
0
0
0
0
0
0
0
0
0
0
0
0
0
0
0
0
0
0
0
0
0
0
0
0
0
0
0
0
0
0
0
0
0
0
0
0
0
0
0
0
0
0
0
0
0
0
0
0
0
0
0
0
0
0
0
0
0
0
0
0
0
0
0
0
0
0
0
0
0
0
0
0
0
0
0
0
0
0
0
0
0
0
0
0
0
0
0
0
0
0
0
0
0
0
0
0
0
0
0
0
0
0
0
0
0
0
0
0
0
0
0
0
0
0
0
0
0
0
0
0
0
0
0
0
0
0
