0.0298676
0.19889
0.38889
0.600251
0.825005
1.04017
1.21574
1.32149
1.33581
1.25384
1.09106
0.880375
0.66401
0.483314
0.356251
0.275371
0.230625
0.219725
0.240594
0.288549
0.358209
0.441791
0.527983
0.606863
0.672011
0.721961
0.760414
0.794949
0.834588
0.892656
0.972592
1.05718
1.11797
1.12699
1.06782
0.941001
0.762316
0.555976
0.346582
0.149616
-0.0302433
-0.19082
-0.334627
-0.461989
0
1.11273
3.01001
5.56083
8.28059
10.4506
11.4057
10.8464
8.99734
6.51285
4.17297
2.54273
1.78256
1.69269
1.84018
1.78667
1.71138
1.61306
1.49158
1.35127
1.20033
1.04941
0.909359
0.78811
0.691899
0.625418
0.591186
0.594202
0.649668
0.774271
0.940697
1.10318
1.21599
1.25166
1.21535
1.14553
1.09754
1.11638
1.21255
1.33968
1.46555
1.55782
1.59541
1.57565
1.51476
1.43639
1.55413
2.20515
3.10306
3.89791
4.28753
4.15273
3.59748
2.87136
2.24026
1.92192
2.01464
2.24234
2.50079
2.77042
3.04063
3.29315
3.50919
3.67271
3.7732
3.80759
3.78026
3.70131
3.5834
3.4386
3.27677
3.10696
2.93522
2.76567
2.60203
2.44769
2.30533
2.1765
2.05912
1.94573
1.82638
1.69124
1.53371
1.3495
1.1406
0.935015
0.767334
0.66609
0.643143
0.689658
0.780267
0.88344
0.973518
1.04326
1.09995
1.15147
1.21118
1.32459
1.59049
1.95873
2.31423
2.52375
2.49603
2.23236
1.83413
1.45757
1.24172
1.23692
1.31071
1.40807
1.51523
1.62545
1.73446
1.84098
1.94676
2.05608
2.1792
2.33748
2.53583
2.73949
2.89552
2.95667
2.90308
2.75197
2.55232
2.36842
2.25907
2.23504
2.267
2.33391
2.43138
2.55525
2.69445
2.82797
2.93412
2.99575
3.00401
2.961
2.87967
2.78037
2.68501
2.61131
2.56353
2.53629
2.52545
2.52898
2.54521
2.57177
2.60568
2.64448
2.6864
2.73025
2.77495
2.81858
2.85578
2.87799
2.8753
2.84041
2.77237
2.67811
2.57062
2.46462
2.37213
2.2957
2.23441
2.18794
2.1546
2.13181
2.11649
2.10294
2.08498
2.0575
2.01826
1.96947
1.91834
1.87622
1.85659
1.87106
1.96352
2.20268
2.56413
2.94488
3.25087
3.42957
3.47296
3.39797
3.22395
2.96617
2.64797
2.31807
2.02652
1.80011
1.63727
1.52143
1.44011
1.38992
1.36675
1.36557
1.38051
1.40542
1.43443
1.46225
1.48479
1.49956
1.50579
1.50425
1.49675
1.48524
1.47069
1.45196
1.42479
1.38186
1.31355
1.17934
0.900824
0.492348
0.00964508
-0.440003
0
1.57592
4.26425
7.63869
10.9371
13.2767
13.979
12.8611
10.3291
7.19608
4.32037
2.27106
1.19144
0.886285
1.03606
1.18525
1.32449
1.44757
1.54924
1.62877
1.68627
1.72355
1.74351
1.74928
1.74296
1.72666
1.70195
1.67043
1.63441
1.59727
1.56341
1.53759
1.52411
1.5256
1.5427
1.57529
1.62219
1.68159
1.75086
1.82781
1.91043
1.99647
2.08224
2.16159
2.22781
2.27544
2.3024
2.31164
2.31127
2.31287
2.32834
2.36649
2.42873
2.50943
2.60321
2.70627
2.8153
2.92808
3.04379
3.16301
3.28711
3.41756
3.55533
3.69841
3.83328
3.9345
3.96947
3.90738
3.73414
3.46661
3.1552
2.86882
2.66617
2.55028
2.49535
2.467
2.42479
2.33839
2.19861
2.01863
1.82522
1.64542
1.49561
1.36759
1.25617
1.16012
1.07873
1.01208
0.960465
0.924593
0.90308
0.89192
0.886293
0.882175
0.877719
0.873658
0.872528
0.877044
0.888392
0.904621
0.922384
0.936961
0.943377
0.937564
0.917225
0.882261
0.834767
0.778714
0.719531
0.663139
0.615412
0.581545
0.565623
0.570755
0.598234
0.64842
0.721638
0.813485
0.910373
0.995139
1.05314
1.07628
1.06521
1.02862
0.979626
0.930494
0.888126
0.851586
0.816782
0.779242
0.736571
0.689879
0.643314
0.602128
0.570444
0.548522
0.534207
0.526455
0.524198
0.526839
0.534389
0.547227
0.565604
0.589026
0.616319
0.644908
0.670938
0.690257
0.699394
0.696414
0.681424
0.656535
0.625276
0.591655
0.559178
0.53013
0.505639
0.486106
0.471949
0.464215
0.464691
0.475368
0.499702
0.53861
0.585219
0.628491
0.656228
0.658739
0.631584
0.576372
0.499544
0.409878
0.315945
0.223422
0.134796
0.0510469
-0.0273325
-0.099571
-0.163997
-0.216916
-0.242631
-0.169166
0.146907
0.618309
1.0652
1.29809
1.2098
0.829051
0.304806
-0.168867
-0.445628
-0.541084
-0.578783
-0.594763
-0.595231
-0.580312
-0.548089
-0.49228
-0.410108
-0.317895
-0.239059
-0.195799
-0.199033
-0.241978
-0.301413
-0.346824
-0.353379
-0.313364
-0.247843
-0.171657
-0.09821
-0.0399971
-0.00655384
-0.00350285
-0.0325045
-0.091696
-0.176131
-0.278457
-0.391095
-0.506106
-0.617362
-0.72188
-0.815558
0
1.44578
3.58617
6.255
8.95347
10.9589
11.6288
10.7394
8.63987
6.10344
3.95191
2.67748
2.28303
2.40842
2.23365
1.99757
1.74291
1.47177
1.18757
0.904339
0.644823
0.431552
0.281166
0.200521
0.185689
0.22396
0.297872
0.389655
0.484443
0.573573
0.651539
0.713603
0.757739
0.783859
0.794133
0.793062
0.786841
0.781936
0.783354
0.793448
0.811644
0.835652
0.863355
0.89447
0.931183
0.977506
1.03783
1.11547
1.20915
1.31685
1.43774
1.57089
1.71525
1.86954
2.03248
2.20199
2.37447
2.54548
2.70969
2.85927
2.98309
3.07395
3.12566
3.13393
3.09784
3.02075
2.90938
2.77097
2.61014
2.4275
2.22695
2.01284
1.78778
1.55734
1.33013
1.11668
0.933004
0.804906
0.742669
0.725427
0.719567
0.691979
0.622697
0.511657
0.3772
0.247477
0.148722
0.0883848
0.0562569
0.0475382
0.0568659
0.0783379
0.10665
0.137243
0.165195
0.182264
0.177296
0.13681
0.0484356
-0.108305
-0.358471
-0.65199
-0.917925
-1.09334
-1.14668
-1.08495
-0.944165
-0.770876
-0.604177
-0.460395
-0.33236
-0.213117
-0.0990341
0.0103785
0.109575
0.17981
0.190548
0.110903
-0.0749754
-0.400099
-0.784804
-1.1186
-1.31058
-1.32783
-1.20083
-0.996439
-0.778341
-0.580202
-0.39707
-0.229883
-0.083976
0.0249512
0.0768154
0.0590233
-0.023464
-0.14635
-0.273785
-0.371322
-0.41863
-0.4301
-0.418085
-0.385979
-0.336574
-0.272324
-0.195125
-0.105026
-0.000822449
0.116642
0.236458
0.3384
0.399659
0.402304
0.340569
0.22472
0.0794243
-0.0632711
-0.173854
-0.241192
-0.275624
-0.285257
-0.27559
-0.254292
-0.23064
-0.213373
-0.208442
-0.217842
-0.239098
-0.265591
-0.287867
-0.295829
-0.281361
-0.241038
-0.174813
-0.0904745
0.00024128
0.0847069
0.152372
0.196664
0.215372
0.20978
0.183232
0.140351
0.0871422
0.0278944
-0.0334627
-0.0925022
-0.144162
-0.182813
-0.203519
-0.202566
-0.178261
-0.131544
-0.0647396
0.0163897
0.101569
0.179873
0.241734
0.280639
0.294111
0.28383
0.254982
0.215092
0.172687
0.135211
0.107787
0.0936499
0.0946404
0.110904
0.14053
0.180109
0.225274
0.270693
0.308795
0.332021
0.333708
0.309076
0.256154
0.176342
-0.0437332
0
1.00616
3.1014
5.85248
8.41849
9.96397
10.0695
8.88281
6.95032
4.88872
3.12704
1.83877
1.02125
0.602077
0.600075
0.6567
0.719881
0.785225
0.847719
0.89969
0.933288
0.941973
0.922619
0.877309
0.814068
0.745992
0.688735
0.656922
0.658403
0.69056
0.753242
0.841271
0.941994
1.04151
1.12753
1.19159
1.23014
1.24467
1.24094
1.22751
1.214
1.20815
1.21506
1.23879
1.27835
1.32957
1.38838
1.45384
1.53007
1.62614
1.7537
1.95678
2.29328
2.69812
3.06741
3.30889
3.37979
3.2958
3.11475
2.91032
2.75
2.67223
2.65396
2.67129
2.71179
2.76857
2.8336
2.89864
2.95572
2.99701
3.0075
2.97655
2.8939
2.75239
2.55174
2.30138
2.02027
1.73295
1.46302
1.22523
1.02031
0.845572
0.693833
0.557467
0.432109
0.318756
0.223708
0.171007
0.258174
0.546673
0.926484
1.23508
1.33479
1.18095
0.845293
0.474679
0.205226
0.0887569
0.0440742
0.0237125
0.0186687
0.0300331
0.0603714
0.117653
0.216909
0.357671
0.512388
0.644586
0.721911
0.727488
0.664924
0.555867
0.43192
0.324117
0.250076
0.205914
0.181874
0.170346
0.16588
0.162846
0.156383
0.143146
0.12181
0.0933012
0.0607616
0.0292318
0.00486088
-0.00473881
0.0162451
0.101476
0.279676
0.503336
0.699766
0.797534
0.754155
0.575023
0.314029
0.0517391
-0.140873
-0.237083
-0.282909
-0.307488
-0.31834
-0.320819
-0.319604
-0.319211
-0.32508
-0.342446
-0.37494
-0.422659
-0.480902
-0.540566
-0.590444
-0.620592
-0.62551
-0.609324
-0.576112
-0.532702
-0.487224
-0.447158
-0.419858
-0.410982
-0.424343
-0.461368
-0.520564
-0.59725
-0.683837
-0.770825
-0.848435
-0.90859
-0.941994
-0.943538
-0.921409
-0.888945
-0.858224
-0.834652
-0.814201
-0.784604
-0.730297
-0.639339
-0.509509
-0.34873
-0.179958
-0.0307562
0.0758165
0.128064
0.127591
0.0861469
0.0194336
-0.0590628
-0.140923
-0.223696
-0.307125
-0.391354
-0.475726
-0.556765
-0.627991
-0.681412
-0.709909
-0.709532
-0.680734
-0.6281
-0.558775
-0.480306
-0.398968
-0.318153
-0.239006
-0.161769
-0.0863493
-0.0127478
0.0584105
0.125169
0.183348
0.227247
0.250689
0.248151
0.216356
0.155468
0.0694727
-0.107144
0
0.937925
2.89768
5.64895
8.50356
10.5503
11.078
9.9432
7.63747
5.00699
2.81788
1.44621
0.845405
0.728841
0.728504
0.724087
0.720026
0.717094
0.71565
0.715149
0.713995
0.710532
0.704186
0.696468
0.691293
0.69434
0.711548
0.747268
0.802543
0.873938
0.956866
1.04544
1.13384
1.21743
1.29317
1.35824
1.41164
1.4537
1.48564
1.50997
1.53102
1.55485
1.58839
1.63798
1.7077
1.79579
1.89803
2.01065
2.12849
2.2445
2.35064
2.44057
2.51067
2.56096
2.59548
2.62189
2.65014
2.69046
2.75103
2.8355
2.94093
3.06156
3.1914
3.32304
3.44833
3.55768
3.63952
3.68519
3.68794
3.64306
3.54868
3.4065
3.22195
3.00348
2.76128
2.5059
2.24771
1.9934
1.74854
1.518
1.30601
1.11591
0.950013
0.809487
0.69439
0.603822
0.535897
0.488281
0.458754
0.444031
0.440783
0.446345
0.459155
0.478994
0.506925
0.544864
0.595016
0.660584
0.745216
0.848725
0.955989
1.04387
1.09077
1.08546
1.03327
0.955957
0.883903
0.843833
0.848402
0.882569
0.929703
0.981781
1.03272
1.07803
1.11524
1.14399
1.1657
1.18334
1.20057
1.22161
1.25072
1.29212
1.35221
1.44152
1.56105
1.68593
1.78228
1.81916
1.78141
1.67704
1.53486
1.39308
1.28476
1.2215
1.18889
1.17696
1.18368
1.20741
1.24689
1.30184
1.37217
1.4581
1.56053
1.67891
1.80329
1.91487
1.99388
2.02516
2.0029
1.93256
1.82905
1.71225
1.60189
1.5114
1.44243
1.39636
1.37533
1.37921
1.40539
1.44897
1.50318
1.56034
1.61302
1.6554
1.68348
1.69544
1.6914
1.67293
1.64228
1.60212
1.55486
1.5027
1.44791
1.39329
1.34336
1.30372
1.28025
1.27796
1.29975
1.34561
1.41256
1.49534
1.58753
1.68265
1.77541
1.86218
1.93994
2.00631
2.05943
2.09772
2.11983
2.12415
2.10974
2.07622
2.02419
1.95561
1.87389
1.78368
1.69013
1.59789
1.51013
1.42831
1.3513
1.27642
1.20089
1.12324
1.04422
0.96697
0.896175
0.836666
0.791399
0.761387
0.744236
0.73331
0.717576
0.684123
0.620916
0.519183
0.375318
0.190579
-0.0259247
-0.26021
-0.516526
0
1.50273
3.92945
6.81186
9.40701
10.986
11.1397
9.93688
7.85507
5.54139
3.54003
2.1197
1.25943
0.763412
0.541718
0.426425
0.331941
0.26185
0.217941
0.199532
0.203895
0.226972
0.264085
0.310029
0.36004
0.410318
0.457247
0.497573
0.528589
0.548397
0.556145
0.552196
0.538152
0.516723
0.491473
0.466316
0.445129
0.431392
0.427808
0.436154
0.457727
0.493536
0.544313
0.610567
0.692515
0.789945
0.902092
1.02764
1.16482
1.31169
1.46653
1.6278
1.79442
1.96517
2.13606
2.2973
2.43528
2.53565
2.5878
2.58886
2.54534
2.47159
2.38563
2.30362
2.23421
2.1762
2.1248
2.0758
2.02501
1.96922
1.90676
1.83737
1.76161
1.68001
1.59274
1.49956
1.39972
1.2929
1.17964
1.0615
0.940638
0.819114
0.698022
0.576869
0.453474
0.324498
0.184113
0.0231741
-0.157581
-0.334673
-0.474709
-0.5466
-0.533575
-0.439939
-0.290116
-0.120625
0.0319141
0.146036
0.227455
0.286511
0.326775
0.352346
0.366433
0.371639
0.369355
0.359991
0.343898
0.322202
0.297173
0.272016
0.250235
0.23491
0.22734
0.22785
0.236844
0.25443
0.280517
0.314832
0.35678
0.405499
0.459468
0.514435
0.562494
0.594918
0.604876
0.590253
0.555323
0.510276
0.468413
0.44195
0.43806
0.452594
0.480266
0.513644
0.544036
0.563041
0.563766
0.542509
0.498985
0.436405
0.361119
0.281759
0.20791
0.148521
0.110455
0.0950798
0.103225
0.133333
0.181933
0.243993
0.31497
0.387489
0.453337
0.505905
0.541834
0.562086
0.571745
0.578318
0.589086
0.608544
0.636035
0.668072
0.701159
0.731772
0.757386
0.77699
0.790972
0.800508
0.806684
0.809837
0.809397
0.804076
0.792631
0.774744
0.751713
0.726719
0.704606
0.691254
0.692024
0.710589
0.749363
0.809383
0.889604
0.987724
1.09902
1.21495
1.32588
1.42248
1.4967
1.54233
1.55508
1.53247
1.47362
1.37931
1.25298
1.09819
0.918925
0.7251
0.530624
0.352532
0.209372
0.114239
0.0759104
0.0982622
0.179047
0.308589
0.469865
0.641201
0.801283
0.935379
1.0432
1.12947
1.19121
1.22425
1.22409
1.1829
1.09096
0.865201
0.475793
-0.0358358
-0.601098
-0.806546
0
1.91853
4.78111
8.04858
10.9191
12.608
12.6785
11.2404
8.8773
6.33691
4.18084
2.6093
1.53704
0.806442
0.568996
0.515058
0.479501
0.458731
0.452385
0.461476
0.486898
0.529676
0.590085
0.668124
0.762164
0.863852
0.963258
1.05164
1.12399
1.1802
1.22444
1.26302
1.30171
1.34355
1.38805
1.43352
1.47754
1.51787
1.55311
1.58311
1.60896
1.63318
1.65947
1.69242
1.73723
1.79914
1.8828
1.99151
2.1266
2.28631
2.46684
2.66408
2.87285
3.08717
3.30092
3.507
3.69849
3.86903
4.01331
4.12743
4.209
4.25701
4.27144
4.25295
4.20356
4.12555
4.02157
3.89549
3.75266
3.59986
3.44485
3.29504
3.15684
3.03525
2.93305
2.85029
2.78434
2.73045
2.68261
2.63488
2.58246
2.52265
2.45515
2.38196
2.30666
2.2333
2.16539
2.10574
2.05319
2.00337
1.95162
1.89611
1.8402
1.79508
1.77675
1.80091
1.87875
2.03438
2.24455
2.46102
2.63441
2.73097
2.74128
2.67922
2.57359
2.45683
2.35517
2.27719
2.21909
2.17641
2.14647
2.12744
2.1174
2.11433
2.11687
2.12458
2.13817
2.1595
2.19118
2.23609
2.2995
2.38821
2.50072
2.61818
2.71693
2.77709
2.79096
2.7669
2.72645
2.69524
2.69161
2.71696
2.75667
2.7969
2.82447
2.83146
2.81698
2.78572
2.74472
2.70027
2.65673
2.6164
2.58216
2.55788
2.54814
2.55755
2.58956
2.64514
2.72438
2.82386
2.92981
3.02565
3.09633
3.13166
3.128
3.08802
3.019
2.93058
2.83292
2.73577
2.64779
2.57719
2.53141
2.51638
2.53556
2.58924
2.67428
2.78443
2.91111
3.04402
3.17422
3.2944
3.3995
3.48742
3.55909
3.61774
3.66747
3.71164
3.7514
3.78515
3.80868
3.81619
3.80157
3.7598
3.68799
3.58615
3.45758
3.3098
3.1521
2.99397
2.84413
2.70905
2.59339
2.49811
2.41782
2.34114
2.25207
2.13227
1.96388
1.73253
1.43004
1.05654
0.595632
0.0487236
-0.5121
-1.01193
-1.39633
-1.64322
-1.75875
-1.76264
-1.67414
-1.5079
-1.29149
-1.04201
-0.795563
-0.593902
-0.47126
-0.442889
-0.501869
-0.624566
-0.779319
0
1.69995
4.33328
7.675
11.1373
13.8336
14.908
13.9929
11.4884
8.41227
5.86677
4.4639
4.09155
4.15464
3.93444
3.70712
3.47875
3.25021
3.02289
2.79897
2.58229
2.3802
2.20033
2.05077
1.93821
1.86631
1.83502
1.84109
1.87982
1.94696
2.03859
2.15102
2.28452
2.43928
2.61491
2.81255
3.02393
3.23005
3.41045
3.54876
3.63728
3.67886
3.68593
3.67709
3.6728
3.69034
3.73677
3.81369
3.92197
4.06232
4.23433
4.43591
4.66341
4.91173
5.17469
5.44547
5.71724
5.9838
6.24021
6.48332
6.71219
6.92804
7.1338
7.33238
7.52749
7.72224
7.90282
8.03714
8.08589
8.01928
7.83083
7.54169
7.1941
6.83775
6.51214
6.22055
5.95703
5.72235
5.51798
5.3443
5.20102
5.09019
5.01975
4.98899
4.98128
4.97644
4.95638
4.91077
4.8399
4.75282
4.66183
4.57639
4.49815
4.42425
4.35312
4.28399
4.21773
4.15722
4.10697
4.07203
4.06069
4.08472
4.14464
4.21794
4.27507
4.29001
4.25004
4.16052
4.04216
3.92189
3.82169
3.7477
3.69028
3.64389
3.60474
3.57047
3.54436
3.57353
3.97594
4.67044
5.3958
5.85508
5.86816
5.45137
4.78894
4.12919
3.67888
3.56013
3.5308
3.50725
3.47802
3.43694
3.38031
3.30409
3.21091
3.1144
3.03206
2.98058
2.97179
3.01015
3.09233
3.20877
3.34656
3.4929
3.63828
3.77925
3.91594
4.05039
4.18586
4.32627
4.47534
4.63768
4.81748
5.01012
5.19656
5.35299
5.45855
5.50175
5.48422
5.42038
5.3335
5.24934
5.18926
5.15845
5.15079
5.16144
5.18535
5.21436
5.24145
5.263
5.28025
5.29936
5.32982
5.3816
5.46192
5.57217
5.7047
5.84998
5.9998
6.14619
6.28246
6.40386
6.50803
6.59479
6.66563
6.72309
6.77011
6.80952
6.84363
6.87393
6.90083
6.92341
6.93928
6.94466
6.93445
6.90264
6.84274
6.74851
6.61464
6.43743
6.21547
5.95064
5.64799
5.31422
4.95747
4.58697
4.21208
3.84171
3.48371
3.14422
2.82715
2.5339
2.26328
2.01175
1.77392
1.54342
1.31376
1.07929
0.835779
0.578975
0.208097
0
0.512406
2.05798
4.61374
7.69949
10.4271
11.7971
11.157
8.57455
4.86954
1.22696
-1.39557
-2.69403
-3.01954
-3.01466
-2.99983
-2.98009
-2.95632
-2.93861
-2.94218
-2.98212
-3.06666
-3.19225
-3.34306
-3.4955
-3.62574
-3.7167
-3.77425
-3.79774
-3.7895
-3.75317
-3.69363
-3.61684
-3.52658
-3.42551
-3.31647
-3.20233
-3.08577
-2.96898
-2.85354
-2.74038
-2.62992
-2.52212
-2.4164
-2.31159
-2.2057
-2.09589
-1.97857
-1.84976
-1.70572
-1.54365
-1.36231
-1.16247
-0.946925
-0.720103
-0.48746
-0.254708
-0.0271671
0.190611
0.394925
0.581766
0.747
0.888402
1.00452
1.09502
1.16091
1.20442
1.22831
1.23477
1.22219
1.18874
1.13087
1.04466
0.928117
0.782909
0.615002
0.433807
0.250349
0.0752304
-0.0855015
-0.227702
-0.345202
-0.435242
-0.496708
-0.530501
-0.531326
-0.507825
-0.474574
-0.446246
-0.432972
-0.437212
-0.453791
-0.473143
-0.486155
-0.488232
-0.482937
-0.474466
-0.466834
-0.463252
-0.465051
-0.47131
-0.479245
-0.485128
-0.485396
-0.477706
-0.461546
-0.438089
-0.409466
-0.378564
-0.349217
-0.326791
-0.316281
-0.321626
-0.344688
-0.384426
-0.436723
-0.495171
-0.552707
-0.603599
-0.645335
-0.679162
-0.707698
-0.734681
-0.763727
-0.797374
-0.836656
-0.881225
-0.929786
-0.980555
-1.03151
-1.08067
-1.12584
-1.16453
-1.19404
-1.21167
-1.21503
-1.20309
-1.17534
-1.13253
-1.07682
-1.01048
-0.938703
-0.868264
-0.805157
-0.75326
-0.713604
-0.684607
-0.663243
-0.646688
-0.63404
-0.62669
-0.628133
-0.642429
-0.672348
-0.717979
-0.776252
-0.841439
-0.906321
-0.963943
-1.00951
-1.04008
-1.05398
-1.05064
-1.03059
-0.995583
-0.947983
-0.890726
-0.828594
-0.766243
-0.706893
-0.651686
-0.599722
-0.548864
-0.49707
-0.443576
-0.390382
-0.341979
-0.303399
-0.277717
-0.264052
-0.256945
-0.247367
-0.224886
-0.164917
-0.00505958
0.3312
0.770882
1.21413
1.57094
1.7281
1.58937
1.1429
0.498905
-0.13557
-0.515838
-0.520809
-0.393066
-0.238826
-0.0803092
0.0732339
0.213972
0.335581
0.43369
0.505948
0.551557
0.570728
0.564752
0.535703
0.486481
0.420528
0.341333
0.255573
0.171362
0.09663
0.0380239
0
-0.0198866
-0.018269
0.00174761
0.0354258
0.108364
0.576269
1.61034
3.49846
6.33275
9.74486
12.8471
14.5413
14.0831
11.5438
7.83323
4.24052
1.77649
0.7283
0.675914
0.849987
0.829495
0.825687
0.855292
0.92422
1.02554
1.14172
1.25068
1.33316
1.37937
1.39362
1.37907
1.34124
1.28641
1.22341
1.15875
1.10056
1.05863
1.04305
1.06206
1.11968
1.21392
1.34471
1.49261
1.63263
1.74214
1.80666
1.82295
1.79868
1.74922
1.69323
1.6487
1.62559
1.62736
1.65718
1.71865
1.81421
1.94474
2.10935
2.30515
2.52733
2.76925
3.02269
3.27841
3.52624
3.75562
3.95755
4.12494
4.25294
4.33888
4.38177
4.38165
4.33898
4.25433
4.12966
3.96737
3.76991
3.5414
3.28797
3.01759
2.73966
2.46372
2.19851
1.95121
1.727
1.52913
1.35748
1.20937
1.08108
0.969107
0.871176
0.786599
0.716032
0.660629
0.622223
0.602069
0.596497
0.599434
0.604695
0.608168
0.609361
0.611696
0.621469
0.645897
0.690953
0.764477
0.876722
1.02242
1.16653
1.26882
1.29655
1.23875
1.11568
0.975128
0.872854
0.84624
0.889973
0.961729
1.04079
1.11754
1.18503
1.23986
1.28196
1.31379
1.33894
1.36098
1.38204
1.40253
1.42088
1.43395
1.43831
1.43167
1.41422
1.38928
1.36318
1.34421
1.34093
1.36269
1.42482
1.53712
1.68064
1.81677
1.90668
1.92349
1.86085
1.73531
1.5811
1.43875
1.34231
1.29982
1.29719
1.32286
1.3724
1.44332
1.53189
1.63507
1.746
1.8552
1.9534
2.03314
2.08992
2.12246
2.13198
2.12105
2.0925
2.05062
1.99789
1.93653
1.86903
1.79806
1.72622
1.65572
1.5881
1.52471
1.46703
1.41703
1.37679
1.34857
1.33432
1.33531
1.35186
1.38357
1.42966
1.48952
1.56282
1.64946
1.75061
1.86938
2.01159
2.1851
2.3901
2.60386
2.78967
2.90961
2.93269
2.84228
2.64235
2.36169
2.05356
1.78617
1.60912
1.51742
1.4933
1.53136
1.61946
1.74232
1.88457
2.03388
2.17137
2.27577
2.32524
2.30439
2.21415
2.07675
1.93012
1.81228
1.74284
1.70461
1.66958
1.5989
1.4555
1.21612
0.878386
0.461224
0
0.260403
1.7571
4.5755
8.31777
12.129
14.9608
15.991
14.9971
12.4566
9.30332
6.47872
4.53814
3.52038
3.10422
2.91065
2.82887
2.75449
2.68704
2.62816
2.57871
2.53906
2.50939
2.49008
2.48202
2.48656
2.50542
2.53996
2.59106
2.65861
2.74098
2.83535
2.9372
3.04044
3.13933
3.22976
3.31025
3.38233
3.45008
3.51901
3.59444
3.67999
3.77605
3.88021
3.98819
4.09417
4.19234
4.27822
4.34972
4.40761
4.45545
4.49898
4.54515
4.60085
4.67159
4.76086
4.86954
4.99562
5.13482
5.28076
5.42362
5.55193
5.65543
5.72643
5.76065
5.75737
5.71887
5.64944
5.55408
5.43723
5.30354
5.15533
4.99209
4.81134
4.61042
4.38731
4.14187
3.87684
3.59833
3.31536
3.03867
2.77895
2.54557
2.34545
2.18035
2.04839
1.94544
1.86679
1.80853
1.76841
1.74585
1.74163
1.7619
1.82551
1.98649
2.2988
2.69463
3.06495
3.25912
3.14989
2.72015
2.10006
1.51888
1.1982
1.18324
1.24886
1.33031
1.41377
1.48888
1.54754
1.58447
1.59736
1.58665
1.55516
1.50767
1.45029
1.38979
1.33275
1.28475
1.24888
1.22625
1.21725
1.21888
1.22532
1.23
1.22707
1.21251
1.18471
1.14441
1.09401
1.03659
0.975058
0.911284
0.845891
0.778714
0.709303
0.63746
0.563717
0.489579
0.417447
0.350217
0.290913
0.242683
0.206733
0.181985
0.166064
0.156098
0.149435
0.144046
0.138596
0.132397
0.125808
0.120847
0.12188
0.135759
0.170848
0.234827
0.331866
0.461272
0.618142
0.783157
0.933611
1.04973
1.11968
1.14134
1.12077
1.06841
0.995008
0.910521
0.821172
0.730006
0.639067
0.550356
0.466115
0.388846
0.321109
0.265218
0.222764
0.194303
0.179256
0.176238
0.182253
0.192968
0.203911
0.211178
0.211989
0.204961
0.190051
0.168239
0.141024
0.109991
0.0762363
0.0398788
0
-0.0388752
-0.0861973
-0.145277
-0.219501
-0.314871
-0.433618
-0.571356
-0.720201
-0.889301
-0.399904
1.01324
3.4042
6.43448
9.37409
11.3243
11.6087
10.132
7.46624
4.57427
2.32966
1.13327
0.846778
1.02044
0.902335
0.775627
0.644536
0.511254
0.380275
0.257606
0.149517
0.0601372
-0.00693436
-0.0504551
-0.0720905
-0.076092
-0.0683292
-0.0547688
-0.0402081
-0.0274944
-0.0172625
-0.00820713
0.00220451
0.016803
0.0378292
0.0662264
0.101962
0.143998
0.191108
0.242595
0.298717
0.360631
0.429877
0.507654
0.594217
0.688865
0.789992
0.896048
1.00633
1.12135
1.24249
1.37103
1.507
1.6491
1.79195
1.92827
2.05169
2.15927
2.25288
2.33857
2.42401
2.51907
2.61884
2.70299
2.74493
2.72532
2.64178
2.50958
2.35355
2.19647
2.05014
1.91212
1.77918
1.65003
1.52425
1.40222
1.28489
1.17339
1.06835
0.969093
0.874023
0.781199
0.689155
0.597567
0.507496
0.421096
0.340931
0.269294
0.207543
0.155981
0.114244
0.0818684
0.0587423
0.0451971
0.041707
0.0485468
0.0654791
0.0905874
0.121243
0.154812
0.189295
0.223536
0.256873
0.288386
0.315808
0.33571
0.344164
0.338483
0.319073
0.290435
0.260648
0.239253
0.237464
0.26463
0.312044
0.362755
0.401024
0.421263
0.431065
0.446352
0.482127
0.543231
0.615936
0.675723
0.699565
0.676899
0.613822
0.529526
0.448173
0.390759
0.36044
0.352874
0.365539
0.397027
0.445526
0.508517
0.582952
0.665487
0.752727
0.841421
0.928682
1.0121
1.08973
1.15991
1.22095
1.27131
1.3098
1.33556
1.34835
1.34894
1.33934
1.32275
1.30319
1.28479
1.27097
1.26403
1.26495
1.27268
1.28509
1.3
1.31601
1.33317
1.35292
1.37758
1.40937
1.44977
1.4997
1.55568
1.61307
1.66839
1.72134
1.77559
1.83759
1.91445
2.01782
2.13831
2.25429
2.34075
2.38063
2.37224
2.32872
2.26989
2.2116
2.15834
2.10403
2.04325
1.97194
1.88978
1.80107
1.7137
1.63688
1.57799
1.54138
1.52797
1.52841
1.52882
1.51447
1.47322
1.39787
1.28672
1.14284
0.972579
0.776388
0.56375
0.352508
0.160054
0
-0.0122721
0.80158
2.30042
4.47406
7.13446
9.8586
12.0355
13.0621
12.619
10.8441
8.27343
5.5821
3.30311
1.70281
0.837865
0.698939
1.18183
1.63915
1.95785
2.00472
1.72727
1.21828
0.691326
0.378231
0.401303
0.545925
0.729297
0.92031
1.09516
1.24285
1.37362
1.49218
1.60459
1.71651
1.83145
1.95007
2.07065
2.1883
2.29553
2.38474
2.44982
2.48744
2.4978
2.48456
2.4542
2.41499
2.37582
2.345
2.32842
2.33041
2.35545
2.40819
2.49265
2.61198
2.76809
2.96126
3.19246
3.47534
3.83803
4.28787
4.75311
5.14738
5.39538
5.44736
5.29886
5.00331
4.66082
4.37575
4.1976
4.06428
3.93372
3.79607
3.64621
3.48229
3.30592
3.1213
2.93402
2.74973
2.57319
2.40887
2.26096
2.1334
2.02923
1.95033
1.89976
1.88014
1.88658
1.90758
1.93065
1.94546
1.94617
1.93216
1.90695
1.87614
1.84515
1.81754
1.79438
1.77627
1.76294
1.75329
1.7447
1.73091
1.70406
1.65703
1.58654
1.49555
1.39365
1.29517
1.21545
1.16692
1.14686
1.15518
1.1895
1.24667
1.3215
1.40217
1.47474
1.5273
1.55245
1.54919
1.52351
1.48731
1.45561
1.44295
1.45719
1.49998
1.57776
1.68717
1.81019
1.92158
1.9977
2.02166
1.98707
1.8999
1.7782
1.64912
1.54369
1.50264
1.63734
1.91408
2.2199
2.42226
2.42967
2.23285
1.90859
1.58798
1.40481
1.43868
1.57254
1.73661
1.91049
2.07306
2.20752
2.30425
2.3616
2.38432
2.38025
2.35672
2.3183
2.26863
2.20889
2.14196
2.0739
2.01499
1.97686
1.96869
2.00493
2.07606
2.16272
2.24458
2.30935
2.35703
2.39736
2.44242
2.49897
2.56273
2.62009
2.65433
2.65271
2.61102
2.53392
2.4323
2.31954
2.20841
2.1061
2.01628
1.94162
1.88394
1.84365
1.81973
1.80952
1.80916
1.81308
1.81316
1.80049
1.76716
1.70797
1.62198
1.51354
1.39229
1.272
1.16916
1.12622
1.22052
1.4261
1.64951
1.78036
1.73298
1.47499
1.03196
0.466237
-0.15524
0
1.31607
3.91001
7.41323
10.9915
13.6206
14.5117
13.4619
10.9354
7.83117
5.07315
3.24382
2.43348
2.33801
2.44202
2.31441
2.18125
2.04757
1.91784
1.79733
1.69191
1.60706
1.54735
1.51588
1.51397
1.54103
1.59563
1.67682
1.78374
1.91115
2.04104
2.14762
2.20477
2.19301
2.10728
1.96228
1.79142
1.63817
1.54205
1.51315
1.52902
1.58522
1.66485
1.74786
1.8169
1.86187
1.88228
1.8871
1.89214
1.9159
1.97502
2.07499
2.21215
2.38066
2.57486
2.78823
3.01313
3.24162
3.46611
3.67956
3.87483
4.04412
4.18062
4.28003
4.3384
4.35243
4.32004
4.24132
4.11927
3.96035
3.77434
3.57397
3.37196
3.17789
2.99875
2.84027
2.7024
2.5809
2.46925
2.36081
2.25079
2.1375
2.02256
1.91003
1.80491
1.71053
1.62857
1.55996
1.50418
1.45983
1.4252
1.39881
1.37961
1.36688
1.36018
1.35911
1.36204
1.36687
1.37204
1.37761
1.38562
1.39969
1.42546
1.47084
1.52754
1.57652
1.59428
1.5624
1.4749
1.33985
1.17519
1.00223
0.840289
0.696741
0.581852
0.504091
0.469791
0.481803
0.538164
0.63154
0.749902
0.878362
1.00161
1.10548
1.17998
1.22008
1.2258
1.20167
1.15543
1.09633
1.03322
0.973056
0.919862
0.874248
0.836232
0.805852
0.782471
0.765781
0.75201
0.734293
0.705282
0.660107
0.59931
0.530277
0.46624
0.423042
0.414862
0.443309
0.508336
0.607575
0.735004
0.882303
1.03952
1.19827
1.35009
1.48496
1.59238
1.66525
1.69857
1.6909
1.64639
1.57597
1.49685
1.42979
1.39449
1.40207
1.46129
1.57928
1.72507
1.85953
1.9503
1.98424
1.97207
1.94346
1.93452
1.97328
2.08076
2.23832
2.40184
2.52369
2.57097
2.53544
2.43337
2.2976
2.16532
2.06484
1.99558
1.94303
1.89507
1.84023
1.7682
1.67267
1.55292
1.41372
1.26353
1.11186
0.966489
0.830327
0.70509
0.591687
0.490322
0.400886
0.32302
0.256735
0.201117
0.153048
0.108529
0.0634883
0.0147836
-0.0390216
-0.0973765
-0.157997
-0.217453
-0.271968
0
0.745401
2.13927
4.33396
7.12396
9.84691
11.6015
11.7044
10.0953
7.40232
4.61024
2.55269
1.55484
1.41697
1.67494
1.87018
2.06457
2.25648
2.43686
2.58369
2.66271
2.64043
2.50507
2.28289
2.03773
1.84965
1.78069
1.81273
1.91199
2.04221
2.16206
2.23958
2.26326
2.24534
2.21622
2.21257
2.26365
2.37073
2.5138
2.67965
2.85859
3.03743
3.19923
3.33068
3.42514
3.48394
3.51709
3.54253
3.58307
3.66091
3.79118
3.97648
4.19699
4.43386
4.66998
4.88959
5.0816
5.2415
5.37148
5.47871
5.57253
5.66065
5.74808
5.83252
5.9048
5.953
5.96688
5.94082
5.87437
5.77103
5.63634
5.47723
5.30279
5.11951
4.93198
4.74412
4.5596
4.38163
4.21313
4.05666
3.91436
3.78774
3.67762
3.58396
3.50557
3.44007
3.38407
3.33349
3.28436
3.23352
3.17916
3.12118
3.06113
3.00187
2.94713
2.90087
2.8666
2.84739
2.84575
2.8638
2.90537
2.97738
3.08522
3.21652
3.34011
3.42012
3.4264
3.34498
3.18472
2.97704
2.768
2.60426
2.50845
2.46505
2.46005
2.48634
2.53425
2.59374
2.65617
2.71603
2.77062
2.81853
2.85938
2.89347
2.92137
2.94366
2.96073
2.97266
2.97911
2.97914
2.97152
2.95479
2.92751
2.88843
2.83675
2.77211
2.69452
2.60431
2.50202
2.38897
2.26683
2.13759
2.00532
1.8774
1.76407
1.67571
1.62094
1.60448
1.62573
1.67847
1.75185
1.83239
1.90661
1.96456
2.00275
2.01918
2.01381
1.98874
1.94739
1.89383
1.83245
1.76693
1.7
1.63347
1.56821
1.50419
1.4406
1.37626
1.31017
1.24198
1.17237
1.10289
1.03561
0.972453
0.914998
0.863426
0.816189
0.771375
0.72808
0.687596
0.653816
0.632577
0.633092
0.671723
0.751272
0.852738
0.947744
1.00816
1.01422
0.957832
0.841202
0.673258
0.46639
0.236992
0
-0.0739555
0.427786
1.68834
3.69752
6.15063
8.47524
9.99159
10.1784
8.93083
6.65142
4.08582
1.97803
0.747098
0.373951
0.537325
0.705024
0.860719
1.00619
1.13834
1.25612
1.35899
1.44664
1.51775
1.56906
1.59709
1.59886
1.5721
1.51718
1.42996
1.32515
1.22762
1.163
1.14917
1.19028
1.27607
1.3868
1.50083
1.60149
1.68648
1.75663
1.81048
1.84824
1.8706
1.87896
1.87627
1.8678
1.86152
1.86772
1.89759
1.96119
2.0646
2.20946
2.39161
2.60138
2.82524
3.04807
3.2567
3.44043
3.59204
3.70788
3.78715
3.83079
3.84068
3.81889
3.76752
3.68893
3.58614
3.4631
3.3247
3.17632
3.02332
2.87002
2.71918
2.57199
2.42808
2.28592
2.14347
1.99898
1.8518
1.70295
1.5554
1.41398
1.28496
1.17485
1.08928
1.03184
1.00454
1.01017
1.04519
1.09572
1.14635
1.1837
1.1992
1.19052
1.16102
1.11782
1.0692
1.02221
0.980473
0.944883
0.915606
0.892381
0.8745
0.86101
0.850632
0.84207
0.834192
0.826218
0.817879
0.809484
0.801882
0.79629
0.794002
0.795976
0.802778
0.814403
0.83003
0.847374
0.863242
0.874193
0.877196
0.870152
0.852118
0.823226
0.78438
0.736946
0.683009
0.624762
0.564409
0.504447
0.44761
0.396519
0.353502
0.320169
0.295932
0.277626
0.26104
0.242344
0.219527
0.193345
0.16739
0.147265
0.139143
0.147778
0.174761
0.220916
0.285875
0.368546
0.468141
0.59389
0.778538
1.03873
1.32006
1.51596
1.5172
1.27984
0.8635
0.41216
0.0855203
-0.0222229
-0.0256941
0.00435324
0.0533729
0.108255
0.159519
0.202648
0.237376
0.2667
0.295215
0.327224
0.365259
0.410493
0.462219
0.518597
0.577524
0.637418
0.697607
0.758198
0.819496
0.881226
0.941394
0.995975
1.0395
1.06622
1.07156
1.05319
1.01162
0.949967
0.873012
0.785887
0.692851
0.596126
0.495917
0.391209
0.279558
0.157346
0.0240145
-0.109876
-0.224714
-0.298432
-0.313605
-0.26326
-0.153184
0
0.174527
0.349538
0.513526
0.666608
0.812897
0.953171
1.30071
2.0919
3.35575
5.04042
6.93532
8.66238
9.75466
9.83072
8.79236
6.92296
4.79092
2.98257
1.8188
1.23988
0.968159
0.874091
0.79686
0.739706
0.705911
0.695781
0.707461
0.738272
0.785981
0.848841
0.925871
1.01858
1.12767
1.24848
1.36941
1.47512
1.55149
1.58982
1.58968
1.55941
1.51391
1.47014
1.44163
1.43603
1.4477
1.46349
1.47131
1.46895
1.46804
1.49025
1.55726
1.67995
1.84588
2.03324
2.22867
2.42005
2.59875
2.7548
2.87565
2.95611
2.98585
2.95445
2.86248
2.7305
2.59869
2.51568
2.52154
2.61344
2.77064
2.992
3.25364
3.50474
3.70019
3.80991
3.82353
3.74981
3.61047
3.42972
3.22354
2.9954
2.74743
2.48323
2.20507
1.91559
1.62022
1.32853
1.05692
0.827306
0.65689
0.557216
0.531389
0.572669
0.671038
0.800378
0.932794
1.04593
1.12839
1.18088
1.21252
1.23429
1.25286
1.26843
1.27687
1.27346
1.2563
1.22807
1.19529
1.166
1.14682
1.13822
1.13774
1.14289
1.14966
1.15174
1.14254
1.11679
1.07205
1.00974
0.935464
0.85837
0.789624
0.740507
0.717429
0.735179
0.832643
1.06017
1.38751
1.72298
1.97801
2.09229
2.04812
1.86777
1.59957
1.30554
1.05467
0.890041
0.79795
0.752659
0.736743
0.74033
0.758169
0.785116
0.815955
0.846727
0.87545
0.902135
0.928264
0.955819
0.986981
1.02106
1.05177
1.07048
1.07088
1.05319
1.02528
0.999572
0.987139
0.992272
1.00821
1.02737
1.04156
1.04541
1.03833
1.02429
1.00971
1.0006
0.999255
1.0041
1.01242
1.02045
1.02363
1.01783
1.00047
0.971259
0.932704
0.890122
0.851154
0.825692
0.836869
0.933093
1.14301
1.40081
1.61414
1.69758
1.59922
1.31931
0.919071
0.512195
0.229604
0.135837
0.144667
0.231872
0.354755
0.466316
0.531487
0.538893
0.503219
0.457199
0.436449
0.463489
0.528586
0.613182
0.701175
0.776785
0.82896
0.853246
0.850589
0.823996
0.774979
0.702909
0.608723
0.489026
0.334532
0.147834
-0.0617911
-0.281396
-0.48568
0
1.20304
3.21759
5.86773
8.63922
10.7965
11.6684
10.9567
8.89101
6.14122
3.53343
1.71394
0.923728
0.972633
1.25438
1.344
1.42156
1.48886
1.54492
1.5868
1.61146
1.61494
1.59497
1.5534
1.49668
1.43403
1.37372
1.31995
1.27133
1.22471
1.17742
1.12993
1.08684
1.05601
1.04597
1.06245
1.10113
1.15984
1.23765
1.32833
1.41895
1.49695
1.55316
1.58421
1.59332
53
271
494
713
933
1156
1378
1599
1820
2041
2260
2462
2670
2881
3096
3291
3501
3711
2999
3165
3329
3494
3654
0
0
0
0
0
0
0
0
0
0
0
0
0
0
0
0
0
0
0
0
0
0
0
0
0
0
0
0
0
0
0
0
0
0
0
0
0
0
0
0
0
0
0
0
0
0
0
0
0
0
0
0
0
0
0
0
0
0
0
0
0
0
0
0
0
0
0
0
0
0
0
0
0
0
0
0
0
0
0
0
0
0
0
0
0
0
0
0
0
0
0
0
0
0
0
0
0
0
0
0
0
0
0
0
0
0
0
0
0
0
0
0
0
0
0
0
0
0
0
0
0
0
0
0
0
0
0
0
0
0
0
0
0
0
0
0
0
0
0
0
0
0
0
0
0
0
0
0
0
0
0
0
0
0
0
0
0
0
0
0
0
0
0
0
0
0
0
0
0
0
0
0
0
0
0
0
0
0
0
0
0
0
0
0
0
0
0
0
0
0
0
0
0
0
0
0
0
0
0
0
0
0
0
0
0
0
0
0
0
0
0
0
0
0
0
0
0
0
0
0
0
0
0
0
0
0
0
0
0
0
0
0
0
0
0
0
0
0
0
0
0
0
0
0
0
0
0
0
0
0
0
0
0
0
0
0
0
0
0
0
0
0
0
0
0
0
0
0
0
0
0
0
0
0
0
0
0
0
0
0
0
0
0
0
0
0
0
0
0
0
0
0
0
0
0
0
0
0
0
0
0
0
0
0
0
0
0
0
0
0
0
0
0
0
0
0
0
0
0
0
0
0
0
0
0
0
0
0
0
0
0
0
0
0
0
0
0
0
0
0
0
0
0
0
0
0
0
0
0
0
0
0
0
0
0
0
0
0
0
0
0
0
0
0
0
0
0
0
0
0
0
0
0
0
0
0
0
0
0
0
0
0
0
0
0
0
0
0
0
0
0
0
0
0
0
0
0
0
0
0
0
0
0
0
0
0
0
0
0
0
0
0
0
0
0
0
0
0
0
0
0
0
0
0
0
0
0
0
0
0
0
0
0
0
0
0
0
0
0
0
0
0
0
0
0
0
0
0
0
0
0
0
0
0
0
0
0
0
0
0
0
0
0
0
0
0
0
0
0
0
0
0
0
0
0
0
0
0
0
0
0
0
0
0
0
0
0
0
0
0
0
0
0
0
0
0
0
0
0
0
0
0
0
0
0
0
0
0
0
0
0
0
0
0
0
0
0
0
0
0
0
0
0
0
0
0
0
0
0
0
0
0
0
0
0
0
0
0
0
0
0
0
0
0
0
0
0
0
0
0
0
0
0
0
0
0
0
0
0
0
0
0
0
0
0
0
0
0
0
0
0
0
0
0
0
0
0
0
0
0
0
0
0
0
0
0
0
0
0
0
0
0
0
0
0
0
0
0
0
0
0
0
0
0
0
0
0
0
0
0
0
0
0
0
0
0
0
0
0
0
0
0
0
0
0
0
0
0
0
0
0
0
0
0
0
0
0
0
0
0
0
0
0
0
0
0
0
0
0
0
0
0
0
0
0
0
0
0
0
0
0
0
0
0
0
0
0
0
0
0
0
0
0
0
0
0
0
0
0
0
0
0
0
0
0
0
0
0
0
0
0
0
0
0
0
0
0
0
0
0
0
0
0
0
0
0
0
0
0
0
0
0
0
0
0
0
0
0
0
0
0
0
0
0
0
0
0
0
0
0
0
0
0
0
0
0
0
0
0
0
0
0
0
0
0
0
0
0
0
0
0
0
0
0
0
0
0
0
0
0
0
0
0
0
0
0
0
0
0
0
0
0
0
0
0
0
0
0
0
0
0
0
0
0
0
0
0
0
0
0
0
0
0
0
0
0
0
0
0
0
0
0
0
0
0
0
0
0
0
0
0
0
0
0
0
0
0
0
0
0
0
0
0
0
0
0
0
0
0
0
0
0
0
0
0
0
0
0
0
0
0
0
0
0
0
0
0
0
0
0
0
0
0
0
0
0
0
0
0
0
0
0
0
0
0
0
0
0
0
0
0
0
0
0
0
0
0
0
0
0
0
0
0
0
0
0
0
0
0
0
0
0
0
0
0
0
0
0
0
0
0
0
0
0
0
0
0
0
0
0
0
0
0
0
0
0
0
0
0
0
0
0
0
0
0
0
0
0
0
0
0
0
0
0
0
0
0
0
0
0
0
0
0
0
0
0
0
0
0
0
0
0
0
0
0
0
0
0
0
0
0
0
0
0
0
0
0
0
0
0
0
0
0
0
0
0
0
0
0
0
0
0
0
0
0
0
0
0
0
0
0
0
0
0
0
0
0
0
0
0
0
0
0
0
0
0
0
0
0
0
0
0
0
0
0
0
0
0
0
0
0
0
0
0
0
0
0
0
0
0
0
0
0
0
0
0
0
0
0
0
0
0
0
0
0
0
0
0
0
0
0
0
0
0
0
0
0
0
0
0
0
0
0
0
0
0
0
0
0
0
0
0
0
0
0
0
0
0
0
0
0
0
0
0
0
0
0
0
0
0
0
0
0
0
0
0
0
0
0
0
0
0
0
0
0
0
0
0
0
0
0
0
0
0
0
0
0
0
0
0
0
0
0
0
0
0
0
0
0
0
0
0
0
0
0
0
0
0
0
0
0
0
0
0
0
0
0
0
0
0
0
0
0
0
0
0
0
0
0
0
0
0
0
0
0
0
0
0
0
0
0
0
0
0
0
0
0
0
0
0
0
0
0
0
0
0
0
0
0
0
0
0
0
0
0
0
0
0
0
0
0
0
0
0
0
0
0
0
0
0
0
0
0
0
0
0
0
0
0
0
0
0
0
0
0
0
0
0
0
0
0
0
0
0
0
0
0
0
0
0
0
0
0
0
0
0
0
0
0
0
0
0
0
0
0
0
0
0
0
0
0
0
0
0
0
0
0
0
0
0
0
0
0
0
0
0
0
0
0
0
0
0
0
0
0
0
0
0
0
0
0
0
0
0
0
0
0
0
0
0
0
0
0
0
0
0
0
0
0
0
0
0
0
0
0
0
0
0
0
0
0
0
0
0
0
0
0
0
0
0
0
0
0
0
0
0
0
0
0
0
0
0
0
0
0
0
0
0
0
0
0
0
0
0
0
0
0
0
0
0
0
0
0
0
0
0
0
0
0
0
0
0
0
0
0
0
0
0
0
0
0
0
0
0
0
0
0
0
0
0
0
0
0
0
0
0
0
0
0
0
0
0
0
0
0
0
0
0
0
0
0
0
0
0
0
0
0
0
0
0
0
0
0
0
0
0
0
0
0
0
0
0
0
0
0
0
0
0
0
0
0
0
0
0
0
0
0
0
0
0
0
0
0
0
0
0
0
0
0
0
0
0
0
0
0
0
0
0
0
0
0
0
0
0
0
0
0
0
0
0
0
0
0
0
0
0
0
0
0
0
0
0
0
0
0
0
0
0
0
0
0
0
0
0
0
0
0
0
0
0
0
0
0
0
0
0
0
0
0
0
0
0
0
0
0
0
0
0
0
0
0
0
0
0
0
0
0
0
0
0
0
0
0
0
0
0
0
0
0
0
0
0
0
0
0
0
0
0
0
0
0
0
0
0
0
0
0
0
0
0
0
0
0
0
0
0
0
0
0
0
0
0
0
0
0
0
0
0
0
0
0
0
0
0
0
0
0
0
0
0
0
0
0
0
0
0
0
0
0
0
0
0
0
0
0
0
0
0
0
0
0
0
0
0
0
0
0
0
0
0
0
0
0
0
0
0
0
0
0
0
0
0
0
0
0
0
0
0
0
0
0
0
0
0
0
0
0
0
0
0
0
0
0
0
0
0
0
0
0
0
0
0
0
0
0
0
0
0
0
0
0
0
0
0
0
0
0
0
0
0
0
0
0
0
0
0
0
0
0
0
0
0
0
0
0
0
0
0
0
0
0
0
0
0
0
0
0
0
0
0
0
0
0
0
0
0
0
0
0
0
0
0
0
0
0
0
0
0
0
0
0
0
0
0
0
0
0
0
0
0
0
0
0
0
0
0
0
0
0
0
0
0
0
0
0
0
0
0
0
0
0
0
0
0
0
0
0
0
0
0
0
0
0
0
0
0
0
0
0
0
0
0
0
0
0
0
0
0
0
0
0
0
0
0
0
0
0
0
0
0
0
0
0
0
0
0
0
0
0
0
0
0
0
0
0
0
0
0
0
0
0
0
0
0
0
0
0
0
0
0
0
0
0
0
0
0
0
0
0
0
0
0
0
0
0
0
0
0
0
0
0
0
0
0
0
0
0
0
0
0
0
0
0
0
0
0
0
0
0
0
0
0
0
0
0
0
0
0
0
0
0
0
0
0
0
0
0
0
0
0
0
0
0
0
0
0
0
0
0
0
0
0
0
0
0
0
0
0
0
0
0
0
0
0
0
0
0
0
0
0
0
0
0
0
0
0
0
0
0
0
0
0
0
0
0
0
0
0
0
0
0
0
0
0
0
0
0
0
0
0
0
0
0
0
0
0
0
0
0
0
0
0
0
0
0
0
0
0
0
0
0
0
0
0
0
0
0
0
0
0
0
0
0
0
0
0
0
0
0
0
0
0
0
0
0
0
0
0
0
0
0
0
0
0
0
0
0
0
0
0
0
0
0
0
0
0
0
0
0
0
0
0
0
0
0
0
0
0
0
0
0
0
0
0
0
0
0
0
0
0
0
0
0
0
0
0
0
0
0
0
0
0
0
0
0
0
0
0
0
0
0
0
0
0
0
0
0
0
0
0
0
0
0
0
0
0
0
0
0
0
0
0
0
0
0
0
0
0
0
0
0
0
0
0
0
0
0
0
0
0
0
0
0
0
0
0
0
0
0
0
0
0
0
0
0
0
0
0
0
0
0
0
0
0
0
0
0
0
0
0
0
0
0
0
0
0
0
0
0
0
0
0
0
0
0
0
0
0
0
0
0
0
0
0
0
0
0
0
0
0
0
0
0
0
0
0
0
0
0
0
0
0
0
0
0
0
0
0
0
0
0
0
0
0
0
0
0
0
0
0
0
0
0
0
0
0
0
0
0
0
0
0
0
0
0
0
0
0
0
0
0
0
0
0
0
0
0
0
0
0
0
0
0
0
0
0
0
0
0
0
0
0
0
0
0
0
0
0
0
0
0
0
0
0
0
0
0
0
0
0
0
0
0
0
0
0
0
0
0
0
0
0
0
0
0
0
0
0
0
0
0
0
0
0
0
0
0
0
0
0
0
0
0
0
0
0
0
0
0
0
0
0
0
0
0
0
0
0
0
0
0
0
0
0
0
0
0
0
0
0
0
0
0
0
0
0
0
0
0
0
0
0
0
0
0
0
0
0
0
0
0
0
0
0
0
0
0
0
0
0
0
0
0
0
0
0
0
0
0
0
0
0
0
0
0
0
0
0
0
0
0
0
0
0
0
0
0
0
0
0
0
0
0
0
0
0
0
0
0
0
0
0
0
0
0
0
0
0
0
0
0
0
0
0
0
0
0
0
0
0
0
0
0
0
0
0
0
0
0
0
0
0
0
0
0
0
0
0
0
0
0
0
0
0
0
0
0
0
0
0
0
0
0
0
0
0
0
0
0
0
0
0
0
0
0
0
0
0
0
0
0
0
0
0
0
0
0
0
0
0
0
0
0
0
0
0
0
0
0
0
0
0
0
0
0
0
0
0
0
0
0
0
0
0
0
0
0
0
0
0
0
0
0
0
0
0
0
0
0
0
0
0
0
0
0
0
0
0
0
0
0
0
0
0
0
0
0
0
0
0
0
0
0
0
0
0
0
0
0
0
0
0
0
0
0
0
0
0
0
0
0
0
0
0
0
0
0
0
0
0
0
0
0
0
0
0
0
0
0
0
0
0
0
0
0
0
0
0
0
0
0
0
0
0
0
0
0
0
0
0
0
0
0
0
0
0
0
0
0
0
0
0
0
0
0
0
0
0
0
0
0
0
0
0
0
0
0
0
0
0
0
0
0
0
0
0
0
0
0
0
0
0
0
0
0
0
0
0
0
0
0
0
0
0
0
0
0
0
0
0
0
0
0
0
0
0
0
0
0
0
0
0
0
0
0
0
0
0
0
0
0
0
0
0
0
0
0
0
0
0
0
0
0
0
0
0
0
0
0
0
0
0
0
0
0
0
0
0
0
0
0
0
0
0
0
0
0
0
0
0
0
0
0
0
0
0
0
0
0
0
0
0
0
0
0
0
0
0
0
0
0
0
0
0
0
0
0
0
0
0
0
0
0
0
0
0
0
0
0
0
0
0
0
0
0
0
0
0
0
0
0
0
0
0
0
0
0
0
0
0
0
0
0
0
0
0
0
0
0
0
0
0
0
0
0
0
0
0
0
0
0
0
0
0
0
0
0
0
0
0
0
0
0
0
0
0
0
0
0
0
0
0
0
0
0
0
0
0
0
0
0
0
0
0
0
0
0
0
0
0
0
0
0
0
0
0
0
0
0
0
0
0
0
0
0
0
0
0
0
0
0
0
0
0
0
0
0
0
0
0
0
0
0
0
0
0
0
0
0
0
0
0
0
0
0
0
0
0
0
0
0
0
0
0
0
0
0
0
0
0
0
0
0
0
0
0
0
0
0
0
0
0
0
0
0
0
0
0
0
0
0
0
0
0
0
0
0
0
0
0
0
0
0
0
0
0
0
0
0
0
0
0
0
0
0
0
0
0
0
0
0
0
0
0
0
0
0
0
0
0
0
0
0
0
0
0
0
0
0
0
0
0
0
0
0
0
0
0
0
0
0
0
0
0
0
0
0
0
0
0
0
0
0
0
0
0
0
0
0
0
0
0
0
0
0
0
0
0
0
0
0
0
0
0
0
0
0
0
0
0
0
0
0
0
0
0
0
0
0
0
0
0
0
0
0
0
0
0
0
0
0
0
0
0
0
0
0
0
0
0
0
0
0
0
0
0
0
0
0
0
0
0
0
0
0
0
0
0
0
0
0
0
0
0
0
0
0
0
0
0
0
0
0
0
0
0
0
0
0
0
0
0
0
0
0
0
0
0
0
0
0
0
0
0
0
0
0
0
0
0
0
0
0
0
0
0
0
0
0
0
0
0
0
0
0
0
0
0
0
0
0
0
0
0
0
0
0
0
0
0
0
0
0
0
0
0
0
0
0
0
0
0
0
0
0
0
0
0
0
0
0
0
0
0
0
0
0
0
0
0
0
0
0
0
0
0
0
0
0
0
0
0
0
0
0
0
0
0
0
0
0
0
0
0
0
0
0
0
0
0
0
0
0
0
0
0
0
0
0
0
0
0
0
0
0
0
0
0
0
0
0
0
0
0
0
0
0
0
0
0
0
0
0
0
0
0
0
0
0
0
0
0
0
0
0
0
0
0
0
0
0
0
0
0
0
0
0
0
0
0
0
0
0
0
0
0
0
0
0
0
0
0
0
0
0
0
0
0
0
0
0
0
0
0
0
0
0
0
0
0
0
0
0
0
0
0
0
0
0
0
0
0
0
0
0
0
0
0
0
0
0
0
0
0
0
0
0
0
0
0
0
0
0
0
0
0
0
0
0
0
0
0
0
0
0
0
0
0
0
0
0
0
0
0
0
0
0
0
0
0
0
0
0
0
0
0
0
0
0
0
0
0
0
0
0
0
0
0
0
0
0
0
0
0
0
0
0
0
0
0
0
0
0
0
0
0
0
0
0
0
0
0
0
0
0
0
0
0
0
0
0
0
0
0
0
0
0
0
0
0
0
0
0
0
0
0
0
0
0
0
0
0
0
0
0
0
0
0
0
0
0
0
0
0
0
0
0
0
0
0
0
0
0
0
0
0
0
0
0
0
0
0
0
0
0
0
0
0
0
0
0
0
0
0
0
0
0
0
0
0
0
0
0
0
0
0
0
0
0
0
0
0
0
0
0
0
0
0
0
0
0
0
0
0
0
0
0
0
0
0
0
0
0
0
0
0
0
0
0
0
0
0
0
0
0
0
0
0
0
0
0
0
0
0
0
0
0
0
0
0
0
0
0
0
0
0
0
0
0
0
0
0
0
0
0
0
0
0
0
0
0
0
0
0
0
0
0
0
0
0
0
0
0
0
0
0
0
0
0
0
0
0
0
0
0
0
0
0
0
0
0
0
0
0
0
0
0
0
0
0
0
0
0
0
0
0
0
0
0
0
0
0
0
0
0
0
0
0
0
0
0
0
0
0
0
0
0
0
0
0
0
0
0
0
0
0
0
0
0
0
0
0
0
0
0
0
0
0
0
0
0
0
0
0
0
0
0
0
0
0
0
0
0
0
0
0
0
0
0
0
0
0
0
0
0
0
0
0
0
0
0
0
0
0
0
0
0
0
0
0
0
0
0
0
0
0
0
0
0
0
0
0
0
0
0
0
0
0
0
0
0
0
0
0
0
0
0
0
0
0
0
0
0
0
0
0
0
0
0
0
0
0
0
0
0
0
0
0
0
0
0
0
0
0
0
0
0
0
0
0
