-0.206051
-0.212163
-0.220668
-0.229602
-0.236335
-0.236818
-0.225703
-0.197462
-0.138927
-0.0404976
0.0783169
0.186991
0.257441
0.277758
0.258989
0.231335
0.231393
0.286354
0.394223
0.528846
0.67539
0.821491
0.956046
1.07146
1.16491
1.23839
1.29761
1.35016
1.40335
1.46247
1.53027
1.60657
1.68984
1.77901
1.875
1.98115
2.10244
2.24385
2.40832
2.5944
2.797
3.01136
3.22896
3.43565
3.61405
3.75076
3.83441
3.8554
3.80679
3.68629
3.49862
3.25707
2.98303
2.70261
2.4363
2.19123
1.96642
1.76111
1.57065
1.38837
1.20783
1.02504
0.839846
0.657697
0.491201
0.355407
0.262935
0.219826
0.22358
0.263962
0.326078
0.394464
0.45668
0.508121
0.546341
0.571705
0.586748
0.595471
0.602704
0.613414
0.631852
0.660618
0.699858
0.747482
0.79768
0.842857
0.875171
0.887976
0.876775
0.839572
0.776823
0.691303
0.587544
0.469133
0.352155
0.257507
0.205978
0.213193
0.285574
0.419056
0.600748
0.812246
1.03287
1.24305
1.42555
1.56649
1.6575
1.69778
1.69488
1.6634
1.62179
1.58804
1.57434
1.58113
1.60543
1.64451
1.69555
1.75481
1.8185
1.88338
1.94714
2.00836
2.0663
2.12059
2.17082
2.21672
2.25828
2.29606
2.33159
2.36752
2.40744
2.45566
2.51918
2.60683
2.72144
2.84983
2.96727
3.04827
3.07425
3.03948
2.95426
2.84449
2.74651
2.6968
2.71414
2.78495
2.90103
3.03967
3.1732
3.2764
3.33226
3.33423
3.28541
3.19583
3.07977
2.95391
2.83391
2.72958
2.64643
2.587
2.55675
2.55423
2.5706
2.59394
2.6117
2.61301
2.59053
2.54147
2.46802
2.37706
2.27934
2.18707
2.11132
2.06151
2.05749
2.09569
2.15254
2.19431
2.18388
1.86604
1.27553
0.544048
-0.21413
0
1.40824
3.98696
7.31271
10.6467
13.1285
14.0522
13.1515
10.7567
7.69255
4.91896
3.0943
2.3255
2.25389
2.36144
2.25357
2.14646
2.04321
1.94787
1.86505
1.8009
1.77272
1.81495
1.91086
2.01687
2.08054
2.06429
1.96422
1.8123
1.66047
1.55689
1.52775
1.53843
1.56867
1.61364
1.66647
1.72101
1.77306
1.82074
1.86421
1.90474
1.9428
1.97664
2.00056
2.00645
1.98824
1.94691
1.89363
1.84913
1.83906
1.8866
1.99505
2.15316
2.35433
2.59308
2.84048
3.06671
3.24857
3.37463
3.44649
3.47604
3.47996
3.47378
3.4674
3.46289
3.45835
3.45033
3.43429
3.4052
3.35797
3.28777
3.19055
3.0652
2.91152
2.73219
2.53301
2.32255
2.11101
1.90866
1.7235
1.56181
1.4262
1.31516
1.22433
1.14776
1.07916
1.01293
0.94473
0.871597
0.79187
0.705065
0.611917
0.514086
0.414052
0.317083
0.230758
0.163409
0.122442
0.112582
0.134616
0.185062
0.256844
0.340654
0.426542
0.50578
0.570088
0.613323
0.632235
0.626315
0.597963
0.552427
0.497263
0.441251
0.392946
0.359349
0.343191
0.343697
0.361176
0.395759
0.447045
0.514745
0.601484
0.707335
0.819223
0.918449
0.987709
1.01799
1.01306
0.988736
0.966723
0.965442
0.992307
1.03848
1.09025
1.13126
1.14847
1.13636
1.09824
1.04494
0.991568
0.952929
0.935993
0.941174
0.965403
1.00524
1.05384
1.10331
1.14652
1.17866
1.19796
1.20559
1.20482
1.19986
1.19479
1.19284
1.19664
1.20866
1.23132
1.26702
1.31766
1.38409
1.46545
1.55888
1.65976
1.76141
1.85523
1.93149
1.98242
2.00255
1.98953
1.94469
1.87321
1.78378
1.6874
1.59555
1.51802
1.45919
1.42132
1.40457
1.4071
1.42594
1.45757
1.49747
1.54233
1.58833
1.63153
1.66825
1.6956
1.71201
1.7176
1.71433
1.70581
1.69687
1.6925
1.69697
1.71646
1.75907
1.82342
1.88835
1.92328
1.89571
1.77939
1.50168
1.07694
0.546098
-0.0385613
0
1.16521
3.65459
7.15948
10.8654
13.7248
14.8922
14.0981
11.7569
8.74807
5.99953
4.10061
3.14325
2.83572
2.76696
2.59761
2.43034
2.26698
2.11226
1.97506
1.86745
1.80129
1.78757
1.83267
1.93447
2.08013
2.24817
2.40913
2.53585
2.61138
2.63361
2.61463
2.5753
2.53736
2.5165
2.51379
2.52361
2.54212
2.56587
2.59151
2.61599
2.63814
2.65917
2.68257
2.71351
2.75746
2.81857
2.898
2.99303
3.09687
3.20213
3.30193
3.39207
3.47247
3.54746
3.62478
3.71359
3.82204
3.95938
4.13959
4.35012
4.55964
4.73511
4.85199
4.8993
4.87866
4.79959
4.67454
4.5155
4.33545
4.14307
3.94264
3.73628
3.52536
3.31104
3.0944
2.87696
2.66091
2.44894
2.24399
2.04877
1.86557
1.69598
1.54107
1.40157
1.27865
1.17415
1.09048
1.03005
0.995358
0.988447
1.01001
1.06579
1.16292
1.28791
1.41194
1.50584
1.54913
1.53677
1.48083
1.40623
1.34192
1.31066
1.31365
1.35253
1.40586
1.44452
1.44262
1.38758
1.28538
1.15918
1.04162
0.963944
0.937814
0.992083
1.10671
1.23171
1.31434
1.32167
1.25532
1.1505
1.05764
1.01494
1.02653
1.05646
1.06819
1.03445
0.952037
0.843421
0.744012
0.682632
0.666929
0.670584
0.680633
0.686016
0.68189
0.670695
0.659775
0.656962
0.666463
0.685426
0.709818
0.73482
0.75717
0.776473
0.794835
0.815201
0.839349
0.863519
0.879443
0.877984
0.853877
0.809107
0.753256
0.700594
0.665178
0.653724
0.662785
0.688798
0.72772
0.775234
0.828433
0.886872
0.952653
1.0295
1.12366
1.24419
1.39394
1.55952
1.71245
1.82333
1.86921
1.83746
1.72872
1.55935
1.36157
1.17799
1.04978
0.988282
0.973904
0.987529
1.02128
1.06553
1.11055
1.14828
1.17366
1.18307
1.17478
1.14874
1.10633
1.05036
0.984844
0.91472
0.845638
0.783716
0.736414
0.714613
0.729001
0.777197
0.84039
0.893924
0.913871
0.882454
0.790924
0.639952
0.438349
0.200904
-0.0536127
-0.297557
0
1.17888
3.43354
6.54262
9.82267
12.351
13.3696
12.6326
10.4866
7.65465
4.88623
2.68698
1.24119
0.49057
0.261603
0.414736
0.558099
0.691799
0.81035
0.909323
0.988431
1.05076
1.09819
1.13053
1.14701
1.1474
1.132
1.10224
1.06076
1.01182
0.966242
0.937828
0.94018
0.983445
1.07152
1.21455
1.40525
1.60564
1.77534
1.88432
1.92148
1.89831
1.84672
1.81117
1.83569
1.94879
2.1314
2.3775
2.64537
2.88636
3.06206
3.1575
3.18495
3.1769
3.172
3.20006
3.26706
3.35667
3.45781
3.56345
3.66695
3.76218
3.84271
3.9008
3.92912
3.92142
3.87169
3.77508
3.62924
3.43543
3.19892
2.92849
2.63519
2.3315
2.0272
1.7293
1.44325
1.1732
0.922378
0.693564
0.489425
0.312502
0.165375
0.0511055
-0.0267651
-0.0655109
-0.0691744
-0.0546055
-0.0397373
-0.0385845
-0.0571329
-0.0914906
-0.129197
-0.15351
-0.149285
-0.10828
-0.0394419
0.045554
0.138987
0.233347
0.321451
0.39743
0.457253
0.498839
0.522167
0.528989
0.522586
0.507496
0.489148
0.473354
0.465622
0.470345
0.493105
0.538239
0.600463
0.665631
0.717694
0.743591
0.737116
0.700491
0.64333
0.579689
0.524393
0.487658
0.471509
0.474946
0.497041
0.537583
0.59382
0.659607
0.726156
0.783851
0.824398
0.84225
0.835615
0.806809
0.761844
0.709208
0.658076
0.616334
0.588027
0.572623
0.568553
0.573312
0.583701
0.596846
0.610817
0.624714
0.638203
0.650567
0.659099
0.658623
0.642203
0.603487
0.539384
0.451706
0.346954
0.234373
0.12332
0.0204229
-0.0727678
-0.152834
-0.217897
-0.266515
-0.297636
-0.310846
-0.30668
-0.28683
-0.254106
-0.212185
-0.165296
-0.117871
-0.0740145
-0.037937
-0.0135983
-0.00380669
-0.00995159
-0.031509
-0.0657896
-0.108148
-0.152746
-0.193773
-0.22558
-0.244386
-0.25284
-0.256918
-0.263027
-0.275105
-0.293139
-0.313744
-0.332403
-0.346053
-0.355075
-0.361851
-0.369107
-0.378809
-0.39113
-0.404352
-0.415709
-0.422767
-0.424789
-0.423346
-0.420957
-0.420859
-0.426136
-0.439053
-0.460781
-0.491521
-0.530843
-0.57801
-0.631545
-0.690108
-0.752408
-0.818349
-0.729448
0
1.65647
4.27242
7.47537
10.4959
12.4004
12.4961
10.7049
7.65897
4.41645
1.9457
0.690923
0.479491
0.783012
0.829544
0.847767
0.843546
0.813348
0.758649
0.685206
0.601475
0.516665
0.437977
0.369841
0.314151
0.27146
0.242623
0.228298
0.229237
0.246309
0.280236
0.331118
0.397691
0.477437
0.567302
0.661841
0.754534
0.839604
0.913229
0.974347
1.02481
1.06886
1.11218
1.16071
1.21897
1.28973
1.37501
1.476
1.59313
1.72644
1.87573
2.04057
2.2201
2.41258
2.61501
2.82282
3.02993
3.22865
3.41087
3.56901
3.69675
3.78954
3.84447
3.86004
3.83566
3.77155
3.66985
3.53372
3.3675
3.17771
2.97278
2.76228
2.55614
2.36634
2.19833
2.05194
1.92327
1.80772
1.70265
1.60849
1.52797
1.46412
1.41686
1.38173
1.35518
1.3321
1.30522
1.2666
1.2094
1.12936
1.01691
0.873702
0.725934
0.606667
0.544211
0.551808
0.623495
0.737956
0.868049
0.990909
1.09724
1.18961
1.26516
1.31904
1.34767
1.34709
1.3152
1.25451
1.1736
1.0867
1.01114
0.963531
0.980166
1.10323
1.29665
1.48786
1.60752
1.61334
1.5049
1.32636
1.15232
1.05719
1.08978
1.2185
1.3471
1.36205
1.19674
0.87594
0.511741
0.249088
0.189058
0.264507
0.405828
0.578203
0.746723
0.884019
0.981045
1.03142
1.0347
0.995029
0.920492
0.822922
0.717035
0.618169
0.538653
0.483075
0.451712
0.429757
0.397406
0.338997
0.251449
0.148099
0.0559395
0.00731964
0.0294652
0.235594
0.567396
0.910436
1.15084
1.2256
1.14503
0.980586
0.827541
0.762774
0.827107
1.04437
1.31858
1.53862
1.61702
1.51277
1.24231
0.878965
0.537401
0.335021
0.281282
0.289711
0.320714
0.36197
0.402968
0.436984
0.461857
0.479421
0.493905
0.509946
0.530421
0.555541
0.584995
0.616288
0.644491
0.664169
0.670619
0.660796
0.633575
0.589272
0.528615
0.451658
0.357544
0.238752
0.0654302
-0.190351
-0.502222
-0.833346
-1.16044
-0.932978
0
1.75588
4.23568
7.04618
9.57432
11.1903
11.4802
10.396
8.26015
5.6396
3.15696
1.3082
0.33163
0.162294
0.377066
0.471983
0.548849
0.606014
0.644335
0.666964
0.678576
0.684286
0.688684
0.694474
0.702811
0.713518
0.724141
0.729614
0.724256
0.703893
0.667985
0.620908
0.571687
0.531992
0.51293
0.525698
0.58038
0.66184
0.74606
0.81019
0.842125
0.845666
0.83931
0.84927
0.899659
1.00308
1.14642
1.31434
1.49778
1.69095
1.88899
2.08847
2.28725
2.48392
2.6772
2.8653
3.04565
3.21445
3.36568
3.4912
3.58579
3.64601
3.67035
3.65971
3.61759
3.54944
3.46133
3.35807
3.24173
3.11324
2.97244
2.81797
2.6485
2.46443
2.2683
2.06479
1.86003
1.6606
1.47283
1.303
1.1539
1.02578
0.917528
0.828565
0.758707
0.708259
0.677744
0.667927
0.676944
0.700101
0.731435
0.765246
0.797362
0.825477
0.848443
0.86479
0.871854
0.865345
0.840181
0.79215
0.719788
0.625801
0.514182
0.399976
0.305112
0.249859
0.246577
0.29547
0.38432
0.492836
0.600155
0.69237
0.770731
0.840697
0.907664
0.978214
1.05558
1.1306
1.18627
1.20604
1.1823
1.12086
1.0396
0.962508
0.911903
0.896652
0.909789
0.944368
0.999355
1.07384
1.16242
1.25093
1.32325
1.36613
1.37343
1.34923
1.30787
1.27001
1.25574
1.28413
1.36054
1.45607
1.52926
1.5443
1.48647
1.36882
1.22765
1.10883
1.05058
1.05403
1.09493
1.15788
1.23609
1.32241
1.40984
1.49156
1.56248
1.61978
1.66312
1.69456
1.71823
1.73965
1.76476
1.799
1.84726
1.91515
2.00817
2.123
2.23461
2.31108
2.32233
2.25179
2.1078
1.92746
1.7674
1.68275
1.71927
1.86398
2.04982
2.1945
2.24019
2.17793
2.04528
1.90173
1.79683
1.7467
1.71486
1.68222
1.63554
1.56584
1.47136
1.35844
1.23999
1.13168
1.0472
0.993847
0.971762
0.974702
0.993258
1.01875
1.04607
1.07443
1.10594
1.14307
1.18639
1.23203
1.27226
1.29682
1.29485
1.2565
1.17421
1.04379
0.86545
0.645282
0.393861
0.126141
0
0.717216
2.51725
5.2682
8.41886
11.1603
12.7249
12.6918
11.1555
8.67695
6.03526
3.90275
2.60684
2.08807
2.04476
1.98761
1.90469
1.81406
1.71681
1.61611
1.51724
1.42692
1.35158
1.29596
1.26214
1.25123
1.25825
1.2762
1.29809
1.31868
1.33566
1.34969
1.36359
1.38111
1.40566
1.43865
1.48032
1.53059
1.5889
1.65418
1.72484
1.79906
1.87439
1.94803
2.01783
2.08309
2.14511
2.2073
2.27465
2.3527
2.44624
2.55818
2.68759
2.83141
2.98589
3.14633
3.30737
3.46303
3.60646
3.73225
3.83633
3.9162
3.97093
4.00084
4.00685
3.98977
3.94984
3.88728
3.8026
3.6961
3.56922
3.42463
3.26581
3.09621
2.91857
2.7347
2.5448
2.3487
2.14679
1.94091
1.73496
1.53646
1.35504
1.20049
1.08063
0.999624
0.957192
0.94897
0.967574
1.00397
1.04949
1.09406
1.12757
1.14257
1.13537
1.10693
1.06273
1.01112
0.960449
0.916212
0.879052
0.846745
0.816887
0.788063
0.760926
0.738061
0.722769
0.717419
0.721249
0.731562
0.744933
0.757088
0.763697
0.760862
0.745962
0.717783
0.676547
0.623742
0.561811
0.493759
0.422807
0.352241
0.285266
0.226241
0.181301
0.156713
0.158968
0.193718
0.292036
0.45563
0.641006
0.793841
0.873556
0.872678
0.819714
0.763285
0.745852
0.781476
0.845197
0.904652
0.929223
0.905185
0.841498
0.763722
0.699882
0.666384
0.655282
0.653867
0.65469
0.652405
0.645619
0.636938
0.631395
0.634117
0.648072
0.671359
0.701233
0.734745
0.768149
0.796103
0.81378
0.81793
0.808005
0.78701
0.76156
0.740773
0.734056
0.748399
0.785256
0.840074
0.906833
0.976809
1.04133
1.09396
1.13195
1.15675
1.17334
1.18872
1.20997
1.24197
1.28604
1.34067
1.40158
1.46226
1.51609
1.55786
1.58474
1.59639
1.59422
1.58032
1.55646
1.5243
1.48456
1.43771
1.38486
1.32816
1.27087
1.21694
1.17032
1.13417
1.11042
1.09958
1.10093
1.11306
1.13437
1.16355
1.20019
1.24495
1.29929
1.36707
1.45867
1.59668
1.78767
1.98784
2.13113
2.15158
2.00999
1.71181
1.30546
0.858457
0.421676
0
0.418832
1.64269
3.75068
6.57266
9.5968
12.0659
13.2552
12.807
10.9316
8.33357
5.8818
4.20419
3.44112
3.29097
3.24351
3.02317
2.80944
2.60655
2.42007
2.25346
2.10761
1.98193
1.87512
1.78603
1.71417
1.6596
1.6234
1.60821
1.61373
1.63267
1.6519
1.65742
1.63847
1.59128
1.52109
1.44157
1.37152
1.3295
1.32624
1.35739
1.4245
1.5125
1.60297
1.68075
1.73919
1.78174
1.81962
1.86636
1.93171
2.01709
2.11717
2.21695
2.30077
2.35931
2.39407
2.41727
2.4473
2.50147
2.58943
2.70515
2.83641
2.97561
3.11668
3.25514
3.38764
3.50826
3.60805
3.67155
3.67243
3.58358
3.39228
3.11175
2.78162
2.45586
2.18332
1.96901
1.79401
1.65391
1.53977
1.44044
1.34513
1.24557
1.13747
1.02098
0.900355
0.782793
0.676446
0.594967
0.573081
0.67986
0.934629
1.23682
1.48465
1.59353
1.5139
1.25385
0.892764
0.567433
0.419203
0.473899
0.5961
0.72942
0.857435
0.969363
1.06069
1.13298
1.19185
1.24335
1.29073
1.3303
1.34919
1.33035
1.26046
1.13693
0.971097
0.786216
0.610676
0.469079
0.364945
0.291616
0.245611
0.220423
0.208813
0.204859
0.205135
0.208722
0.216242
0.228415
0.244761
0.263007
0.27927
0.288894
0.287594
0.272492
0.242791
0.199986
0.14761
0.0908006
0.0346801
-0.0165169
-0.0596746
-0.0925867
-0.115498
-0.130066
-0.138521
-0.142777
-0.143841
-0.141713
-0.135778
-0.125466
-0.110879
-0.0933612
-0.0746879
-0.0570381
-0.0427908
-0.0343974
-0.0339178
-0.0427298
-0.061368
-0.0893269
-0.124947
-0.165471
-0.207325
-0.246595
-0.279602
-0.303452
-0.316164
-0.316643
-0.304342
-0.278823
-0.239412
-0.180022
-0.0792208
0.0782486
0.258746
0.40248
0.450725
0.380906
0.222957
0.042944
-0.0950216
-0.159763
-0.177544
-0.175422
-0.158877
-0.128464
-0.081424
-0.0062849
0.120511
0.32478
0.585891
0.83816
1.02446
1.09857
1.02444
0.784166
0.394315
-0.0765659
-0.502007
-0.737523
-0.802116
-0.753498
-0.616371
-0.43558
-0.260566
-0.12837
-0.0385244
0.0256851
0.0668663
0.0887411
0.0950596
0.089139
0.0739347
0.052281
0.0269094
0
-0.0278687
-0.0582535
-0.0961449
-0.149712
-0.229236
-0.38273
-0.663227
-1.05706
-1.51721
-1.73854
-0.936499
1.18991
4.45505
8.13099
11.1658
12.6112
12.0561
9.82229
6.79646
3.9869
2.06126
1.12503
0.829932
0.684266
0.384354
0.10353
-0.152999
-0.347561
-0.377935
-0.192018
0.097032
0.347986
0.446726
0.347257
0.0877527
-0.22442
-0.455707
-0.506941
-0.430125
-0.317595
-0.198461
-0.0885777
-9.93729e-005
0.060478
0.0930208
0.10308
0.100097
0.0950392
0.0979982
0.115534
0.150596
0.203925
0.275655
0.366145
0.475137
0.601676
0.743903
0.898853
1.06243
1.2296
1.39507
1.55388
1.70201
1.8369
1.9576
2.06467
2.15978
2.24501
2.3224
2.39333
2.4581
2.51535
2.56166
2.59163
2.59885
2.57618
2.51691
2.41615
2.27222
2.08787
1.87067
1.6325
1.38793
1.1511
0.933612
0.747984
0.596245
0.474228
0.373969
0.28675
0.205608
0.126515
0.0481607
-0.0291071
-0.104391
-0.177163
-0.246445
-0.310806
-0.368355
-0.417018
-0.454752
-0.47972
-0.492887
-0.498301
-0.501669
-0.508945
-0.524757
-0.551213
-0.587436
-0.629931
-0.67362
-0.713259
-0.74502
-0.767031
-0.778879
-0.780277
-0.770995
-0.750394
-0.717103
-0.668473
-0.594093
-0.470675
-0.28551
-0.0725767
0.118244
0.240889
0.269911
0.206112
0.0716291
-0.099139
-0.267698
-0.401397
-0.494539
-0.555216
-0.592106
-0.611489
-0.61597
-0.607141
-0.585821
-0.552153
-0.506147
-0.448421
-0.378896
-0.302318
-0.227392
-0.16339
-0.117435
-0.0923206
-0.0857649
-0.0913748
-0.100848
-0.106544
-0.104435
-0.0946045
-0.0784031
-0.0577942
-0.0360167
-0.017065
-0.00446377
-0.000434113
-0.00527382
-0.0170694
-0.0318546
-0.0442453
-0.0484388
-0.0393522
-0.0147041
0.0252506
0.0799431
0.147128
0.222824
0.301373
0.375276
0.436554
0.478823
0.498166
0.494076
0.470007
0.433222
0.393696
0.362169
0.34776
0.353916
0.378189
0.417196
0.466894
0.521746
0.576117
0.625172
0.66537
0.694479
0.711231
0.714832
0.704602
0.680151
0.641237
0.588489
0.523923
0.451217
0.375586
0.303219
0.240162
0.191234
0.161047
0.151757
0.162019
0.187729
0.222348
0.256687
0.281696
0.290967
0.281922
0.256183
0.218939
0.177347
0.138366
0.106745
0.0833134
0.0653782
0.0504564
0.0359272
0.0195768
0
-0.0224163
-0.0485567
-0.0779717
-0.110156
-0.144773
-0.181688
-0.220683
-0.261485
-0.404222
-0.0842512
1.20928
3.69847
7.06566
10.4582
12.8139
13.3497
11.9391
9.15615
5.96955
3.28271
1.58626
0.883373
0.855097
1.0236
1.00628
0.969976
0.910757
0.828841
0.729136
0.620532
0.514036
0.419779
0.345581
0.302003
0.285427
0.286631
0.295239
0.304257
0.312646
0.324788
0.347279
0.384843
0.437464
0.498292
0.562897
0.627936
0.692918
0.760884
0.845002
0.995782
1.22824
1.4772
1.63371
1.60335
1.36449
0.995681
0.652794
0.499568
0.622748
0.854946
1.13337
1.43651
1.74551
2.04739
2.33616
2.6011
2.8362
3.03666
3.19828
3.31807
3.39464
3.42798
3.41883
3.36814
3.2773
3.15088
2.99336
2.8115
2.61376
2.40904
2.20513
2.00626
1.81485
1.63257
1.46016
1.2976
1.14437
0.999608
0.862287
0.731401
0.606139
0.486069
0.371296
0.262549
0.161168
0.0689898
-0.0118061
-0.0789974
-0.1305
-0.164565
-0.179965
-0.175768
-0.149396
-0.0970806
-0.0205862
0.0672964
0.148886
0.205871
0.223127
0.191971
0.11221
-0.007197
-0.14894
-0.289953
-0.408398
-0.492113
-0.538484
-0.541363
-0.506675
-0.450662
-0.391381
-0.343014
-0.312246
-0.298057
-0.2946
-0.295398
-0.29669
-0.298407
-0.302131
-0.309852
-0.322977
-0.341867
-0.365928
-0.394023
-0.424757
-0.456831
-0.489311
-0.521407
-0.552512
-0.582362
-0.611144
-0.63982
-0.669764
-0.702007
-0.736359
-0.770763
-0.801229
-0.822545
-0.829616
-0.815748
-0.776831
-0.719758
-0.656493
-0.600676
-0.564023
-0.553789
-0.571799
-0.614727
-0.675037
-0.742015
-0.804499
-0.853703
-0.882392
-0.885611
-0.862915
-0.816172
-0.747029
-0.654881
-0.53822
-0.405576
-0.280302
-0.189261
-0.156381
-0.192826
-0.289275
-0.415864
-0.531313
-0.597644
-0.600693
-0.563904
-0.505055
-0.431529
-0.35095
-0.270266
-0.194458
-0.12588
-0.0642494
-0.00726147
0.0483364
0.105792
0.167082
0.230411
0.289875
0.336025
0.357625
0.344797
0.291131
0.195919
0.0656813
-0.085734
-0.23914
-0.374125
-0.474323
-0.521925
-0.523964
-0.500374
-0.474942
-0.465147
-0.475579
-0.497534
-0.514145
-0.508066
-0.471238
-0.409117
-0.317312
-0.206987
-0.101788
-0.0263296
0
-0.0280022
-0.113725
-0.247639
-0.416424
-0.607494
-0.809648
-1.01612
-1.22427
-1.0656
-0.0902654
2.01502
5.18096
8.81993
11.9474
13.5646
13.1328
10.8713
7.67624
4.67843
2.69984
1.92429
1.95217
2.12455
1.79628
1.48347
1.19293
0.934394
0.714728
0.541238
0.415608
0.333158
0.286962
0.269911
0.276456
0.303444
0.349836
0.415477
0.499477
0.600377
0.713254
0.827018
0.929712
1.01183
1.06893
1.10258
1.11902
1.12633
1.13095
1.13507
1.13526
1.12534
1.10217
1.07102
1.04757
1.05478
1.11542
1.24363
1.43332
1.67206
1.93899
2.21071
2.46816
2.69957
2.8907
3.03648
3.13566
3.19035
3.20614
3.19237
3.16165
3.12653
3.18774
3.59417
4.22705
4.92993
5.4999
5.71329
5.43321
4.71376
3.80854
3.04388
2.648
2.44476
2.22943
2.0138
1.80083
1.59401
1.39702
1.21328
1.04564
0.89639
0.767538
0.661103
0.577879
0.517948
0.48039
0.46541
0.469643
0.487855
0.514548
0.544896
0.575341
0.603627
0.628051
0.647322
0.660166
0.665367
0.662325
0.651556
0.634729
0.614148
0.591976
0.569653
0.547732
0.526422
0.50593
0.486614
0.468868
0.452785
0.437795
0.422572
0.405409
0.384501
0.358506
0.327145
0.291679
0.255138
0.222206
0.200307
0.211678
0.321158
0.550954
0.827742
1.04177
1.09977
0.971966
0.707897
0.415144
0.214782
0.191808
0.275692
0.435682
0.622705
0.779216
0.859369
0.84583
0.755147
0.628799
0.514447
0.446865
0.424915
0.428172
0.446286
0.475404
0.513535
0.559861
0.614796
0.679847
0.758237
0.855604
0.980853
1.14115
1.32248
1.4894
1.60174
1.62494
1.54143
1.3601
1.11897
0.877724
0.700277
0.614616
0.591695
0.609908
0.66284
0.741699
0.837408
0.942505
1.05169
1.16407
1.28852
1.53273
2.02421
2.63599
3.19037
3.50693
3.47639
3.09636
2.4568
1.70124
1.00658
0.664888
0.663196
0.740174
0.849267
0.979168
1.1131
1.23413
1.32828
1.38673
1.4068
1.39192
1.35117
1.29831
1.24998
1.22208
1.22743
1.28926
1.42302
1.59172
1.74283
1.83032
1.83305
1.75995
1.63979
1.50204
1.36038
1.21036
1.0434
0.837263
0.587759
0.303064
0
0.314128
1.49203
3.6841
6.78754
10.3238
13.4776
15.3664
15.4395
13.7679
11.011
8.06676
5.6362
3.97866
2.97039
2.35465
2.13921
2.08556
2.04393
2.01133
1.98379
1.95683
1.92607
1.88795
1.84035
1.78327
1.71826
1.65085
1.59251
1.55736
1.55976
1.64569
1.91409
2.29092
2.65238
2.88181
2.91974
2.78458
2.55707
2.34029
2.21793
2.21795
2.27598
2.36016
2.46014
2.57036
2.68576
2.80189
2.91527
3.02362
3.12608
3.22315
3.31661
3.40937
3.50514
3.60809
3.72247
3.85199
3.99934
4.16555
4.35257
4.56133
4.78383
5.00556
5.21103
5.38234
5.49933
5.5512
5.52818
5.4211
5.225
4.9452
4.6018
4.22842
3.86375
3.53667
3.24348
2.97575
2.72981
2.49982
2.27991
2.06624
1.85841
1.65987
1.47725
1.32149
1.2272
1.26471
1.43442
1.65503
1.8342
1.90486
1.84646
1.68474
1.474
1.27496
1.14105
1.08137
1.07357
1.10273
1.16223
1.25584
1.37931
1.51685
1.64997
1.76183
1.83984
1.87698
1.87167
1.82701
1.74996
1.65071
1.54245
1.43747
1.34617
1.27541
1.22628
1.19688
1.18537
1.18847
1.20232
1.22325
1.24814
1.27514
1.3034
1.33276
1.36363
1.39673
1.43276
1.47212
1.51487
1.55906
1.5989
1.6268
1.63584
1.62271
1.58969
1.54473
1.49925
1.46452
1.44817
1.44804
1.4602
1.48161
1.50873
1.53858
1.56924
1.59992
1.6304
1.66015
1.68697
1.70692
1.71564
1.71109
1.69583
1.67774
1.66838
1.68932
1.76364
1.87085
1.96608
2.00204
1.95308
1.82881
1.67166
1.54047
1.48788
1.521
1.60367
1.7336
1.90028
2.08043
2.24558
2.37227
2.4449
2.45541
2.40349
2.29817
2.15937
2.01621
1.90017
1.83361
1.81182
1.81576
1.83464
1.85599
1.86891
1.86655
1.84666
1.81041
1.76012
1.69713
1.62234
1.53693
1.44091
1.33622
1.2274
1.12146
1.02684
0.951942
0.908376
0.913342
0.987615
1.13186
1.30009
1.43936
1.50117
1.44963
1.27095
0.978717
0.609753
0.212342
0
0.49606
1.91929
4.39582
7.70429
11.1826
13.8708
14.9021
13.9459
11.4064
8.21285
5.32328
3.28184
2.10828
1.519
1.23854
1.22254
1.21023
1.20117
1.19771
1.20244
1.21794
1.24636
1.28879
1.34605
1.41742
1.49693
1.57387
1.63779
1.68161
1.70396
1.70963
1.70782
1.70882
1.7202
1.7439
1.77715
1.8143
1.85042
1.88485
1.92315
1.9764
2.05806
2.17943
2.37352
2.64008
2.9212
3.14835
3.27295
3.28705
3.22502
3.1468
3.11166
3.15558
3.25606
3.3847
3.53029
3.6877
3.85316
4.0243
4.20024
4.38164
4.57061
4.77056
4.98418
5.20604
5.41562
5.58477
5.68134
5.67432
5.54392
5.29366
4.9574
4.59292
4.25659
3.95855
3.67348
3.3883
3.09831
2.80184
2.50153
2.20471
1.92298
1.66977
1.47348
1.38807
1.42337
1.52889
1.64061
1.70614
1.70076
1.63013
1.52231
1.41425
1.33799
1.30058
1.2901
1.29629
1.31402
1.33873
1.36709
1.39792
1.43242
1.47377
1.52713
1.60218
1.71527
1.88833
2.11546
2.34594
2.5208
2.57407
2.45337
2.156
1.75214
1.36832
1.13064
1.06638
1.07184
1.10491
1.15658
1.21854
1.28409
1.3487
1.41001
1.46676
1.51865
1.566
1.60939
1.64914
1.68434
1.71212
1.7281
1.72681
1.70328
1.65516
1.58447
1.49835
1.40838
1.32858
1.2727
1.26689
1.35125
1.51087
1.68703
1.81634
1.85469
1.79283
1.65878
1.50604
1.39115
1.35
1.36333
1.40183
1.45241
1.51013
1.57216
1.6379
1.70872
1.78897
1.88844
2.01597
2.15391
2.27047
2.33148
2.31505
2.22239
2.07955
1.92922
1.81581
1.76959
1.77219
1.82397
1.91217
2.0058
2.07253
2.08675
2.03608
1.92531
1.7763
1.62263
1.49979
1.43161
1.41217
1.42589
1.46905
1.53862
1.63319
1.76221
1.94203
2.17043
2.40272
2.57684
2.63218
2.5285
2.25698
1.7762
1.17129
0.538845
-0.0618817
0
0.933173
2.76852
5.39865
8.45164
11.2907
13.1695
13.5311
12.2895
9.89215
7.10447
4.6531
2.95573
2.07084
1.81831
1.89047
1.89432
1.88991
1.8779
1.86108
1.84416
1.83307
1.83384
1.85089
1.88724
1.94434
2.02604
2.14489
2.32248
2.55539
2.79451
2.97123
3.0202
2.91127
2.6729
2.39032
2.17192
2.09399
2.11812
2.1751
2.245
2.31939
2.39555
2.47663
2.56953
2.68152
2.81673
2.97101
3.13692
3.30798
3.47722
3.63827
3.78643
3.91924
4.03657
4.14022
4.23329
4.31943
4.40227
4.48486
4.56938
4.65732
4.74876
4.84059
4.9261
4.99647
5.04219
5.05466
5.02735
4.95644
4.84074
4.6814
4.48164
4.24852
3.99119
3.7196
3.44325
3.17049
2.90919
2.66676
2.44935
2.26135
2.10476
1.97878
1.88024
1.80435
1.74551
1.69841
1.65885
1.62428
1.59389
1.56833
1.54905
1.53766
1.53531
1.54181
1.55504
1.57031
1.58069
1.57959
1.56299
1.53111
1.48921
1.44677
1.41534
1.40526
1.42255
1.46423
1.52666
1.59866
1.66729
1.72135
1.75412
1.76454
1.7568
1.73857
1.71882
1.70534
1.70205
1.71037
1.7333
1.77253
1.81895
1.85849
1.8779
1.86984
1.83647
1.7892
1.74445
1.71695
1.71382
1.72883
1.75341
1.77609
1.78599
1.77537
1.74076
1.68296
1.60655
1.51983
1.43308
1.35644
1.30023
1.27339
1.28193
1.3278
1.40869
1.51861
1.64908
1.7912
1.93451
2.06334
2.16224
2.21687
2.21625
2.15641
2.0437
1.89563
1.73806
1.59881
1.49678
1.43027
1.39151
1.37644
1.3784
1.38987
1.40419
1.41685
1.42575
1.43075
1.43298
1.43405
1.43525
1.43733
1.44046
1.44465
1.45049
1.45959
1.47457
1.49918
1.54228
1.60483
1.67237
1.72354
1.73973
1.71451
1.65649
1.58379
1.51364
1.45398
1.40007
1.34685
1.29158
1.23399
1.1782
1.27174
1.71596
2.36468
2.88223
2.93185
2.38451
1.41304
0.342016
0
0.933522
3.28685
6.71254
10.4349
13.4795
15.0189
14.6963
12.764
9.93906
7.05706
4.72914
3.1837
2.33619
1.97568
2.01289
2.04554
2.07433
2.09721
2.11389
2.12651
2.1395
2.15864
2.19129
2.24947
2.33161
2.41852
2.48468
2.50921
2.48514
2.42263
2.34497
2.27936
2.2469
2.24755
2.27016
2.30698
2.35378
2.4073
2.46538
2.52724
2.59321
2.66418
2.74096
2.82371
2.91201
3.00465
3.10028
3.19812
3.29825
3.40166
3.50976
3.62366
3.74349
3.86793
3.99416
4.1186
4.23724
4.34549
4.43821
4.51215
4.56548
4.59749
4.60836
4.59891
4.57008
4.52254
4.45627
4.37065
4.26651
4.14441
4.00472
3.84886
3.67932
3.49926
3.31204
3.12085
2.92824
2.73639
2.54748
2.36399
2.18891
2.02568
1.87771
1.74864
1.64233
1.55889
1.49667
1.45266
1.42311
1.40419
1.39256
1.38534
1.3795
1.37268
1.36337
1.35095
1.33557
1.31776
1.29806
1.27676
1.25425
1.23127
1.20938
1.19114
1.17984
1.17895
1.19121
1.21615
1.25414
1.30715
1.37267
1.43934
1.49358
1.52312
1.52064
1.48597
1.42601
1.35225
1.27726
1.21098
1.15636
1.11372
1.08343
1.06568
1.06023
1.06638
1.08305
1.10869
1.14131
1.1785
1.21726
1.25414
1.2858
1.30946
1.32328
1.32649
1.31931
1.3026
1.27738
1.24449
1.20442
1.1574
1.10344
1.04265
0.9757
0.904352
0.832341
0.765935
0.712362
0.678484
0.66952
0.688097
0.733825
0.803455
0.891458
0.990807
1.09361
1.19307
1.28322
1.35929
1.41816
1.45868
1.4816
1.48907
1.4838
1.46804
1.44281
1.40842
1.36385
1.30799
1.24079
1.164
1.08149
0.998868
0.922588
0.858386
0.812366
0.790554
0.790348
0.799895
0.805087
0.794428
0.762927
0.713477
0.65509
0.598633
0.551793
0.515013
0.482485
0.444438
0.391924
0.321613
0.238292
0.153699
0.0819873
0.0337852
0.00896325
0.000719452
0
-0.00210977
-0.0150316
-0.0423924
-0.0830708
-0.286957
-0.0849726
0.958361
3.10111
6.22513
9.70544
12.5507
13.8045
13.0066
10.4392
7.00157
3.78358
1.58291
0.619404
0.568742
0.833532
0.728348
0.629833
0.543341
0.473664
0.428287
0.410322
0.411603
0.419884
0.422735
0.41152
0.383841
0.343574
0.298804
0.25885
0.231039
0.216924
0.215974
0.228605
0.25419
0.291609
0.338745
0.392279
0.449046
0.506729
0.564312
0.622119
0.681445
0.743962
0.81124
0.884503
0.964843
1.05359
1.15253
1.2638
1.38932
1.53009
1.68569
1.85361
2.03025
2.21276
2.39859
2.58571
2.77256
2.95763
3.1392
3.31504
3.48141
3.63089
3.75002
3.82626
3.84368
3.78472
3.63664
3.39967
3.09218
2.74853
2.40929
2.10789
1.84308
1.6038
1.38952
1.19846
1.02878
0.879294
0.749622
0.639853
0.550759
0.481536
0.42957
0.391206
0.3625
0.340171
0.322381
0.309062
0.301679
0.302485
0.313408
0.33504
0.366484
0.405373
0.447812
0.489272
0.525391
0.552599
0.568433
0.571558
0.561652
0.5393
0.506527
0.465522
0.419255
0.373119
0.333241
0.305525
0.29467
0.30346
0.332567
0.380812
0.445684
0.523788
0.611506
0.704508
0.794942
0.872589
0.926588
0.947441
0.929399
0.872404
0.782868
0.672878
0.557878
0.453424
0.369671
0.308711
0.270314
0.254357
0.259005
0.281419
0.318327
0.365741
0.420009
0.478127
0.536456
0.590971
0.638357
0.676876
0.707178
0.732702
0.759415
0.795211
0.858099
0.982328
1.18488
1.41717
1.61474
1.72138
1.70452
1.5625
1.32576
1.05118
0.807449
0.650442
0.568391
0.52925
0.516302
0.526383
0.55729
0.606827
0.672166
0.750162
0.837769
0.931443
1.02602
1.11606
1.1969
1.26546
1.32064
1.36317
1.39487
1.4176
1.4321
1.43771
1.43271
1.41495
1.38299
1.33707
1.27949
1.21417
1.1457
1.07826
1.01456
0.956002
0.90343
0.857463
0.818939
0.789106
0.769489
0.761532
0.765921
0.782834
0.811572
0.850582
0.897537
0.949688
1.00323
1.05285
1.09246
1.1156
1.11606
1.0885
1.02913
0.936325
0.811
0.64956
0.460941
0.257518
0
0.378931
1.86139
4.6023
8.22742
11.8631
14.4588
15.2455
14.0695
11.411
8.10657
4.97263
2.54677
1.02837
0.353449
0.303315
0.574326
0.840284
1.09561
1.33456
1.54566
1.71883
1.844
1.9131
1.92408
1.88439
1.81156
1.72954
1.66139
1.62101
1.60242
1.59687
1.59155
1.57598
1.5478
1.51483
1.49235
1.49651
1.53739
1.60935
1.69843
1.79846
1.90342
2.00879
2.11253
2.21489
2.3181
2.42549
2.54051
2.66574
2.80207
2.94994
3.10612
3.26496
3.42085
3.5698
3.71023
3.84274
3.96889
4.08958
4.20431
4.31077
4.40536
4.4841
4.5431
4.57401
4.57102
4.5278
4.43797
4.29717
4.10563
3.8697
3.60161
3.31759
3.03481
2.76458
2.51233
2.28376
2.08232
1.90924
1.76377
1.64355
1.54503
1.46395
1.39621
1.33848
1.28843
1.24481
1.20709
1.17555
1.14993
1.12831
1.10793
1.08578
1.05946
1.0279
0.99162
0.952502
0.913255
0.876584
0.844192
0.817139
0.796137
0.780945
0.769985
0.760774
0.750218
0.735014
0.712126
0.679248
0.635224
0.58033
0.516434
0.4468
0.375436
0.30671
0.244721
0.192642
0.152225
0.124531
0.10984
0.108016
0.118859
0.142076
0.177666
0.225555
0.285248
0.355488
0.434113
0.518143
0.603737
0.686279
0.760853
0.822789
0.867911
0.892731
0.894609
0.871928
0.824354
0.753179
0.661656
0.554554
0.43815
0.324501
0.22679
0.156354
0.120237
0.119613
0.149597
0.200502
0.260132
0.31642
0.361517
0.390566
0.401553
0.395649
0.376792
0.350984
0.325418
0.307492
0.303608
0.317445
0.350077
0.400913
0.468074
0.548387
0.635616
0.721754
0.79954
0.863929
0.913075
0.948508
0.974427
0.996242
1.01879
1.04539
1.07298
1.09054
1.08247
1.03331
0.932433
0.777378
0.574853
0.339471
0.0908163
-0.151064
-0.371203
-0.482911
-0.20874
0.329077
0.903876
1.28198
1.30548
0.969747
0.434378
-0.0515288
-0.277493
-0.200355
-0.0982461
-0.0219246
0
-0.0456001
-0.154528
-0.309782
-0.489414
-0.672924
-0.491384
0.269763
1.74438
3.93405
6.51174
8.85445
10.2721
10.3176
9.0053
6.81037
4.44559
2.53694
1.37722
0.880576
0.737204
0.64287
0.556732
0.475991
0.402241
0.336002
0.276966
0.224332
0.17716
0.134671
0.0963951
0.062162
0.0320057
0.00609093
-0.0153458
-0.0317266
-0.0420824
-0.0450253
-0.0389011
-0.0221264
0.00637741
0.0465569
0.0974508
0.157235
0.223418
0.293277
0.364304
0.434485
0.502356
0.566524
0.625121
0.676106
0.717817
0.749275
0.771422
0.788191
0.806754
0.83664
0.887857
0.968587
1.08034
1.2183
1.37725
1.55162
1.73503
1.91908
2.09435
2.25218
2.38525
2.48681
2.54964
2.5706
2.54793
2.48119
2.37155
2.22199
2.03735
1.82397
1.589
1.33977
1.08426
0.828476
0.577715
0.33734
0.112665
-0.0913216
-0.26862
-0.41169
-0.51911
-0.599513
-0.664898
-0.727142
-0.794514
-0.869499
-0.948779
-1.02528
-1.09147
-1.1437
-1.18221
-1.21011
-1.233
-1.25704
-1.28696
-1.32442
-1.36746
-1.41091
-1.44776
-1.47113
-1.47726
-1.45758
-1.4092
-1.3459
-1.28733
-1.2525
-1.25358
-1.2919
-1.35736
-1.43176
-1.49468
-1.53031
-1.53914
-1.52151
-1.48894
-1.457
-1.43939
-1.44289
-1.46505
-1.49604
-1.52376
-1.53996
-1.54487
-1.54519
-1.55096
-1.57081
-1.60779
-1.65822
-1.71383
-1.76628
-1.81155
-1.85295
-1.8956
-1.94529
-2.00561
-2.07568
-2.14982
-2.217
-2.26527
-2.28587
-2.27614
-2.24006
-2.18617
-2.12417
-2.0617
-2.00223
-1.9475
-1.90038
-1.86443
-1.8455
-1.85051
-1.88418
-1.94564
-2.02698
-2.11448
-2.1925
-2.24811
-2.28021
-2.29134
-2.28497
-2.26677
-2.24285
-2.21826
-2.1958
-2.17643
-2.15948
-2.14324
-2.12554
-2.10431
-2.07789
-2.04519
-2.00557
-1.96045
192
398
607
822
1026
1242
1464
1689
1912
2130
2346
2557
2757
2959
3164
3376
3582
3690
2999
3165
3329
3494
3654
0
0
0
0
0
0
0
0
0
0
0
0
0
0
0
0
0
0
0
0
0
0
0
0
0
0
0
0
0
0
0
0
0
0
0
0
0
0
0
0
0
0
0
0
0
0
0
0
0
0
0
0
0
0
0
0
0
0
0
0
0
0
0
0
0
0
0
0
0
0
0
0
0
0
0
0
0
0
0
0
0
0
0
0
0
0
0
0
0
0
0
0
0
0
0
0
0
0
0
0
0
0
0
0
0
0
0
0
0
0
0
0
0
0
0
0
0
0
0
0
0
0
0
0
0
0
0
0
0
0
0
0
0
0
0
0
0
0
0
0
0
0
0
0
0
0
0
0
0
0
0
0
0
0
0
0
0
0
0
0
0
0
0
0
0
0
0
0
0
0
0
0
0
0
0
0
0
0
0
0
0
0
0
0
0
0
0
0
0
0
0
0
0
0
0
0
0
0
0
0
0
0
0
0
0
0
0
0
0
0
0
0
0
0
0
0
0
0
0
0
0
0
0
0
0
0
0
0
0
0
0
0
0
0
0
0
0
0
0
0
0
0
0
0
0
0
0
0
0
0
0
0
0
0
0
0
0
0
0
0
0
0
0
0
0
0
0
0
0
0
0
0
0
0
0
0
0
0
0
0
0
0
0
0
0
0
0
0
0
0
0
0
0
0
0
0
0
0
0
0
0
0
0
0
0
0
0
0
0
0
0
0
0
0
0
0
0
0
0
0
0
0
0
0
0
0
0
0
0
0
0
0
0
0
0
0
0
0
0
0
0
0
0
0
0
0
0
0
0
0
0
0
0
0
0
0
0
0
0
0
0
0
0
0
0
0
0
0
0
0
0
0
0
0
0
0
0
0
0
0
0
0
0
0
0
0
0
0
0
0
0
0
0
0
0
0
0
0
0
0
0
0
0
0
0
0
0
0
0
0
0
0
0
0
0
0
0
0
0
0
0
0
0
0
0
0
0
0
0
0
0
0
0
0
0
0
0
0
0
0
0
0
0
0
0
0
0
0
0
0
0
0
0
0
0
0
0
0
0
0
0
0
0
0
0
0
0
0
0
0
0
0
0
0
0
0
0
0
0
0
0
0
0
0
0
0
0
0
0
0
0
0
0
0
0
0
0
0
0
0
0
0
0
0
0
0
0
0
0
0
0
0
0
0
0
0
0
0
0
0
0
0
0
0
0
0
0
0
0
0
0
0
0
0
0
0
0
0
0
0
0
0
0
0
0
0
0
0
0
0
0
0
0
0
0
0
0
0
0
0
0
0
0
0
0
0
0
0
0
0
0
0
0
0
0
0
0
0
0
0
0
0
0
0
0
0
0
0
0
0
0
0
0
0
0
0
0
0
0
0
0
0
0
0
0
0
0
0
0
0
0
0
0
0
0
0
0
0
0
0
0
0
0
0
0
0
0
0
0
0
0
0
0
0
0
0
0
0
0
0
0
0
0
0
0
0
0
0
0
0
0
0
0
0
0
0
0
0
0
0
0
0
0
0
0
0
0
0
0
0
0
0
0
0
0
0
0
0
0
0
0
0
0
0
0
0
0
0
0
0
0
0
0
0
0
0
0
0
0
0
0
0
0
0
0
0
0
0
0
0
0
0
0
0
0
0
0
0
0
0
0
0
0
0
0
0
0
0
0
0
0
0
0
0
0
0
0
0
0
0
0
0
0
0
0
0
0
0
0
0
0
0
0
0
0
0
0
0
0
0
0
0
0
0
0
0
0
0
0
0
0
0
0
0
0
0
0
0
0
0
0
0
0
0
0
0
0
0
0
0
0
0
0
0
0
0
0
0
0
0
0
0
0
0
0
0
0
0
0
0
0
0
0
0
0
0
0
0
0
0
0
0
0
0
0
0
0
0
0
0
0
0
0
0
0
0
0
0
0
0
0
0
0
0
0
0
0
0
0
0
0
0
0
0
0
0
0
0
0
0
0
0
0
0
0
0
0
0
0
0
0
0
0
0
0
0
0
0
0
0
0
0
0
0
0
0
0
0
0
0
0
0
0
0
0
0
0
0
0
0
0
0
0
0
0
0
0
0
0
0
0
0
0
0
0
0
0
0
0
0
0
0
0
0
0
0
0
0
0
0
0
0
0
0
0
0
0
0
0
0
0
0
0
0
0
0
0
0
0
0
0
0
0
0
0
0
0
0
0
0
0
0
0
0
0
0
0
0
0
0
0
0
0
0
0
0
0
0
0
0
0
0
0
0
0
0
0
0
0
0
0
0
0
0
0
0
0
0
0
0
0
0
0
0
0
0
0
0
0
0
0
0
0
0
0
0
0
0
0
0
0
0
0
0
0
0
0
0
0
0
0
0
0
0
0
0
0
0
0
0
0
0
0
0
0
0
0
0
0
0
0
0
0
0
0
0
0
0
0
0
0
0
0
0
0
0
0
0
0
0
0
0
0
0
0
0
0
0
0
0
0
0
0
0
0
0
0
0
0
0
0
0
0
0
0
0
0
0
0
0
0
0
0
0
0
0
0
0
0
0
0
0
0
0
0
0
0
0
0
0
0
0
0
0
0
0
0
0
0
0
0
0
0
0
0
0
0
0
0
0
0
0
0
0
0
0
0
0
0
0
0
0
0
0
0
0
0
0
0
0
0
0
0
0
0
0
0
0
0
0
0
0
0
0
0
0
0
0
0
0
0
0
0
0
0
0
0
0
0
0
0
0
0
0
0
0
0
0
0
0
0
0
0
0
0
0
0
0
0
0
0
0
0
0
0
0
0
0
0
0
0
0
0
0
0
0
0
0
0
0
0
0
0
0
0
0
0
0
0
0
0
0
0
0
0
0
0
0
0
0
0
0
0
0
0
0
0
0
0
0
0
0
0
0
0
0
0
0
0
0
0
0
0
0
0
0
0
0
0
0
0
0
0
0
0
0
0
0
0
0
0
0
0
0
0
0
0
0
0
0
0
0
0
0
0
0
0
0
0
0
0
0
0
0
0
0
0
0
0
0
0
0
0
0
0
0
0
0
0
0
0
0
0
0
0
0
0
0
0
0
0
0
0
0
0
0
0
0
0
0
0
0
0
0
0
0
0
0
0
0
0
0
0
0
0
0
0
0
0
0
0
0
0
0
0
0
0
0
0
0
0
0
0
0
0
0
0
0
0
0
0
0
0
0
0
0
0
0
0
0
0
0
0
0
0
0
0
0
0
0
0
0
0
0
0
0
0
0
0
0
0
0
0
0
0
0
0
0
0
0
0
0
0
0
0
0
0
0
0
0
0
0
0
0
0
0
0
0
0
0
0
0
0
0
0
0
0
0
0
0
0
0
0
0
0
0
0
0
0
0
0
0
0
0
0
0
0
0
0
0
0
0
0
0
0
0
0
0
0
0
0
0
0
0
0
0
0
0
0
0
0
0
0
0
0
0
0
0
0
0
0
0
0
0
0
0
0
0
0
0
0
0
0
0
0
0
0
0
0
0
0
0
0
0
0
0
0
0
0
0
0
0
0
0
0
0
0
0
0
0
0
0
0
0
0
0
0
0
0
0
0
0
0
0
0
0
0
0
0
0
0
0
0
0
0
0
0
0
0
0
0
0
0
0
0
0
0
0
0
0
0
0
0
0
0
0
0
0
0
0
0
0
0
0
0
0
0
0
0
0
0
0
0
0
0
0
0
0
0
0
0
0
0
0
0
0
0
0
0
0
0
0
0
0
0
0
0
0
0
0
0
0
0
0
0
0
0
0
0
0
0
0
0
0
0
0
0
0
0
0
0
0
0
0
0
0
0
0
0
0
0
0
0
0
0
0
0
0
0
0
0
0
0
0
0
0
0
0
0
0
0
0
0
0
0
0
0
0
0
0
0
0
0
0
0
0
0
0
0
0
0
0
0
0
0
0
0
0
0
0
0
0
0
0
0
0
0
0
0
0
0
0
0
0
0
0
0
0
0
0
0
0
0
0
0
0
0
0
0
0
0
0
0
0
0
0
0
0
0
0
0
0
0
0
0
0
0
0
0
0
0
0
0
0
0
0
0
0
0
0
0
0
0
0
0
0
0
0
0
0
0
0
0
0
0
0
0
0
0
0
0
0
0
0
0
0
0
0
0
0
0
0
0
0
0
0
0
0
0
0
0
0
0
0
0
0
0
0
0
0
0
0
0
0
0
0
0
0
0
0
0
0
0
0
0
0
0
0
0
0
0
0
0
0
0
0
0
0
0
0
0
0
0
0
0
0
0
0
0
0
0
0
0
0
0
0
0
0
0
0
0
0
0
0
0
0
0
0
0
0
0
0
0
0
0
0
0
0
0
0
0
0
0
0
0
0
0
0
0
0
0
0
0
0
0
0
0
0
0
0
0
0
0
0
0
0
0
0
0
0
0
0
0
0
0
0
0
0
0
0
0
0
0
0
0
0
0
0
0
0
0
0
0
0
0
0
0
0
0
0
0
0
0
0
0
0
0
0
0
0
0
0
0
0
0
0
0
0
0
0
0
0
0
0
0
0
0
0
0
0
0
0
0
0
0
0
0
0
0
0
0
0
0
0
0
0
0
0
0
0
0
0
0
0
0
0
0
0
0
0
0
0
0
0
0
0
0
0
0
0
0
0
0
0
0
0
0
0
0
0
0
0
0
0
0
0
0
0
0
0
0
0
0
0
0
0
0
0
0
0
0
0
0
0
0
0
0
0
0
0
0
0
0
0
0
0
0
0
0
0
0
0
0
0
0
0
0
0
0
0
0
0
0
0
0
0
0
0
0
0
0
0
0
0
0
0
0
0
0
0
0
0
0
0
0
0
0
0
0
0
0
0
0
0
0
0
0
0
0
0
0
0
0
0
0
0
0
0
0
0
0
0
0
0
0
0
0
0
0
0
0
0
0
0
0
0
0
0
0
0
0
0
0
0
0
0
0
0
0
0
0
0
0
0
0
0
0
0
0
0
0
0
0
0
0
0
0
0
0
0
0
0
0
0
0
0
0
0
0
0
0
0
0
0
0
0
0
0
0
0
0
0
0
0
0
0
0
0
0
0
0
0
0
0
0
0
0
0
0
0
0
0
0
0
0
0
0
0
0
0
0
0
0
0
0
0
0
0
0
0
0
0
0
0
0
0
0
0
0
0
0
0
0
0
0
0
0
0
0
0
0
0
0
0
0
0
0
0
0
0
0
0
0
0
0
0
0
0
0
0
0
0
0
0
0
0
0
0
0
0
0
0
0
0
0
0
0
0
0
0
0
0
0
0
0
0
0
0
0
0
0
0
0
0
0
0
0
0
0
0
0
0
0
0
0
0
0
0
0
0
0
0
0
0
0
0
0
0
0
0
0
0
0
0
0
0
0
0
0
0
0
0
0
0
0
0
0
0
0
0
0
0
0
0
0
0
0
0
0
0
0
0
0
0
0
0
0
0
0
0
0
0
0
0
0
0
0
0
0
0
0
0
0
0
0
0
0
0
0
0
0
0
0
0
0
0
0
0
0
0
0
0
0
0
0
0
0
0
0
0
0
0
0
0
0
0
0
0
0
0
0
0
0
0
0
0
0
0
0
0
0
0
0
0
0
0
0
0
0
0
0
0
0
0
0
0
0
0
0
0
0
0
0
0
0
0
0
0
0
0
0
0
0
0
0
0
0
0
0
0
0
0
0
0
0
0
0
0
0
0
0
0
0
0
0
0
0
0
0
0
0
0
0
0
0
0
0
0
0
0
0
0
0
0
0
0
0
0
0
0
0
0
0
0
0
0
0
0
0
0
0
0
0
0
0
0
0
0
0
0
0
0
0
0
0
0
0
0
0
0
0
0
0
0
0
0
0
0
0
0
0
0
0
0
0
0
0
0
0
0
0
0
0
0
0
0
0
0
0
0
0
0
0
0
0
0
0
0
0
0
0
0
0
0
0
0
0
0
0
0
0
0
0
0
0
0
0
0
0
0
0
0
0
0
0
0
0
0
0
0
0
0
0
0
0
0
0
0
0
0
0
0
0
0
0
0
0
0
0
0
0
0
0
0
0
0
0
0
0
0
0
0
0
0
0
0
0
0
0
0
0
0
0
0
0
0
0
0
0
0
0
0
0
0
0
0
0
0
0
0
0
0
0
0
0
0
0
0
0
0
0
0
0
0
0
0
0
0
0
0
0
0
0
0
0
0
0
0
0
0
0
0
0
0
0
0
0
0
0
0
0
0
0
0
0
0
0
0
0
0
0
0
0
0
0
0
0
0
0
0
0
0
0
0
0
0
0
0
0
0
0
0
0
0
0
0
0
0
0
0
0
0
0
0
0
0
0
0
0
0
0
0
0
0
0
0
0
0
0
0
0
0
0
0
0
0
0
0
0
0
0
0
0
0
0
0
0
0
0
0
0
0
0
0
0
0
0
0
0
0
0
0
0
0
0
0
0
0
0
0
0
0
0
0
0
0
0
0
0
0
0
0
0
0
0
0
0
0
0
0
0
0
0
0
0
0
0
0
0
0
0
0
0
0
0
0
0
0
0
0
0
0
0
0
0
0
0
0
0
0
0
0
0
0
0
0
0
0
0
0
0
0
0
0
0
0
0
0
0
0
0
0
0
0
0
0
0
0
0
0
0
0
0
0
0
0
0
0
0
0
0
0
0
0
0
0
0
0
0
0
0
0
0
0
0
0
0
0
0
0
0
0
0
0
0
0
0
0
0
0
0
0
0
0
0
0
0
0
0
0
0
0
0
0
0
0
0
0
0
0
0
0
0
0
0
0
0
0
0
0
0
0
0
0
0
0
0
0
0
0
0
0
0
0
0
0
0
0
0
0
0
0
0
0
0
0
0
0
0
0
0
0
0
0
0
0
0
0
0
0
0
0
0
0
0
0
0
0
0
0
0
0
0
0
0
0
0
0
0
0
0
0
0
0
0
0
0
0
0
0
0
0
0
0
0
0
0
0
0
0
0
0
0
0
0
0
0
0
0
0
0
0
0
0
0
0
0
0
0
0
0
0
0
0
0
0
0
0
0
0
0
0
0
0
0
0
0
0
0
0
0
0
0
0
0
0
0
0
0
0
0
0
0
0
0
0
0
0
0
0
0
0
0
0
0
0
0
0
0
0
0
0
0
0
0
0
0
0
0
0
0
0
0
0
0
0
0
0
0
0
0
0
0
0
0
0
0
0
0
0
0
0
0
0
0
0
0
0
0
0
0
0
0
0
0
0
0
0
0
0
0
0
0
0
0
0
0
0
0
0
0
0
0
0
0
0
0
0
0
0
0
0
0
0
0
0
0
0
0
0
0
0
0
0
0
0
0
0
0
0
0
0
0
0
0
0
0
0
0
0
0
0
0
0
0
0
0
0
0
0
0
0
0
0
0
0
0
0
0
0
0
0
0
0
0
0
0
0
0
0
0
0
0
0
0
0
0
0
0
0
0
0
0
0
0
0
0
0
0
0
0
0
0
0
0
0
0
0
0
0
0
0
0
0
0
0
0
0
0
0
0
0
0
0
0
0
0
0
0
0
0
0
0
0
0
0
0
0
0
0
0
0
0
0
0
0
0
0
0
0
0
0
0
0
0
0
0
0
0
0
0
0
0
0
0
0
0
0
0
0
0
0
0
0
0
0
0
0
0
0
0
0
0
0
0
0
0
0
0
0
0
0
0
0
0
0
0
0
0
0
0
0
0
0
0
0
0
0
0
0
0
0
0
0
0
0
0
0
0
0
0
0
0
0
0
0
0
0
0
0
0
0
0
0
0
0
0
0
0
0
0
0
0
0
0
0
0
0
0
0
0
0
0
0
0
0
0
0
0
0
0
0
0
0
0
0
0
0
0
0
0
0
0
0
0
0
0
0
0
0
0
0
0
0
0
0
0
0
0
0
0
0
0
0
0
0
0
0
0
0
0
0
0
0
0
0
0
0
0
0
0
0
0
0
0
0
0
0
0
0
0
0
0
0
0
0
0
0
0
0
0
0
0
0
0
0
0
0
0
0
0
0
0
0
0
0
0
0
0
0
0
0
0
0
0
0
0
0
0
0
0
0
0
0
0
0
0
0
0
0
0
0
0
0
0
0
0
0
0
0
0
0
0
0
0
0
0
0
0
0
0
0
0
0
0
0
0
0
0
0
0
0
0
0
0
0
0
0
0
0
0
0
0
0
0
0
0
0
0
0
0
0
0
0
0
0
0
0
0
0
0
0
0
0
0
0
0
0
0
0
0
0
0
0
0
0
0
0
0
0
0
0
0
0
0
0
0
0
0
0
0
0
0
0
0
0
0
0
0
0
0
0
0
0
0
0
0
0
0
0
0
0
0
0
0
0
0
0
0
0
0
0
0
0
0
0
0
0
0
0
0
0
0
0
0
0
0
0
0
0
0
0
0
0
0
0
0
0
0
0
0
0
0
0
0
0
0
0
0
0
0
0
0
0
0
0
0
0
0
0
0
0
0
0
0
0
0
0
0
0
