0.0916885
0.138068
0.188956
0.501547
1.13637
2.07821
3.17889
4.15745
4.68611
4.53944
3.72353
2.49666
1.25978
0.375667
0.0180811
0.173588
0.452961
0.728254
0.990768
1.2326
1.44953
1.64289
1.81049
1.95173
2.06775
2.16134
2.23668
2.29879
2.35297
2.4042
2.45656
2.51281
2.57468
2.6429
2.71775
2.79788
2.88161
2.9675
3.05474
3.1431
3.23278
3.32279
3.40857
3.48328
3.54132
3.58282
3.61621
3.65667
3.72074
3.81932
3.94924
4.09638
4.25163
4.40576
4.55195
4.68739
4.81341
4.93418
5.05469
5.17875
5.30696
5.43788
5.5686
5.69347
5.80501
5.89594
5.95973
5.99125
5.98714
5.94599
5.86822
5.75576
5.61161
5.44215
5.2542
5.05291
4.84257
4.6275
4.41247
4.20261
4.00313
3.8188
3.65341
3.5092
3.38652
3.28391
3.19851
3.12669
3.06483
3.01003
2.96053
2.91583
2.87638
2.84316
2.81722
2.79913
2.78761
2.77935
2.76967
2.7531
2.72403
2.67729
2.60852
2.51455
2.39388
2.24859
2.08354
1.90432
1.71796
1.53341
1.36051
1.20808
1.08256
0.98711
0.921412
0.882228
0.864396
0.861997
0.869055
0.880937
0.894132
0.906243
0.915867
0.922344
0.925494
0.925475
0.922621
0.91728
0.90966
0.899724
0.887088
0.870996
0.850343
0.82373
0.789562
0.746174
0.692017
0.625863
0.546999
0.455367
0.3516
0.236951
0.113148
-0.017741
-0.153372
-0.291112
-0.427558
-0.558284
-0.678061
-0.767405
-0.703047
-0.333861
0.185993
0.633671
0.821295
0.686394
0.319193
-0.0893295
-0.35729
-0.440552
0
0.715685
1.53046
2.33506
3.07651
3.68587
4.01517
3.86685
3.12213
1.87725
0.462936
-0.688384
-1.24903
-1.01441
-0.506846
-0.0108753
0.396482
0.65124
0.772623
0.854124
0.911339
0.952114
0.983503
1.01087
1.03746
1.06463
1.09241
1.12053
1.14928
1.17994
1.21458
1.25538
1.30394
1.36035
1.4227
1.48877
1.55592
1.62028
1.67683
1.72142
1.75149
1.76709
1.77167
1.77228
1.77862
1.80109
1.84835
1.92377
2.02306
2.14082
2.27307
2.41558
2.56431
2.71619
2.86896
3.02092
3.17025
3.31375
3.44732
3.56684
3.66926
3.75401
3.82381
3.88429
3.9418
4.00601
4.07595
4.13523
4.15909
4.12596
4.02679
3.8675
3.66462
3.43827
3.20689
2.98203
2.76683
2.56376
2.37582
2.20502
2.05213
1.91654
1.79641
1.68894
1.59095
1.49952
1.41307
1.33246
1.262
1.2087
1.18053
1.18258
1.21388
1.26646
1.32734
1.38268
1.42222
1.44525
1.45249
1.44736
1.43419
1.41677
1.39807
1.37965
1.36286
1.34902
1.33952
1.33561
1.33824
1.34731
1.36237
1.38287
1.40788
1.43619
1.46612
1.49514
1.52063
1.54067
1.5549
1.56514
1.57559
1.59227
1.62185
1.66997
1.73853
1.82672
1.93577
2.05529
2.16807
2.25677
2.3079
2.31399
2.27358
2.18928
2.06545
1.90693
1.72335
1.52492
1.31944
1.11402
0.916058
0.733526
0.577163
0.455565
0.365614
0.298555
0.243014
0.188712
0.129545
0.0650578
0
-0.0636985
-0.112166
-0.142742
-0.156134
-0.153184
-0.136619
-0.110521
-0.0793481
-0.0469932
-0.0192552
-0.156531
0.0715634
0.881402
2.20276
3.62066
4.52329
4.41077
3.19085
1.26545
-0.664344
-1.959
-2.34081
-1.8988
-1.22505
-0.564256
-0.11267
0.0427011
0.0785454
0.0946409
0.101059
0.0989581
0.0898441
0.0755092
0.057962
0.0393646
0.0219527
0.00794048
-0.000629902
-0.00207129
0.00474634
0.020203
0.0437843
0.0746794
0.11124
0.149145
0.18285
0.208044
0.223341
0.231318
0.238313
0.252837
0.283145
0.334952
0.407574
0.495999
0.597176
0.709357
0.831297
0.962529
1.10337
1.25466
1.41724
1.59134
1.7761
1.96923
2.167
2.36457
2.55653
2.73764
2.90336
3.04955
3.17139
3.26462
3.32877
3.36375
3.36947
3.34579
3.29258
3.20985
3.09788
2.95758
2.79138
2.60569
2.40694
2.20141
1.99617
1.79871
1.61629
1.45696
1.32766
1.22755
1.15219
1.09518
1.04993
1.01109
0.975159
0.940375
0.906326
0.873488
0.842817
0.815686
0.793519
0.777348
0.768266
0.765009
0.765175
0.766133
0.76609
0.764683
0.76277
0.761537
0.761503
0.762059
0.761857
0.759802
0.75605
0.752407
0.751845
0.757375
0.770818
0.790851
0.815537
0.842815
0.870453
0.896607
0.920211
0.941123
0.960052
0.978325
0.997631
1.01978
1.04647
1.07937
1.11994
1.16922
1.2276
1.29455
1.36861
1.44738
1.52555
1.59578
1.65078
1.68456
1.69328
1.67537
1.63085
1.56031
1.46416
1.34379
1.20356
1.04666
0.875693
0.694483
0.508694
0.330704
0.175456
0.056143
-0.0189575
-0.048543
-0.0384857
0
0.0560846
0.115722
0.171743
0.223159
0.270712
0.315742
0.359887
0.40453
0.451622
0.519986
0.758492
1.30999
2.18514
3.19168
3.98172
4.20502
3.6877
2.5368
1.10602
-0.166772
-0.962182
-1.15671
-1.00585
-0.850975
-0.700292
-0.56205
-0.443811
-0.345638
-0.26243
-0.190788
-0.127635
-0.0680538
-0.00558109
0.0744513
0.19875
0.354644
0.503413
0.597985
0.606976
0.531675
0.407064
0.286772
0.219608
0.22845
0.274634
0.341118
0.404421
0.443098
0.44481
0.410662
0.35493
0.299864
0.267325
0.27083
0.302727
0.350834
0.408689
0.472533
0.539739
0.609302
0.681809
0.758939
0.842717
0.934719
1.03535
1.14408
1.25968
1.38046
1.50479
1.6316
1.76077
1.89384
2.03496
2.18111
2.31077
2.38937
2.38465
2.28491
2.10761
1.89139
1.67542
1.47978
1.29506
1.11242
0.929069
0.744196
0.559096
0.377167
0.203297
0.0426382
-0.0999827
-0.219325
-0.310235
-0.375262
-0.422151
-0.459597
-0.494526
-0.530179
-0.565692
-0.597237
-0.620178
-0.631246
-0.631861
-0.624252
-0.610905
-0.594735
-0.578458
-0.564213
-0.553515
-0.547379
-0.546455
-0.551141
-0.561608
-0.577633
-0.598459
-0.622719
-0.648442
-0.673162
-0.69389
-0.707672
-0.711881
-0.704576
-0.684772
-0.652553
-0.608971
-0.555763
-0.494981
-0.428773
-0.359179
-0.28772
-0.215546
-0.14356
-0.0723068
-0.00165329
0.0695377
0.143662
0.22441
0.316485
0.4375
0.656978
1.0324
1.46191
1.81905
2.01783
2.04323
1.93721
1.75844
1.54804
1.32306
1.09532
0.877266
0.674446
0.489375
0.323161
0.18203
0.0701665
-0.00991125
-0.0578811
-0.0758596
-0.0681934
-0.0407691
0
0.0420926
0.0868675
0.131419
0.174412
0.21525
0.253764
0.290106
0.324411
0.354868
0.416546
0.734232
1.4754
2.64712
3.98023
4.98205
5.173
4.36901
2.81346
1.05805
-0.32766
-1.02072
-1.02548
-0.608452
-0.218793
0.113651
0.371618
0.55767
0.718528
0.862187
0.987428
1.09276
1.17734
1.24307
1.29562
1.34367
1.39641
1.46035
1.53702
1.62058
1.70544
1.78646
1.8594
1.92199
1.97437
2.01902
2.06001
2.10199
2.14912
2.20429
2.26849
2.34098
2.42018
2.5043
2.59168
2.68106
2.77172
2.8634
2.95617
3.05027
3.1461
3.24419
3.34524
3.44997
3.55878
3.67136
3.78638
3.90139
4.01283
4.11706
4.21131
4.2944
4.36688
4.43055
4.48616
4.53292
4.56644
4.57786
4.55527
4.48788
4.37011
4.20416
3.99992
3.77244
3.53806
3.3099
3.0929
2.8894
2.70219
2.53303
2.38271
2.25211
2.14227
2.05044
1.97071
1.8966
1.8227
1.7461
1.66728
1.58988
1.51949
1.46181
1.41899
1.39481
1.39033
1.39674
1.40249
1.39737
1.37601
1.33988
1.29679
1.25821
1.23531
1.23511
1.26537
1.31832
1.37033
1.39529
1.37372
1.30001
1.18583
1.05778
0.948867
0.886302
0.874021
0.892269
0.928023
0.975632
1.03038
1.08943
1.15215
1.21945
1.29274
1.37281
1.45868
1.54861
1.63908
1.72632
1.80732
1.88056
1.94599
2.00274
2.04706
2.07383
2.0721
2.02812
1.9312
1.77926
1.58145
1.35649
1.12759
0.916016
0.72602
0.557164
0.411916
0.290971
0.194169
0.120091
0.0663013
0.0299772
0.00878639
0
-0.00282841
0.000922012
0.00961227
0.0228018
0.0411638
0.0660715
0.0989721
0.142135
0.206205
0.37833
0.661076
1.12691
1.83663
2.68928
3.40495
3.63697
3.1544
1.98514
0.434736
-1.03361
-1.99274
-2.17029
-1.73421
-0.898681
-0.0189949
0.596144
0.704677
0.623251
0.53788
0.461074
0.401915
0.36577
0.350274
0.350195
0.363372
0.388154
0.422675
0.464941
0.512846
0.564135
0.616534
0.667771
0.715476
0.757461
0.792171
0.81876
0.837252
0.848617
0.854762
0.858431
0.863044
0.872499
0.890571
0.921133
0.967577
1.03239
1.11673
1.22018
1.34071
1.47427
1.61679
1.76377
1.9106
2.05196
2.18134
2.29407
2.38713
2.46002
2.51557
2.56009
2.60259
2.65307
2.7254
2.8437
2.99836
3.15205
3.26174
3.29698
3.25027
3.13537
2.97512
2.78728
2.57851
2.35698
2.13127
1.90736
1.69119
1.48947
1.31117
1.16525
1.05337
0.971091
0.909743
0.858525
0.807135
0.748195
0.678982
0.601973
0.525096
0.463186
0.431669
0.441279
0.493829
0.580754
0.685207
0.786989
0.868372
0.91951
0.937976
0.928125
0.897977
0.855633
0.807428
0.755917
0.701189
0.642282
0.578075
0.508095
0.433038
0.355385
0.279614
0.212446
0.180955
0.303461
0.661921
1.10664
1.47017
1.62889
1.54182
1.25403
0.875896
0.561284
0.486626
0.654282
0.895328
1.15417
1.41667
1.67443
1.9165
2.12558
2.29264
2.41296
2.47365
2.45835
2.35786
2.17789
1.93904
1.67042
1.40218
1.15278
0.923565
0.714851
0.530459
0.37376
0.246206
0.147749
0.0768898
0.030835
0.00575638
-0.00288544
0
0.0159981
0.0341007
0.0498512
0.0597515
0.0615353
0.0543762
0.0387241
-0.000331116
0.0104385
0.409723
1.23814
2.33909
3.40016
4.06814
4.07852
3.35009
2.01984
0.414668
-1.03867
-1.95199
-2.07843
-1.60288
-0.77503
0.0327923
0.550223
0.647349
0.616027
0.583659
0.557782
0.54345
0.542712
0.554174
0.574705
0.600702
0.63001
0.66345
0.705315
0.769603
0.918156
1.17146
1.46258
1.68677
1.76304
1.67893
1.49255
1.29781
1.17874
1.17687
1.23106
1.30641
1.39316
1.48817
1.58953
1.69643
1.8088
1.92671
2.04983
2.17706
2.30641
2.43551
2.56201
2.68405
2.80068
2.91197
3.01891
3.12305
3.22592
3.32854
3.43082
3.53
3.62044
3.69506
3.7474
3.77343
3.77212
3.74448
3.69175
3.61374
3.50913
3.38204
3.23385
3.06601
2.88219
2.68794
2.4898
2.29411
2.10537
1.92731
1.76259
1.61296
1.47949
1.36308
1.26364
1.18052
1.11268
1.05879
1.01742
0.987053
0.966045
0.952771
0.944868
0.939242
0.932435
0.921056
0.902324
0.874611
0.837805
0.793395
0.744275
0.694326
0.64776
0.608715
0.581056
0.567252
0.568356
0.583858
0.611748
0.648786
0.691018
0.734439
0.7757
0.812746
0.84513
0.873798
0.900994
0.929909
0.964145
1.007
1.06166
1.1306
1.21513
1.31507
1.42932
1.55553
1.68741
1.81536
1.92896
2.01866
2.07676
2.09795
2.0794
2.02058
1.92305
1.79036
1.62806
1.44399
1.24756
1.04829
0.854148
0.671753
0.50713
0.36501
0.25045
0.170579
0.126294
0.104699
0.0911421
0.0741808
0.0496147
0.0217724
0.00125809
0
0.0214184
0.0670961
0.127201
0.195737
0.266517
0.329734
0.192154
0.481373
1.32437
2.52767
3.65351
4.21684
3.90378
2.71875
1.0025
-0.694594
-1.83952
-2.13745
-1.67073
-0.905358
-0.19312
0.210465
0.288813
0.325278
0.354272
0.374922
0.386523
0.391301
0.39584
0.410756
0.447945
0.51606
0.616133
0.743406
0.877222
0.993724
1.07507
1.11595
1.12444
1.11742
1.11311
1.1247
1.15185
1.18989
1.2362
1.28887
1.34627
1.40738
1.47215
1.54149
1.61716
1.70138
1.79648
1.90435
2.02605
2.16145
2.30894
2.46562
2.62742
2.78929
2.94458
3.08619
3.20849
3.30827
3.38562
3.44439
3.49187
3.53713
3.61255
3.79779
4.06099
4.31173
4.44938
4.41305
4.21237
3.92005
3.62568
3.37801
3.1576
2.93655
2.71312
2.48866
2.26564
2.04799
1.8406
1.64873
1.47715
1.32977
1.21224
1.13139
1.08425
1.05891
1.04253
1.02531
1.0034
0.979568
0.961135
0.955948
0.97396
1.00868
1.04341
1.05899
1.04351
0.999061
0.942348
0.901101
0.971428
1.18441
1.45187
1.6464
1.67265
1.51593
1.24682
0.98251
0.826305
0.815595
0.857027
0.911463
0.970811
1.03166
1.09308
1.15579
1.22089
1.28863
1.35799
1.42716
1.49481
1.56134
1.62971
1.70556
1.81088
2.0038
2.29656
2.60592
2.84361
2.95795
2.94196
2.81862
2.62065
2.3761
2.10312
1.81827
1.54109
1.28332
1.04872
0.838052
0.652098
0.493689
0.363429
0.259946
0.180415
0.121173
0.0783016
0.0480324
0.02691
0.0118664
0
-0.0135841
-0.0295666
-0.0500504
-0.0763054
-0.109121
-0.164818
-0.149429
0.233111
1.06045
2.20799
3.35384
4.10231
4.15547
3.43958
2.12465
0.543464
-0.929635
-1.982
-2.40923
-2.19753
-1.58548
-0.806788
-0.160104
0.142561
0.202833
0.250703
0.298057
0.346342
0.396107
0.447079
0.498319
0.54841
0.59589
0.639647
0.679151
0.714462
0.746014
0.773684
0.796928
0.815145
0.827662
0.834949
0.839728
0.847184
0.863877
0.895662
0.945517
1.01091
1.08653
1.16763
1.24966
1.32937
1.40533
1.47768
1.54747
1.61597
1.68426
1.75318
1.82364
1.89688
1.97451
2.05829
2.14967
2.24933
2.35644
2.46912
2.58465
2.69792
2.80016
2.88234
2.93625
2.95565
2.93688
2.87853
2.78043
2.64277
2.46611
2.25733
2.02707
1.7816
1.52721
1.27122
1.02123
0.783854
0.564818
0.370033
0.204912
0.0709656
-0.0320137
-0.10594
-0.154394
-0.18237
-0.195727
-0.200428
-0.201794
-0.203969
-0.209766
-0.220839
-0.237955
-0.260759
-0.289014
-0.322197
-0.359547
-0.400087
-0.442628
-0.485706
-0.527581
-0.56585
-0.597346
-0.618965
-0.627947
-0.622552
-0.602602
-0.569677
-0.526779
-0.477523
-0.425101
-0.371378
-0.316476
-0.259122
-0.197089
-0.127802
-0.0490471
0.040424
0.140812
0.251049
0.368822
0.490817
0.613066
0.731149
0.840311
0.935966
1.01446
1.07282
1.10876
1.12063
1.10744
1.06887
1.0055
0.918919
0.8121
0.689785
0.55782
0.42282
0.292062
0.174205
0.0765301
0.0042614
-0.0402954
-0.0581287
-0.053231
-0.031636
0
0.0492104
0.098901
0.14777
0.196673
0.247827
0.303777
0.366132
0.438744
0.542754
0.764813
1.14612
1.79986
2.74245
3.78081
4.52956
4.58788
3.78106
2.30679
0.672807
-0.546093
-0.981799
-0.452692
0.266738
1.02935
1.57894
1.74264
1.78162
1.80423
1.82045
1.83787
1.86038
1.88744
1.91678
1.9457
1.97151
1.99224
2.00692
2.01551
2.01857
2.01689
2.01127
2.00234
1.99054
1.97625
1.95991
1.94216
1.92378
1.90568
1.88883
1.87426
1.8631
1.85657
1.85606
1.86306
1.87903
1.90522
1.94234
1.99077
2.05128
2.12313
2.19951
2.27207
2.33422
2.38392
2.42536
2.46831
2.52522
2.61996
2.76851
2.94455
3.10375
3.20521
3.22902
3.18146
3.08737
2.9755
2.8646
2.7558
2.64335
2.52383
2.39488
2.25478
2.10299
1.94064
1.77032
1.59571
1.42098
1.25021
1.08702
0.93427
0.794132
0.668254
0.558009
0.464815
0.389926
0.334123
0.299193
0.288069
0.29825
0.322652
0.353176
0.382635
0.406332
0.4226
0.432184
0.436901
0.438405
0.437948
0.436388
0.434847
0.435351
0.440827
0.454536
0.479112
0.515587
0.562779
0.617317
0.674282
0.728252
0.774746
0.810547
0.83431
0.846704
0.850279
0.849157
0.848497
0.853721
0.869935
0.901093
0.955068
1.03796
1.13829
1.23889
1.32216
1.37506
1.39143
1.37089
1.31571
1.22819
1.11248
0.978333
0.831873
0.67826
0.524387
0.378375
0.247561
0.138376
0.0564782
0.0140154
0.0415686
0.155941
0.316176
0.47045
0.573178
0.599569
0.551251
0.451028
0.3304
0.216444
0.121489
0.0395966
0
0.182644
0.659947
1.47133
2.48495
3.40176
3.88289
3.72763
2.98589
1.92645
0.886415
0.109736
-0.318306
-0.314394
-0.0365031
0.246901
0.517374
0.752368
0.931826
1.04584
1.10002
1.11512
1.12028
1.14256
1.19736
1.27538
1.365
1.45775
1.54536
1.62186
1.68477
1.73495
1.77555
1.81025
1.84195
1.8721
1.90101
1.92886
1.95678
1.98741
2.02463
2.07262
2.13441
2.21035
2.29715
2.39068
2.48686
2.58176
2.67223
2.75651
2.83435
2.90691
2.97632
3.04512
3.11572
3.18989
3.2685
3.35142
3.43739
3.52388
3.60708
3.68197
3.74297
3.78523
3.80477
3.79887
3.76645
3.7082
3.62655
3.5253
3.4091
3.28293
3.15148
3.01823
2.8854
2.75449
2.62656
2.50238
2.38243
2.26691
2.15567
2.04811
1.94319
1.83953
1.73569
1.63085
1.52533
1.42102
1.3215
1.23148
1.15587
1.09985
1.06944
1.06439
1.07751
1.09868
1.11733
1.12501
1.11695
1.09287
1.05667
1.01552
0.978171
0.952215
0.945395
0.972582
1.02429
1.08056
1.11978
1.12903
1.11059
1.08082
1.06172
1.07005
1.11021
1.16546
1.22635
1.28745
1.34446
1.39472
1.43703
1.47071
1.4955
1.51063
1.51462
1.50544
1.481
1.43976
1.38131
1.30661
1.218
1.11888
1.013
0.903955
0.794629
0.686876
0.581858
0.480491
0.383698
0.292452
0.207991
0.131787
0.0656182
0.0124458
-0.0252463
-0.045917
-0.048544
-0.032934
0
0.0509245
0.11394
0.185352
0.261415
0.339276
0.399307
0.626807
1.16176
2.00529
2.96296
3.67329
3.77497
3.12564
1.91842
0.596999
-0.386587
-0.802829
-0.620789
-0.398228
-0.180864
0.00916746
0.154597
0.256042
0.333643
0.396484
0.446926
0.485837
0.514568
0.534325
0.546332
0.551977
0.552871
0.550793
0.547603
0.545205
0.545465
0.550449
0.562372
0.583395
0.61521
0.658526
0.712669
0.774966
0.84234
0.911262
0.978335
1.04126
1.09944
1.15414
1.20824
1.2655
1.32974
1.40386
1.48915
1.58481
1.68803
1.7952
1.90241
2.00573
2.1018
2.18849
2.26492
2.33133
2.38872
2.43821
2.47999
2.5127
2.53363
2.5388
2.52348
2.4835
2.41649
2.3226
2.20434
2.06561
1.91041
1.74266
1.56559
1.3809
1.19052
0.997783
0.807775
0.627136
0.463286
0.32813
0.233256
0.179034
0.156815
0.153468
0.155466
0.152694
0.140753
0.121256
0.100272
0.0855402
0.0827003
0.0973812
0.125864
0.158959
0.186717
0.203548
0.211359
0.218846
0.237062
0.273425
0.327311
0.389093
0.446011
0.486309
0.503844
0.500117
0.483171
0.464328
0.454511
0.458783
0.476753
0.508051
0.552741
0.610159
0.678941
0.757174
0.842589
0.932769
1.02537
1.11823
1.20937
1.2962
1.37458
1.43932
1.48454
1.50391
1.49215
1.44673
1.36901
1.26443
1.14158
1.01054
0.880694
0.757285
0.643166
0.540619
0.449978
0.370554
0.30129
0.241347
0.190402
0.148564
0.115965
0.0925349
0.0771351
0.0672344
0.0596047
0.0510859
0.0394152
0.0238206
0.00517044
-0.0148601
0
0.259377
0.812531
1.66594
2.65409
3.44736
3.69673
3.23905
2.21623
1.01137
0.0349874
-0.494036
-0.608428
-0.503036
-0.386952
-0.265233
-0.139945
-0.0155616
0.102347
0.208111
0.297421
0.368324
0.421367
0.458859
0.48253
0.494929
0.497735
0.492549
0.482181
0.471499
0.467029
0.475194
0.50392
0.553192
0.611924
0.66521
0.70162
0.718902
0.724961
0.733731
0.758384
0.805464
0.866998
0.937935
1.00984
1.07113
1.11241
1.12859
1.12052
1.09632
1.07157
1.06684
1.10218
1.19006
1.32639
1.48907
1.66186
1.83178
1.98764
2.12205
2.23224
2.31958
2.388
2.43972
2.4747
2.49116
2.4824
2.43946
2.35473
2.22524
2.05443
1.85209
1.63263
1.41213
1.20159
1.00617
0.833539
0.68846
0.567685
0.465333
0.375419
0.29406
0.220501
0.156634
0.105314
0.0683854
0.0435555
0.0283086
0.0191815
0.0125107
0.00539274
-0.00369396
-0.0147196
-0.0263316
-0.0364466
-0.0430955
-0.0446028
-0.0394669
-0.0268002
-0.0098383
0.00582795
0.0143404
0.011732
-0.00235581
-0.0241127
-0.0464036
-0.0606945
-0.0593708
-0.0412802
-0.00829577
0.037852
0.095469
0.16099
0.229593
0.297152
0.361222
0.421598
0.480264
0.54069
0.606668
0.682543
0.772049
0.87028
0.963698
1.03629
1.07441
1.07021
1.02247
0.935327
0.816105
0.673728
0.519683
0.364703
0.216219
0.079826
-0.0391882
-0.136976
-0.211799
-0.264243
-0.296993
-0.31424
-0.320884
-0.321742
-0.320935
-0.321437
-0.324982
-0.332068
-0.342065
-0.353421
-0.363942
-0.371066
-0.368416
-0.30842
0
0.492922
1.18919
2.06765
2.97626
3.62735
3.70653
3.05302
1.79805
0.35338
-0.772212
-1.22743
-0.939208
-0.498393
-0.106973
0.188635
0.364991
0.427226
0.405965
0.346843
0.296384
0.28831
0.319709
0.374042
0.442204
0.515554
0.585391
0.644692
0.689348
0.718716
0.73548
0.74495
0.753963
0.769111
0.795258
0.835601
0.891237
0.960546
1.0402
1.12686
1.21732
1.30891
1.39983
1.48922
1.57695
1.66331
1.74864
1.83317
1.91701
2.00039
2.08393
2.16892
2.25739
2.35196
2.45537
2.57038
2.7022
2.85699
3.03082
3.20526
3.35892
3.47336
3.53709
3.54679
3.50593
3.42263
3.30767
3.17291
3.03013
2.886
2.74291
2.6008
2.45884
2.31625
2.17252
2.02764
1.88225
1.73754
1.59511
1.45681
1.32465
1.2008
1.08761
0.987683
0.903439
0.836897
0.789534
0.762314
0.7546
0.7634
0.78305
0.806774
0.828404
0.84345
0.849692
0.847176
0.837672
0.823826
0.808307
0.793185
0.779568
0.767929
0.758526
0.751523
0.747046
0.74519
0.74604
0.749794
0.75674
0.767653
0.784231
0.80998
0.848563
0.903576
0.97722
1.06904
1.17733
1.29365
1.40726
1.50775
1.58748
1.64303
1.67512
1.68723
1.68346
1.66719
1.64065
1.6038
1.55503
1.49264
1.41583
1.32539
1.224
1.1161
1.00722
0.903114
0.808518
0.727064
0.66059
0.608017
0.565879
0.529536
0.494249
0.456128
0.41274
0.363278
0.308336
0.249412
0.188415
0.126979
0.0662382
0.00698948
-0.0477913
0
0.327744
1.05986
2.1998
3.51427
4.57559
4.95216
4.4416
3.19689
1.65907
0.33912
-0.41442
-0.535168
-0.240071
-0.0103458
0.18814
0.347346
0.466544
0.563178
0.644821
0.714313
0.774379
0.826231
0.870005
0.905668
0.933874
0.95638
0.975873
0.995336
1.01729
1.04281
1.07196
1.10442
1.13956
1.17678
1.2158
1.25679
1.30034
1.3474
1.39899
1.45598
1.51893
1.58799
1.66264
1.74196
1.82379
1.90444
1.98018
2.04831
2.10824
2.16205
2.21429
2.27104
2.33848
2.42139
2.52023
2.63263
2.75538
2.88474
3.0147
3.13707
3.24396
3.32884
3.38721
3.4168
3.41716
3.38895
3.33309
3.25034
3.14354
3.01636
2.87178
2.71302
2.54459
2.37243
2.20349
2.04509
1.90455
1.78765
1.69824
1.63851
1.61136
1.61558
1.64315
1.68313
1.7245
1.75793
1.777
1.77893
1.76442
1.7371
1.70253
1.66716
1.63687
1.61627
1.60836
1.61491
1.63797
1.67893
1.74161
1.83507
1.96572
2.11909
2.26759
2.38278
2.44408
2.44492
2.39388
2.31119
2.222
2.14883
2.10072
2.07394
2.06321
2.06549
2.08032
2.10803
2.14953
2.20613
2.27921
2.37328
2.49321
2.63853
2.79584
2.94211
3.05503
3.11731
3.11901
3.05815
2.9397
2.77336
2.57082
2.34404
2.10717
1.87058
1.6403
1.42072
1.21655
1.03198
0.870087
0.732384
0.618263
0.525422
0.450297
0.388687
0.336393
0.289757
0.246012
0.20341
0.161167
0.119274
0.0782604
0.0389545
0.00226936
-0.0306618
-0.05481
0
0.317971
0.916555
1.77555
2.73994
3.53924
3.8836
3.59816
2.72497
1.52849
0.38861
-0.37056
-0.615191
-0.443783
-0.300026
-0.168462
-0.0537087
0.0421951
0.122388
0.190697
0.253191
0.317267
0.390501
0.489019
0.639894
0.836443
1.03582
1.18765
1.25554
1.23275
1.14595
1.04523
0.9835
0.992891
1.05005
1.12427
1.2011
1.26701
1.3127
1.33495
1.33669
1.3255
1.31136
1.30415
1.30961
1.3303
1.36782
1.42316
1.4963
1.58616
1.69051
1.80618
1.92942
2.05633
2.18349
2.30846
2.4301
2.5485
2.66461
2.77998
2.8961
3.01125
3.11618
3.19578
3.23353
3.21711
3.14331
3.02014
2.86526
2.70056
2.54479
2.4037
2.27271
2.14737
2.02466
1.90185
1.77745
1.65186
1.52757
1.40899
1.30153
1.21046
1.14068
1.09864
1.08423
1.09129
1.11112
1.13446
1.15326
1.16186
1.15749
1.14045
1.11406
1.08469
1.06086
1.05237
1.06777
1.11167
1.18282
1.27385
1.37296
1.46699
1.54493
1.60117
1.63427
1.64677
1.64335
1.62896
1.60849
1.58458
1.55856
1.53138
1.50424
1.47939
1.4601
1.45016
1.45304
1.47097
1.50432
1.55144
1.60931
1.67441
1.74376
1.81521
1.88769
1.96051
2.03198
2.09616
2.14239
2.1567
2.12587
2.04215
1.90645
1.72859
1.5245
1.31193
1.10546
0.909837
0.727892
0.562278
0.414264
0.283666
0.16918
0.0686752
-0.0204247
-0.100748
-0.174565
-0.24344
-0.307775
-0.366458
-0.416802
-0.455614
-0.479358
-0.485107
-0.471434
-0.43897
-0.386329
-0.267382
0
0.444939
1.16543
2.12634
3.11137
3.78698
3.85203
3.18881
1.92487
0.374808
-1.09186
-2.1761
-2.66518
-2.42372
-2.03663
-1.52239
-0.99383
-0.578836
-0.346966
-0.220672
-0.190544
-0.240424
-0.354528
-0.516316
-0.701144
-0.873747
-1.00517
-1.0855
-1.12487
-1.13855
-1.1364
-1.12323
-1.10482
-1.08764
-1.07804
-1.08118
-1.10039
-1.13653
-1.18766
-1.24977
-1.3147
-1.37016
-1.40355
-1.40452
-1.36712
-1.29088
-1.18034
-1.0435
-0.88951
-0.727373
-0.563059
-0.399318
-0.237449
-0.0777496
0.0801247
0.236794
0.392805
0.548357
0.703091
0.855914
1.0046
1.14584
1.27586
1.3905
1.48445
1.5511
1.5855
1.58395
1.54329
1.46138
1.33794
1.17526
0.978555
0.755985
0.518304
0.278481
0.0543617
-0.134525
-0.270646
-0.342619
-0.349281
-0.301507
-0.220255
-0.130959
-0.0564316
-0.00842896
0.0151688
0.0136421
-0.0119812
-0.0605232
-0.130884
-0.22088
-0.343555
-0.496514
-0.648496
-0.758167
-0.790999
-0.736185
-0.613022
-0.461981
-0.325047
-0.226786
-0.153799
-0.092115
-0.0392288
0.00740433
0.0450829
0.0653381
0.0584961
0.019117
-0.0501907
-0.138016
-0.226422
-0.295189
-0.330037
-0.331445
-0.303519
-0.246462
-0.163486
-0.060276
0.0559593
0.177674
0.298242
0.413267
0.52047
0.619775
0.713039
0.803442
0.895516
0.998062
1.12916
1.29794
1.47444
1.61205
1.66478
1.60614
1.44132
1.20743
0.961492
0.759673
0.62589
0.533581
0.46164
0.401805
0.35106
0.306517
0.265556
0.225881
0.185488
0.142857
0.0972298
0.0489342
-0.000365448
-0.0476273
-0.0887535
-0.119297
-0.135373
-0.133738
-0.112012
-0.0691269
0
0.092852
0.219559
0.536354
1.10236
1.76876
2.18458
1.96535
0.939428
-0.695503
-2.42942
-3.68368
-3.78399
-3.59561
-3.20423
-2.81066
-2.59039
-2.57382
-2.5994
-2.62783
-2.65191
-2.66715
-2.67221
-2.66692
-2.65174
-2.62727
-2.59391
-2.55199
-2.50214
-2.44565
-2.38483
-2.32247
-2.26143
-2.20439
-2.1537
-2.11162
-2.08048
-2.06189
-2.05581
-2.06092
-2.07395
-2.08916
-2.09841
-2.09206
-2.06079
-1.99772
-1.90138
-1.77782
-1.63336
-1.47547
-1.31248
-1.15204
-1.00005
-0.860375
-0.734746
-0.62295
-0.523302
-0.433157
-0.349389
-0.268757
-0.188157
-0.104699
-0.0150604
0.0865093
0.212991
0.388569
0.616742
0.852023
1.0339
1.0957
0.990359
0.72192
0.358288
0.00838852
-0.230348
-0.354076
-0.445074
-0.530985
-0.618082
-0.709194
-0.805735
-0.905604
-1.00076
-1.08088
-1.13655
-1.16198
-1.15618
-1.12226
-1.06527
-0.989725
-0.898263
-0.795386
-0.683435
-0.564309
-0.441401
-0.319874
-0.206125
-0.107665
-0.0320473
0.0167192
0.0375763
0.0325434
0.00652122
-0.0331259
-0.0772373
-0.115826
-0.139384
-0.140547
-0.117782
-0.0733656
-0.0110861
0.0644749
0.146593
0.227423
0.299775
0.358293
0.400274
0.425995
0.438544
0.443266
0.446978
0.457005
0.480101
0.521954
0.58683
0.677307
0.79414
0.940972
1.12778
1.36281
1.63022
1.88281
2.07748
2.18404
2.18536
2.07964
1.88314
1.62884
1.35973
1.12055
0.935875
0.797119
0.690794
0.611545
0.559185
0.531479
0.524275
0.531859
0.548946
0.567307
0.57895
0.577989
0.56154
0.529938
0.486122
0.434323
0.378523
0.321267
0.263385
0.204641
0.144453
0.0786766
0
0.261901
1.00284
2.12783
3.32965
4.19438
4.37737
3.76866
2.55622
1.14304
-0.0413705
-0.72714
-0.882794
-0.647121
-0.454204
-0.273862
-0.10944
0.035787
0.161749
0.271498
0.37034
0.464387
0.55889
0.656805
0.75847
0.859725
0.953111
1.03074
1.08692
1.1198
1.1317
1.12811
1.11595
1.10198
1.09123
1.08648
1.09003
1.10343
1.12761
1.16283
1.2087
1.26417
1.32756
1.39709
1.47111
1.54828
1.62773
1.70907
1.79232
1.87763
1.96506
2.05436
2.14485
2.23542
2.32476
2.41158
2.49501
2.57486
2.6517
2.72674
2.80141
2.87693
2.95383
3.03046
3.10213
3.16204
3.20237
3.21486
3.19331
3.13339
3.03301
2.89278
2.71654
2.51156
2.28794
2.05718
1.83006
1.61306
1.4079
1.21574
1.03764
0.874094
0.725729
0.593559
0.47907
0.383883
0.309648
0.257603
0.228351
0.22548
0.253334
0.310329
0.380092
0.438593
0.464019
0.442836
0.374412
0.27235
0.161217
0.068885
0.0170601
0.00746536
0.0246597
0.056361
0.0956394
0.137152
0.176225
0.209079
0.233192
0.247349
0.251441
0.246277
0.233426
0.215089
0.194015
0.173399
0.156737
0.147544
0.149094
0.16398
0.193706
0.238372
0.296555
0.365274
0.440756
0.518891
0.595742
0.668058
0.733603
0.791701
0.843249
0.890668
0.937608
0.990344
1.06963
1.20383
1.3664
1.49366
1.51718
1.4068
1.19468
0.960926
0.787476
0.709294
0.674955
0.64674
0.608025
0.548344
0.465917
0.367304
0.264663
0.171658
0.0961296
0.0385521
0
-0.0259178
-0.0390091
-0.044696
-0.0482544
-0.0536392
-0.0624352
-0.0747665
-0.0896095
-0.105465
-0.0618996
0.241725
0.84768
1.71216
2.66405
3.46556
3.89726
3.82359
3.2228
2.1891
0.921944
-0.305573
-1.21011
-1.56985
-1.20169
-0.854688
-0.561234
-0.358916
-0.265063
-0.23607
-0.244435
-0.258022
-0.252472
-0.219517
-0.174204
-0.125895
-0.0819801
-0.0476479
-0.0245979
-0.010939
-0.00219269
0.00705109
0.0213928
0.0429573
0.0729126
0.110006
0.152477
0.199401
0.251484
0.310902
0.380272
0.461181
0.553003
0.651827
0.753024
0.852546
0.947063
1.03471
1.11546
1.19103
1.26442
1.33921
1.41881
1.50583
1.60174
1.70667
1.8194
1.93758
2.05811
2.17742
2.29235
2.40097
2.50321
2.60113
2.69841
2.81624
3.01639
3.27822
3.5133
3.61431
3.51238
3.21077
2.78232
2.33952
1.99407
1.77158
1.59724
1.44318
1.30373
1.17398
1.04976
0.928674
0.811549
0.703684
0.613871
0.551455
0.522456
0.526684
0.557449
0.602297
0.647295
0.681227
0.698682
0.701073
0.695525
0.692308
0.701778
0.728574
0.772724
0.834825
0.918035
1.01738
1.11722
1.20067
1.25401
1.2702
1.25014
1.20137
1.13497
1.06223
0.991877
0.927261
0.869305
0.818539
0.775299
0.73913
0.709499
0.686239
0.669911
0.662102
0.664714
0.67954
0.707455
0.74896
0.802416
0.862007
0.921162
0.974538
1.01959
1.0571
1.09048
1.12419
1.16193
1.20479
1.25168
1.29991
1.34371
1.37549
1.38761
1.37381
1.33044
1.25746
1.15864
1.04095
0.913145
0.784092
0.660271
0.544403
0.438109
0.342627
0.258373
0.185241
0.122993
0.071698
0.0320869
0.00564499
-0.00579376
0
0.0335915
0.0884789
0.16535
0.263416
0.380274
0.520336
0.718958
1.04662
1.50833
2.16817
3.02033
3.91435
4.55946
4.63745
3.97935
2.69636
1.16415
-0.146751
-0.896147
-0.891014
-0.604559
-0.219306
0.161223
0.467444
0.679424
0.83699
0.966587
1.06726
1.13592
1.17383
1.18713
1.18594
1.18223
1.18718
1.20866
1.24688
1.29929
1.36431
1.44203
1.53214
1.62803
1.71794
1.7902
1.83709
1.85827
1.86173
1.86117
1.871
1.90128
1.9514
2.01461
2.08716
2.16702
2.25259
2.34282
2.43726
2.53576
2.63821
2.74433
2.85372
2.96582
3.07988
3.19506
3.31038
3.42468
3.5364
3.64323
3.74236
3.83064
3.90457
3.95999
3.99341
4.00215
3.98459
3.94028
3.86981
3.77436
3.65521
3.51331
3.34944
3.16697
2.97041
2.76344
2.55139
2.34089
2.13915
1.95555
1.79796
1.66435
1.54717
1.43668
1.32531
1.2111
1.09912
1.00017
0.927156
0.890723
0.895649
0.939244
1.01204
1.10029
1.18926
1.26701
1.32493
1.35828
1.36587
1.34955
1.31355
1.26476
1.21065
1.15789
1.1126
1.07961
1.06119
1.05775
1.06818
1.09006
1.12019
1.15492
1.19082
1.22463
1.25311
1.2731
1.28168
1.2765
1.2563
1.22122
1.16915
1.10502
1.04774
1.02003
1.04199
1.12428
1.26377
1.44393
1.64048
1.83027
2.00102
2.15844
2.30562
2.44512
2.58562
2.72141
2.82625
2.86507
2.81145
2.6599
2.42757
2.14698
1.85594
1.5859
1.34122
1.1194
0.923473
0.757658
0.622218
0.513167
0.424901
0.351543
0.288185
0.231695
0.180888
0.136099
0.0983891
0.0680534
0.0447536
0.0280621
0.0168537
0.00955124
0.00441246
0
-0.00812607
0.0771492
0.489424
1.30134
2.38155
3.39938
3.95799
3.78309
2.86417
1.46601
0.00311012
-1.14515
-1.76963
-1.78154
-1.50002
-0.995839
-0.422409
0.0708088
0.32447
0.418755
0.473778
0.514096
0.542207
0.559911
0.569496
0.57364
0.575206
0.576921
0.580993
0.588768
0.600384
0.615069
0.631591
0.648317
0.66394
0.678184
0.69226
0.708995
0.73259
0.768026
0.820266
0.893432
0.989252
1.10676
1.2456
1.41418
1.62969
1.87465
2.10237
2.26067
2.31466
2.27063
2.18249
2.13014
2.17839
2.34208
2.55106
2.76847
2.98163
3.18143
3.36183
3.51727
3.64565
3.74834
3.82705
3.88265
3.91326
3.91707
3.89186
3.8357
3.74784
3.62941
3.48372
3.3159
3.13213
2.93865
2.74146
2.54449
2.35056
2.16209
1.98138
1.81072
1.65231
1.50813
1.37958
1.26728
1.17092
1.08924
1.02028
0.961637
0.91092
0.866069
0.825674
0.789145
0.756732
0.729371
0.708346
0.695045
0.691132
0.697699
0.712009
0.727657
0.737558
0.736324
0.722279
0.698229
0.670563
0.647012
0.633912
0.632727
0.641258
0.655999
0.671999
0.68429
0.689326
0.686095
0.676661
0.666003
0.661099
0.669342
0.696546
0.745554
0.814875
0.899389
0.993867
1.0927
1.19139
1.28767
1.38197
1.47721
1.58204
1.73388
2.02275
2.41519
2.80142
3.08415
3.19546
3.11913
2.88858
2.55773
2.17328
1.78309
1.46952
1.25038
1.08838
0.959665
0.854533
0.770548
0.70461
0.652618
0.609986
0.572266
0.535596
0.497001
0.454528
0.407239
0.355088
0.298738
0.239338
0.178268
0.117062
0.0571304
0
-0.0390697
0.143907
0.604501
1.35454
2.31861
3.29565
4.00848
4.20911
3.78709
2.82596
1.58218
0.396907
-0.426118
-0.724223
-0.434444
-0.144703
0.132951
0.386426
0.607369
0.801228
0.975252
1.1253
1.25011
1.34856
1.42075
1.4692
1.49936
1.51915
1.53744
1.56216
1.59808
1.64498
1.7008
1.76324
1.82945
1.89567
1.95742
2.01103
2.05434
2.0873
2.11226
2.1338
2.15799
2.19108
2.23805
2.30038
2.37575
2.46281
2.5565
2.65059
2.73987
2.82153
2.89577
2.96538
3.03463
3.10779
3.18787
3.27496
3.36776
3.46452
3.56285
3.65932
3.7491
3.82726
3.88881
3.92911
3.94416
3.93074
3.88644
3.80952
3.69908
3.5562
3.38605
3.19477
2.98894
2.77611
2.56474
2.36331
2.17959
2.02149
1.89608
1.80234
1.73309
1.67907
1.63171
1.58533
1.53797
1.49085
1.44679
1.40849
1.3764
1.35036
1.32949
1.31257
1.2985
1.28646
1.27594
1.26655
1.25815
1.25094
1.24575
1.24397
1.24721
1.25794
1.27704
1.2991
1.31567
1.31866
1.30409
1.27406
1.23554
1.19686
1.1638
1.1369
1.11433
1.09509
1.07955
1.07015
1.07114
1.08737
1.12294
1.17717
1.24944
1.3394
1.4461
1.56787
1.70232
1.84887
2.00647
2.16487
2.3095
2.42601
2.50441
2.54179
2.5419
2.51191
2.45813
2.38296
2.29007
2.18196
2.05783
1.91837
1.76645
1.60693
1.44607
1.29026
1.14485
1.01424
0.901262
0.807214
0.732004
0.674422
0.632368
0.603089
0.58373
0.570421
0.556786
0.536248
0.503449
0.455572
0.393226
0.315073
0
0.101542
0.859316
2.19386
3.68794
4.74975
4.89549
3.99267
2.32514
0.448724
-1.06607
-1.85851
-1.8253
-1.25608
-0.458459
0.291297
0.765262
0.796066
0.774595
0.756282
0.752248
0.77923
0.83174
0.89123
0.934606
0.944749
0.917999
0.865183
0.806424
0.763045
0.750586
0.763189
0.792935
0.835983
0.890381
0.952012
1.01422
1.07033
1.11456
1.1428
1.15306
1.14541
1.12169
1.0851
1.04018
0.992586
0.951003
0.926881
0.93177
0.974047
1.05549
1.17148
1.3068
1.4429
1.56453
1.66489
1.747
1.82067
1.89658
1.9806
2.06989
2.15817
2.23805
2.30234
2.34567
2.36514
2.36011
2.3313
2.27985
2.20837
2.11893
2.01271
1.89061
1.75389
1.60432
1.44437
1.27727
1.10699
0.938197
0.776138
0.626748
0.495973
0.388972
0.30967
0.260167
0.243666
0.262993
0.316441
0.393542
0.475934
0.544638
0.584237
11
169
329
490
652
813
972
1132
1290
1446
1598
1752
1904
2057
2210
2366
2524
2684
2846
3010
3175
3339
3503
3664
0
0
0
0
0
0
0
0
0
0
0
0
0
0
0
0
0
0
0
0
0
0
0
0
0
0
0
0
0
0
0
0
0
0
0
0
0
0
0
0
0
0
0
0
0
0
0
0
0
0
0
0
0
0
0
0
0
0
0
0
0
0
0
0
0
0
0
0
0
0
0
0
0
0
0
0
0
0
0
0
0
0
0
0
0
0
0
0
0
0
0
0
0
0
0
0
0
0
0
0
0
0
0
0
0
0
0
0
0
0
0
0
0
0
0
0
0
0
0
0
0
0
0
0
0
0
0
0
0
0
0
0
0
0
0
0
0
0
0
0
0
0
0
0
0
0
0
0
0
0
0
0
0
0
0
0
0
0
0
0
0
0
0
0
0
0
0
0
0
0
0
0
0
0
0
0
0
0
0
0
0
0
0
0
0
0
0
0
0
0
0
0
0
0
0
0
0
0
0
0
0
0
0
0
0
0
0
0
0
0
0
0
0
0
0
0
0
0
0
0
0
0
0
0
0
0
0
0
0
0
0
0
0
0
0
0
0
0
0
0
0
0
0
0
0
0
0
0
0
0
0
0
0
0
0
0
0
0
0
0
0
0
0
0
0
0
0
0
0
0
0
0
0
0
0
0
0
0
0
0
0
0
0
0
0
0
0
0
0
0
0
0
0
0
0
0
0
0
0
0
0
0
0
0
0
0
0
0
0
0
0
0
0
0
0
0
0
0
0
0
0
0
0
0
0
0
0
0
0
0
0
0
0
0
0
0
0
0
0
0
0
0
0
0
0
0
0
0
0
0
0
0
0
0
0
0
0
0
0
0
0
0
0
0
0
0
0
0
0
0
0
0
0
0
0
0
0
0
0
0
0
0
0
0
0
0
0
0
0
0
0
0
0
0
0
0
0
0
0
0
0
0
0
0
0
0
0
0
0
0
0
0
0
0
0
0
0
0
0
0
0
0
0
0
0
0
0
0
0
0
0
0
0
0
0
0
0
0
0
0
0
0
0
0
0
0
0
0
0
0
0
0
0
0
0
0
0
0
0
0
0
0
0
0
0
0
0
0
0
0
0
0
0
0
0
0
0
0
0
0
0
0
0
0
0
0
0
0
0
0
0
0
0
0
0
0
0
0
0
0
0
0
0
0
0
0
0
0
0
0
0
0
0
0
0
0
0
0
0
0
0
0
0
0
0
0
0
0
0
0
0
0
0
0
0
0
0
0
0
0
0
0
0
0
0
0
0
0
0
0
0
0
0
0
0
0
0
0
0
0
0
0
0
0
0
0
0
0
0
0
0
0
0
0
0
0
0
0
0
0
0
0
0
0
0
0
0
0
0
0
0
0
0
0
0
0
0
0
0
0
0
0
0
0
0
0
0
0
0
0
0
0
0
0
0
0
0
0
0
0
0
0
0
0
0
0
0
0
0
0
0
0
0
0
0
0
0
0
0
0
0
0
0
0
0
0
0
0
0
0
0
0
0
0
0
0
0
0
0
0
0
0
0
0
0
0
0
0
0
0
0
0
0
0
0
0
0
0
0
0
0
0
0
0
0
0
0
0
0
0
0
0
0
0
0
0
0
0
0
0
0
0
0
0
0
0
0
0
0
0
0
0
0
0
0
0
0
0
0
0
0
0
0
0
0
0
0
0
0
0
0
0
0
0
0
0
0
0
0
0
0
0
0
0
0
0
0
0
0
0
0
0
0
0
0
0
0
0
0
0
0
0
0
0
0
0
0
0
0
0
0
0
0
0
0
0
0
0
0
0
0
0
0
0
0
0
0
0
0
0
0
0
0
0
0
0
0
0
0
0
0
0
0
0
0
0
0
0
0
0
0
0
0
0
0
0
0
0
0
0
0
0
0
0
0
0
0
0
0
0
0
0
0
0
0
0
0
0
0
0
0
0
0
0
0
0
0
0
0
0
0
0
0
0
0
0
0
0
0
0
0
0
0
0
0
0
0
0
0
0
0
0
0
0
0
0
0
0
0
0
0
0
0
0
0
0
0
0
0
0
0
0
0
0
0
0
0
0
0
0
0
0
0
0
0
0
0
0
0
0
0
0
0
0
0
0
0
0
0
0
0
0
0
0
0
0
0
0
0
0
0
0
0
0
0
0
0
0
0
0
0
0
0
0
0
0
0
0
0
0
0
0
0
0
0
0
0
0
0
0
0
0
0
0
0
0
0
0
0
0
0
0
0
0
0
0
0
0
0
0
0
0
0
0
0
0
0
0
0
0
0
0
0
0
0
0
0
0
0
0
0
0
0
0
0
0
0
0
0
0
0
0
0
0
0
0
0
0
0
0
0
0
0
0
0
0
0
0
0
0
0
0
0
0
0
0
0
0
0
0
0
0
0
0
0
0
0
0
0
0
0
0
0
0
0
0
0
0
0
0
0
0
0
0
0
0
0
0
0
0
0
0
0
0
0
0
0
0
0
0
0
0
0
0
0
0
0
0
0
0
0
0
0
0
0
0
0
0
0
0
0
0
0
0
0
0
0
0
0
0
0
0
0
0
0
0
0
0
0
0
0
0
0
0
0
0
0
0
0
0
0
0
0
0
0
0
0
0
0
0
0
0
0
0
0
0
0
0
0
0
0
0
0
0
0
0
0
0
0
0
0
0
0
0
0
0
0
0
0
0
0
0
0
0
0
0
0
0
0
0
0
0
0
0
0
0
0
0
0
0
0
0
0
0
0
0
0
0
0
0
0
0
0
0
0
0
0
0
0
0
0
0
0
0
0
0
0
0
0
0
0
0
0
0
0
0
0
0
0
0
0
0
0
0
0
0
0
0
0
0
0
0
0
0
0
0
0
0
0
0
0
0
0
0
0
0
0
0
0
0
0
0
0
0
0
0
0
0
0
0
0
0
0
0
0
0
0
0
0
0
0
0
0
0
0
0
0
0
0
0
0
0
0
0
0
0
0
0
0
0
0
0
0
0
0
0
0
0
0
0
0
0
0
0
0
0
0
0
0
0
0
0
0
0
0
0
0
0
0
0
0
0
0
0
0
0
0
0
0
0
0
0
0
0
0
0
0
0
0
0
0
0
0
0
0
0
0
0
0
0
0
0
0
0
0
0
0
0
0
0
0
0
0
0
0
0
0
0
0
0
0
0
0
0
0
0
0
0
0
0
0
0
0
0
0
0
0
0
0
0
0
0
0
0
0
0
0
0
0
0
0
0
0
0
0
0
0
0
0
0
0
0
0
0
0
0
0
0
0
0
0
0
0
0
0
0
0
0
0
0
0
0
0
0
0
0
0
0
0
0
0
0
0
0
0
0
0
0
0
0
0
0
0
0
0
0
0
0
0
0
0
0
0
0
0
0
0
0
0
0
0
0
0
0
0
0
0
0
0
0
0
0
0
0
0
0
0
0
0
0
0
0
0
0
0
0
0
0
0
0
0
0
0
0
0
0
0
0
0
0
0
0
0
0
0
0
0
0
0
0
0
0
0
0
0
0
0
0
0
0
0
0
0
0
0
0
0
0
0
0
0
0
0
0
0
0
0
0
0
0
0
0
0
0
0
0
0
0
0
0
0
0
0
0
0
0
0
0
0
0
0
0
0
0
0
0
0
0
0
0
0
0
0
0
0
0
0
0
0
0
0
0
0
0
0
0
0
0
0
0
0
0
0
0
0
0
0
0
0
0
0
0
0
0
0
0
0
0
0
0
0
0
0
0
0
0
0
0
0
0
0
0
0
0
0
0
0
0
0
0
0
0
0
0
0
0
0
0
0
0
0
0
0
0
0
0
0
0
0
0
0
0
0
0
0
0
0
0
0
0
0
0
0
0
0
0
0
0
0
0
0
0
0
0
0
0
0
0
0
0
0
0
0
0
0
0
0
0
0
0
0
0
0
0
0
0
0
0
0
0
0
0
0
0
0
0
0
0
0
0
0
0
0
0
0
0
0
0
0
0
0
0
0
0
0
0
0
0
0
0
0
0
0
0
0
0
0
0
0
0
0
0
0
0
0
0
0
0
0
0
0
0
0
0
0
0
0
0
0
0
0
0
0
0
0
0
0
0
0
0
0
0
0
0
0
0
0
0
0
0
0
0
0
0
0
0
0
0
0
0
0
0
0
0
0
0
0
0
0
0
0
0
0
0
0
0
0
0
0
0
0
0
0
0
0
0
0
0
0
0
0
0
0
0
0
0
0
0
0
0
0
0
0
0
0
0
0
0
0
0
0
0
0
0
0
0
0
0
0
0
0
0
0
0
0
0
0
0
0
0
0
0
0
0
0
0
0
0
0
0
0
0
0
0
0
0
0
0
0
0
0
0
0
0
0
0
0
0
0
0
0
0
0
0
0
0
0
0
0
0
0
0
0
0
0
0
0
0
0
0
0
0
0
0
0
0
0
0
0
0
0
0
0
0
0
0
0
0
0
0
0
0
0
0
0
0
0
0
0
0
0
0
0
0
0
0
0
0
0
0
0
0
0
0
0
0
0
0
0
0
0
0
0
0
0
0
0
0
0
0
0
0
0
0
0
0
0
0
0
0
0
0
0
0
0
0
0
0
0
0
0
0
0
0
0
0
0
0
0
0
0
0
0
0
0
0
0
0
0
0
0
0
0
0
0
0
0
0
0
0
0
0
0
0
0
0
0
0
0
0
0
0
0
0
0
0
0
0
0
0
0
0
0
0
0
0
0
0
0
0
0
0
0
0
0
0
0
0
0
0
0
0
0
0
0
0
0
0
0
0
0
0
0
0
0
0
0
0
0
0
0
0
0
0
0
0
0
0
0
0
0
0
0
0
0
0
0
0
0
0
0
0
0
0
0
0
0
0
0
0
0
0
0
0
0
0
0
0
0
0
0
0
0
0
0
0
0
0
0
0
0
0
0
0
0
0
0
0
0
0
0
0
0
0
0
0
0
0
0
0
0
0
0
0
0
0
0
0
0
0
0
0
0
0
0
0
0
0
0
0
0
0
0
0
0
0
0
0
0
0
0
0
0
0
0
0
0
0
0
0
0
0
0
0
0
0
0
0
0
0
0
0
0
0
0
0
0
0
0
0
0
0
0
0
0
0
0
0
0
0
0
0
0
0
0
0
0
0
0
0
0
0
0
0
0
0
0
0
0
0
0
0
0
0
0
0
0
0
0
0
0
0
0
0
0
0
0
0
0
0
0
0
0
0
0
0
0
0
0
0
0
0
0
0
0
0
0
0
0
0
0
0
0
0
0
0
0
0
0
0
0
0
0
0
0
0
0
0
0
0
0
0
0
0
0
0
0
0
0
0
0
0
0
0
0
0
0
0
0
0
0
0
0
0
0
0
0
0
0
0
0
0
0
0
0
0
0
0
0
0
0
0
0
0
0
0
0
0
0
0
0
0
0
0
0
0
0
0
0
0
0
0
0
0
0
0
0
0
0
0
0
0
0
0
0
0
0
0
0
0
0
0
0
0
0
0
0
0
0
0
0
0
0
0
0
0
0
0
0
0
0
0
0
0
0
0
0
0
0
0
0
0
0
0
0
0
0
0
0
0
0
0
0
0
0
0
0
0
0
0
0
0
0
0
0
0
0
0
0
0
0
0
0
0
0
0
0
0
0
0
0
0
0
0
0
0
0
0
0
0
0
0
0
0
0
0
0
0
0
0
0
0
0
0
0
0
0
0
0
0
0
0
0
0
0
0
0
0
0
0
0
0
0
0
0
0
0
0
0
0
0
0
0
0
0
0
0
0
0
0
0
0
0
0
0
0
0
0
0
0
0
0
0
0
0
0
0
0
0
0
0
0
0
0
0
0
0
0
0
0
0
0
0
0
0
0
0
0
0
0
0
0
0
0
0
0
0
0
0
0
0
0
0
0
0
0
0
0
0
0
0
0
0
0
0
0
0
0
0
0
0
0
0
0
0
0
0
0
0
0
0
0
0
0
0
0
0
0
0
0
0
0
0
0
0
0
0
0
0
0
0
0
0
0
0
0
0
0
0
0
0
0
0
0
0
0
0
0
0
0
0
0
0
0
0
0
0
0
0
0
0
0
0
0
0
0
0
0
0
0
0
0
0
0
0
0
0
0
0
0
0
0
0
0
0
0
0
0
0
0
0
0
0
0
0
0
0
0
0
0
0
0
0
0
0
0
0
0
0
0
0
0
0
0
0
0
0
0
0
0
0
0
0
0
0
0
0
0
0
0
0
0
0
0
0
0
0
0
0
0
0
0
0
0
0
0
0
0
0
0
0
0
0
0
0
0
0
0
0
0
0
0
0
0
0
0
0
0
0
0
0
0
0
0
0
0
0
0
0
0
0
0
0
0
0
0
0
0
0
0
0
0
0
0
0
0
0
0
0
0
0
0
0
0
0
0
0
0
0
0
0
0
0
0
0
0
0
0
0
0
0
0
0
0
0
0
0
0
0
0
0
0
0
0
0
0
0
0
0
0
0
0
0
0
0
0
0
0
0
0
0
0
0
0
0
0
0
0
0
0
0
0
0
0
0
0
0
0
0
0
0
0
0
0
0
0
0
0
0
0
0
0
0
0
0
0
0
0
0
0
0
0
0
0
0
0
0
0
0
0
0
0
0
0
0
0
0
0
0
0
0
0
0
0
0
0
0
0
0
0
0
0
0
0
0
0
0
0
0
0
0
0
0
0
0
0
0
0
0
0
0
0
0
0
0
0
0
0
0
0
0
0
0
0
0
0
0
0
0
0
0
0
0
0
0
0
0
0
0
0
0
0
0
0
0
0
0
0
0
0
0
0
0
0
0
0
0
0
0
0
0
0
0
0
0
0
0
0
0
0
0
0
0
0
0
0
0
0
0
0
0
0
0
0
0
0
0
0
0
0
0
0
0
0
0
0
0
0
0
0
0
0
0
0
0
0
0
0
0
0
0
0
0
0
0
0
0
0
0
0
0
0
0
0
0
0
0
0
0
0
0
0
0
0
0
0
0
0
0
0
0
0
0
0
0
0
0
0
0
0
0
0
0
0
0
0
0
0
0
0
0
0
0
0
0
0
0
0
0
0
0
0
0
0
0
0
0
0
0
0
0
0
0
0
0
0
0
0
0
0
0
0
0
0
0
0
0
0
0
0
0
0
0
0
0
0
0
0
0
0
0
0
0
0
0
0
0
0
0
0
0
0
0
0
0
0
0
0
0
0
0
0
0
0
0
0
0
0
0
0
0
0
0
0
0
0
0
0
0
0
0
0
0
0
0
0
0
0
0
0
0
0
0
0
0
0
0
0
0
0
0
0
0
0
0
0
0
0
0
0
0
0
0
0
0
0
0
0
0
0
0
0
0
0
0
0
0
0
0
0
0
0
0
0
0
0
0
0
0
0
0
0
0
0
0
0
0
0
0
0
0
0
0
0
0
0
0
0
0
0
0
0
0
0
0
0
0
0
0
0
0
0
0
0
0
0
0
0
0
0
0
0
0
0
0
0
0
0
0
0
0
0
0
0
0
0
0
0
0
0
0
0
0
0
0
0
0
0
0
0
0
0
0
0
0
0
0
0
0
0
0
0
0
0
0
0
0
0
0
0
0
0
0
0
0
0
0
0
0
0
0
0
0
0
0
0
0
0
0
0
0
0
0
0
0
0
0
0
0
0
0
0
0
0
0
0
0
0
0
0
0
0
0
0
0
0
0
0
0
0
0
0
0
0
0
0
0
0
0
0
0
0
0
0
0
0
0
0
0
0
0
0
0
0
0
0
0
0
0
0
0
0
0
0
0
0
0
0
0
0
0
0
0
0
0
0
0
0
0
0
0
0
0
0
0
0
0
0
0
0
0
0
0
0
0
0
0
0
0
0
0
0
0
0
0
0
0
0
0
0
0
0
0
0
0
0
0
0
0
0
0
0
0
0
0
0
0
0
0
0
0
0
0
0
0
0
0
0
0
0
0
0
0
0
0
0
0
0
0
0
0
0
0
0
0
0
0
0
0
0
0
0
0
0
0
0
0
0
0
0
0
0
0
0
0
0
0
0
0
0
0
0
0
0
0
0
0
0
0
0
0
0
0
0
0
0
0
0
0
0
0
0
0
0
0
0
0
0
0
0
0
0
0
0
0
0
0
0
0
0
0
0
0
0
0
0
0
0
0
0
0
0
0
0
0
0
0
0
0
0
0
0
0
0
0
0
0
0
0
0
0
0
0
0
0
0
0
0
0
0
0
0
0
0
0
0
0
0
0
0
0
0
0
0
0
0
0
0
0
0
0
0
0
0
0
0
0
0
0
0
0
0
0
0
0
0
0
0
0
0
0
0
0
0
0
0
0
0
0
0
0
0
0
0
0
0
0
0
0
0
0
0
0
0
0
0
0
0
0
0
0
0
0
0
0
0
0
0
0
0
0
0
0
0
0
0
0
0
0
0
0
0
0
0
0
0
0
0
0
0
0
0
0
0
0
0
0
0
0
0
0
0
0
0
0
0
0
0
0
