2.60041
2.5466
2.46732
2.36161
2.23048
2.07579
1.89998
1.70689
1.50204
1.29227
1.08521
0.888805
0.711196
0.559277
0.437724
0.348948
0.292912
0.267155
0.267915
0.29072
0.327647
0.368813
0.405092
0.429211
0.436544
0.425504
0.397492
0.356416
0.307915
0.258353
0.213506
0.177348
0.15199
0.138281
0.13617
0.144445
0.160922
0.182629
0.206088
0.22643
0.238045
0.235914
0.21675
0.180301
0.128918
0.0711853
0.0209282
-0.00711594
-0.00110779
0.0446899
0.128399
0.241064
0.368966
0.496849
0.613046
0.710482
0.783755
0.830236
0.849715
0.843908
0.816006
0.770623
0.712922
0.647979
0.580529
0.51433
0.451633
0.392643
0.336621
0.282146
0.227691
0.172205
0.115524
0.0584869
0.0027626
-0.0495895
-0.096669
-0.136977
-0.169655
-0.194604
-0.212421
-0.224185
-0.231171
-0.234566
-0.235278
-0.233843
-0.2304
-0.223982
-0.20286
0
0.429921
1.17077
2.16138
3.16646
3.82576
3.8117
3.0202
1.67104
0.228445
-0.83224
-1.26841
-1.15745
-1.03455
-0.916748
-0.806776
-0.70358
-0.603144
-0.502848
-0.401958
-0.301184
-0.202584
-0.109004
-0.0232407
0.0527546
0.118319
0.174056
0.220716
0.25826
0.286534
0.304108
0.307664
0.293105
0.256932
0.197364
0.115017
0.0132439
-0.101674
-0.220177
-0.331878
-0.425496
-0.490883
-0.506427
-0.45593
-0.366684
-0.279914
-0.232649
-0.241735
-0.298472
-0.375483
-0.44031
-0.46777
-0.459979
-0.429181
-0.380139
-0.315026
-0.236421
-0.147294
-0.0507179
0.0504417
0.153712
0.257207
0.359652
0.460007
0.556431
0.64371
0.711609
0.743154
0.718524
0.623108
0.455377
0.229997
-0.0260662
-0.282614
-0.515393
-0.723719
-0.908791
-1.06164
-1.17932
-1.25985
-1.30342
-1.31396
-1.29968
-1.27202
-1.24306
-1.22237
-1.21321
-1.21513
-1.22447
-1.23558
-1.24252
-1.24172
-1.23165
-1.21134
-1.18091
-1.14163
-1.09568
-1.04586
-0.995205
-0.946644
-0.90282
-0.865709
-0.836084
-0.81355
-0.796585
-0.782721
-0.768892
-0.751899
-0.728931
-0.698034
-0.658527
-0.611122
-0.557353
-0.499674
-0.441402
-0.387663
-0.346572
-0.325663
-0.331708
-0.368859
-0.436552
-0.528106
-0.630881
-0.728281
-0.73288
-0.35003
0.25708
0.824293
1.16085
1.21811
1.06918
0.82054
0.5359
0.228838
-0.0791157
-0.31761
-0.472594
-0.563414
-0.609144
-0.622255
-0.607558
-0.565646
-0.499181
-0.411477
-0.307164
-0.197998
-0.0968864
-0.0148907
0.040955
0.0688213
0.071909
0.0570347
0.0325394
0.0062191
-0.016589
-0.0298828
0
0.194138
0.592547
1.22118
1.99758
2.70533
3.06179
2.84647
2.02763
0.81055
-0.428201
-1.29359
-1.51913
-1.12719
-0.775071
-0.498003
-0.322927
-0.249734
-0.225074
-0.223477
-0.222271
-0.208383
-0.182858
-0.152081
-0.119446
-0.0876045
-0.0581629
-0.0315155
-0.00712376
0.0159483
0.0384821
0.0606215
0.0816414
0.0999109
0.113567
0.121285
0.123136
0.121204
0.119706
0.124517
0.142151
0.178428
0.236387
0.315026
0.411611
0.522666
0.643917
0.77072
0.898833
1.02504
1.14749
1.26577
1.38059
1.49347
1.60613
1.72009
1.83626
1.95471
2.07454
2.19394
2.30999
2.41873
2.51588
2.59725
2.65861
2.69527
2.70296
2.6786
2.61976
2.52525
2.39569
2.23421
2.0467
1.84155
1.6288
1.41866
1.21846
1.03319
0.866709
0.720954
0.596204
0.491502
0.405338
0.33602
0.281897
0.241668
0.214354
0.199135
0.195124
0.201185
0.215778
0.236942
0.262069
0.286896
0.30581
0.313844
0.308039
0.288635
0.259469
0.22718
0.199355
0.182299
0.179406
0.188256
0.20691
0.233237
0.265072
0.30083
0.338497
0.372746
0.396365
0.402293
0.387111
0.35385
0.312211
0.275832
0.257987
0.26748
0.298279
0.345244
0.406337
0.479961
0.563156
0.650528
0.73518
0.809349
0.864816
0.894928
0.894784
0.861861
0.796484
0.70201
0.584583
0.452406
0.314663
0.180316
0.0556162
-0.0563956
-0.152532
-0.229778
-0.286265
-0.321243
-0.330538
-0.312092
-0.276783
-0.238002
-0.207551
-0.191903
-0.190295
-0.195618
-0.197783
-0.188039
-0.162313
-0.125744
-0.083541
-0.0388694
0
0.0524478
0.461795
1.25957
2.25457
3.09465
3.41658
3.0113
1.93535
0.513633
-0.782691
-1.53791
-1.47347
-0.97654
-0.457805
-0.0406181
0.180171
0.210979
0.215024
0.217343
0.227325
0.251251
0.290134
0.341429
0.402224
0.4687
0.536135
0.600049
0.656926
0.704688
0.742855
0.772389
0.795268
0.813906
0.830548
0.846699
0.862788
0.877954
0.889924
0.895822
0.893223
0.88137
0.862156
0.840499
0.823923
0.821256
0.840721
0.88791
0.964211
1.06738
1.19278
1.32648
1.45467
1.56775
1.66295
1.74439
1.82078
1.90162
1.99358
2.09808
2.21183
2.32569
2.42637
2.50151
2.54212
2.54358
2.50576
2.4324
2.32985
2.20521
2.06425
1.91061
1.74731
1.57659
1.39972
1.21775
1.03248
0.846624
0.663576
0.487048
0.320591
0.167206
0.029105
-0.0923677
-0.196304
-0.280597
-0.342371
-0.380912
-0.395548
-0.386374
-0.355141
-0.303806
-0.238934
-0.170731
-0.109412
-0.0627426
-0.0342627
-0.0228508
-0.0238021
-0.0310141
-0.0394707
-0.0471539
-0.0550757
-0.0663956
-0.0846681
-0.111832
-0.146781
-0.185155
-0.220482
-0.246211
-0.257719
-0.254883
-0.238592
-0.211083
-0.174699
-0.13099
-0.0807111
-0.0238443
0.03959
0.109071
0.183436
0.261963
0.344269
0.43078
0.523462
0.622695
0.72231
0.811062
0.875401
0.903713
0.889819
0.834495
0.745212
0.634835
0.519627
0.414604
0.328474
0.264229
0.220003
0.194806
0.185916
0.186117
0.185949
0.176362
0.150501
0.10506
0.0409493
-0.036813
-0.119946
-0.197919
-0.259557
-0.295387
-0.29925
-0.269311
-0.208297
-0.122962
0
0.203684
0.547802
1.18227
2.10378
3.06373
3.65559
3.5433
2.67991
1.36153
0.0746033
-0.761718
-0.98717
-0.713739
-0.473974
-0.267479
-0.106718
0.00566254
0.0912258
0.165071
0.232923
0.299718
0.368937
0.442043
0.51885
0.597981
0.677101
0.752769
0.82109
0.878709
0.923199
0.953438
0.969736
0.973664
0.967629
0.95438
0.936678
0.917427
0.899383
0.886038
0.882962
0.896028
0.931213
0.993221
1.08405
1.2021
1.34217
1.49648
1.65642
1.81434
1.96607
2.109
2.24172
2.3629
2.47003
2.55989
2.63029
2.67864
2.70371
2.70748
2.69629
2.68054
2.68251
2.81119
3.11747
3.48781
3.76967
3.84055
3.66
3.28663
2.85071
2.49111
2.27804
2.11383
1.95824
1.80528
1.65446
1.50681
1.36425
1.22924
1.10364
0.987766
0.880608
0.780194
0.684377
0.591637
0.501666
0.415561
0.335616
0.264404
0.204523
0.158163
0.126471
0.109281
0.105848
0.113661
0.128763
0.146862
0.163949
0.176817
0.183382
0.182793
0.175361
0.162364
0.145856
0.128184
0.111563
0.0979256
0.0886532
0.084395
0.0850204
0.0897909
0.0977478
0.108106
0.120684
0.136377
0.157287
0.186531
0.227696
0.284025
0.357513
0.448137
0.553191
0.667867
0.786136
0.900931
1.00525
1.09311
1.16026
1.20427
1.22426
1.22047
1.19377
1.14535
1.07663
0.989381
0.886336
0.771485
0.649545
0.525585
0.404842
0.292589
0.194074
0.111931
0.0455977
-0.00748291
-0.0507034
-0.0870285
-0.118078
-0.143843
-0.163047
-0.17394
-0.175828
-0.169168
-0.154783
-0.134022
-0.108062
-0.0739321
0
0.336151
1.07009
2.16465
3.34812
4.1972
4.32976
3.60464
2.21182
0.597441
-0.734758
-1.43783
-1.40419
-0.833022
-0.255533
0.258545
0.619336
0.77409
0.874643
0.955504
1.02122
1.074
1.11721
1.15262
1.18106
1.20383
1.22373
1.24497
1.27193
1.30823
1.35356
1.40299
1.4486
1.48202
1.49711
1.49216
1.47073
1.44123
1.41512
1.40351
1.41461
1.45137
1.5089
1.57948
1.65775
1.73925
1.82061
1.9002
1.97822
2.05631
2.13693
2.2225
2.31462
2.41358
2.5183
2.62657
2.73566
2.84305
2.94704
3.04713
3.14383
3.23804
3.33063
3.42047
3.50122
3.56171
3.58954
3.57562
3.51761
3.4206
3.29477
3.15126
2.99817
2.84012
2.67847
2.51341
2.34521
2.1753
2.00697
1.8473
1.70503
1.58879
1.50496
1.45596
1.43981
1.45076
1.48092
1.52195
1.56632
1.6088
1.64516
1.67247
1.68874
1.69298
1.68514
1.66602
1.63688
1.59892
1.5528
1.49886
1.43751
1.36967
1.29788
1.22671
1.16255
1.11649
1.11619
1.17552
1.26839
1.35165
1.38586
1.3539
1.2676
1.1599
1.06833
1.01883
1.00427
1.00799
1.02223
1.04398
1.07136
1.10396
1.14301
1.19107
1.25219
1.33858
1.47573
1.67335
1.89205
2.08186
2.20213
2.23474
2.18451
2.06851
1.90347
1.70167
1.47954
1.25893
1.05286
0.868235
0.7078
0.570793
0.457613
0.369049
0.304398
0.262336
0.241875
0.238645
0.246299
0.258166
0.26804
0.270901
0.263402
0.244035
0.213007
0.17191
0.123689
0.0715847
0.0180069
0
0.244102
0.809317
1.70376
2.79283
3.78409
4.3113
4.10235
3.13906
1.7016
0.254243
-0.767278
-1.14234
-0.840625
-0.48894
-0.175006
0.0609528
0.198791
0.276821
0.328436
0.361676
0.384245
0.402283
0.419718
0.437997
0.457016
0.47561
0.491912
0.503761
0.509237
0.507043
0.49685
0.479588
0.457603
0.434587
0.415623
0.406333
0.411891
0.435968
0.479848
0.541936
0.618192
0.702321
0.785981
0.861297
0.922374
0.966344
0.993771
1.00843
1.01657
1.02596
1.04431
1.0775
1.12959
1.20302
1.29833
1.41368
1.54574
1.68875
1.83545
1.97798
2.1072
2.21222
2.28472
2.31933
2.3122
2.26136
2.16745
2.03427
1.86878
1.6803
1.47915
1.27551
1.0755
0.882733
0.700012
0.528957
0.370111
0.223139
0.0870979
-0.0392641
-0.157179
-0.26754
-0.370608
-0.465776
-0.551402
-0.624946
-0.680776
-0.697595
-0.62227
-0.454864
-0.257423
-0.112669
-0.0843842
-0.185453
-0.371629
-0.563697
-0.686511
-0.70692
-0.683621
-0.64931
-0.621425
-0.611338
-0.620581
-0.640647
-0.656609
-0.651991
-0.602722
-0.518894
-0.430747
-0.374739
-0.378188
-0.449621
-0.577096
-0.732541
-0.87937
-0.982572
-1.03733
-1.05411
-1.03935
-0.99611
-0.929345
-0.844531
-0.746497
-0.64
-0.528029
-0.412552
-0.295801
-0.181135
-0.0735205
0.0215702
0.099044
0.155221
0.188474
0.19923
0.189399
0.161546
0.11822
0.0626766
-0.00187531
-0.0729557
-0.147551
-0.221959
-0.292127
-0.354293
-0.404103
-0.43831
-0.458854
-0.469873
-0.47595
-0.480231
-0.483229
-0.482764
-0.475014
-0.456163
-0.424222
-0.381116
-0.32939
-0.271236
-0.208868
-0.144018
-0.0775406
0
0.288601
0.874929
1.76082
2.78912
3.64712
3.9805
3.5738
2.48943
1.0621
-0.261607
-1.13883
-1.46251
-1.2549
-1.0331
-0.805623
-0.597696
-0.434602
-0.313928
-0.211808
-0.116629
-0.0229223
0.0728626
0.173408
0.280553
0.395212
0.516878
0.642061
0.761364
0.862313
0.93286
0.964326
0.954033
0.906788
0.834408
0.753233
0.680496
0.630763
0.606367
0.603773
0.621009
0.657451
0.711604
0.780963
0.862334
0.952265
1.04753
1.14555
1.24476
1.34463
1.44554
1.54845
1.6545
1.76468
1.87962
1.99961
2.12466
2.25476
2.38986
2.53032
2.67719
2.83086
2.98728
3.13585
3.26266
3.35397
3.399
3.39119
3.32827
3.21202
3.04857
2.84888
2.62919
2.40651
2.19289
1.99314
1.80731
1.63506
1.47612
1.32921
1.19252
1.06417
0.94256
0.826721
0.716394
0.612086
0.514997
0.42686
0.349754
0.285724
0.236483
0.20312
0.186057
0.184672
0.197228
0.220797
0.250446
0.278796
0.298568
0.304536
0.294901
0.27199
0.241883
0.212879
0.193178
0.188533
0.198869
0.219884
0.248117
0.279148
0.308169
0.330255
0.341064
0.337867
0.319726
0.287913
0.246073
0.200181
0.161348
0.142553
0.156256
0.211861
0.313662
0.459837
0.642746
0.850385
1.06851
1.28341
1.48394
1.6597
1.8023
1.90599
1.96746
1.98469
1.95678
1.88438
1.77037
1.62072
1.44497
1.25599
1.06887
0.89912
0.759976
0.660069
0.602082
0.582647
0.59351
0.623543
0.660958
0.695378
0.720601
0.732107
0.726383
0.701171
0.655352
0.588898
0.502924
0.399586
0.282032
0.154164
0.0193018
-0.124363
0
0.464743
1.30838
2.44583
3.62495
4.48128
4.6821
4.09057
2.85461
1.35644
0.0419134
-0.776681
-1.03109
-0.738194
-0.416193
-0.077565
0.267844
0.600135
0.893498
1.12031
1.2597
1.30607
1.27393
1.19565
1.11232
1.06073
1.05934
1.09326
1.15518
1.22331
1.27352
1.28697
1.25534
1.18196
1.07838
0.959003
0.836786
0.721024
0.619974
0.544133
0.505495
0.515564
0.581556
0.702706
0.868655
1.06115
1.25892
1.44415
1.61362
1.76811
1.91204
2.05258
2.197
2.34995
2.51184
2.67851
2.84436
3.00388
3.1539
3.2951
3.43222
3.5769
3.79227
4.12807
4.49989
4.78782
4.90669
4.84214
4.64503
4.39566
4.16086
3.96431
3.77733
3.58612
3.3905
3.19238
2.99491
2.80315
2.62554
2.47035
2.34487
2.2536
2.1971
2.17168
2.1702
2.1836
2.20281
2.22047
2.2319
2.23491
2.2292
2.21542
2.19456
2.16784
2.13597
2.09955
2.05978
2.0187
1.97929
1.94549
1.92123
1.90964
1.91221
1.93042
1.96159
1.99848
2.03275
2.05714
2.06715
2.0619
2.04383
2.01761
1.98867
1.9618
1.93975
1.92401
1.91566
1.91497
1.92142
1.93407
1.95133
1.97126
1.9922
2.01321
2.03445
2.05733
2.0843
2.11859
2.16397
2.22933
2.33628
2.51358
2.73975
2.95992
3.11451
3.16012
3.08469
2.90635
2.6583
2.37516
2.09469
1.85033
1.64411
1.46874
1.32078
1.20096
1.10492
1.02618
0.957984
0.894957
0.834209
0.77535
0.719526
0.667861
0.619579
0.572182
0.52036
0.457255
0.376213
0.272758
0.146148
0
-0.165365
-0.381648
-0.177663
0.544159
1.71186
3.04888
4.1421
4.60015
4.23963
3.18787
1.82462
0.589866
-0.22044
-0.539993
-0.426405
-0.103565
0.2043
0.492382
0.751457
0.975087
1.16031
1.30786
1.42178
1.50855
1.57587
1.63142
1.68195
1.7321
1.78455
1.84045
1.89971
1.96143
2.0243
2.08694
2.14807
2.20661
2.26162
2.31224
2.35784
2.3981
2.43315
2.46389
2.49212
2.52067
2.55327
2.59414
2.64739
2.71614
2.80182
2.90374
3.01941
3.14485
3.27289
3.39637
3.51015
3.61241
3.70512
3.79338
3.88391
3.98291
4.09409
4.21646
4.34772
4.48
4.60284
4.70622
4.7826
4.82789
4.84109
4.8229
4.77415
4.69482
4.58817
4.45589
4.29858
4.11871
3.92093
3.71185
3.49918
3.2904
3.09159
2.90737
2.7406
2.59245
2.46287
2.35126
2.25692
2.17943
2.11908
2.07934
2.06637
2.07608
2.09334
2.0999
2.08066
2.02945
1.95152
1.86115
1.77568
1.70911
1.66295
1.63194
1.61492
1.61181
1.6223
1.64618
1.68297
1.73193
1.79083
1.8541
1.91484
1.96608
2.00206
2.01925
2.01674
1.99616
1.9613
1.91794
1.87254
1.83123
1.79996
1.78405
1.78705
1.8112
1.85743
1.92498
2.01162
2.11396
2.22764
2.34833
2.47138
2.58958
2.69406
2.77649
2.82932
2.84671
2.82521
2.76406
2.66503
2.53207
2.37107
2.19199
2.0041
1.81388
1.62609
1.44387
1.26877
1.1012
0.940425
0.785105
0.633919
0.486581
0.344701
0.21231
0.0951731
0
-0.0728823
-0.114277
-0.124067
-0.105883
-0.0665176
-0.0145584
0.0413788
0.0948414
0.142727
0.175643
0.0135811
0.243675
1.04418
2.26108
3.45127
4.10091
3.88937
2.84474
1.3171
-0.193846
-1.25491
-1.65625
-1.29568
-0.870044
-0.426569
-0.0669283
0.141319
0.262201
0.357582
0.43916
0.508943
0.569467
0.623911
0.676064
0.730048
0.789766
0.860578
0.949182
1.05171
1.15074
1.2248
1.25646
1.23899
1.17885
1.09341
1.00542
0.937126
0.90015
0.892353
0.910584
0.954141
1.02273
1.11475
1.22691
1.35486
1.49431
1.63648
1.77182
1.89332
1.99795
2.08712
2.16564
2.23979
2.31508
2.39479
2.479
2.56672
2.65752
2.75158
2.84996
2.95449
3.06879
3.19939
3.35384
3.53044
3.70835
3.85874
3.95617
3.98205
3.92598
3.78702
3.57493
3.30934
3.01504
2.71586
2.42681
2.15241
1.89344
1.65513
1.44335
1.26289
1.11704
1.00693
0.931166
0.885833
0.864984
0.861434
0.867738
0.877119
0.884359
0.886178
0.88137
0.870607
0.85596
0.840271
0.826475
0.816816
0.812425
0.81363
0.820194
0.830544
0.841717
0.850577
0.854544
0.852138
0.843166
0.828501
0.809593
0.787969
0.765014
0.741988
0.720277
0.701829
0.689292
0.68584
0.694714
0.718587
0.758329
0.81353
0.883086
0.964964
1.05669
1.15572
1.26011
1.36862
1.48078
1.59685
1.71779
1.84614
1.98827
2.15407
2.33506
2.49892
2.59822
2.59019
2.46056
2.23477
1.96686
1.71225
1.50285
1.32467
1.16183
1.00951
0.868026
0.739168
0.624844
0.526694
0.445753
0.382494
0.33542
0.301797
0.278181
0.260914
0.246536
0.232042
0.214907
0.193234
0.165793
0.1321
0.0925041
0.0481905
0
-0.0547845
0.175553
0.688878
1.42077
2.31621
3.28636
4.14489
4.59986
4.36436
3.33597
1.71478
-0.0399065
-1.40511
-2.02697
-1.76092
-1.10454
-0.286984
0.377623
0.667039
0.703243
0.735543
0.774878
0.827255
0.899797
0.991598
1.08919
1.17538
1.23528
1.2612
1.25473
1.22557
1.18779
1.15527
1.13681
1.13338
1.14308
1.16467
1.19739
1.24043
1.29316
1.35503
1.42532
1.50298
1.58611
1.6726
1.76008
1.8457
1.9259
1.99788
2.06001
2.11262
2.15844
2.20269
2.25246
2.31554
2.39897
2.50684
2.6386
2.79242
2.96615
3.15864
3.37261
3.6104
3.85714
4.08134
4.24659
4.3226
4.29823
4.18694
4.01992
3.83036
3.6381
3.44406
3.24401
3.03675
2.8218
2.59919
2.37015
2.13769
1.90658
1.68364
1.4788
1.30092
1.15723
1.05258
1.00014
0.990492
1.00754
1.03287
1.05032
1.04908
1.0247
0.978156
0.914243
0.840127
0.764711
0.694215
0.6344
0.59023
0.56525
0.561092
0.577231
0.611154
0.661389
0.723009
0.783261
0.827383
0.842568
0.821313
0.76431
0.681316
0.588981
0.506027
0.447594
0.414568
0.400003
0.401279
0.415524
0.439722
0.471383
0.508923
0.552016
0.600967
0.656294
0.718342
0.786946
0.861586
0.941687
1.02678
1.11669
1.21179
1.31325
1.42435
1.55477
1.72626
1.94379
2.16791
2.33879
2.39959
2.32352
2.12576
1.85216
1.55494
1.27538
1.03048
0.81257
0.614795
0.435784
0.27862
0.147093
0.0425804
-0.0348489
-0.086591
-0.11548
-0.125522
-0.12141
-0.10792
-0.0893476
-0.0691428
-0.04972
-0.0326379
-0.0188375
-0.00881043
-0.00248652
0
-0.00888252
0.00668697
0.367445
1.14556
2.21461
3.26093
3.89313
3.81022
2.95173
1.54407
0.00475616
-1.24485
-1.94824
-1.96236
-1.68749
-1.18067
-0.586741
-0.0320786
0.356486
0.621061
0.798221
0.877618
0.859383
0.752145
0.576273
0.371828
0.202512
0.136468
0.183725
0.302469
0.48276
0.687595
0.872141
0.999292
1.053
1.04316
0.999728
0.958838
0.947632
0.971169
1.01233
1.06095
1.11186
1.16121
1.20689
1.2488
1.28869
1.32963
1.37548
1.4301
1.49704
1.57944
1.67973
1.79941
1.93881
2.09689
2.27101
2.45693
2.64907
2.84076
3.02474
3.19399
3.34203
3.46329
3.55429
3.61395
3.64253
3.64114
3.61147
3.55545
3.47524
3.37318
3.25181
3.11439
2.96464
2.80602
2.64161
2.47443
2.30739
2.14319
1.98419
1.83233
1.68916
1.55583
1.43323
1.32195
1.22246
1.13519
1.06012
0.997116
0.945943
0.906359
0.87802
0.86038
0.852677
0.853992
0.861855
0.872627
0.882203
0.886619
0.882713
0.868677
0.844423
0.811724
0.77412
0.73658
0.705646
0.687695
0.687542
0.707179
0.745231
0.796824
0.854868
0.911727
0.960842
0.997844
1.02097
1.03096
1.03085
1.02577
1.0222
1.0277
1.04993
1.09529
1.16752
1.26511
1.38213
1.51352
1.6528
1.79292
1.92605
2.04437
2.14174
2.21321
2.2547
2.2628
2.23472
2.1686
2.06417
1.92346
1.75216
1.55919
1.35473
1.14974
0.954346
0.775331
0.619117
0.489017
0.384617
0.303054
0.240026
0.190862
0.15137
0.118342
0.0897162
0.0645018
0.0424589
0.023991
0.0100361
0.00169106
0
0.00783653
0.0235994
0.0495443
0.10576
0.271548
0.624591
1.31331
2.34448
3.47376
4.24869
4.21643
3.18613
1.37764
-0.649706
-2.25743
-3.02126
-2.88869
-2.12969
-1.14292
-0.262011
0.342624
0.621591
0.631783
0.639832
0.649804
0.663851
0.683367
0.708781
0.739374
0.77389
0.810952
0.849264
0.887901
0.926483
0.965276
1.00518
1.04757
1.09408
1.14623
1.20499
1.27044
1.34147
1.41588
1.49062
1.56253
1.62906
1.68889
1.7423
1.79104
1.83805
1.88679
1.94054
2.00185
2.07266
2.15405
2.24629
2.34888
2.46078
2.58063
2.70692
2.83818
2.97309
3.11058
3.24999
3.39111
3.53428
3.68081
3.83431
3.99953
4.16692
4.30989
4.3925
4.38333
4.26862
4.05833
3.78358
3.4879
3.21404
2.97328
2.75529
2.55414
2.36752
2.19243
2.02649
1.86898
1.72138
1.58703
1.47399
1.3985
1.36539
1.3613
1.36482
1.35474
1.31797
1.25287
1.16707
1.07195
0.977698
0.889659
0.809039
0.736996
0.67588
0.627794
0.59681
0.588375
0.597881
0.617354
0.637901
0.652664
0.658773
0.657285
0.651228
0.642911
0.632029
0.616621
0.593567
0.560705
0.518333
0.470043
0.42264
0.385519
0.368641
0.38048
0.426156
0.506291
0.616902
0.750343
0.896979
1.04701
1.19256
1.32817
1.44744
1.54662
1.62354
1.67721
1.70775
1.71618
1.70396
1.67228
1.62144
1.55066
1.4609
1.35335
1.22829
1.08776
0.935839
0.778455
0.622709
0.475586
0.343264
0.23053
0.140228
0.0731255
0.0280705
0.00235071
-0.00788107
-0.00710058
0
0.0154613
0.0264112
0.0280066
0.0166173
-0.00969172
-0.0508394
-0.104696
-0.168479
-0.244913
-0.131974
0.272541
0.949198
1.8688
2.90996
3.81931
4.25519
3.93386
2.8054
1.13685
-0.574319
-1.82245
-2.32184
-1.91252
-1.46958
-1.03357
-0.689309
-0.499566
-0.412364
-0.356744
-0.32861
-0.323005
-0.33386
-0.354353
-0.377676
-0.398165
-0.412461
-0.420464
-0.424933
-0.428983
-0.435749
-0.447194
-0.463256
-0.481561
-0.497794
-0.506606
-0.50338
-0.48575
-0.45116
-0.396171
-0.321815
-0.23892
-0.161619
-0.102535
-0.0690721
-0.0610965
-0.0707966
-0.0848041
-0.0878819
-0.0669483
-0.0193364
0.0506918
0.139111
0.243058
0.359751
0.486301
0.620065
0.758953
0.901473
1.04609
1.18986
1.3269
1.44879
1.54597
1.60967
1.63416
1.61838
1.5662
1.48502
1.38286
1.26458
1.13059
0.978518
0.807013
0.616016
0.405017
0.176869
-0.061573
-0.299945
-0.521561
-0.67694
-0.699681
-0.619547
-0.509883
-0.448199
-0.479055
-0.598158
-0.761929
-0.913453
-1.00948
-1.05187
-1.06791
-1.06923
-1.05905
-1.03921
-1.01102
-0.975269
-0.932535
-0.883296
-0.828997
-0.772696
-0.718623
-0.671345
-0.634881
-0.611804
-0.602537
-0.605007
-0.614731
-0.625381
-0.629786
-0.621422
-0.59569
-0.550966
-0.488179
-0.40963
-0.319307
-0.22258
-0.12564
-0.0348619
0.0431151
0.101578
0.136692
0.146707
0.132577
0.0986253
0.052936
0.00705414
-0.025176
-0.0224705
0.13334
0.535292
1.03067
1.44149
1.65359
1.65446
1.51167
1.31373
1.11479
0.918047
0.716184
0.523027
0.347224
0.195124
0.0715693
-0.0199225
-0.0777069
-0.0973836
-0.0842233
-0.0515808
-0.0136306
0.0181597
0.0374449
0.0435839
0.0403755
0.0336208
0.0285495
0.0276261
0.0303517
0.0353553
0.0410191
0.0448674
0
0.184386
0.766891
1.73888
2.91082
3.94796
4.47414
4.22016
3.16286
1.58004
-0.0325234
-1.16779
-1.53696
-1.04218
-0.493369
0.0177283
0.364416
0.511548
0.603096
0.683204
0.756681
0.825404
0.890014
0.950153
1.00483
1.05209
1.09032
1.11939
1.1405
1.15646
1.17158
1.19123
1.2209
1.26512
1.32648
1.40368
1.49312
1.59196
1.69747
1.80659
1.91522
2.01705
2.10447
2.17061
2.21086
2.2257
2.2231
2.21866
2.23266
2.28473
2.3878
2.53554
2.71147
2.90374
3.10333
3.30104
3.48676
3.65087
3.78757
3.89434
3.97189
4.02362
4.05467
4.07068
4.07647
4.07427
4.06415
4.04346
4.00792
3.95317
3.87622
3.77626
3.65483
3.51512
3.36118
3.19855
3.03087
2.86039
2.68894
2.5182
2.34993
2.18618
2.02967
1.88324
1.74985
1.63236
1.53334
1.45582
1.40183
1.37156
1.36405
1.37704
1.40671
1.44969
1.49838
1.54424
1.57971
1.59961
1.60194
1.58779
1.56036
1.52367
1.48151
1.43726
1.39316
1.35117
1.31348
1.28235
1.25991
1.2478
1.24687
1.257
1.27726
1.30622
1.34218
1.38321
1.42791
1.47527
1.52447
1.57533
1.62838
1.6848
1.74603
1.81318
1.88777
1.96741
2.04428
2.10796
2.14808
2.15692
2.13086
2.07035
1.9787
1.86056
1.72161
1.56905
1.40874
1.24507
1.08167
0.921778
0.768032
0.622264
0.485228
0.356589
0.235186
0.119817
0.0102637
-0.0918679
-0.182695
-0.255525
-0.302801
-0.319229
-0.304157
-0.262091
-0.201203
-0.130729
-0.0585587
0
0.164181
0.618709
1.35913
2.26203
3.10255
3.61748
3.60004
2.99067
1.91673
0.65194
-0.485354
-1.24066
-1.39521
-1.04881
-0.625308
-0.174465
0.207183
0.427707
0.538001
0.579465
0.563709
0.509829
0.441521
0.383452
0.353193
0.355301
0.386873
0.441225
0.510816
0.589167
0.670561
0.749532
0.821574
0.883768
0.93492
0.975421
1.00688
1.03162
1.05224
1.07119
1.0906
1.11226
1.13775
1.1687
1.20684
1.25402
1.31205
1.38245
1.46608
1.56274
1.67119
1.78908
1.913
2.03888
2.16175
2.27704
2.38163
2.47471
2.55821
2.63676
2.71784
2.83258
3.04818
3.33401
3.60636
3.78282
3.81972
3.71978
3.51479
3.24307
2.93944
2.64064
2.37465
2.14357
1.94161
1.76422
1.61055
1.48188
1.37833
1.2966
1.23144
1.17678
1.12661
1.07572
1.02038
0.958589
0.890262
0.81704
0.741961
0.669338
0.603985
0.550261
0.51128
0.488371
0.480938
0.486771
0.50268
0.525261
0.551302
0.578643
0.606067
0.632908
0.65881
0.683471
0.70654
0.727506
0.745664
0.760135
0.769913
0.773888
0.770738
0.75982
0.741328
0.716828
0.689449
0.66564
0.654444
0.665918
0.709138
0.790081
0.909947
1.06441
1.24985
1.45056
1.64462
1.81191
1.9373
2.01164
2.03081
1.99406
1.90268
1.76007
1.57672
1.36402
1.13207
0.892344
0.656555
0.432838
0.227006
0.0477619
-0.0992078
-0.210087
-0.271079
-0.262231
-0.20544
-0.132403
-0.0741146
-0.0497736
-0.0607292
-0.0925551
-0.123826
-0.136674
-0.125389
-0.1004
-0.0687082
-0.0337562
0
0.0287686
0.409548
1.18987
2.1882
3.05589
3.44408
3.18045
2.35153
1.24305
0.184945
-0.595293
-1.00087
-0.854707
-0.674286
-0.475973
-0.276212
-0.0987462
0.0359827
0.131816
0.197429
0.244544
0.287811
0.339605
0.405891
0.482015
0.562433
0.641133
0.712596
0.773168
0.821607
0.858783
0.886855
0.908382
0.926019
0.941927
0.958004
0.976446
0.999916
1.03148
1.07425
1.13056
1.20133
1.2865
1.38466
1.49291
1.60738
1.7235
1.837
1.94469
2.04508
2.13855
2.22715
2.31402
2.40258
2.49573
2.59507
2.70067
2.81114
2.92387
3.03551
3.1425
3.24157
3.32996
3.40545
3.46578
3.50773
3.52721
3.52086
3.48505
3.41659
3.31358
3.17615
3.00674
2.81007
2.59259
2.36236
2.12755
1.89501
1.67187
1.46628
1.28807
1.14707
1.04857
0.995347
0.98672
1.01801
1.08056
1.16261
1.25093
1.3328
1.39882
1.44229
1.4599
1.45148
1.41941
1.36803
1.304
1.23381
1.1631
1.09701
1.04003
0.99576
0.967219
0.958246
0.97092
1.00663
1.06562
1.15451
1.27582
1.41007
1.53213
1.61891
1.65709
1.6473
1.60296
1.54463
1.4928
1.4613
1.44935
1.45315
1.47095
1.50403
1.56013
1.66646
1.8837
2.21756
2.57259
2.85041
2.98168
2.93932
2.73101
2.38861
1.96932
1.56401
1.26486
1.04897
0.871367
0.713468
0.571471
0.445074
0.333752
0.236772
0.152667
0.0796985
0.0161078
-0.0395387
-0.0877279
-0.128139
-0.159818
-0.181279
-0.191025
-0.188102
-0.172505
-0.14534
-0.108715
-0.0633141
0
0.161021
0.582364
1.28943
2.12154
2.76589
2.91499
2.4415
1.46768
0.287901
-0.791908
-1.57373
-1.7687
-1.80968
-1.7904
-1.71312
-1.59371
-1.45624
-1.32438
-1.21324
-1.12017
-1.03863
-0.966762
-0.903815
-0.848891
-0.801761
-0.762223
-0.729309
-0.700814
-0.673452
-0.643639
-0.608633
-0.566126
-0.517817
-0.471144
-0.434558
-0.413216
-0.40561
-0.402923
-0.391776
-0.359371
-0.298667
-0.214428
-0.118139
-0.0163767
0.0853037
0.182954
0.274929
0.3619
0.446319
0.531615
0.621188
0.717764
0.823527
0.939867
1.06724
1.20513
1.35197
1.50521
1.66156
1.8165
1.9646
2.10035
2.2185
2.31282
2.37584
2.4025
2.38873
2.33155
2.22996
2.08617
1.90647
1.70139
1.48489
1.27255
1.07667
0.903683
0.761165
0.657136
0.600148
0.590616
0.608696
0.629502
0.630425
0.596303
0.522754
0.416831
0.29479
0.177579
0.0853804
0.0241419
-0.00272408
0.00552921
0.0451181
0.108938
0.188208
0.274132
0.359277
0.43918
0.511671
0.574415
0.626333
0.667358
0.698127
0.719894
0.734417
0.743773
0.750119
0.755476
0.761638
0.770129
0.782554
0.800741
0.826804
0.863025
0.911556
0.974046
1.0508
1.14099
1.24331
1.35575
1.47578
1.60043
1.72524
1.84293
1.94496
2.02271
2.06811
2.07451
2.03754
1.95567
1.83074
1.66843
1.47852
1.27606
1.07436
0.883473
0.710721
0.565249
0.450404
0.364548
0.303126
0.260322
0.230591
0.209574
0.194211
0.182267
0.171684
0.160246
0.145737
0.126169
0.100262
0.067827
0.029895
-0.0114285
-0.0536814
0
0.283816
0.899441
1.91341
3.21764
4.48772
5.27951
5.23716
4.29569
2.74589
1.11184
-0.0928875
-0.593305
-0.44319
-0.177239
0.0340061
0.220321
0.377336
0.508439
0.617495
0.709236
0.789727
0.865429
0.942257
1.02474
1.11542
1.2146
1.32052
1.42972
1.53783
1.64033
1.73232
1.80761
1.86183
1.8936
1.90336
1.89383
1.87045
1.84127
1.81594
1.80396
1.81261
1.84246
1.88962
1.95137
2.02457
2.10562
2.19106
2.27836
2.3661
2.45399
2.54278
2.63385
2.72875
2.82866
2.93396
3.04405
3.15751
3.2721
3.38564
3.49666
3.60474
3.71004
3.81306
3.91329
4.00148
4.05817
4.06033
3.99184
3.85175
3.65576
3.43009
3.20097
2.98447
2.77936
2.58168
2.39026
2.20466
2.02511
1.85268
1.68921
1.53698
1.39851
1.27648
1.17341
1.09096
1.03001
0.990368
0.972196
0.97537
0.995791
1.02391
1.04906
1.06179
1.05556
1.02794
0.980678
0.919095
0.850867
0.784661
0.72779
0.684543
0.6573
0.647439
0.655422
0.67995
0.718051
0.765851
0.818101
0.86933
0.914878
0.951543
0.977901
0.994245
1.00225
1.00449
1.00408
1.00438
1.00888
1.02123
1.04521
1.08444
1.14397
1.23907
1.39751
1.64072
1.93345
2.20334
2.4061
2.51362
2.49753
2.33254
2.02004
1.61299
1.21671
0.949124
0.802276
0.698911
0.609779
0.52889
0.454007
0.384538
0.32131
0.265932
0.219932
0.183668
0.156509
0.136529
0.120327
0.102889
0.0789474
0.0442212
-0.00367167
-0.0646503
-0.13611
-0.215258
-0.295902
0
0.703377
1.73668
2.91335
3.98058
4.66856
4.76049
4.17922
3.04815
1.67279
0.427503
-0.393211
-0.673146
-0.379576
0.0346226
0.422209
0.725799
0.898487
0.925137
0.834392
0.69132
0.571247
0.526696
0.55577
0.608577
0.666246
0.711008
0.731075
0.723632
0.695401
0.660747
0.637662
0.64237
0.680049
0.745425
0.828165
0.919524
1.00952
1.08913
1.15219
1.19631
1.22277
1.23553
1.2397
1.24015
1.24055
1.24293
1.24845
1.25779
1.27147
1.29001
1.31389
1.34335
1.37811
1.41755
1.45994
1.50323
1.54551
1.58542
1.62215
1.65503
1.68228
1.70112
1.7071
1.69423
1.65596
1.58632
1.48102
1.3381
1.15814
0.944207
0.703894
0.445714
0.177075
-0.0954559
-0.365268
-0.624205
-0.861567
-1.06578
-1.22824
-1.34288
-1.40626
-1.41819
-1.38236
-1.30651
-1.20197
-1.08217
-0.962016
-0.855116
-0.771843
-0.718055
-0.694541
-0.69719
-0.71779
-0.745412
-0.768426
-0.77727
-0.761978
-0.715375
-0.649387
-0.584039
-0.540292
-0.532827
-0.565588
-0.631343
-0.714807
-0.797501
-0.862421
-0.90245
-0.917987
-0.910735
-0.880687
-0.827467
-0.752305
-0.658155
-0.549241
-0.431185
-0.309975
-0.190875
-0.0776259
0.0279313
0.125702
0.216726
0.301875
0.381608
0.455346
0.520964
0.574859
0.612299
0.629817
0.625454
0.599469
0.554621
0.495891
0.429579
0.361905
0.297535
0.23865
0.184617
0.133043
0.0814728
0.02907
-0.022489
-0.0693075
-0.106596
-0.13043
-0.141264
-0.139822
-0.128571
-0.111001
-0.0906667
-0.0703169
-0.0512887
-0.0338659
-0.0177069
0
0.146089
0.536472
1.17464
2.00547
2.8644
3.49032
3.60664
3.05613
1.91744
0.517809
-0.696645
-1.37032
-1.28657
-1.00743
-0.743204
-0.522076
-0.363254
-0.273311
-0.223385
-0.205774
-0.210772
-0.228418
-0.249619
-0.268071
-0.280128
-0.283663
-0.277486
-0.260014
-0.230871
-0.194431
-0.155868
-0.119499
-0.0873479
-0.0586382
-0.0305798
-6.39915e-005
0.034654
0.0708182
0.102533
0.12393
0.132834
0.132986
0.133652
0.146776
0.182956
0.244281
0.325716
0.422502
0.531354
0.648948
0.772274
0.899012
1.02757
1.15686
1.28608
1.41448
1.5416
1.66752
1.79332
1.92127
2.05881
2.2321
2.45167
2.67914
2.84703
2.8982
2.82129
2.65655
2.46785
2.30116
2.16133
2.02485
1.88615
1.74474
1.6014
1.45852
1.31945
1.18775
1.0662
0.957009
0.86157
0.780744
0.71549
0.666491
0.634336
0.61933
0.621075
0.639298
0.67256
0.716288
0.763164
0.805755
0.837926
0.855997
0.859363
0.850471
0.834228
0.817018
0.805423
0.804042
0.815127
0.839397
0.876486
0.925194
0.981687
1.04057
1.09635
1.14442
1.18185
1.20775
1.22325
1.23116
1.23536
1.24014
1.24929
1.26577
1.29174
1.32857
1.37676
1.43611
1.50617
1.5865
1.67841
1.79046
1.94941
2.16973
2.40993
2.59557
2.65549
2.56313
2.35299
2.09904
1.86934
1.691
1.53931
1.39826
1.26445
1.13853
1.02201
0.916993
0.824646
0.744094
0.673234
0.609274
0.549442
0.491518
0.433989
0.375811
0.316004
0.253505
0.187115
0.11571
0.0386768
-0.0435057
-0.129246
-0.216413
-0.29009
0
0.598295
1.46085
2.48083
3.46605
4.15291
4.28543
3.74365
2.6351
1.26841
0.0133924
-0.860665
-1.25304
-0.938086
-0.573592
-0.158694
0.250423
0.567869
0.741951
0.847998
0.909037
0.937572
0.9488
0.957441
0.975023
1.00471
1.04631
1.09915
1.16153
1.2307
1.30337
1.37611
1.44572
1.5096
1.56604
1.61431
1.65471
1.68845
1.71744
1.74404
1.77081
1.8002
1.83422
1.87427
1.92091
1.97465
2.03469
2.09706
2.15763
2.21377
2.26584
2.31754
2.37492
2.44428
2.52978
2.63158
2.74354
2.85968
2.97468
3.08339
3.18089
3.26204
3.32244
3.35998
3.37333
3.36186
3.32584
3.26642
3.18568
3.08626
2.97111
2.8435
2.70717
2.56504
2.41957
2.27349
2.12972
1.99131
1.86122
1.74216
1.63651
1.54624
1.47283
1.41726
1.37982
1.36007
1.3567
1.36866
1.39343
1.42589
1.45928
1.4868
1.50268
1.50295
1.48604
1.45285
1.40659
1.35217
1.29543
1.2421
1.19654
1.16134
1.13828
1.12777
1.12905
1.14051
1.16006
1.18542
1.2144
1.24432
1.27101
1.29013
1.29814
1.29364
1.27836
1.25727
1.23739
1.2259
1.2281
1.24353
1.26982
1.30532
1.34864
1.39882
1.45579
1.52095
1.60032
1.71281
1.89005
2.11312
2.32512
2.46265
2.4824
2.37795
2.17867
1.9311
1.67495
1.43366
1.2158
1.02054
0.846666
0.69886
0.580894
0.49394
0.436436
0.404554
0.393104
0.396473
0.408993
0.425837
0.442303
0.452577
0.450641
0.430824
0.388913
0.323359
0.236073
0.132446
0.0129039
0
0.312069
0.981811
1.98047
3.13375
4.11857
4.56253
4.22125
3.13474
1.64788
0.257313
-0.631324
-0.888013
-0.643631
-0.407443
-0.185973
0.00801811
0.165438
0.290413
0.384503
0.453572
0.506749
0.554437
0.60578
0.666266
0.736303
0.811218
0.883335
0.944302
0.987641
1.01049
1.01406
1.00279
0.98291
0.960891
0.942034
0.929606
0.926395
0.934669
0.955944
0.990749
1.03838
1.09771
1.16524
1.2369
1.30899
1.37916
1.44684
1.51322
1.58061
1.65154
1.72792
1.81008
1.8977
1.99001
2.08597
2.18448
2.28461
2.38565
2.48696
2.5878
2.68703
2.78289
2.87249
2.95073
3.00909
3.03886
3.03065
2.97557
2.86769
2.70639
2.49777
2.25438
1.99314
1.73213
1.48379
1.25207
1.04132
0.854767
0.693847
0.558453
0.447261
0.35805
0.287947
0.233654
0.191595
0.157866
0.127984
0.0971304
0.0612383
0.0177594
-0.0336342
-0.0906661
-0.148577
-0.200817
-0.240196
-0.259708
-0.244295
-0.174252
-0.0544298
0.0775273
0.180284
0.222591
0.192947
0.102831
-0.0176793
-0.130857
-0.204904
-0.232572
-0.231201
-0.213762
-0.18661
-0.153908
-0.119242
-0.0854247
-0.0541415
-0.025807
0.000374725
0.0262113
0.0541998
0.0871117
0.127527
0.177384
0.237604
0.307699
0.386112
0.470456
0.556918
0.639978
0.713082
0.769767
0.803996
0.810583
0.785603
0.726834
0.634207
0.510228
0.360198
0.192256
0.0164852
-0.157375
-0.321719
-0.470536
-0.597278
-0.700566
-0.783429
-0.850682
-0.907003
-0.95542
98
254
410
566
724
883
1045
1207
1370
1534
1698
1862
2026
2190
2351
2508
2665
2822
2978
3135
3291
3448
3607
3643
0
0
0
0
0
0
0
0
0
0
0
0
0
0
0
0
0
0
0
0
0
0
0
0
0
0
0
0
0
0
0
0
0
0
0
0
0
0
0
0
0
0
0
0
0
0
0
0
0
0
0
0
0
0
0
0
0
0
0
0
0
0
0
0
0
0
0
0
0
0
0
0
0
0
0
0
0
0
0
0
0
0
0
0
0
0
0
0
0
0
0
0
0
0
0
0
0
0
0
0
0
0
0
0
0
0
0
0
0
0
0
0
0
0
0
0
0
0
0
0
0
0
0
0
0
0
0
0
0
0
0
0
0
0
0
0
0
0
0
0
0
0
0
0
0
0
0
0
0
0
0
0
0
0
0
0
0
0
0
0
0
0
0
0
0
0
0
0
0
0
0
0
0
0
0
0
0
0
0
0
0
0
0
0
0
0
0
0
0
0
0
0
0
0
0
0
0
0
0
0
0
0
0
0
0
0
0
0
0
0
0
0
0
0
0
0
0
0
0
0
0
0
0
0
0
0
0
0
0
0
0
0
0
0
0
0
0
0
0
0
0
0
0
0
0
0
0
0
0
0
0
0
0
0
0
0
0
0
0
0
0
0
0
0
0
0
0
0
0
0
0
0
0
0
0
0
0
0
0
0
0
0
0
0
0
0
0
0
0
0
0
0
0
0
0
0
0
0
0
0
0
0
0
0
0
0
0
0
0
0
0
0
0
0
0
0
0
0
0
0
0
0
0
0
0
0
0
0
0
0
0
0
0
0
0
0
0
0
0
0
0
0
0
0
0
0
0
0
0
0
0
0
0
0
0
0
0
0
0
0
0
0
0
0
0
0
0
0
0
0
0
0
0
0
0
0
0
0
0
0
0
0
0
0
0
0
0
0
0
0
0
0
0
0
0
0
0
0
0
0
0
0
0
0
0
0
0
0
0
0
0
0
0
0
0
0
0
0
0
0
0
0
0
0
0
0
0
0
0
0
0
0
0
0
0
0
0
0
0
0
0
0
0
0
0
0
0
0
0
0
0
0
0
0
0
0
0
0
0
0
0
0
0
0
0
0
0
0
0
0
0
0
0
0
0
0
0
0
0
0
0
0
0
0
0
0
0
0
0
0
0
0
0
0
0
0
0
0
0
0
0
0
0
0
0
0
0
0
0
0
0
0
0
0
0
0
0
0
0
0
0
0
0
0
0
0
0
0
0
0
0
0
0
0
0
0
0
0
0
0
0
0
0
0
0
0
0
0
0
0
0
0
0
0
0
0
0
0
0
0
0
0
0
0
0
0
0
0
0
0
0
0
0
0
0
0
0
0
0
0
0
0
0
0
0
0
0
0
0
0
0
0
0
0
0
0
0
0
0
0
0
0
0
0
0
0
0
0
0
0
0
0
0
0
0
0
0
0
0
0
0
0
0
0
0
0
0
0
0
0
0
0
0
0
0
0
0
0
0
0
0
0
0
0
0
0
0
0
0
0
0
0
0
0
0
0
0
0
0
0
0
0
0
0
0
0
0
0
0
0
0
0
0
0
0
0
0
0
0
0
0
0
0
0
0
0
0
0
0
0
0
0
0
0
0
0
0
0
0
0
0
0
0
0
0
0
0
0
0
0
0
0
0
0
0
0
0
0
0
0
0
0
0
0
0
0
0
0
0
0
0
0
0
0
0
0
0
0
0
0
0
0
0
0
0
0
0
0
0
0
0
0
0
0
0
0
0
0
0
0
0
0
0
0
0
0
0
0
0
0
0
0
0
0
0
0
0
0
0
0
0
0
0
0
0
0
0
0
0
0
0
0
0
0
0
0
0
0
0
0
0
0
0
0
0
0
0
0
0
0
0
0
0
0
0
0
0
0
0
0
0
0
0
0
0
0
0
0
0
0
0
0
0
0
0
0
0
0
0
0
0
0
0
0
0
0
0
0
0
0
0
0
0
0
0
0
0
0
0
0
0
0
0
0
0
0
0
0
0
0
0
0
0
0
0
0
0
0
0
0
0
0
0
0
0
0
0
0
0
0
0
0
0
0
0
0
0
0
0
0
0
0
0
0
0
0
0
0
0
0
0
0
0
0
0
0
0
0
0
0
0
0
0
0
0
0
0
0
0
0
0
0
0
0
0
0
0
0
0
0
0
0
0
0
0
0
0
0
0
0
0
0
0
0
0
0
0
0
0
0
0
0
0
0
0
0
0
0
0
0
0
0
0
0
0
0
0
0
0
0
0
0
0
0
0
0
0
0
0
0
0
0
0
0
0
0
0
0
0
0
0
0
0
0
0
0
0
0
0
0
0
0
0
0
0
0
0
0
0
0
0
0
0
0
0
0
0
0
0
0
0
0
0
0
0
0
0
0
0
0
0
0
0
0
0
0
0
0
0
0
0
0
0
0
0
0
0
0
0
0
0
0
0
0
0
0
0
0
0
0
0
0
0
0
0
0
0
0
0
0
0
0
0
0
0
0
0
0
0
0
0
0
0
0
0
0
0
0
0
0
0
0
0
0
0
0
0
0
0
0
0
0
0
0
0
0
0
0
0
0
0
0
0
0
0
0
0
0
0
0
0
0
0
0
0
0
0
0
0
0
0
0
0
0
0
0
0
0
0
0
0
0
0
0
0
0
0
0
0
0
0
0
0
0
0
0
0
0
0
0
0
0
0
0
0
0
0
0
0
0
0
0
0
0
0
0
0
0
0
0
0
0
0
0
0
0
0
0
0
0
0
0
0
0
0
0
0
0
0
0
0
0
0
0
0
0
0
0
0
0
0
0
0
0
0
0
0
0
0
0
0
0
0
0
0
0
0
0
0
0
0
0
0
0
0
0
0
0
0
0
0
0
0
0
0
0
0
0
0
0
0
0
0
0
0
0
0
0
0
0
0
0
0
0
0
0
0
0
0
0
0
0
0
0
0
0
0
0
0
0
0
0
0
0
0
0
0
0
0
0
0
0
0
0
0
0
0
0
0
0
0
0
0
0
0
0
0
0
0
0
0
0
0
0
0
0
0
0
0
0
0
0
0
0
0
0
0
0
0
0
0
0
0
0
0
0
0
0
0
0
0
0
0
0
0
0
0
0
0
0
0
0
0
0
0
0
0
0
0
0
0
0
0
0
0
0
0
0
0
0
0
0
0
0
0
0
0
0
0
0
0
0
0
0
0
0
0
0
0
0
0
0
0
0
0
0
0
0
0
0
0
0
0
0
0
0
0
0
0
0
0
0
0
0
0
0
0
0
0
0
0
0
0
0
0
0
0
0
0
0
0
0
0
0
0
0
0
0
0
0
0
0
0
0
0
0
0
0
0
0
0
0
0
0
0
0
0
0
0
0
0
0
0
0
0
0
0
0
0
0
0
0
0
0
0
0
0
0
0
0
0
0
0
0
0
0
0
0
0
0
0
0
0
0
0
0
0
0
0
0
0
0
0
0
0
0
0
0
0
0
0
0
0
0
0
0
0
0
0
0
0
0
0
0
0
0
0
0
0
0
0
0
0
0
0
0
0
0
0
0
0
0
0
0
0
0
0
0
0
0
0
0
0
0
0
0
0
0
0
0
0
0
0
0
0
0
0
0
0
0
0
0
0
0
0
0
0
0
0
0
0
0
0
0
0
0
0
0
0
0
0
0
0
0
0
0
0
0
0
0
0
0
0
0
0
0
0
0
0
0
0
0
0
0
0
0
0
0
0
0
0
0
0
0
0
0
0
0
0
0
0
0
0
0
0
0
0
0
0
0
0
0
0
0
0
0
0
0
0
0
0
0
0
0
0
0
0
0
0
0
0
0
0
0
0
0
0
0
0
0
0
0
0
0
0
0
0
0
0
0
0
0
0
0
0
0
0
0
0
0
0
0
0
0
0
0
0
0
0
0
0
0
0
0
0
0
0
0
0
0
0
0
0
0
0
0
0
0
0
0
0
0
0
0
0
0
0
0
0
0
0
0
0
0
0
0
0
0
0
0
0
0
0
0
0
0
0
0
0
0
0
0
0
0
0
0
0
0
0
0
0
0
0
0
0
0
0
0
0
0
0
0
0
0
0
0
0
0
0
0
0
0
0
0
0
0
0
0
0
0
0
0
0
0
0
0
0
0
0
0
0
0
0
0
0
0
0
0
0
0
0
0
0
0
0
0
0
0
0
0
0
0
0
0
0
0
0
0
0
0
0
0
0
0
0
0
0
0
0
0
0
0
0
0
0
0
0
0
0
0
0
0
0
0
0
0
0
0
0
0
0
0
0
0
0
0
0
0
0
0
0
0
0
0
0
0
0
0
0
0
0
0
0
0
0
0
0
0
0
0
0
0
0
0
0
0
0
0
0
0
0
0
0
0
0
0
0
0
0
0
0
0
0
0
0
0
0
0
0
0
0
0
0
0
0
0
0
0
0
0
0
0
0
0
0
0
0
0
0
0
0
0
0
0
0
0
0
0
0
0
0
0
0
0
0
0
0
0
0
0
0
0
0
0
0
0
0
0
0
0
0
0
0
0
0
0
0
0
0
0
0
0
0
0
0
0
0
0
0
0
0
0
0
0
0
0
0
0
0
0
0
0
0
0
0
0
0
0
0
0
0
0
0
0
0
0
0
0
0
0
0
0
0
0
0
0
0
0
0
0
0
0
0
0
0
0
0
0
0
0
0
0
0
0
0
0
0
0
0
0
0
0
0
0
0
0
0
0
0
0
0
0
0
0
0
0
0
0
0
0
0
0
0
0
0
0
0
0
0
0
0
0
0
0
0
0
0
0
0
0
0
0
0
0
0
0
0
0
0
0
0
0
0
0
0
0
0
0
0
0
0
0
0
0
0
0
0
0
0
0
0
0
0
0
0
0
0
0
0
0
0
0
0
0
0
0
0
0
0
0
0
0
0
0
0
0
0
0
0
0
0
0
0
0
0
0
0
0
0
0
0
0
0
0
0
0
0
0
0
0
0
0
0
0
0
0
0
0
0
0
0
0
0
0
0
0
0
0
0
0
0
0
0
0
0
0
0
0
0
0
0
0
0
0
0
0
0
0
0
0
0
0
0
0
0
0
0
0
0
0
0
0
0
0
0
0
0
0
0
0
0
0
0
0
0
0
0
0
0
0
0
0
0
0
0
0
0
0
0
0
0
0
0
0
0
0
0
0
0
0
0
0
0
0
0
0
0
0
0
0
0
0
0
0
0
0
0
0
0
0
0
0
0
0
0
0
0
0
0
0
0
0
0
0
0
0
0
0
0
0
0
0
0
0
0
0
0
0
0
0
0
0
0
0
0
0
0
0
0
0
0
0
0
0
0
0
0
0
0
0
0
0
0
0
0
0
0
0
0
0
0
0
0
0
0
0
0
0
0
0
0
0
0
0
0
0
0
0
0
0
0
0
0
0
0
0
0
0
0
0
0
0
0
0
0
0
0
0
0
0
0
0
0
0
0
0
0
0
0
0
0
0
0
0
0
0
0
0
0
0
0
0
0
0
0
0
0
0
0
0
0
0
0
0
0
0
0
0
0
0
0
0
0
0
0
0
0
0
0
0
0
0
0
0
0
0
0
0
0
0
0
0
0
0
0
0
0
0
0
0
0
0
0
0
0
0
0
0
0
0
0
0
0
0
0
0
0
0
0
0
0
0
0
0
0
0
0
0
0
0
0
0
0
0
0
0
0
0
0
0
0
0
0
0
0
0
0
0
0
0
0
0
0
0
0
0
0
0
0
0
0
0
0
0
0
0
0
0
0
0
0
0
0
0
0
0
0
0
0
0
0
0
0
0
0
0
0
0
0
0
0
0
0
0
0
0
0
0
0
0
0
0
0
0
0
0
0
0
0
0
0
0
0
0
0
0
0
0
0
0
0
0
0
0
0
0
0
0
0
0
0
0
0
0
0
0
0
0
0
0
0
0
0
0
0
0
0
0
0
0
0
0
0
0
0
0
0
0
0
0
0
0
0
0
0
0
0
0
0
0
0
0
0
0
0
0
0
0
0
0
0
0
0
0
0
0
0
0
0
0
0
0
0
0
0
0
0
0
0
0
0
0
0
0
0
0
0
0
0
0
0
0
0
0
0
0
0
0
0
0
0
0
0
0
0
0
0
0
0
0
0
0
0
0
0
0
0
0
0
0
0
0
0
0
0
0
0
0
0
0
0
0
0
0
0
0
0
0
0
0
0
0
0
0
0
0
0
0
0
0
0
0
0
0
0
0
0
0
0
0
0
0
0
0
0
0
0
0
0
0
0
0
0
0
0
0
0
0
0
0
0
0
0
0
0
0
0
0
0
0
0
0
0
0
0
0
0
0
0
0
0
0
0
0
0
0
0
0
0
0
0
0
0
0
0
0
0
0
0
0
0
0
0
0
0
0
0
0
0
0
0
0
0
0
0
0
0
0
0
0
0
0
0
0
0
0
0
0
0
0
0
0
0
0
0
0
0
0
0
0
0
0
0
0
0
0
0
0
0
0
0
0
0
0
0
0
0
0
0
0
0
0
0
0
0
0
0
0
0
0
0
0
0
0
0
0
0
0
0
0
0
0
0
0
0
0
0
0
0
0
0
0
0
0
0
0
0
0
0
0
0
0
0
0
0
0
0
0
0
0
0
0
0
0
0
0
0
0
0
0
0
0
0
0
0
0
0
0
0
0
0
0
0
0
0
0
0
0
0
0
0
0
0
0
0
0
0
0
0
0
0
0
0
0
0
0
0
0
0
0
0
0
0
0
0
0
0
0
0
0
0
0
0
0
0
0
0
0
0
0
0
0
0
0
0
0
0
0
0
0
0
0
0
0
0
0
0
0
0
0
0
0
0
0
0
0
0
0
0
0
0
0
0
0
0
0
0
0
0
0
0
0
0
0
0
0
0
0
0
0
0
0
0
0
0
0
0
0
0
0
0
0
0
0
0
0
0
0
0
0
0
0
0
0
0
0
0
0
0
0
0
0
0
0
0
0
0
0
0
0
0
0
0
0
0
0
0
0
0
0
0
0
0
0
0
0
0
0
0
0
0
0
0
0
0
0
0
0
0
0
0
0
0
0
0
0
0
0
0
0
0
0
0
0
0
0
0
0
0
0
0
0
0
0
0
0
0
0
0
0
0
0
0
0
0
0
0
0
0
0
0
0
0
0
0
0
0
0
0
0
0
0
0
0
0
0
0
0
0
0
0
0
0
0
0
0
0
0
0
0
0
0
0
0
0
0
0
0
0
0
0
0
0
0
0
0
0
0
0
0
0
0
0
0
0
0
0
0
0
0
0
0
0
0
0
0
0
0
0
0
0
0
0
0
0
0
0
0
0
0
0
0
0
0
0
0
0
0
0
0
0
0
0
0
0
0
0
0
0
0
0
0
0
0
0
0
0
0
0
0
0
0
0
0
0
0
0
0
0
0
0
0
0
0
0
0
0
0
0
0
0
0
0
0
0
0
0
0
0
0
0
0
0
0
0
0
0
0
0
0
0
0
0
0
0
0
0
0
0
0
0
0
0
0
0
0
0
0
0
0
0
0
0
0
0
0
0
0
0
0
0
0
0
0
0
0
0
0
0
0
0
0
0
0
0
0
0
0
0
0
0
0
0
0
0
0
0
0
0
0
0
0
0
0
0
0
0
0
0
0
0
0
0
0
0
0
0
0
0
0
0
0
0
0
0
0
0
0
0
0
0
0
0
0
0
0
0
0
0
0
0
0
0
0
0
0
0
0
0
0
0
0
0
0
0
0
0
0
0
0
0
0
0
0
0
0
0
0
0
0
0
0
0
0
0
0
0
0
0
0
0
0
0
0
0
0
0
0
0
0
0
0
0
0
0
0
0
0
0
0
0
0
0
0
0
0
0
0
0
0
0
0
0
0
0
0
0
0
0
0
0
0
0
0
0
0
0
0
0
0
0
0
0
0
0
0
0
0
0
0
0
0
0
0
0
0
0
0
0
0
0
0
0
0
0
0
0
0
0
0
0
0
0
0
0
0
0
0
0
0
0
0
0
0
0
0
0
0
0
0
0
0
0
0
0
0
0
0
0
0
0
0
0
0
0
0
0
0
0
0
0
0
0
0
0
0
0
0
0
0
0
0
0
0
0
0
0
0
0
0
0
0
0
0
0
0
0
0
0
0
0
0
0
0
0
0
0
0
0
0
0
0
0
0
0
0
0
0
0
0
0
0
0
0
0
0
0
0
0
0
0
0
0
0
0
0
0
0
0
0
0
0
0
0
0
0
0
0
0
0
0
0
0
0
0
0
0
0
0
0
0
0
0
0
0
0
0
0
0
0
0
0
0
0
0
0
0
0
0
0
0
0
0
0
0
0
0
0
0
0
0
0
0
0
0
0
0
0
0
0
0
0
0
0
0
0
0
0
0
0
0
0
0
0
0
0
0
0
0
0
0
0
0
0
0
0
0
0
0
0
0
0
0
0
0
0
0
0
0
0
0
0
0
0
0
0
0
0
0
