0.97849
0.911672
0.831568
0.738755
0.636262
0.529225
0.423975
0.326765
0.243314
0.178474
0.132448
0.101587
0.0811104
0.0672218
0.0586617
0.0570831
0.0661667
0.0898575
0.130467
0.185966
0.251566
0.322742
0.394859
0.463403
0.524409
0.574819
0.613081
0.638805
0.65256
0.655626
0.649824
0.637366
0.62075
0.602637
0.5857
0.572325
0.564407
0.56339
0.570155
0.584498
0.604239
0.624597
0.63875
0.639364
0.620098
0.577161
0.510491
0.424203
0.326028
0.225713
0.1327
0.055262
-0.00130692
-0.0426025
-0.0791115
-0.120773
-0.171618
-0.226987
-0.274612
-0.299137
-0.288141
-0.244947
-0.164054
-0.0564919
0.0522247
0.135798
0.174855
0.161759
0.101285
0.00746765
-0.10166
-0.206054
0
0.430161
1.0933
1.93333
2.7956
3.41334
3.48929
2.85491
1.60181
0.0702194
-1.3209
-2.28222
-2.70138
-2.74031
-2.57181
-2.24053
-1.82807
-1.43927
-1.21249
-1.14045
-1.11963
-1.11308
-1.11097
-1.10878
-1.10278
-1.09072
-1.07055
-1.0439
-1.01512
-0.988482
-0.966112
-0.946653
-0.925315
-0.895223
-0.849432
-0.782743
-0.69632
-0.59315
-0.474609
-0.342079
-0.197243
-0.0419273
0.121896
0.292039
0.466042
0.641169
0.814547
0.983415
1.14548
1.29933
1.44474
1.58294
1.71649
1.84909
1.98497
2.12828
2.2824
2.44935
2.6294
2.82091
3.02045
3.22333
3.42229
3.60637
3.7647
3.88852
3.97158
4.01035
4.00347
3.9509
3.85299
3.71015
3.52318
3.29808
3.04238
2.76226
2.46321
2.15111
1.83203
1.51071
1.19095
0.876249
0.570092
0.276148
-0.00171471
-0.259665
-0.494348
-0.703294
-0.885169
-1.04044
-1.17123
-1.28069
-1.3724
-1.44974
-1.51547
-1.57149
-1.61891
-1.65815
-1.68916
-1.71156
-1.72477
-1.72799
-1.7204
-1.70127
-1.67008
-1.62668
-1.57141
-1.50513
-1.42901
-1.34451
-1.25332
-1.15725
-1.05827
-0.958548
-0.860351
-0.765862
-0.676947
-0.594944
-0.520535
-0.45375
-0.394083
-0.340664
-0.29242
-0.248185
-0.206762
-0.166898
-0.127246
-0.086311
-0.0424091
0.00635262
0.0620712
0.126982
0.203322
0.293105
0.397798
0.51796
0.654595
0.810147
0.981206
1.15161
1.29937
1.40433
1.45328
1.44299
1.38044
1.28016
1.15954
1.03372
0.912142
0.797646
0.690473
0.591907
0.505545
0.435297
0.384994
0.357166
0.35205
0.369081
0.402085
0.439271
0.466839
0.472653
0.448506
0.391391
0.303735
0.192722
0.0572392
0
0.294116
1.01226
2.10513
3.36442
4.43326
4.8966
4.45819
3.12864
1.28696
-0.470077
-1.62428
-1.98484
-1.63518
-1.20562
-0.77748
-0.442706
-0.248507
-0.136395
-0.0499666
0.0231386
0.0851534
0.138045
0.18404
0.225158
0.262812
0.2976
0.329433
0.357735
0.38189
0.401607
0.417118
0.429168
0.43884
0.447285
0.455494
0.464142
0.473604
0.484057
0.495617
0.508482
0.52303
0.53986
0.559775
0.583705
0.61257
0.64712
0.687756
0.73441
0.786538
0.843308
0.903701
0.96698
1.03304
1.10259
1.17716
1.2588
1.3496
1.45117
1.56413
1.68797
1.82202
1.96407
2.10663
2.23622
2.3386
2.40151
2.41723
2.38402
2.30561
2.18876
2.03972
1.86197
1.66056
1.44249
1.21425
0.981969
0.75286
0.535834
0.340132
0.173884
0.0473919
-0.0326147
-0.0657206
-0.0595324
-0.03162
-0.00416279
0.00450268
-0.017321
-0.0731266
-0.157684
-0.257875
-0.355309
-0.430575
-0.46955
-0.472991
-0.449292
-0.402328
-0.336747
-0.256964
-0.173342
-0.0985512
-0.0426491
-0.0108748
-0.00223207
-0.00953741
-0.0212752
-0.0248908
-0.0104235
0.024852
0.076028
0.138428
0.208725
0.284004
0.361919
0.440935
0.520221
0.599274
0.677415
0.753167
0.82426
0.88812
0.942601
0.986796
1.02147
1.0489
1.07218
1.0944
1.11787
1.14372
1.17254
1.20459
1.24014
1.27945
1.3225
1.36863
1.41619
1.46252
1.5042
1.53736
1.55805
1.56261
1.54788
1.51139
1.45158
1.36835
1.26282
1.13791
0.99853
0.85149
0.705046
0.568129
0.44936
0.356211
0.307558
0.331133
0.419769
0.531689
0.619671
0.646081
0.592837
0.463401
0.277933
0.0656663
0
0.30731
1.02752
2.103
3.31428
4.30629
4.71275
4.33625
3.26885
1.85785
0.53168
-0.398803
-0.837147
-0.796219
-0.551932
-0.308706
-0.0782047
0.129271
0.306742
0.460927
0.598424
0.72193
0.8343
0.938437
1.03671
1.1306
1.2206
1.3064
1.38721
1.46215
1.53056
1.59223
1.64738
1.69653
1.7401
1.7781
1.81031
1.83711
1.85937
1.87883
1.89845
1.92217
1.95425
1.99837
2.0568
2.12969
2.21429
2.30892
2.41202
2.52208
2.63767
2.75704
2.87783
2.99652
3.10856
3.2092
3.29443
3.36198
3.41196
3.44687
3.47124
3.49069
3.51081
3.53583
3.57008
3.61597
3.66563
3.70194
3.70459
3.65613
3.54771
3.38251
3.17535
2.9484
2.7243
2.51554
2.32139
2.14021
1.97003
1.80761
1.64957
1.49348
1.33859
1.186
1.03839
0.899248
0.771747
0.658621
0.56158
0.481193
0.417153
0.368813
0.335874
0.318924
0.319311
0.338626
0.378648
0.440606
0.524409
0.628063
0.747477
0.876754
1.00897
1.13722
1.25579
1.36103
1.45184
1.52954
1.59728
1.65914
1.71916
1.78047
1.84463
1.9118
1.98088
2.04929
2.11292
2.16743
2.20905
2.23533
2.24538
2.23981
2.22026
2.1889
2.14812
2.10106
2.05049
2.00013
1.95511
1.92128
1.90444
1.90948
1.93953
1.99552
2.07598
2.17959
2.30738
2.44635
2.57687
2.67981
2.74082
2.75297
2.71643
2.6358
2.51741
2.36836
2.20089
2.02518
1.84782
1.67365
1.50589
1.3456
1.19335
1.04948
0.913856
0.785951
0.66495
0.549686
0.438644
0.330052
0.222028
0.112785
0
-0.147551
-0.105069
0.366003
1.27901
2.42465
3.41724
3.85721
3.52213
2.46954
0.988644
-0.55113
-1.84581
-2.71865
-2.76071
-2.71171
-2.53687
-2.26916
-1.98626
-1.77324
-1.67875
-1.64241
-1.6389
-1.65835
-1.68949
-1.72195
-1.74795
-1.76471
-1.77187
-1.76857
-1.75333
-1.72423
-1.67894
-1.61504
-1.53059
-1.42477
-1.29845
-1.15414
-0.995555
-0.827064
-0.653123
-0.4777
-0.303954
-0.134228
0.0297161
0.186342
0.333945
0.47117
0.597036
0.711314
0.81484
0.909589
0.998465
1.08485
1.17205
1.26275
1.35858
1.46013
1.56693
1.67744
1.7893
1.89914
2.00309
2.09718
2.17769
2.24078
2.28204
2.2986
2.28865
2.25103
2.18543
2.09271
1.97513
1.83651
1.68209
1.51813
1.35164
1.18833
1.03301
0.889705
0.761402
0.649889
0.555791
0.47872
0.417515
0.37052
0.335818
0.3113
0.294777
0.283982
0.276652
0.270426
0.262817
0.251946
0.237175
0.21962
0.202328
0.189933
0.187713
0.20024
0.229992
0.279866
0.345172
0.416255
0.48233
0.5344
0.56727
0.580111
0.575757
0.559455
0.537717
0.51727
0.503731
0.501922
0.514989
0.54728
0.596653
0.653357
0.705664
0.744191
0.765312
0.772065
0.772309
0.775294
0.788463
0.812703
0.846494
0.889376
0.940897
1.00038
1.06695
1.13942
1.21619
1.29503
1.37256
1.44414
1.5049
1.55029
1.57666
1.58172
1.56475
1.52668
1.46991
1.39803
1.31556
1.22781
1.13977
1.05559
0.978505
0.910654
0.85331
0.806722
0.76944
0.738104
0.708338
0.675389
0.634809
0.583075
0.518032
0.439111
0.347296
0.24493
0.133886
0
0.0593897
0.491495
1.35482
2.52049
3.6513
4.32128
4.23184
3.38503
2.08258
0.749343
-0.28357
-0.887517
-1.07004
-0.8754
-0.676279
-0.478845
-0.29242
-0.127107
0.0135156
0.135215
0.242521
0.336768
0.418632
0.489235
0.549964
0.602436
0.648453
0.68988
0.72839
0.765183
0.800674
0.833988
0.862603
0.883187
0.892633
0.889477
0.875007
0.853568
0.831823
0.817085
0.815252
0.828796
0.855013
0.890814
0.932415
0.976531
1.02157
1.0682
1.11901
1.17755
1.2469
1.32786
1.41861
1.51675
1.61776
1.71628
1.80784
1.88994
1.96263
2.02828
2.09067
2.15377
2.22143
2.29267
2.36
2.41209
2.43713
2.42564
2.3721
2.27527
2.13781
1.96574
1.76978
1.56148
1.35035
1.14351
0.945252
0.758149
0.583869
0.422511
0.272788
0.132464
-0.0009655
-0.12952
-0.253978
-0.372924
-0.482599
-0.577999
-0.65383
-0.706175
-0.733808
-0.73868
-0.725436
-0.700139
-0.668689
-0.635596
-0.603113
-0.571858
-0.541447
-0.511139
-0.480295
-0.448568
-0.415701
-0.381162
-0.343915
-0.302516
-0.255571
-0.202368
-0.143394
-0.0807785
-0.0171818
0.0447025
0.102455
0.154405
0.199883
0.239195
0.27336
0.303713
0.331434
0.357416
0.382273
0.406425
0.430434
0.455301
0.482564
0.514113
0.551784
0.596881
0.649795
0.7095
0.774295
0.842198
0.910933
0.977952
1.04013
1.09299
1.13066
1.14747
1.13761
1.09633
1.02127
0.913682
0.778952
0.626359
0.467958
0.317161
0.186831
0.0869
0.0229395
-0.00456276
0
0.0270319
0.0681046
0.113775
0.157069
0.195347
0.229316
0.260546
0.291333
0.332012
0.564485
0.977055
1.67416
2.68127
3.82243
4.72958
5.00198
4.43209
3.15496
1.61028
0.325232
-0.350532
-0.388477
-0.107691
0.123343
0.327362
0.496308
0.626266
0.729956
0.810924
0.872893
0.920776
0.96038
0.998084
1.04045
1.09372
1.16802
1.29117
1.48139
1.69598
1.87393
1.96225
1.94027
1.82977
1.68473
1.56552
1.51226
1.51705
1.54813
1.59272
1.64675
1.70781
1.77432
1.84548
1.92108
2.00126
2.08629
2.17638
2.27155
2.37153
2.47575
2.58329
2.69308
2.80399
2.91506
3.02563
3.13541
3.24435
3.35239
3.45895
3.56201
3.65668
3.73622
3.79261
3.81836
3.80829
3.7605
3.67621
3.55883
3.41276
3.24276
3.05672
2.86067
2.65818
2.45172
2.24341
2.0351
1.82857
1.62578
1.42913
1.24161
1.06676
0.908149
0.770002
0.657716
0.571423
0.507734
0.461192
0.425417
0.39417
0.362001
0.324435
0.277947
0.220055
0.151045
0.0715902
-0.0156912
-0.106314
-0.194535
-0.274422
-0.341297
-0.392291
-0.426068
-0.444346
-0.451984
-0.454791
-0.457735
-0.463727
-0.473113
-0.483987
-0.493203
-0.497734
-0.49591
-0.48833
-0.477125
-0.465412
-0.456108
-0.450785
-0.448924
-0.447783
-0.442833
-0.428598
-0.400468
-0.356096
-0.29398
-0.213534
-0.115806
-0.000494194
0.127599
0.255366
0.368999
0.45728
0.514078
0.539024
0.536203
0.511621
0.470842
0.418853
0.360386
0.297818
0.233761
0.171581
0.114974
0.0673668
0.0313843
0.00864887
0
0.0125975
0.0404455
0.0841494
0.144484
0.221572
0.314283
0.419874
0.534022
0.653004
0.703945
0.89584
1.49658
2.52737
3.74258
4.72404
5.08214
4.63891
3.4957
1.97372
0.483228
-0.613273
-1.1007
-0.910353
-0.390885
0.302518
0.951818
1.39021
1.52675
1.59172
1.64076
1.68029
1.71269
1.74039
1.76564
1.79044
1.81662
1.84595
1.88023
1.92121
1.97038
2.02864
2.09595
2.17108
2.25181
2.33523
2.41801
2.49728
2.57131
2.63989
2.7044
2.76734
2.83171
2.90012
2.9741
3.05352
3.1373
3.22257
3.30601
3.38515
3.45932
3.53007
3.60092
3.67656
3.76179
3.86057
3.97429
4.10266
4.24529
4.40173
4.57451
4.7719
4.99704
5.2251
5.42007
5.54605
5.58202
5.53053
5.41434
5.26329
5.09993
4.93318
4.7644
4.59464
4.42526
4.25814
4.09577
3.94083
3.7957
3.66188
3.53962
3.42785
3.3243
3.22606
3.1303
3.0351
2.93995
2.84606
2.75621
2.67402
2.60306
2.54618
2.50469
2.47846
2.46628
2.46633
2.47669
2.4956
2.5215
2.55297
2.58852
2.62684
2.66666
2.70684
2.74638
2.78442
2.8208
2.85627
2.89285
2.934
2.98419
3.04814
3.12958
3.23009
3.34753
3.47668
3.61312
3.7523
3.88997
4.02252
4.14621
4.25619
4.34823
4.41892
4.46423
4.48014
4.46343
4.41245
4.3273
4.20988
4.06387
3.89732
3.71896
3.5352
3.35136
3.17204
3.00063
2.83893
2.68682
2.54236
2.40197
2.26097
2.11401
1.95569
1.78113
1.58652
1.36967
1.13048
0.871182
0.595921
0.301277
0
0.150702
0.868724
2.07439
3.46231
4.57737
4.99018
4.49488
3.21221
1.52933
-0.0824223
-1.25462
-1.82008
-1.6939
-1.36689
-0.926642
-0.542583
-0.310323
-0.198883
-0.104043
-0.0143913
0.0715884
0.153939
0.232778
0.308941
0.384049
0.460319
0.540156
0.625672
0.718256
0.818244
0.925122
1.03783
1.15507
1.27568
1.39883
1.52413
1.65143
1.78066
1.91146
2.04216
2.16769
2.27861
2.3643
2.41554
2.42822
2.4065
2.36395
2.3217
2.30367
2.32994
2.40277
2.50922
2.6378
2.78046
2.93002
3.07967
3.22394
3.35919
3.48373
3.59729
3.69965
3.79036
3.86844
3.93206
3.97836
4.00377
4.00464
3.97767
3.92026
3.83067
3.70827
3.55386
3.37072
3.16452
2.94264
2.71305
2.48353
2.26115
2.05201
1.86068
1.68935
1.53818
1.40574
1.28977
1.18782
1.09778
1.01802
0.947507
0.885462
0.831023
0.7835
0.742587
0.708639
0.682837
0.667074
0.663519
0.674502
0.705548
0.759436
0.82562
0.887461
0.9289
0.940465
0.923197
0.888719
0.85517
0.840482
0.855744
0.895274
0.948649
1.00999
1.0735
1.13498
1.19274
1.24754
1.30176
1.35824
1.41907
1.48457
1.55376
1.6252
1.69693
1.76641
1.82944
1.87916
1.90887
1.91145
1.88112
1.81569
1.71809
1.59646
1.46241
1.328
1.20224
1.08668
0.980399
0.882263
0.790065
0.701343
0.614124
0.527451
0.441579
0.357853
0.278293
0.205055
0.139879
0.0836855
0.0365635
0
-0.00862904
0.144856
0.538342
1.23884
2.19751
3.19082
3.86848
3.90051
3.15453
1.79618
0.23806
-1.04723
-1.74253
-1.68748
-1.34351
-0.871267
-0.411975
-0.0790873
0.0513268
0.114351
0.161966
0.204412
0.245613
0.288882
0.336766
0.390651
0.450554
0.515309
0.582508
0.64846
0.709143
0.761062
0.801933
0.831107
0.849618
0.859883
0.865117
0.86864
0.873261
0.880914
0.893076
0.910492
0.933899
0.964529
1.00433
1.05579
1.12131
1.20247
1.29934
1.40984
1.53001
1.65628
1.78539
1.91469
2.04244
2.16777
2.2904
2.41015
2.52646
2.63787
2.74162
2.83379
2.91041
2.96752
3.00187
3.01129
2.99508
2.95402
2.89029
2.80715
2.70855
2.59911
2.48259
2.36128
2.23601
2.10634
1.9708
1.8275
1.67481
1.51219
1.3407
1.16339
0.98507
0.811843
0.650255
0.50635
0.384879
0.288786
0.219366
0.17557
0.154622
0.153218
0.167731
0.191957
0.219362
0.244482
0.263714
0.275816
0.281984
0.285443
0.29069
0.302564
0.324565
0.35836
0.404658
0.463426
0.535234
0.617807
0.70311
0.782793
0.850711
0.904957
0.948465
0.987779
1.03039
1.08179
1.14304
1.20989
1.27809
1.34371
1.40304
1.45306
1.49162
1.51735
1.52934
1.52671
1.50816
1.47277
1.41995
1.3499
1.2641
1.16556
1.05869
0.948813
0.841396
0.741077
0.650918
0.572498
0.505742
0.449231
0.400706
0.357617
0.317605
0.278815
0.240045
0.200711
0.160718
0.120273
0.0797157
0.0393936
0
-0.026075
0.147793
0.698862
1.69367
2.9413
4.00279
4.39246
3.85646
2.53257
0.877708
-0.576564
-1.46972
-1.71503
-1.40337
-1.01671
-0.614503
-0.277878
-0.0522953
0.100292
0.223972
0.331519
0.425504
0.505558
0.570941
0.620891
0.655634
0.675761
0.682214
0.676501
0.660835
0.638103
0.611645
0.58491
0.561149
0.542849
0.531788
0.529864
0.538716
0.559612
0.593226
0.639367
0.696782
0.763154
0.835465
0.910314
0.984747
1.05691
1.12652
1.19489
1.2647
1.33932
1.4221
1.51555
1.6208
1.73765
1.86467
1.99941
2.13882
2.27964
2.41873
2.55299
2.67901
2.79289
2.89028
2.96623
3.01531
3.03221
3.01206
2.95161
2.85047
2.71188
2.54282
2.35306
2.15341
1.95362
1.75942
1.57244
1.3931
1.2201
1.05062
0.880757
0.706084
0.522455
0.326847
0.116162
-0.114884
-0.355267
-0.585179
-0.783994
-0.936498
-1.03626
-1.08501
-1.08924
-1.05689
-0.995821
-0.918809
-0.833362
-0.747147
-0.66717
-0.598098
-0.540217
-0.490153
-0.444263
-0.398495
-0.349649
-0.296596
-0.239574
-0.179508
-0.117604
-0.0547501
0.00881271
0.0734402
0.139695
0.20788
0.277647
0.347237
0.414397
0.477477
0.536475
0.593471
0.652149
0.716528
0.789325
0.872415
0.961736
1.04658
1.11432
1.15439
1.16131
1.13574
1.0834
1.01251
0.93098
0.844803
0.757196
0.669359
0.58186
0.495318
0.410718
0.329507
0.253533
0.184894
0.125788
0.0777962
0.041745
0.0175362
0.00421314
-0.00057621
0
0.0155378
0.0285946
-0.0181309
0.0614775
0.592275
1.62803
2.9437
4.08622
4.5643
4.09281
2.75771
0.994495
-0.620241
-1.64562
-1.94936
-1.67195
-1.29452
-0.939772
-0.697243
-0.537629
-0.379019
-0.228335
-0.0881872
0.0390564
0.150893
0.246464
0.326834
0.392209
0.444109
0.484798
0.517013
0.543703
0.567791
0.591949
0.618439
0.649024
0.684783
0.726413
0.774742
0.830732
0.895485
0.970141
1.05563
1.1523
1.25963
1.37645
1.50077
1.62821
1.75435
1.87582
1.99111
2.1009
2.20765
2.31464
2.42493
2.54003
2.65943
2.78161
2.90401
3.02261
3.13287
3.2304
3.31142
3.37307
3.41348
3.43163
3.42719
3.40041
3.35279
3.28749
3.20678
3.11353
3.01078
2.90116
2.78627
2.66651
2.54077
2.40706
2.26326
2.10803
1.94155
1.76609
1.58604
1.40742
1.23709
1.08172
0.94734
0.838916
0.757673
0.700697
0.662544
0.63637
0.615193
0.593042
0.565827
0.531875
0.492103
0.449925
0.410194
0.378499
0.360304
0.361075
0.390708
0.455288
0.541176
0.629234
0.701572
0.747937
0.769055
0.775519
0.782806
0.804729
0.84828
0.90665
0.972334
1.04048
1.10668
1.16702
1.21823
1.2581
1.28575
1.30146
1.30678
1.30437
1.29791
1.2915
1.28907
1.29371
1.30798
1.33116
1.35654
1.37473
1.37641
1.35501
1.3086
1.24031
1.15707
1.06743
0.979087
0.896101
0.819342
0.749353
0.68625
0.629901
0.580153
0.536837
0.499559
0.467471
0.438944
0.411063
0.379943
0.34148
0.292186
0.229993
0.154787
0.0684753
-0.0277245
-0.147736
0
0.513289
1.42621
2.62929
3.82989
4.63455
4.71943
3.99445
2.66506
1.15228
-0.0934486
-0.788627
-0.912162
-0.684311
-0.469169
-0.277059
-0.116919
0.00636292
0.103632
0.184414
0.253203
0.312793
0.365807
0.414776
0.461902
0.50884
0.556519
0.605107
0.653592
0.699745
0.740743
0.773859
0.79717
0.810118
0.813783
0.810875
0.805475
0.802509
0.806813
0.82292
0.85417
0.901976
0.96592
1.04417
1.13022
1.21688
1.2982
1.37102
1.43538
1.49389
1.55027
1.60796
1.6691
1.73474
1.80586
1.88364
1.96953
2.0648
2.16969
2.28356
2.40203
2.51709
2.61927
2.69939
2.75014
2.7666
2.74615
2.68763
2.59073
2.45714
2.29031
2.09443
1.87494
1.63837
1.39179
1.14261
0.898577
0.66731
0.455633
0.268924
0.110905
-0.0152416
-0.107514
-0.168445
-0.205809
-0.228407
-0.244318
-0.259364
-0.276203
-0.294282
-0.310631
-0.32118
-0.322277
-0.312562
-0.292484
-0.262556
-0.224113
-0.179126
-0.129757
-0.0785618
-0.0293884
0.0138393
0.048106
0.0722717
0.0877743
0.0985954
0.11034
0.128701
0.157947
0.198666
0.249053
0.308209
0.375378
0.450058
0.532049
0.621149
0.718342
0.822599
0.926251
1.01836
1.08839
1.13006
1.14394
1.13742
1.12209
1.1096
1.10778
1.11588
1.12994
1.14627
1.16032
1.16754
1.1642
1.14779
1.11725
1.07279
1.01562
0.9476
0.870753
0.787059
0.698374
0.606394
0.512676
0.41895
0.327333
0.240337
0.160748
0.0915394
0.0350323
-0.00736733
-0.0340359
-0.0440708
-0.041375
-0.0310242
-0.0180737
-0.00653
0
-0.230114
-0.17502
0.484919
1.77835
3.35722
4.60918
4.97055
4.24697
2.7227
0.987822
-0.388688
-1.12045
-1.25722
-1.04912
-0.858161
-0.682313
-0.528506
-0.401792
-0.296101
-0.206107
-0.129889
-0.067308
-0.0184406
0.0168465
0.0390194
0.0487499
0.0470963
0.0356781
0.0167828
-0.0066658
-0.0313015
-0.0536358
-0.0705025
-0.0795528
-0.0792839
-0.0688007
-0.0478683
-0.0166729
0.0244431
0.0751648
0.135144
0.204033
0.281206
0.365466
0.454887
0.547033
0.638641
0.72636
0.808142
0.884135
0.957096
1.0321
1.11546
1.21315
1.32911
1.46391
1.613
1.77003
1.92839
2.08126
2.22264
2.34808
2.45497
2.54223
2.60947
2.65729
2.68729
2.70078
2.69848
2.68051
2.64645
2.59536
2.52595
2.43672
2.32645
2.19526
2.0442
1.87551
1.69247
1.49959
1.30742
1.12838
0.97406
0.853185
0.770206
0.724822
0.712423
0.72515
0.753291
0.786468
0.815998
0.83514
0.839779
0.828628
0.802945
0.765895
0.721844
0.675805
0.63266
0.597243
0.573964
0.566272
0.575892
0.603637
0.648407
0.70208
0.755321
0.800585
0.834553
0.85895
0.879423
0.903015
0.935358
0.9778
1.0275
1.08142
1.13661
1.19023
1.24001
1.28473
1.32442
1.36018
1.3939
1.42774
1.46368
1.50308
1.54639
1.59315
1.64217
1.69206
1.7416
1.79007
1.83729
1.8833
1.92769
1.96825
1.99917
2.01142
1.99474
1.9411
1.84814
1.72104
1.57199
1.41728
1.27312
1.1484
1.04284
0.955001
0.883719
0.826132
0.778215
0.735524
0.692803
0.644469
0.585769
0.51352
0.426793
0.327307
0.211041
0
0.153748
0.858342
2.08647
3.5732
4.87569
5.53497
5.27554
4.14061
2.47855
0.780047
-0.538916
-1.27888
-1.45972
-1.13652
-0.823447
-0.523366
-0.246049
-0.000538349
0.218209
0.410301
0.571487
0.701026
0.800112
0.872114
0.922445
0.9579
0.985563
1.01158
1.04025
1.07334
1.11116
1.15411
1.20302
1.25955
1.32627
1.40618
1.50193
1.6149
1.74447
1.88777
2.04036
2.19636
2.35019
2.49784
2.63771
2.77083
2.90032
3.0305
3.16575
3.3094
3.46303
3.62676
3.79918
3.97769
4.15893
4.33933
4.51551
4.68475
4.84528
4.99636
5.13822
5.27158
5.39789
5.52195
5.64764
5.75754
5.81433
5.77567
5.6156
5.34163
4.99723
4.64653
4.34832
4.11423
3.91335
3.73047
3.5614
3.40175
3.24646
3.0898
2.92685
2.75439
2.57171
2.38094
2.18683
1.99585
1.81483
1.65077
1.50826
1.38767
1.28647
1.20053
1.12562
1.05868
0.998314
0.944539
0.898055
0.859047
0.826608
0.799336
0.775004
0.75093
0.72455
0.694185
0.65951
0.621732
0.5834
0.547896
0.518712
0.498724
0.489658
0.491374
0.502564
0.522124
0.548928
0.582025
0.620717
0.664435
0.71252
0.764059
0.817886
0.872746
0.927649
0.982205
1.03681
1.09261
1.15116
1.21401
1.28246
1.35712
1.43718
1.5185
1.59181
1.64568
1.6689
1.6532
1.59594
1.50192
1.38358
1.25887
1.14725
1.06309
1.00687
0.98625
0.996857
1.01944
1.03168
1.01526
0.961486
0.873174
0.762396
0.644892
0.533756
0.433577
0.341287
0.253651
0.168697
0.0847935
0
-0.0557442
0.216272
0.953323
2.13938
3.51058
4.59068
4.89639
4.21156
2.73791
0.999971
-0.43552
-1.23292
-1.38401
-1.16076
-0.952906
-0.771289
-0.616679
-0.479151
-0.342302
-0.199713
-0.0468254
0.120819
0.293505
0.455712
0.592487
0.695625
0.766805
0.816363
0.858395
0.904628
0.959856
1.01995
1.07833
1.12748
1.1619
1.18018
1.18539
1.18417
1.18483
1.19533
1.21986
1.25892
1.31183
1.37785
1.45698
1.54793
1.64372
1.73551
1.81617
1.88297
1.9391
1.99321
2.05668
2.13983
2.2484
2.37693
2.51761
2.66487
2.81314
2.95588
3.0864
3.19931
3.29026
3.3558
3.39314
3.3998
3.37346
3.31199
3.21381
3.07956
2.91297
2.719
2.50341
2.27303
2.03556
1.79862
1.56886
1.35127
1.14877
0.962153
0.790434
0.631514
0.482994
0.342975
0.210703
0.0870066
-0.0250826
-0.121336
-0.197483
-0.249888
-0.276563
-0.277841
-0.256531
-0.217425
-0.166669
-0.110589
-0.0546965
-0.00300846
0.0421946
0.0802082
0.111482
0.137171
0.158841
0.178502
0.198334
0.221053
0.249751
0.28754
0.336932
0.39916
0.473637
0.558704
0.649911
0.740765
0.824944
0.897752
0.957135
1.00401
1.04181
1.07553
1.1104
1.15061
1.19804
1.25277
1.31389
1.37965
1.44719
1.51183
1.56706
1.60622
1.62339
1.61462
1.5791
1.51972
1.4428
1.35678
1.27043
1.19029
1.11858
1.0559
1.00173
0.953907
0.90966
0.866431
0.822432
0.776805
0.729377
0.679913
0.627608
0.570604
0.505992
0.430556
0.341734
0.238163
0
-0.0130938
0.53648
1.64184
3.04508
4.3301
5.08958
5.07928
4.29485
2.95283
1.40337
0.0152697
-0.932741
-1.31576
-0.954819
-0.579313
-0.207863
0.108452
0.315944
0.422888
0.485202
0.519412
0.543993
0.573499
0.614158
0.662165
0.709494
0.747247
0.769974
0.778087
0.7775
0.77704
0.78516
0.806329
0.83897
0.881451
0.933021
0.99223
1.05742
1.12617
1.19411
1.25659
1.30981
1.35204
1.3846
1.41209
1.44177
1.48211
1.54108
1.62121
1.72213
1.84262
1.98004
2.1302
2.28792
2.44778
2.60476
2.7547
2.89405
3.01945
3.12863
3.22028
3.29331
3.34671
3.37948
3.39061
3.37904
3.34363
3.28322
3.19756
3.08725
2.95291
2.79579
2.61846
2.42505
2.22084
2.01141
1.80245
1.59936
1.40666
1.2277
1.06445
0.917638
0.786967
0.671429
0.569608
0.479907
0.400764
0.33074
0.268511
0.213225
0.164752
0.12419
0.0936136
0.0754933
0.0722517
0.085948
0.121599
0.178403
0.24394
0.303043
0.342677
0.356161
0.344949
0.317321
0.284812
0.258167
0.24363
0.240195
0.24618
0.260908
0.28309
0.311464
0.344337
0.379747
0.416284
0.453494
0.492046
0.533504
0.579679
0.631799
0.689805
0.751731
0.814864
0.876217
0.932813
0.982003
1.02131
1.05016
1.06927
1.08057
1.08708
1.09239
1.1001
1.11359
1.13527
1.16217
1.18775
1.2036
1.2017
1.17629
1.12495
1.04864
0.951365
0.83998
0.723271
0.608172
0.500316
0.404292
0.322968
0.257781
0.208875
0.174904
0.153286
0.140694
0.133599
0.1275
0.117988
0.101695
0.0767799
0.0431845
0
-0.223056
-0.125112
0.565674
1.84092
3.36744
4.61447
5.11716
4.70913
3.58091
2.14875
0.839545
-0.0766423
-0.536941
-0.621302
-0.454836
-0.293765
-0.137823
0.0101611
0.147788
0.274198
0.388851
0.490584
0.578212
0.651495
0.710607
0.756286
0.789982
0.813885
0.830789
0.843774
0.855778
0.869141
0.885192
0.90435
0.926334
0.950161
0.974544
0.998419
1.02132
1.0436
1.06634
1.09112
1.11961
1.15323
1.19273
1.23836
1.29039
1.34924
1.41573
1.49131
1.5779
1.67744
1.79115
1.91876
2.05801
2.20484
2.35274
2.49405
2.62142
2.72893
2.81282
2.87154
2.90531
2.9154
2.90343
2.87163
2.82125
2.75337
2.66908
2.56948
2.45562
2.32834
2.18851
2.03665
1.87282
1.69729
1.51095
1.31571
1.11467
0.912089
0.713054
0.523086
0.34784
0.192243
0.0595256
-0.048749
-0.132709
-0.19396
-0.235211
-0.259818
-0.271338
-0.273173
-0.268386
-0.259529
-0.248431
-0.2364
-0.224195
-0.212066
-0.199821
-0.186947
-0.17278
-0.156697
-0.138319
-0.117685
-0.0952415
-0.0718002
-0.0486149
-0.0270784
-0.00819054
0.00788
0.0220892
0.0365108
0.0539541
0.0772625
0.108494
0.14826
0.194986
0.24647
0.299861
0.35247
0.402453
0.449161
0.493057
0.535254
0.576888
0.618594
0.660289
0.701378
0.741313
0.780224
0.819328
0.860905
0.9078
0.962588
1.02812
1.10579
1.19111
1.27477
1.34578
1.3937
1.4103
1.39036
1.33204
1.23709
1.11098
0.963511
0.806819
0.653033
0.512387
0.389927
0.285937
0.200747
0.133867
0.083558
0.0474138
0.022894
0.00771073
0
0.000610071
0.00600324
0.0151597
0.0286323
0.0684886
0.255544
0.815956
1.86956
3.23856
4.44484
4.94503
4.45493
3.12657
1.45305
-0.0158328
-0.940463
-1.27976
-1.08007
-0.852992
-0.62246
-0.399478
-0.196311
-0.0196487
0.126049
0.235017
0.303523
0.330954
0.321793
0.287133
0.244206
0.213018
0.210697
0.263191
0.356362
0.455277
0.520855
0.5288
0.481204
0.405406
0.341069
0.321702
0.355792
0.422262
0.499741
0.563991
0.59742
0.596019
0.570802
0.543098
0.535862
0.565116
0.627013
0.709637
0.805919
0.912336
1.02608
1.14562
1.26825
1.38811
1.49689
1.585
1.64392
1.66882
1.65991
1.62239
1.5657
1.50234
1.44556
1.4045
1.39443
1.43867
1.51559
1.58152
1.58626
1.49354
1.29598
1.01692
0.699482
0.389682
0.115595
-0.131928
-0.3585
-0.563348
-0.747054
-0.911409
-1.05859
-1.19044
-1.3079
-1.41062
-1.49632
-1.55411
-1.55267
-1.47519
-1.35821
-1.2608
-1.23829
-1.31433
-1.46739
-1.63937
-1.76218
-1.78975
-1.75179
-1.68899
-1.61289
-1.53458
-1.4632
-1.40431
-1.35929
-1.32572
-1.29863
-1.27198
-1.24011
-1.19948
-1.14874
-1.08722
-1.01483
-0.932445
-0.841974
-0.745734
-0.647633
-0.55286
-0.466293
-0.391566
-0.330437
-0.282748
-0.246981
-0.221733
-0.206054
-0.199134
-0.200502
-0.208745
-0.220202
-0.228401
-0.224632
-0.199533
-0.145136
-0.0617445
0.0485688
0.184047
0.348167
0.540799
0.745372
0.934981
1.08486
1.17752
1.20645
1.17709
1.1047
1.00971
0.911696
0.823091
0.744262
0.670679
0.598415
0.524953
0.448966
0.370776
0.292498
0.217643
0.150218
0.0950638
0.0571199
0.0357189
0.0208495
-0.00116873
-0.0434521
-0.1145
-0.21575
-0.341369
-0.47997
-0.616986
-0.517035
0
0.747432
1.67916
2.71477
3.67551
4.28531
4.28474
3.58922
2.36934
0.986502
-0.176869
-0.887982
-1.13333
-1.01629
-0.882132
-0.731088
-0.562262
-0.381646
-0.201777
-0.0335534
0.116705
0.246857
0.357988
0.451334
0.529879
0.597337
0.65714
0.711836
0.76301
0.811157
0.856328
0.898609
0.938379
0.976386
1.01366
1.05135
1.09049
1.13187
1.17594
1.22284
1.27236
1.32413
1.37768
1.43262
1.48887
1.54682
1.60742
1.67227
1.74339
1.82287
1.91248
2.01307
2.1242
2.24391
2.36871
2.49401
2.61412
2.7229
2.81515
2.88695
2.93597
2.96143
2.96376
2.94415
2.90409
2.84491
2.76797
2.67446
2.56479
2.43862
2.2954
2.13475
1.95707
1.76357
1.5567
1.3404
1.11988
0.901206
0.690448
0.493264
0.314339
0.155083
0.0146037
-0.109574
-0.220478
-0.320699
-0.411765
-0.494045
-0.567138
-0.630629
-0.68449
-0.729142
-0.766169
-0.797263
-0.823363
-0.843867
-0.856253
-0.856301
-0.838906
-0.799288
-0.734688
-0.645545
-0.533708
-0.402284
-0.256718
-0.103866
0.0477602
0.185882
0.297539
0.374459
0.410266
0.403438
0.361972
0.3055
0.261182
0.253674
0.294245
0.368437
0.455703
0.54628
0.633196
0.714297
0.792351
0.873298
0.96341
1.06652
1.18033
1.30063
1.42296
1.54169
1.65142
1.74774
1.82757
1.88779
1.92435
1.93642
1.92326
1.88445
1.82035
1.73278
1.62523
1.50269
1.37107
1.23652
1.10417
0.977612
0.85995
0.75351
0.659749
0.579429
0.512256
0.455952
0.406751
0.360536
0.31372
0.264001
0.210792
0.155197
0.0995523
0.0467096
0
-0.00616722
0.263288
0.781196
1.64197
2.81478
4.06224
4.99784
5.26297
4.71165
3.48718
1.95905
0.56993
-0.333055
-0.618072
-0.371753
-0.133288
0.0944225
0.302634
0.485414
0.647042
0.789858
0.912571
1.01479
1.09671
1.15952
1.20564
1.23876
1.26341
1.28429
1.30552
1.32974
1.35802
1.39038
1.42601
1.46358
1.50164
1.53897
1.57482
1.60896
1.64167
1.67357
1.70549
1.73829
1.7728
1.80978
1.84994
1.89393
1.94243
1.99609
2.05561
2.12168
2.19504
2.27644
2.36661
2.46609
2.57502
2.69286
2.8195
2.95208
3.08293
3.20261
3.30165
3.37217
3.40899
3.40984
3.37502
3.30672
3.20853
3.08745
2.94909
2.79717
2.63471
2.46416
2.28746
2.1057
1.91955
1.73009
1.53892
1.3482
1.16033
0.977735
0.802532
0.636474
0.480973
0.337228
0.206298
0.0890421
-0.0135928
-0.0999373
-0.170099
-0.228021
-0.278528
-0.325871
-0.372264
-0.417041
-0.456803
-0.486496
-0.500918
-0.497459
-0.475206
-0.433724
-0.373795
-0.296994
-0.206795
-0.105616
0.00477715
0.122685
0.246502
0.374679
0.505552
0.637165
0.76693
0.890988
1.00443
1.10273
1.18224
1.24122
1.28038
1.30293
1.31387
1.31877
1.32244
1.32774
1.33509
1.34298
1.34855
1.3488
1.34175
1.32721
1.30699
1.28441
1.26339
1.24731
1.23791
1.23469
1.23606
1.23994
1.24388
1.24553
1.24291
1.23451
1.21921
1.19605
1.16417
1.12268
1.07068
1.00744
0.932681
0.846847
0.751328
0.648539
0.541841
0.435297
0.333514
0.241064
0.161703
0.0979543
0.0507829
0.0195283
0.00210457
-0.00458117
-0.00410042
0
0.00810652
0.000923252
0.140875
0.627916
1.48423
2.52914
3.42239
3.8135
3.50867
2.56135
1.24669
-0.0614825
-1.04957
-1.56885
-1.49881
-1.38342
-1.20994
-0.997264
-0.783742
-0.60977
-0.481068
-0.379857
-0.29373
-0.217406
-0.152164
-0.101271
-0.0703173
-0.0669848
-0.097629
-0.163651
-0.259168
-0.370973
-0.480785
-0.56893
-0.565295
-0.340759
0.00993538
0.343078
0.526506
0.492687
0.271874
-0.0185938
-0.232395
-0.270887
-0.168831
-0.0304415
0.11718
0.266777
0.413865
0.555338
0.689377
0.815156
0.93247
1.0414
1.14203
1.23436
1.31868
1.39569
1.46663
1.53343
1.59849
1.66437
1.7338
1.809
1.88758
1.95826
2.00397
2.00613
1.94976
1.82787
1.64372
1.41009
1.14573
0.870145
0.597657
0.332478
0.0757314
-0.171738
-0.409964
-0.639189
-0.859243
-1.06913
-1.2669
-1.44991
-1.6153
-1.76056
-1.88346
-1.98305
-2.06161
-2.12324
-2.17305
-2.21618
-2.25693
-2.29813
-2.34089
-2.38467
-2.42761
-2.46718
-2.50043
-2.52441
-2.53661
-2.53538
-2.5201
-2.49136
-2.45109
-2.4015
-2.34655
-2.29057
-2.23696
-2.18741
-2.14167
-2.09787
-2.05354
-2.00661
-1.95626
-1.90324
-1.84885
-1.7943
-1.73992
-1.68472
-1.62644
-1.56215
-1.48914
-1.40582
-1.31182
-1.20799
-1.09713
-0.985073
-0.882532
-0.800838
-0.749901
-0.735396
-0.755001
-0.795447
-0.832847
-0.837759
-0.783999
-0.651457
-0.406211
-0.112489
0.143002
0.29259
0.317783
0.252955
0.161673
0.099793
0.0873831
0.0955473
0.104996
0.105365
0.0918804
0.0664976
0.0364776
0.0112558
-0.00107389
0
0.0100869
0.0294921
0.0547896
0.0806877
0.102182
0.115696
0.119748
0.112447
-0.0494946
0.0453335
0.6621
1.8072
3.20891
4.41046
4.97061
4.66452
3.58406
2.09563
0.679984
-0.274708
-0.628711
-0.513218
-0.400762
-0.290039
-0.181703
-0.0765058
0.0248952
0.1197
0.204331
0.274361
0.325929
0.357428
0.370652
0.370871
0.365691
0.363126
0.369185
0.385134
0.410137
0.443392
0.48229
0.523859
0.565613
0.606148
0.645312
0.683926
0.723159
0.763863
0.806193
0.848862
0.889957
0.928093
0.963535
0.998792
1.03833
1.08744
1.15066
1.2303
1.32392
1.42746
1.53689
1.64814
1.75766
1.86305
1.96336
2.05898
2.15134
2.24233
2.33383
2.42725
2.52335
2.62205
2.72162
2.81609
2.89609
2.95058
2.96906
2.94398
2.87233
2.75571
2.59925
2.4101
2.19722
1.97302
1.74593
1.52142
1.30384
1.09651
0.901229
0.717506
0.542699
0.372599
0.202357
0.0241094
-0.168782
-0.365423
-0.544752
-0.684954
-0.771526
-0.800304
-0.775605
-0.70664
-0.605298
-0.485745
-0.364197
-0.251705
-0.154851
-0.0745286
-0.00645757
0.0541256
0.111038
0.168448
0.230635
0.301494
0.38417
0.480764
0.592165
0.718014
0.856796
1.00603
1.16255
1.32278
1.48311
1.64012
1.79083
1.93274
2.06362
2.18143
2.28439
2.37074
2.43879
2.48743
2.51606
2.5248
2.51477
2.48843
2.44972
2.4038
2.35666
2.3143
2.28151
2.26107
2.25605
2.26651
2.28756
2.31063
2.32663
2.32815
2.31114
2.27566
2.22557
2.16721
2.10744
2.05157
2.00136
1.95543
1.91116
1.86538
1.81453
1.7554
1.68578
1.60492
1.51372
1.41456
1.3109
1.2067
1.10558
1.01036
0.922659
0.842728
0.769396
0.700382
0.632763
0.563534
0.490164
0.411034
0.325696
0.234834
0.137723
0
0.109624
0.698509
1.85666
3.38286
4.78875
5.50512
5.18216
3.8885
2.07633
0.34064
-0.868298
-1.4091
-1.39799
-1.1979
-1.00756
-0.840288
-0.70699
-0.614395
-0.550206
-0.506158
-0.479462
-0.466408
-0.462878
-0.46485
-0.468755
-0.471701
-0.471551
-0.46671
-0.456179
-0.439671
-0.41722
-0.389997
-0.361025
-0.333701
-0.310768
-0.293348
-0.280484
-0.269422
-0.25657
-0.238776
-0.214436
-0.184437
-0.15035
-0.113852
-0.0762822
-0.0380887
0.00135527
0.0435094
0.0901336
0.142701
0.20182
0.267374
0.339118
0.416919
0.50117
0.592978
0.693971
0.806439
0.937653
1.09303
1.25401
1.39297
1.48315
1.50924
1.47281
1.38954
1.27992
1.15858
1.02867
0.889011
0.739137
0.577271
0.402588
0.216433
0.0222774
-0.174791
-0.369137
-0.555507
-0.729459
-0.887154
-1.02822
-1.15489
-1.27068
-1.37915
-1.48272
-1.582
-1.67581
-1.76171
-1.83698
-1.90085
-1.9525
-1.99184
-2.02028
-2.03983
-2.05275
-2.06112
-2.0668
-2.07141
-2.07652
-2.08376
-2.0943
-2.10837
-2.1247
-2.14045
-2.15166
-2.15437
-2.14543
-2.12276
-2.08996
-2.05301
-2.0179
-1.98826
-1.96429
-1.94315
-1.92052
-1.89243
-1.85768
-1.81704
-1.77109
-1.72112
-1.66896
-1.61675
-1.56679
-1.52109
-1.48106
-1.44727
-1.41931
-1.39601
-1.37575
-1.35704
-1.33905
-1.32198
-1.30715
-1.2965
-1.29148
-1.29208
-1.29613
-1.29948
-1.29672
-1.28251
-1.25317
-1.20943
-1.153
-1.08564
-1.01321
-0.942955
-0.881893
-0.835867
-0.809023
-0.803809
-0.821239
-0.861106
-0.921927
-0.998936
-1.0878
-1.18264
-1.2766
-1.36276
-1.43549
-1.49012
-1.52448
81
248
412
575
737
898
1054
1205
1356
1506
1657
1813
1970
2129
2289
2443
2605
2767
2935
3097
3260
3423
3594
0
0
0
0
0
0
0
0
0
0
0
0
0
0
0
0
0
0
0
0
0
0
0
0
0
0
0
0
0
0
0
0
0
0
0
0
0
0
0
0
0
0
0
0
0
0
0
0
0
0
0
0
0
0
0
0
0
0
0
0
0
0
0
0
0
0
0
0
0
0
0
0
0
0
0
0
0
0
0
0
0
0
0
0
0
0
0
0
0
0
0
0
0
0
0
0
0
0
0
0
0
0
0
0
0
0
0
0
0
0
0
0
0
0
0
0
0
0
0
0
0
0
0
0
0
0
0
0
0
0
0
0
0
0
0
0
0
0
0
0
0
0
0
0
0
0
0
0
0
0
0
0
0
0
0
0
0
0
0
0
0
0
0
0
0
0
0
0
0
0
0
0
0
0
0
0
0
0
0
0
0
0
0
0
0
0
0
0
0
0
0
0
0
0
0
0
0
0
0
0
0
0
0
0
0
0
0
0
0
0
0
0
0
0
0
0
0
0
0
0
0
0
0
0
0
0
0
0
0
0
0
0
0
0
0
0
0
0
0
0
0
0
0
0
0
0
0
0
0
0
0
0
0
0
0
0
0
0
0
0
0
0
0
0
0
0
0
0
0
0
0
0
0
0
0
0
0
0
0
0
0
0
0
0
0
0
0
0
0
0
0
0
0
0
0
0
0
0
0
0
0
0
0
0
0
0
0
0
0
0
0
0
0
0
0
0
0
0
0
0
0
0
0
0
0
0
0
0
0
0
0
0
0
0
0
0
0
0
0
0
0
0
0
0
0
0
0
0
0
0
0
0
0
0
0
0
0
0
0
0
0
0
0
0
0
0
0
0
0
0
0
0
0
0
0
0
0
0
0
0
0
0
0
0
0
0
0
0
0
0
0
0
0
0
0
0
0
0
0
0
0
0
0
0
0
0
0
0
0
0
0
0
0
0
0
0
0
0
0
0
0
0
0
0
0
0
0
0
0
0
0
0
0
0
0
0
0
0
0
0
0
0
0
0
0
0
0
0
0
0
0
0
0
0
0
0
0
0
0
0
0
0
0
0
0
0
0
0
0
0
0
0
0
0
0
0
0
0
0
0
0
0
0
0
0
0
0
0
0
0
0
0
0
0
0
0
0
0
0
0
0
0
0
0
0
0
0
0
0
0
0
0
0
0
0
0
0
0
0
0
0
0
0
0
0
0
0
0
0
0
0
0
0
0
0
0
0
0
0
0
0
0
0
0
0
0
0
0
0
0
0
0
0
0
0
0
0
0
0
0
0
0
0
0
0
0
0
0
0
0
0
0
0
0
0
0
0
0
0
0
0
0
0
0
0
0
0
0
0
0
0
0
0
0
0
0
0
0
0
0
0
0
0
0
0
0
0
0
0
0
0
0
0
0
0
0
0
0
0
0
0
0
0
0
0
0
0
0
0
0
0
0
0
0
0
0
0
0
0
0
0
0
0
0
0
0
0
0
0
0
0
0
0
0
0
0
0
0
0
0
0
0
0
0
0
0
0
0
0
0
0
0
0
0
0
0
0
0
0
0
0
0
0
0
0
0
0
0
0
0
0
0
0
0
0
0
0
0
0
0
0
0
0
0
0
0
0
0
0
0
0
0
0
0
0
0
0
0
0
0
0
0
0
0
0
0
0
0
0
0
0
0
0
0
0
0
0
0
0
0
0
0
0
0
0
0
0
0
0
0
0
0
0
0
0
0
0
0
0
0
0
0
0
0
0
0
0
0
0
0
0
0
0
0
0
0
0
0
0
0
0
0
0
0
0
0
0
0
0
0
0
0
0
0
0
0
0
0
0
0
0
0
0
0
0
0
0
0
0
0
0
0
0
0
0
0
0
0
0
0
0
0
0
0
0
0
0
0
0
0
0
0
0
0
0
0
0
0
0
0
0
0
0
0
0
0
0
0
0
0
0
0
0
0
0
0
0
0
0
0
0
0
0
0
0
0
0
0
0
0
0
0
0
0
0
0
0
0
0
0
0
0
0
0
0
0
0
0
0
0
0
0
0
0
0
0
0
0
0
0
0
0
0
0
0
0
0
0
0
0
0
0
0
0
0
0
0
0
0
0
0
0
0
0
0
0
0
0
0
0
0
0
0
0
0
0
0
0
0
0
0
0
0
0
0
0
0
0
0
0
0
0
0
0
0
0
0
0
0
0
0
0
0
0
0
0
0
0
0
0
0
0
0
0
0
0
0
0
0
0
0
0
0
0
0
0
0
0
0
0
0
0
0
0
0
0
0
0
0
0
0
0
0
0
0
0
0
0
0
0
0
0
0
0
0
0
0
0
0
0
0
0
0
0
0
0
0
0
0
0
0
0
0
0
0
0
0
0
0
0
0
0
0
0
0
0
0
0
0
0
0
0
0
0
0
0
0
0
0
0
0
0
0
0
0
0
0
0
0
0
0
0
0
0
0
0
0
0
0
0
0
0
0
0
0
0
0
0
0
0
0
0
0
0
0
0
0
0
0
0
0
0
0
0
0
0
0
0
0
0
0
0
0
0
0
0
0
0
0
0
0
0
0
0
0
0
0
0
0
0
0
0
0
0
0
0
0
0
0
0
0
0
0
0
0
0
0
0
0
0
0
0
0
0
0
0
0
0
0
0
0
0
0
0
0
0
0
0
0
0
0
0
0
0
0
0
0
0
0
0
0
0
0
0
0
0
0
0
0
0
0
0
0
0
0
0
0
0
0
0
0
0
0
0
0
0
0
0
0
0
0
0
0
0
0
0
0
0
0
0
0
0
0
0
0
0
0
0
0
0
0
0
0
0
0
0
0
0
0
0
0
0
0
0
0
0
0
0
0
0
0
0
0
0
0
0
0
0
0
0
0
0
0
0
0
0
0
0
0
0
0
0
0
0
0
0
0
0
0
0
0
0
0
0
0
0
0
0
0
0
0
0
0
0
0
0
0
0
0
0
0
0
0
0
0
0
0
0
0
0
0
0
0
0
0
0
0
0
0
0
0
0
0
0
0
0
0
0
0
0
0
0
0
0
0
0
0
0
0
0
0
0
0
0
0
0
0
0
0
0
0
0
0
0
0
0
0
0
0
0
0
0
0
0
0
0
0
0
0
0
0
0
0
0
0
0
0
0
0
0
0
0
0
0
0
0
0
0
0
0
0
0
0
0
0
0
0
0
0
0
0
0
0
0
0
0
0
0
0
0
0
0
0
0
0
0
0
0
0
0
0
0
0
0
0
0
0
0
0
0
0
0
0
0
0
0
0
0
0
0
0
0
0
0
0
0
0
0
0
0
0
0
0
0
0
0
0
0
0
0
0
0
0
0
0
0
0
0
0
0
0
0
0
0
0
0
0
0
0
0
0
0
0
0
0
0
0
0
0
0
0
0
0
0
0
0
0
0
0
0
0
0
0
0
0
0
0
0
0
0
0
0
0
0
0
0
0
0
0
0
0
0
0
0
0
0
0
0
0
0
0
0
0
0
0
0
0
0
0
0
0
0
0
0
0
0
0
0
0
0
0
0
0
0
0
0
0
0
0
0
0
0
0
0
0
0
0
0
0
0
0
0
0
0
0
0
0
0
0
0
0
0
0
0
0
0
0
0
0
0
0
0
0
0
0
0
0
0
0
0
0
0
0
0
0
0
0
0
0
0
0
0
0
0
0
0
0
0
0
0
0
0
0
0
0
0
0
0
0
0
0
0
0
0
0
0
0
0
0
0
0
0
0
0
0
0
0
0
0
0
0
0
0
0
0
0
0
0
0
0
0
0
0
0
0
0
0
0
0
0
0
0
0
0
0
0
0
0
0
0
0
0
0
0
0
0
0
0
0
0
0
0
0
0
0
0
0
0
0
0
0
0
0
0
0
0
0
0
0
0
0
0
0
0
0
0
0
0
0
0
0
0
0
0
0
0
0
0
0
0
0
0
0
0
0
0
0
0
0
0
0
0
0
0
0
0
0
0
0
0
0
0
0
0
0
0
0
0
0
0
0
0
0
0
0
0
0
0
0
0
0
0
0
0
0
0
0
0
0
0
0
0
0
0
0
0
0
0
0
0
0
0
0
0
0
0
0
0
0
0
0
0
0
0
0
0
0
0
0
0
0
0
0
0
0
0
0
0
0
0
0
0
0
0
0
0
0
0
0
0
0
0
0
0
0
0
0
0
0
0
0
0
0
0
0
0
0
0
0
0
0
0
0
0
0
0
0
0
0
0
0
0
0
0
0
0
0
0
0
0
0
0
0
0
0
0
0
0
0
0
0
0
0
0
0
0
0
0
0
0
0
0
0
0
0
0
0
0
0
0
0
0
0
0
0
0
0
0
0
0
0
0
0
0
0
0
0
0
0
0
0
0
0
0
0
0
0
0
0
0
0
0
0
0
0
0
0
0
0
0
0
0
0
0
0
0
0
0
0
0
0
0
0
0
0
0
0
0
0
0
0
0
0
0
0
0
0
0
0
0
0
0
0
0
0
0
0
0
0
0
0
0
0
0
0
0
0
0
0
0
0
0
0
0
0
0
0
0
0
0
0
0
0
0
0
0
0
0
0
0
0
0
0
0
0
0
0
0
0
0
0
0
0
0
0
0
0
0
0
0
0
0
0
0
0
0
0
0
0
0
0
0
0
0
0
0
0
0
0
0
0
0
0
0
0
0
0
0
0
0
0
0
0
0
0
0
0
0
0
0
0
0
0
0
0
0
0
0
0
0
0
0
0
0
0
0
0
0
0
0
0
0
0
0
0
0
0
0
0
0
0
0
0
0
0
0
0
0
0
0
0
0
0
0
0
0
0
0
0
0
0
0
0
0
0
0
0
0
0
0
0
0
0
0
0
0
0
0
0
0
0
0
0
0
0
0
0
0
0
0
0
0
0
0
0
0
0
0
0
0
0
0
0
0
0
0
0
0
0
0
0
0
0
0
0
0
0
0
0
0
0
0
0
0
0
0
0
0
0
0
0
0
0
0
0
0
0
0
0
0
0
0
0
0
0
0
0
0
0
0
0
0
0
0
0
0
0
0
0
0
0
0
0
0
0
0
0
0
0
0
0
0
0
0
0
0
0
0
0
0
0
0
0
0
0
0
0
0
0
0
0
0
0
0
0
0
0
0
0
0
0
0
0
0
0
0
0
0
0
0
0
0
0
0
0
0
0
0
0
0
0
0
0
0
0
0
0
0
0
0
0
0
0
0
0
0
0
0
0
0
0
0
0
0
0
0
0
0
0
0
0
0
0
0
0
0
0
0
0
0
0
0
0
0
0
0
0
0
0
0
0
0
0
0
0
0
0
0
0
0
0
0
0
0
0
0
0
0
0
0
0
0
0
0
0
0
0
0
0
0
0
0
0
0
0
0
0
0
0
0
0
0
0
0
0
0
0
0
0
0
0
0
0
0
0
0
0
0
0
0
0
0
0
0
0
0
0
0
0
0
0
0
0
0
0
0
0
0
0
0
0
0
0
0
0
0
0
0
0
0
0
0
0
0
0
0
0
0
0
0
0
0
0
0
0
0
0
0
0
0
0
0
0
0
0
0
0
0
0
0
0
0
0
0
0
0
0
0
0
0
0
0
0
0
0
0
0
0
0
0
0
0
0
0
0
0
0
0
0
0
0
0
0
0
0
0
0
0
0
0
0
0
0
0
0
0
0
0
0
0
0
0
0
0
0
0
0
0
0
0
0
0
0
0
0
0
0
0
0
0
0
0
0
0
0
0
0
0
0
0
0
0
0
0
0
0
0
0
0
0
0
0
0
0
0
0
0
0
0
0
0
0
0
0
0
0
0
0
0
0
0
0
0
0
0
0
0
0
0
0
0
0
0
0
0
0
0
0
0
0
0
0
0
0
0
0
0
0
0
0
0
0
0
0
0
0
0
0
0
0
0
0
0
0
0
0
0
0
0
0
0
0
0
0
0
0
0
0
0
0
0
0
0
0
0
0
0
0
0
0
0
0
0
0
0
0
0
0
0
0
0
0
0
0
0
0
0
0
0
0
0
0
0
0
0
0
0
0
0
0
0
0
0
0
0
0
0
0
0
0
0
0
0
0
0
0
0
0
0
0
0
0
0
0
0
0
0
0
0
0
0
0
0
0
0
0
0
0
0
0
0
0
0
0
0
0
0
0
0
0
0
0
0
0
0
0
0
0
0
0
0
0
0
0
0
0
0
0
0
0
0
0
0
0
0
0
0
0
0
0
0
0
0
0
0
0
0
0
0
0
0
0
0
0
0
0
0
0
0
0
0
0
0
0
0
0
0
0
0
0
0
0
0
0
0
0
0
0
0
0
0
0
0
0
0
0
0
0
0
0
0
0
0
0
0
0
0
0
0
0
0
0
0
0
0
0
0
0
0
0
0
0
0
0
0
0
0
0
0
0
0
0
0
0
0
0
0
0
0
0
0
0
0
0
0
0
0
0
0
0
0
0
0
0
0
0
0
0
0
0
0
0
0
0
0
0
0
0
0
0
0
0
0
0
0
0
0
0
0
0
0
0
0
0
0
0
0
0
0
0
0
0
0
0
0
0
0
0
0
0
0
0
0
0
0
0
0
0
0
0
0
0
0
0
0
0
0
0
0
0
0
0
0
0
0
0
0
0
0
0
0
0
0
0
0
0
0
0
0
0
0
0
0
0
0
0
0
0
0
0
0
0
0
0
0
0
0
0
0
0
0
0
0
0
0
0
0
0
0
0
0
0
0
0
0
0
0
0
0
0
0
0
0
0
0
0
0
0
0
0
0
0
0
0
0
0
0
0
0
0
0
0
0
0
0
0
0
0
0
0
0
0
0
0
0
0
0
0
0
0
0
0
0
0
0
0
0
0
0
0
0
0
0
0
0
0
0
0
0
0
0
0
0
0
0
0
0
0
0
0
0
0
0
0
0
0
0
0
0
0
0
0
0
0
0
0
0
0
0
0
0
0
0
0
0
0
0
0
0
0
0
0
0
0
0
0
0
0
0
0
0
0
0
0
0
0
0
0
0
0
0
0
0
0
0
0
0
0
0
0
0
0
0
0
0
0
0
0
0
0
0
0
0
0
0
0
0
0
0
0
0
0
0
0
0
0
0
0
0
0
0
0
0
0
0
0
0
0
0
0
0
0
0
0
0
0
0
0
0
0
0
0
0
0
0
0
0
0
0
0
0
0
0
0
0
0
0
0
0
0
0
0
0
0
0
0
0
0
0
0
0
0
0
0
0
0
0
0
0
0
0
0
0
0
0
0
0
0
0
0
0
0
0
0
0
0
0
0
0
0
0
0
0
0
0
0
0
0
0
0
0
0
0
0
0
0
0
0
0
0
0
0
0
0
0
0
0
0
0
0
0
0
0
0
0
0
0
0
0
0
0
0
0
0
0
0
0
0
0
0
0
0
0
0
0
0
0
0
0
0
0
0
0
0
0
0
0
0
0
0
0
0
0
0
0
0
0
0
0
0
0
0
0
0
0
0
0
0
0
0
0
0
0
0
0
0
0
0
0
0
0
0
0
0
0
0
0
0
0
0
0
0
0
0
0
0
0
0
0
0
0
0
0
0
0
0
0
0
0
0
0
0
0
0
0
0
0
0
0
0
0
0
0
0
0
0
0
0
0
0
0
0
0
0
0
0
0
0
0
0
0
0
0
0
0
0
0
0
0
0
0
0
0
0
0
0
0
0
0
0
0
0
0
0
0
0
0
0
0
0
0
0
0
0
0
0
0
0
0
0
0
0
0
0
0
0
0
0
0
0
0
0
0
0
0
0
0
0
0
0
0
0
0
0
0
0
0
0
0
0
0
0
0
0
0
0
0
0
0
0
0
0
0
0
0
0
0
0
0
0
0
0
0
0
0
0
0
0
0
0
0
0
0
0
0
0
0
0
0
0
0
0
0
0
0
0
0
0
0
0
0
0
0
0
0
0
0
0
0
0
0
0
0
0
0
0
0
0
0
0
0
0
0
0
0
0
0
0
0
0
0
0
0
0
0
0
0
0
0
0
0
0
0
0
0
0
0
0
0
0
0
0
0
0
0
0
0
0
0
0
0
0
0
0
0
0
0
0
0
0
0
0
0
0
0
0
0
0
0
0
0
0
0
0
0
0
0
0
0
0
0
0
0
0
0
0
0
0
0
0
0
0
0
0
0
0
0
0
0
0
0
0
0
0
0
0
0
0
0
0
0
0
0
0
0
0
0
0
0
0
0
0
0
0
0
0
0
0
0
0
0
0
0
0
0
0
0
0
0
0
0
0
0
0
0
0
0
0
0
0
0
0
0
0
0
0
0
0
0
0
0
0
0
0
0
0
0
0
0
0
0
0
0
0
0
0
0
0
0
0
0
0
0
0
0
0
0
0
0
0
0
0
0
0
0
0
0
0
0
0
0
0
0
0
0
0
0
0
0
0
0
0
0
0
0
0
0
0
0
0
0
0
0
0
0
0
0
0
0
0
