0.439371
0.522632
0.599008
0.663164
0.711268
0.741433
0.75377
0.750045
0.733029
0.705742
0.670845
0.630603
0.587
0.541891
0.497506
0.456915
0.423918
0.404555
0.414392
0.46488
0.53812
0.603575
0.631808
0.609527
0.547038
0.473824
0.425105
0.426951
0.473082
0.542639
0.627722
0.722668
0.818935
0.905197
0.971382
1.00993
1.01684
0.992469
0.941505
0.871912
0.792834
0.712223
0.634886
0.561655
0.491933
0.425344
0.361761
0.301452
0.245151
0.193888
0.148638
0.110044
0.0783385
0.0530899
0.0329034
0.0158952
0
-0.00869763
-0.0210177
-0.0984444
0.0124911
0.569132
1.63869
3.02039
4.26184
4.84709
4.47244
3.23298
1.58303
0.0908329
-0.84521
-1.14103
-0.903355
-0.626618
-0.350886
-0.0896152
0.14492
0.352239
0.539604
0.7094
0.858425
0.985189
1.08962
1.17324
1.23897
1.29063
1.33203
1.36478
1.38789
1.39834
1.39045
1.35923
1.30397
1.23049
1.15057
1.07878
1.02778
1.00181
0.998622
1.01395
1.04129
1.07433
1.10876
1.14327
1.1787
1.21732
1.26212
1.3155
1.37922
1.45474
1.5427
1.64269
1.75323
1.87186
1.99531
2.11994
2.2421
2.35859
2.46685
2.56501
2.65231
2.72875
2.79476
2.8508
2.89697
2.93125
2.94961
2.948
2.92142
2.86515
2.77623
2.6546
2.50355
2.32929
2.13971
1.94328
1.74663
1.55387
1.36782
1.19018
1.02193
0.863729
0.716212
0.580106
0.456107
0.344979
0.24745
0.162553
0.0881644
0.021934
-0.0379525
-0.0921618
-0.140042
-0.180003
-0.210332
-0.228888
-0.23589
-0.234024
-0.227102
-0.218828
-0.211765
-0.206956
-0.204294
-0.203282
-0.203694
-0.205654
-0.209366
-0.214462
-0.219576
-0.22236
-0.219964
-0.209764
-0.190301
-0.162422
-0.127032
-0.0853757
-0.0389794
0.00914631
0.0541852
0.0907863
0.114055
0.120736
0.110321
0.0856504
0.0527104
0.0196041
-0.00505004
-0.0150878
-0.00825706
0.015354
0.0553102
0.109739
0.175619
0.249329
0.327084
0.405499
0.481556
0.552527
0.61573
0.667925
0.704769
0.722065
0.71648
0.685908
0.630511
0.553444
0.460872
0.361091
0.262939
0.173982
0.0975809
0.0351947
-0.0133556
-0.0494666
-0.0748258
-0.0907171
-0.0977861
-0.0962791
-0.0865642
-0.069909
-0.0482894
-0.0240499
0.000193548
0.0220273
0.0396403
0.0500051
0
0.10754
0.616566
1.57362
2.7833
3.83425
4.27987
3.8778
2.73276
1.2397
-0.130557
-1.05464
-1.45325
-1.27287
-1.05514
-0.80298
-0.523692
-0.237401
0.0268617
0.235953
0.360443
0.385784
0.322532
0.208919
0.101367
0.0544192
0.0978465
0.194464
0.311377
0.432461
0.542395
0.630142
0.691127
0.727458
0.746159
0.756132
0.765018
0.776857
0.791597
0.808009
0.824606
0.840234
0.854721
0.869165
0.885849
0.907844
0.938448
0.980443
1.03581
1.10563
1.19008
1.28846
1.39918
1.51973
1.64681
1.77647
1.90415
2.02499
2.13492
2.23128
2.3134
2.38263
2.44202
2.49551
2.54643
2.59745
2.64753
2.68972
2.71285
2.70464
2.65506
2.55885
2.41671
2.23492
2.02369
1.79495
1.56105
1.32993
1.10569
0.891757
0.690956
0.5053
0.336044
0.183723
0.0482345
-0.0710446
-0.175087
-0.265053
-0.34211
-0.407259
-0.461226
-0.504437
-0.537077
-0.559262
-0.571165
-0.573204
-0.566225
-0.551564
-0.530966
-0.506336
-0.479381
-0.451235
-0.422209
-0.391755
-0.358711
-0.321579
-0.278348
-0.227989
-0.17501
-0.127919
-0.0951238
-0.0806966
-0.0813727
-0.0865531
-0.0817553
-0.0542735
0.00140963
0.0802315
0.169893
0.25421
0.318366
0.352981
0.355678
0.330209
0.2843
0.227539
0.170102
0.1191
0.0795517
0.0557631
0.0507779
0.0650162
0.0967028
0.14382
0.203287
0.271347
0.344043
0.417724
0.489212
0.555345
0.612148
0.655569
0.682094
0.688288
0.671443
0.630357
0.56591
0.481189
0.381155
0.272009
0.160716
0.053161
-0.0448901
-0.128064
-0.191852
-0.233145
-0.250457
-0.244355
-0.217772
-0.176019
-0.12574
-0.0758649
-0.0348115
-0.00870924
0
-0.00470057
-0.023082
-0.078208
0.221917
0.904945
1.89587
3.01414
3.99923
4.56888
4.51965
3.82405
2.65688
1.32514
0.146547
-0.647156
-0.939054
-0.54216
-0.140887
0.24416
0.577196
0.82049
0.977409
1.04869
1.05378
1.02602
1.00307
1.01538
1.07025
1.15617
1.26073
1.36414
1.44713
1.49701
1.51128
1.49738
1.46917
1.44146
1.42503
1.42049
1.42436
1.43447
1.44823
1.46368
1.48029
1.49916
1.52281
1.55454
1.59757
1.65389
1.72353
1.80554
1.89828
1.99922
2.10521
2.2128
2.31861
2.41951
2.51316
2.59826
2.67462
2.74322
2.80597
2.86532
2.92373
2.98325
3.04491
3.10794
3.16834
3.21772
3.24576
3.242
3.19834
3.11093
2.98096
2.81379
2.61692
2.39772
2.16391
1.92288
1.67902
1.43598
1.19788
0.969121
0.75442
0.55801
0.381786
0.22619
0.0907588
-0.0251503
-0.121859
-0.198804
-0.246922
-0.260498
-0.252959
-0.24471
-0.255746
-0.296474
-0.362376
-0.43611
-0.496278
-0.528155
-0.535711
-0.528495
-0.517013
-0.511107
-0.516337
-0.532448
-0.554286
-0.574518
-0.586825
-0.589763
-0.583827
-0.570469
-0.551037
-0.525254
-0.490451
-0.441995
-0.374878
-0.2859
-0.17169
-0.0365956
0.104051
0.232194
0.332333
0.395452
0.420372
0.412708
0.382571
0.34221
0.304009
0.276681
0.266035
0.276234
0.30963
0.366551
0.445954
0.546466
0.665608
0.800889
0.951113
1.11149
1.26779
1.40223
1.49819
1.54435
1.53818
1.48655
1.40305
1.30309
1.19932
1.09858
1.00207
0.909637
0.821312
0.737363
0.658185
0.584278
0.516206
0.4545
0.399535
0.351386
0.309785
0.273985
0.242422
0.212824
0.182665
0.149591
0.111851
0.0682611
0
-0.00388131
0.386178
1.29491
2.59725
3.886
4.632
4.46674
3.405
1.8465
0.354115
-0.640137
-1.01316
-0.885488
-0.682225
-0.47335
-0.262416
-0.0554218
0.138524
0.315531
0.471937
0.602666
0.705653
0.782423
0.837664
0.877923
0.909898
0.938934
0.96815
0.998484
1.02993
1.06197
1.094
1.12548
1.15612
1.18581
1.2146
1.24269
1.27059
1.29917
1.32983
1.36446
1.40523
1.45416
1.51261
1.58086
1.65793
1.74199
1.83059
1.92148
2.0132
2.10526
2.19798
2.29192
2.38728
2.48349
2.57919
2.67253
2.76156
2.84465
2.92055
2.98744
3.04382
3.08854
3.12006
3.13653
3.13606
3.11693
3.0777
3.01728
2.93505
2.83263
2.71246
2.57574
2.4243
2.26038
2.08648
1.90551
1.71999
1.53241
1.34535
1.16165
0.984316
0.816451
0.660986
0.52034
0.396043
0.288696
0.198176
0.122469
0.0577052
-0.000405788
-0.0556794
-0.110636
-0.16596
-0.220373
-0.270945
-0.313758
-0.345291
-0.362826
-0.360771
-0.330224
-0.274983
-0.214654
-0.171476
-0.161456
-0.186849
-0.234262
-0.280305
-0.302469
-0.289592
-0.254058
-0.20939
-0.164101
-0.125612
-0.0984831
-0.0836081
-0.0784221
-0.077877
-0.0758233
-0.0671549
-0.0483423
-0.0132939
0.0416894
0.10632
0.165024
0.203252
0.213856
0.201162
0.180479
0.172731
0.196294
0.25961
0.348159
0.448176
0.551495
0.649402
0.734719
0.80279
0.851715
0.881802
0.894489
0.891113
0.871357
0.834069
0.777198
0.699081
0.60002
0.48358
0.357096
0.231129
0.119168
0.0617822
0.120422
0.258536
0.396751
0.452415
0.382244
0.206494
0
-0.145331
-0.177264
-0.130755
-0.0620918
0.0140924
0.0883455
0.12997
-0.0156962
0.310442
1.25762
2.64119
3.99191
4.75949
4.57615
3.44575
1.75635
0.102035
-1.00573
-1.37444
-1.15069
-0.94093
-0.789013
-0.704607
-0.626372
-0.5013
-0.335146
-0.133557
0.0791598
0.269358
0.40894
0.502378
0.557564
0.589563
0.617018
0.655384
0.711572
0.778955
0.851667
0.923554
0.987947
1.03969
1.07617
1.09768
1.10731
1.11023
1.11272
1.12107
1.14063
1.17435
1.22265
1.28534
1.36228
1.45295
1.55639
1.67116
1.79535
1.9265
2.06183
2.19834
2.33331
2.46462
2.59102
2.71204
2.82775
2.93832
3.04331
3.14132
3.2305
3.30863
3.37355
3.42355
3.45748
3.47446
3.47342
3.45201
3.40763
3.33731
3.23853
3.11018
2.95331
2.77128
2.56937
2.35398
2.13237
1.91019
1.69203
1.48192
1.28345
1.09998
0.934672
0.790495
0.669855
0.574746
0.508416
0.47393
0.468597
0.482613
0.504484
0.523115
0.529745
0.519197
0.490237
0.445129
0.388696
0.327301
0.267564
0.214851
0.173124
0.146051
0.136225
0.144704
0.170679
0.211361
0.262468
0.318116
0.372176
0.41934
0.456027
0.48086
0.49464
0.499865
0.499971
0.49855
0.498407
0.501216
0.507857
0.518345
0.531314
0.544742
0.55645
0.564614
0.568163
0.566992
0.561993
0.554946
0.548318
0.544787
0.547125
0.557793
0.578515
0.609885
0.651106
0.699963
0.753054
0.806224
0.855111
0.895831
0.924832
0.939158
0.936368
0.914832
0.873776
0.813548
0.735936
0.644397
0.544055
0.441373
0.343501
0.257341
0.188599
0.142306
0.121722
0.128088
0.161391
0.21942
0.290643
0.353153
0.384903
0.367818
0.292943
0.164508
0
-0.353809
-0.323585
0.347461
1.61499
3.11292
4.29377
4.68693
4.12285
2.79496
1.14353
-0.349382
-1.3413
-1.71867
-1.44572
-1.13819
-0.817392
-0.531598
-0.31508
-0.157615
-0.027157
0.0877969
0.189692
0.279749
0.360174
0.433873
0.503535
0.57113
0.636559
0.69453
0.735914
0.752204
0.740736
0.708224
0.670671
0.649173
0.662982
0.719679
0.806928
0.913845
1.03166
1.15043
1.26119
1.35757
1.43672
1.49937
1.54914
1.59146
1.63248
1.67785
1.73195
1.79831
1.87957
1.97731
2.09188
2.22233
2.36646
2.52097
2.68191
2.84513
3.0069
3.16419
3.3147
3.45627
3.58594
3.69874
3.78809
3.84577
3.86209
3.82962
3.7468
3.61965
3.46019
3.28215
3.09605
2.90689
2.71552
2.52163
2.32497
2.1264
1.92809
1.73329
1.54559
1.36798
1.20241
1.04937
0.908006
0.776617
0.653373
0.537004
0.427292
0.325385
0.233453
0.154089
0.0898381
0.0426685
0.0136661
0.00298004
0.00996494
0.0333863
0.0715547
0.125146
0.195262
0.275918
0.354016
0.414312
0.442918
0.43099
0.377001
0.28699
0.173422
0.0535493
-0.0542057
-0.133458
-0.170003
-0.155754
-0.0877445
0.0312321
0.17058
0.294873
0.375943
0.401749
0.378267
0.324356
0.262725
0.211341
0.174323
0.147791
0.129039
0.116801
0.110309
0.109919
0.11739
0.135739
0.171248
0.247112
0.408962
0.641368
0.877683
1.04206
1.08207
0.991353
0.813266
0.623489
0.495712
0.462413
0.468555
0.478961
0.475116
0.445487
0.388859
0.313685
0.233951
0.16368
0.111155
0.0733364
0.0479452
0.0340982
0.0301416
0.0339873
0.0436194
0.0564546
0.0700895
0.0825988
0.0928186
0.0961768
0
0.251102
1.04509
2.32995
3.75464
4.77877
4.92548
4.04822
2.44447
0.722729
-0.51455
-0.973041
-0.765835
-0.577335
-0.40875
-0.273495
-0.175428
-0.101321
-0.0423084
0.00408258
0.0406904
0.0687487
0.0888
0.101915
0.110453
0.117892
0.127785
0.142341
0.161594
0.182637
0.200863
0.211707
0.21232
0.202474
0.184435
0.162046
0.139597
0.120612
0.106959
0.100546
0.103114
0.116108
0.140575
0.176999
0.224847
0.282994
0.350098
0.424606
0.50509
0.590615
0.680969
0.776736
0.879145
0.989711
1.10974
1.23978
1.37922
1.52605
1.67699
1.82748
1.97205
2.10453
2.21784
2.30579
2.36479
2.39272
2.38879
2.35347
2.28823
2.19538
2.07769
1.9381
1.7804
1.60889
1.42674
1.2363
1.03987
0.840148
0.640311
0.443987
0.255132
0.0777434
-0.0845524
-0.228765
-0.351741
-0.451284
-0.530103
-0.593272
-0.646625
-0.695313
-0.742567
-0.789035
-0.832849
-0.870341
-0.897109
-0.910603
-0.909783
-0.892007
-0.853672
-0.792232
-0.715031
-0.64085
-0.590082
-0.578674
-0.611843
-0.680031
-0.759384
-0.817656
-0.824176
-0.766122
-0.6622
-0.50898
-0.323013
-0.138819
0.0109956
0.104548
0.135515
0.113271
0.0589652
-0.00105286
-0.0425871
-0.0527672
-0.0348043
0.00385695
0.0578498
0.123599
0.197741
0.276838
0.357234
0.43427
0.503536
0.561601
0.606782
0.639756
0.663696
0.683711
0.705678
0.734757
0.77363
0.821424
0.876551
0.935248
0.991278
1.0379
1.06916
1.08087
1.07103
1.03993
0.989779
0.924224
0.847785
0.76579
0.682703
0.601858
0.525778
0.456227
0.39411
0.339512
0.291862
0.250164
0.213229
0.179867
0.148996
0.119683
0.0911349
0.0625838
0
0.170253
0.822937
2.00021
3.43085
4.62558
5.12563
4.74202
3.6371
2.21529
0.910147
0.00049448
-0.455346
-0.538966
-0.363402
-0.184848
-0.00684624
0.166682
0.330723
0.481281
0.616515
0.734209
0.832755
0.912035
0.973444
1.01968
1.05436
1.0815
1.10503
1.12831
1.15387
1.18311
1.21657
1.25406
1.29463
1.33605
1.37483
1.40715
1.42983
1.44137
1.4427
1.43746
1.43146
1.43155
1.44406
1.47259
1.51724
1.5767
1.64954
1.73394
1.82839
1.93186
2.04429
2.16599
2.29697
2.4364
2.58225
2.73114
2.87725
3.01348
3.13299
3.23009
3.3008
3.34303
3.35638
3.34168
3.30051
3.23476
3.14651
3.03741
2.90852
2.76088
2.59598
2.41542
2.2204
2.0124
1.79383
1.56805
1.33921
1.1119
0.890661
0.679539
0.481697
0.299251
0.133307
-0.0158448
-0.148484
-0.265271
-0.366976
-0.454064
-0.527846
-0.590806
-0.645606
-0.694567
-0.739128
-0.77947
-0.814522
-0.842363
-0.860926
-0.869197
-0.867399
-0.8564
-0.838179
-0.815511
-0.791696
-0.769949
-0.752642
-0.740924
-0.73456
-0.731998
-0.730654
-0.727311
-0.718564
-0.701227
-0.673269
-0.633553
-0.579555
-0.505507
-0.405676
-0.291596
-0.186478
-0.115609
-0.0966543
-0.131219
-0.202492
-0.28086
-0.335175
-0.344375
-0.317822
-0.271526
-0.213779
-0.149356
-0.0822424
-0.0153391
0.0499174
0.113568
0.176855
0.241744
0.310341
0.384418
0.465125
0.552624
0.645725
0.740409
0.828189
0.898953
0.943172
0.953905
0.928307
0.867985
0.777976
0.664779
0.534535
0.393508
0.247865
0.102517
-0.0328634
-0.144932
-0.218801
-0.242145
-0.209626
-0.125807
0
0.139741
0.263991
0.34531
0.366923
0.32608
0.233934
0.112393
-0.0702597
0.108055
0.807709
1.99252
3.34873
4.37635
4.63589
4.00004
2.72656
1.29661
0.146628
-0.51723
-0.72262
-0.518847
-0.313072
-0.114549
0.0690691
0.23194
0.374279
0.500229
0.612796
0.716336
0.815223
0.912775
1.00973
1.09985
1.17262
1.21864
1.23492
1.22767
1.21141
1.20472
1.2244
1.27594
1.35175
1.44417
1.54878
1.65801
1.76408
1.86106
1.94601
2.01929
2.08397
2.14457
2.20555
2.27004
2.33885
2.41129
2.48629
2.56274
2.64008
2.71861
2.79956
2.8848
2.97632
3.07562
3.18312
3.29772
3.41712
3.53658
3.64873
3.74571
3.82066
3.86879
3.88791
3.87817
3.84126
3.77942
3.69464
3.59052
3.47005
3.33463
3.18543
3.02421
2.85349
2.67649
2.49678
2.318
2.14359
1.97641
1.8186
1.67148
1.5357
1.41134
1.29804
1.19502
1.10104
1.01438
0.932428
0.851407
0.7672
0.676158
0.571891
0.451825
0.328498
0.221155
0.148973
0.124153
0.148024
0.211529
0.299168
0.394025
0.482217
0.558656
0.620978
0.66649
0.693903
0.703329
0.696273
0.675527
0.644934
0.609013
0.572551
0.540186
0.515587
0.501299
0.499846
0.513044
0.541968
0.588783
0.653844
0.73168
0.810681
0.877909
0.922272
0.937003
0.921043
0.879054
0.820178
0.755946
0.697893
0.653992
0.626891
0.616227
0.621024
0.64051
0.673988
0.72063
0.779582
0.850273
0.932766
1.02802
1.13842
1.2681
1.4182
1.5738
1.7071
1.78504
1.77805
1.67107
1.47202
1.2133
0.945739
0.726429
0.578694
0.482205
0.424684
0.416849
0.456915
0.523493
0.592297
0.641753
0.656961
0.630994
0.563789
0.459779
0.325612
0.168997
0
-0.233374
-0.238152
0.312408
1.51126
3.09314
4.50608
5.18862
4.87158
3.70677
2.15229
0.711737
-0.295984
-0.810074
-0.925215
-0.651372
-0.381531
-0.1245
0.107885
0.30387
0.462132
0.586189
0.679352
0.748692
0.803149
0.851263
0.89936
0.950262
1.00453
1.06223
1.12337
1.18841
1.25841
1.33599
1.42748
1.53939
1.65849
1.7613
1.82357
1.83276
1.79636
1.74023
1.69713
1.69206
1.73106
1.79265
1.86525
1.94497
2.0297
2.11898
2.21371
2.31551
2.4258
2.5449
2.67171
2.80392
2.9382
3.07074
3.19787
3.31602
3.42096
3.50999
3.58287
3.64085
3.68678
3.72504
3.76096
3.7996
3.84687
3.90119
3.94359
3.94396
3.87081
3.70321
3.44008
3.10299
2.73135
2.37125
2.05161
1.76812
1.52157
1.31467
1.14637
1.01076
0.899876
0.805093
0.718436
0.633501
0.5459
0.453279
0.355007
0.251806
0.145306
0.0373899
-0.0697803
-0.173832
-0.272225
-0.362313
-0.441474
-0.507322
-0.557866
-0.591217
-0.606035
-0.602913
-0.585397
-0.560034
-0.534813
-0.516844
-0.510731
-0.517415
-0.533809
-0.553361
-0.567464
-0.567361
-0.546586
-0.504031
-0.44221
-0.363722
-0.270999
-0.166641
-0.0562037
0.0494677
0.138685
0.201336
0.230877
0.225958
0.190975
0.135271
0.071299
0.0123848
-0.0320341
-0.0589237
-0.0654284
-0.049666
-0.0119968
0.0451958
0.118077
0.202168
0.293188
0.387488
0.482581
0.576845
0.668636
0.75555
0.83414
0.900327
0.949718
0.978604
0.984868
0.968482
0.931433
0.877216
0.810152
0.735109
0.656738
0.578618
0.503526
0.433773
0.371206
0.317102
0.271832
0.23478
0.204535
0.179168
0.156575
0.134832
0.112478
0.0886826
0.0632732
0.0366316
0.00941906
0
0.204206
0.757937
1.71893
2.95588
4.12035
4.76325
4.56161
3.51499
1.96933
0.442944
-0.633331
-1.09898
-1.05492
-0.903957
-0.754906
-0.611427
-0.474458
-0.344004
-0.219508
-0.101764
0.00736542
0.105685
0.191784
0.264954
0.324353
0.369565
0.400321
0.416557
0.418961
0.40862
0.387215
0.357208
0.321913
0.285397
0.252187
0.226875
0.213599
0.215521
0.235044
0.273386
0.33043
0.404327
0.491769
0.588787
0.6909
0.793424
0.892069
0.983639
1.06645
1.14043
1.20686
1.26783
1.32552
1.38162
1.43692
1.49134
1.54423
1.59496
1.64356
1.69113
1.7402
1.79875
1.89978
2.1167
2.42032
2.71399
2.90334
2.92915
2.78137
2.49558
2.13674
1.77563
1.46336
1.18631
0.921592
0.662653
0.408736
0.161487
-0.0761807
-0.300755
-0.508705
-0.696725
-0.860957
-0.999565
-1.11499
-1.21075
-1.28998
-1.35402
-1.40157
-1.42947
-1.43393
-1.41253
-1.36218
-1.28356
-1.19209
-1.10601
-1.04022
-1.00131
-0.985821
-0.982262
-0.975775
-0.953272
-0.909206
-0.847129
-0.770651
-0.68174
-0.582328
-0.474533
-0.360727
-0.243613
-0.127079
-0.0169691
0.080385
0.159372
0.21647
0.251206
0.266314
0.267021
0.259733
0.250572
0.244034
0.242285
0.246107
0.255632
0.270499
0.290048
0.313433
0.339632
0.367397
0.394923
0.420158
0.441389
0.457862
0.470325
0.481223
0.494399
0.514302
0.544866
0.588308
0.645957
0.716427
0.790364
0.855488
0.900093
0.915788
0.898964
0.850666
0.775273
0.67886
0.568078
0.451026
0.334205
0.224849
0.130569
0.0582879
0.0126294
-0.00557744
0
0.0156046
0.0374846
0.0558995
0.0642334
0.0607306
0.0452106
0.0199599
-0.0119964
-0.0479306
0.0839656
0.441576
1.04994
1.89275
2.80867
3.49309
3.62825
3.07377
1.97602
0.706222
-0.33526
-0.911358
-0.997383
-0.813987
-0.642833
-0.487662
-0.354763
-0.24719
-0.158944
-0.0848496
-0.0224295
0.0307972
0.076731
0.116586
0.150839
0.179373
0.20196
0.218762
0.230762
0.239903
0.248889
0.260664
0.277728
0.301491
0.331824
0.36699
0.404451
0.441201
0.474573
0.502885
0.525819
0.544455
0.560994
0.578314
0.599509
0.627521
0.664847
0.713618
0.775962
0.853719
0.948175
1.05964
1.18696
1.32781
1.47908
1.63169
1.77297
1.89192
1.98253
2.04601
2.09101
2.13172
2.18445
2.29052
2.49234
2.7398
2.95211
3.05914
3.03093
2.88484
2.6702
2.43822
2.21324
1.98653
1.7527
1.51371
1.27195
1.03071
0.794647
0.569045
0.358973
0.168367
-0.000355244
-0.146321
-0.269897
-0.372219
-0.454772
-0.519109
-0.566649
-0.599099
-0.618704
-0.628484
-0.632843
-0.637929
-0.650009
-0.673873
-0.711608
-0.761816
-0.819635
-0.877675
-0.927689
-0.962483
-0.978917
-0.976038
-0.954831
-0.917868
-0.868278
-0.809434
-0.744253
-0.673538
-0.598893
-0.527134
-0.469115
-0.435956
-0.43359
-0.458064
-0.494819
-0.523167
-0.524226
-0.488351
-0.427024
-0.353477
-0.274561
-0.196292
-0.123672
-0.0601599
-0.00831471
0.0312654
0.0593887
0.0776003
0.0878489
0.0922731
0.0930546
0.092308
0.0920048
0.0939461
0.0996925
0.110691
0.128129
0.152701
0.184274
0.2221
0.263785
0.305015
0.341364
0.36978
0.389924
0.404816
0.420527
0.448227
0.521812
0.688162
0.909388
1.11542
1.23724
1.23167
1.09221
0.847049
0.550337
0.272334
0.086208
-0.0133753
-0.064119
-0.0831709
-0.0748703
-0.0451426
0
0.0524349
0.112365
0.178417
0.250806
0.329858
0.415365
0.506099
0.600108
0.695519
0.789237
0.758328
1.0305
1.76611
2.82571
3.79466
4.19159
3.75548
2.61573
1.21839
0.0597939
-0.583818
-0.701541
-0.639339
-0.56866
-0.490257
-0.406289
-0.32035
-0.2365
-0.15744
-0.0845865
-0.0176699
0.0452059
0.106083
0.166634
0.22797
0.290294
0.352897
0.414472
0.473553
0.529087
0.580829
0.629463
0.676395
0.723285
0.771467
0.821451
0.872715
0.923666
0.972102
1.0158
1.05308
1.08326
1.10676
1.12518
1.14113
1.1581
1.18019
1.21188
1.25762
1.32125
1.40532
1.5106
1.63494
1.77462
1.92493
2.08029
2.23494
2.38357
2.52173
2.64615
2.7547
2.84603
2.91894
2.97188
3.00324
3.01167
2.99538
2.95239
2.88091
2.77985
2.64913
2.49006
2.30554
2.10066
1.88253
1.65825
1.43492
1.21963
1.01862
0.836984
0.678576
0.544077
0.429733
0.329723
0.237634
0.147996
0.0574736
-0.0345564
-0.126091
-0.21313
-0.290902
-0.35464
-0.399654
-0.423072
-0.42397
-0.403692
-0.360946
-0.301548
-0.237991
-0.182734
-0.144886
-0.127835
-0.128861
-0.140867
-0.155322
-0.164975
-0.166688
-0.160505
-0.145434
-0.120517
-0.084886
-0.0379999
0.0199064
0.0873569
0.161956
0.239033
0.312491
0.376331
0.42583
0.45843
0.474097
0.475104
0.465304
0.449172
0.430879
0.413433
0.398584
0.387252
0.380001
0.377621
0.381549
0.393923
0.417175
0.45327
0.502855
0.56437
0.634935
0.709345
0.781509
0.845504
0.896432
0.930864
0.946843
0.943587
0.921147
0.880538
0.822963
0.750294
0.665187
0.571115
0.472279
0.373391
0.278956
0.193898
0.122194
0.0666351
0.0283047
0.00692596
0
0.00437317
0.0113808
0.0149876
0.0107136
-0.00356712
-0.0274109
-0.0581398
-0.0933826
-0.078553
0.171663
0.749791
1.70958
2.92423
4.05509
4.66411
4.42669
3.31658
1.64112
-0.0997303
-1.43756
-2.11226
-2.03321
-1.61892
-1.01173
-0.430013
-0.0328659
0.058276
0.0757217
0.0875263
0.102211
0.12495
0.158962
0.205666
0.264832
0.329842
0.389831
0.434159
0.4554
0.451303
0.425125
0.384418
0.338908
0.298428
0.270161
0.256414
0.258929
0.279706
0.319126
0.377036
0.45243
0.537281
0.622295
0.699266
0.76321
0.813477
0.853504
0.889479
0.92855
0.976446
1.03539
1.10711
1.19247
1.29073
1.39959
1.51552
1.63341
1.74751
1.85238
1.94368
2.01872
2.07651
2.11752
2.14298
2.15411
2.15185
2.13546
2.1021
2.04826
1.96982
1.86303
1.72561
1.55772
1.36255
1.14625
0.917283
0.685241
0.458941
0.245596
0.0504322
-0.123667
-0.276027
-0.407705
-0.520859
-0.618136
-0.702234
-0.775685
-0.84075
-0.899534
-0.954263
-1.00698
-1.05922
-1.1117
-1.1641
-1.21512
-1.26272
-1.30464
-1.33883
-1.36376
-1.37839
-1.38196
-1.37368
-1.35261
-1.31792
-1.26799
-1.19705
-1.10416
-1.0037
-0.914395
-0.852695
-0.826199
-0.830383
-0.850401
-0.867104
-0.864365
-0.836859
-0.792686
-0.738378
-0.678041
-0.615351
-0.5536
-0.495436
-0.442853
-0.397279
-0.359598
-0.330157
-0.308836
-0.294895
-0.286813
-0.282213
-0.277997
-0.270735
-0.257265
-0.235425
-0.203819
-0.162445
-0.115508
-0.0686291
-0.0271591
0.00549431
0.0289547
0.0460499
0.0620804
0.0835102
0.116377
0.16333
0.226579
0.312527
0.433444
0.599676
0.790212
0.966076
1.08558
1.118
1.05601
0.919274
0.746054
0.577349
0.442388
0.339284
0.255653
0.185282
0.126276
0.0785414
0.0419855
0.0162178
0.000481415
-0.0066782
-0.00745506
-0.00439472
0
0.0201355
0.0383165
0.0541246
0.0650795
0.108296
0.415733
1.17389
2.41891
3.8948
5.08727
5.46672
4.80386
3.33517
1.64073
0.309985
-0.365616
-0.46576
-0.216044
0.0429331
0.305003
0.563334
0.80604
1.02592
1.22135
1.38718
1.52014
1.61999
1.68953
1.73398
1.75999
1.77439
1.783
1.78997
1.79761
1.80688
1.81853
1.83379
1.85467
1.88377
1.92401
1.98068
2.05673
2.14384
2.22618
2.287
2.31485
2.30838
2.2779
2.24305
2.22742
2.2519
2.31875
2.41757
2.54724
2.71239
2.9024
3.08865
3.24355
3.34843
3.39982
3.41152
3.41064
3.42799
3.48657
3.58927
3.71597
3.85494
3.99597
4.12801
4.23795
4.31501
4.35114
4.33986
4.2771
4.16292
4.0027
3.80668
3.58737
3.35612
3.12115
2.8858
2.6514
2.41911
2.19064
1.96849
1.75582
1.55605
1.37216
1.20601
1.05803
0.927345
0.812112
0.710111
0.619279
0.538055
0.465464
0.400936
0.344122
0.294592
0.251667
0.214395
0.181681
0.152501
0.126123
0.102262
0.0810951
0.0631406
0.049069
0.0395989
0.0350417
0.0351053
0.0393346
0.0475165
0.0600583
0.0781418
0.103528
0.138025
0.183994
0.243014
0.31283
0.385222
0.448848
0.492662
0.508934
0.495555
0.456976
0.403416
0.348436
0.305405
0.281843
0.276914
0.287522
0.310826
0.34273
0.379218
0.417566
0.457152
0.499671
0.551487
0.643352
0.865747
1.18672
1.5101
1.71356
1.70688
1.48403
1.13467
0.801266
0.602326
0.55738
0.545584
0.536252
0.520694
0.493029
0.450912
0.395741
0.33224
0.267523
0.209033
0.162907
0.141047
0.15989
0.210053
0.267062
0.301414
0.288948
0.219337
0.0992832
-0.0503988
-0.219469
0
0.68706
1.83166
3.24457
4.56616
5.38325
5.40466
4.59858
3.21567
1.68456
0.432656
-0.280209
-0.437399
-0.210909
0.00181351
0.208362
0.405
0.587867
0.756548
0.907817
1.03884
1.14765
1.23375
1.2985
1.34509
1.3781
1.4027
1.4239
1.44582
1.47096
1.50103
1.53696
1.57882
1.62578
1.67639
1.72827
1.77847
1.82423
1.86358
1.89579
1.92151
1.94264
1.96184
1.98204
2.00589
2.03529
2.07157
2.11587
2.16898
2.23134
2.30299
2.38358
2.4723
2.56794
2.66899
2.77375
2.88038
2.9869
3.09102
3.1898
3.28029
3.35964
3.42547
3.47618
3.51103
3.5299
3.53263
3.51838
3.48505
3.43055
3.35128
3.24301
3.10244
2.92828
2.72214
2.48889
2.23649
1.9751
1.71571
1.4685
1.24202
1.04186
0.870183
0.726067
0.606272
0.506287
0.42141
0.347647
0.282291
0.224101
0.173003
0.129734
0.0956131
0.0729534
0.0622864
0.0575748
0.0503902
0.0325783
-0.000709152
-0.0489246
-0.105971
-0.162093
-0.207027
-0.233657
-0.243601
-0.237854
-0.21828
-0.187997
-0.150792
-0.110449
-0.0707394
-0.0350636
-0.00597801
0.0150455
0.0277401
0.0329571
0.0324093
0.0283604
0.0234074
0.0202312
0.0216537
0.0305809
0.0498806
0.0874424
0.148984
0.222365
0.287723
0.324979
0.322877
0.284614
0.22689
0.17302
0.14385
0.147629
0.174325
0.216196
0.26954
0.331699
0.400284
0.473224
0.548608
0.624172
0.69598
0.75714
0.799649
0.815527
0.799445
0.751236
0.677021
0.588091
0.497668
0.416692
0.349008
0.290305
0.236202
0.18215
0.123228
0.0551258
-0.0266533
-0.130446
-0.256776
-0.384519
-0.485778
-0.534876
-0.517678
-0.437367
-0.313714
0
0.385
0.971024
1.85643
2.92985
3.85644
4.23679
3.83813
2.74274
1.31306
0.00156136
-0.865505
-1.20397
-1.12104
-1.0506
-0.981804
-0.912625
-0.839463
-0.75874
-0.66817
-0.567395
-0.458894
-0.349036
-0.246105
-0.158098
-0.0905838
-0.0453651
-0.0203423
-0.0104698
-0.00937119
-0.0108658
-0.0110001
-0.00788956
-0.000793457
0.00962486
0.0218912
0.0344023
0.0459963
0.0563078
0.0658556
0.075889
0.0880955
0.104319
0.126167
0.155143
0.192934
0.241272
0.301849
0.376089
0.464802
0.567823
0.683739
0.809789
0.94207
1.07591
1.20635
1.32839
1.43751
1.53074
1.60669
1.66571
1.70979
1.74233
1.76764
1.79019
1.8139
1.84224
1.87628
1.90944
1.92884
1.91939
1.86827
1.7686
1.62122
1.43389
1.21869
0.98887
0.756782
0.528889
0.308687
0.0996
-0.0954906
-0.274204
-0.434614
-0.574935
-0.694449
-0.793219
-0.872149
-0.932671
-0.977276
-1.00895
-1.03089
-1.04621
-1.05771
-1.06764
-1.07776
-1.08902
-1.10138
-1.11375
-1.12392
-1.12881
-1.12494
-1.10904
-1.07888
-1.03404
-0.972202
-0.89563
-0.816704
-0.749537
-0.705181
-0.687637
-0.692043
-0.705978
-0.713591
-0.701024
-0.660984
-0.600983
-0.529508
-0.452471
-0.378171
-0.31639
-0.274635
-0.257304
-0.264979
-0.294081
-0.337074
-0.383483
-0.421753
-0.440768
-0.417193
-0.347042
-0.261206
-0.201606
-0.202281
-0.272504
-0.389287
-0.503602
-0.559335
-0.517581
-0.400713
-0.250458
-0.0809726
0.0932725
0.257833
0.397032
0.496727
0.552668
0.564082
0.532981
0.465393
0.372931
0.27242
0.182403
0.117525
0.0817385
0.0644453
0.0576446
0.0546157
0.0491909
0.037065
0.0164061
-0.0122617
-0.0467074
-0.0838138
-0.120675
-0.155296
-0.186235
-0.205401
0
0.436856
1.15508
2.15785
3.30692
4.31347
4.83489
4.63722
3.72574
2.36077
0.944804
-0.153136
-0.735656
-0.804487
-0.528163
-0.277046
-0.0488268
0.147238
0.305538
0.432989
0.53226
0.608953
0.670681
0.725765
0.781845
0.844725
0.917136
0.999214
1.08971
1.18633
1.28611
1.3856
1.48072
1.56601
1.63536
1.68504
1.71319
1.72105
1.7137
1.69985
1.69023
1.69487
1.72036
1.76649
1.82672
1.89558
1.96928
2.04479
2.12042
2.19603
2.27278
2.35258
2.43737
2.5285
2.62626
2.72985
2.8375
2.94676
3.05481
3.15856
3.25475
3.34074
3.41432
3.47374
3.51754
3.54304
3.54681
3.52716
3.48249
3.41174
3.31497
3.19378
3.05127
2.89161
2.71935
2.53916
2.35527
2.17044
1.987
1.80724
1.63343
1.46771
1.31188
1.16713
1.03385
0.911514
0.798789
0.693681
0.593882
0.497152
0.401741
0.306776
0.212567
0.120739
0.0341576
-0.0433811
-0.106751
-0.145598
-0.138845
-0.0741308
0.019755
0.101526
0.133458
0.0973423
0.00313149
-0.1142
-0.208994
-0.244315
-0.215641
-0.153136
-0.0752453
0.00961685
0.0955576
0.177509
0.250782
0.311116
0.356351
0.385708
0.399501
0.399259
0.387826
0.36921
0.348064
0.328886
0.315178
0.308244
0.307673
0.312394
0.320984
0.331826
0.34344
0.354722
0.36507
0.374378
0.382972
0.391517
0.40094
0.412384
0.427175
0.446765
0.472636
0.506142
0.548372
0.600298
0.662973
0.736377
0.81468
0.885489
0.935078
0.952196
0.931658
0.876227
0.795749
0.703753
0.612857
0.530566
0.456426
0.387986
0.323638
0.262619
0.204902
0.151333
0.103398
0.0630547
0.0328487
0.0135469
0
-0.0130135
-0.0384567
-0.0839052
-0.152396
-0.241273
-0.344907
-0.489622
-0.323917
0.287414
1.38212
2.79521
4.12773
4.86393
4.62123
3.39204
1.59712
-0.116705
-1.21386
-1.52119
-1.22977
-0.931672
-0.65852
-0.429413
-0.253292
-0.108993
0.0175802
0.129713
0.229832
0.320259
0.403045
0.47987
0.551994
0.620247
0.68501
0.746408
0.804512
0.859435
0.911453
0.961024
1.00873
1.05505
1.1005
1.14559
1.19098
1.23755
1.28658
1.3395
1.39755
1.46135
1.53055
1.6036
1.6786
1.75384
1.82794
1.9002
1.97091
2.04132
2.11349
2.19003
2.2736
2.36642
2.4698
2.58371
2.70662
2.83555
2.96658
3.09519
3.21692
3.32791
3.42519
3.50664
3.5707
3.61479
3.63444
3.62679
3.58869
3.51771
3.41331
3.27785
3.11685
2.93826
2.75104
2.56313
2.37925
2.20122
2.02863
1.85937
1.69074
1.52059
1.34832
1.17538
1.00518
0.842578
0.692921
0.561373
0.452154
0.367258
0.306581
0.268949
0.251854
0.250088
0.258212
0.271369
0.285838
0.299236
0.310318
0.318525
0.323448
0.324585
0.321321
0.312773
0.298436
0.27866
0.254673
0.229579
0.209204
0.19997
0.207097
0.233007
0.27656
0.333492
0.397928
0.464309
0.528873
0.59017
0.647126
0.697609
0.737376
0.75923
0.756372
0.726849
0.676142
0.616051
0.560317
0.519469
0.494387
0.480777
0.47732
0.482902
0.497531
0.522561
0.560183
0.612416
0.679788
0.762981
0.858653
0.959538
1.05552
1.13509
1.18856
1.20899
1.19292
1.14104
1.0585
0.954705
0.841905
0.732794
0.636869
0.55609
0.487938
0.430782
0.381584
0.336961
0.29418
0.251838
0.210016
0.169934
0.13325
0.101306
0.0745915
0.0525925
0.0339875
0.0170441
0
-0.0854381
0.113778
0.795654
1.96169
3.33996
4.44184
4.77994
4.13807
2.71293
1.01532
-0.406301
-1.23037
-1.44803
-1.20402
-0.958646
-0.725646
-0.526616
-0.377581
-0.265353
-0.173029
-0.0935503
-0.0240117
0.0370088
0.0913926
0.141671
0.190754
0.241525
0.297611
0.359343
0.418781
0.464259
0.48647
0.484478
0.467957
0.45383
0.458766
0.491554
0.544328
0.605253
0.667604
0.725211
0.773883
0.812179
0.841462
0.865385
0.889063
0.917848
0.95638
1.00872
1.07825
1.16725
1.27674
1.40679
1.55652
1.72403
1.9074
2.10381
2.30924
2.51929
2.72849
2.92873
3.11467
3.27604
3.38188
3.38968
3.27057
3.03368
2.7337
2.45502
2.27931
2.28453
2.45857
2.69458
2.85239
2.82138
2.5705
2.16037
1.71136
1.34347
1.1171
0.938564
0.774465
0.619311
0.470109
0.32578
0.187141
0.0564124
-0.0635123
-0.169811
-0.260749
-0.335863
-0.39595
-0.442802
-0.478798
-0.506476
-0.527974
-0.545168
-0.559084
-0.569723
-0.575807
-0.575431
-0.566437
-0.547146
-0.516993
-0.476835
-0.428849
-0.376053
-0.321698
-0.268647
-0.2192
-0.175551
-0.138805
-0.109368
-0.0868944
-0.0702476
-0.0575817
-0.0466612
-0.035371
-0.0222523
-0.00685458
0.0100611
0.0273464
0.0436283
0.057554
0.0679662
0.0739586
0.07488
0.0703941
0.0606046
0.0463073
0.0291602
0.0120378
-0.00085454
-0.0046906
0.00523539
0.032731
0.0801201
0.148005
0.235399
0.340739
0.466947
0.620679
0.803483
0.992082
1.15029
1.23697
1.22281
1.10585
0.915131
0.69861
0.502548
0.355938
0.245734
0.156637
0.0857736
0.0341056
0.0024159
-0.00889158
0
0.0261171
0.0698596
0.128838
0.19958
0.277983
0.360674
0.444633
0.527092
0.60405
0.619324
0.744359
1.24717
2.19042
3.40815
4.50128
4.98539
4.54511
3.24074
1.51533
-0.0215096
-0.903107
-1.00874
-0.554215
-0.115251
0.215913
0.395181
0.497935
0.603778
0.713044
0.823354
0.925729
1.0084
1.06152
1.08136
1.07239
1.04639
1.01912
1.00565
1.01362
1.04091
1.0829
1.13509
1.19306
1.25213
1.30812
1.35804
1.40033
1.43492
1.46295
1.48636
1.50749
1.52886
1.553
1.58249
1.61996
1.66807
1.72932
1.80568
1.89824
2.00678
2.12941
2.26283
2.40285
2.54463
2.6833
2.81449
2.93466
3.04116
3.13212
3.20715
3.26722
3.31414
3.35017
3.3776
3.39823
3.41247
3.41819
3.41105
3.38473
3.3319
3.24624
3.12441
2.96746
2.78104
2.57434
2.35823
2.14293
1.93445
1.73671
1.55195
1.38075
1.22248
1.07584
0.939353
0.811748
0.692173
0.580275
0.476175
0.38035
0.293469
0.21619
0.148945
0.0917777
0.0442928
0.00570669
-0.025104
-0.0492724
-0.067545
-0.0799991
-0.0859351
-0.0840179
-0.0721362
-0.0462249
-0.00110188
0.0616065
0.128287
0.181458
0.205704
0.19356
0.148879
0.0862334
0.0264229
-0.010377
-0.013774
0.00919161
0.0485332
0.0981794
0.151455
0.201895
0.244399
0.275979
0.295946
0.305603
0.307619
0.305358
0.30237
0.301929
0.307096
0.32066
0.344905
0.381223
0.429658
0.488569
0.554423
0.622609
0.68779
0.744623
0.788372
0.815312
0.82287
0.809625
0.775276
0.721097
0.649183
0.563003
0.46737
0.368158
0.271683
0.183727
0.110958
0.0595711
0.0286114
0.0117408
0
-0.0158077
-0.043068
-0.0862318
-0.146729
-0.223615
-0.314471
-0.414913
-0.52148
-0.6461
-0.576064
-0.101419
0.816803
2.0095
3.13673
3.82798
3.8449
3.17678
2.02748
0.716904
-0.443272
-1.24689
-1.63098
-1.50468
-1.33701
-1.14968
-0.951455
-0.756517
-0.579112
-0.421053
-0.278597
-0.149301
-0.0343698
0.0634357
0.143019
0.203888
0.246074
0.270591
0.279614
0.276203
0.263667
0.244913
0.222183
0.197552
0.17304
0.151566
0.137159
0.13456
0.148284
0.18147
0.233281
0.30216
0.384744
0.476526
0.572793
0.669749
0.765143
0.858107
0.948964
1.03879
1.1289
1.22041
1.31403
1.41008
1.50878
1.61054
1.71618
1.82692
1.94428
2.07108
2.21188
2.36604
2.51827
2.64664
2.73005
2.75532
2.72127
2.638
2.52179
2.38772
2.24348
2.09008
1.92706
1.75455
1.57287
1.38294
1.18723
0.989407
0.793775
0.604537
0.425341
0.258986
0.107379
-0.0283445
-0.147694
-0.250753
-0.338111
-0.410785
-0.470649
-0.520798
-0.564779
-0.60612
-0.647802
-0.691821
-0.738944
-0.788717
-0.839712
-0.889905
-0.937201
-0.97973
-1.01589
-1.04446
-1.06455
-1.07554
-1.0769
-1.06842
-1.05027
-1.02321
-0.98846
-0.948069
-0.906028
-0.866906
-0.835107
-0.814138
-0.806076
-0.811382
-0.829034
-0.856871
-0.89198
-0.930687
-0.969767
-1.0061
-1.03671
-1.05894
-1.07049
-1.06954
-1.05466
-1.02485
-0.9795
-0.918592
-0.843357
-0.755892
-0.658378
-0.5548
-0.451311
-0.35456
-0.270843
-0.205402
-0.162017
-0.143392
-0.150177
-0.181426
-0.23448
-0.304812
-0.386058
-0.470468
-0.549863
-0.616955
-0.665122
-0.689057
-0.691232
-0.681004
-0.669971
68
235
402
569
735
901
1066
1232
1402
1571
1741
1909
2085
2253
2429
2595
2762
2930
3103
3271
3439
3603
0
0
0
0
0
0
0
0
0
0
0
0
0
0
0
0
0
0
0
0
0
0
0
0
0
0
0
0
0
0
0
0
0
0
0
0
0
0
0
0
0
0
0
0
0
0
0
0
0
0
0
0
0
0
0
0
0
0
0
0
0
0
0
0
0
0
0
0
0
0
0
0
0
0
0
0
0
0
0
0
0
0
0
0
0
0
0
0
0
0
0
0
0
0
0
0
0
0
0
0
0
0
0
0
0
0
0
0
0
0
0
0
0
0
0
0
0
0
0
0
0
0
0
0
0
0
0
0
0
0
0
0
0
0
0
0
0
0
0
0
0
0
0
0
0
0
0
0
0
0
0
0
0
0
0
0
0
0
0
0
0
0
0
0
0
0
0
0
0
0
0
0
0
0
0
0
0
0
0
0
0
0
0
0
0
0
0
0
0
0
0
0
0
0
0
0
0
0
0
0
0
0
0
0
0
0
0
0
0
0
0
0
0
0
0
0
0
0
0
0
0
0
0
0
0
0
0
0
0
0
0
0
0
0
0
0
0
0
0
0
0
0
0
0
0
0
0
0
0
0
0
0
0
0
0
0
0
0
0
0
0
0
0
0
0
0
0
0
0
0
0
0
0
0
0
0
0
0
0
0
0
0
0
0
0
0
0
0
0
0
0
0
0
0
0
0
0
0
0
0
0
0
0
0
0
0
0
0
0
0
0
0
0
0
0
0
0
0
0
0
0
0
0
0
0
0
0
0
0
0
0
0
0
0
0
0
0
0
0
0
0
0
0
0
0
0
0
0
0
0
0
0
0
0
0
0
0
0
0
0
0
0
0
0
0
0
0
0
0
0
0
0
0
0
0
0
0
0
0
0
0
0
0
0
0
0
0
0
0
0
0
0
0
0
0
0
0
0
0
0
0
0
0
0
0
0
0
0
0
0
0
0
0
0
0
0
0
0
0
0
0
0
0
0
0
0
0
0
0
0
0
0
0
0
0
0
0
0
0
0
0
0
0
0
0
0
0
0
0
0
0
0
0
0
0
0
0
0
0
0
0
0
0
0
0
0
0
0
0
0
0
0
0
0
0
0
0
0
0
0
0
0
0
0
0
0
0
0
0
0
0
0
0
0
0
0
0
0
0
0
0
0
0
0
0
0
0
0
0
0
0
0
0
0
0
0
0
0
0
0
0
0
0
0
0
0
0
0
0
0
0
0
0
0
0
0
0
0
0
0
0
0
0
0
0
0
0
0
0
0
0
0
0
0
0
0
0
0
0
0
0
0
0
0
0
0
0
0
0
0
0
0
0
0
0
0
0
0
0
0
0
0
0
0
0
0
0
0
0
0
0
0
0
0
0
0
0
0
0
0
0
0
0
0
0
0
0
0
0
0
0
0
0
0
0
0
0
0
0
0
0
0
0
0
0
0
0
0
0
0
0
0
0
0
0
0
0
0
0
0
0
0
0
0
0
0
0
0
0
0
0
0
0
0
0
0
0
0
0
0
0
0
0
0
0
0
0
0
0
0
0
0
0
0
0
0
0
0
0
0
0
0
0
0
0
0
0
0
0
0
0
0
0
0
0
0
0
0
0
0
0
0
0
0
0
0
0
0
0
0
0
0
0
0
0
0
0
0
0
0
0
0
0
0
0
0
0
0
0
0
0
0
0
0
0
0
0
0
0
0
0
0
0
0
0
0
0
0
0
0
0
0
0
0
0
0
0
0
0
0
0
0
0
0
0
0
0
0
0
0
0
0
0
0
0
0
0
0
0
0
0
0
0
0
0
0
0
0
0
0
0
0
0
0
0
0
0
0
0
0
0
0
0
0
0
0
0
0
0
0
0
0
0
0
0
0
0
0
0
0
0
0
0
0
0
0
0
0
0
0
0
0
0
0
0
0
0
0
0
0
0
0
0
0
0
0
0
0
0
0
0
0
0
0
0
0
0
0
0
0
0
0
0
0
0
0
0
0
0
0
0
0
0
0
0
0
0
0
0
0
0
0
0
0
0
0
0
0
0
0
0
0
0
0
0
0
0
0
0
0
0
0
0
0
0
0
0
0
0
0
0
0
0
0
0
0
0
0
0
0
0
0
0
0
0
0
0
0
0
0
0
0
0
0
0
0
0
0
0
0
0
0
0
0
0
0
0
0
0
0
0
0
0
0
0
0
0
0
0
0
0
0
0
0
0
0
0
0
0
0
0
0
0
0
0
0
0
0
0
0
0
0
0
0
0
0
0
0
0
0
0
0
0
0
0
0
0
0
0
0
0
0
0
0
0
0
0
0
0
0
0
0
0
0
0
0
0
0
0
0
0
0
0
0
0
0
0
0
0
0
0
0
0
0
0
0
0
0
0
0
0
0
0
0
0
0
0
0
0
0
0
0
0
0
0
0
0
0
0
0
0
0
0
0
0
0
0
0
0
0
0
0
0
0
0
0
0
0
0
0
0
0
0
0
0
0
0
0
0
0
0
0
0
0
0
0
0
0
0
0
0
0
0
0
0
0
0
0
0
0
0
0
0
0
0
0
0
0
0
0
0
0
0
0
0
0
0
0
0
0
0
0
0
0
0
0
0
0
0
0
0
0
0
0
0
0
0
0
0
0
0
0
0
0
0
0
0
0
0
0
0
0
0
0
0
0
0
0
0
0
0
0
0
0
0
0
0
0
0
0
0
0
0
0
0
0
0
0
0
0
0
0
0
0
0
0
0
0
0
0
0
0
0
0
0
0
0
0
0
0
0
0
0
0
0
0
0
0
0
0
0
0
0
0
0
0
0
0
0
0
0
0
0
0
0
0
0
0
0
0
0
0
0
0
0
0
0
0
0
0
0
0
0
0
0
0
0
0
0
0
0
0
0
0
0
0
0
0
0
0
0
0
0
0
0
0
0
0
0
0
0
0
0
0
0
0
0
0
0
0
0
0
0
0
0
0
0
0
0
0
0
0
0
0
0
0
0
0
0
0
0
0
0
0
0
0
0
0
0
0
0
0
0
0
0
0
0
0
0
0
0
0
0
0
0
0
0
0
0
0
0
0
0
0
0
0
0
0
0
0
0
0
0
0
0
0
0
0
0
0
0
0
0
0
0
0
0
0
0
0
0
0
0
0
0
0
0
0
0
0
0
0
0
0
0
0
0
0
0
0
0
0
0
0
0
0
0
0
0
0
0
0
0
0
0
0
0
0
0
0
0
0
0
0
0
0
0
0
0
0
0
0
0
0
0
0
0
0
0
0
0
0
0
0
0
0
0
0
0
0
0
0
0
0
0
0
0
0
0
0
0
0
0
0
0
0
0
0
0
0
0
0
0
0
0
0
0
0
0
0
0
0
0
0
0
0
0
0
0
0
0
0
0
0
0
0
0
0
0
0
0
0
0
0
0
0
0
0
0
0
0
0
0
0
0
0
0
0
0
0
0
0
0
0
0
0
0
0
0
0
0
0
0
0
0
0
0
0
0
0
0
0
0
0
0
0
0
0
0
0
0
0
0
0
0
0
0
0
0
0
0
0
0
0
0
0
0
0
0
0
0
0
0
0
0
0
0
0
0
0
0
0
0
0
0
0
0
0
0
0
0
0
0
0
0
0
0
0
0
0
0
0
0
0
0
0
0
0
0
0
0
0
0
0
0
0
0
0
0
0
0
0
0
0
0
0
0
0
0
0
0
0
0
0
0
0
0
0
0
0
0
0
0
0
0
0
0
0
0
0
0
0
0
0
0
0
0
0
0
0
0
0
0
0
0
0
0
0
0
0
0
0
0
0
0
0
0
0
0
0
0
0
0
0
0
0
0
0
0
0
0
0
0
0
0
0
0
0
0
0
0
0
0
0
0
0
0
0
0
0
0
0
0
0
0
0
0
0
0
0
0
0
0
0
0
0
0
0
0
0
0
0
0
0
0
0
0
0
0
0
0
0
0
0
0
0
0
0
0
0
0
0
0
0
0
0
0
0
0
0
0
0
0
0
0
0
0
0
0
0
0
0
0
0
0
0
0
0
0
0
0
0
0
0
0
0
0
0
0
0
0
0
0
0
0
0
0
0
0
0
0
0
0
0
0
0
0
0
0
0
0
0
0
0
0
0
0
0
0
0
0
0
0
0
0
0
0
0
0
0
0
0
0
0
0
0
0
0
0
0
0
0
0
0
0
0
0
0
0
0
0
0
0
0
0
0
0
0
0
0
0
0
0
0
0
0
0
0
0
0
0
0
0
0
0
0
0
0
0
0
0
0
0
0
0
0
0
0
0
0
0
0
0
0
0
0
0
0
0
0
0
0
0
0
0
0
0
0
0
0
0
0
0
0
0
0
0
0
0
0
0
0
0
0
0
0
0
0
0
0
0
0
0
0
0
0
0
0
0
0
0
0
0
0
0
0
0
0
0
0
0
0
0
0
0
0
0
0
0
0
0
0
0
0
0
0
0
0
0
0
0
0
0
0
0
0
0
0
0
0
0
0
0
0
0
0
0
0
0
0
0
0
0
0
0
0
0
0
0
0
0
0
0
0
0
0
0
0
0
0
0
0
0
0
0
0
0
0
0
0
0
0
0
0
0
0
0
0
0
0
0
0
0
0
0
0
0
0
0
0
0
0
0
0
0
0
0
0
0
0
0
0
0
0
0
0
0
0
0
0
0
0
0
0
0
0
0
0
0
0
0
0
0
0
0
0
0
0
0
0
0
0
0
0
0
0
0
0
0
0
0
0
0
0
0
0
0
0
0
0
0
0
0
0
0
0
0
0
0
0
0
0
0
0
0
0
0
0
0
0
0
0
0
0
0
0
0
0
0
0
0
0
0
0
0
0
0
0
0
0
0
0
0
0
0
0
0
0
0
0
0
0
0
0
0
0
0
0
0
0
0
0
0
0
0
0
0
0
0
0
0
0
0
0
0
0
0
0
0
0
0
0
0
0
0
0
0
0
0
0
0
0
0
0
0
0
0
0
0
0
0
0
0
0
0
0
0
0
0
0
0
0
0
0
0
0
0
0
0
0
0
0
0
0
0
0
0
0
0
0
0
0
0
0
0
0
0
0
0
0
0
0
0
0
0
0
0
0
0
0
0
0
0
0
0
0
0
0
0
0
0
0
0
0
0
0
0
0
0
0
0
0
0
0
0
0
0
0
0
0
0
0
0
0
0
0
0
0
0
0
0
0
0
0
0
0
0
0
0
0
0
0
0
0
0
0
0
0
0
0
0
0
0
0
0
0
0
0
0
0
0
0
0
0
0
0
0
0
0
0
0
0
0
0
0
0
0
0
0
0
0
0
0
0
0
0
0
0
0
0
0
0
0
0
0
0
0
0
0
0
0
0
0
0
0
0
0
0
0
0
0
0
0
0
0
0
0
0
0
0
0
0
0
0
0
0
0
0
0
0
0
0
0
0
0
0
0
0
0
0
0
0
0
0
0
0
0
0
0
0
0
0
0
0
0
0
0
0
0
0
0
0
0
0
0
0
0
0
0
0
0
0
0
0
0
0
0
0
0
0
0
0
0
0
0
0
0
0
0
0
0
0
0
0
0
0
0
0
0
0
0
0
0
0
0
0
0
0
0
0
0
0
0
0
0
0
0
0
0
0
0
0
0
0
0
0
0
0
0
0
0
0
0
0
0
0
0
0
0
0
0
0
0
0
0
0
0
0
0
0
0
0
0
0
0
0
0
0
0
0
0
0
0
0
0
0
0
0
0
0
0
0
0
0
0
0
0
0
0
0
0
0
0
0
0
0
0
0
0
0
0
0
0
0
0
0
0
0
0
0
0
0
0
0
0
0
0
0
0
0
0
0
0
0
0
0
0
0
0
0
0
0
0
0
0
0
0
0
0
0
0
0
0
0
0
0
0
0
0
0
0
0
0
0
0
0
0
0
0
0
0
0
0
0
0
0
0
0
0
0
0
0
0
0
0
0
0
0
0
0
0
0
0
0
0
0
0
0
0
0
0
0
0
0
0
0
0
0
0
0
0
0
0
0
0
0
0
0
0
0
0
0
0
0
0
0
0
0
0
0
0
0
0
0
0
0
0
0
0
0
0
0
0
0
0
0
0
0
0
0
0
0
0
0
0
0
0
0
0
0
0
0
0
0
0
0
0
0
0
0
0
0
0
0
0
0
0
0
0
0
0
0
0
0
0
0
0
0
0
0
0
0
0
0
0
0
0
0
0
0
0
0
0
0
0
0
0
0
0
0
0
0
0
0
0
0
0
0
0
0
0
0
0
0
0
0
0
0
0
0
0
0
0
0
0
0
0
0
0
0
0
0
0
0
0
0
0
0
0
0
0
0
0
0
0
0
0
0
0
0
0
0
0
0
0
0
0
0
0
0
0
0
0
0
0
0
0
0
0
0
0
0
0
0
0
0
0
0
0
0
0
0
0
0
0
0
0
0
0
0
0
0
0
0
0
0
0
0
0
0
0
0
0
0
0
0
0
0
0
0
0
0
0
0
0
0
0
0
0
0
0
0
0
0
0
0
0
0
0
0
0
0
0
0
0
0
0
0
0
0
0
0
0
0
0
0
0
0
0
0
0
0
0
0
0
0
0
0
0
0
0
0
0
0
0
0
0
0
0
0
0
0
0
0
0
0
0
0
0
0
0
0
0
0
0
0
0
0
0
0
0
0
0
0
0
0
0
0
0
0
0
0
0
0
0
0
0
0
0
0
0
0
0
0
0
0
0
0
0
0
0
0
0
0
0
0
0
0
0
0
0
0
0
0
0
0
0
0
0
0
0
0
0
0
0
0
0
0
0
0
0
0
0
0
0
0
0
0
0
0
0
0
0
0
0
0
0
0
0
0
0
0
0
0
0
0
0
0
0
0
0
0
0
0
0
0
0
0
0
0
0
0
0
0
0
0
0
0
0
0
0
0
0
0
0
0
0
0
0
0
0
0
0
0
0
0
0
0
0
0
0
0
0
0
0
0
0
0
0
0
0
0
0
0
0
0
0
0
0
0
0
0
0
0
0
0
0
0
0
0
0
0
0
0
0
0
0
0
0
0
0
0
0
0
0
0
0
0
0
0
0
0
0
0
0
0
0
0
0
0
0
0
0
0
0
0
0
0
0
0
0
0
0
0
0
0
0
0
0
0
0
0
0
0
0
0
0
0
0
0
0
0
0
0
0
0
0
0
0
0
0
0
0
0
0
0
0
0
0
0
0
0
0
0
0
0
0
0
0
0
0
0
0
0
0
0
0
0
0
0
0
0
0
0
0
0
0
0
0
0
0
0
0
0
0
0
0
0
0
0
0
0
0
0
0
0
0
0
0
0
0
0
0
0
0
0
0
0
0
0
0
0
0
0
0
0
0
0
0
0
0
0
0
0
0
0
0
0
0
0
0
0
0
0
0
0
0
0
0
0
0
0
0
0
0
0
0
0
0
0
0
0
0
0
0
0
0
0
0
0
0
0
0
0
0
0
0
0
0
0
0
0
0
0
0
0
0
0
0
0
0
0
0
0
0
0
0
0
0
0
0
0
0
0
0
0
0
0
0
0
0
0
0
0
0
0
0
0
0
0
0
0
0
0
0
0
0
0
0
0
0
0
0
0
0
0
0
0
0
0
0
0
0
0
0
0
0
0
0
0
0
0
0
0
0
0
0
0
0
0
0
0
0
0
0
0
0
0
0
0
0
0
0
0
0
0
0
0
0
0
0
0
0
0
0
0
0
0
0
0
0
0
0
0
0
0
0
0
0
0
0
0
0
0
0
0
0
0
0
0
0
0
0
0
0
0
0
0
0
0
0
0
0
0
0
0
0
0
0
0
0
0
0
0
0
0
0
0
0
0
0
0
0
0
0
0
0
0
0
0
0
0
0
0
0
0
0
0
0
0
0
0
0
0
0
0
0
0
0
0
0
0
0
0
0
0
0
0
0
0
0
0
0
0
0
0
0
0
0
0
0
0
0
0
0
0
0
0
0
0
0
0
0
0
0
0
0
0
0
0
0
0
0
0
0
0
0
0
0
0
0
0
0
0
0
0
0
0
0
0
0
0
0
0
0
0
0
0
0
0
0
0
0
0
0
0
0
0
0
0
0
0
0
0
0
0
0
0
0
0
0
0
0
0
0
0
0
0
0
0
0
0
0
0
0
0
0
0
0
0
0
0
0
0
0
0
0
0
0
0
0
0
0
0
0
0
0
0
0
0
0
0
0
0
0
0
0
0
0
0
0
0
0
0
0
0
0
0
0
0
0
0
0
0
0
0
0
0
0
0
0
0
0
0
0
0
0
0
0
0
0
0
0
0
0
0
0
0
0
0
0
0
0
0
0
0
0
0
0
0
0
0
0
0
0
0
0
0
0
0
0
0
0
0
0
0
0
0
0
0
0
0
0
0
0
0
0
0
0
0
0
0
0
0
0
0
0
0
0
0
0
0
0
0
0
0
0
0
0
0
0
0
0
0
0
0
0
0
0
0
0
