1.50005
1.64804
1.82108
2.0521
2.37274
2.72663
3.03647
3.23918
3.3094
3.26062
3.12865
2.95098
2.7545
2.55558
2.36349
2.18084
2.00791
1.84433
1.68949
1.54282
1.4039
1.27216
1.14701
1.02819
0.915839
0.810604
0.713521
0.625855
0.548891
0.483781
0.431658
0.392936
0.367269
0.353563
0.35051
0.355683
0.365679
0.376965
0.386334
0.391256
0.390004
0.381577
0.365509
0.341727
0.311018
0.274513
0.233681
0.191602
0.153371
0.125291
0.113827
0.124345
0.159853
0.220072
0.301102
0.396593
0.49698
0.591495
0.67121
0.730855
0.769589
0.790537
0.799307
0.80215
0.804475
0.809757
0.819936
0.836794
0.861969
0.896938
0.942648
0.998938
1.06442
1.13593
1.20717
1.27111
1.3216
1.35488
1.37036
1.37058
1.36043
1.34589
1.33291
1.32578
1.32715
1.33893
1.36262
1.399
1.44819
1.50992
1.58363
1.66851
1.76179
1.85542
1.93735
1.99497
2.01756
1.99882
1.93863
1.84344
1.72514
1.5987
1.47903
1.37475
1.28807
1.21936
1.16925
1.13775
1.12375
1.12574
1.14186
1.16809
1.19855
1.2267
1.23824
1.09445
0.642642
0
-0.667559
-0.911152
-0.276267
1.35698
3.77655
6.433
8.62363
9.76091
9.59874
8.30718
6.36983
4.36926
2.76865
1.78653
1.39708
1.42159
1.54231
1.60161
1.63694
1.64594
1.63254
1.60648
1.58086
1.56857
1.57873
1.61005
1.65683
1.71501
1.78033
1.84831
1.91508
1.97781
2.03515
2.08732
2.13598
2.18404
2.2352
2.29345
2.36259
2.4457
2.54465
2.66018
2.79199
2.9389
3.09895
3.26967
3.44845
3.63295
3.81732
3.98835
4.13014
4.2275
4.27106
4.26139
4.20966
4.13354
4.04969
3.96623
3.87956
3.78337
3.67125
3.5365
3.37495
3.18596
2.97266
2.74124
2.49981
2.25709
2.01996
1.79418
1.58427
1.39348
1.22397
1.07687
0.952378
0.849844
0.768085
0.705339
0.658206
0.622129
0.592677
0.56618
0.540185
0.513615
0.4866
0.460091
0.435393
0.413696
0.395841
0.382619
0.374773
0.372973
0.377809
0.389737
0.408994
0.435573
0.46935
0.510147
0.557865
0.612493
0.673981
0.743227
0.82096
0.901489
0.973795
1.02617
1.05109
1.04912
1.0295
1.0067
0.994605
1.00108
1.02162
1.04903
1.07878
1.10703
1.13082
1.14849
1.1598
1.16562
1.16749
1.16713
1.16607
1.16546
1.16604
1.16837
1.17297
1.18055
1.19209
1.2089
1.23244
1.26414
1.30514
1.35599
1.41647
1.48535
1.56063
1.63959
1.71767
1.78872
1.84673
1.88692
1.9067
1.90626
1.88861
1.8589
1.82329
1.78762
1.756
1.73001
1.70984
1.69494
1.68427
1.67636
1.66952
1.66212
1.65287
1.64086
1.62558
1.60663
1.58353
1.55535
1.52047
1.4744
1.3921
1.17394
0.823817
0.394387
-0.0550629
0
0.830243
2.50901
4.78543
7.1147
8.85732
9.55073
9.10152
7.78598
6.07532
4.40919
3.05272
2.09086
1.50763
1.27629
1.40703
1.53489
1.655
1.76249
1.85482
1.93369
2.0055
2.07499
2.14555
2.21982
2.29925
2.38382
2.47221
2.56227
2.65156
2.73813
2.82112
2.90116
2.98033
3.06175
3.14892
3.24482
3.35115
3.46781
3.59282
3.72284
3.85345
3.98036
4.10016
4.2108
4.31151
4.40239
4.48282
4.55183
4.60845
4.65101
4.67772
4.68729
4.6793
4.65409
4.61226
4.5541
4.47975
4.38994
4.28468
4.16327
4.02578
3.8733
3.70805
3.53332
3.35297
3.17088
2.99047
2.8143
2.64377
2.47913
2.31983
2.16509
2.01466
1.86968
1.73331
1.60989
1.50457
1.4221
1.36556
1.33546
1.32941
1.34245
1.3684
1.39987
1.43028
1.4549
1.47132
1.47937
1.48059
1.47741
1.47241
1.4679
1.46561
1.46694
1.47294
1.48409
1.50137
1.52296
1.54294
1.55408
1.55058
1.53113
1.50044
1.4685
1.4475
1.44774
1.47119
1.51143
1.56321
1.62195
1.68198
1.73794
1.78561
1.82239
1.84726
1.86049
1.86312
1.85645
1.84169
1.82012
1.79282
1.76114
1.72689
1.69241
1.66031
1.63314
1.61294
1.60097
1.59751
1.60197
1.61311
1.6293
1.64862
1.66905
1.68822
1.70301
1.71038
1.70787
1.69446
1.67121
1.64158
1.61079
1.58462
1.56782
1.56243
1.56729
1.57951
1.59462
1.60757
1.61379
1.60988
1.59399
1.56577
1.52618
1.47763
1.42293
1.36515
1.30761
1.25363
1.20608
1.16726
1.13897
1.12226
1.11683
1.11964
1.12578
1.12922
1.11637
0.981816
0.57539
0
-0.593791
-0.897835
-0.432948
0.92443
3.01843
5.37725
7.36915
8.44443
8.34643
7.19436
5.40878
3.52723
2.00442
1.08018
0.755363
0.861865
1.02775
1.16218
1.26836
1.33993
1.37685
1.38527
1.37597
1.36167
1.35397
1.35978
1.3797
1.4114
1.45262
1.50165
1.5573
1.61935
1.68861
1.76642
1.85398
1.95152
2.05765
2.16966
2.28401
2.39678
2.50468
2.60581
2.69996
2.78849
2.87372
2.95806
3.04322
3.12952
3.21584
3.29975
3.37796
3.44683
3.5028
3.54277
3.56419
3.5651
3.5441
3.50051
3.43452
3.3474
3.24166
3.12091
2.98949
2.85174
2.71127
2.57029
2.42931
2.28739
2.14267
1.99326
1.83814
1.67768
1.51395
1.35037
1.1911
1.04033
0.901679
0.777792
0.670224
0.579585
0.505817
0.44848
0.406915
0.380319
0.367663
0.367513
0.377702
0.394724
0.413197
0.427019
0.431091
0.422617
0.402036
0.373245
0.342854
0.31857
0.307158
0.312131
0.33173
0.363764
0.40428
0.448725
0.493068
0.534739
0.572562
0.606593
0.637693
0.667059
0.695847
0.724867
0.754583
0.785128
0.81637
0.848022
0.879765
0.911491
0.943475
0.976443
1.01144
1.04951
1.09146
1.13732
1.18497
1.22981
1.26596
1.28762
1.29048
1.2728
1.23593
1.18401
1.1233
1.06098
1.00365
0.955587
0.91882
0.893972
0.88096
0.878635
0.885106
0.89752
0.912591
0.927454
0.940197
0.950217
0.958334
0.966632
0.978023
0.995663
1.02215
1.05876
1.10597
1.16365
1.22959
1.29865
1.36352
1.41686
1.45296
1.46882
1.46489
1.44489
1.41501
1.38268
1.35531
1.3388
1.33623
1.34899
1.37889
1.42798
1.49764
1.59102
1.71783
1.88744
2.08749
2.28252
2.43676
2.5241
2.53397
2.47228
2.35841
2.21952
2.08443
1.97642
1.90009
1.84976
1.81999
1.8094
1.8164
1.83722
1.86732
1.90188
1.93602
1.96401
1.98011
1.97829
1.94362
1.7235
1.28391
0.691796
0.0444221
0
0.930107
2.88114
5.47031
8.00987
9.78429
10.3424
9.65553
8.07743
6.15028
4.37627
3.06146
2.27843
1.92686
1.85259
1.92022
1.99293
2.06855
2.14619
2.22229
2.29101
2.34636
2.38444
2.40536
2.41405
2.41952
2.43264
2.46318
2.51677
2.59025
2.6786
2.7779
2.88453
2.99521
3.10759
3.22062
3.33451
3.4504
3.56977
3.69383
3.82299
3.95664
4.09311
4.22994
4.36426
4.4931
4.61347
4.72251
4.81758
4.89591
4.9541
4.98874
4.99727
4.97758
4.92862
4.85098
4.74701
4.62058
4.47648
4.31984
4.15624
3.9908
3.82746
3.67002
3.52206
3.38759
3.27145
3.17389
3.0893
3.00894
2.92302
2.82304
2.70372
2.56389
2.40632
2.23698
2.06446
1.89591
1.73866
1.59947
1.48373
1.3949
1.33399
1.29938
1.28698
1.29102
1.30515
1.32299
1.33976
1.35301
1.36288
1.37177
1.3834
1.40196
1.43363
1.48085
1.53519
1.58311
1.61062
1.60832
1.57472
1.51689
1.44823
1.38442
1.33869
1.31405
1.3071
1.31345
1.32964
1.35288
1.38079
1.41194
1.44598
1.48341
1.52548
1.57385
1.62831
1.68418
1.7336
1.76772
1.77929
1.76484
1.72604
1.66981
1.60721
1.55116
1.5122
1.49505
1.49876
1.52104
1.55574
1.59465
1.62945
1.65359
1.6636
1.65958
1.64481
1.62483
1.60616
1.59426
1.59263
1.60292
1.62545
1.66003
1.70216
1.74592
1.78614
1.81986
1.84709
1.87043
1.89381
1.92079
1.95325
1.99
2.02882
2.06735
2.10321
2.13446
2.15981
2.17865
2.19073
2.19591
2.19371
2.18309
2.16242
2.1303
2.08579
2.02916
1.96237
1.88934
1.81556
1.74738
1.69444
1.67038
1.67552
1.69087
1.68802
1.63785
1.51864
1.28453
0.938321
0.513148
0.0491486
0
0.765693
2.51415
5.01388
7.62602
9.55273
10.2155
9.52984
7.90135
5.96314
4.24935
3.00973
2.23587
1.81126
1.68835
1.80002
1.91247
2.01989
2.1171
2.20024
2.2682
2.32403
2.37081
2.41236
2.45349
2.49946
2.55511
2.62408
2.70813
2.80676
2.9172
3.03501
3.15526
3.27321
3.38509
3.48863
3.58323
3.66988
3.75072
3.82853
3.9062
3.98633
4.07086
4.16109
4.2576
4.3605
4.46959
4.58455
4.70532
4.83256
4.96713
5.10513
5.2335
5.33421
5.38912
5.3856
5.32012
5.1978
5.02906
4.82576
4.59938
4.36425
4.12896
3.89811
3.67488
3.4618
3.2606
3.07209
2.89645
2.73363
2.58363
2.44675
2.32371
2.21595
2.12359
2.04581
1.98095
1.9268
1.88088
1.84071
1.80396
1.76847
1.73225
1.69369
1.65155
1.60531
1.5554
1.50336
1.45179
1.4045
1.36594
1.34036
1.33118
1.34051
1.36876
1.4146
1.4751
1.5461
1.62311
1.69959
1.76525
1.80974
1.82398
1.80266
1.74683
1.66546
1.57449
1.49325
1.43914
1.41921
1.42578
1.45509
1.50264
1.56233
1.62742
1.69106
1.74551
1.7845
1.80362
1.80097
1.77784
1.73884
1.69137
1.64417
1.60532
1.57967
1.56677
1.56431
1.56985
1.57974
1.59028
1.59853
1.60294
1.60359
1.60209
1.60118
1.60419
1.61418
1.63333
1.66288
1.70353
1.75534
1.81583
1.87847
1.93476
1.97655
1.99774
1.99551
1.97082
1.92797
1.87348
1.81463
1.75788
1.70697
1.66319
1.62639
1.59536
1.56804
1.54141
1.51175
1.4751
1.42771
1.36647
1.28886
1.18772
1.04126
0.796613
0.461173
0.0803028
-0.309943
-0.455755
0
1.29127
3.3887
5.88337
8.10224
9.38738
9.3859
8.18289
6.21889
4.07095
2.23394
0.996804
0.425359
0.40993
0.676668
0.899237
1.09878
1.26825
1.40411
1.51458
1.6023
1.67121
1.72651
1.77393
1.8191
1.86697
1.92117
1.98361
2.05429
2.13147
2.2121
2.29257
2.36971
2.44174
2.50871
2.57265
2.63707
2.70634
2.7848
2.87568
2.98085
3.10101
3.23571
3.38339
3.54156
3.70736
3.87751
4.04841
4.21586
4.37317
4.50945
4.61463
4.67665
4.6823
4.62138
4.49122
4.29948
4.06312
3.80416
3.54395
3.29455
3.05775
2.8347
2.6276
2.43786
2.26613
2.11231
1.97574
1.8552
1.74733
1.64742
1.55051
1.45231
1.34998
1.24268
1.1315
1.01906
0.908687
0.803411
0.705582
0.61733
0.540812
0.478132
0.430268
0.397805
0.380695
0.37797
0.387534
0.406212
0.43004
0.454769
0.476441
0.492022
0.499331
0.497721
0.488046
0.472591
0.454807
0.438776
0.42848
0.426989
0.435811
0.454914
0.482336
0.515268
0.551073
0.588193
0.626542
0.667268
0.712656
0.765325
0.823273
0.877485
0.915643
0.926857
0.90643
0.858641
0.796363
0.737511
0.699414
0.690698
0.70697
0.746745
0.797542
0.844302
0.874255
0.880969
0.866239
0.839219
0.813118
0.800595
0.81102
0.849535
0.901619
0.945786
0.964033
0.950954
0.916882
0.88322
0.872187
0.896416
0.947453
1.01005
1.07627
1.14026
1.19761
1.24571
1.28348
1.31065
1.32655
1.3304
1.32087
1.29661
1.25708
1.20343
1.13901
1.06923
1.00087
0.940815
0.894203
0.866814
0.858713
0.866401
0.883888
0.903938
0.919081
0.920577
0.900829
0.852819
0.770559
0.646172
0.460781
0.22257
-0.0529072
-0.359347
0
1.15621
3.09979
5.49681
7.74557
9.19784
9.44681
8.51418
6.81766
4.9449
3.3829
2.35849
1.85094
1.71534
1.80447
1.86328
1.91526
1.95895
1.99518
2.02728
2.06049
2.10067
2.1528
2.21942
2.2989
2.38962
2.48871
2.59074
2.68606
2.76431
2.81711
2.84
2.83465
2.81032
2.78322
2.77327
2.7988
2.87129
2.98242
3.11897
3.27259
3.43759
3.6085
3.78058
3.94984
4.11299
4.26644
4.40673
4.53099
4.63682
4.72257
4.78745
4.83135
4.85427
4.85477
4.83004
4.77739
4.69382
4.57728
4.42788
4.2487
4.04557
3.82609
3.59808
3.36831
3.14086
2.91827
2.70213
2.49377
2.29481
2.10753
1.93491
1.7802
1.64636
1.53529
1.44891
1.3892
1.35329
1.33287
1.31866
1.30232
1.27795
1.24288
1.19762
1.14514
1.08982
1.03626
0.987657
0.946068
0.913051
0.889619
0.876531
0.872095
0.873566
0.878701
0.886798
0.899185
0.918806
0.948943
0.995288
1.05816
1.12705
1.18764
1.22799
1.24378
1.2393
1.22387
1.20581
1.18792
1.16769
1.14146
1.1083
1.07258
1.04381
1.03348
1.05057
1.09601
1.15905
1.2339
1.31336
1.3902
1.45938
1.51708
1.56074
1.58929
1.60328
1.60446
1.59568
1.58025
1.56297
1.54949
1.54496
1.553
1.57493
1.60931
1.65231
1.6985
1.74207
1.7785
1.80505
1.82008
1.82339
1.81589
1.79931
1.77583
1.74798
1.71843
1.69002
1.66579
1.64863
1.64096
1.64497
1.66236
1.69126
1.72734
1.76503
1.7985
1.82242
1.83244
1.8252
1.79817
1.74825
1.62596
1.2982
0.82919
0.321752
-0.154769
0
0.931811
2.67268
4.97329
7.33289
9.14776
9.93179
9.50851
8.07729
6.11874
4.18984
2.71603
1.87363
1.59442
1.66149
1.68212
1.70359
1.72789
1.75857
1.80017
1.85752
1.93485
2.03474
2.15735
2.30009
2.45771
2.62351
2.78839
2.94194
3.07488
3.18109
3.25804
3.30712
3.33337
3.345
3.35251
3.36737
3.40051
3.4602
3.54929
3.66554
3.80413
3.95924
4.12406
4.29099
4.45227
4.6009
4.73147
4.84038
4.92583
4.98747
5.02544
5.04064
5.03465
5.00913
4.9657
4.90583
4.83073
4.74106
4.6368
4.5172
4.38151
4.22874
4.05881
3.87325
3.67552
3.47095
3.26604
3.06757
2.88092
2.71036
2.55838
2.42571
2.31169
2.21475
2.13299
2.06453
2.00775
1.96127
1.92399
1.89487
1.87245
1.85512
1.84129
1.82957
1.81896
1.80895
1.79954
1.79112
1.78441
1.78014
1.77911
1.78189
1.78884
1.80009
1.8153
1.83389
1.85509
1.87802
1.9016
1.92436
1.94389
1.95731
1.96168
1.95477
1.93596
1.90661
1.86992
1.83009
1.79123
1.75639
1.7267
1.70299
1.68605
1.67666
1.67567
1.68378
1.70123
1.72749
1.76111
1.79988
1.84124
1.88288
1.92332
1.96215
2.00002
2.0385
2.07953
2.12494
2.17598
2.23319
2.29549
2.35915
2.41796
2.46461
2.49191
2.49398
2.46724
2.41116
2.32856
2.22539
2.10989
1.99129
1.8776
1.77377
1.68244
1.60499
1.54131
1.49039
1.45075
1.42063
1.39775
1.37922
1.35919
1.32962
1.26821
1.07328
0.734823
0.291418
-0.199843
0
1.13556
3.14881
5.62488
7.91629
9.38969
9.6792
8.82086
7.20594
5.38342
3.8222
2.75581
2.16947
1.90655
1.87433
1.92237
1.97583
2.03189
2.0886
2.14439
2.19851
2.25151
2.30509
2.36171
2.42436
2.49603
2.57908
2.67461
2.78226
2.90102
3.02789
3.15519
3.27278
3.37192
3.44774
3.50106
3.53865
3.57196
3.61441
3.67809
3.76998
3.88706
4.02365
4.17501
4.33624
4.50195
4.66682
4.8256
4.97308
5.10409
5.21353
5.2962
5.34739
5.36262
5.33795
5.27113
5.16271
5.01696
4.84197
4.64876
4.44948
4.25492
4.07106
3.90075
3.74523
3.60361
3.47347
3.35149
3.234
3.11748
2.99879
2.87566
2.74709
2.61366
2.47758
2.34256
2.21319
2.09424
1.98918
1.9007
1.8301
1.77717
1.74056
1.71834
1.70725
1.70225
1.69851
1.69224
1.68126
1.66532
1.64592
1.62575
1.60793
1.59533
1.58937
1.5911
1.60105
1.61918
1.64484
1.67692
1.71377
1.75328
1.79306
1.83075
1.86437
1.89266
1.91506
1.93173
1.94335
1.95076
1.95466
1.95536
1.95273
1.94637
1.93592
1.92144
1.90381
1.88483
1.86769
1.8564
1.85494
1.86645
1.89249
1.93267
1.98468
2.04475
2.10823
2.17038
2.22705
2.27464
2.31097
2.33523
2.34792
2.35072
2.3461
2.33673
2.32487
2.31187
2.29798
2.28253
2.2644
2.24266
2.21705
2.18833
2.15825
2.12921
2.10365
2.08318
2.06852
2.05945
2.05388
2.04827
2.03851
2.02088
1.99269
1.95088
1.87869
1.69494
1.35168
0.84067
0.252243
-0.184175
0
1.08578
3.05271
5.50351
7.80885
9.3681
9.83948
9.23198
7.84733
6.13237
4.51929
3.30306
2.58161
2.27286
2.22399
2.26442
2.30439
2.34072
2.37038
2.39124
2.40304
2.40796
2.41058
2.41697
2.43305
2.4628
2.50656
2.56014
2.61994
2.6819
2.74274
2.80096
2.85729
2.91458
2.97706
3.04939
3.13518
3.23655
3.35426
3.48767
3.63479
3.79259
3.95731
4.12474
4.29035
4.44852
4.59287
4.7182
4.82048
4.8973
4.94815
4.97404
4.97672
4.95785
4.91821
4.85885
4.78059
4.68333
4.56798
4.43668
4.29268
4.13973
3.98143
3.82075
3.65937
3.49826
3.33796
3.179
3.02209
2.86822
2.71845
2.57377
2.43484
2.30204
2.1757
2.0564
1.94555
1.84555
1.75888
1.68784
1.63379
1.5978
1.57811
1.57031
1.56906
1.56939
1.56767
1.56221
1.55311
1.54176
1.53009
1.51989
1.51242
1.50873
1.50966
1.5158
1.52746
1.54453
1.56641
1.59193
1.61945
1.64701
1.6726
1.69431
1.71044
1.71958
1.72108
1.71495
1.70192
1.68352
1.66202
1.64031
1.62169
1.6095
1.60663
1.61507
1.63705
1.67694
1.74393
1.84417
1.95939
2.06148
2.12151
2.12037
2.05673
1.94868
1.82829
1.73209
1.69088
1.6997
1.74319
1.81277
1.90807
2.02669
2.16358
2.31098
2.45619
2.58215
2.67382
2.71624
2.69677
2.61112
2.46937
2.29696
2.128
1.99258
1.89667
1.82302
1.75962
1.6996
1.63629
1.56452
1.48141
1.38637
1.27951
1.15682
1.0022
0.786249
0.497947
0.16572
0
0.516237
1.93137
4.11678
6.58013
8.64934
9.75563
9.66356
8.53284
6.79843
4.9589
3.3959
2.30092
1.70063
1.51941
1.64156
1.74431
1.84159
1.93216
2.01463
2.08907
2.15618
2.21723
2.27377
2.32725
2.37874
2.42871
2.47707
2.52323
2.56653
2.60665
2.64402
2.68013
2.71765
2.76016
2.81167
2.87592
2.95572
3.05208
3.16432
3.29066
3.42844
3.57453
3.72571
3.87894
4.03141
4.18034
4.32231
4.45285
4.5669
4.65984
4.72739
4.76614
4.77386
4.74951
4.69304
4.60517
4.48734
4.34241
4.17556
3.9929
3.80065
3.60519
3.41284
3.22922
3.05881
2.90347
2.76253
2.63319
2.51123
2.39197
2.27114
2.14568
2.01422
1.87728
1.73709
1.59789
1.46648
1.35007
1.25503
1.1855
1.14258
1.12414
1.12539
1.14004
1.16161
1.18456
1.20539
1.22252
1.23524
1.24349
1.24777
1.24891
1.24791
1.24581
1.24365
1.24242
1.24303
1.24632
1.25315
1.26442
1.28101
1.30362
1.33256
1.36753
1.40756
1.45088
1.49416
1.53313
1.56388
1.584
1.59327
1.59398
1.59042
1.58785
1.59107
1.60325
1.62416
1.65193
1.68458
1.71971
1.75522
1.78969
1.82264
1.85432
1.8854
1.91659
1.94829
1.98059
2.01341
2.04681
2.0813
2.11795
2.15833
2.20483
2.26062
2.32776
2.4014
2.46814
2.51154
2.51688
2.47598
2.39032
2.27174
2.1402
2.019
1.9276
1.86922
1.83717
1.82892
1.84065
1.86579
1.89667
1.92443
1.93969
1.93407
1.90011
1.83133
1.64321
1.27241
0.766851
0.201628
0
0.643919
2.2397
4.54381
6.9952
8.9197
9.79407
9.44206
8.0768
6.18625
4.33004
2.9415
2.20754
2.05808
2.24521
2.28096
2.30815
2.32928
2.34473
2.35662
2.36834
2.38372
2.40611
2.43718
2.47746
2.5266
2.58347
2.64656
2.71444
2.78615
2.86125
2.93979
3.02201
3.10799
3.19739
3.28936
3.38266
3.47597
3.5682
3.65879
3.74785
3.83604
3.92432
4.0136
4.10445
4.1969
4.2905
4.38449
4.47814
4.57091
4.66256
4.75281
4.84062
4.92222
4.99008
5.03259
5.03664
4.99141
4.89164
4.73897
4.54119
4.3103
4.06022
3.80631
3.55726
3.31839
3.09458
2.88969
2.70614
2.54487
2.40543
2.28601
2.18389
2.09598
2.01932
1.95135
1.89002
1.83377
1.78133
1.73113
1.68146
1.63077
1.57802
1.523
1.46653
1.41028
1.35639
1.30696
1.26322
1.22578
1.19489
1.17034
1.15168
1.13837
1.1299
1.12586
1.12592
1.1297
1.13674
1.14639
1.15784
1.16983
1.18077
1.18923
1.19428
1.19584
1.1947
1.19235
1.19046
1.19035
1.19261
1.19695
1.20289
1.20999
1.21819
1.22795
1.24016
1.25578
1.27569
1.29981
1.32597
1.35025
1.36815
1.37599
1.37218
1.358
1.33772
1.31774
1.30538
1.30703
1.32589
1.36154
1.41293
1.47797
1.55187
1.62514
1.68497
1.71928
1.7187
1.67869
1.60119
1.49504
1.37444
1.25555
1.15225
1.06828
0.999836
0.943571
0.896619
0.854968
0.814007
0.769031
0.715682
0.650294
0.567719
0.458887
0.323361
0.167182
0
-0.0542421
0.458359
1.72844
3.65099
5.78538
7.51215
8.30986
7.99227
6.76554
5.08785
3.43508
2.11838
1.23617
0.740143
0.560701
0.722586
0.885979
1.04492
1.19189
1.31873
1.41927
1.49465
1.54676
1.58116
1.60563
1.62805
1.65438
1.68699
1.72525
1.76825
1.81501
1.86525
1.91986
1.98103
2.0519
2.13598
2.236
2.35296
2.48692
2.63653
2.79874
2.96906
3.14199
3.31157
3.47229
3.61963
3.7505
3.86208
3.95318
4.02421
4.07583
4.1085
4.12216
4.11621
4.08964
4.04128
3.97009
3.87623
3.76006
3.62211
3.46354
3.28616
3.09285
2.88748
2.67397
2.45698
2.24173
2.03365
1.83798
1.65936
1.50143
1.36664
1.25606
1.16981
1.10848
1.07129
1.05215
1.04195
1.03135
1.01241
0.980057
0.93294
0.873349
0.806379
0.738577
0.676066
0.622601
0.580483
0.551633
0.536764
0.535402
0.546329
0.567369
0.595307
0.62644
0.657236
0.684811
0.707312
0.724136
0.735928
0.744338
0.751591
0.759944
0.77112
0.785866
0.803982
0.8241
0.843906
0.860832
0.872716
0.878371
0.877941
0.872937
0.865987
0.860355
0.859361
0.865544
0.880334
0.904282
0.937257
0.978297
1.0257
1.07724
1.13037
1.1824
1.23089
1.27385
1.30998
1.33879
1.36066
1.37684
1.38935
1.40086
1.41443
1.43318
1.46022
1.4999
1.55712
1.62967
1.70587
1.77075
1.81029
1.81548
1.7845
1.72266
1.64045
1.55069
1.46518
1.38969
1.32553
1.27207
1.22799
1.19048
1.15559
1.11879
1.07556
1.02183
0.951582
0.84594
0.670139
0.433028
0.15283
-0.148306
0
0.857262
2.47775
4.62079
6.79942
8.44601
9.12233
8.6834
7.32616
5.50455
3.74819
2.46431
1.81116
1.69495
1.86096
1.9168
1.96483
2.00524
2.03773
2.06338
2.08421
2.10235
2.11929
2.13541
2.14995
2.16159
2.16945
2.17393
2.17724
2.18321
2.19658
2.22198
2.26219
2.31744
2.38718
2.47078
2.56727
2.6756
2.79486
2.92426
3.06293
3.20945
3.36155
3.51596
3.66796
3.81203
3.94285
4.05625
4.14979
4.22281
4.27602
4.3107
4.32787
4.32778
4.30952
4.2714
4.21147
4.12815
4.02077
3.88974
3.73663
3.56431
3.37643
3.17663
2.9682
2.75452
2.53921
2.32618
2.11963
1.924
1.74372
1.58299
1.44573
1.33439
1.25
1.19233
1.16135
1.15406
1.16377
1.18212
1.20066
1.21202
1.21073
1.19386
1.16118
1.115
1.05965
1.00073
0.944181
0.895244
0.857329
0.832528
0.822171
0.826404
0.844356
0.874329
0.91392
0.960168
1.01004
1.06002
1.10639
1.1458
1.17576
1.19508
1.20416
1.20505
1.20129
1.19746
1.19848
1.20895
1.23217
1.26937
1.32079
1.38815
1.47276
1.56864
1.66044
1.73141
1.76763
1.76229
1.71812
1.64678
1.56525
1.49078
1.4357
1.40054
1.38227
1.37936
1.39147
1.41852
1.46022
1.51607
1.58539
1.66753
1.76208
1.86873
1.98405
2.09614
2.18867
2.24535
2.25434
2.21236
2.12608
2.00979
1.88032
1.75177
1.63071
1.51691
1.40935
1.30778
1.21259
1.12464
1.04425
0.971057
0.903621
0.838976
0.772375
0.688139
0.534916
0.297054
0
-0.330522
0.0468835
1.41603
3.64348
6.16622
8.23425
9.25349
9.0293
7.79083
6.02414
4.24193
2.81516
1.9123
1.51924
1.4964
1.55691
1.598
1.63378
1.66462
1.69071
1.71242
1.7303
1.74505
1.75764
1.76951
1.78272
1.80004
1.82478
1.86047
1.91031
1.97623
2.05883
2.15756
2.27049
2.39434
2.52506
2.65835
2.79044
2.9186
3.04153
3.15933
3.27324
3.38507
3.49667
3.60933
3.72336
3.83796
3.95058
4.05616
4.14865
4.22178
4.27011
4.28996
4.27976
4.24007
4.17308
4.08194
3.97012
3.84259
3.70322
3.55443
3.39777
3.23439
3.06529
2.89156
2.71482
2.5373
2.36173
2.19106
2.02816
1.87599
1.73535
1.60506
1.48312
1.36791
1.25923
1.15883
1.06998
0.996248
0.942642
0.911901
0.898267
0.892396
0.884445
0.867314
0.838706
0.801312
0.761292
0.725859
0.700398
0.685653
0.680413
0.683354
0.69293
0.706735
0.721955
0.736222
0.74807
0.757184
0.764389
0.771367
0.780179
0.792735
0.810307
0.83316
0.86093
0.892916
0.928103
0.96527
1.00293
1.03908
1.07108
1.09602
1.11107
1.11398
1.10377
1.08128
1.04929
1.01243
0.976474
0.947468
0.930129
0.926857
0.941515
0.976949
1.03083
1.09199
1.14526
1.17717
1.18012
1.15549
1.11466
1.07714
1.06592
1.10107
1.20385
1.40755
1.66135
1.8946
2.04828
2.09699
2.05204
1.94746
1.8204
1.69784
1.59144
1.49931
1.41927
1.35093
1.29446
1.24957
1.21513
1.18949
1.17012
1.15295
1.13289
1.10201
1.02209
0.790683
0.426856
0
-0.424956
-0.0634575
1.24673
3.38663
5.83249
7.85673
8.86097
8.64449
7.45267
5.80063
4.20678
2.99507
2.24389
1.8538
1.65928
1.55125
1.47289
1.42446
1.41707
1.45669
1.54234
1.66572
1.81253
1.96536
2.1076
2.23193
2.3372
2.42179
2.48716
2.53748
2.57882
2.618
2.66151
2.71459
2.7798
2.85767
2.94809
3.05035
3.16311
3.28462
3.41289
3.5458
3.68119
3.81688
3.95074
4.08056
4.20354
4.31569
4.41207
4.48894
4.54286
4.5714
4.57393
4.55191
4.50865
4.44842
4.3753
4.2924
4.20212
4.10549
4.00243
3.8923
3.77441
3.6483
3.51379
3.37101
3.22025
3.06198
2.89681
2.72559
2.54968
2.37124
2.19355
2.02172
1.86418
1.72928
1.6247
1.5555
1.52317
1.52745
1.55875
1.60427
1.65077
1.68696
1.70505
1.70116
1.67489
1.6285
1.56651
1.49429
1.41668
1.33831
1.26349
1.1967
1.14329
1.10772
1.09371
1.10372
1.13817
1.19493
1.26924
1.3543
1.44237
1.52604
1.60044
1.66378
1.71352
1.74892
1.77029
1.77878
1.7761
1.76432
1.7455
1.72151
1.69383
1.6636
1.63187
1.59981
1.56909
1.54191
1.52066
1.5074
1.5033
1.50839
1.52168
1.54163
1.56678
1.59616
1.62946
1.66726
1.71046
1.75984
1.81564
1.8778
1.94553
2.01545
2.07925
2.12563
2.14282
2.12163
2.05846
1.95723
1.82924
1.69088
1.55983
1.44863
1.35877
1.28886
1.23929
1.20878
1.19323
1.18485
1.1748
1.15446
1.11639
1.04503
0.892842
0.632532
0.317152
-0.00371385
-0.310716
0
1.0505
2.8512
5.07396
7.11814
8.37255
8.51406
7.64567
6.19284
4.65042
3.35995
2.43799
1.83986
1.46467
1.2947
1.20926
1.16621
1.18062
1.25834
1.39229
1.56183
1.73697
1.88747
1.99755
2.07649
2.13741
2.18563
2.22655
2.26545
2.30655
2.35219
2.40325
2.45976
2.52108
2.5862
2.65449
2.72614
2.80244
2.88559
2.97836
3.08349
3.20295
3.33735
3.48595
3.64805
3.82083
3.99668
4.16265
4.30512
4.41251
4.47647
4.49298
4.46317
4.39335
4.29419
4.17842
4.05773
3.93916
3.82363
3.70919
3.59358
3.47473
3.35101
3.22171
3.08717
2.94863
2.8077
2.66597
2.52449
2.38371
2.24365
2.10438
1.96655
1.83185
1.70331
1.58494
1.48086
1.39451
1.32794
1.28201
1.25448
1.24153
1.23868
1.24169
1.24726
1.25334
1.25898
1.26415
1.26934
1.27531
1.28299
1.29342
1.3077
1.3267
1.35092
1.38057
1.41445
1.44878
1.47847
1.49876
1.50697
1.50365
1.49298
1.48196
1.47889
1.4914
1.52475
1.5923
1.70482
1.84204
1.96775
2.0457
2.05178
1.98473
1.86963
1.74982
1.66933
1.65406
1.68253
1.72949
1.78397
1.84015
1.8932
1.93977
1.97829
2.00899
2.03354
2.05468
2.0757
2.09986
2.12988
2.16806
2.21567
2.27174
2.33129
2.38484
2.42137
2.43084
2.4066
2.34724
2.25741
2.14725
2.03044
1.92143
1.83045
1.75987
1.70915
1.67903
1.66975
1.68127
1.71411
1.76756
1.83466
1.90533
1.96904
2.01606
1.93983
1.48421
0.806523
0.121903
-0.365635
0
1.38314
3.67593
6.37313
8.75079
10.1746
10.3657
9.46929
7.91211
6.16816
4.58541
3.34152
2.48869
2.00672
1.85207
1.88401
1.92056
1.95981
2.00182
2.04664
2.09424
2.14431
2.19644
2.25017
2.30496
2.36026
2.41565
2.47088
2.52598
2.58118
2.63688
2.69356
2.75173
2.81183
2.87434
2.9398
3.00902
3.08316
3.16381
3.25278
3.35182
3.46214
3.58386
3.71563
3.85458
3.99608
4.13324
4.25851
4.36487
4.44671
4.50027
4.52364
4.51632
4.47864
4.4113
4.31538
4.19275
4.04587
3.87829
3.69469
3.50068
3.30241
3.10609
2.91742
2.7408
2.57892
2.43258
2.30093
2.18181
2.0724
1.96968
1.87102
1.77447
1.67901
1.58463
1.49213
1.40282
1.31806
1.23889
1.16568
1.09759
1.03303
0.97035
0.908623
0.848619
0.79377
0.749711
0.722834
0.718257
0.738081
0.780527
0.840187
0.909203
0.978829
1.04171
1.0929
1.12762
1.14299
1.13782
1.11278
1.07062
1.01606
0.95548
0.899569
0.859523
0.844849
0.861251
0.909197
0.983663
1.07516
1.17178
1.26171
1.33799
1.39605
1.43386
1.45225
1.45418
1.44393
1.42612
1.40511
1.38449
1.36688
1.35442
1.34921
1.3535
1.36972
1.40045
1.44806
1.51432
1.6004
1.71122
1.85219
2.01482
2.17575
2.31045
2.39942
2.43241
2.40922
2.33755
2.22947
2.09816
1.95646
1.81497
1.68017
1.55609
1.44555
1.35067
1.27359
1.21756
1.18795
1.18709
1.19919
1.19884
1.15827
1.0544
0.854927
0.569961
0.232335
-0.214384
0
1.18027
3.29932
5.91407
8.3024
9.76506
9.92547
8.86232
7.01872
4.96946
3.19484
1.9636
1.33382
1.21359
1.42533
1.5783
1.71983
1.84853
1.96064
2.05444
2.13038
2.19082
2.23965
2.2817
2.32218
2.36607
2.4177
2.48035
2.55571
2.64397
2.74404
2.85344
2.96914
3.08593
3.19777
3.2997
3.3891
3.46654
3.53586
3.60354
3.67735
3.76474
3.86986
3.99353
4.13549
4.29528
4.47151
4.65852
4.84412
5.01148
5.14552
5.23418
5.26903
5.24533
5.16213
5.02272
4.83528
4.61347
4.37618
4.14285
3.9255
3.72875
3.55411
3.40354
3.27601
3.1683
3.07565
2.9927
2.91423
2.83579
2.75406
2.66698
2.57389
2.47536
2.3729
2.26894
2.16669
2.06996
1.98279
1.90887
1.85096
1.8105
1.78737
1.77986
1.78503
1.79876
1.81623
1.8328
1.84456
1.84878
1.84408
1.83045
1.80913
1.78243
1.7535
1.72576
1.70256
1.68685
1.6817
1.69074
1.71496
1.74727
1.77809
1.79878
1.80493
1.7984
1.78688
1.78118
1.79103
1.82304
1.87759
1.94093
1.99444
2.02203
2.01633
1.98129
1.93049
1.88193
1.85163
1.84585
1.85945
1.88627
1.92244
1.96543
2.01319
2.06431
2.118
2.17388
2.23163
2.29061
2.34953
2.40604
2.45641
2.49564
2.51876
2.52119
2.49976
2.45355
2.38459
2.29798
2.20141
2.10409
2.01508
1.94029
1.88232
1.84409
1.82721
1.83092
1.84994
1.87691
1.90378
1.91807
1.79381
1.33898
0.671602
0
-0.369124
0.157079
1.72753
4.13951
6.782
8.86142
9.75093
9.26898
7.73062
5.75704
3.97363
2.7684
2.214
2.14284
2.26162
2.281
2.29535
2.30644
2.31507
2.32232
2.3294
2.33747
2.3475
2.36042
2.37727
2.39936
2.4283
2.46585
2.51364
2.57267
2.64294
2.72304
2.81035
2.90159
2.99323
3.08184
3.16471
3.24056
3.30978
3.37434
3.43755
3.50353
3.57646
3.6599
3.7562
3.86576
3.98752
4.12023
4.26046
4.39961
4.5253
4.62526
4.68903
4.70933
4.68265
4.60895
4.4905
4.33088
4.13464
3.91193
3.67389
3.42968
3.18695
2.95259
2.73299
2.53383
2.35917
2.20883
2.07999
1.96807
1.86801
1.77544
1.68749
1.60295
1.52196
1.44527
1.3732
1.30582
1.24252
1.18227
1.12399
1.06704
1.01146
0.957998
0.907821
0.862231
0.822381
0.788921
0.762213
0.74268
0.731153
0.728542
0.735846
0.753732
0.782094
0.819794
0.8647
0.913989
0.964589
1.0137
1.05897
1.09855
1.13133
1.15685
1.17538
1.18791
1.19607
1.20192
1.20766
1.21524
1.22592
1.24022
1.25799
1.27806
1.2987
1.31839
1.33652
1.35363
1.37133
1.39168
1.41635
1.44702
1.48169
1.51629
1.54659
1.57029
1.58838
1.60496
1.62563
1.65514
1.69536
1.74264
1.79296
1.8421
1.88515
1.91776
1.93679
1.94051
1.92865
1.90209
1.86261
1.81253
1.75445
1.69134
1.62613
1.56128
1.49893
1.44075
1.38777
1.3399
1.29575
1.25272
1.20724
1.15516
1.08829
0.978037
0.766304
0.471452
0.129765
-0.226551
0
1.05848
2.98211
5.42279
7.74252
9.27344
9.60896
8.7652
7.1325
5.26388
3.631
2.4757
1.80597
1.49505
1.45233
1.53783
1.62721
1.71649
1.80253
1.88248
1.95448
2.01849
2.07537
2.12734
2.17759
2.22962
2.28651
2.35028
2.42134
2.49889
2.58143
2.66703
2.7538
2.84028
2.92579
3.01056
3.09565
3.18273
3.27374
3.37049
3.47428
3.58557
3.70398
3.8282
3.95578
4.08266
4.20188
4.30399
4.38076
4.42549
4.43457
4.40873
4.35324
4.27648
4.18721
4.09172
3.99244
3.88908
3.78045
3.66486
3.5406
3.40668
3.26293
3.11007
2.94967
2.78389
2.61546
2.4475
2.28334
2.12618
1.97871
1.84264
1.71897
1.60747
1.50494
1.40718
1.31015
1.21123
1.11003
1.00869
0.911359
0.823179
0.749039
0.692093
0.654455
0.636648
0.637853
0.656244
0.688566
0.731338
0.781263
0.834711
0.887434
0.935292
0.97472
1.00308
1.01882
1.0214
1.01107
0.988564
0.95505
0.912542
0.862499
0.807935
0.754777
0.710914
0.684492
0.682089
0.706904
0.757602
0.828267
0.909611
0.991114
1.06356
1.12269
1.16812
1.20025
1.22118
1.23382
1.24102
1.2452
1.24779
1.2498
1.25222
1.2565
1.26486
1.28025
1.30601
1.34518
1.39981
1.47319
1.56807
1.6787
1.7878
1.87623
1.928
1.93406
1.89381
1.81399
1.70566
1.58072
1.44974
1.32108
1.19918
1.0871
0.988189
0.906165
0.845901
0.813793
0.814981
0.846582
0.893452
0.934139
0.947021
0.914121
0.823998
0.673534
0.46853
0.222809
-0.0442884
-0.314265
0
1.08734
2.93036
5.18871
7.29483
8.67172
8.95728
8.13037
6.49678
4.56069
2.83921
1.68404
1.17755
1.14864
1.24769
1.30282
1.35777
1.41504
1.47615
1.54121
1.60886
1.67627
1.73976
1.79567
1.84132
1.87564
1.89941
1.91519
1.92683
1.93888
1.95575
1.98103
2.01745
2.06689
2.13018
2.20711
2.29645
2.39626
2.50412
2.61751
2.7341
2.85188
2.96926
3.08488
3.19742
3.30536
3.40675
3.49983
3.58306
3.65547
3.71679
3.76728
3.80722
3.83447
3.84413
3.83059
3.78602
3.70235
3.57399
3.40012
3.18579
2.94118
2.67944
2.41387
2.15319
1.90182
1.66251
1.43616
1.22249
1.02096
0.831541
0.65528
0.494619
0.352874
0.233796
0.144946
0.10599
0.147657
0.265893
0.413016
0.53674
0.596914
0.576438
0.483335
0.345009
0.198808
0.0827988
0.0176714
-0.00414383
0.0056159
0.0392358
0.091464
0.158265
0.23434
0.313175
0.387829
0.452026
0.501139
0.532518
0.545629
0.541945
0.52462
0.497971
0.466827
0.435834
0.408753
0.387844
0.374043
0.367659
0.368646
0.376735
0.391663
0.413241
0.441244
0.475174
0.514008
0.556081
0.599007
0.63987
0.675753
0.704228
0.723765
0.733931
0.735381
0.729647
0.718825
0.705277
0.691265
0.678714
0.669173
0.663774
0.663284
0.668267
0.679305
0.69726
0.723467
0.75979
0.809562
0.883726
1.00915
1.21453
1.47155
1.71573
1.89122
1.96709
1.93711
1.81021
128
296
469
667
850
1021
1196
1363
1523
1685
1845
2007
2166
2329
2490
2651
2812
2973
3132
3288
3448
3609
0
0
0
0
0
0
0
0
0
0
0
0
0
0
0
0
0
0
0
0
0
0
0
0
0
0
0
0
0
0
0
0
0
0
0
0
0
0
0
0
0
0
0
0
0
0
0
0
0
0
0
0
0
0
0
0
0
0
0
0
0
0
0
0
0
0
0
0
0
0
0
0
0
0
0
0
0
0
0
0
0
0
0
0
0
0
0
0
0
0
0
0
0
0
0
0
0
0
0
0
0
0
0
0
0
0
0
0
0
0
0
0
0
0
0
0
0
0
0
0
0
0
0
0
0
0
0
0
0
0
0
0
0
0
0
0
0
0
0
0
0
0
0
0
0
0
0
0
0
0
0
0
0
0
0
0
0
0
0
0
0
0
0
0
0
0
0
0
0
0
0
0
0
0
0
0
0
0
0
0
0
0
0
0
0
0
0
0
0
0
0
0
0
0
0
0
0
0
0
0
0
0
0
0
0
0
0
0
0
0
0
0
0
0
0
0
0
0
0
0
0
0
0
0
0
0
0
0
0
0
0
0
0
0
0
0
0
0
0
0
0
0
0
0
0
0
0
0
0
0
0
0
0
0
0
0
0
0
0
0
0
0
0
0
0
0
0
0
0
0
0
0
0
0
0
0
0
0
0
0
0
0
0
0
0
0
0
0
0
0
0
0
0
0
0
0
0
0
0
0
0
0
0
0
0
0
0
0
0
0
0
0
0
0
0
0
0
0
0
0
0
0
0
0
0
0
0
0
0
0
0
0
0
0
0
0
0
0
0
0
0
0
0
0
0
0
0
0
0
0
0
0
0
0
0
0
0
0
0
0
0
0
0
0
0
0
0
0
0
0
0
0
0
0
0
0
0
0
0
0
0
0
0
0
0
0
0
0
0
0
0
0
0
0
0
0
0
0
0
0
0
0
0
0
0
0
0
0
0
0
0
0
0
0
0
0
0
0
0
0
0
0
0
0
0
0
0
0
0
0
0
0
0
0
0
0
0
0
0
0
0
0
0
0
0
0
0
0
0
0
0
0
0
0
0
0
0
0
0
0
0
0
0
0
0
0
0
0
0
0
0
0
0
0
0
0
0
0
0
0
0
0
0
0
0
0
0
0
0
0
0
0
0
0
0
0
0
0
0
0
0
0
0
0
0
0
0
0
0
0
0
0
0
0
0
0
0
0
0
0
0
0
0
0
0
0
0
0
0
0
0
0
0
0
0
0
0
0
0
0
0
0
0
0
0
0
0
0
0
0
0
0
0
0
0
0
0
0
0
0
0
0
0
0
0
0
0
0
0
0
0
0
0
0
0
0
0
0
0
0
0
0
0
0
0
0
0
0
0
0
0
0
0
0
0
0
0
0
0
0
0
0
0
0
0
0
0
0
0
0
0
0
0
0
0
0
0
0
0
0
0
0
0
0
0
0
0
0
0
0
0
0
0
0
0
0
0
0
0
0
0
0
0
0
0
0
0
0
0
0
0
0
0
0
0
0
0
0
0
0
0
0
0
0
0
0
0
0
0
0
0
0
0
0
0
0
0
0
0
0
0
0
0
0
0
0
0
0
0
0
0
0
0
0
0
0
0
0
0
0
0
0
0
0
0
0
0
0
0
0
0
0
0
0
0
0
0
0
0
0
0
0
0
0
0
0
0
0
0
0
0
0
0
0
0
0
0
0
0
0
0
0
0
0
0
0
0
0
0
0
0
0
0
0
0
0
0
0
0
0
0
0
0
0
0
0
0
0
0
0
0
0
0
0
0
0
0
0
0
0
0
0
0
0
0
0
0
0
0
0
0
0
0
0
0
0
0
0
0
0
0
0
0
0
0
0
0
0
0
0
0
0
0
0
0
0
0
0
0
0
0
0
0
0
0
0
0
0
0
0
0
0
0
0
0
0
0
0
0
0
0
0
0
0
0
0
0
0
0
0
0
0
0
0
0
0
0
0
0
0
0
0
0
0
0
0
0
0
0
0
0
0
0
0
0
0
0
0
0
0
0
0
0
0
0
0
0
0
0
0
0
0
0
0
0
0
0
0
0
0
0
0
0
0
0
0
0
0
0
0
0
0
0
0
0
0
0
0
0
0
0
0
0
0
0
0
0
0
0
0
0
0
0
0
0
0
0
0
0
0
0
0
0
0
0
0
0
0
0
0
0
0
0
0
0
0
0
0
0
0
0
0
0
0
0
0
0
0
0
0
0
0
0
0
0
0
0
0
0
0
0
0
0
0
0
0
0
0
0
0
0
0
0
0
0
0
0
0
0
0
0
0
0
0
0
0
0
0
0
0
0
0
0
0
0
0
0
0
0
0
0
0
0
0
0
0
0
0
0
0
0
0
0
0
0
0
0
0
0
0
0
0
0
0
0
0
0
0
0
0
0
0
0
0
0
0
0
0
0
0
0
0
0
0
0
0
0
0
0
0
0
0
0
0
0
0
0
0
0
0
0
0
0
0
0
0
0
0
0
0
0
0
0
0
0
0
0
0
0
0
0
0
0
0
0
0
0
0
0
0
0
0
0
0
0
0
0
0
0
0
0
0
0
0
0
0
0
0
0
0
0
0
0
0
0
0
0
0
0
0
0
0
0
0
0
0
0
0
0
0
0
0
0
0
0
0
0
0
0
0
0
0
0
0
0
0
0
0
0
0
0
0
0
0
0
0
0
0
0
0
0
0
0
0
0
0
0
0
0
0
0
0
0
0
0
0
0
0
0
0
0
0
0
0
0
0
0
0
0
0
0
0
0
0
0
0
0
0
0
0
0
0
0
0
0
0
0
0
0
0
0
0
0
0
0
0
0
0
0
0
0
0
0
0
0
0
0
0
0
0
0
0
0
0
0
0
0
0
0
0
0
0
0
0
0
0
0
0
0
0
0
0
0
0
0
0
0
0
0
0
0
0
0
0
0
0
0
0
0
0
0
0
0
0
0
0
0
0
0
0
0
0
0
0
0
0
0
0
0
0
0
0
0
0
0
0
0
0
0
0
0
0
0
0
0
0
0
0
0
0
0
0
0
0
0
0
0
0
0
0
0
0
0
0
0
0
0
0
0
0
0
0
0
0
0
0
0
0
0
0
0
0
0
0
0
0
0
0
0
0
0
0
0
0
0
0
0
0
0
0
0
0
0
0
0
0
0
0
0
0
0
0
0
0
0
0
0
0
0
0
0
0
0
0
0
0
0
0
0
0
0
0
0
0
0
0
0
0
0
0
0
0
0
0
0
0
0
0
0
0
0
0
0
0
0
0
0
0
0
0
0
0
0
0
0
0
0
0
0
0
0
0
0
0
0
0
0
0
0
0
0
0
0
0
0
0
0
0
0
0
0
0
0
0
0
0
0
0
0
0
0
0
0
0
0
0
0
0
0
0
0
0
0
0
0
0
0
0
0
0
0
0
0
0
0
0
0
0
0
0
0
0
0
0
0
0
0
0
0
0
0
0
0
0
0
0
0
0
0
0
0
0
0
0
0
0
0
0
0
0
0
0
0
0
0
0
0
0
0
0
0
0
0
0
0
0
0
0
0
0
0
0
0
0
0
0
0
0
0
0
0
0
0
0
0
0
0
0
0
0
0
0
0
0
0
0
0
0
0
0
0
0
0
0
0
0
0
0
0
0
0
0
0
0
0
0
0
0
0
0
0
0
0
0
0
0
0
0
0
0
0
0
0
0
0
0
0
0
0
0
0
0
0
0
0
0
0
0
0
0
0
0
0
0
0
0
0
0
0
0
0
0
0
0
0
0
0
0
0
0
0
0
0
0
0
0
0
0
0
0
0
0
0
0
0
0
0
0
0
0
0
0
0
0
0
0
0
0
0
0
0
0
0
0
0
0
0
0
0
0
0
0
0
0
0
0
0
0
0
0
0
0
0
0
0
0
0
0
0
0
0
0
0
0
0
0
0
0
0
0
0
0
0
0
0
0
0
0
0
0
0
0
0
0
0
0
0
0
0
0
0
0
0
0
0
0
0
0
0
0
0
0
0
0
0
0
0
0
0
0
0
0
0
0
0
0
0
0
0
0
0
0
0
0
0
0
0
0
0
0
0
0
0
0
0
0
0
0
0
0
0
0
0
0
0
0
0
0
0
0
0
0
0
0
0
0
0
0
0
0
0
0
0
0
0
0
0
0
0
0
0
0
0
0
0
0
0
0
0
0
0
0
0
0
0
0
0
0
0
0
0
0
0
0
0
0
0
0
0
0
0
0
0
0
0
0
0
0
0
0
0
0
0
0
0
0
0
0
0
0
0
0
0
0
0
0
0
0
0
0
0
0
0
0
0
0
0
0
0
0
0
0
0
0
0
0
0
0
0
0
0
0
0
0
0
0
0
0
0
0
0
0
0
0
0
0
0
0
0
0
0
0
0
0
0
0
0
0
0
0
0
0
0
0
0
0
0
0
0
0
0
0
0
0
0
0
0
0
0
0
0
0
0
0
0
0
0
0
0
0
0
0
0
0
0
0
0
0
0
0
0
0
0
0
0
0
0
0
0
0
0
0
0
0
0
0
0
0
0
0
0
0
0
0
0
0
0
0
0
0
0
0
0
0
0
0
0
0
0
0
0
0
0
0
0
0
0
0
0
0
0
0
0
0
0
0
0
0
0
0
0
0
0
0
0
0
0
0
0
0
0
0
0
0
0
0
0
0
0
0
0
0
0
0
0
0
0
0
0
0
0
0
0
0
0
0
0
0
0
0
0
0
0
0
0
0
0
0
0
0
0
0
0
0
0
0
0
0
0
0
0
0
0
0
0
0
0
0
0
0
0
0
0
0
0
0
0
0
0
0
0
0
0
0
0
0
0
0
0
0
0
0
0
0
0
0
0
0
0
0
0
0
0
0
0
0
0
0
0
0
0
0
0
0
0
0
0
0
0
0
0
0
0
0
0
0
0
0
0
0
0
0
0
0
0
0
0
0
0
0
0
0
0
0
0
0
0
0
0
0
0
0
0
0
0
0
0
0
0
0
0
0
0
0
0
0
0
0
0
0
0
0
0
0
0
0
0
0
0
0
0
0
0
0
0
0
0
0
0
0
0
0
0
0
0
0
0
0
0
0
0
0
0
0
0
0
0
0
0
0
0
0
0
0
0
0
0
0
0
0
0
0
0
0
0
0
0
0
0
0
0
0
0
0
0
0
0
0
0
0
0
0
0
0
0
0
0
0
0
0
0
0
0
0
0
0
0
0
0
0
0
0
0
0
0
0
0
0
0
0
0
0
0
0
0
0
0
0
0
0
0
0
0
0
0
0
0
0
0
0
0
0
0
0
0
0
0
0
0
0
0
0
0
0
0
0
0
0
0
0
0
0
0
0
0
0
0
0
0
0
0
0
0
0
0
0
0
0
0
0
0
0
0
0
0
0
0
0
0
0
0
0
0
0
0
0
0
0
0
0
0
0
0
0
0
0
0
0
0
0
0
0
0
0
0
0
0
0
0
0
0
0
0
0
0
0
0
0
0
0
0
0
0
0
0
0
0
0
0
0
0
0
0
0
0
0
0
0
0
0
0
0
0
0
0
0
0
0
0
0
0
0
0
0
0
0
0
0
0
0
0
0
0
0
0
0
0
0
0
0
0
0
0
0
0
0
0
0
0
0
0
0
0
0
0
0
0
0
0
0
0
0
0
0
0
0
0
0
0
0
0
0
0
0
0
0
0
0
0
0
0
0
0
0
0
0
0
0
0
0
0
0
0
0
0
0
0
0
0
0
0
0
0
0
0
0
0
0
0
0
0
0
0
0
0
0
0
0
0
0
0
0
0
0
0
0
0
0
0
0
0
0
0
0
0
0
0
0
0
0
0
0
0
0
0
0
0
0
0
0
0
0
0
0
0
0
0
0
0
0
0
0
0
0
0
0
0
0
0
0
0
0
0
0
0
0
0
0
0
0
0
0
0
0
0
0
0
0
0
0
0
0
0
0
0
0
0
0
0
0
0
0
0
0
0
0
0
0
0
0
0
0
0
0
0
0
0
0
0
0
0
0
0
0
0
0
0
0
0
0
0
0
0
0
0
0
0
0
0
0
0
0
0
0
0
0
0
0
0
0
0
0
0
0
0
0
0
0
0
0
0
0
0
0
0
0
0
0
0
0
0
0
0
0
0
0
0
0
0
0
0
0
0
0
0
0
0
0
0
0
0
0
0
0
0
0
0
0
0
0
0
0
0
0
0
0
0
0
0
0
0
0
0
0
0
0
0
0
0
0
0
0
0
0
0
0
0
0
0
0
0
0
0
0
0
0
0
0
0
0
0
0
0
0
0
0
0
0
0
0
0
0
0
0
0
0
0
0
0
0
0
0
0
0
0
0
0
0
0
0
0
0
0
0
0
0
0
0
0
0
0
0
0
0
0
0
0
0
0
0
0
0
0
0
0
0
0
0
0
0
0
0
0
0
0
0
0
0
0
0
0
0
0
0
0
0
0
0
0
0
0
0
0
0
0
0
0
0
0
0
0
0
0
0
0
0
0
0
0
0
0
0
0
0
0
0
0
0
0
0
0
0
0
0
0
0
0
0
0
0
0
0
0
0
0
0
0
0
0
0
0
0
0
0
0
0
0
0
0
0
0
0
0
0
0
0
0
0
0
0
0
0
0
0
0
0
0
0
0
0
0
0
0
0
0
0
0
0
0
0
0
0
0
0
0
0
0
0
0
0
0
0
0
0
0
0
0
0
0
0
0
0
0
0
0
0
0
0
0
0
0
0
0
0
0
0
0
0
0
0
0
0
0
0
0
0
0
0
0
0
0
0
0
0
0
0
0
0
0
0
0
0
0
0
0
0
0
0
0
0
0
0
0
0
0
0
0
0
0
0
0
0
0
0
0
0
0
0
0
0
0
0
0
0
0
0
0
0
0
0
0
0
0
0
0
0
0
0
0
0
0
0
0
0
0
0
0
0
0
0
0
0
0
0
0
0
0
0
0
0
0
0
0
0
0
0
0
0
0
0
0
0
0
0
0
0
0
0
0
0
0
0
0
0
0
0
0
0
0
0
0
0
0
0
0
0
0
0
0
0
0
0
0
0
0
0
0
0
0
0
0
0
0
0
0
0
0
0
0
0
0
0
0
0
0
0
0
0
0
0
0
0
0
0
0
0
0
0
0
0
0
0
0
0
0
0
0
0
0
0
0
0
0
0
0
0
0
0
0
0
0
0
0
0
0
0
0
0
0
0
0
0
0
0
0
0
0
0
0
0
0
0
0
0
0
0
0
0
0
0
0
0
0
0
0
0
0
0
0
0
0
0
0
0
0
0
0
0
0
0
0
0
0
0
0
0
0
0
0
0
0
0
0
0
0
0
0
0
0
0
0
0
0
0
0
0
0
0
0
0
0
0
0
0
0
0
0
0
0
0
0
0
0
0
0
0
0
0
0
0
0
0
0
0
0
0
0
0
0
0
0
0
0
0
0
0
0
0
0
0
0
0
0
0
0
0
0
0
0
0
0
0
0
0
0
0
0
0
0
0
0
0
0
0
0
0
0
0
0
0
0
0
0
0
0
0
0
0
0
0
0
0
0
0
0
0
0
0
0
0
0
0
0
0
0
0
0
0
0
0
0
0
0
0
0
0
0
0
0
0
0
0
0
0
0
0
0
0
0
0
0
0
0
0
0
0
0
0
0
0
0
0
0
0
0
0
0
0
0
0
0
0
0
0
0
0
0
0
0
0
0
0
0
0
0
0
0
0
0
0
0
0
0
0
0
0
0
0
0
0
0
0
0
0
0
0
0
0
0
0
0
0
0
0
0
0
0
0
0
0
0
0
0
0
0
0
0
0
0
0
0
0
0
0
0
0
0
0
0
0
0
0
0
0
0
0
0
0
0
0
0
0
0
0
0
0
0
0
0
0
0
0
0
0
0
0
0
0
0
0
0
0
0
0
0
0
0
0
0
0
0
0
0
0
0
0
0
0
0
0
0
0
0
0
0
0
0
0
0
0
0
0
0
0
0
0
0
0
0
0
0
0
0
0
0
0
0
0
0
0
0
0
0
0
0
0
0
0
0
0
0
0
0
0
0
0
0
0
0
0
0
0
0
0
0
0
0
0
0
0
0
0
0
0
0
0
0
0
0
0
0
0
0
0
0
0
0
0
0
0
0
0
0
0
0
0
0
0
0
0
0
0
0
0
0
0
0
0
0
0
0
0
0
0
0
0
0
0
0
0
0
0
0
0
0
0
0
0
0
0
0
0
0
0
0
0
0
0
0
0
0
0
0
0
0
0
0
0
0
0
0
0
0
0
0
0
0
0
0
0
0
0
0
0
0
0
0
0
0
0
0
0
0
0
0
0
0
0
0
0
0
0
0
0
0
0
0
0
0
0
0
0
0
0
0
0
0
0
0
0
0
0
0
0
0
0
0
0
0
0
0
0
0
0
0
0
0
0
0
0
0
0
0
0
0
0
0
0
0
0
0
