1.11821
1.19882
1.27369
1.34191
1.40188
1.45172
1.48975
1.51498
1.52729
1.52717
1.51535
1.49259
1.45975
1.41592
1.35955
1.28871
1.20152
1.09724
0.97664
0.841104
0.693476
0.537899
0.379387
0.223236
0.0743879
-0.0624784
-0.18283
-0.283822
-0.364088
-0.423325
-0.462198
-0.482301
-0.486093
-0.476784
-0.458111
-0.433998
-0.408174
-0.383679
-0.362614
-0.345977
-0.333725
-0.325039
-0.318725
-0.313626
-0.308924
-0.304255
-0.299618
-0.295199
-0.291218
-0.287865
-0.285356
-0.284079
-0.284776
-0.288571
-0.296817
-0.310816
-0.331419
-0.358646
-0.391467
-0.427802
-0.464774
-0.499154
-0.528009
-0.548989
-0.560716
-0.562906
-0.556273
-0.542242
-0.522593
-0.499128
-0.473496
-0.447239
-0.422014
-0.400453
-0.386141
-0.383122
-0.395219
-0.42475
-0.47129
-0.530952
-0.596519
-0.658435
-0.703928
-0.685598
-0.537303
-0.314403
-0.105536
0.00739212
-0.0166639
-0.161548
-0.36287
-0.536897
-0.615784
-0.599523
-0.550525
-0.493015
-0.43513
-0.383392
-0.342491
-0.314827
-0.300553
-0.298073
-0.304783
-0.317805
-0.334378
-0.352121
-0.369187
-0.383772
-0.394112
-0.398599
-0.396069
-0.386131
-0.369392
-0.347376
-0.322415
-0.297066
-0.273569
-0.253426
-0.237237
-0.224829
-0.215591
-0.208928
-0.204448
-0.202104
-0.202024
-0.204139
-0.207771
-0.211322
-0.212182
-0.206931
-0.191818
-0.164099
-0.122136
-0.0652809
0.005303
0.0871748
0.176066
0.266272
0.35238
0.430269
0.497699
0.554307
0.60103
0.638672
0.666031
0.680775
0.678993
0.655989
0.608779
0.538348
0.450643
0.355705
0.265151
0.188916
0.130937
0.0917896
0.0670023
0.0490299
0.0293137
0
-0.0510998
-0.122546
-0.217344
-0.337085
-0.478697
-0.640339
-0.82057
-1.0117
-1.45975
-1.57246
-0.903001
0.831758
3.48955
6.40351
8.58922
9.19896
7.97185
5.39199
2.44086
0.0959404
-1.11313
-1.24143
-0.737664
-0.278484
0.0556997
0.233733
0.253829
0.15265
-0.0185049
-0.204704
-0.34532
-0.395738
-0.375271
-0.315338
-0.230528
-0.127897
-0.0249634
0.0607365
0.116468
0.137959
0.130551
0.107281
0.0844177
0.0759819
0.0880749
0.115253
0.150708
0.189952
0.228796
0.263997
0.293952
0.319001
0.341314
0.364416
0.392448
0.429011
0.476566
0.536101
0.606695
0.685538
0.76861
0.850784
0.927265
0.994569
1.0512
1.09786
1.13724
1.17329
1.2104
1.25245
1.30186
1.35951
1.4251
1.49739
1.57455
1.6545
1.73567
1.81738
1.89985
1.98396
2.07092
2.16213
2.25704
2.35195
2.44092
2.5162
2.56897
2.5927
2.58234
2.53453
2.44836
2.32652
2.17608
2.00806
1.8354
1.6696
1.5154
1.37205
1.23935
1.11694
1.0042
0.900746
0.80663
0.722212
0.648504
0.585849
0.53233
0.484576
0.438281
0.389157
0.334039
0.271812
0.20387
0.133956
0.0673677
0.00926361
-0.0360195
-0.063376
-0.0705027
-0.0626015
-0.0472971
-0.0318396
-0.0206614
-0.014278
-0.00990944
-0.00341473
0.00839806
0.0254873
0.0453424
0.0652643
0.082032
0.0925997
0.0946255
0.0867365
0.0685673
0.0406881
0.00453777
-0.0372364
-0.0817709
-0.125279
-0.163277
-0.19131
-0.205694
-0.204272
-0.186981
-0.153679
-0.108039
-0.0591137
-0.0166155
0.0111998
0.0191236
0.0056654
-0.0273024
-0.0756977
-0.134697
-0.199943
-0.267677
-0.335525
-0.401532
-0.462707
-0.514638
-0.552532
-0.571585
-0.568304
-0.541892
-0.495149
-0.434403
-0.368721
-0.308195
-0.26159
-0.234534
-0.228646
-0.241816
-0.269463
-0.306219
-0.347411
-0.38966
-0.431375
-0.471595
-0.509128
-0.541915
-0.566522
-0.579152
-0.57588
-0.553802
-0.512207
-0.453368
-0.382052
-0.306245
-0.234792
-0.17525
-0.132153
-0.106104
-0.0939627
-0.0899408
-0.0871803
-0.0792933
-0.0628365
-0.0367533
-0.000746918
0.0448229
0.0994125
0.161315
0.225511
0.284931
0.332796
0.364216
0.377564
0.375138
0.362862
0.349054
0.342612
0.350292
0.373766
0.411973
0.463029
0.524542
0.593622
0.666324
0.739106
0.809456
0.876176
0.939207
0.998303
1.0517
1.09456
1.1168
1.10518
1.04904
0.946281
0.806494
0.649195
0.497804
0.371897
0.270666
0.191967
0.133404
0.0903164
0.0571926
0.0286951
0
-0.0293131
-0.0682718
-0.122275
-0.195197
-0.291454
-0.431075
-0.613927
-0.826657
-1.19533
-1.22861
-0.580161
0.968098
3.35021
6.10354
8.4494
9.59455
9.11356
7.18343
4.51037
1.9815
0.256864
-0.46246
-0.39143
0.0683542
0.47442
0.757455
0.852199
0.759313
0.527285
0.234776
-0.0229567
-0.144841
-0.139641
-0.0891064
-0.0244947
0.0450771
0.11525
0.182511
0.244112
0.298405
0.344863
0.383945
0.416812
0.444948
0.469747
0.492041
0.512191
0.530083
0.545321
0.557747
0.567884
0.577122
0.587529
0.601378
0.620554
0.64584
0.676692
0.712192
0.751321
0.79299
0.836297
0.880715
0.926189
0.97312
1.02227
1.07461
1.13104
1.19221
1.25823
1.32858
1.40224
1.4776
1.55285
1.6266
1.69824
1.76811
1.83735
1.90742
1.97968
2.05495
2.13323
2.21388
2.29596
2.3782
2.45885
2.53406
2.59715
2.63973
2.65201
2.62576
2.55776
2.4518
2.31808
2.17022
2.02113
1.87821
1.74237
1.61434
1.49456
1.38302
1.2796
1.18431
1.09735
1.01906
0.949722
0.889461
0.838365
0.795768
0.7599
0.728785
0.700706
0.674609
0.650269
0.628127
0.608888
0.593095
0.580628
0.570654
0.561838
0.55272
0.542058
0.529004
0.513085
0.494097
0.47206
0.44752
0.421431
0.395579
0.372631
0.355842
0.351254
0.369365
0.409337
0.457977
0.497337
0.512876
0.500531
0.468847
0.435047
0.417112
0.42577
0.453169
0.491372
0.533172
0.571729
0.602794
0.626016
0.644883
0.665347
0.693637
0.734036
0.78592
0.847241
0.913315
0.977342
1.03148
1.06904
1.08542
1.07884
1.05081
1.00628
0.95327
0.901751
0.861836
0.841033
0.840239
0.85815
0.892079
0.937148
0.987336
1.03663
1.08055
1.11604
1.14126
1.15571
1.16
1.15574
1.14545
1.13194
1.11866
1.10935
1.10731
1.11486
1.13287
1.16065
1.19613
1.23639
1.27828
1.31896
1.35649
1.38919
1.41568
1.43503
1.44653
1.4498
1.445
1.43307
1.41587
1.3961
1.37695
1.36152
1.35239
1.3512
1.35834
1.37321
1.39392
1.41811
1.44367
1.46922
1.49432
1.51944
1.54563
1.57408
1.60566
1.64087
1.68001
1.72314
1.77009
1.82042
1.87333
1.92771
1.9819
2.03383
2.08117
2.12153
2.15257
2.17207
2.17795
2.16832
2.14155
2.09668
2.0336
1.95355
1.85931
1.75523
1.64682
1.54011
1.44054
1.35246
1.2788
1.22071
1.17756
1.14714
1.12609
1.11018
1.09449
1.07377
1.04282
0.99686
0.91994
0.770585
0.558394
0.30958
0
0.178172
1.24103
3.36507
6.26242
9.15039
11.0332
11.1868
9.55975
6.82055
4.00449
1.98247
1.08479
1.08159
1.46403
1.55297
1.61467
1.64902
1.65369
1.6312
1.58628
1.52504
1.45746
1.39211
1.33654
1.29867
1.28493
1.29722
1.33688
1.4067
1.51235
1.63699
1.75524
1.84484
1.89404
1.90568
1.89594
1.88745
1.89946
1.94431
2.0105
2.07312
2.1075
2.1022
2.06485
2.0184
1.99015
1.99895
2.03806
2.09449
2.15721
2.21558
2.26363
2.30261
2.34063
2.38928
2.45864
2.5527
2.66381
2.78201
2.90059
3.01362
3.11699
3.20908
3.29068
3.36441
3.43368
3.50193
3.57163
3.6443
3.72066
3.80076
3.88418
3.97019
4.05786
4.14585
4.23167
4.31063
4.3764
4.42131
4.43731
4.4174
4.3572
4.25616
4.1181
3.95093
3.76562
3.57513
3.38878
3.21183
3.0482
2.9006
2.77017
2.65677
2.55945
2.4769
2.40805
2.35251
2.30994
2.28014
2.26289
2.25765
2.26354
2.27918
2.30304
2.33377
2.37055
2.41305
2.46131
2.51529
2.57447
2.63787
2.70221
2.76298
2.8157
2.85722
2.8865
2.90489
2.91553
2.92236
2.92899
2.93757
2.94859
2.96176
2.97623
2.99081
3.00436
3.01611
3.0259
3.03431
3.04257
3.05236
3.06546
3.0833
3.10703
3.13703
3.17094
3.20319
3.22755
3.23915
3.23632
3.22139
3.20015
3.17995
3.16712
3.16471
3.17194
3.18266
3.1885
3.18219
3.1603
3.12436
3.08009
3.03524
2.99683
2.96766
2.9467
2.93296
2.9255
2.92306
2.92439
2.92834
2.93377
2.93943
2.94372
2.94473
2.94039
2.92876
2.90833
2.87835
2.83896
2.79116
2.73675
2.67819
2.618
2.55845
2.50145
2.44846
2.40046
2.35772
2.32013
2.28738
2.25924
2.23564
2.21669
2.20294
2.19478
2.19193
2.19382
2.1998
2.20933
2.22191
2.23696
2.25368
2.27003
2.28314
2.28988
2.2876
2.27484
2.25157
2.21907
2.17956
2.13587
2.09116
2.04851
2.01168
1.98436
1.96985
1.97031
1.98629
2.01645
2.05788
2.10676
2.15923
2.21203
2.26332
2.31224
2.3584
2.40173
2.44235
2.48045
2.51618
2.54944
2.57979
2.60618
2.62663
2.63833
2.63828
2.62343
2.59137
2.5409
2.47257
2.3888
2.29372
2.19269
2.09162
1.99556
1.90865
1.83442
1.77531
1.73302
1.70933
1.70541
1.71763
1.73884
1.76122
1.77758
1.76557
1.47117
0.921657
0.271961
-0.315506
-0.51712
0
1.50984
4.03729
7.18868
10.1649
12.0249
12.1112
10.3984
7.53382
4.52602
2.26446
1.15581
1.06014
1.5055
1.69866
1.78005
1.81631
1.81159
1.77923
1.73654
1.69882
1.67387
1.65912
1.65182
1.65042
1.65348
1.65954
1.66733
1.67575
1.68383
1.69089
1.69665
1.70145
1.70629
1.71272
1.72249
1.73708
1.75726
1.78268
1.81202
1.84384
1.8767
1.90938
1.9411
1.97156
2.00091
2.02956
2.05807
2.08708
2.11728
2.14943
2.18432
2.22274
2.2654
2.31286
2.36547
2.42338
2.48663
2.55518
2.62894
2.70778
2.79141
2.87936
2.97083
3.06478
3.15999
3.25526
3.34966
3.44273
3.53463
3.62621
3.71894
3.81522
3.92061
4.04961
4.22181
4.42088
4.60388
4.72459
4.7509
4.67499
4.51194
4.28963
4.03749
3.78095
3.53805
3.31249
3.10247
2.90699
2.72721
2.56516
2.42191
2.29739
2.19041
2.0991
2.02031
1.94954
1.88238
1.81528
1.74602
1.67391
1.59967
1.52485
1.45135
1.38083
1.31471
1.25429
1.20105
1.1571
1.12501
1.10767
1.11094
1.15211
1.25137
1.39198
1.53303
1.63383
1.66748
1.62808
1.53085
1.40638
1.29171
1.21987
1.19535
1.20216
1.24033
1.30635
1.38054
1.43971
1.46382
1.44145
1.37397
1.27666
1.17522
1.09755
1.06357
1.06581
1.08741
1.11849
1.1537
1.188
1.21733
1.239
1.2518
1.25594
1.25265
1.24387
1.23185
1.21885
1.20693
1.19778
1.19266
1.19229
1.19691
1.2062
1.21863
1.2308
1.2382
1.23652
1.22281
1.1965
1.15983
1.1174
1.07502
1.03811
1.00969
0.991392
0.981328
0.975259
0.968697
0.958763
0.945346
0.931113
0.920345
0.917099
0.923427
0.937382
0.955957
0.97481
0.989495
0.996656
0.994823
0.984659
0.968699
0.950745
0.935012
0.924894
0.922752
0.930033
0.947226
0.974293
1.00942
1.04929
1.0897
1.12577
1.15259
1.16681
1.16713
1.15471
1.13345
1.10967
1.09122
1.0861
1.10072
1.13705
1.19163
1.26101
1.34089
1.42614
1.51178
1.59404
1.67055
1.74054
1.80463
1.86442
1.92186
1.97876
2.03611
2.09142
2.13713
2.16249
2.15684
2.11319
2.03108
1.91766
1.78664
1.65533
1.54019
1.44677
1.37346
1.32508
1.30458
1.30752
1.32023
1.32617
1.30924
1.25638
1.15931
1.01543
0.827663
0.603541
0.353932
0.0934282
-0.0999036
0
0.663433
2.15426
4.50577
7.30773
9.72878
10.8505
10.1558
7.85472
4.80833
2.07946
0.403562
-0.091142
0.21686
0.748765
0.917008
1.06866
1.19571
1.299
1.37821
1.43594
1.47699
1.50719
1.5321
1.55579
1.58042
1.60484
1.62556
1.63887
1.64306
1.63989
1.63491
1.63624
1.65241
1.68948
1.74627
1.82056
1.9118
2.01093
2.10473
2.18159
2.2349
2.2648
2.27778
2.28428
2.29497
2.31743
2.35235
2.39609
2.4462
2.50087
2.5588
2.61947
2.68305
2.75004
2.8209
2.89567
2.97389
3.05499
3.13833
3.22333
3.3095
3.39643
3.48372
3.57096
3.65788
3.74451
3.83126
3.91879
4.00763
4.09774
4.18809
4.27622
4.35858
4.43101
4.48938
4.53003
4.55003
4.54717
4.51991
4.46749
4.38965
4.28691
4.16072
4.01354
3.84879
3.67183
3.48758
3.29996
3.11259
2.92851
2.7501
2.57908
2.41674
2.26425
2.12336
1.99758
1.89093
1.80687
1.74853
1.71775
1.71435
1.7358
1.7785
1.83669
1.90172
1.96426
2.01632
2.05223
2.06931
2.06806
2.05214
2.02797
2.0039
1.98886
1.99018
2.01107
2.05047
2.11204
2.18965
2.27001
2.33957
2.38865
2.41412
2.41992
2.41507
2.41041
2.41497
2.43145
2.45749
2.4906
2.52855
2.56883
2.60883
2.6463
2.67962
2.7079
2.73085
2.74875
2.76223
2.77218
2.77972
2.78623
2.79331
2.8028
2.81655
2.83653
2.86562
2.90557
2.95086
2.9921
3.01987
3.02872
3.0199
3.00125
2.98425
2.97948
2.99279
3.01948
3.05394
3.09328
3.13443
3.1745
3.21048
3.2383
3.2543
3.25492
3.23748
3.20157
3.15002
3.08936
3.029
2.98008
2.96966
3.03409
3.1583
3.29827
3.40886
3.4609
3.44577
3.36911
3.24109
3.07139
2.87193
2.66479
2.46619
2.28382
2.1198
1.97335
1.84448
1.73341
1.63943
1.56122
1.49729
1.44619
1.40669
1.37771
1.35828
1.34752
1.34438
1.34752
1.35566
1.36781
1.38334
1.40206
1.42398
1.44916
1.47739
1.50727
1.53588
1.55926
1.57314
1.57374
1.55858
1.52695
1.48003
1.42061
1.35259
1.28045
1.20832
1.1393
1.07549
1.01847
0.969269
0.92824
0.89521
0.869072
0.847408
0.827367
0.806147
0.781435
0.751654
0.715944
0.673878
0.625092
0.568991
0.502682
0.415676
0.309371
0.190968
-0.117381
0
0.978428
3.0171
5.83789
8.67827
10.5708
10.8004
9.28109
6.61504
3.78478
1.67023
0.677963
0.671904
1.18469
1.38834
1.51997
1.59656
1.61854
1.59912
1.55746
1.51198
1.47624
1.45282
1.44137
1.44232
1.45632
1.48306
1.52111
1.56799
1.62114
1.67804
1.73639
1.79438
1.8508
1.90502
1.95691
2.00657
2.05422
2.09989
2.14322
2.18321
2.21832
2.24711
2.26853
2.28256
2.29064
2.29568
2.30153
2.31228
2.33136
2.36051
2.39937
2.44732
2.50402
2.56879
2.64064
2.71822
2.79999
2.88405
2.96833
3.05129
3.13233
3.21205
3.29199
3.37414
3.46008
3.55034
3.64382
3.73828
3.83067
3.91785
3.99729
4.0675
4.1282
4.17986
4.2223
4.25482
4.27563
4.2813
4.2668
4.22665
4.15645
4.0543
3.92182
3.76435
3.59023
3.40944
3.23095
3.0603
2.90072
2.75368
2.61898
2.4955
2.38208
2.27826
2.1846
2.10257
2.03402
1.98109
1.94639
1.93168
1.93408
1.94286
1.94624
1.93482
1.90465
1.8588
1.80674
1.76146
1.73514
1.73492
1.75488
1.78734
1.82714
1.86863
1.90693
1.93864
1.96209
1.97706
1.98417
1.98428
1.97828
1.96654
1.94933
1.92706
1.9005
1.87095
1.84013
1.81002
1.78243
1.75872
1.7399
1.72639
1.7181
1.7145
1.7148
1.71802
1.72316
1.7292
1.73508
1.73972
1.74227
1.74223
1.73973
1.73554
1.73096
1.72747
1.72622
1.72774
1.73126
1.73442
1.734
1.72663
1.70965
1.68169
1.64285
1.59462
1.53952
1.48078
1.4218
1.3655
1.31478
1.27212
1.23945
1.21792
1.20772
1.20796
1.21678
1.23157
1.24943
1.26744
1.28328
1.29563
1.30431
1.31007
1.31425
1.31815
1.32262
1.32778
1.333
1.33731
1.34006
1.34142
1.34265
1.34597
1.35396
1.36872
1.39222
1.42433
1.46064
1.49405
1.51698
1.52336
1.51017
1.47823
1.43219
1.37983
1.33094
1.29504
1.27832
1.28295
1.30848
1.35419
1.41732
1.49332
1.57672
1.66217
1.74552
1.82448
1.89876
1.96959
2.03918
2.1115
2.18668
2.25181
2.28537
2.26616
2.18326
2.04251
1.86635
1.6867
1.53393
1.41942
1.33062
1.26029
1.20678
1.16741
1.13958
1.11868
1.09809
1.07091
1.03052
0.968942
0.854933
0.643545
0.362845
0.0489172
-0.178884
0
0.933492
2.86255
5.63617
8.60731
10.8204
11.4486
10.2327
7.6393
4.62544
2.15468
0.761559
0.405249
0.647657
0.885882
0.966029
1.03085
1.07583
1.0996
1.09653
1.05792
0.976593
0.852525
0.695802
0.524802
0.360655
0.221149
0.105022
0.00630782
-0.0757151
-0.141184
-0.19045
-0.223436
-0.243179
-0.255226
-0.265086
-0.277085
-0.293501
-0.314302
-0.337573
-0.360412
-0.379887
-0.394223
-0.402943
-0.405244
-0.400677
-0.389163
-0.37103
-0.346445
-0.317426
-0.28829
-0.263738
-0.247343
-0.240058
-0.239352
-0.239413
-0.23252
-0.211226
-0.170718
-0.109708
-0.0287528
0.0586157
0.136574
0.193064
0.224647
0.238167
0.248514
0.273263
0.32617
0.408292
0.515264
0.635992
0.751348
0.843245
0.900251
0.920429
0.910387
0.881084
0.842344
0.798511
0.748742
0.689743
0.616583
0.525188
0.413513
0.282064
0.133722
-0.026935
-0.19387
-0.362186
-0.52821
-0.688736
-0.840734
-0.980609
-1.10344
-1.20334
-1.27531
-1.31259
-1.30852
-1.25969
-1.16892
-1.0438
-0.903838
-0.776336
-0.685732
-0.646069
-0.657131
-0.706131
-0.774232
-0.844695
-0.90861
-0.967651
-1.02476
-1.08123
-1.13724
-1.19136
-1.24035
-1.27934
-1.30288
-1.30631
-1.28666
-1.24349
-1.17934
-1.09959
-1.01173
-0.924363
-0.845578
-0.781592
-0.735746
-0.708189
-0.696289
-0.695612
-0.701232
-0.708913
-0.716195
-0.722495
-0.729411
-0.739277
-0.753429
-0.770892
-0.788117
-0.799996
-0.801783
-0.791124
-0.768985
-0.740197
-0.711495
-0.689057
-0.676254
-0.672462
-0.673347
-0.672455
-0.663495
-0.64358
-0.613771
-0.576058
-0.533904
-0.491522
-0.452762
-0.420144
-0.394289
-0.373863
-0.355994
-0.337001
-0.313204
-0.282183
-0.241085
-0.186444
-0.114774
-0.0279333
0.0599806
0.129654
0.162223
0.144932
0.0763502
-0.031192
-0.153574
-0.261128
-0.32723
-0.350074
-0.343841
-0.318434
-0.27811
-0.227037
-0.170607
-0.114225
-0.0619678
-0.0159061
0.0241531
0.0604221
0.0964298
0.136038
0.182397
0.236657
0.297967
0.364719
0.43339
0.498162
0.553161
0.594024
0.619128
0.630257
0.632531
0.633444
0.655764
0.786888
1.01512
1.25793
1.40547
1.36788
1.11786
0.710342
0.269797
-0.0504519
-0.135144
-0.139485
-0.119539
-0.0867537
-0.0518366
-0.0229536
-0.00355644
0.00441589
0
-0.0200644
-0.0551653
-0.106646
-0.176949
-0.26771
-0.382964
-0.522593
-0.67813
-1.00893
-1.10931
-0.543702
1.06509
3.74213
6.94929
9.68626
10.9291
10.1675
7.6922
4.43781
1.48625
-0.441445
-1.20933
-1.14461
-0.73585
-0.679439
-0.643023
-0.636876
-0.65745
-0.688841
-0.709469
-0.700745
-0.660077
-0.599006
-0.523143
-0.438792
-0.355069
-0.280911
-0.223922
-0.189717
-0.181706
-0.201048
-0.246548
-0.314347
-0.404359
-0.500943
-0.581023
-0.621617
-0.606937
-0.534202
-0.415337
-0.273499
-0.135773
-0.0249777
0.0591402
0.11398
0.142578
0.152414
0.153558
0.156548
0.16995
0.197997
0.241131
0.297648
0.365049
0.440734
0.521884
0.606446
0.693641
0.784052
0.879269
0.981194
1.09118
1.20925
1.33355
1.46091
1.58575
1.70106
1.80056
1.87996
1.93792
1.9763
1.99979
2.0149
2.02872
2.04763
2.07931
2.12803
2.18604
2.23743
2.26396
2.24989
2.18547
2.06892
1.90692
1.71356
1.50746
1.30647
1.11886
0.945219
0.784532
0.63688
0.501553
0.377685
0.264788
0.163288
0.0739935
-0.00203934
-0.0635109
-0.108984
-0.1395
-0.157331
-0.165108
-0.16504
-0.158372
-0.1453
-0.125412
-0.0984539
-0.064616
-0.0256285
0.0138361
0.0482584
0.0729067
0.0853064
0.0859333
0.0778397
0.0653774
0.0525251
0.0414289
0.0318298
0.0222273
0.0104933
-0.0050869
-0.0249083
-0.0475874
-0.070109
-0.0885326
-0.0990419
-0.0996086
-0.0905178
-0.0724209
-0.0472794
-0.0187187
0.00945969
0.0341249
0.0533918
0.066773
0.074902
0.0789721
0.0801237
0.0790253
0.0758432
0.0704597
0.0628885
0.0536154
0.0436739
0.0344198
0.0271254
0.0226105
0.0209017
0.0219116
0.0256113
0.0324419
0.0435663
0.0608154
0.0875654
0.13209
0.20222
0.284407
0.35541
0.391076
0.377238
0.31715
0.23122
0.148591
0.0946177
0.0795591
0.0860071
0.101677
0.121444
0.14031
0.154033
0.159159
0.153831
0.137699
0.112011
0.0796829
0.0451994
0.0142189
-0.00587406
0.00287342
0.0662418
0.171829
0.28134
0.351297
0.351096
0.275975
0.151065
0.0247784
-0.048391
-0.0316788
0.0438406
0.142831
0.250781
0.35893
0.459989
0.549252
0.625101
0.688864
0.744117
0.795653
0.848473
0.909294
0.985269
1.06842
1.13736
1.16595
1.13268
1.02954
0.866756
0.671348
0.479462
0.325046
0.210567
0.122476
0.0634352
0.0296339
0.0120823
0
-0.014057
-0.0429573
-0.0940107
-0.17201
-0.279183
-0.415232
-0.575961
-0.754605
-0.989214
-1.25762
-1.03238
0.0834051
2.25235
5.16577
8.01881
9.80031
9.78579
7.94386
4.98363
1.99493
-0.0972084
-0.929236
-0.736258
-0.0730078
0.173545
0.377513
0.530865
0.626116
0.667982
0.670463
0.652632
0.634325
0.630569
0.64779
0.686044
0.741268
0.811177
0.890626
0.97022
1.03979
1.09116
1.11974
1.12525
1.11166
1.08618
1.05773
1.03517
1.02504
1.02926
1.04743
1.07897
1.12348
1.18114
1.25105
1.32769
1.40119
1.46169
1.50177
1.51857
1.515
1.49925
1.48293
1.47841
1.49543
1.53516
1.59481
1.67197
1.76853
1.88885
2.02603
2.15867
2.26475
2.32896
2.34955
2.34091
2.32946
2.34396
2.40432
2.50612
2.62869
2.76537
2.90548
3.03413
3.13765
3.20674
3.23548
3.22126
3.16538
3.0735
2.95487
2.8201
2.67833
2.53532
2.3927
2.2505
2.1085
1.96645
1.82428
1.68221
1.54081
1.40097
1.26393
1.13121
1.00464
0.886239
0.77813
0.682346
0.600598
0.534025
0.482981
0.446906
0.424483
0.413966
0.412763
0.416961
0.422802
0.427254
0.428343
0.425193
0.417743
0.406244
0.390762
0.370888
0.34591
0.315155
0.278696
0.23767
0.195185
0.156831
0.128887
0.116711
0.123248
0.148171
0.187923
0.236602
0.287366
0.333905
0.37268
0.402105
0.421386
0.430957
0.43216
0.427016
0.417539
0.405511
0.39232
0.378866
0.365632
0.352945
0.341332
0.33187
0.326402
0.327489
0.339377
0.372509
0.442217
0.54661
0.662745
0.762037
0.820882
0.827532
0.783245
0.699721
0.595972
0.495726
0.420347
0.378025
0.372978
0.44064
0.586435
0.760729
0.907788
0.985174
0.974946
0.885983
0.749104
0.60717
0.502496
0.455417
0.4494
0.466748
0.498544
0.542211
0.594418
0.648287
0.696899
0.734885
0.759581
0.771483
0.773784
0.771131
0.768146
0.768321
0.772799
0.782189
0.797016
0.817692
0.844524
0.877528
0.916241
0.959557
1.00623
1.05535
1.10658
1.16025
1.2172
1.27833
1.34402
1.41398
1.48606
1.55635
1.61975
1.67058
1.70396
1.71617
1.70494
1.66953
1.61061
1.5302
1.43149
1.31883
1.19785
1.07507
0.956146
0.846244
0.751407
0.68267
0.660613
0.704791
0.804773
0.920415
1.00951
1.03781
0.983929
0.842254
0.62561
0.365354
0
0.120057
1.14172
3.22015
6.02644
8.76661
10.4948
10.5693
8.98266
6.35704
3.61215
1.51904
0.407025
0.155773
0.404897
0.675882
0.875437
1.04285
1.1695
1.2507
1.28564
1.27708
1.23114
1.15733
1.06831
0.978948
0.903434
0.85042
0.822291
0.820824
0.844197
0.887946
0.946426
1.01424
1.08664
1.16049
1.23384
1.30448
1.36988
1.42754
1.47544
1.51276
1.54044
1.56125
1.57924
1.5988
1.62363
1.65519
1.69324
1.73697
1.78522
1.83634
1.8884
1.93949
1.98777
2.03147
2.06949
2.10177
2.12933
2.15436
2.18
2.2098
2.24699
2.29362
2.34997
2.41382
2.48183
2.55082
2.61767
2.67969
2.73477
2.78124
2.8182
2.84573
2.86441
2.87519
2.87922
2.87753
2.87062
2.8575
2.83491
2.79852
2.74296
2.66358
2.55829
2.42896
2.28181
2.12645
1.974
1.83362
1.70883
1.60275
1.5164
1.44873
1.39715
1.35755
1.32514
1.29535
1.26427
1.22898
1.18771
1.13987
1.08603
1.02793
0.968399
0.911192
0.861024
0.822589
0.799791
0.796323
0.816809
0.858037
0.910595
0.963182
1.00526
1.02916
1.03113
1.0113
0.97311
0.922241
0.865844
0.810135
0.759406
0.715897
0.679706
0.650141
0.625704
0.604736
0.586124
0.56977
0.556662
0.548538
0.547277
0.554251
0.569515
0.592473
0.621684
0.655189
0.690801
0.726568
0.760859
0.792354
0.820121
0.843611
0.862653
0.87741
0.888292
0.895837
0.900577
0.902955
0.903284
0.90176
0.898488
0.893486
0.886664
0.877679
0.866155
0.851775
0.834533
0.815015
0.794555
0.775128
0.758962
0.748035
0.744164
0.747228
0.754733
0.763239
0.76971
0.772811
0.773668
0.775809
0.78429
0.804284
0.841078
0.902604
0.987051
1.07959
1.1619
1.21741
1.23496
1.21064
1.1482
1.05888
0.960385
0.874101
0.816809
0.793652
0.808565
0.865254
0.943857
1.01905
1.06926
1.08432
1.06889
1.04039
1.02248
1.03628
1.08791
1.16459
1.25684
1.35543
1.44961
1.53064
1.59394
1.64005
1.67402
1.70341
1.73628
1.77996
1.82719
1.86003
1.85826
1.80895
1.71231
1.58138
1.43637
1.29722
1.1745
1.06601
0.970177
0.887735
0.81886
0.763077
0.719295
0.685922
0.660613
0.639475
0.617313
0.588876
0.549645
0.49657
0.428533
0.260613
0
0.247127
1.42803
3.68492
6.63265
9.38619
10.9269
10.6259
8.59738
5.64033
2.80638
0.879456
0.0848928
0.153199
0.61368
0.783584
0.937564
1.06947
1.17284
1.24507
1.28716
1.30288
1.29759
1.27727
1.24792
1.21503
1.18309
1.15685
1.14038
1.13678
1.14766
1.17264
1.20933
1.25384
1.30192
1.35019
1.39723
1.44362
1.49141
1.54322
1.60117
1.66562
1.73531
1.80856
1.88325
1.95709
2.02785
2.09363
2.15295
2.20471
2.24799
2.28191
2.30611
2.32121
2.32883
2.33194
2.33488
2.34313
2.36252
2.39832
2.45416
2.53047
2.62601
2.73736
2.85969
2.98758
3.11603
3.24146
3.36145
3.47477
3.58118
3.68127
3.7761
3.86672
3.95364
4.03607
4.11043
4.17066
4.20797
4.21351
4.18146
4.11151
4.00923
3.8842
3.74689
3.60572
3.46517
3.32641
3.19004
3.05658
2.9266
2.80081
2.68
2.56494
2.45616
2.35396
2.25833
2.1692
2.08663
2.01138
1.94467
1.88777
1.84207
1.80867
1.78803
1.77975
1.78264
1.79482
1.81402
1.83761
1.86296
1.88742
1.90789
1.92093
1.92319
1.9118
1.88489
1.84225
1.78569
1.71911
1.6481
1.57912
1.51815
1.4693
1.43517
1.41785
1.41606
1.42509
1.43944
1.45437
1.46711
1.47745
1.48757
1.50114
1.5221
1.55593
1.60844
1.67339
1.73345
1.76865
1.7636
1.71357
1.6271
1.52398
1.42922
1.36537
1.336
1.3307
1.34551
1.37657
1.41897
1.46623
1.51226
1.55238
1.58395
1.6065
1.62129
1.63058
1.63681
1.64185
1.64674
1.65165
1.65631
1.66016
1.66252
1.66274
1.66019
1.65435
1.64473
1.63084
1.61224
1.58853
1.55944
1.52509
1.4862
1.44412
1.40168
1.36427
1.33823
1.32943
1.34163
1.37514
1.42814
1.49366
1.56014
1.61611
1.65282
1.6659
1.65574
1.62674
1.58572
1.54013
1.49645
1.4585
1.42747
1.40365
1.38738
1.37926
1.37997
1.39034
1.41133
1.44388
1.4887
1.54609
1.61576
1.69705
1.78893
1.88987
1.99848
2.11391
2.23522
2.35771
2.46813
2.54356
2.5563
2.48616
2.33268
2.11954
1.88803
1.68291
1.53039
1.41373
1.31823
1.24074
1.1797
1.1321
1.09307
1.05736
1.02
0.976754
0.92451
0.861428
0.786887
0.701306
0.601768
0.489565
0.368986
0.0761538
0
0.616875
2.30596
5.0277
8.1587
10.66
11.5583
10.471
7.83279
4.6658
2.04145
0.580352
0.27602
0.678754
1.14687
1.27252
1.32852
1.30634
1.22364
1.11638
1.02313
0.970172
0.94858
0.943315
0.94701
0.956286
0.968769
0.982865
0.997813
1.0135
1.03012
1.04787
1.06665
1.08609
1.10562
1.1246
1.1425
1.15893
1.17376
1.18703
1.19906
1.21045
1.22219
1.23565
1.25263
1.27512
1.305
1.34361
1.39121
1.44785
1.51157
1.57619
1.63359
1.67657
1.70091
1.70678
1.69886
1.68535
1.676
1.67984
1.7015
1.74023
1.79411
1.86152
1.94054
2.02881
2.12376
2.22288
2.32376
2.42406
2.52137
2.61301
2.69627
2.76845
2.82682
2.86821
2.88941
2.88793
2.86143
2.80774
2.72505
2.61214
2.46877
2.29599
2.09652
1.87534
1.63998
1.3982
1.1577
0.926607
0.712501
0.52172
0.358725
0.225754
0.122773
0.0477135
-0.00309229
-0.0333096
-0.047433
-0.0515713
-0.0513819
-0.0516495
-0.0559957
-0.0667502
-0.0850027
-0.110806
-0.143461
-0.181752
-0.22397
-0.268366
-0.313087
-0.355657
-0.39269
-0.420877
-0.437395
-0.440669
-0.431014
-0.410857
-0.384387
-0.356694
-0.332675
-0.315786
-0.307112
-0.307307
-0.316054
-0.332351
-0.354623
-0.380764
-0.408688
-0.435484
-0.457657
-0.471726
-0.474834
-0.465298
-0.442865
-0.408577
-0.364304
-0.312188
-0.254548
-0.192696
-0.128149
-0.0651547
-0.0106519
0.0270936
0.0408855
0.0274196
-0.0107937
-0.065273
-0.123263
-0.170726
-0.197376
-0.201899
-0.187049
-0.155837
-0.110631
-0.0543916
0.00931311
0.0766984
0.143219
0.202443
0.248228
0.275616
0.281517
0.26602
0.233351
0.191638
0.15116
0.121524
0.108874
0.110662
0.121754
0.138786
0.158113
0.176158
0.18992
0.197397
0.197715
0.191105
0.178749
0.162566
0.144942
0.128447
0.11556
0.108427
0.108539
0.116658
0.133139
0.157684
0.189334
0.226591
0.267572
0.309192
0.348058
0.381089
0.40602
0.421801
0.42876
0.428561
0.424016
0.418833
0.417056
0.422744
0.439969
0.472328
0.522505
0.591883
0.679609
0.785119
0.908604
1.04928
1.20119
1.34916
1.47526
1.56263
1.59703
1.56987
1.4812
1.34083
1.1667
0.980689
0.803644
0.645367
0.505203
0.381202
0.273801
0.184383
0.113786
0.0623088
0.0288713
0.010124
0
-0.00941868
-0.0264026
-0.0570413
-0.104456
-0.168352
-0.245443
-0.57417
-0.748015
-0.262748
1.26624
3.84484
6.91644
9.48579
10.5578
9.66316
7.13765
3.95921
1.23691
-0.32419
-0.66441
-0.225524
0.317698
0.421563
0.505284
0.565446
0.601873
0.617698
0.618463
0.610684
0.600686
0.592322
0.587559
0.587276
0.591303
0.598117
0.605148
0.609646
0.60942
0.603437
0.592163
0.577516
0.562442
0.550231
0.54376
0.544545
0.552641
0.567495
0.588298
0.614039
0.643786
0.676965
0.713396
0.75314
0.796285
0.84286
0.89228
0.94194
0.987389
1.0239
1.04808
1.0595
1.06165
1.06188
1.07029
1.09765
1.15193
1.23314
1.33797
1.46249
1.60185
1.75083
1.90096
2.04352
2.17203
2.28354
2.37902
2.46284
2.54137
2.62152
2.7121
2.8144
2.91812
3.00799
3.0697
3.09325
3.07295
3.0056
2.88934
2.72463
2.51956
2.2886
2.04648
1.80602
1.57522
1.35603
1.14897
0.954526
0.772288
0.601575
0.441998
0.293786
0.157796
0.0352205
-0.0726453
-0.164501
-0.240116
-0.300776
-0.348264
-0.384291
-0.40984
-0.425347
-0.430727
-0.425927
-0.411543
-0.389134
-0.361624
-0.33278
-0.306565
-0.28644
-0.274827
-0.272854
-0.280393
-0.29628
-0.31843
-0.344386
-0.371954
-0.399201
-0.424561
-0.446904
-0.465852
-0.48166
-0.494927
-0.506238
-0.515843
-0.523457
-0.528256
-0.529058
-0.524626
-0.514232
-0.497721
-0.475398
-0.448001
-0.416763
-0.383956
-0.352635
-0.325551
-0.304543
-0.290138
-0.281557
-0.277171
-0.275269
-0.274827
-0.275923
-0.279557
-0.287134
-0.299598
-0.316697
-0.336616
-0.356142
-0.371336
-0.378596
-0.376299
-0.363823
-0.340992
-0.31105
-0.278934
-0.249202
-0.224629
-0.205461
-0.189633
-0.173888
-0.154942
-0.131328
-0.107204
-0.0900948
-0.0872228
-0.101756
-0.130999
-0.167522
-0.202618
-0.230241
-0.250674
-0.26735
-0.282989
-0.299753
-0.317982
-0.335513
-0.347814
-0.348883
-0.318361
-0.216123
-0.0619856
0.0945401
0.1981
0.213558
0.14321
0.0266319
-0.0772199
-0.11762
-0.0762528
-0.00176439
0.0810122
0.163189
0.23838
0.303313
0.358175
0.406125
0.452139
0.501546
0.558442
0.625454
0.705084
0.79461
0.884252
0.961887
1.0164
1.03989
1.02885
0.984317
0.911186
0.817029
0.710598
0.60069
0.493396
0.392064
0.298421
0.213768
0.139874
0.0784446
0.031456
0.0033143
0
0.0176889
0.0407058
0.0495087
0.0256791
-0.0428697
-0.158595
-0.313956
-0.493766
-0.741171
-0.773444
-0.301821
0.974083
3.13497
5.8279
8.27007
9.55537
9.11928
7.07
4.15804
1.39243
-0.450291
-1.1276
-0.902838
-0.287951
-0.0784079
0.101844
0.235315
0.327879
0.383669
0.412859
0.428397
0.442505
0.46304
0.491942
0.529412
0.573941
0.620547
0.663308
0.697391
0.720474
0.73342
0.739998
0.745704
0.756048
0.774861
0.802224
0.836111
0.873844
0.912196
0.948384
0.980817
1.00938
1.0352
1.05996
1.08508
1.11113
1.13753
1.16284
1.18546
1.20459
1.22093
1.23702
1.25692
1.2855
1.32738
1.3847
1.45729
1.54379
1.64165
1.74733
1.85656
1.96523
2.07008
2.16906
2.26145
2.34762
2.42845
2.50491
2.57744
2.64585
2.7097
2.76853
2.82239
2.87217
2.91963
2.96698
3.0169
3.07147
3.12694
3.17209
3.19177
3.17147
3.1018
2.98122
2.81613
2.61903
2.40549
2.19152
1.98606
1.79279
1.61578
1.45846
1.3244
1.21582
1.13032
1.06403
1.01269
0.972652
0.941675
0.919108
0.905483
0.90167
0.908482
0.926528
0.952372
0.978745
0.997961
1.00437
0.996256
0.97648
0.951617
0.929976
0.919293
0.923762
0.942197
0.972316
1.01261
1.06204
1.11985
1.18326
1.24543
1.29841
1.33529
1.35231
1.35028
1.33451
1.31294
1.29325
1.28014
1.27271
1.26843
1.2644
1.25808
1.24836
1.23614
1.22405
1.2157
1.21443
1.22176
1.23688
1.25861
1.28429
1.31007
1.33178
1.34576
1.34948
1.34187
1.32339
1.29582
1.26186
1.22471
1.18758
1.15327
1.12385
1.1009
1.08585
1.07993
1.08427
1.10069
1.13142
1.17448
1.21996
1.25599
1.27241
1.2645
1.23531
1.19519
1.15852
1.13876
1.14322
1.16588
1.19937
1.23917
1.27947
1.31452
1.33988
1.35308
1.35385
1.34391
1.3265
1.30564
1.28535
1.26891
1.25796
1.25277
1.25301
1.25794
1.26648
1.27757
1.29031
1.30419
1.31909
1.33524
1.35319
1.37371
1.39765
1.42593
1.45932
1.49845
1.54362
1.59487
1.65192
1.71426
1.78134
1.85288
1.92845
2.00404
2.06985
2.11267
2.11907
2.07999
1.99449
1.87081
1.72435
1.57341
1.4338
1.30936
1.19886
1.10246
1.0196
0.948383
0.885588
0.827256
0.769261
0.707796
0.639772
0.563088
0.476727
0.379979
0.272963
0.157857
0
-0.108605
0.245297
1.45227
3.66702
6.57122
9.36616
11.0714
11.0033
9.15448
6.22329
3.25746
1.1312
0.17564
0.158942
0.569078
0.82487
1.06205
1.25999
1.4179
1.53184
1.58235
1.5469
1.42426
1.24862
1.0814
0.985357
0.99549
1.05824
1.13797
1.22334
1.30744
1.38479
1.45194
1.50763
1.55244
1.58796
1.614
1.63053
1.63649
1.62961
1.60817
1.57274
1.52719
1.4783
1.43433
1.40301
1.38699
1.38581
1.4002
1.42973
1.47313
1.52829
1.59301
1.66525
1.74303
1.82441
1.90745
1.99019
2.07077
2.14753
2.2192
2.28495
2.34451
2.39815
2.44658
2.49085
2.53224
2.572
2.61124
2.65079
2.69111
2.73235
2.7744
2.81708
2.86027
2.90396
2.94816
2.99249
3.03466
3.06812
3.08251
3.06559
3.00704
2.90218
2.75384
2.5715
2.36789
2.15492
1.9409
1.72978
1.52571
1.33108
1.15584
1.02297
0.957792
0.973255
1.06087
1.19276
1.33331
1.45383
1.54623
1.62167
1.6875
1.74475
1.79251
1.82929
1.85292
1.86112
1.85219
1.82574
1.78316
1.72781
1.66472
1.59984
1.53904
1.48674
1.4449
1.41366
1.39267
1.38074
1.37628
1.37784
1.38404
1.39416
1.40765
1.42396
1.44224
1.46129
1.47937
1.49444
1.50462
1.50852
1.50557
1.49622
1.48186
1.46457
1.44679
1.4308
1.41812
1.40944
1.40508
1.40426
1.40473
1.40394
1.39978
1.39123
1.37852
1.36305
1.34675
1.3315
1.31854
1.30815
1.30051
1.29567
1.29375
1.29496
1.29954
1.30759
1.31883
1.33269
1.34787
1.36271
1.37534
1.38399
1.38727
1.38428
1.37471
1.35879
1.33724
1.31109
1.28149
1.2495
1.21602
1.18173
1.14721
1.11316
1.08065
1.05143
1.0277
1.01188
1.00603
1.01131
1.02749
1.05286
1.08438
1.11829
1.1507
1.17838
1.1988
1.21019
1.21134
1.20131
1.1795
1.14555
1.09965
1.04285
0.976712
0.905122
0.833586
0.768295
0.721553
0.750749
1.002
1.40486
1.80929
2.12957
2.31551
2.34167
2.20001
1.90349
1.50003
1.07993
0.774134
0.642734
0.562665
0.491953
0.423995
0.357639
0.292777
0.22976
0.169068
0.110918
0.0549158
0
-0.0555002
-0.113557
-0.176027
-0.246134
-0.324782
-0.409422
-0.758574
-0.851085
-0.205181
1.52433
4.26351
7.38646
9.88478
10.8128
9.77727
7.16777
3.96296
1.2254
-0.400272
-0.890865
-0.677555
-0.327135
-0.248436
-0.180584
-0.126835
-0.0860573
-0.0579481
-0.0407536
178
419
664
916
1160
1401
1639
1871
2099
2328
2561
2799
3037
3271
3504
3735
3719
0
0
0
0
0
0
0
0
0
0
0
0
0
0
0
0
0
0
0
0
0
0
0
0
0
0
0
0
0
0
0
0
0
0
0
0
0
0
0
0
0
0
0
0
0
0
0
0
0
0
0
0
0
0
0
0
0
0
0
0
0
0
0
0
0
0
0
0
0
0
0
0
0
0
0
0
0
0
0
0
0
0
0
0
0
0
0
0
0
0
0
0
0
0
0
0
0
0
0
0
0
0
0
0
0
0
0
0
0
0
0
0
0
0
0
0
0
0
0
0
0
0
0
0
0
0
0
0
0
0
0
0
0
0
0
0
0
0
0
0
0
0
0
0
0
0
0
0
0
0
0
0
0
0
0
0
0
0
0
0
0
0
0
0
0
0
0
0
0
0
0
0
0
0
0
0
0
0
0
0
0
0
0
0
0
0
0
0
0
0
0
0
0
0
0
0
0
0
0
0
0
0
0
0
0
0
0
0
0
0
0
0
0
0
0
0
0
0
0
0
0
0
0
0
0
0
0
0
0
0
0
0
0
0
0
0
0
0
0
0
0
0
0
0
0
0
0
0
0
0
0
0
0
0
0
0
0
0
0
0
0
0
0
0
0
0
0
0
0
0
0
0
0
0
0
0
0
0
0
0
0
0
0
0
0
0
0
0
0
0
0
0
0
0
0
0
0
0
0
0
0
0
0
0
0
0
0
0
0
0
0
0
0
0
0
0
0
0
0
0
0
0
0
0
0
0
0
0
0
0
0
0
0
0
0
0
0
0
0
0
0
0
0
0
0
0
0
0
0
0
0
0
0
0
0
0
0
0
0
0
0
0
0
0
0
0
0
0
0
0
0
0
0
0
0
0
0
0
0
0
0
0
0
0
0
0
0
0
0
0
0
0
0
0
0
0
0
0
0
0
0
0
0
0
0
0
0
0
0
0
0
0
0
0
0
0
0
0
0
0
0
0
0
0
0
0
0
0
0
0
0
0
0
0
0
0
0
0
0
0
0
0
0
0
0
0
0
0
0
0
0
0
0
0
0
0
0
0
0
0
0
0
0
0
0
0
0
0
0
0
0
0
0
0
0
0
0
0
0
0
0
0
0
0
0
0
0
0
0
0
0
0
0
0
0
0
0
0
0
0
0
0
0
0
0
0
0
0
0
0
0
0
0
0
0
0
0
0
0
0
0
0
0
0
0
0
0
0
0
0
0
0
0
0
0
0
0
0
0
0
0
0
0
0
0
0
0
0
0
0
0
0
0
0
0
0
0
0
0
0
0
0
0
0
0
0
0
0
0
0
0
0
0
0
0
0
0
0
0
0
0
0
0
0
0
0
0
0
0
0
0
0
0
0
0
0
0
0
0
0
0
0
0
0
0
0
0
0
0
0
0
0
0
0
0
0
0
0
0
0
0
0
0
0
0
0
0
0
0
0
0
0
0
0
0
0
0
0
0
0
0
0
0
0
0
0
0
0
0
0
0
0
0
0
0
0
0
0
0
0
0
0
0
0
0
0
0
0
0
0
0
0
0
0
0
0
0
0
0
0
0
0
0
0
0
0
0
0
0
0
0
0
0
0
0
0
0
0
0
0
0
0
0
0
0
0
0
0
0
0
0
0
0
0
0
0
0
0
0
0
0
0
0
0
0
0
0
0
0
0
0
0
0
0
0
0
0
0
0
0
0
0
0
0
0
0
0
0
0
0
0
0
0
0
0
0
0
0
0
0
0
0
0
0
0
0
0
0
0
0
0
0
0
0
0
0
0
0
0
0
0
0
0
0
0
0
0
0
0
0
0
0
0
0
0
0
0
0
0
0
0
0
0
0
0
0
0
0
0
0
0
0
0
0
0
0
0
0
0
0
0
0
0
0
0
0
0
0
0
0
0
0
0
0
0
0
0
0
0
0
0
0
0
0
0
0
0
0
0
0
0
0
0
0
0
0
0
0
0
0
0
0
0
0
0
0
0
0
0
0
0
0
0
0
0
0
0
0
0
0
0
0
0
0
0
0
0
0
0
0
0
0
0
0
0
0
0
0
0
0
0
0
0
0
0
0
0
0
0
0
0
0
0
0
0
0
0
0
0
0
0
0
0
0
0
0
0
0
0
0
0
0
0
0
0
0
0
0
0
0
0
0
0
0
0
0
0
0
0
0
0
0
0
0
0
0
0
0
0
0
0
0
0
0
0
0
0
0
0
0
0
0
0
0
0
0
0
0
0
0
0
0
0
0
0
0
0
0
0
0
0
0
0
0
0
0
0
0
0
0
0
0
0
0
0
0
0
0
0
0
0
0
0
0
0
0
0
0
0
0
0
0
0
0
0
0
0
0
0
0
0
0
0
0
0
0
0
0
0
0
0
0
0
0
0
0
0
0
0
0
0
0
0
0
0
0
0
0
0
0
0
0
0
0
0
0
0
0
0
0
0
0
0
0
0
0
0
0
0
0
0
0
0
0
0
0
0
0
0
0
0
0
0
0
0
0
0
0
0
0
0
0
0
0
0
0
0
0
0
0
0
0
0
0
0
0
0
0
0
0
0
0
0
0
0
0
0
0
0
0
0
0
0
0
0
0
0
0
0
0
0
0
0
0
0
0
0
0
0
0
0
0
0
0
0
0
0
0
0
0
0
0
0
0
0
0
0
0
0
0
0
0
0
0
0
0
0
0
0
0
0
0
0
0
0
0
0
0
0
0
0
0
0
0
0
0
0
0
0
0
0
0
0
0
0
0
0
0
0
0
0
0
0
0
0
0
0
0
0
0
0
0
0
0
0
0
0
0
0
0
0
0
0
0
0
0
0
0
0
0
0
0
0
0
0
0
0
0
0
0
0
0
0
0
0
0
0
0
0
0
0
0
0
0
0
0
0
0
0
0
0
0
0
0
0
0
0
0
0
0
0
0
0
0
0
0
0
0
0
0
0
0
0
0
0
0
0
0
0
0
0
0
0
0
0
0
0
0
0
0
0
0
0
0
0
0
0
0
0
0
0
0
0
0
0
0
0
0
0
0
0
0
0
0
0
0
0
0
0
0
0
0
0
0
0
0
0
0
0
0
0
0
0
0
0
0
0
0
0
0
0
0
0
0
0
0
0
0
0
0
0
0
0
0
0
0
0
0
0
0
0
0
0
0
0
0
0
0
0
0
0
0
0
0
0
0
0
0
0
0
0
0
0
0
0
0
0
0
0
0
0
0
0
0
0
0
0
0
0
0
0
0
0
0
0
0
0
0
0
0
0
0
0
0
0
0
0
0
0
0
0
0
0
0
0
0
0
0
0
0
0
0
0
0
0
0
0
0
0
0
0
0
0
0
0
0
0
0
0
0
0
0
0
0
0
0
0
0
0
0
0
0
0
0
0
0
0
0
0
0
0
0
0
0
0
0
0
0
0
0
0
0
0
0
0
0
0
0
0
0
0
0
0
0
0
0
0
0
0
0
0
0
0
0
0
0
0
0
0
0
0
0
0
0
0
0
0
0
0
0
0
0
0
0
0
0
0
0
0
0
0
0
0
0
0
0
0
0
0
0
0
0
0
0
0
0
0
0
0
0
0
0
0
0
0
0
0
0
0
0
0
0
0
0
0
0
0
0
0
0
0
0
0
0
0
0
0
0
0
0
0
0
0
0
0
0
0
0
0
0
0
0
0
0
0
0
0
0
0
0
0
0
0
0
0
0
0
0
0
0
0
0
0
0
0
0
0
0
0
0
0
0
0
0
0
0
0
0
0
0
0
0
0
0
0
0
0
0
0
0
0
0
0
0
0
0
0
0
0
0
0
0
0
0
0
0
0
0
0
0
0
0
0
0
0
0
0
0
0
0
0
0
0
0
0
0
0
0
0
0
0
0
0
0
0
0
0
0
0
0
0
0
0
0
0
0
0
0
0
0
0
0
0
0
0
0
0
0
0
0
0
0
0
0
0
0
0
0
0
0
0
0
0
0
0
0
0
0
0
0
0
0
0
0
0
0
0
0
0
0
0
0
0
0
0
0
0
0
0
0
0
0
0
0
0
0
0
0
0
0
0
0
0
0
0
0
0
0
0
0
0
0
0
0
0
0
0
0
0
0
0
0
0
0
0
0
0
0
0
0
0
0
0
0
0
0
0
0
0
0
0
0
0
0
0
0
0
0
0
0
0
0
0
0
0
0
0
0
0
0
0
0
0
0
0
0
0
0
0
0
0
0
0
0
0
0
0
0
0
0
0
0
0
0
0
0
0
0
0
0
0
0
0
0
0
0
0
0
0
0
0
0
0
0
0
0
0
0
0
0
0
0
0
0
0
0
0
0
0
0
0
0
0
0
0
0
0
0
0
0
0
0
0
0
0
0
0
0
0
0
0
0
0
0
0
0
0
0
0
0
0
0
0
0
0
0
0
0
0
0
0
0
0
0
0
0
0
0
0
0
0
0
0
0
0
0
0
0
0
0
0
0
0
0
0
0
0
0
0
0
0
0
0
0
0
0
0
0
0
0
0
0
0
0
0
0
0
0
0
0
0
0
0
0
0
0
0
0
0
0
0
0
0
0
0
0
0
0
0
0
0
0
0
0
0
0
0
0
0
0
0
0
0
0
0
0
0
0
0
0
0
0
0
0
0
0
0
0
0
0
0
0
0
0
0
0
0
0
0
0
0
0
0
0
0
0
0
0
0
0
0
0
0
0
0
0
0
0
0
0
0
0
0
0
0
0
0
0
0
0
0
0
0
0
0
0
0
0
0
0
0
0
0
0
0
0
0
0
0
0
0
0
0
0
0
0
0
0
0
0
0
0
0
0
0
0
0
0
0
0
0
0
0
0
0
0
0
0
0
0
0
0
0
0
0
0
0
0
0
0
0
0
0
0
0
0
0
0
0
0
0
0
0
0
0
0
0
0
0
0
0
0
0
0
0
0
0
0
0
0
0
0
0
0
0
0
0
0
0
0
0
0
0
0
0
0
0
0
0
0
0
0
0
0
0
0
0
0
0
0
0
0
0
0
0
0
0
0
0
0
0
0
0
0
0
0
0
0
0
0
0
0
0
0
0
0
0
0
0
0
0
0
0
0
0
0
0
0
0
0
0
0
0
0
0
0
0
0
0
0
0
0
0
0
0
0
0
0
0
0
0
0
0
0
0
0
0
0
0
0
0
0
0
0
0
0
0
0
0
0
0
0
0
0
0
0
0
0
0
0
0
0
0
0
0
0
0
0
0
0
0
0
0
0
0
0
0
0
0
0
0
0
0
0
0
0
0
0
0
0
0
0
0
0
0
0
0
0
0
0
0
0
0
0
0
0
0
0
0
0
0
0
0
0
0
0
0
0
0
0
0
0
0
0
0
0
0
0
0
0
0
0
0
0
0
0
0
0
0
0
0
0
0
0
0
0
0
0
0
0
0
0
0
0
0
0
0
0
0
0
0
0
0
0
0
0
0
0
0
0
0
0
0
0
0
0
0
0
0
0
0
0
0
0
0
0
0
0
0
0
0
0
0
0
0
0
0
0
0
0
0
0
0
0
0
0
0
0
0
0
0
0
0
0
0
0
0
0
0
0
0
0
0
0
0
0
0
0
0
0
0
0
0
0
0
0
0
0
0
0
0
0
0
0
0
0
0
0
0
0
0
0
0
0
0
0
0
0
0
0
0
0
0
0
0
0
0
0
0
0
0
0
0
0
0
0
0
0
0
0
0
0
0
0
0
0
0
0
0
0
0
0
0
0
0
0
0
0
0
0
0
0
0
0
0
0
0
0
0
0
0
0
0
0
0
0
0
0
0
0
0
0
0
0
0
0
0
0
0
0
0
0
0
0
0
0
0
0
0
0
0
0
0
0
0
0
0
0
0
0
0
0
0
0
0
0
0
0
0
0
0
0
0
0
0
0
0
0
0
0
0
0
0
0
0
0
0
0
0
0
0
0
0
0
0
0
0
0
0
0
0
0
0
0
0
0
0
0
0
0
0
0
0
0
0
0
0
0
0
0
0
0
0
0
0
0
0
0
0
0
0
0
0
0
0
0
0
0
0
0
0
0
0
0
0
0
0
0
0
0
0
0
0
0
0
0
0
0
0
0
0
0
0
0
0
0
0
0
0
0
0
0
0
0
0
0
0
0
0
0
0
0
0
0
0
0
0
0
0
0
0
0
0
0
0
0
0
0
0
0
0
0
0
0
0
0
0
0
0
0
0
0
0
0
0
0
0
0
0
0
0
0
0
0
0
0
0
0
0
0
0
0
0
0
0
0
0
0
0
0
0
0
0
0
0
0
0
0
0
0
0
0
0
0
0
0
0
0
0
0
0
0
0
0
0
0
0
0
0
0
0
0
0
0
0
0
0
0
0
0
0
0
0
0
0
0
0
0
0
0
0
0
0
0
0
0
0
0
0
0
0
0
0
0
0
0
0
0
0
0
0
0
0
0
0
0
0
0
0
0
0
0
0
0
0
0
0
0
0
0
0
0
0
0
0
0
0
0
0
0
0
0
0
0
0
0
0
0
0
0
0
0
0
0
0
0
0
0
0
0
0
0
0
0
0
0
0
0
0
0
0
0
0
0
0
0
0
0
0
0
0
0
0
0
0
0
0
0
0
0
0
0
0
0
0
0
0
0
0
0
0
0
0
0
0
0
0
0
0
0
0
0
0
0
0
0
0
0
0
0
0
0
0
0
0
0
0
0
0
0
0
0
0
0
0
0
0
0
0
0
0
0
0
0
0
0
0
0
0
0
0
0
0
0
0
0
0
0
0
0
0
0
0
0
0
0
0
0
0
0
0
0
0
0
0
0
0
0
0
0
0
0
0
0
0
0
0
0
0
0
0
0
0
0
0
0
0
0
0
0
0
0
0
0
0
0
0
0
0
0
0
0
0
0
0
0
0
0
0
0
0
0
0
0
0
0
0
0
0
0
0
0
0
0
0
0
0
0
0
0
0
0
0
0
0
0
0
0
0
0
0
0
0
0
0
0
0
0
0
0
0
0
0
0
0
0
0
0
0
0
0
0
0
0
0
0
0
0
0
0
0
0
0
0
0
0
0
0
0
0
0
0
0
0
0
0
0
0
0
0
0
0
0
0
0
0
0
0
0
0
0
0
0
0
0
0
0
0
0
0
0
0
0
0
0
0
0
0
0
0
0
0
0
0
0
0
0
0
0
0
0
0
0
0
0
0
0
0
0
0
0
0
0
0
0
0
0
0
0
0
0
0
0
0
0
0
0
0
0
0
0
0
0
0
0
0
0
0
0
0
0
0
0
0
0
0
0
0
0
0
0
0
0
0
0
0
0
0
0
0
0
0
0
0
0
0
0
0
0
0
0
0
0
0
0
0
0
0
0
0
0
0
0
0
0
0
0
0
0
0
0
0
0
0
0
0
0
0
0
0
0
0
0
0
0
0
0
0
0
0
0
0
0
0
0
0
0
0
0
0
0
0
0
0
0
0
0
0
0
0
0
0
0
0
0
0
0
0
0
0
0
0
0
0
0
0
0
0
0
0
0
0
0
0
0
0
0
0
0
0
0
0
0
0
0
0
0
0
0
0
0
0
0
0
0
0
0
0
0
0
0
0
0
0
0
0
0
0
0
0
0
0
0
0
0
0
0
0
0
0
0
0
0
0
0
0
0
0
0
0
0
0
0
0
0
0
0
0
0
0
0
0
0
0
0
0
0
0
0
0
0
0
0
0
0
0
0
0
0
0
0
0
0
0
0
0
0
0
0
0
0
0
0
0
0
0
0
0
0
0
0
0
0
0
0
0
0
0
0
0
0
0
0
0
0
0
0
0
0
0
0
0
0
0
0
0
0
0
0
0
0
0
0
0
0
0
0
0
0
0
0
0
0
0
0
0
0
0
0
0
0
0
0
0
0
0
0
0
0
0
0
0
0
0
0
0
0
0
0
0
0
0
0
0
0
0
0
0
0
0
0
0
0
0
0
0
0
0
0
0
0
0
0
0
0
0
0
0
0
0
0
0
0
0
0
0
0
0
0
0
0
0
0
0
0
0
0
0
0
0
0
0
0
0
0
0
0
0
0
0
0
0
0
0
0
0
0
0
0
0
0
0
0
0
0
0
0
0
0
0
0
0
0
0
0
0
0
0
0
0
0
0
0
0
0
0
0
0
0
0
0
0
0
0
0
0
0
0
0
0
0
0
0
0
0
0
0
0
0
0
0
0
0
0
0
0
0
0
0
0
0
0
0
0
0
0
0
0
0
0
0
0
0
0
0
0
0
0
0
0
0
0
0
0
0
0
0
0
0
0
0
0
0
0
0
0
0
0
0
0
0
0
0
0
0
0
0
0
0
0
0
0
0
0
0
0
0
0
0
0
0
0
0
0
0
0
0
0
0
0
0
0
0
0
0
0
0
0
0
0
0
0
0
0
0
0
0
0
0
0
0
0
0
0
0
0
0
0
0
0
0
0
0
0
0
0
0
0
0
0
0
0
0
0
0
0
