0.990059
1.00993
1.03113
1.04785
1.0549
1.04885
1.02878
0.99668
0.957274
0.917303
0.88445
0.866215
0.866535
0.886523
0.928214
0.992946
1.08364
1.20939
1.37889
1.58481
1.79591
1.97579
2.09635
2.1417
2.10857
2.00545
1.85089
1.66985
1.48781
1.32286
1.17857
1.05128
0.937648
0.836255
0.746613
0.668087
0.598921
0.535712
0.474525
0.411555
0.343508
0.267725
0.184138
0.0941727
0
-0.0960094
0.343621
1.34172
3.12821
5.78832
9.07836
12.3619
14.7712
15.551
14.4104
11.6796
8.17131
4.82717
2.34481
0.969791
0.524403
0.60201
0.557763
0.511968
0.464382
0.416413
0.371272
0.333222
0.306489
0.294228
0.297929
0.317459
0.351624
0.398926
0.458072
0.527392
0.606098
0.693173
0.787621
0.884619
0.978098
1.06307
1.13773
1.20455
1.26993
1.34229
1.4296
1.53719
1.66325
1.8044
1.95861
2.12405
2.29898
2.48188
2.67124
2.86521
3.06127
3.25606
3.44534
3.62429
3.78818
3.93269
4.05385
4.14777
4.21064
4.2396
4.23215
4.1857
4.09783
3.96697
3.79299
3.57783
3.32569
3.04296
2.73873
2.42277
2.10349
1.78882
1.48609
1.20168
0.940749
0.707124
0.503212
0.330011
0.187238
0.0734016
-0.013887
-0.0772984
-0.120078
-0.145874
-0.158071
-0.159578
-0.152765
-0.139564
-0.121553
-0.100404
-0.0783878
-0.0583302
-0.0432472
-0.0358078
-0.0376881
-0.0490227
-0.0681644
-0.0918903
-0.116044
-0.136493
-0.150136
-0.155762
-0.153479
-0.145299
-0.133972
-0.121952
-0.110507
-0.0992668
-0.0863594
-0.0690544
-0.0446987
-0.0117626
0.0305325
0.0805481
0.132647
0.17654
0.200707
0.195337
0.155238
0.0821854
-0.0142376
-0.11805
-0.210596
-0.275668
-0.309194
-0.302007
-0.26539
-0.218554
-0.181192
-0.166556
-0.177272
-0.205213
-0.235175
-0.2507
-0.239834
-0.205238
-0.154579
-0.093763
-0.0274227
0.0397224
0.103488
0.160956
0.210843
0.2536
0.291229
0.326869
0.364213
0.40683
0.458034
0.521767
0.600182
0.686652
0.767566
0.827975
0.855862
0.845321
0.797609
0.719981
0.623239
0.519156
0.418048
0.324884
0.241443
0.168342
0.105471
0.0507969
0
-0.0427067
-0.0943672
-0.167619
-0.301129
-0.510883
-0.783103
-1.08992
-1.1473
-0.428275
1.38622
4.28295
7.80954
11.1703
13.5024
14.2035
13.1561
10.7494
7.69873
4.75919
2.46745
1.01668
0.295068
0.033144
0.0190292
0.0124138
0.0135464
0.0258621
0.0521976
0.0945084
0.153565
0.228706
0.317749
0.417119
0.522213
0.627966
0.729594
0.822966
0.905683
0.977371
1.03982
1.09678
1.15349
1.21582
1.28942
1.3788
1.48658
1.61243
1.75451
1.9107
2.07851
2.25524
2.4383
2.6254
2.8146
3.00436
3.19342
3.3808
3.56572
3.74728
3.92406
4.09336
4.25023
4.38788
4.4996
4.57885
4.62098
4.62441
4.59056
4.52244
4.42247
4.29068
4.12725
3.9361
3.72106
3.48431
3.22836
2.95764
2.6784
2.39807
2.12436
1.86436
1.62373
1.40632
1.21425
1.04737
0.904198
0.782708
0.680967
0.597516
0.531359
0.484243
0.459272
0.452571
0.458126
0.46911
0.479617
0.486038
0.487394
0.48456
0.479032
0.472047
0.464654
0.457852
0.453309
0.453519
0.461501
0.480116
0.511225
0.553985
0.606886
0.667067
0.730256
0.791277
0.8451
0.887511
0.915617
0.928172
0.925735
0.910664
0.886936
0.859783
0.83484
0.817192
0.810938
0.818404
0.841111
0.878069
0.923005
0.968071
1.00566
1.02996
1.03781
1.02865
1.00378
0.965491
0.916434
0.860252
0.798885
0.736382
0.679484
0.637122
0.618556
0.631601
0.680523
0.76439
0.876429
1.00477
1.13466
1.25161
1.34646
1.41933
1.47065
1.5025
1.51891
1.52469
1.52457
1.52218
1.51943
1.51675
1.51336
1.50725
1.49586
1.47671
1.44808
1.40938
1.36116
1.30472
1.24145
1.17222
1.09744
1.01634
0.926126
0.823598
0.709044
0.586378
0.46111
0.340931
0.227458
0.114863
0
-0.0474066
0.462879
1.95272
4.5809
8.06068
11.6867
14.5661
15.9447
15.4796
13.3511
10.1817
6.80389
3.96741
2.10055
1.22236
1.03425
1.0904
1.04097
0.990477
0.941236
0.895405
0.854912
0.821421
0.796289
0.780926
0.77708
0.786613
0.811309
0.852821
0.912288
0.989944
1.08483
1.19472
1.3163
1.44553
1.57805
1.7099
1.83768
1.95863
2.07161
2.17711
2.27725
2.37563
2.47681
2.58567
2.70654
2.84259
2.99518
3.16345
3.34609
3.54161
3.74832
3.96473
4.1911
4.42825
4.67407
4.91894
5.14356
5.32649
5.45186
5.50683
5.47956
5.36062
5.14818
4.85373
4.50403
4.13705
3.78845
3.46704
3.16735
2.88701
2.62621
2.38342
2.15568
1.93929
1.73047
1.52613
1.32455
1.12592
0.933653
0.756594
0.605106
0.490069
0.419607
0.396206
0.415219
0.467578
0.536305
0.603788
0.656118
0.686131
0.694315
0.687466
0.67569
0.668814
0.672627
0.686796
0.709993
0.737028
0.760654
0.773598
0.770262
0.748098
0.708427
0.656599
0.601384
0.553584
0.523604
0.518175
0.554426
0.6418
0.756819
0.866741
0.941667
0.964675
0.935846
0.869482
0.787076
0.709715
0.650272
0.608324
0.580765
0.565306
0.55991
0.562362
0.570315
0.581346
0.593091
0.603251
0.6099
0.611768
0.608453
0.600565
0.589687
0.578119
0.568412
0.562805
0.562742
0.568514
0.579549
0.594634
0.612359
0.631521
0.651404
0.671808
0.692867
0.714825
0.737812
0.761773
0.786506
0.811811
0.837747
0.864862
0.89433
0.927932
0.968038
1.01821
1.08432
1.17518
1.29543
1.42691
1.53702
1.59055
1.55987
1.43508
1.23017
0.981608
0.738045
0.544571
0.406599
0.303035
0.222101
0.160811
0.116227
0.0840273
0.0596136
0.0390725
0.019663
0
-0.0243125
0.052787
0.783764
2.51103
5.30717
8.83005
12.3391
14.9087
15.7815
14.7048
12.0653
8.72015
5.60188
3.31948
1.98077
1.31018
0.938156
0.796095
0.664947
0.54233
0.431666
0.336848
0.261639
0.207852
0.176943
0.169824
0.186447
0.225413
0.283837
0.35761
0.442019
0.532468
0.625104
0.717639
0.808818
0.897961
0.984738
1.06889
1.15032
1.22937
1.30697
1.3849
1.46576
1.55281
1.64943
1.75861
1.88256
2.0221
2.1769
2.34666
2.53088
2.72867
2.9385
3.15961
3.38966
3.61853
3.82888
4.00276
4.12577
4.18985
4.19363
4.14063
4.03644
3.88627
3.69413
3.46771
3.21655
2.94877
2.67067
2.38741
2.10339
1.82233
1.54731
1.28093
1.02552
0.783495
0.557784
0.352897
0.172472
0.0196775
-0.103534
-0.195718
-0.259073
-0.297935
-0.318221
-0.326642
-0.329185
-0.332648
-0.342335
-0.360981
-0.388323
-0.421122
-0.45388
-0.480321
-0.492111
-0.48403
-0.463591
-0.444906
-0.442187
-0.462798
-0.5033
-0.550381
-0.586171
-0.595546
-0.576567
-0.538958
-0.488414
-0.431966
-0.376103
-0.324958
-0.279484
-0.237909
-0.197417
-0.15533
-0.114097
-0.0816742
-0.0678116
-0.0787497
-0.113306
-0.162399
-0.212097
-0.248529
-0.264027
-0.262218
-0.247581
-0.22323
-0.192144
-0.157526
-0.122413
-0.0894663
-0.0610308
-0.0389235
-0.0242144
-0.017374
-0.0182629
-0.0261265
-0.0396515
-0.0570988
-0.0764841
-0.0957577
-0.112991
-0.126559
-0.134842
-0.136399
-0.130058
-0.115075
-0.0913189
-0.0594044
-0.020719
0.0227053
0.0685688
0.114489
0.15865
0.200346
0.240271
0.280527
0.324273
0.376799
0.44812
0.548253
0.666724
0.775742
0.843273
0.845158
0.774488
0.645056
0.487512
0.338971
0.229492
0.159871
0.113685
0.080265
0.0541605
0.0293879
0
-0.0385332
-0.0922297
-0.165302
-0.265014
-0.405824
-0.584914
-0.793708
-1.01871
-0.776398
0.323679
2.46516
5.5367
9.07801
12.3549
14.5656
15.1194
13.8721
11.2001
7.85757
4.67877
2.26835
0.832298
0.210493
0.0635174
0.0769268
0.0918959
0.109233
0.129531
0.152823
0.178823
0.207393
0.238864
0.274093
0.314221
0.360184
0.412232
0.469711
0.531237
0.595442
0.661708
0.730802
0.805063
0.888001
0.983429
1.09437
1.22152
1.36315
1.51658
1.67828
1.8443
2.01096
2.17558
2.33694
2.49545
2.65308
2.81284
2.97819
3.15221
3.33687
3.53399
3.74415
3.96192
4.17376
4.3615
4.50957
4.60722
4.64928
4.6355
4.56934
4.45672
4.30449
4.11932
3.90788
3.67841
3.43819
3.19237
2.94454
2.69785
2.45529
2.21944
1.99218
1.7746
1.56708
1.36958
1.1821
1.00518
0.840714
0.690963
0.558636
0.44641
0.356312
0.289244
0.244773
0.221226
0.216011
0.226038
0.247773
0.278223
0.314623
0.354358
0.394926
0.433182
0.465925
0.490302
0.504312
0.507284
0.500159
0.485456
0.466996
0.449474
0.437569
0.435085
0.445902
0.473062
0.518933
0.589038
0.686077
0.801694
0.918448
1.01791
1.08497
1.11094
1.09478
1.04297
0.968051
0.88634
0.814471
0.763215
0.735032
0.726364
0.731667
0.746744
0.767053
0.788185
0.806612
0.820162
0.828162
0.83128
0.831175
0.83007
0.8303
0.834019
0.84306
0.858877
0.882533
0.914642
0.95521
1.00356
1.05856
1.11804
1.17803
1.23396
1.28206
1.32047
1.34988
1.37347
1.39611
1.42299
1.4581
1.50256
1.5545
1.61136
1.66883
1.72089
1.76014
1.7798
1.7741
1.73917
1.67389
1.58054
1.46501
1.33609
1.20386
1.07743
0.961405
0.856181
0.759513
0.666182
0.569184
0.456427
0.322034
0.167174
0
0.00715294
0.747271
2.49151
5.25167
8.66636
12.0237
14.4665
15.3104
14.3266
11.835
8.55842
5.32359
2.76511
1.16376
0.457367
0.372089
0.483382
0.588187
0.681389
0.760486
0.826134
0.881941
0.933554
0.987232
1.04827
1.11949
1.20039
1.28835
1.37987
1.47108
1.55838
1.63911
1.71186
1.77656
1.83419
1.8867
1.93692
1.98829
2.04473
2.11046
2.18965
2.28596
2.40187
2.53822
2.69365
2.86495
3.04836
3.24007
3.43693
3.63699
3.83982
4.0462
4.25851
4.48287
4.72268
4.96048
5.16915
5.32293
5.40733
5.42219
5.37657
5.27962
5.1338
4.93516
4.69446
4.42339
4.13053
3.82462
3.51597
3.21352
2.92368
2.65207
2.40245
2.17601
1.97159
1.78631
1.61658
1.45896
1.31096
1.17145
1.04061
0.919693
0.810322
0.71447
0.634344
0.572531
0.531196
0.511483
0.513954
0.53821
0.584549
0.653509
0.738124
0.825736
0.903136
0.959367
0.987916
0.987717
0.962869
0.921387
0.873437
0.829185
0.795533
0.775719
0.770269
0.777653
0.79585
0.821837
0.851309
0.880094
0.9049
0.923787
0.936241
0.942862
0.94481
0.94322
0.938812
0.931926
0.922549
0.910804
0.897261
0.883027
0.86956
0.858231
0.849826
0.844345
0.840482
0.836085
0.828863
0.817143
0.800453
0.779698
0.756903
0.734634
0.715351
0.700699
0.691668
0.689041
0.693556
0.706188
0.728215
0.761003
0.805578
0.862126
0.929412
1.00499
1.08568
1.16772
1.24722
1.3205
1.38441
1.43636
1.47422
1.49571
1.49883
1.48217
1.4448
1.38661
1.30861
1.21314
1.10383
0.985326
0.862807
0.74138
0.625321
0.518252
0.422571
0.339295
0.268203
0.208042
0.156842
0.112428
0.0727101
0.0356972
0
-0.0329429
0.160259
0.966785
2.69478
5.40505
8.76312
12.0589
14.4261
15.1748
14.0806
11.4839
8.14776
4.94375
2.52207
1.1192
0.575803
0.518594
0.470429
0.425049
0.386122
0.357611
0.343568
0.3472
0.369804
0.410015
0.463751
0.524989
0.587206
0.645054
0.696296
0.740995
0.78172
0.822812
0.869327
0.926
0.995362
1.07851
1.17612
1.28833
1.41454
1.55354
1.70349
1.86202
2.02622
2.19294
2.359
2.5217
2.67914
2.83063
2.97679
3.11952
3.26169
3.40669
3.55854
3.72365
3.91136
4.13015
4.37662
4.62276
4.83805
5.0015
5.08651
5.05854
4.89106
4.58788
4.19324
3.77985
3.4212
3.12581
2.86216
2.61462
2.38001
2.157
1.94412
1.74017
1.54453
1.3575
1.18027
1.01482
0.863512
0.728596
0.611969
0.514459
0.435792
0.374912
0.330457
0.301057
0.285407
0.282481
0.29139
0.311107
0.340206
0.37668
0.41791
0.460854
0.501944
0.537578
0.564654
0.580956
0.585506
0.578791
0.562808
0.540895
0.517347
0.496861
0.483777
0.481427
0.49233
0.517765
0.557728
0.610977
0.676305
0.752153
0.832176
0.904688
0.957364
0.980268
0.969194
0.927889
0.86794
0.806022
0.759424
0.740701
0.747676
0.775059
0.82335
0.891266
0.972535
1.05329
1.11757
1.15126
1.14492
1.09618
1.01097
0.902638
0.789259
0.690082
0.617996
0.574443
0.561592
0.582575
0.637776
0.72448
0.836776
0.968164
1.10688
1.23841
1.35041
1.4353
1.49166
1.52376
1.53962
1.54805
1.5558
1.56556
1.57655
1.58647
1.59214
1.59055
1.57942
1.55753
1.5245
1.48045
1.42584
1.36153
1.28856
1.20816
1.12188
1.03154
0.93936
0.84733
0.756612
0.667091
0.577267
0.484453
0.383384
0.268296
0.139112
0
-0.169729
0.263715
1.65738
4.18273
7.63895
11.4091
14.6015
16.3511
16.165
14.1413
10.9317
7.45353
4.50397
2.4872
1.38079
0.906207
0.780063
0.77994
0.782072
0.786636
0.793963
0.804566
0.819097
0.838211
0.862415
0.891915
0.926487
0.965459
1.00786
1.05259
1.09878
1.14607
1.19486
1.24638
1.30261
1.36604
1.43938
1.52511
1.62509
1.74033
1.87074
2.01504
2.17084
2.33503
2.50416
2.67504
2.84509
3.01256
3.1765
3.33653
3.49253
3.64439
3.79192
3.93485
4.07297
4.2061
4.33379
4.45497
4.56703
4.66411
4.73675
4.77167
4.7538
4.66999
4.51291
4.28419
3.99573
3.66827
3.32716
2.99475
2.6795
2.38329
2.10877
1.85617
1.62393
1.40965
1.21109
1.02687
0.856863
0.702064
0.56412
0.446558
0.352405
0.2802
0.226764
0.18803
0.160062
0.139808
0.125325
0.115551
0.109899
0.107832
0.109195
0.114181
0.123405
0.137739
0.157896
0.183959
0.214973
0.248819
0.283403
0.316666
0.346764
0.372184
0.391882
0.405521
0.413279
0.415763
0.413901
0.408759
0.401292
0.39205
0.380918
0.366916
0.348441
0.323866
0.292255
0.254137
0.211965
0.170066
0.133992
0.109431
0.100968
0.11193
0.143703
0.194844
0.259664
0.325221
0.376341
0.400991
0.393081
0.354523
0.295723
0.233553
0.186728
0.169974
0.185604
0.222916
0.273058
0.330858
0.391702
0.45187
0.509017
0.562255
0.6119
0.659038
0.705092
0.751535
0.799802
0.851382
0.90795
0.971384
1.04362
1.12628
1.22096
1.33035
1.45435
1.58344
1.7021
1.79466
1.84893
1.8582
1.821
1.73965
1.61883
1.46563
1.29285
1.11456
0.941505
0.782036
0.64268
0.526478
0.432319
0.35536
0.288435
0.224008
0.156041
0.0815182
0
-0.0987015
0.316165
1.44033
3.44066
6.27438
9.58116
12.6899
14.7985
15.2747
13.9405
11.1783
7.78166
4.61956
2.29484
0.972718
0.446709
0.358369
0.342518
0.327774
0.315041
0.305446
0.30039
0.3015
0.310569
0.329493
0.360234
0.404763
0.464952
0.542281
0.63865
0.763613
0.928458
1.11649
1.29059
1.41231
1.45637
1.42167
1.33349
1.23584
1.17648
1.19041
1.26557
1.37477
1.50428
1.64813
1.80197
1.96308
2.13085
2.30688
2.49432
2.6969
2.91773
3.15972
3.43038
3.73131
4.04278
4.32722
4.55385
4.706
4.77889
4.77403
4.69457
4.54353
4.32553
4.05069
3.73855
3.41442
3.09518
2.78653
2.48832
2.20019
1.92281
1.65681
1.40318
1.16338
0.93939
0.733393
0.547023
0.381322
0.236624
0.112564
0.00814705
-0.0773668
-0.143649
-0.193107
-0.230858
-0.262253
-0.291741
-0.321735
-0.351961
-0.379637
-0.400481
-0.410236
-0.407302
-0.393082
-0.369038
-0.337434
-0.302356
-0.267925
-0.237395
-0.212541
-0.193531
-0.179268
-0.168083
-0.15851
-0.149873
-0.142437
-0.137238
-0.135587
-0.138517
-0.146288
-0.158071
-0.17188
-0.184743
-0.193154
-0.19366
-0.183174
-0.156431
-0.105333
-0.0310297
0.0455158
0.0977711
0.103482
0.0547697
-0.036599
-0.142397
-0.229054
-0.271482
-0.271109
-0.248844
-0.214561
-0.174196
-0.13296
-0.0943668
-0.0602278
-0.0308525
-0.00548477
0.0171713
0.038471
0.0597197
0.0821037
0.10687
0.135535
0.169956
0.212188
0.264104
0.326874
0.400464
0.48296
0.571799
0.662425
0.747792
0.820645
0.874943
0.906906
0.915499
0.902263
0.870574
0.824595
0.768285
0.705372
0.638293
0.568246
0.495898
0.421884
0.347088
0.273115
0.202842
0.139683
0.0869413
0.0469337
0.0202818
0.00565052
0
-0.00257969
-0.00489063
-0.0771687
0.186938
1.23572
3.31904
6.32053
9.68508
12.5549
14.0877
13.8142
11.8518
8.84974
5.69337
3.12609
1.49044
0.70331
0.433398
0.349219
0.30809
0.273981
0.25077
0.242566
0.252241
0.277051
0.308007
0.335283
0.351729
0.355777
0.352684
0.353499
0.371964
0.420284
0.503607
0.615329
0.746088
0.888288
1.03509
1.17994
1.31738
1.44352
1.55693
1.65875
1.75234
1.84285
1.9365
2.03975
2.15836
2.29651
2.45612
2.63603
2.83265
3.04054
3.25276
3.46158
3.65886
3.83763
3.99253
4.11994
4.21779
4.28392
4.31549
4.31209
4.27335
4.19912
4.09001
3.94773
3.77525
3.57634
3.35488
3.11411
2.85829
2.58975
2.31004
2.02153
1.72807
1.43528
1.15041
0.881736
0.637562
0.425013
0.249989
0.119914
0.0456375
0.0369347
0.0823471
0.148081
0.201726
0.219769
0.192905
0.127526
0.0423321
-0.0391022
-0.0967209
-0.123303
-0.12711
-0.115346
-0.0908474
-0.0553951
-0.0110706
0.0398727
0.094809
0.149928
0.201144
0.244909
0.278988
0.303029
0.318665
0.329051
0.337966
0.34871
0.363083
0.381587
0.402097
0.420948
0.434475
0.4404
0.438651
0.431332
0.42185
0.413564
0.408536
0.406522
0.406022
0.404834
0.400791
0.392553
0.380098
0.364797
0.34908
0.335831
0.327416
0.325213
0.329689
0.340842
0.357541
0.378208
0.401249
0.425424
0.45002
0.474836
0.50002
0.525916
0.552934
0.581591
0.612617
0.647026
0.68607
0.731056
0.783082
0.842815
0.909953
0.983739
1.06339
1.14803
1.2357
1.31951
1.38686
1.42165
1.40811
1.33618
1.20648
1.03238
0.837866
0.65147
0.498343
0.380152
0.28949
0.225729
0.185361
0.16287
0.152092
0.146551
0.139982
0.127698
0.107049
0.0775703
0.0408344
0
-0.088118
0.357456
1.74582
4.25571
7.63586
11.1832
13.9542
15.1298
14.3597
11.9137
8.56277
5.24858
2.70695
1.22593
0.641006
0.535917
0.445022
0.36226
0.286331
0.22045
0.167356
0.12902
0.106393
0.099284
0.106839
0.128474
0.16149
0.203031
0.251204
0.305474
0.36656
0.435786
0.514147
0.601479
0.696116
0.794796
0.894843
0.994615
1.09399
1.19472
1.3003
1.41527
1.54423
1.69024
1.85443
2.03541
2.22978
2.43179
2.63228
2.82295
2.99861
3.15861
3.30715
3.45199
3.60908
3.81566
4.05738
4.28391
4.43833
4.48666
4.43054
4.29845
4.1232
3.92071
3.6842
3.41667
3.12707
2.82114
2.50328
2.17885
1.85446
1.53747
1.23556
0.955944
0.704572
0.486006
0.306131
0.170325
0.0726357
0.00146065
-0.0561996
-0.112037
-0.174198
-0.246119
-0.326624
-0.411062
-0.49298
-0.567136
-0.630544
-0.680329
-0.715012
-0.734525
-0.740008
-0.733493
-0.71753
-0.694863
-0.668246
-0.640204
-0.613306
-0.590047
-0.572753
-0.563426
-0.563468
-0.573331
-0.592188
-0.617727
-0.64618
-0.672297
-0.689906
-0.693302
-0.678537
-0.644511
-0.591454
-0.524516
-0.454794
-0.394225
-0.352684
-0.335831
-0.344263
-0.374102
-0.418592
-0.470003
-0.52118
-0.567181
-0.605714
-0.635276
-0.654484
-0.662724
-0.659222
-0.64527
-0.624971
-0.603308
-0.585015
-0.573413
-0.56964
-0.57251
-0.579057
-0.585499
-0.588294
-0.585258
-0.575318
-0.557399
-0.530556
-0.493737
-0.445749
-0.38552
-0.312583
-0.227617
-0.132826
-0.031996
0.0699747
0.167589
0.25578
0.330716
0.390312
0.434287
0.463816
0.480866
0.487469
0.485169
0.474458
0.455281
0.427301
0.39052
0.345805
0.295112
0.241264
0.187345
0.135885
0.0881306
0.0435822
0
-0.0417566
-0.0903189
-0.149797
-0.224325
-0.323562
-0.458857
-0.625253
-0.813939
-1.02173
-0.778025
0.355898
2.67312
6.07506
9.9527
13.3238
15.2047
15.0414
12.9621
9.70438
6.25836
3.4368
1.60585
0.687119
0.359877
0.296883
0.239886
0.185769
0.137582
0.0982573
0.0705666
0.0568501
0.0587317
0.0769238
0.111168
0.160317
0.22251
0.295245
0.375522
0.460731
0.548752
0.637891
0.726922
0.815154
0.902415
0.989032
1.07579
1.16388
1.25485
1.35049
1.45271
1.5633
1.68375
1.81505
1.95768
2.11156
2.27629
2.4512
2.6355
2.82825
3.02821
3.23379
3.44298
3.65281
3.85902
4.05486
4.22947
4.37185
4.47319
4.52473
4.51905
4.452
4.32397
4.13962
3.90647
3.63376
3.33693
3.03054
2.72332
2.42151
2.13095
1.85659
1.60197
1.36896
1.15781
0.967545
0.796624
0.643582
0.507923
0.389739
0.289463
0.207569
0.145103
0.100903
0.0726479
0.0571976
0.0512096
0.051803
0.057053
0.0661942
0.0795017
0.0978867
0.122057
0.152676
0.190647
0.23488
0.278833
0.313337
0.329243
0.320343
0.285704
0.230374
0.164129
0.0986992
0.0445475
0.00477543
-0.0217196
-0.0348715
-0.0354841
-0.0247112
-0.00340137
0.0283066
0.0710058
0.125694
0.197155
0.292245
0.405419
0.516378
0.601278
0.642076
0.634357
0.589484
0.529632
0.478051
0.449496
0.440352
0.440173
0.44354
0.445724
0.44331
0.43494
0.421548
0.406129
0.393018
0.386378
0.390396
0.413837
0.460537
0.518146
0.568948
0.597953
0.600728
0.586394
0.573536
0.580867
0.617863
0.675569
0.742204
0.810028
0.873557
0.931447
0.986638
1.04482
1.11192
1.19159
1.28616
1.39001
1.48992
1.571
1.62083
1.63229
1.60453
1.54229
1.45419
1.35074
1.24277
1.13821
1.04078
0.951563
0.870155
0.795264
0.723833
0.651774
0.574727
0.486739
0.381631
0.260913
0.130657
0
-0.0225685
0.520087
1.73968
3.79362
6.65356
9.97784
13.0983
15.1929
15.608
14.166
11.2745
7.76
4.51433
2.15116
0.84543
0.399334
0.452426
0.552649
0.648253
0.735374
0.811721
0.877251
0.934259
0.984593
1.02977
1.07126
1.11043
1.14861
1.18724
1.22801
1.27292
1.32406
1.38325
1.45151
1.52877
1.61397
1.70485
1.79877
1.89369
1.98894
2.08559
2.18629
2.29462
2.4142
2.54786
2.69618
2.85847
3.03332
3.21838
3.4105
3.60611
3.80135
3.99231
4.17532
4.34708
4.50456
4.64399
4.75983
4.84653
4.90081
4.91874
4.8961
4.82917
4.71554
4.55464
4.34803
4.09936
3.8167
3.51205
3.19487
2.87294
2.55453
2.24795
1.96096
1.69997
1.46944
1.2715
1.10582
0.969912
0.859619
0.769832
0.6951
0.630442
0.571947
0.517164
0.465341
0.417295
0.374906
0.340549
0.316333
0.303485
0.302005
0.310639
0.327139
0.348659
0.372155
0.394808
0.414073
0.428091
0.435814
0.437151
0.433063
0.425548
0.417467
0.412188
0.413113
0.422799
0.442436
0.472516
0.512342
0.560259
0.613179
0.667131
0.717884
0.761439
0.7944
0.814199
0.819191
0.808717
0.783184
0.744399
0.695234
0.639825
0.583244
0.531354
0.48956
0.461812
0.450524
0.45677
0.476349
0.503255
0.531654
0.557673
0.580456
0.602153
0.626878
0.659026
0.701532
0.753586
0.813224
0.87608
0.93606
0.987358
1.02594
1.05053
1.06287
1.06716
1.06897
1.07373
1.08537
1.10483
1.13046
1.15971
1.18855
1.21195
1.22483
1.22264
1.20202
1.16116
1.1001
1.02087
0.927409
0.825145
0.720321
0.61898
0.525912
0.443745
0.372487
0.309736
0.251539
0.193692
0.132826
0.067836
0
-0.080632
0.398236
1.74009
4.05119
7.11317
10.3666
13.0471
14.4387
14.1481
12.2706
9.35957
6.20414
3.52036
1.70953
0.793661
0.524083
0.552993
0.543339
0.534214
0.528995
0.53139
0.54496
0.572294
0.61418
0.669124
0.733504
0.802367
0.870669
0.934758
0.993572
1.04743
1.09819
1.14893
1.20329
1.26481
1.33623
1.41934
1.51498
1.62296
1.74217
1.87092
2.00732
2.14964
2.2966
2.4475
2.60208
2.76029
2.92193
3.08642
3.25254
3.41842
3.58166
3.73951
3.88888
4.02738
4.15338
4.26606
4.36524
4.4504
4.51653
4.55545
4.55862
4.51418
4.41043
4.2403
4.00488
3.71456
3.38704
3.04321
2.70202
2.37188
2.05915
1.76832
1.50191
1.2609
1.04524
0.854214
0.686804
0.541801
0.417855
0.313404
0.226658
0.155572
0.097562
0.0497801
0.00939171
-0.0260976
-0.0585029
-0.0886731
-0.116249
-0.139526
-0.155884
-0.162467
-0.156824
-0.137565
-0.104695
-0.0595424
-0.00431173
0.0585474
0.126876
0.198715
0.272791
0.347568
0.418568
0.478033
0.516534
0.526319
0.505115
0.45837
0.398501
0.341214
0.30047
0.283072
0.283032
0.296337
0.3196
0.348801
0.379899
0.409649
0.435526
0.455791
0.469464
0.476242
0.476389
0.470615
0.459966
0.44572
0.429382
0.412395
0.396106
0.381661
0.369916
0.361361
0.355927
0.353174
0.352678
0.354411
0.359045
0.368021
0.383336
0.407056
0.440716
0.484464
0.537103
0.596855
0.660782
0.725659
0.788622
0.847702
0.902092
0.952119
0.99896
1.0442
1.08937
1.13545
1.18267
1.23027
1.27551
1.31279
1.33521
1.33591
1.31015
1.25699
1.18004
1.08649
0.984902
0.882489
0.782764
0.685554
0.589911
0.494579
0.398581
0.303395
0.213321
0.134077
0.0707851
0.0262288
0
-0.0111376
0.00911037
0.419654
1.45822
3.38791
6.23349
9.63505
12.8618
15.0396
15.5044
14.0978
11.2392
7.74282
4.48481
2.08929
0.765785
0.33802
0.416183
0.447521
0.475452
0.497465
0.512272
0.520041
0.522305
0.521575
0.520798
0.522615
0.529061
0.541527
0.560674
0.586537
0.618977
0.657929
0.703514
0.756113
0.816336
0.884901
0.962463
1.04943
1.14592
1.25162
1.36586
1.48762
1.6157
1.74891
1.88624
2.02705
2.17111
2.31856
2.46985
2.62548
2.78581
2.95089
3.12037
3.29352
3.46931
3.64605
3.82033
3.98508
4.1299
4.24297
4.3115
4.32413
4.27356
4.15799
3.9809
3.74939
3.47201
3.1612
2.83038
2.48932
2.14464
1.80183
1.46707
1.14724
0.849458
0.580306
0.345023
0.146844
-0.0133964
-0.137286
-0.228482
-0.29216
-0.334333
-0.361233
-0.378801
-0.39219
-0.405334
-0.420799
-0.439771
-0.462164
-0.486828
-0.511846
-0.534885
-0.553501
-0.565487
-0.56933
-0.564345
-0.550749
-0.5296
-0.502598
-0.471783
-0.439222
-0.406754
-0.375836
-0.347585
-0.323162
-0.303683
-0.290137
-0.283337
-0.283574
-0.29022
-0.301457
-0.314304
-0.325017
-0.329812
-0.325858
-0.311751
-0.286535
-0.253132
-0.216519
-0.181724
-0.152266
-0.129238
-0.111384
-0.0960908
-0.0808468
-0.0645186
-0.0479498
-0.0331496
-0.0226799
-0.0188052
-0.0228342
-0.0348599
-0.053902
-0.0782885
-0.105964
-0.13482
-0.162988
-0.188435
-0.208745
-0.221176
-0.223113
-0.212348
-0.187552
-0.148667
-0.0970399
-0.0352328
0.0334693
0.105724
0.178753
0.250838
0.321253
0.390037
0.457697
0.524867
0.592064
0.659491
0.726901
0.793361
0.856054
0.907818
0.938815
0.937109
0.892504
0.801303
0.669689
0.513638
0.354862
0.214397
0.10334
0.0155367
-0.0487664
-0.0914524
-0.115687
-0.124989
-0.123197
-0.112946
-0.0964071
-0.0753918
-0.0514872
-0.0261564
0
0.497466
1.84544
4.21686
7.40152
10.7763
13.4758
14.7145
14.1191
11.8993
8.75639
5.56902
3.02972
1.42476
0.648686
0.390405
0.341145
0.296451
0.254777
0.218054
0.188219
0.167116
0.156385
0.157381
0.171102
0.198134
0.238591
0.292067
0.357365
0.432983
0.517272
0.608491
0.70502
0.805483
0.90881
1.01425
1.12123
1.22931
1.33823
1.44806
1.55936
1.67331
1.79174
1.9169
2.0512
2.19677
2.35502
2.52638
2.71014
2.90453
3.10692
3.31423
3.52325
3.73073
3.93216
4.11978
4.28401
4.4157
4.50418
4.54025
4.51964
4.44438
4.32095
4.15616
3.95369
3.71871
3.46008
3.18444
2.89623
2.59983
2.30065
2.00511
1.72002
1.45181
1.20594
0.986305
0.79499
0.632281
0.496788
0.38587
0.296122
0.223882
0.165659
0.118421
0.079751
0.0478768
0.0216206
0.000298536
-0.01632
-0.0280315
-0.0342527
-0.0343569
-0.0278053
-0.0144243
0.00535831
0.0304222
0.0589626
0.0887521
0.117488
0.14316
0.164362
0.18039
0.191526
0.198895
0.204274
0.209797
0.217555
0.229178
0.245658
0.26714
0.292419
0.319761
0.347563
0.374931
0.401946
0.429539
0.459026
0.491512
0.527155
0.565242
0.604268
0.640991
0.670084
0.686096
0.684707
0.664473
0.628247
0.583561
0.541465
0.513925
0.510527
0.532377
0.578097
0.644118
0.718401
0.786502
0.836038
0.859569
0.855917
0.82976
0.789844
0.746557
0.709709
0.68561
0.67619
0.682097
0.704917
0.746091
0.806428
0.88591
0.983452
1.09645
1.2212
1.35353
1.48744
1.61456
1.72669
1.81676
1.87956
1.91188
1.91238
1.88117
1.81974
1.73111
1.62248
1.50134
1.37549
1.25376
1.14528
1.06329
1.01841
1.00873
1.02284
1.04429
1.05386
1.03372
0.969703
0.852717
0.679935
0.455745
0.191937
-0.0934791
0
1.03431
3.2469
6.50135
10.2405
13.6136
15.755
16.1085
14.6476
11.8756
8.60451
5.62028
3.40567
2.04518
1.32792
0.962928
0.957366
0.96143
0.980674
1.01657
1.06647
1.12516
1.18734
1.24998
1.31353
1.3809
1.45623
1.54326
1.64586
1.76693
1.89411
2.0105
2.10151
2.16106
2.19412
2.21446
2.23878
2.28026
2.34339
2.42098
2.50808
2.60279
2.7042
2.81279
2.93034
3.05943
3.20278
3.36242
3.53924
3.7332
3.94326
4.16756
4.40385
4.64972
4.90401
5.16664
5.4355
5.70006
5.93908
6.12765
6.24347
6.2723
6.20993
6.0612
5.83733
5.55243
5.22062
4.86157
4.49426
4.12978
3.77342
3.42954
3.10289
2.79744
2.51623
2.26143
2.03445
1.83672
1.66867
1.53004
1.4199
1.33648
1.27707
1.23809
1.21532
1.20429
1.20072
1.20077
1.20155
1.20117
1.19872
1.19403
1.18736
1.17905
1.16924
1.15779
1.14426
1.12813
1.10905
1.08707
1.06279
1.03733
1.01225
0.98929
0.970162
0.956446
0.949503
0.950422
0.959983
0.978576
1.00613
1.04241
1.08628
1.13481
1.18312
1.22497
1.25433
1.26648
1.25922
1.23358
1.19394
1.14738
1.10229
1.06658
1.04525
1.03865
1.0441
1.0588
1.07905
1.10089
1.12091
1.13687
1.14798
1.15488
1.15937
1.16397
1.17147
1.18447
1.20519
1.23532
1.27593
1.3273
1.38894
1.45953
1.53688
1.61815
1.69951
1.77638
1.84423
1.89916
1.93835
1.9603
1.96474
1.95234
1.92431
1.88194
1.82691
1.76071
1.68461
1.59991
1.50821
1.41152
1.31217
1.21255
1.11482
1.02031
0.929056
0.839621
0.749102
0.652424
0.536242
0.386081
0.202989
0
-0.144957
0.357751
1.81703
4.30495
7.53363
10.8565
13.4311
14.5193
13.8075
11.5677
8.54548
5.61254
3.38474
2.02674
1.32856
0.956097
0.848374
0.807983
0.789755
0.797111
0.816588
0.828767
0.816357
0.772576
0.705768
0.637705
0.595985
0.603774
0.661909
0.751068
0.864289
0.992769
1.12684
1.2563
1.37321
1.47361
1.55793
1.63059
1.69864
1.77002
1.85164
1.94812
2.05934
2.18317
2.31808
2.46244
2.61466
2.77338
2.93766
3.107
3.28138
3.46131
3.64811
3.8488
4.09148
4.40989
4.75783
5.048
5.19952
5.18418
5.03743
4.82839
4.61317
4.40566
4.18665
3.95138
3.70234
3.44106
3.16907
2.8891
2.60483
2.32084
2.04238
1.77487
1.52329
1.29173
1.08308
0.898991
0.740096
0.605812
0.494882
0.405691
0.336562
0.286352
0.254573
0.240176
0.24212
0.258959
0.289513
0.331768
0.379399
0.424484
0.459488
0.479004
0.481043
0.467412
0.443136
0.415163
0.390856
0.375533
0.371668
0.38048
0.402614
0.438822
0.489254
0.549612
0.60987
0.659791
0.691939
0.704292
0.701309
0.692714
0.690153
0.705079
0.745252
0.798764
0.844111
0.860912
0.839974
0.787279
0.71994
0.65667
0.60845
0.571872
0.539588
0.508287
0.476584
0.446084
0.421213
0.407875
0.411379
0.433174
0.475071
0.532444
0.594574
0.649796
0.688978
0.708018
0.708601
0.697166
0.682727
0.67447
0.678311
0.696041
0.728548
0.776696
0.840667
0.919635
1.01253
1.11807
1.23164
1.34442
1.44632
1.52801
1.58242
1.60565
1.5972
1.5595
1.49727
1.41675
1.32544
1.23053
1.13779
1.05115
0.972671
0.902742
0.840684
0.784455
0.730321
0.673675
0.609772
0.531958
0.430675
0.304619
0.158579
0
-0.164853
0.121043
0.943505
2.45929
4.77494
7.77581
11.0125
13.742
15.1735
14.8176
12.7406
9.55686
6.1521
3.30183
1.40498
0.450178
0.172367
0.262216
0.343237
0.416091
0.478386
0.529211
0.569849
0.602403
0.629765
0.65517
0.681597
0.711233
0.74521
0.78394
0.82712
0.874329
0.9255
0.981198
1.04262
1.11132
1.18883
1.27623
1.37375
1.48102
1.59756
1.72289
1.85665
1.99862
2.1486
2.30611
2.47018
2.63913
2.8106
2.98176
3.1497
3.3119
3.46672
3.61376
3.75395
3.88933
4.02311
4.1627
4.32653
4.5238
4.72213
4.86841
4.91093
4.82261
4.6142
4.32898
4.02057
3.7258
3.44542
3.16844
2.89163
2.61459
2.33841
2.06586
1.80124
1.5498
1.31694
1.1073
0.924217
0.769834
0.644437
0.544333
0.464336
0.399281
0.345165
0.299786
0.262694
0.234491
0.217558
0.213114
0.217605
0.225656
0.232332
0.235479
0.236821
0.241139
0.253853
0.278219
0.312644
0.353229
0.394377
0.431049
0.460708
0.484064
0.504368
0.525635
0.5507
0.579676
0.61037
0.640318
0.666934
0.688053
0.702347
0.709483
0.710034
0.705271
0.697045
0.687237
0.677779
0.670531
0.66715
0.668934
0.676629
0.690477
0.710174
0.734568
0.761599
0.788581
0.812519
0.830533
0.840583
0.841853
0.835045
0.822415
0.807478
0.794404
0.787204
0.788901
0.800767
0.821876
0.850672
0.885132
0.923246
0.963549
1.00537
1.04874
1.09411
1.14186
1.19206
1.24425
1.29773
1.35185
1.40625
1.4611
1.51704
1.5751
1.63635
1.70169
1.77106
1.83976
1.89619
1.92558
1.91431
1.85498
1.75008
1.61195
1.4588
1.30842
1.1723
1.04867
0.9339
0.827284
0.727521
0.63296
0.541998
0.453218
0.365268
0.27661
0.186141
0.0936721
0
0.025524
0.60059
2.10116
4.70262
8.17257
11.8269
14.7204
16.0132
15.3317
12.9318
9.57315
6.17896
3.46818
1.74207
0.898967
0.61704
0.572254
0.528206
0.48536
0.445263
0.410316
0.384145
0.371202
0.376093
0.403085
0.455177
0.53317
0.638626
0.774002
0.924577
1.06466
1.17027
1.22663
1.23315
1.20408
1.16444
1.14221
1.15979
1.22024
1.3109
1.42229
1.54976
1.69027
1.84168
2.00287
2.17366
2.3542
2.54425
2.74234
2.94537
3.14853
3.3456
3.52984
3.69495
3.83584
3.94906
4.03266
4.08576
4.10726
4.09587
4.05052
3.96994
3.85326
3.70072
3.51431
3.29802
3.05755
2.79967
2.53163
2.25978
1.98917
1.72381
1.46692
1.22135
0.989889
0.775479
0.580978
0.409164
0.263827
0.147627
0.0568523
-0.0147573
-0.0745691
-0.129463
-0.184475
-0.242073
-0.302178
-0.362776
-0.420801
-0.473661
-0.519667
-0.557415
-0.585972
-0.604415
-0.613409
-0.616151
-0.61637
-0.617342
-0.621028
-0.627705
-0.636286
-0.6452
-0.653449
-0.661359
-0.670426
-0.682741
-0.700005
-0.722554
-0.748863
-0.775746
-0.799242
-0.815854
-0.823689
-0.823658
-0.817916
-0.809878
-0.803357
-0.801677
-0.806976
-0.819807
-0.839038
-0.861944
-0.884878
-0.903865
-0.915116
-0.91566
-0.903817
-0.879637
-0.84427
-0.79985
-0.749043
-0.694783
-0.639753
-0.586708
-0.539327
-0.502046
-0.478604
-0.471731
-0.481966
-0.506714
-0.540139
-0.574124
-0.600078
-0.610931
-0.604523
-0.582586
-0.545988
-0.496653
-0.436849
-0.369213
-0.295097
-0.214982
-0.128643
-0.0353464
0.0661362
0.178911
0.308315
0.454193
0.600192
0.723266
0.801164
0.82011
0.779337
0.690659
0.573918
0.450903
0.340354
0.249005
0.175293
0.117007
0.0727207
0.0412786
0.0207851
0.00830612
0
-0.00903187
-0.0243368
-0.0509525
-0.0926062
-0.150963
-0.225134
-0.311617
-0.404758
-0.354148
0.342495
1.95541
4.54586
7.84969
11.2522
13.9193
15.0812
14.3606
11.9682
8.6346
5.29747
2.71538
1.21448
0.67636
0.719385
0.762334
0.801126
0.836131
0.867011
0.894459
0.919728
0.944229
0.969479
0.997088
1.02887
1.06697
1.1136
1.1712
1.24211
1.32798
1.42919
1.54454
1.67135
1.80561
1.94257
2.07673
2.20334
2.31947
2.42473
2.52135
2.61381
2.708
2.81028
2.92648
3.06087
3.21521
3.3905
3.587
3.80372
4.03822
4.28656
4.54428
4.80385
5.0525
5.27528
5.45977
5.59722
5.68311
5.71661
5.69912
5.6327
5.51893
5.35855
5.15365
4.90919
4.6309
4.3249
3.99849
3.66034
3.31919
2.9844
2.6658
2.37406
2.12904
1.97101
1.92573
1.95445
2.00262
2.01986
1.97716
1.87484
1.73905
1.60892
1.5199
1.48188
1.47392
1.48311
1.50327
1.52632
1.54518
1.55509
1.55427
1.54386
1.52717
1.50859
1.49244
1.48206
1.47886
1.48348
1.49678
1.5193
1.55133
1.59277
1.64294
1.70044
1.76317
1.82888
1.89511
1.95924
2.01834
2.0688
2.10729
2.13181
2.14184
2.13911
2.12811
2.11587
2.11072
2.12041
2.14998
2.19842
2.26383
2.33893
2.41443
2.48119
2.53211
2.56336
2.57471
2.5692
2.55241
2.53151
2.5134
2.50351
2.50651
2.52895
2.56726
2.61017
2.64487
2.66225
2.66071
56
230
403
583
765
940
1116
1294
1474
1649
1826
2006
2187
2360
2540
2720
2902
3076
3253
3433
3616
3658
0
0
0
0
0
0
0
0
0
0
0
0
0
0
0
0
0
0
0
0
0
0
0
0
0
0
0
0
0
0
0
0
0
0
0
0
0
0
0
0
0
0
0
0
0
0
0
0
0
0
0
0
0
0
0
0
0
0
0
0
0
0
0
0
0
0
0
0
0
0
0
0
0
0
0
0
0
0
0
0
0
0
0
0
0
0
0
0
0
0
0
0
0
0
0
0
0
0
0
0
0
0
0
0
0
0
0
0
0
0
0
0
0
0
0
0
0
0
0
0
0
0
0
0
0
0
0
0
0
0
0
0
0
0
0
0
0
0
0
0
0
0
0
0
0
0
0
0
0
0
0
0
0
0
0
0
0
0
0
0
0
0
0
0
0
0
0
0
0
0
0
0
0
0
0
0
0
0
0
0
0
0
0
0
0
0
0
0
0
0
0
0
0
0
0
0
0
0
0
0
0
0
0
0
0
0
0
0
0
0
0
0
0
0
0
0
0
0
0
0
0
0
0
0
0
0
0
0
0
0
0
0
0
0
0
0
0
0
0
0
0
0
0
0
0
0
0
0
0
0
0
0
0
0
0
0
0
0
0
0
0
0
0
0
0
0
0
0
0
0
0
0
0
0
0
0
0
0
0
0
0
0
0
0
0
0
0
0
0
0
0
0
0
0
0
0
0
0
0
0
0
0
0
0
0
0
0
0
0
0
0
0
0
0
0
0
0
0
0
0
0
0
0
0
0
0
0
0
0
0
0
0
0
0
0
0
0
0
0
0
0
0
0
0
0
0
0
0
0
0
0
0
0
0
0
0
0
0
0
0
0
0
0
0
0
0
0
0
0
0
0
0
0
0
0
0
0
0
0
0
0
0
0
0
0
0
0
0
0
0
0
0
0
0
0
0
0
0
0
0
0
0
0
0
0
0
0
0
0
0
0
0
0
0
0
0
0
0
0
0
0
0
0
0
0
0
0
0
0
0
0
0
0
0
0
0
0
0
0
0
0
0
0
0
0
0
0
0
0
0
0
0
0
0
0
0
0
0
0
0
0
0
0
0
0
0
0
0
0
0
0
0
0
0
0
0
0
0
0
0
0
0
0
0
0
0
0
0
0
0
0
0
0
0
0
0
0
0
0
0
0
0
0
0
0
0
0
0
0
0
0
0
0
0
0
0
0
0
0
0
0
0
0
0
0
0
0
0
0
0
0
0
0
0
0
0
0
0
0
0
0
0
0
0
0
0
0
0
0
0
0
0
0
0
0
0
0
0
0
0
0
0
0
0
0
0
0
0
0
0
0
0
0
0
0
0
0
0
0
0
0
0
0
0
0
0
0
0
0
0
0
0
0
0
0
0
0
0
0
0
0
0
0
0
0
0
0
0
0
0
0
0
0
0
0
0
0
0
0
0
0
0
0
0
0
0
0
0
0
0
0
0
0
0
0
0
0
0
0
0
0
0
0
0
0
0
0
0
0
0
0
0
0
0
0
0
0
0
0
0
0
0
0
0
0
0
0
0
0
0
0
0
0
0
0
0
0
0
0
0
0
0
0
0
0
0
0
0
0
0
0
0
0
0
0
0
0
0
0
0
0
0
0
0
0
0
0
0
0
0
0
0
0
0
0
0
0
0
0
0
0
0
0
0
0
0
0
0
0
0
0
0
0
0
0
0
0
0
0
0
0
0
0
0
0
0
0
0
0
0
0
0
0
0
0
0
0
0
0
0
0
0
0
0
0
0
0
0
0
0
0
0
0
0
0
0
0
0
0
0
0
0
0
0
0
0
0
0
0
0
0
0
0
0
0
0
0
0
0
0
0
0
0
0
0
0
0
0
0
0
0
0
0
0
0
0
0
0
0
0
0
0
0
0
0
0
0
0
0
0
0
0
0
0
0
0
0
0
0
0
0
0
0
0
0
0
0
0
0
0
0
0
0
0
0
0
0
0
0
0
0
0
0
0
0
0
0
0
0
0
0
0
0
0
0
0
0
0
0
0
0
0
0
0
0
0
0
0
0
0
0
0
0
0
0
0
0
0
0
0
0
0
0
0
0
0
0
0
0
0
0
0
0
0
0
0
0
0
0
0
0
0
0
0
0
0
0
0
0
0
0
0
0
0
0
0
0
0
0
0
0
0
0
0
0
0
0
0
0
0
0
0
0
0
0
0
0
0
0
0
0
0
0
0
0
0
0
0
0
0
0
0
0
0
0
0
0
0
0
0
0
0
0
0
0
0
0
0
0
0
0
0
0
0
0
0
0
0
0
0
0
0
0
0
0
0
0
0
0
0
0
0
0
0
0
0
0
0
0
0
0
0
0
0
0
0
0
0
0
0
0
0
0
0
0
0
0
0
0
0
0
0
0
0
0
0
0
0
0
0
0
0
0
0
0
0
0
0
0
0
0
0
0
0
0
0
0
0
0
0
0
0
0
0
0
0
0
0
0
0
0
0
0
0
0
0
0
0
0
0
0
0
0
0
0
0
0
0
0
0
0
0
0
0
0
0
0
0
0
0
0
0
0
0
0
0
0
0
0
0
0
0
0
0
0
0
0
0
0
0
0
0
0
0
0
0
0
0
0
0
0
0
0
0
0
0
0
0
0
0
0
0
0
0
0
0
0
0
0
0
0
0
0
0
0
0
0
0
0
0
0
0
0
0
0
0
0
0
0
0
0
0
0
0
0
0
0
0
0
0
0
0
0
0
0
0
0
0
0
0
0
0
0
0
0
0
0
0
0
0
0
0
0
0
0
0
0
0
0
0
0
0
0
0
0
0
0
0
0
0
0
0
0
0
0
0
0
0
0
0
0
0
0
0
0
0
0
0
0
0
0
0
0
0
0
0
0
0
0
0
0
0
0
0
0
0
0
0
0
0
0
0
0
0
0
0
0
0
0
0
0
0
0
0
0
0
0
0
0
0
0
0
0
0
0
0
0
0
0
0
0
0
0
0
0
0
0
0
0
0
0
0
0
0
0
0
0
0
0
0
0
0
0
0
0
0
0
0
0
0
0
0
0
0
0
0
0
0
0
0
0
0
0
0
0
0
0
0
0
0
0
0
0
0
0
0
0
0
0
0
0
0
0
0
0
0
0
0
0
0
0
0
0
0
0
0
0
0
0
0
0
0
0
0
0
0
0
0
0
0
0
0
0
0
0
0
0
0
0
0
0
0
0
0
0
0
0
0
0
0
0
0
0
0
0
0
0
0
0
0
0
0
0
0
0
0
0
0
0
0
0
0
0
0
0
0
0
0
0
0
0
0
0
0
0
0
0
0
0
0
0
0
0
0
0
0
0
0
0
0
0
0
0
0
0
0
0
0
0
0
0
0
0
0
0
0
0
0
0
0
0
0
0
0
0
0
0
0
0
0
0
0
0
0
0
0
0
0
0
0
0
0
0
0
0
0
0
0
0
0
0
0
0
0
0
0
0
0
0
0
0
0
0
0
0
0
0
0
0
0
0
0
0
0
0
0
0
0
0
0
0
0
0
0
0
0
0
0
0
0
0
0
0
0
0
0
0
0
0
0
0
0
0
0
0
0
0
0
0
0
0
0
0
0
0
0
0
0
0
0
0
0
0
0
0
0
0
0
0
0
0
0
0
0
0
0
0
0
0
0
0
0
0
0
0
0
0
0
0
0
0
0
0
0
0
0
0
0
0
0
0
0
0
0
0
0
0
0
0
0
0
0
0
0
0
0
0
0
0
0
0
0
0
0
0
0
0
0
0
0
0
0
0
0
0
0
0
0
0
0
0
0
0
0
0
0
0
0
0
0
0
0
0
0
0
0
0
0
0
0
0
0
0
0
0
0
0
0
0
0
0
0
0
0
0
0
0
0
0
0
0
0
0
0
0
0
0
0
0
0
0
0
0
0
0
0
0
0
0
0
0
0
0
0
0
0
0
0
0
0
0
0
0
0
0
0
0
0
0
0
0
0
0
0
0
0
0
0
0
0
0
0
0
0
0
0
0
0
0
0
0
0
0
0
0
0
0
0
0
0
0
0
0
0
0
0
0
0
0
0
0
0
0
0
0
0
0
0
0
0
0
0
0
0
0
0
0
0
0
0
0
0
0
0
0
0
0
0
0
0
0
0
0
0
0
0
0
0
0
0
0
0
0
0
0
0
0
0
0
0
0
0
0
0
0
0
0
0
0
0
0
0
0
0
0
0
0
0
0
0
0
0
0
0
0
0
0
0
0
0
0
0
0
0
0
0
0
0
0
0
0
0
0
0
0
0
0
0
0
0
0
0
0
0
0
0
0
0
0
0
0
0
0
0
0
0
0
0
0
0
0
0
0
0
0
0
0
0
0
0
0
0
0
0
0
0
0
0
0
0
0
0
0
0
0
0
0
0
0
0
0
0
0
0
0
0
0
0
0
0
0
0
0
0
0
0
0
0
0
0
0
0
0
0
0
0
0
0
0
0
0
0
0
0
0
0
0
0
0
0
0
0
0
0
0
0
0
0
0
0
0
0
0
0
0
0
0
0
0
0
0
0
0
0
0
0
0
0
0
0
0
0
0
0
0
0
0
0
0
0
0
0
0
0
0
0
0
0
0
0
0
0
0
0
0
0
0
0
0
0
0
0
0
0
0
0
0
0
0
0
0
0
0
0
0
0
0
0
0
0
0
0
0
0
0
0
0
0
0
0
0
0
0
0
0
0
0
0
0
0
0
0
0
0
0
0
0
0
0
0
0
0
0
0
0
0
0
0
0
0
0
0
0
0
0
0
0
0
0
0
0
0
0
0
0
0
0
0
0
0
0
0
0
0
0
0
0
0
0
0
0
0
0
0
0
0
0
0
0
0
0
0
0
0
0
0
0
0
0
0
0
0
0
0
0
0
0
0
0
0
0
0
0
0
0
0
0
0
0
0
0
0
0
0
0
0
0
0
0
0
0
0
0
0
0
0
0
0
0
0
0
0
0
0
0
0
0
0
0
0
0
0
0
0
0
0
0
0
0
0
0
0
0
0
0
0
0
0
0
0
0
0
0
0
0
0
0
0
0
0
0
0
0
0
0
0
0
0
0
0
0
0
0
0
0
0
0
0
0
0
0
0
0
0
0
0
0
0
0
0
0
0
0
0
0
0
0
0
0
0
0
0
0
0
0
0
0
0
0
0
0
0
0
0
0
0
0
0
0
0
0
0
0
0
0
0
0
0
0
0
0
0
0
0
0
0
0
0
0
0
0
0
0
0
0
0
0
0
0
0
0
0
0
0
0
0
0
0
0
0
0
0
0
0
0
0
0
0
0
0
0
0
0
0
0
0
0
0
0
0
0
0
0
0
0
0
0
0
0
0
0
0
0
0
0
0
0
0
0
0
0
0
0
0
0
0
0
0
0
0
0
0
0
0
0
0
0
0
0
0
0
0
0
0
0
0
0
0
0
0
0
0
0
0
0
0
0
0
0
0
0
0
0
0
0
0
0
0
0
0
0
0
0
0
0
0
0
0
0
0
0
0
0
0
0
0
0
0
0
0
0
0
0
0
0
0
0
0
0
0
0
0
0
0
0
0
0
0
0
0
0
0
0
0
0
0
0
0
0
0
0
0
0
0
0
0
0
0
0
0
0
0
0
0
0
0
0
0
0
0
0
0
0
0
0
0
0
0
0
0
0
0
0
0
0
0
0
0
0
0
0
0
0
0
0
0
0
0
0
0
0
0
0
0
0
0
0
0
0
0
0
0
0
0
0
0
0
0
0
0
0
0
0
0
0
0
0
0
0
0
0
0
0
0
0
0
0
0
0
0
0
0
0
0
0
0
0
0
0
0
0
0
0
0
0
0
0
0
0
0
0
0
0
0
0
0
0
0
0
0
0
0
0
0
0
0
0
0
0
0
0
0
0
0
0
0
0
0
0
0
0
0
0
0
0
0
0
0
0
0
0
0
0
0
0
0
0
0
0
0
0
0
0
0
0
0
0
0
0
0
0
0
0
0
0
0
0
0
0
0
0
0
0
0
0
0
0
0
0
0
0
0
0
0
0
0
0
0
0
0
0
0
0
0
0
0
0
0
0
0
0
0
0
0
0
0
0
0
0
0
0
0
0
0
0
0
0
0
0
0
0
0
0
0
0
0
0
0
0
0
0
0
0
0
0
0
0
0
0
0
0
0
0
0
0
0
0
0
0
0
0
0
0
0
0
0
0
0
0
0
0
0
0
0
0
0
0
0
0
0
0
0
0
0
0
0
0
0
0
0
0
0
0
0
0
0
0
0
0
0
0
0
0
0
0
0
0
0
0
0
0
0
0
0
0
0
0
0
0
0
0
0
0
0
0
0
0
0
0
0
0
0
0
0
0
0
0
0
0
0
0
0
0
0
0
0
0
0
0
0
0
0
0
0
0
0
0
0
0
0
0
0
0
0
0
0
0
0
0
0
0
0
0
0
0
0
0
0
0
0
0
0
0
0
0
0
0
0
0
0
0
0
0
0
0
0
0
0
0
0
0
0
0
0
0
0
0
0
0
0
0
0
0
0
0
0
0
0
0
0
0
0
0
0
0
0
0
0
0
0
0
0
0
0
0
0
0
0
0
0
0
0
0
0
0
0
0
0
0
0
0
0
0
0
0
0
0
0
0
0
0
0
0
0
0
0
0
0
0
0
0
0
0
0
0
0
0
0
0
0
0
0
0
0
0
0
0
0
0
0
0
0
0
0
0
0
0
0
0
0
0
0
0
0
0
0
0
0
0
0
0
0
0
0
0
0
0
0
0
0
0
0
0
0
0
0
0
0
0
0
0
0
0
0
0
0
0
0
0
0
0
0
0
0
0
0
0
0
0
0
0
0
0
0
0
0
0
0
0
0
0
0
0
0
0
0
0
0
0
0
0
0
0
0
0
0
0
0
0
0
0
0
0
0
0
0
0
0
0
0
0
0
0
0
0
0
0
0
0
0
0
0
0
0
0
0
0
0
0
0
0
0
0
0
0
0
0
0
0
0
0
0
0
0
0
0
0
0
0
0
0
0
0
0
0
0
0
0
0
0
0
0
0
0
0
0
0
0
0
0
0
0
0
0
0
0
0
0
0
0
0
0
0
0
0
0
0
0
0
0
0
0
0
0
0
0
0
0
0
0
0
0
0
0
0
0
0
0
0
0
0
0
0
0
0
0
0
0
0
0
0
0
0
0
0
0
0
0
0
0
0
0
0
0
0
0
0
0
0
0
0
0
0
0
0
0
0
0
0
0
0
0
0
0
0
0
0
0
0
0
0
0
0
0
0
0
0
0
0
0
0
0
0
0
0
0
0
0
0
0
0
0
0
0
0
0
0
0
0
0
0
0
0
0
0
0
0
0
0
0
0
0
0
0
0
0
0
0
0
0
0
0
0
0
0
0
0
0
0
0
0
0
0
0
0
0
0
0
0
0
0
0
0
0
0
0
0
0
0
0
0
0
0
0
0
0
0
0
0
0
0
0
0
0
0
0
0
0
0
0
0
0
0
0
0
0
0
0
0
0
0
0
0
0
0
0
0
0
0
0
0
0
0
0
0
0
0
0
0
0
0
0
0
0
0
0
0
0
0
0
0
0
0
0
0
0
0
0
0
0
0
0
0
0
0
0
0
0
0
0
0
0
0
0
0
0
0
0
0
0
0
0
0
0
0
0
0
0
0
0
0
0
0
0
0
0
0
0
0
0
0
0
0
0
0
0
0
0
0
0
0
0
0
0
0
0
0
0
0
0
0
0
0
0
0
0
0
0
0
0
0
0
0
0
0
0
0
0
0
0
0
0
0
0
0
0
0
0
0
0
0
0
0
0
0
0
0
0
0
0
0
0
0
0
0
0
0
0
0
0
0
0
0
0
0
0
0
0
0
0
0
0
0
0
0
0
0
0
0
0
0
0
0
0
0
0
0
0
0
0
0
0
0
0
0
0
0
0
0
0
0
0
0
0
0
0
0
0
0
0
0
0
0
0
0
0
0
0
0
0
0
0
0
0
0
0
0
0
0
0
0
0
0
0
0
0
0
0
0
0
0
0
0
0
0
0
0
0
0
0
0
0
0
0
0
0
0
0
0
0
0
0
0
0
0
0
0
0
0
0
0
0
0
0
0
0
0
0
0
0
0
0
0
0
0
0
0
0
0
0
0
0
0
0
0
0
0
0
0
0
0
0
0
0
0
0
0
0
0
0
0
0
0
0
0
0
0
0
0
0
0
0
0
0
0
0
0
0
0
0
0
0
0
0
0
0
0
0
0
0
0
0
0
0
0
0
0
0
0
0
0
0
0
0
0
0
0
0
0
0
0
0
0
0
0
0
0
0
0
0
0
0
0
0
0
0
0
0
0
0
0
0
0
0
0
0
0
0
0
0
0
0
0
0
0
0
0
0
0
0
0
0
0
0
0
0
0
0
0
0
0
0
0
0
0
0
0
0
0
0
0
0
0
0
0
0
0
0
0
0
0
