0.402209
0.306535
0.206435
0.0975143
-0.0235641
-0.157147
-0.299399
-0.442206
-0.574304
-0.68214
-0.733333
-0.675851
-0.505951
-0.289261
-0.101364
0
-0.0126724
-0.132527
-0.333658
-0.582481
-0.848914
-1.1149
-1.37669
-0.88371
0.501622
2.72074
5.33268
7.72547
9.38811
10.0393
9.60831
8.21013
6.17448
4.01935
2.26375
1.16897
0.637679
0.385971
0.241833
0.105418
-0.0248154
-0.147293
-0.260896
-0.364954
-0.459219
-0.543877
-0.619502
-0.687109
-0.748112
-0.804027
-0.855986
-0.904207
-0.947098
-0.980591
-0.999443
-0.997858
-0.971259
-0.917979
-0.840262
-0.744132
-0.638109
-0.531133
-0.430367
-0.338321
-0.255159
-0.178868
-0.105734
-0.0313355
0.0483871
0.136444
0.234656
0.343608
0.462825
0.591103
0.726826
0.868187
1.01322
1.15975
1.30525
1.44659
1.57987
1.70048
1.80374
1.88496
1.93972
1.96404
1.95445
1.90822
1.82351
1.69986
1.5387
1.34451
1.12415
0.88622
0.640555
0.397173
0.164691
-0.0503098
-0.244121
-0.417036
-0.572792
-0.717023
-0.855595
-0.992949
-1.13093
-1.26828
-1.40089
-1.52277
-1.6274
-1.70921
-1.76474
-1.79331
-1.7971
-1.78019
-1.74803
-1.70759
-1.66488
-1.6239
-1.5862
-1.55101
-1.51606
-1.47863
-1.4366
-1.38939
-1.33789
-1.28354
-1.22805
-1.17303
-1.1197
-1.06869
-1.02024
-0.97449
-0.931731
-0.892278
-0.856395
-0.823981
-0.794164
-0.765114
-0.734276
-0.698921
-0.656985
-0.607767
-0.552611
-0.493951
-0.435001
-0.379141
-0.329311
-0.287675
-0.255676
-0.234372
-0.225545
-0.230792
-0.251592
-0.288777
-0.341542
-0.409497
-0.484804
-0.554108
-0.60285
-0.618977
-0.596089
-0.534845
-0.442145
-0.328389
-0.203859
-0.0758362
0.0534241
0.184901
0.321397
0.467096
0.628276
0.812253
1.02431
1.25877
1.48683
1.67077
1.77432
1.76935
1.64668
1.42614
1.15627
0.8995
0.709503
0.593855
0.522055
0.475372
0.447891
0.435568
0.432932
0.434605
0.435707
0.432085
0.420412
0.398146
0.363478
0.315318
0.253601
0.179369
0.0940826
0
-0.0940384
-0.191322
-0.289668
-0.383994
-0.632002
-1.24426
-2.11327
-2.94877
-3.30554
-2.79038
-1.03298
1.72
4.86319
7.65805
9.56967
10.4104
10.2412
9.21295
7.54176
5.57284
3.7391
2.35974
1.4617
0.835696
0.568744
0.386321
0.22058
0.0709473
-0.0634049
-0.17641
-0.265442
-0.325389
-0.351198
-0.341173
-0.298999
-0.23318
-0.153995
-0.0698608
0.0148926
0.0996567
0.18483
0.270203
0.354137
0.433679
0.505376
0.566312
0.614951
0.651486
0.677689
0.696593
0.711627
0.725972
0.742618
0.764543
0.794847
0.837254
0.896394
0.977663
1.08643
1.2268
1.40013
1.60403
1.83031
2.06951
2.31241
2.54977
2.77336
2.97487
3.1442
3.2732
3.3573
3.39197
3.3729
3.2969
3.16302
2.97338
2.73349
2.45194
2.14214
1.81789
1.48949
1.16564
0.853943
0.560338
0.288653
0.0405769
-0.184167
-0.387586
-0.572284
-0.740469
-0.893185
-1.02989
-1.14894
-1.24795
-1.3213
-1.36554
-1.38482
-1.3855
-1.37363
-1.35244
-1.32127
-1.27639
-1.21331
-1.1294
-1.02718
-0.912933
-0.790961
-0.664977
-0.537804
-0.411018
-0.285157
-0.160428
-0.0376358
0.0803947
0.187923
0.277755
0.343044
0.379794
0.388823
0.376507
0.353923
0.334541
0.331028
0.351247
0.394253
0.456491
0.532837
0.612583
0.682446
0.729556
0.74339
0.71713
0.648353
0.539167
0.395929
0.228642
0.0504723
-0.124301
-0.279681
-0.401745
-0.48074
-0.512534
-0.498977
-0.447049
-0.367038
-0.270219
-0.16676
-0.0632622
0.0381355
0.138071
0.239053
0.34533
0.466805
0.624131
0.814208
0.996772
1.11343
1.11499
0.989198
0.773592
0.546114
0.3966
0.390537
0.484285
0.641941
0.845581
1.06498
1.27027
1.43722
1.54692
1.591
1.56821
1.48362
1.34883
1.18198
1.00566
0.841912
0.705856
0.596745
0.50545
0.424419
0.346112
0.266185
0.185371
0.109415
0.047094
0.0070549
0
0.0391075
0.0986938
0.138783
0.115273
-0.00674973
-0.242745
-0.584885
-1.005
-1.46159
-1.20169
0.238628
2.76576
5.92633
9.01623
11.3568
12.5154
12.3751
11.0926
9.03026
6.68655
4.57799
3.0679
2.23287
1.87482
1.65453
1.45678
1.27265
1.11194
0.983752
0.895671
0.852924
0.857457
0.907294
1.0059
1.15039
1.31769
1.47824
1.60545
1.68104
1.69814
1.66194
1.58809
1.49952
1.42211
1.37619
1.36973
1.40145
1.46538
1.55477
1.66474
1.78942
1.92382
2.06488
2.21179
2.36556
2.52803
2.70059
2.88306
3.07282
3.26564
3.45619
3.63886
3.80898
3.96373
4.10249
4.22665
4.33842
4.43948
4.53079
4.61111
4.67627
4.71933
4.73234
4.70803
4.64087
4.52737
4.36563
4.15506
3.89689
3.59801
3.26784
2.91539
2.54905
2.17773
1.81082
1.45751
1.12582
0.821755
0.548695
0.307155
0.0947922
-0.0932137
-0.263673
-0.424671
-0.584464
-0.752323
-0.944355
-1.16237
-1.3759
-1.54145
-1.62174
-1.60271
-1.49917
-1.34657
-1.18464
-1.04218
-0.923127
-0.819134
-0.726163
-0.644746
-0.576538
-0.523763
-0.489661
-0.47753
-0.489561
-0.525992
-0.584799
-0.661933
-0.751899
-0.848427
-0.945026
-1.03661
-1.11853
-1.18683
-1.2385
-1.2717
-1.28589
-1.28182
-1.26147
-1.22789
-1.18459
-1.13582
-1.08761
-1.04586
-1.01518
-0.997974
-0.993746
-0.999164
-1.00878
-1.01638
-1.01649
-1.00694
-0.987873
-0.959932
-0.926682
-0.894038
-0.867938
-0.852626
-0.849243
-0.855092
-0.863854
-0.866772
-0.854521
-0.820029
-0.761624
-0.680544
-0.578875
-0.460728
-0.33133
-0.195805
-0.0580208
0.0801979
0.219285
0.361932
0.515062
0.693009
0.897115
1.09376
1.2319
1.26553
1.17658
0.985788
0.743558
0.504374
0.300063
0.122461
-0.044175
-0.204017
-0.355998
-0.495385
-0.614741
-0.705419
-0.759802
-0.770364
-0.728418
-0.631877
-0.49114
-0.329953
-0.178126
-0.0615181
0
0.0176285
-0.0440102
-0.189104
-0.571971
-1.15732
-1.80088
-2.35043
-2.72653
-1.69624
0.505998
3.62997
7.1099
10.222
12.2994
12.9324
12.0908
10.1195
7.60278
5.1524
3.21197
1.96053
1.34177
1.17977
1.35035
1.54055
1.75148
1.98869
2.25397
2.54442
2.85228
3.16909
3.48724
3.80104
4.10722
4.40392
4.69051
4.96727
5.23474
5.49324
5.74257
5.98184
6.2088
6.41904
6.60773
6.77294
6.91446
7.03486
7.14017
7.2395
7.34347
7.46174
7.60053
7.7599
7.93414
8.1178
8.30653
8.49657
8.68529
8.87124
9.05364
9.23137
9.40202
9.56169
9.70598
9.83082
9.9341
10.0167
10.0824
10.1365
10.1837
10.2257
10.2602
10.2805
10.2768
10.2377
10.1526
10.0141
9.81955
9.57166
9.27841
8.9516
8.60574
8.2548
7.90976
7.58004
7.27383
6.99996
6.76644
6.57827
6.4385
6.34759
6.303
6.2992
6.32803
6.37952
6.44287
6.50672
6.55718
6.5825
6.57482
6.53219
6.46006
6.37152
6.28534
6.22646
6.25076
6.3686
6.5346
6.67956
6.74409
6.70397
6.57629
6.40751
6.25259
6.15439
6.10487
6.08423
6.08501
6.10219
6.13118
6.16929
6.21659
6.27587
6.3535
6.46983
6.64457
6.84575
7.01474
7.08749
7.02143
6.81491
6.51009
6.17752
5.88946
5.68153
5.52336
5.39569
5.29412
5.21333
5.14774
5.09263
5.04515
5.00481
4.97361
4.95601
4.96264
5.02559
5.19875
5.44713
5.69694
5.86466
5.89589
5.79274
5.61232
5.43415
5.31343
5.24976
5.19313
5.12521
5.03407
4.91448
4.76835
4.60304
4.42855
4.25456
4.08655
3.92843
3.78282
3.65107
3.53343
3.42918
3.33681
3.25409
3.1783
3.10646
3.03561
2.96296
2.88593
2.80199
2.70838
2.60187
2.47597
2.28493
1.88003
1.27733
0.5744
0
0.434521
2.09186
4.85592
8.19651
11.3188
13.4146
13.9392
12.8163
10.4777
7.68752
5.21551
3.52692
2.65686
2.32676
2.21301
2.13974
2.06642
1.99245
1.91803
1.84426
1.77345
1.70912
1.65534
1.61621
1.59509
1.59399
1.61318
1.65119
1.70492
1.77003
1.84135
1.91305
1.97856
2.03196
2.06892
2.0877
2.0899
2.08071
2.0684
2.06309
2.07506
2.11276
2.18199
2.2851
2.42125
2.58725
2.77877
2.9904
3.21722
3.45568
3.70286
3.95632
4.21009
4.45084
4.6623
4.82942
4.94301
5.0029
5.01774
5.00148
4.96788
4.92523
4.87498
4.81438
4.73825
4.64037
4.51591
4.36275
4.18239
3.97992
3.76321
3.54143
3.32326
3.11596
2.92337
2.74611
2.58251
2.43001
2.28652
2.15134
2.02524
1.90992
1.80708
1.71769
1.64188
1.57903
1.52824
1.4891
1.4616
1.44624
1.44359
1.45369
1.47566
1.50763
1.54696
1.59065
1.63564
1.679
1.71751
1.74735
1.76492
1.76692
1.75125
1.7179
1.6695
1.61117
1.5496
1.4916
1.4423
1.40385
1.37737
1.36252
1.35809
1.36273
1.37537
1.39527
1.42186
1.45426
1.49092
1.52957
1.56747
1.6016
1.62903
1.6474
1.65511
1.6516
1.63737
1.61397
1.58391
1.55035
1.51777
1.49088
1.47378
1.46922
1.47818
1.49988
1.5323
1.57292
1.61956
1.67213
1.74591
2.06724
2.77991
3.68731
4.53763
5.06667
5.0926
4.59793
3.75747
2.87194
2.21993
1.92535
1.72666
1.53836
1.36532
1.21851
1.11086
1.05261
1.04886
1.09806
1.19516
1.32803
1.47835
1.62364
1.73967
1.80818
1.81544
1.75138
1.61001
1.36702
0.907941
0.335482
-0.215108
-0.643959
-0.957433
0
1.97721
4.88742
8.27356
11.3702
13.3374
13.6074
12.1651
9.58491
6.76867
4.52219
3.21454
2.71461
2.61013
2.41467
2.20266
1.98623
1.76614
1.54413
1.3263
1.12551
0.957616
0.838668
0.780256
0.785663
0.848705
0.956008
1.09149
1.24055
1.39159
1.5385
1.6777
1.80431
1.914
2.00296
2.0686
2.11024
2.12964
2.13103
2.12076
2.10655
2.09643
2.09723
2.11407
2.15031
2.20763
2.28671
2.38821
2.51316
2.66324
2.84056
3.04693
3.28301
3.5474
3.83585
4.14469
4.46941
4.7968
5.09751
5.34368
5.50928
5.57349
5.52757
5.37865
5.14593
4.8522
4.51806
4.16529
3.81241
3.46887
3.14059
2.8323
2.54811
2.29199
2.06724
1.87526
1.71603
1.58858
1.4911
1.42111
1.37542
1.35012
1.3407
1.34311
1.35114
1.35784
1.35738
1.34607
1.32324
1.29144
1.25595
1.22362
1.20131
1.1934
1.2008
1.22286
1.25796
1.30318
1.35412
1.40645
1.45676
1.50302
1.54459
1.58178
1.61494
1.64365
1.66691
1.68299
1.69036
1.68872
1.67976
1.66694
1.65447
1.64582
1.64271
1.64334
1.6425
1.63358
1.61105
1.57272
1.52113
1.46364
1.4113
1.37694
1.37942
1.49774
1.79725
2.17821
2.49231
2.60613
2.46811
2.14192
1.7793
1.54116
1.51047
1.59273
1.703
1.8201
1.9361
2.04577
2.1463
2.23634
2.31382
2.37685
2.42308
2.44895
2.45058
2.42483
2.37004
2.2861
2.17413
2.03602
1.87555
1.69791
1.50796
1.31061
1.11141
0.916591
0.732531
0.565255
0.419356
0.297591
0.200566
0.126639
0.0719688
0.0323153
0
-0.0379333
-0.0932005
-0.176318
-0.293451
-0.444579
-0.622886
-0.815756
-0.646085
0.444724
2.54024
5.38341
8.38961
10.8166
12.028
11.7387
10.1215
7.72044
5.21444
3.15145
1.78363
1.06188
0.76733
0.731849
0.696929
0.660921
0.622194
0.579484
0.53253
0.482288
0.432668
0.390774
0.364853
0.362081
0.386473
0.437714
0.5114
0.600549
0.697713
0.796752
0.894281
0.988696
1.07904
1.16423
1.24325
1.31512
1.37931
1.43641
1.48862
1.53989
1.59553
1.66145
1.74326
1.84464
1.96758
2.11329
2.28215
2.47366
2.68642
2.91807
3.16503
3.42235
3.68389
3.93758
4.16902
4.36497
4.51627
4.61967
4.6776
4.69584
4.68004
4.6325
4.55331
4.44
4.28685
4.09012
3.85032
3.57349
3.27098
2.95806
2.65124
2.36277
2.1037
1.8827
1.71272
1.61015
1.56776
1.56362
1.57447
1.58273
1.58099
1.57166
1.56226
1.55839
1.55829
1.55071
1.5197
1.45291
1.34929
1.22243
1.09797
1.00602
0.971724
0.990564
1.06234
1.17736
1.31901
1.46645
1.59962
1.70317
1.76894
1.79618
1.78997
1.75826
1.70889
1.64833
1.58107
1.50938
1.43468
1.36008
1.29366
1.2478
1.23686
1.27303
1.36185
1.5041
1.68716
1.87724
2.03855
2.14541
2.19041
2.18554
2.15586
2.12909
2.12535
2.14394
2.17961
2.22254
2.25779
2.27015
2.24778
2.18503
2.08417
1.95553
1.81627
1.68779
1.59075
1.54392
1.56079
1.6478
1.80366
2.02005
2.28327
2.57649
2.88227
3.18382
3.46428
3.70393
3.88108
3.98527
4.00192
3.91306
3.70667
3.39038
3.00072
2.59938
2.25491
2.00833
1.8292
1.70021
1.61431
1.56196
1.53404
1.52418
1.52996
1.55265
1.60078
1.69832
1.86837
2.08282
2.28354
2.40809
2.40843
2.26119
1.96947
1.55885
1.06847
0.53813
0
0.252049
1.60286
4.09189
7.37608
10.7513
13.3801
14.5991
14.1708
12.3613
9.81028
7.25581
5.24794
3.98766
3.3511
3.06093
2.92892
2.81088
2.70398
2.61206
2.53805
2.48405
2.45158
2.44195
2.45559
2.49211
2.54996
2.62596
2.71548
2.81216
2.90726
2.99205
3.05912
3.10362
3.12383
3.12116
3.09964
3.06516
3.02471
2.98544
2.9539
2.93608
2.93696
2.96006
3.00695
3.07717
3.16829
3.27656
3.39771
3.52783
3.66433
3.80669
3.95631
4.1161
4.29023
4.49061
4.75327
5.1302
5.572
5.97439
6.237
6.29695
6.15012
5.8518
5.49674
5.1863
4.98766
4.85307
4.72884
4.59634
4.44579
4.27028
4.06826
3.84393
3.60645
3.36795
3.14104
2.93518
2.75796
2.61335
2.50225
2.42327
2.37354
2.35055
2.3568
2.38871
2.43035
2.46348
2.47233
2.44926
2.39836
2.33451
2.27814
2.24768
2.25076
2.27821
2.32155
2.37344
2.42547
2.46874
2.49502
2.4994
2.48038
2.44004
2.384
2.32071
2.26031
2.21287
2.1866
2.1845
2.2038
2.24204
2.29524
2.35894
2.42569
2.48635
2.53275
2.55899
2.56228
2.54322
2.50531
2.45374
2.39397
2.33052
2.26598
2.20096
2.13494
2.06684
1.99565
1.92094
1.84344
1.76732
1.7002
1.65099
1.62747
1.63398
1.67014
1.73115
1.80928
1.89605
1.98387
2.06801
2.145
2.21205
2.26801
2.31338
2.3508
2.38529
2.42393
2.47489
2.55691
2.69385
2.87312
3.05368
3.188
3.24087
3.20033
3.07778
2.90067
2.70413
2.52457
2.38433
2.28643
2.22739
2.21849
2.27615
2.38834
2.50541
2.56909
2.52681
2.34647
2.02851
1.61108
1.16348
0.766471
0.469033
0.246333
0.100745
0.0239422
0
0.00984688
0.0387722
0.0758965
0.116074
0.169801
0.822881
2.26871
4.55114
7.42708
10.377
12.7349
13.9132
13.6211
11.9721
9.42117
6.57383
3.97706
1.98876
0.750468
0.225556
0.405909
0.575659
0.734041
0.87302
0.987186
1.07635
1.14917
1.21242
1.27344
1.34007
1.41931
1.51582
1.63316
1.77522
1.93741
2.10325
2.25267
2.36762
2.43612
2.45449
2.42743
2.36636
2.28677
2.20536
2.13642
2.08866
2.06616
2.07018
2.1009
2.15848
2.24243
2.35105
2.48163
2.63068
2.79409
2.96749
3.14638
3.32626
3.50244
3.67041
3.82667
3.96907
4.09715
4.21208
4.31606
4.41039
4.49483
4.56751
4.62343
4.65544
4.65625
4.62008
4.5432
4.42332
4.25848
4.04652
3.79155
3.50031
3.17916
2.83551
2.47952
2.12472
1.78992
1.49355
1.25002
1.09085
1.01711
1.00517
1.02409
1.04693
1.0589
1.05937
1.05775
1.0665
1.09495
1.14055
1.19899
1.26848
1.34738
1.43442
1.52715
1.62029
1.70578
1.77418
1.81662
1.82731
1.80559
1.75677
1.69123
1.62203
1.56173
1.51863
1.49437
1.48628
1.4917
1.5088
1.53575
1.57108
1.61366
1.66241
1.71591
1.77199
1.82789
1.88025
1.92535
1.9595
1.97933
1.98203
1.9656
1.92903
1.87251
1.7949
1.69564
1.58104
1.46698
1.37187
1.31283
1.30192
1.34343
1.43289
1.55811
1.70207
1.84721
1.98183
2.10316
2.21289
2.31552
2.41813
2.52816
2.65139
2.79354
2.95087
3.1078
3.24413
3.34141
3.38759
3.37935
3.32166
3.22543
3.10416
2.97055
2.83433
2.70029
2.56988
2.44334
2.32089
2.20307
2.09079
1.98528
1.888
1.80033
1.72328
1.65725
1.60168
1.555
1.5144
1.47541
1.4322
1.37825
1.30702
1.21183
1.07678
0.88012
0.631327
0.348681
0
0.173495
1.30169
3.55183
6.61884
9.74773
12.0192
12.745
11.7559
9.44113
6.54694
3.86435
1.95829
1.02981
0.929969
1.21107
1.21627
1.20572
1.17899
1.13945
1.09382
1.05026
1.01603
0.993828
0.983221
0.983962
0.994833
1.0142
1.0404
1.07247
1.10983
1.15213
1.19893
1.24962
1.30321
1.35792
1.41116
1.46065
1.50563
1.5479
1.59212
1.64518
1.71447
1.80559
1.92036
2.05453
2.20205
2.3554
2.50792
2.65588
2.79938
2.94178
3.08784
3.24121
3.40238
3.56733
3.72968
3.88137
4.01431
4.12183
4.19945
4.24491
4.25761
4.23775
4.18583
4.10324
3.99091
3.85055
3.68505
3.4985
3.29595
3.08292
2.86511
2.64735
2.4337
2.22747
2.03103
1.8456
1.67103
1.50554
1.34591
1.18786
1.02677
0.858631
0.680986
0.493303
0.296802
0.0991077
-0.085426
-0.240885
-0.353636
-0.415565
-0.425781
-0.390372
-0.320436
-0.229205
-0.129354
-0.0311272
0.0596157
0.135693
0.190445
0.218975
0.217705
0.185625
0.125506
0.044315
-0.0476398
-0.1387
-0.218317
-0.281132
-0.327182
-0.356462
-0.369463
-0.367392
-0.351734
-0.324063
-0.285959
-0.239208
-0.185898
-0.130204
-0.0780155
-0.0353096
-0.00684586
0.00496445
0.000558472
-0.0171219
-0.0436504
-0.0743965
-0.105518
-0.134656
-0.160298
-0.180753
-0.193684
-0.195206
-0.179614
-0.141306
-0.0753078
0.0212017
0.147598
0.299198
0.467599
0.641923
0.810625
0.964384
1.09602
1.20105
1.27779
1.32677
1.3498
1.34914
1.32684
1.2845
1.22348
1.14559
1.05332
0.950453
0.842192
0.734729
0.634438
0.546681
0.475042
0.42177
0.386369
0.363434
0.343994
0.319311
0.283392
0.234651
0.176085
0.113717
0.0536797
0
-0.0464581
-0.10616
-0.199427
-0.366929
-0.629644
-0.973999
-1.36797
-1.79114
-0.67829
1.71157
5.03933
8.60468
11.5462
13.1268
13.0119
11.4054
8.95852
6.48208
4.61054
3.59574
3.31385
3.42663
3.30624
3.16844
3.02146
2.86565
2.70721
2.55845
2.43318
2.343
2.29449
2.28808
2.31888
2.37905
2.46068
2.55763
2.66538
2.78307
2.91381
3.05898
3.20739
3.33774
3.42605
3.45466
3.4199
3.33499
3.22752
3.13266
3.08437
3.09309
3.14912
3.2421
3.3644
3.50896
3.66703
3.82918
3.98646
4.1317
4.26034
4.3707
4.46374
4.54235
4.61035
4.67149
4.72849
4.78258
4.83339
4.87897
4.91635
4.94211
4.95277
4.94516
4.91646
4.86419
4.78621
4.68132
4.54869
4.38778
4.199
3.98433
3.7475
3.49353
3.22863
2.96002
2.69529
2.44169
2.20528
1.99039
1.79932
1.63246
1.4892
1.36863
1.27024
1.1945
1.14263
1.11603
1.11619
1.1434
1.19552
1.26752
1.35176
1.43923
1.52121
1.59136
1.64679
1.68665
1.71221
1.72568
1.7289
1.72252
1.70525
1.67454
1.62755
1.56259
1.48024
1.384
1.28015
1.17675
1.08229
1.00334
0.944941
0.910195
0.900067
0.913676
0.94863
1.00147
1.06956
1.14674
1.22345
1.28966
1.33624
1.35635
1.34648
1.30672
1.24051
1.154
1.05565
0.95471
0.85863
0.774005
0.706106
0.65834
0.632074
0.626925
0.641468
0.674128
0.72393
0.79009
0.873143
0.973592
1.09278
1.23086
1.3844
1.54395
1.6934
1.8155
1.89561
1.92412
1.89779
1.81963
1.6972
1.53959
1.35435
1.14723
0.924577
0.692327
0.455805
0.221812
0.00440521
-0.179778
-0.315331
-0.392789
-0.411959
-0.382353
-0.320466
-0.244936
-0.171523
-0.108401
-0.0590244
-0.023304
0
0.0283928
0.0432251
0.00746193
-0.290842
-0.847188
-1.53153
-2.20161
-2.13907
-1.0225
1.12281
3.99898
7.08194
9.74366
11.3955
11.645
10.4411
8.13163
5.36753
2.86074
1.10913
0.235975
0.0253317
0.0484537
0.0568972
0.0600159
0.0551888
0.0398033
0.0117237
-0.0303789
-0.0864321
-0.155496
-0.233772
-0.312516
-0.380476
-0.426012
-0.43921
-0.413763
-0.348223
-0.246414
-0.116928
0.0305716
0.180633
0.319485
0.438176
0.534507
0.612996
0.682786
0.754214
0.835328
0.928402
1.03068
1.13913
1.25106
1.36429
1.47784
1.59221
1.709
1.83031
1.95788
2.09244
2.23332
2.37881
2.52644
2.67373
2.81885
2.96089
3.09975
3.23521
3.36591
3.48735
3.5911
3.66471
3.69401
3.6664
3.57387
3.41512
3.19624
2.92987
2.63412
2.32856
2.02687
1.738
1.46913
1.22606
1.01325
0.835267
0.694293
0.591259
0.525442
0.497987
0.507227
0.543461
0.59387
0.645527
0.687574
0.712816
0.718364
0.705379
0.678282
0.643839
0.610252
0.584713
0.573522
0.588036
0.652363
0.790499
0.975963
1.15927
1.28612
1.31695
1.24078
1.07901
0.878771
0.698275
0.587178
0.540876
0.534564
0.557316
0.599219
0.649661
0.699685
0.743494
0.77874
0.805692
0.825829
0.84055
0.851113
0.857862
0.861009
0.861365
0.860701
0.861757
0.867865
0.882109
0.906416
0.942316
0.989724
1.04423
1.09655
1.13626
1.15454
1.14661
1.11303
1.05945
0.994883
0.929188
0.870664
0.823009
0.787503
0.766394
0.762446
0.778992
0.819366
0.886907
0.98406
1.11136
1.2666
1.44647
1.64399
1.84641
2.03792
2.20363
2.33166
2.41423
2.44778
2.43252
2.37169
2.27079
2.13678
1.97769
1.8026
1.61993
1.43637
1.25726
1.08745
0.931814
0.795273
0.682477
0.596606
0.539698
0.517841
0.530753
0.567752
0.615281
0.659602
0.689072
0.695154
0.672053
0.615707
0.523218
0.397076
0.232827
0.0374317
-0.176912
-0.500637
0
1.68237
4.49878
7.9312
11.1372
13.2555
13.7293
12.5065
10.0399
7.09802
4.47037
2.6829
1.83851
1.65545
1.64423
1.5931
1.55223
1.5284
1.52608
1.54802
1.58804
1.63602
1.6808
1.71319
1.72797
1.72458
1.70636
1.67909
1.64934
1.62239
1.60164
1.58985
1.58882
1.59962
1.62292
1.65929
1.70962
1.77528
1.85805
1.95939
2.08024
2.22004
2.37628
2.54594
2.7209
2.89086
3.04716
3.18516
3.30555
3.41383
3.51832
3.62717
3.74563
3.87361
4.00761
4.14352
4.27714
4.40578
4.52927
4.65017
4.7735
4.91039
5.07831
5.2696
5.44046
5.53007
5.48194
5.26458
4.88598
4.39788
3.88599
3.44491
3.10504
2.83154
2.62573
2.47982
2.3793
2.30674
2.24588
2.18457
2.11629
2.0399
1.95819
1.87596
1.79765
1.72599
1.66266
1.6087
1.56459
1.53034
1.50566
1.48996
1.48247
1.48237
1.48884
1.50106
1.51846
1.54102
1.56943
1.6051
1.64992
1.70587
1.77447
1.85622
1.95144
2.05922
2.17373
2.28173
2.36797
2.41923
2.42792
2.39425
2.32618
2.23674
2.13994
2.04679
1.96169
1.88408
1.81302
1.74846
1.691
1.6422
1.60466
1.58146
1.57552
1.58884
1.62175
1.67236
1.73749
1.81103
1.88419
1.94841
1.99721
2.02761
2.04084
2.04185
2.03791
2.03656
2.04328
2.06131
2.08758
2.10993
2.113
2.08387
2.01749
1.91977
1.80713
1.70235
1.6281
1.59717
1.60766
1.65798
1.74174
1.85063
1.97745
2.11651
2.26594
2.43117
2.62728
2.87338
3.15252
3.41203
3.59421
3.65756
3.58863
3.4034
3.14024
2.84675
2.56392
2.30869
2.07706
1.86395
1.66809
1.49257
1.34196
1.22046
1.1311
1.07872
1.06236
1.07459
1.10454
1.13949
1.1633
1.15836
1.10939
1.00436
0.835974
0.603319
0.313011
-0.0208225
-0.377985
0
1.43723
3.89521
6.98313
10.0668
12.4548
13.6056
13.2936
11.6772
9.23778
6.60648
4.34798
2.79237
1.9798
1.72373
1.62464
1.51114
1.39336
1.27312
1.154
1.04104
0.939692
0.854619
0.790343
0.750153
0.730519
0.724347
0.723953
0.723566
0.721067
0.718387
0.720491
0.73342
0.76217
0.807283
0.866721
0.938109
1.01892
1.10648
1.19844
1.29311
1.38962
1.48796
1.58892
1.69412
1.80592
1.92721
2.06094
2.20946
2.37386
2.55342
2.74544
2.94556
3.1488
3.35031
3.54614
3.73355
3.91023
4.07306
4.21784
4.34
4.43321
4.4896
4.50267
4.4699
4.39379
4.28078
4.13882
3.97468
3.79439
3.60236
3.40134
3.19351
2.98149
2.76884
2.56013
2.36046
2.17483
2.0075
1.86139
1.73795
1.63711
1.55747
1.49653
1.45147
1.4189
1.39368
1.36962
1.34116
1.30441
1.25794
1.20312
1.14376
1.08516
1.03306
0.992213
0.965466
0.955991
0.966452
0.999034
1.05489
1.13431
1.23616
1.36025
1.50082
1.64427
1.77401
1.87485
1.93591
1.95227
1.92507
1.86024
1.76661
1.65383
1.53153
1.40755
1.28751
1.17652
1.08157
1.00978
0.967202
0.95841
0.984912
1.0439
1.12781
1.22521
1.32286
1.40851
1.47454
1.51755
1.53915
1.54464
1.54087
1.53377
1.52664
1.5196
1.51052
1.4972
1.47961
1.46121
1.44877
1.45099
1.48566
1.5579
1.64957
1.73083
1.77171
1.75272
1.66972
1.53338
1.36582
1.19684
1.05423
0.951246
0.893301
0.88659
0.932088
1.02558
1.15936
1.32443
1.5118
1.71217
1.92232
2.13977
2.35987
2.57144
2.75598
2.8923
2.96103
2.95041
2.86108
2.70758
2.51518
2.31198
2.11952
1.94326
1.77755
1.61738
1.46034
1.30562
1.1538
1.00687
0.867916
0.740395
0.627525
0.531588
0.453398
0.391796
0.34358
0.303813
0.266062
0.222686
0.166358
0.0913133
-0.00556488
-0.126318
-0.266291
-0.417238
-0.612429
0
1.75354
4.5973
8.01515
11.1708
13.2056
13.566
12.2206
9.67182
6.73432
4.17734
2.41506
1.41677
0.878017
0.644703
0.718808
0.811272
0.919533
1.03508
1.14663
1.2435
1.319
1.37199
1.40564
1.42433
1.42968
1.41965
1.38909
1.33332
1.25228
1.15316
1.05025
0.961997
0.90647
0.888387
0.910858
0.973924
1.07308
1.20097
1.34967
1.51272
1.68602
1.86839
2.06101
2.26534
2.48158
2.70766
2.93871
3.16768
3.38621
3.58653
3.76314
3.91374
4.03951
4.14445
4.23421
4.31471
4.39102
4.4663
4.54163
4.61585
4.68492
4.7413
4.77672
4.78329
4.75556
4.69215
4.5965
4.47615
4.34062
4.19869
4.056
3.91376
3.77064
3.62405
3.47102
3.30914
3.13736
2.9565
2.76956
2.58136
2.39875
2.22956
2.0813
1.95998
1.86929
1.81027
1.78161
1.78059
1.80425
1.85033
1.91669
2.00274
2.10977
2.24681
2.42541
2.62607
2.81215
2.94573
3.0034
2.98683
2.9221
2.84714
2.79354
2.7721
2.76357
2.75268
2.72505
2.67196
2.59368
2.49979
2.40641
2.3315
2.28672
2.28478
2.34254
2.44506
2.55531
2.63396
2.65258
2.60302
2.49972
2.37431
2.26403
2.19803
2.17576
2.18021
2.20148
2.22551
2.23852
2.23063
2.19838
2.14555
2.08223
2.02255
1.98181
1.96977
1.98912
2.03993
2.12185
2.23266
2.36748
2.51931
2.67988
2.84064
2.9938
3.13292
3.2533
3.35189
3.42708
3.47795
3.50359
3.50238
3.47262
3.41326
3.32441
3.20836
3.06734
2.90739
2.7468
2.60531
2.49918
2.43696
2.41764
2.43182
2.46522
2.50307
2.53417
2.55445
2.56083
2.55221
2.52896
2.49288
2.44572
2.38941
2.32568
2.25576
2.18005
2.09643
1.99156
1.78801
1.38752
0.831003
0.223418
0
0.762238
2.75934
5.86994
9.52789
12.8745
15.0527
15.5162
14.2215
11.6263
8.50079
5.63826
3.58857
2.51514
2.21941
2.28281
2.23102
2.18302
2.14302
2.11535
2.10352
2.11003
2.13639
2.18325
2.25046
2.33693
2.44691
2.58142
2.72179
2.84238
2.91856
2.93632
2.89872
2.82479
2.74073
2.66834
2.61731
2.57974
2.55066
2.52966
2.52006
2.52928
2.56751
2.64506
2.76871
2.93369
3.13574
3.3672
3.61686
3.87142
4.11785
4.34484
4.54441
4.71272
4.85009
4.96026
5.04912
5.12315
5.18727
5.24414
5.29333
5.33109
5.35128
5.34771
5.31618
5.25565
5.16826
5.05828
4.93046
4.789
4.63728
4.47686
4.30793
4.1302
3.94383
3.74983
3.5502
3.34784
3.14637
2.94981
2.76237
2.58811
2.43071
2.29316
2.17752
2.0855
2.01808
1.97342
1.94669
1.93297
1.92875
1.93314
1.94831
1.97887
2.03034
2.11503
2.24725
2.41835
2.60041
2.76104
2.87291
2.91926
2.89476
2.80405
2.66062
2.48628
2.30916
2.15453
2.0389
1.9638
1.91907
1.89635
1.89078
1.8968
1.90928
1.92403
1.93859
1.95191
1.96414
1.97631
1.98991
2.00641
2.02682
2.05139
2.07946
2.10902
2.13693
2.15955
2.17334
2.17533
2.16356
2.13717
2.0965
2.04312
1.98012
1.91076
1.84221
1.78427
1.7477
1.74258
1.77678
1.85474
1.97688
2.13962
2.33565
2.55343
2.78317
3.00483
3.19705
3.34153
3.4264
3.4478
3.40914
3.31843
3.18543
3.01988
2.83504
2.64233
2.45054
2.26765
2.10205
1.96115
1.85052
1.77299
1.72823
1.71291
1.72126
1.74596
1.77909
1.81281
1.8401
1.8546
1.85068
1.82336
1.76838
1.66578
1.45063
1.10353
0.659447
0.170599
0
0.814743
2.83389
5.87564
9.2931
12.1932
13.7989
13.7603
12.2576
9.86259
7.26139
4.99673
3.34501
2.33887
1.86657
1.81976
1.78801
1.75939
1.73574
1.71991
1.71543
1.72623
1.75583
1.80651
1.87865
1.97041
2.07935
2.20111
2.32529
2.43643
2.51961
2.56376
2.5652
2.53009
2.47435
2.42015
2.38961
2.39773
2.44016
2.50552
2.585
2.66856
2.74795
2.81906
2.88312
2.94638
3.01853
3.11045
3.23069
3.38122
3.56165
3.77031
4.00276
4.25228
4.51019
4.76529
5.00697
5.22638
5.41707
5.57367
5.6856
5.74876
5.76107
5.72087
5.62843
5.48773
5.30734
5.09972
4.87905
4.65853
4.44614
4.24511
4.05809
3.88615
3.7293
3.58688
3.4579
3.34115
3.2353
3.13888
3.05037
2.96821
2.89094
2.81738
2.7467
2.67848
2.61276
2.5501
2.49168
2.43982
2.39939
2.37726
2.38031
2.41498
2.48502
2.59449
2.74199
2.90386
3.0513
3.15966
3.21611
3.22268
3.19334
3.14716
3.10074
3.06253
3.0322
3.00829
2.99024
2.97816
2.97319
2.97729
2.99247
3.02062
3.06233
3.11371
3.16561
3.20666
3.22626
3.21731
3.17817
3.11323
3.03206
2.94727
2.87168
2.81414
2.77724
2.76033
2.76348
2.78545
2.82454
2.8792
2.94799
3.02995
3.12465
3.23144
3.349
3.47527
3.60664
3.73772
3.86148
3.96951
4.05341
4.10628
4.12285
4.09998
4.03695
3.93578
3.80123
3.6407
3.46376
3.28182
3.10535
2.94272
2.80182
2.68905
2.60883
2.56339
2.55276
2.5749
2.62981
2.72003
2.84223
2.97528
3.09025
3.15817
3.15638
3.07398
2.91416
2.69243
2.39278
1.9646
1.3908
0.664069
-0.11293
-0.691831
-0.777045
0
1.77657
4.44749
7.63122
10.7204
13.0301
14.0116
13.458
11.6073
9.07093
6.59222
4.74605
3.72856
3.34805
3.164
2.80766
2.47444
2.17475
1.92237
1.72566
1.6001
1.54516
1.54119
1.56459
1.59515
1.62153
1.64292
1.66642
1.70151
1.7561
1.8302
1.90902
1.97215
2.00297
1.99681
1.96386
1.92598
1.90851
1.93062
1.99072
2.07456
2.17481
2.28057
2.38245
2.47553
2.56067
2.64402
2.73466
2.84142
2.9701
3.11912
3.28351
3.45885
3.64089
3.82568
4.01007
4.19173
4.36857
4.5371
4.68926
4.81217
4.88745
4.89723
4.83196
4.69635
4.50982
4.30039
4.09448
3.90672
3.73249
3.56466
3.39913
3.23291
3.06439
2.89391
2.72375
2.55768
2.40014
2.25544
2.12701
2.01674
1.92501
1.85097
1.79303
1.74931
1.71809
1.69799
1.68807
1.68777
1.69687
1.71545
1.74378
1.78227
1.83123
1.8909
1.96193
2.04487
2.1346
2.21916
2.28554
2.32435
2.33398
2.32184
2.30161
2.28729
2.28695
2.2981
2.31335
2.32314
2.32092
2.30698
2.28904
2.27946
2.29018
2.32763
2.38512
2.45696
2.53111
2.59477
2.63798
2.65598
2.64963
2.624
2.58576
2.54079
2.49324
2.44544
2.39914
2.3571
2.3233
2.30282
2.30091
2.32189
2.36832
2.44084
2.53875
2.66095
2.80657
2.97484
3.18115
3.45244
3.77362
4.08424
4.31257
4.40621
4.35391
4.18697
3.96022
3.72448
3.50667
3.30265
3.10376
2.9065
2.70968
2.5132
2.31804
2.12633
1.94133
1.76738
1.60956
1.47326
1.36415
1.28906
1.25596
1.27222
1.33944
1.44259
1.54606
1.61103
1.6021
1.4932
1.2728
0.947109
0.539786
0.0881208
0
0.914761
3.06203
6.24058
9.75693
12.6465
14.0775
13.7081
11.7921
9.00019
6.0994
3.68874
2.08732
1.34773
1.31926
1.54525
1.72393
1.88084
2.01169
2.11538
2.19439
2.25142
2.28911
2.30885
2.3117
2.29632
2.26026
2.20134
2.11661
1.99813
1.84498
1.67799
1.52719
1.42138
1.38121
1.41575
1.52308
1.69366
1.91416
2.16984
2.44254
2.71808
2.98721
3.24373
3.48353
3.70379
3.90252
4.07946
4.23602
4.37496
4.49984
4.61437
4.72179
4.8241
4.92196
5.01483
5.10149
5.18088
5.25335
5.3214
5.38983
5.46508
5.5551
5.67346
5.83706
6.05134
6.28361
6.48004
6.584
6.54592
6.33569
5.95706
5.45637
4.91666
4.43364
4.04713
3.72613
3.45194
3.22614
3.04825
2.91689
2.83808
2.84407
3.00784
3.33337
3.71737
4.03204
4.17168
4.09888
3.85842
3.5484
3.2696
3.08662
2.98084
2.91262
2.86678
2.84064
2.83515
2.85142
2.89065
2.95384
3.04139
3.15273
3.28596
3.43767
3.60291
3.77659
3.95005
4.11361
4.25814
4.37582
4.46024
4.50597
4.50581
4.45499
4.35047
4.19324
3.99071
3.75785
3.51602
3.28924
3.09914
2.95158
2.85194
2.79891
2.78598
2.804
2.84361
2.89634
2.95654
3.0201
3.08231
3.13649
3.17454
3.18859
3.17361
3.12992
3.06426
2.9887
2.91778
2.86457
2.83374
2.83293
2.85572
2.88825
2.91465
2.92194
2.90334
2.85891
2.79364
2.71386
2.62388
2.52581
2.41937
2.30296
2.17465
2.03353
1.88041
1.7181
1.55102
1.38447
1.22354
1.07206
0.931768
0.801578
0.677933
0.555661
0.427625
0.282671
0.113147
-0.0736076
-0.261285
-0.430864
-0.564874
-0.665028
-0.73967
-0.795237
-0.741335
0
1.69247
4.3839
7.69904
10.8918
13.088
13.6447
12.4509
9.99068
7.10708
4.59625
2.88155
1.95485
1.57316
1.59667
1.85423
2.10259
2.30896
2.44143
2.48158
2.43596
2.33713
2.23128
2.15876
2.13905
2.15117
2.17715
2.20944
2.24238
2.27131
2.29236
2.30356
2.30462
2.29713
2.28472
2.27285
2.26823
2.2776
2.30614
2.35622
2.42666
2.51312
2.60922
2.70842
2.80571
2.89868
2.98768
3.07525
3.16508
3.26093
3.36551
3.48027
3.60627
3.74441
3.89568
4.06463
4.26241
4.49008
4.71636
4.89637
4.9882
4.97068
4.85068
4.65464
4.41023
4.13133
3.82299
3.49602
3.15797
2.81415
2.47083
2.13568
1.81661
1.52061
1.25271
1.01544
0.808067
0.627415
0.469018
0.328297
0.201637
0.086998
-0.0160088
-0.10658
-0.183514
-0.245682
-0.292737
-0.326218
-0.34985
-0.368076
-0.384892
-0.402776
-0.422009
-0.440568
-0.454636
-0.45956
-0.450974
-0.426413
-0.385419
-0.328815
-0.258057
-0.175062
-0.0819656
0.0190918
0.125939
0.23636
0.347201
0.45371
0.55013
0.630233
0.688106
0.718971
0.719917
0.69047
0.633031
0.5531
0.457671
0.358765
0.270194
0.204397
0.17
0.170424
0.204093
0.266128
0.350683
0.452771
0.56625
0.6888
0.818588
0.948595
1.06759
1.16276
1.22278
1.24081
1.2162
1.15487
1.06879
0.975006
0.893054
0.838648
0.824388
0.860897
0.95246
1.10754
1.32444
1.56373
1.78133
1.94223
2.03002
2.04815
2.013
1.94275
1.84802
1.73289
1.59921
1.44385
1.26677
1.07261
0.870702
0.673524
0.494151
0.339864
0.21481
0.121642
0.0599808
0.0269852
0.0172356
0.0217209
0.0268311
0.0169891
-0.0223419
-0.102856
-0.231662
-0.409936
-0.632346
-0.88748
-1.15926
-1.01416
0
1.99418
4.78473
7.87079
10.5583
12.1761
12.308
10.9469
8.50224
5.64752
3.06941
1.22992
0.247454
-0.0597153
0.0436573
0.147781
0.248794
0.342602
0.424935
0.493116
0.546966
0.58728
0.615742
0.63471
0.646746
0.654789
0.661777
0.670297
0.682338
0.699154
0.721278
0.748646
0.780843
0.817395
0.85812
0.903337
0.954015
1.01181
1.07901
1.1583
1.25248
1.36409
1.4949
1.64541
1.81452
1.99943
2.19585
2.39848
2.6017
2.80014
2.98918
3.16468
3.32205
3.45923
3.57569
3.67238
3.7519
3.81822
3.87611
3.92942
3.98052
4.02742
4.06195
4.07197
4.04523
3.97319
3.85321
3.68868
3.48753
3.26028
3.02007
2.77758
2.5398
2.31204
2.09897
1.90415
1.72974
32
218
406
596
775
950
1124
1305
1489
1670
1848
2030
2217
2408
2607
2792
2971
3148
3323
3501
3679
0
0
0
0
0
0
0
0
0
0
0
0
0
0
0
0
0
0
0
0
0
0
0
0
0
0
0
0
0
0
0
0
0
0
0
0
0
0
0
0
0
0
0
0
0
0
0
0
0
0
0
0
0
0
0
0
0
0
0
0
0
0
0
0
0
0
0
0
0
0
0
0
0
0
0
0
0
0
0
0
0
0
0
0
0
0
0
0
0
0
0
0
0
0
0
0
0
0
0
0
0
0
0
0
0
0
0
0
0
0
0
0
0
0
0
0
0
0
0
0
0
0
0
0
0
0
0
0
0
0
0
0
0
0
0
0
0
0
0
0
0
0
0
0
0
0
0
0
0
0
0
0
0
0
0
0
0
0
0
0
0
0
0
0
0
0
0
0
0
0
0
0
0
0
0
0
0
0
0
0
0
0
0
0
0
0
0
0
0
0
0
0
0
0
0
0
0
0
0
0
0
0
0
0
0
0
0
0
0
0
0
0
0
0
0
0
0
0
0
0
0
0
0
0
0
0
0
0
0
0
0
0
0
0
0
0
0
0
0
0
0
0
0
0
0
0
0
0
0
0
0
0
0
0
0
0
0
0
0
0
0
0
0
0
0
0
0
0
0
0
0
0
0
0
0
0
0
0
0
0
0
0
0
0
0
0
0
0
0
0
0
0
0
0
0
0
0
0
0
0
0
0
0
0
0
0
0
0
0
0
0
0
0
0
0
0
0
0
0
0
0
0
0
0
0
0
0
0
0
0
0
0
0
0
0
0
0
0
0
0
0
0
0
0
0
0
0
0
0
0
0
0
0
0
0
0
0
0
0
0
0
0
0
0
0
0
0
0
0
0
0
0
0
0
0
0
0
0
0
0
0
0
0
0
0
0
0
0
0
0
0
0
0
0
0
0
0
0
0
0
0
0
0
0
0
0
0
0
0
0
0
0
0
0
0
0
0
0
0
0
0
0
0
0
0
0
0
0
0
0
0
0
0
0
0
0
0
0
0
0
0
0
0
0
0
0
0
0
0
0
0
0
0
0
0
0
0
0
0
0
0
0
0
0
0
0
0
0
0
0
0
0
0
0
0
0
0
0
0
0
0
0
0
0
0
0
0
0
0
0
0
0
0
0
0
0
0
0
0
0
0
0
0
0
0
0
0
0
0
0
0
0
0
0
0
0
0
0
0
0
0
0
0
0
0
0
0
0
0
0
0
0
0
0
0
0
0
0
0
0
0
0
0
0
0
0
0
0
0
0
0
0
0
0
0
0
0
0
0
0
0
0
0
0
0
0
0
0
0
0
0
0
0
0
0
0
0
0
0
0
0
0
0
0
0
0
0
0
0
0
0
0
0
0
0
0
0
0
0
0
0
0
0
0
0
0
0
0
0
0
0
0
0
0
0
0
0
0
0
0
0
0
0
0
0
0
0
0
0
0
0
0
0
0
0
0
0
0
0
0
0
0
0
0
0
0
0
0
0
0
0
0
0
0
0
0
0
0
0
0
0
0
0
0
0
0
0
0
0
0
0
0
0
0
0
0
0
0
0
0
0
0
0
0
0
0
0
0
0
0
0
0
0
0
0
0
0
0
0
0
0
0
0
0
0
0
0
0
0
0
0
0
0
0
0
0
0
0
0
0
0
0
0
0
0
0
0
0
0
0
0
0
0
0
0
0
0
0
0
0
0
0
0
0
0
0
0
0
0
0
0
0
0
0
0
0
0
0
0
0
0
0
0
0
0
0
0
0
0
0
0
0
0
0
0
0
0
0
0
0
0
0
0
0
0
0
0
0
0
0
0
0
0
0
0
0
0
0
0
0
0
0
0
0
0
0
0
0
0
0
0
0
0
0
0
0
0
0
0
0
0
0
0
0
0
0
0
0
0
0
0
0
0
0
0
0
0
0
0
0
0
0
0
0
0
0
0
0
0
0
0
0
0
0
0
0
0
0
0
0
0
0
0
0
0
0
0
0
0
0
0
0
0
0
0
0
0
0
0
0
0
0
0
0
0
0
0
0
0
0
0
0
0
0
0
0
0
0
0
0
0
0
0
0
0
0
0
0
0
0
0
0
0
0
0
0
0
0
0
0
0
0
0
0
0
0
0
0
0
0
0
0
0
0
0
0
0
0
0
0
0
0
0
0
0
0
0
0
0
0
0
0
0
0
0
0
0
0
0
0
0
0
0
0
0
0
0
0
0
0
0
0
0
0
0
0
0
0
0
0
0
0
0
0
0
0
0
0
0
0
0
0
0
0
0
0
0
0
0
0
0
0
0
0
0
0
0
0
0
0
0
0
0
0
0
0
0
0
0
0
0
0
0
0
0
0
0
0
0
0
0
0
0
0
0
0
0
0
0
0
0
0
0
0
0
0
0
0
0
0
0
0
0
0
0
0
0
0
0
0
0
0
0
0
0
0
0
0
0
0
0
0
0
0
0
0
0
0
0
0
0
0
0
0
0
0
0
0
0
0
0
0
0
0
0
0
0
0
0
0
0
0
0
0
0
0
0
0
0
0
0
0
0
0
0
0
0
0
0
0
0
0
0
0
0
0
0
0
0
0
0
0
0
0
0
0
0
0
0
0
0
0
0
0
0
0
0
0
0
0
0
0
0
0
0
0
0
0
0
0
0
0
0
0
0
0
0
0
0
0
0
0
0
0
0
0
0
0
0
0
0
0
0
0
0
0
0
0
0
0
0
0
0
0
0
0
0
0
0
0
0
0
0
0
0
0
0
0
0
0
0
0
0
0
0
0
0
0
0
0
0
0
0
0
0
0
0
0
0
0
0
0
0
0
0
0
0
0
0
0
0
0
0
0
0
0
0
0
0
0
0
0
0
0
0
0
0
0
0
0
0
0
0
0
0
0
0
0
0
0
0
0
0
0
0
0
0
0
0
0
0
0
0
0
0
0
0
0
0
0
0
0
0
0
0
0
0
0
0
0
0
0
0
0
0
0
0
0
0
0
0
0
0
0
0
0
0
0
0
0
0
0
0
0
0
0
0
0
0
0
0
0
0
0
0
0
0
0
0
0
0
0
0
0
0
0
0
0
0
0
0
0
0
0
0
0
0
0
0
0
0
0
0
0
0
0
0
0
0
0
0
0
0
0
0
0
0
0
0
0
0
0
0
0
0
0
0
0
0
0
0
0
0
0
0
0
0
0
0
0
0
0
0
0
0
0
0
0
0
0
0
0
0
0
0
0
0
0
0
0
0
0
0
0
0
0
0
0
0
0
0
0
0
0
0
0
0
0
0
0
0
0
0
0
0
0
0
0
0
0
0
0
0
0
0
0
0
0
0
0
0
0
0
0
0
0
0
0
0
0
0
0
0
0
0
0
0
0
0
0
0
0
0
0
0
0
0
0
0
0
0
0
0
0
0
0
0
0
0
0
0
0
0
0
0
0
0
0
0
0
0
0
0
0
0
0
0
0
0
0
0
0
0
0
0
0
0
0
0
0
0
0
0
0
0
0
0
0
0
0
0
0
0
0
0
0
0
0
0
0
0
0
0
0
0
0
0
0
0
0
0
0
0
0
0
0
0
0
0
0
0
0
0
0
0
0
0
0
0
0
0
0
0
0
0
0
0
0
0
0
0
0
0
0
0
0
0
0
0
0
0
0
0
0
0
0
0
0
0
0
0
0
0
0
0
0
0
0
0
0
0
0
0
0
0
0
0
0
0
0
0
0
0
0
0
0
0
0
0
0
0
0
0
0
0
0
0
0
0
0
0
0
0
0
0
0
0
0
0
0
0
0
0
0
0
0
0
0
0
0
0
0
0
0
0
0
0
0
0
0
0
0
0
0
0
0
0
0
0
0
0
0
0
0
0
0
0
0
0
0
0
0
0
0
0
0
0
0
0
0
0
0
0
0
0
0
0
0
0
0
0
0
0
0
0
0
0
0
0
0
0
0
0
0
0
0
0
0
0
0
0
0
0
0
0
0
0
0
0
0
0
0
0
0
0
0
0
0
0
0
0
0
0
0
0
0
0
0
0
0
0
0
0
0
0
0
0
0
0
0
0
0
0
0
0
0
0
0
0
0
0
0
0
0
0
0
0
0
0
0
0
0
0
0
0
0
0
0
0
0
0
0
0
0
0
0
0
0
0
0
0
0
0
0
0
0
0
0
0
0
0
0
0
0
0
0
0
0
0
0
0
0
0
0
0
0
0
0
0
0
0
0
0
0
0
0
0
0
0
0
0
0
0
0
0
0
0
0
0
0
0
0
0
0
0
0
0
0
0
0
0
0
0
0
0
0
0
0
0
0
0
0
0
0
0
0
0
0
0
0
0
0
0
0
0
0
0
0
0
0
0
0
0
0
0
0
0
0
0
0
0
0
0
0
0
0
0
0
0
0
0
0
0
0
0
0
0
0
0
0
0
0
0
0
0
0
0
0
0
0
0
0
0
0
0
0
0
0
0
0
0
0
0
0
0
0
0
0
0
0
0
0
0
0
0
0
0
0
0
0
0
0
0
0
0
0
0
0
0
0
0
0
0
0
0
0
0
0
0
0
0
0
0
0
0
0
0
0
0
0
0
0
0
0
0
0
0
0
0
0
0
0
0
0
0
0
0
0
0
0
0
0
0
0
0
0
0
0
0
0
0
0
0
0
0
0
0
0
0
0
0
0
0
0
0
0
0
0
0
0
0
0
0
0
0
0
0
0
0
0
0
0
0
0
0
0
0
0
0
0
0
0
0
0
0
0
0
0
0
0
0
0
0
0
0
0
0
0
0
0
0
0
0
0
0
0
0
0
0
0
0
0
0
0
0
0
0
0
0
0
0
0
0
0
0
0
0
0
0
0
0
0
0
0
0
0
0
0
0
0
0
0
0
0
0
0
0
0
0
0
0
0
0
0
0
0
0
0
0
0
0
0
0
0
0
0
0
0
0
0
0
0
0
0
0
0
0
0
0
0
0
0
0
0
0
0
0
0
0
0
0
0
0
0
0
0
0
0
0
0
0
0
0
0
0
0
0
0
0
0
0
0
0
0
0
0
0
0
0
0
0
0
0
0
0
0
0
0
0
0
0
0
0
0
0
0
0
0
0
0
0
0
0
0
0
0
0
0
0
0
0
0
0
0
0
0
0
0
0
0
0
0
0
0
0
0
0
0
0
0
0
0
0
0
0
0
0
0
0
0
0
0
0
0
0
0
0
0
0
0
0
0
0
0
0
0
0
0
0
0
0
0
0
0
0
0
0
0
0
0
0
0
0
0
0
0
0
0
0
0
0
0
0
0
0
0
0
0
0
0
0
0
0
0
0
0
0
0
0
0
0
0
0
0
0
0
0
0
0
0
0
0
0
0
0
0
0
0
0
0
0
0
0
0
0
0
0
0
0
0
0
0
0
0
0
0
0
0
0
0
0
0
0
0
0
0
0
0
0
0
0
0
0
0
0
0
0
0
0
0
0
0
0
0
0
0
0
0
0
0
0
0
0
0
0
0
0
0
0
0
0
0
0
0
0
0
0
0
0
0
0
0
0
0
0
0
0
0
0
0
0
0
0
0
0
0
0
0
0
0
0
0
0
0
0
0
0
0
0
0
0
0
0
0
0
0
0
0
0
0
0
0
0
0
0
0
0
0
0
0
0
0
0
0
0
0
0
0
0
0
0
0
0
0
0
0
0
0
0
0
0
0
0
0
0
0
0
0
0
0
0
0
0
0
0
0
0
0
0
0
0
0
0
0
0
0
0
0
0
0
0
0
0
0
0
0
0
0
0
0
0
0
0
0
0
0
0
0
0
0
0
0
0
0
0
0
0
0
0
0
0
0
0
0
0
0
0
0
0
0
0
0
0
0
0
0
0
0
0
0
0
0
0
0
0
0
0
0
0
0
0
0
0
0
0
0
0
0
0
0
0
0
0
0
0
0
0
0
0
0
0
0
0
0
0
0
0
0
0
0
0
0
0
0
0
0
0
0
0
0
0
0
0
0
0
0
0
0
0
0
0
0
0
0
0
0
0
0
0
0
0
0
0
0
0
0
0
0
0
0
0
0
0
0
0
0
0
0
0
0
0
0
0
0
0
0
0
0
0
0
0
0
0
0
0
0
0
0
0
0
0
0
0
0
0
0
0
0
0
0
0
0
0
0
0
0
0
0
0
0
0
0
0
0
0
0
0
0
0
0
0
0
0
0
0
0
0
0
0
0
0
0
0
0
0
0
0
0
0
0
0
0
0
0
0
0
0
0
0
0
0
0
0
0
0
0
0
0
0
0
0
0
0
0
0
0
0
0
0
0
0
0
0
0
0
0
0
0
0
0
0
0
0
0
0
0
0
0
0
0
0
0
0
0
0
0
0
0
0
0
0
0
0
0
0
0
0
0
0
0
0
0
0
0
0
0
0
0
0
0
0
0
0
0
0
0
0
0
0
0
0
0
0
0
0
0
0
0
0
0
0
0
0
0
0
0
0
0
0
0
0
0
0
0
0
0
0
0
0
0
0
0
0
0
0
0
0
0
0
0
0
0
0
0
0
0
0
0
0
0
0
0
0
0
0
0
0
0
0
0
0
0
0
0
0
0
0
0
0
0
0
0
0
0
0
0
0
0
0
0
0
0
0
0
0
0
0
0
0
0
0
0
0
0
0
0
0
0
0
0
0
0
0
0
0
0
0
0
0
0
0
0
0
0
0
0
0
0
0
0
0
0
0
0
0
0
0
0
0
0
0
0
0
0
0
0
0
0
0
0
0
0
0
0
0
0
0
0
0
0
0
0
0
0
0
0
0
0
0
0
0
0
0
0
0
0
0
0
0
0
0
0
0
0
0
0
0
0
0
0
0
0
0
0
0
0
0
0
0
0
0
0
0
0
0
0
0
0
0
0
0
0
0
0
0
0
0
0
0
0
0
0
0
0
0
0
0
0
0
0
0
0
0
0
0
0
0
0
0
0
0
0
0
0
0
0
0
0
0
0
0
0
0
0
0
0
0
0
0
0
0
0
0
0
0
0
0
0
0
0
0
0
0
0
0
0
0
0
0
0
0
0
0
0
0
0
0
0
0
0
0
0
0
0
0
0
0
0
0
0
0
0
0
0
0
0
0
0
0
0
0
0
0
0
0
0
0
0
0
0
0
0
0
0
0
0
0
0
0
0
0
0
0
0
0
0
0
0
0
0
0
0
0
0
0
0
0
0
0
0
0
0
0
0
0
0
0
0
0
0
0
0
0
0
0
0
0
0
0
0
0
0
0
0
0
0
0
0
0
0
0
0
0
0
0
0
0
0
0
0
0
0
0
0
0
0
0
0
0
0
0
0
0
0
0
0
0
0
0
0
0
0
0
0
0
0
0
0
0
0
0
0
0
0
0
0
0
0
0
0
0
0
0
0
0
0
0
0
0
0
0
0
0
0
0
0
0
0
0
0
0
0
0
0
0
0
0
0
0
0
0
0
0
0
0
0
0
0
0
0
0
0
0
0
0
0
0
0
0
0
0
0
0
0
0
0
0
0
0
0
0
0
0
0
0
0
0
0
0
0
0
0
0
0
0
0
0
0
0
0
0
0
0
0
0
0
0
0
0
0
0
0
0
0
0
0
0
0
0
0
0
0
0
0
0
0
0
0
0
0
0
0
0
0
0
0
0
0
0
0
0
0
0
0
0
0
0
0
0
0
0
0
0
0
0
0
0
0
0
0
0
0
0
0
0
0
0
0
0
0
0
0
0
0
0
0
0
0
0
0
0
0
0
0
0
0
0
0
0
0
0
0
0
0
0
0
0
0
0
0
0
0
0
0
0
0
0
0
0
0
0
0
0
0
0
0
0
0
0
0
0
0
0
0
0
0
0
0
0
0
0
0
0
0
0
0
0
0
0
0
0
0
0
0
0
0
0
0
0
0
0
0
0
0
0
0
0
0
0
0
0
0
0
0
0
0
0
0
0
0
0
0
0
0
0
0
0
0
0
0
0
0
0
0
0
0
0
0
0
0
0
0
0
0
0
0
0
0
0
0
0
0
0
0
0
0
0
0
0
0
0
0
0
0
0
0
0
0
0
0
0
0
0
0
0
0
0
0
0
0
0
0
0
0
0
0
0
0
0
0
0
0
0
0
0
0
0
0
0
0
0
0
0
0
0
0
0
0
0
0
0
0
0
0
0
0
0
0
0
0
0
0
0
0
0
0
0
0
0
0
0
0
0
0
0
0
0
0
0
0
0
0
0
0
0
0
0
0
0
0
0
0
0
0
0
0
0
0
0
0
0
0
0
0
0
0
0
0
0
0
0
0
0
0
0
0
0
0
0
0
0
0
0
0
0
0
0
0
0
0
0
0
0
0
0
0
0
0
0
0
0
0
0
0
0
0
0
0
0
0
0
0
0
0
0
0
0
0
0
0
0
0
0
0
0
0
0
0
0
0
0
0
0
0
0
0
0
0
0
0
0
0
0
0
0
0
0
0
0
0
0
0
