-2.77733
-1.98277
-1.35767
-0.924911
-0.713913
-0.69041
-0.680552
-0.672869
-0.664832
-0.654572
-0.640621
-0.622203
-0.599366
-0.572795
-0.543913
-0.514865
-0.488077
-0.465546
-0.448325
-0.436198
-0.427658
-0.420228
-0.411065
-0.397658
-0.378382
-0.353074
-0.322508
-0.28743
-0.248507
-0.205996
-0.15953
-0.108102
-0.0501817
0.0160816
0.0923985
0.180367
0.281299
0.39584
0.523705
0.663486
0.812613
0.967512
1.12398
1.27768
1.42471
1.56199
1.68753
1.80038
1.90023
1.98744
2.06261
2.12597
2.17676
2.2126
2.22945
2.2235
2.19065
2.12749
2.03245
1.90682
1.75519
1.58528
1.40693
1.23062
1.06439
0.91326
0.781296
0.670146
0.579389
0.507194
0.45104
0.408473
0.377368
0.356241
0.344201
0.340727
0.345376
0.357512
0.37611
0.399684
0.426355
0.453924
0.480081
0.502793
0.520616
0.532934
0.54006
0.543164
0.54403
0.544705
0.547127
0.552746
0.562413
0.576445
0.594754
0.616946
0.642435
0.670476
0.700119
0.730038
0.758083
0.781009
0.795234
0.797413
0.785376
0.758953
0.720329
0.673702
0.624295
0.576993
0.534891
0.498756
0.467816
0.440177
0.413842
0.387747
0.362409
0.340003
0.323791
0.317115
0.323143
0.344594
0.379293
0.418671
0.452416
0.471788
0.472498
0.456195
0.430001
0.404161
0.38849
0.388749
0.406918
0.432639
0.449416
0.440671
0.396238
0.316819
0.214584
0.109522
0.0227479
-0.0320383
-0.0510667
-0.0411458
-0.0180504
0
0.00154543
-0.0224873
-0.0693896
-0.130041
-0.193225
-0.249849
-0.297904
-0.33924
-0.370133
-0.318244
-0.0603944
0.541495
1.56524
2.90851
4.24415
5.09166
5.00875
3.82027
1.7518
-0.633469
-2.6762
-3.9053
-4.20222
-3.76697
-2.94236
-2.02913
-1.19599
-0.499458
0.0468204
0.330487
0.452874
0.554219
0.64574
0.728778
0.804848
0.875696
0.94305
1.00837
1.07266
1.13634
1.19924
1.26068
1.31965
1.37508
1.42602
1.47193
1.51274
1.54894
1.58152
1.61196
1.64204
1.67374
1.70908
1.74991
1.7977
1.85339
1.9172
1.9887
2.06693
2.15074
2.23907
2.33134
2.42762
2.5286
2.63538
2.74893
2.86962
2.99673
3.12817
3.26057
3.38913
3.50835
3.61294
3.69849
3.76184
3.80121
3.81608
3.80686
3.77464
3.72086
3.64756
3.55686
3.45058
3.33024
3.19723
3.05299
2.89887
2.73616
2.56654
2.39225
2.21616
2.04168
1.87241
1.71183
1.56286
1.42758
1.30712
1.20176
1.11111
1.03442
0.970788
0.91925
0.878786
0.848203
0.825988
0.810173
0.798287
0.787558
0.7754
0.759839
0.739891
0.715774
0.688892
0.661577
0.636632
0.616768
0.603912
0.599142
0.602381
0.612453
0.627437
0.644743
0.661748
0.676273
0.68689
0.693007
0.694728
0.692536
0.686909
0.677996
0.665542
0.648894
0.627266
0.600178
0.567841
0.531405
0.492978
0.455377
0.421661
0.394495
0.375723
0.366255
0.365634
0.371317
0.378674
0.382853
0.380015
0.36832
0.348427
0.323341
0.297636
0.27626
0.263238
0.259613
0.265214
0.278368
0.294275
0.306192
0.307654
0.294103
0.264121
0.219915
0.16688
0.112308
0.0635979
0.0260163
0.000481558
-0.0140858
-0.0191334
-0.0172668
-0.0116401
-0.00536251
-0.000922441
0
-0.00427647
-0.0127257
-0.0244939
-0.0383096
-0.052508
-0.0321023
0.202067
0.743377
1.65849
2.85796
4.03575
4.72945
4.51548
3.24535
1.17347
-1.12073
-2.98333
-3.96595
-3.98238
-3.27619
-2.2493
-1.26383
-0.516452
-0.0259068
0.27717
0.400254
0.501306
0.594029
0.679593
0.75931
0.835219
0.909544
0.984113
1.05991
1.13693
1.21423
1.29036
1.36415
1.43548
1.50565
1.57723
1.65344
1.73711
1.82964
1.93068
2.0373
2.14272
2.23862
2.31759
2.3752
2.41127
2.43007
2.43944
2.44908
2.46851
2.50467
2.55955
2.63125
2.71647
2.81155
2.91235
3.01483
3.1157
3.21293
3.30591
3.3952
3.48186
3.56705
3.65096
3.73007
3.79661
3.84078
3.85409
3.8322
3.77592
3.69015
3.58143
3.45516
3.31578
3.16585
3.00619
2.83679
2.65764
2.46945
2.274
2.0743
1.8742
1.67804
1.48994
1.31334
1.15061
1.00299
0.870685
0.753224
0.649768
0.559386
0.481234
0.414454
0.35817
0.311416
0.273079
0.241897
0.216484
0.195409
0.177258
0.160715
0.144782
0.128974
0.113478
0.0992337
0.087878
0.0814013
0.0817108
0.0901231
0.106951
0.131315
0.161296
0.194235
0.227382
0.258514
0.286411
0.311032
0.333386
0.355119
0.377972
0.403226
0.431325
0.461913
0.493949
0.525917
0.556137
0.58305
0.60541
0.622332
0.63332
0.638259
0.637307
0.630837
0.6194
0.603692
0.584545
0.562925
0.539975
0.517086
0.495949
0.4787
0.46778
0.465737
0.474923
0.497103
0.533648
0.58547
0.652003
0.730096
0.812243
0.886535
0.940633
0.964197
0.95101
0.900675
0.819167
0.717675
0.609794
0.507972
0.41899
0.342364
0.275841
0.218253
0.168803
0.12668
0.0912482
0.0620926
0.0389427
0.0215593
0.00961466
0.00261064
0
0.00793986
0.0284708
0.198982
0.616142
1.35923
2.40592
3.55534
4.4305
4.59636
3.76877
2.00186
-0.276288
-2.42915
-3.89515
-4.42023
-4.10952
-3.29555
-2.33646
-1.47668
-0.822054
-0.391503
-0.227188
-0.217902
-0.217322
-0.218184
-0.218686
-0.217633
-0.214492
-0.209403
-0.202759
-0.194992
-0.186309
-0.176561
-0.165277
-0.151854
-0.135827
-0.117144
-0.0962422
-0.0739331
-0.0512986
-0.0294498
-0.00928762
0.00867606
0.0244067
0.0383462
0.0513467
0.0645684
0.0793408
0.0970531
0.118972
0.146091
0.179
0.217834
0.262337
0.312045
0.366526
0.425619
0.489536
0.558804
0.634017
0.715478
0.802846
0.894872
0.989437
1.08376
1.17465
1.25891
1.33364
1.39641
1.44515
1.47804
1.49312
1.48849
1.46214
1.41218
1.33728
1.23711
1.11284
0.967374
0.805316
0.632749
0.45654
0.283508
0.119891
-0.0292154
-0.16022
-0.271137
-0.361408
-0.431563
-0.482907
-0.517015
-0.535367
-0.53919
-0.529699
-0.508073
-0.47468
-0.431015
-0.381946
-0.333783
-0.292317
-0.261183
-0.240681
-0.227617
-0.216293
-0.20031
-0.174529
-0.137771
-0.0918912
-0.03929
0.0175398
0.0759272
0.133342
0.187636
0.23709
0.280564
0.317453
0.347557
0.371021
0.388274
0.399961
0.406843
0.409697
0.409253
0.406233
0.401353
0.395376
0.389211
0.383884
0.380392
0.3795
0.381611
0.386464
0.392841
0.398992
0.403191
0.404256
0.4019
0.39675
0.39003
0.383041
0.376646
0.37094
0.365439
0.359345
0.351964
0.343069
0.333063
0.322894
0.313768
0.306812
0.302724
0.301913
0.304563
0.310811
0.320912
0.335261
0.354239
0.378002
0.4063
0.437663
0.46917
0.496919
0.516673
0.524561
0.517719
0.494737
0.455856
0.402924
0.339155
0.268841
0.196631
0.126755
0.0625668
0.00642529
-0.0401352
-0.0765274
-0.103156
-0.121218
-0.132477
-0.138916
-0.142419
-0.144547
-0.146412
-0.148819
-0.156395
0
0.46952
1.36699
2.6439
4.01701
5.00507
5.10987
4.06821
2.0293
-0.466678
-2.71727
-4.16531
-4.60906
-4.21193
-3.3437
-2.37849
-1.56423
-0.998808
-0.672011
-0.534418
-0.465116
-0.406492
-0.353739
-0.306558
-0.265293
-0.23
-0.200317
-0.175506
-0.154542
-0.136206
-0.119168
-0.102062
-0.0835639
-0.0624855
-0.0379047
-0.00931377
0.0232522
0.0591525
0.0972125
0.135894
0.173557
0.208868
0.241126
0.27046
0.297823
0.324797
0.353247
0.384945
0.421263
0.462958
0.510282
0.563225
0.621677
0.685556
0.754817
0.829308
0.908535
0.991435
1.07628
1.16071
1.24196
1.31741
1.385
1.44353
1.49264
1.53238
1.56208
1.58066
1.58649
1.57664
1.54731
1.4945
1.4148
1.30612
1.16816
1.00268
0.813756
0.608139
0.393011
0.175266
-0.038426
-0.241656
-0.428744
-0.595204
-0.738126
-0.856135
-0.9487
-1.01652
-1.06363
-1.0969
-1.12306
-1.14744
-1.17296
-1.19979
-1.22568
-1.24696
-1.25987
-1.2622
-1.25436
-1.23799
-1.21505
-1.18811
-1.15961
-1.13128
-1.1038
-1.07674
-1.04889
-1.01879
-0.985323
-0.948029
-0.90748
-0.866179
-0.827402
-0.793951
-0.767081
-0.745961
-0.727883
-0.709172
-0.686445
-0.657743
-0.623703
-0.586254
-0.547582
-0.509935
-0.475128
-0.444154
-0.417062
-0.393084
-0.370939
-0.349203
-0.326633
-0.302373
-0.275998
-0.247434
-0.216799
-0.184212
-0.149633
-0.112758
-0.0730253
-0.0297272
0.0177615
0.0696812
0.125692
0.184692
0.243577
0.297384
0.340708
0.369022
0.379915
0.373816
0.353992
0.325841
0.295764
0.269972
0.252411
0.244968
0.248783
0.264301
0.291382
0.329118
0.374436
0.420863
0.460775
0.487595
0.497399
0.489853
0.468023
0.436996
0.401821
0.365597
0.328691
0.289871
0.247432
0.200533
0.150015
0.0991297
0.0532766
0.0185202
0
0.00490956
0.0289288
0.0692693
0.121129
0.17922
0.236945
0.373501
0.816001
1.6793
2.89292
4.13449
4.90076
4.72222
3.42508
1.27337
-1.11993
-3.07605
-4.15635
-4.30533
-3.77306
-2.91122
-1.99714
-1.17926
-0.518698
-0.045401
0.213292
0.307675
0.407927
0.510884
0.615395
0.720578
0.825161
0.927684
1.02685
1.12181
1.21222
1.29814
1.37966
1.45653
1.52796
1.59282
1.64978
1.69765
1.7358
1.76435
1.78404
1.79607
1.80176
1.80249
1.79941
1.79338
1.7853
1.77624
1.76752
1.76076
1.75787
1.76097
1.77219
1.79334
1.82576
1.8701
1.92619
1.99301
2.06874
2.15099
2.23702
2.324
2.40921
2.48987
2.5631
2.62642
2.67749
2.7142
2.73459
2.73693
2.71964
2.68133
2.62086
2.53794
2.43377
2.31007
2.16896
2.0136
1.84801
1.67688
1.5048
1.33603
1.17414
1.02182
0.880765
0.751644
0.634271
0.5278
0.431016
0.342673
0.26182
0.188077
0.121759
0.0638255
0.0155729
-0.0216841
-0.0464288
-0.0576917
-0.0573113
-0.049705
-0.0400311
-0.0328729
-0.0310336
-0.0348324
-0.0420976
-0.0488108
-0.0501778
-0.0424035
-0.0239562
0.0052897
0.0456864
0.0960322
0.151727
0.206239
0.253534
0.289662
0.31383
0.32856
0.338812
0.350299
0.367566
0.392027
0.422184
0.455129
0.486979
0.514097
0.534152
0.546657
0.552885
0.555233
0.556326
0.558151
0.561447
0.565994
0.570994
0.575307
0.577801
0.577632
0.574397
0.568139
0.559233
0.548208
0.535565
0.52166
0.506699
0.490884
0.474637
0.458843
0.445017
0.435298
0.432214
0.438422
0.457375
0.492348
0.542962
0.602536
0.660294
0.704575
0.725349
0.716207
0.675528
0.606746
0.517796
0.419772
0.324784
0.242152
0.176028
0.126041
0.092892
0.0737694
0.0627868
0.0532784
0.039326
0.0169799
-0.0151171
-0.0558082
-0.102098
-0.150343
-0.189424
0
0.415115
1.142
2.19777
3.42898
4.48274
4.90678
4.35572
2.79448
0.569156
-1.71492
-3.45162
-4.28819
-4.23714
-3.5995
-2.76614
-2.02633
-1.48496
-1.10434
-0.811387
-0.630078
-0.514812
-0.423633
-0.347524
-0.283362
-0.229828
-0.185678
-0.149018
-0.117448
-0.0881941
-0.0582911
-0.0248246
0.0147771
0.0624386
0.119195
0.185075
0.259172
0.339971
0.425747
0.514969
0.606612
0.700279
0.796118
0.894555
0.995959
1.10037
1.20738
1.31618
1.42586
1.53562
1.64512
1.75455
1.86454
1.97592
2.08937
2.20511
2.32267
2.44088
2.55804
2.67216
2.78126
2.88371
2.9783
3.06425
3.1409
3.20758
3.2636
3.30808
3.33973
3.35696
3.35806
3.34144
3.30591
3.2509
3.17663
3.08409
2.97501
2.8517
2.71705
2.57446
2.4274
2.27929
2.13375
1.99514
1.86894
1.7604
1.67362
1.61112
1.57317
1.55748
1.55939
1.57248
1.58973
1.60492
1.61367
1.61405
1.60659
1.59366
1.57849
1.56416
1.55259
1.54429
1.53896
1.53547
1.53251
1.52921
1.52557
1.5227
1.52265
1.528
1.54122
1.56395
1.59623
1.63722
1.68423
1.73209
1.77439
1.80527
1.82072
1.81935
1.80263
1.77433
1.73951
1.70315
1.66898
1.6384
1.61084
1.58499
1.55912
1.53155
1.50114
1.46761
1.43162
1.39464
1.35853
1.32511
1.29564
1.27044
1.24899
1.22971
1.2101
1.18728
1.15865
1.12253
1.07853
1.0277
0.972389
0.915684
0.860797
0.810301
0.765546
0.727223
0.695029
0.668042
0.645333
0.626434
0.611573
0.601574
0.597517
0.601274
0.613432
0.629785
0.6431
0.645408
0.630598
0.596478
0.545429
0.483423
0.417885
0.355348
0.298794
0.248211
0.202926
0.16234
0.125829
0.0929867
0.0637433
0.0383105
0.0169988
0
-0.00933781
-0.00978012
0.0808785
0.353842
0.929474
1.89904
3.18169
4.45587
5.22906
5.05386
3.78001
1.6792
-0.652902
-2.56709
-3.64038
-3.80727
-3.29826
-2.46496
-1.61454
-0.929351
-0.469497
-0.216792
-0.127189
-0.0704513
-0.0217979
0.022223
0.0626548
0.100439
0.136832
0.173159
0.210517
0.249501
0.290039
0.33137
0.372211
0.410994
0.446258
0.477
0.50293
0.524561
0.543133
0.560372
0.578145
0.598106
0.621426
0.648631
0.679763
0.714654
0.753209
0.795684
0.842832
0.895851
0.956148
1.02498
1.10312
1.19053
1.28634
1.38908
1.49691
1.60783
1.72004
1.83204
1.94269
2.05116
2.15676
2.25877
2.35624
2.44786
2.5318
2.60565
2.66651
2.71158
2.73831
2.7446
2.72907
2.69125
2.6316
2.55134
2.45223
2.33632
2.20656
2.06639
1.91895
1.7672
1.61441
1.46408
1.31964
1.18411
1.05976
0.947951
0.849028
0.762515
0.687349
0.622198
0.56574
0.516863
0.474739
0.438777
0.408517
0.383495
0.363094
0.346478
0.332669
0.320644
0.309444
0.298249
0.286408
0.273445
0.259067
0.243209
0.226105
0.208356
0.190934
0.175078
0.162094
0.153101
0.148931
0.149812
0.155546
0.165721
0.17997
0.198146
0.220339
0.24669
0.277139
0.311235
0.347469
0.382992
0.414224
0.437704
0.450939
0.453066
0.445116
0.429784
0.410773
0.3919
0.376122
0.364767
0.357806
0.354634
0.354101
0.354928
0.356091
0.357032
0.357684
0.358308
0.35924
0.360652
0.362415
0.364133
0.365298
0.36554
0.364867
0.363846
0.363655
0.365989
0.372774
0.385795
0.406526
0.436255
0.475753
0.522844
0.569559
0.605763
0.622437
0.614784
0.584266
0.538574
0.489302
0.448088
0.422643
0.410859
0.409016
0.410573
0.407392
0.39161
0.357261
0.301341
0.224167
0.12908
0.0216339
-0.0914156
-0.203288
-0.269175
0
0.539451
1.35819
2.42867
3.63773
4.74663
5.40521
5.26283
4.14618
2.20243
-0.101562
-2.15244
-3.44862
-3.79644
-3.34249
-2.44587
-1.48587
-0.715456
-0.216699
0.048589
0.123743
0.164312
0.196589
0.223231
0.245675
0.266246
0.287753
0.312889
0.343559
0.380344
0.422502
0.46763
0.51257
0.554317
0.590861
0.621704
0.647891
0.671593
0.695424
0.721736
0.751836
0.786174
0.824705
0.866985
0.912355
0.960155
1.00986
1.0612
1.11419
1.16917
1.22689
1.28842
1.35508
1.4283
1.50927
1.59873
1.69662
1.80201
1.91312
2.02748
2.14233
2.25492
2.36281
2.46408
2.55734
2.64175
2.71686
2.78244
2.83822
2.88349
2.91674
2.93575
2.93798
2.92042
2.88005
2.81453
2.72287
2.60596
2.46688
2.31079
2.14459
1.97606
1.81237
1.65982
1.52334
1.40605
1.30925
1.23256
1.17366
1.12838
1.09214
1.06059
1.0303
0.998959
0.965486
0.929721
0.892088
0.85327
0.813984
0.774885
0.736665
0.700145
0.666307
0.636243
0.610984
0.591259
0.577311
0.568816
0.564987
0.564366
0.564915
0.564865
0.563236
0.56018
0.556985
0.555715
0.558561
0.567107
0.581642
0.600931
0.623115
0.645737
0.666265
0.682606
0.693457
0.698464
0.698162
0.693757
0.686812
0.678907
0.671356
0.664989
0.660083
0.656456
0.653622
0.650964
0.647962
0.644362
0.640255
0.636041
0.632288
0.629529
0.628117
0.628064
0.629052
0.63069
0.632806
0.635702
0.640221
0.647597
0.659102
0.67559
0.69701
0.722373
0.74971
0.776241
0.798639
0.813333
0.81721
0.807941
0.784307
0.746422
0.695793
0.635179
0.568225
0.498921
0.430994
0.367202
0.309054
0.257249
0.211635
0.171458
0.135674
0.103205
0.0731214
0.0447129
0.017491
-0.00885077
-0.034408
-0.0581975
0
0.338941
1.08817
2.24169
3.54486
4.52
4.64917
3.64131
1.62494
-0.868547
-3.13735
-4.62163
-5.11374
-4.76611
-3.93348
-2.97458
-2.12713
-1.48774
-1.05908
-0.816896
-0.745828
-0.697673
-0.655949
-0.61804
-0.583132
-0.55069
-0.520189
-0.491134
-0.463095
-0.435731
-0.40882
-0.382264
-0.356076
-0.330306
-0.304927
-0.27969
-0.254007
-0.226902
-0.197092
-0.16319
-0.124
-0.0788166
-0.0276667
0.028653
0.0888453
0.15138
0.214904
0.278635
0.342639
0.407909
0.476241
0.549923
0.631297
0.722289
0.823978
0.936301
1.05793
1.18636
1.31814
1.44933
1.57597
1.69454
1.80238
1.89785
1.98038
2.05022
2.10811
2.15493
2.19127
2.21705
2.23139
2.23248
2.21803
2.18562
2.13326
2.05994
1.96615
1.85409
1.72761
1.59185
1.45261
1.31554
1.18551
1.06622
0.959969
0.867656
0.788986
0.722741
0.667108
0.619993
0.579299
0.543159
0.510117
0.479233
0.450117
0.422858
0.397881
0.375741
0.356919
0.341642
0.329781
0.320855
0.314121
0.308711
0.303772
0.298571
0.292549
0.285335
0.276763
0.266887
0.256028
0.244812
0.234189
0.225354
0.219578
0.217944
0.221125
0.229173
0.241032
0.254262
0.265689
0.272015
0.270485
0.259462
0.238756
0.209696
0.174898
0.137834
0.102161
0.0708317
0.0461067
0.0298946
0.0228245
0.0232368
0.0284962
0.0357582
0.0426846
0.0478722
0.0508621
0.0517986
0.0509632
0.0484821
0.0444435
0.0389935
0.0328648
0.0276779
0.0259518
0.0307323
0.0449112
0.0713532
0.112473
0.166566
0.226365
0.281664
0.32198
0.338722
0.326759
0.285182
0.217269
0.12984
0.0321533
-0.0655209
-0.154852
-0.230955
-0.291498
-0.334513
-0.35984
-0.368893
-0.364187
-0.34875
-0.325542
-0.297075
-0.265199
-0.230936
-0.194297
-0.151748
0
0.330777
0.944015
1.89855
3.07413
4.126
4.58411
4.07634
2.55133
0.354857
-1.90187
-3.61272
-4.42948
-4.36087
-3.6876
-2.77444
-1.90334
-1.20741
-0.70423
-0.370272
-0.258077
-0.228642
-0.212706
-0.201793
-0.193071
-0.184084
-0.172651
-0.157187
-0.136987
-0.112108
-0.08316
-0.0510986
-0.0169739
0.0183128
0.0541893
0.0904968
0.12747
0.16563
0.205622
0.248033
0.293238
0.341307
0.39202
0.444973
0.499789
0.556339
0.614942
0.676456
0.742223
0.813887
0.8931
0.981214
1.07902
1.18658
1.3032
1.42749
1.55756
1.6912
1.82609
1.96006
2.09124
2.21823
2.3403
2.45735
2.56998
2.67919
2.78604
2.89134
2.99474
3.0923
3.17591
3.23461
3.25746
3.23661
3.16934
3.05868
2.9127
2.74316
2.56394
2.38762
2.22126
2.06816
1.93017
1.80867
1.7036
1.61353
1.53607
1.46839
1.40773
1.35187
1.29938
1.24967
1.20286
1.15948
1.12021
1.08555
1.05574
1.03072
1.01031
0.994351
0.982852
0.975997
0.974091
0.97742
0.986064
0.999787
1.01806
1.04001
1.06452
1.0903
1.11601
1.1403
1.16191
1.17974
1.19286
1.20056
1.20232
1.1979
1.18726
1.17065
1.14857
1.12183
1.09155
1.05908
1.0259
0.993522
0.963328
0.936414
0.913504
0.894893
0.880446
0.86963
0.861587
0.855163
0.849019
0.841769
0.832139
0.81917
0.802418
0.782133
0.759343
0.735824
0.713905
0.696121
0.684769
0.681521
0.687353
0.701897
0.722703
0.745093
0.763318
0.771798
0.766102
0.743631
0.703889
0.648324
0.579822
0.502038
0.418909
0.333907
0.249534
0.167555
0.0893949
0.0163692
-0.0501133
-0.108335
-0.156459
-0.192975
-0.216653
-0.226844
-0.223768
-0.208701
-0.18295
-0.138256
0
0.32005
0.97065
2.01275
3.28604
4.38383
4.78448
4.10504
2.33655
-0.0968021
-2.5115
-4.2741
-5.06181
-4.93443
-4.21277
-3.27612
-2.4061
-1.73501
-1.27744
-0.998175
-0.91154
-0.871115
-0.843697
-0.824479
-0.812236
-0.80515
-0.801273
-0.799059
-0.797772
-0.797657
-0.799859
-0.806113
-0.818307
-0.838023
-0.866179
-0.902825
-0.947133
-0.997552
-1.05199
-1.10817
-1.16382
-1.21664
-1.26408
-1.30322
-1.33144
-1.34641
-1.34629
-1.33012
-1.29813
-1.25185
-1.19399
-1.12803
-1.05763
-0.986094
-0.915551
-0.847001
-0.780564
-0.71562
-0.651124
-0.586038
-0.519727
-0.452259
-0.384549
-0.318341
-0.256021
-0.200421
-0.154601
-0.121389
-0.103201
-0.102042
-0.119479
-0.156628
-0.214119
-0.292035
-0.389841
-0.506308
-0.639024
-0.784828
-0.940362
-1.10192
-1.26543
-1.4259
-1.57609
-1.70723
-1.8126
-1.88697
-1.92745
-1.93436
-1.91141
-1.86518
-1.80389
-1.73569
-1.66718
-1.60192
-1.54089
-1.48407
-1.43111
-1.38153
-1.33481
-1.29048
-1.2481
-1.20725
-1.16748
-1.12822
-1.08882
-1.04856
-1.0068
-0.963044
-0.917136
-0.86935
-0.82043
-0.77175
-0.725187
-0.682673
-0.64573
-0.615092
-0.590483
-0.570676
-0.553797
-0.537762
-0.520712
-0.501419
-0.479328
-0.454277
-0.426558
-0.396855
-0.366181
-0.336202
-0.308999
-0.286617
-0.270572
-0.261384
-0.258331
-0.259549
-0.262476
-0.264489
-0.263523
-0.258723
-0.249973
-0.237399
-0.221197
-0.201451
-0.177952
-0.150134
-0.117142
-0.0779873
-0.0317162
0.0224689
0.0851723
0.156292
0.232422
0.30414
0.359375
0.386728
0.378879
0.335213
0.262479
0.17305
0.0814083
0.00025177
-0.0656876
-0.118444
-0.160181
-0.192099
-0.215711
-0.232862
-0.245304
-0.254431
-0.261118
-0.265693
-0.268023
-0.267588
-0.261972
-0.217871
0
0.45416
1.28494
2.48912
3.83306
4.87444
5.12719
4.30047
2.47467
0.100502
-2.18819
-3.84278
-4.5993
-4.5157
-3.86265
-2.96132
-2.06215
-1.30248
-0.725315
-0.325362
-0.173588
-0.106933
-0.0563835
-0.0145939
0.0203442
0.0510933
0.0806328
0.111691
0.146163
0.18466
0.226524
0.269566
0.310274
0.34494
0.370637
0.385993
0.391563
0.389712
0.384078
0.378784
0.377621
0.383108
0.396302
0.417351
0.445787
0.480616
0.520585
0.564487
0.611439
0.661093
0.713785
0.77055
0.832997
0.903042
0.982514
1.07271
1.17399
1.28554
1.40527
1.53005
1.65604
1.77925
1.89598
2.00322
2.09881
2.18123
2.24915
2.30112
2.33571
2.35186
2.34807
2.32263
2.27414
2.20196
2.10672
1.9905
1.85677
1.71013
1.55624
1.40042
1.247
1.09948
0.960588
0.832076
0.714773
0.608737
0.513562
0.428676
0.353575
0.287993
0.232017
0.186085
0.150844
0.126866
0.11434
0.112785
0.120868
0.136354
0.156289
0.177146
0.195159
0.206984
0.210201
0.203672
0.187701
0.163944
0.135098
0.104422
0.0751876
0.0501065
0.0309009
0.0182425
0.011913
0.0109959
0.0140405
0.0192114
0.0244117
0.0275004
0.0266357
0.0204931
0.00843039
-0.0094388
-0.0322933
-0.0587728
-0.0872232
-0.115955
-0.143448
-0.168491
-0.190104
-0.207539
-0.220287
-0.228139
-0.231279
-0.230359
-0.22642
-0.220773
-0.214587
-0.208473
-0.202116
-0.194103
-0.182006
-0.16271
-0.13292
-0.0900378
-0.0324646
0.042002
0.137239
0.255008
0.38548
0.507648
0.599741
0.644649
0.634348
0.572021
0.471262
0.352562
0.238076
0.145599
0.0785309
0.0317553
0
-0.0243776
-0.0405374
-0.0517111
-0.0609563
-0.0707208
-0.0825713
-0.0970906
-0.11403
-0.133384
-0.15223
0.031185
0.532513
1.42297
2.61375
3.7999
4.51979
4.34246
3.09823
1.01272
-1.35572
-3.35554
-4.52444
-4.75473
-4.26571
-3.43095
-2.58313
-1.90113
-1.40899
-1.0454
-0.759702
-0.595526
-0.476278
-0.380319
-0.302193
-0.241025
-0.195834
-0.164595
-0.144683
-0.133337
-0.12802
-0.126563
-0.127365
-0.129239
-0.131253
-0.132589
-0.132426
-0.129882
-0.12401
-0.113848
-0.0985122
-0.0773592
-0.0501775
-0.0173531
0.0201595
0.0607552
0.102149
0.141987
0.17862
0.211719
0.242622
0.274278
0.310736
0.35628
0.414442
0.487014
0.573216
0.670685
0.776386
0.88701
0.999517
1.11168
1.22238
1.33153
1.43974
1.54784
1.6563
1.76476
1.87124
1.97132
2.05858
2.12646
2.16929
2.18354
2.16864
2.12715
2.06422
1.98635
1.90002
1.81054
1.72117
1.63331
1.54757
1.46451
1.38483
1.30942
1.23927
1.17526
1.11792
1.06726
1.02278
0.98367
0.949036
0.918204
0.890901
0.867295
0.847871
0.833202
0.823674
0.819258
0.819386
0.822987
0.828612
0.834672
0.839741
0.84281
0.843461
0.841923
0.839012
0.835963
0.834181
0.834958
0.83919
0.847217
0.858767
0.872796
0.887508
0.90064
0.909895
0.913319
0.909618
0.898322
0.879768
0.854904
0.82498
0.791227
0.754661
0.715967
0.675572
0.633814
0.591164
0.548413
0.506757
0.467759
0.433229
0.405114
0.385367
0.375604
0.376926
0.389798
0.4139
0.448357
0.491382
0.539755
0.589301
0.635167
0.671891
0.69466
0.700072
0.686477
0.654322
0.606218
0.546619
0.481099
0.415344
0.354155
0.300006
0.253094
0.213182
0.179622
0.151288
0.126827
0.104873
0.0841957
0.0638201
0.0431098
0.0218135
0
-0.027024
0.0411309
0.349197
0.987794
1.99746
3.25445
4.41562
4.99682
4.59025
3.11049
0.899891
-1.40068
-3.15002
-3.98932
-3.94227
-3.30443
-2.43323
-1.58448
-0.869733
-0.305166
0.108376
0.260229
0.351199
0.426247
0.490984
0.546315
0.593513
0.633907
0.668549
0.698102
0.722853
0.742863
0.758209
0.769281
0.777011
0.78297
0.789298
0.798471
0.812948
0.834759
0.865125
0.904245
0.951317
1.00474
1.06246
1.12234
1.18262
1.24225
1.30106
1.35975
1.41971
1.48263
1.55013
1.62342
1.70301
1.78865
1.87932
1.97351
2.06944
2.16535
2.2598
2.35173
2.44058
2.52617
2.60848
2.68734
2.76195
2.83029
2.88878
2.93303
2.95783
2.95804
2.92956
2.87026
2.78039
2.66265
2.52167
2.36338
2.19518
2.02343
1.85289
1.68737
1.53027
1.38444
1.25208
1.13464
1.03291
0.946651
0.874211
0.813132
0.760448
0.713044
0.667979
0.622734
0.575375
0.524673
0.470267
0.412412
0.352542
0.294026
0.241697
0.200765
0.175681
0.169044
0.18091
0.208768
0.248206
0.294031
0.341492
0.387336
0.430274
0.470074
0.506836
0.540774
0.571978
0.600184
0.62469
0.64448
0.658652
0.666629
0.668463
0.665016
0.657972
0.649653
0.642696
0.639669
0.642691
0.652929
0.670823
0.696376
0.729171
0.768258
0.812025
0.857953
0.902129
0.939059
0.963384
0.970901
0.959957
0.93255
0.894679
0.855549
0.825696
0.814487
0.826752
0.865429
0.93115
1.01224
1.08913
1.14311
1.16087
1.1371
1.07504
0.984737
0.87987
0.7738
0.675743
0.587813
0.508604
0.436631
0.371015
0.311258
0.257034
0.208131
0.164367
0.125351
0.0904305
0.0586586
0.0288574
0
-0.0445774
0.0931229
0.605477
1.57957
2.89956
4.20769
4.99261
4.8015
3.47917
1.29217
-1.15538
-3.18245
-4.3227
-4.48524
-3.91365
-3.00072
-2.09067
-1.37256
-0.887618
-0.599333
-0.488122
-0.439744
-0.40455
-0.377365
-0.358492
-0.34837
-0.346709
-0.352449
-0.363873
-0.378924
-0.395608
-0.412405
-0.428534
-0.443987
-0.459195
-0.474725
-0.490933
-0.507695
-0.524282
-0.539415
-0.551469
-0.558885
-0.560443
-0.555383
-0.543678
-0.52578
-0.502944
-0.476911
-0.449133
-0.420228
-0.389654
-0.35571
-0.315923
-0.267719
-0.209173
-0.139821
-0.0609291
0.025209
0.115638
0.207042
0.296214
0.380441
0.457718
0.526699
0.586888
0.638424
0.681802
0.717575
0.745998
0.766278
0.775453
0.769276
0.743159
0.692503
0.614278
0.50844
0.378593
0.231581
0.0760761
-0.0793098
-0.228578
-0.369236
-0.499457
-0.61861
-0.726792
-0.824343
-0.911493
-0.988229
-1.05435
-1.10959
-1.1539
-1.18755
-1.2112
-1.22591
-1.23312
-1.23443
-1.23178
-1.22751
-1.22406
-1.22364
-1.2279
-1.2376
-1.25249
-1.27131
-1.29208
-1.3125
-1.33041
-1.34432
-1.35352
-1.35798
-1.35806
-1.3544
-1.34768
-1.33844
-1.32703
-1.31358
-1.29819
-1.28101
-1.26237
-1.24279
-1.22288
-1.20325
-1.18423
-1.1658
-1.14749
-1.12851
-1.10791
-1.08478
-1.05846
-1.02866
-0.995417
-0.959047
-0.92
-0.878757
-0.835735
-0.791228
-0.745383
-0.698178
-0.649388
-0.598534
-0.544843
-0.487263
-0.424549
-0.355476
-0.279129
-0.195044
-0.103173
-0.00499916
0.095285
0.190637
0.272736
0.334001
0.368885
0.374936
0.353366
0.309026
0.249762
0.185145
0.124749
0.0756229
0.0400883
0.0169071
0.00491905
0.000827026
0
0.00216255
-0.001371
-0.0133327
-0.0347412
-0.0649544
-0.102018
-0.143249
-0.187606
-0.0866066
0.253041
0.922407
1.97399
3.30361
4.5787
5.29776
5.0022
3.53979
1.20555
-1.35451
-3.43345
-4.57095
-4.70128
-4.08713
-3.12298
-2.14539
-1.34079
-0.754844
-0.354892
-0.136211
-0.0923832
-0.0677399
-0.0487698
-0.0320969
-0.0147072
0.00648689
0.0341145
0.0696911
0.1134
0.164544
0.221756
0.283084
0.346221
0.408747
0.468277
0.522638
0.570235
0.610135
0.642195
0.667136
0.686514
0.702595
0.718127
0.736042
0.759118
0.789553
0.828923
0.878191
0.937628
1.00681
1.08472
1.16996
1.2609
1.35588
1.45341
1.5522
1.65117
1.74939
1.84595
1.93984
2.02977
2.11402
2.19038
2.25645
2.30991
2.3485
2.3702
2.37325
2.35624
2.31804
2.25782
2.17521
2.07092
1.94674
1.80502
1.64857
1.48071
1.30519
1.1259
0.94658
0.770745
0.601569
0.441913
0.294328
0.160992
0.0435955
-0.0566627
-0.139334
-0.205123
-0.255453
-0.292181
-0.31726
-0.332455
-0.339211
-0.338671
-0.331805
-0.319571
-0.302913
-0.282816
-0.260113
-0.235322
-0.208543
-0.179493
-0.147681
-0.112682
-0.0743904
-0.0332096
0.00995789
0.0539032
0.097282
0.138815
0.177423
0.21219
0.242417
0.267568
0.28717
0.30081
0.308196
0.309258
0.304246
0.293796
0.278925
0.260981
0.24144
0.221697
0.20291
0.185867
0.170909
0.157943
0.146541
0.136083
0.125918
0.115515
0.104567
0.0930771
0.0813969
0.0702358
0.0606434
0.053936
0.0515564
0.0548954
0.0650759
0.0827381
0.107881
0.139776
0.176905
0.216752
0.25535
0.287688
0.308927
0.315322
0.30515
0.279331
0.241447
0.197074
0.152506
0.113275
0.0821835
0.0600157
0.0457455
0.0370016
0.0310055
0.0254787
0.019235
0.012319
0.00572033
0.000834465
-0.00121021
0
0.01222
0.0354301
0.180739
0.566473
1.31378
2.44897
3.81035
5.02589
5.61508
5.1984
3.71197
1.48895
-0.860928
-2.71698
-3.70523
-3.80505
-3.26929
-2.43882
-1.57857
-0.818013
-0.188822
0.304181
0.575451
0.620402
0.635389
0.640473
0.638332
0.631584
0.622641
0.613156
0.60373
0.594145
0.583849
0.572368
0.559697
0.546545
0.534327
0.524896
0.520108
0.521347
0.529419
0.543937
0.563418
0.585923
0.60967
0.63357
0.657549
0.682565
0.710358
0.743049
0.782579
0.830274
0.886943
0.952978
1.02828
1.1123
1.20409
1.30248
1.40613
1.5137
1.62385
1.73536
1.84708
1.95786
2.0665
2.17161
2.27145
2.36393
2.44662
2.51686
2.57183
2.60851
2.62398
2.61555
2.58118
2.51983
2.43192
2.31954
2.18654
2.03817
1.88059
1.72012
1.56222
1.41119
1.27026
1.14157
1.02639
0.925366
0.838721
0.76639
0.707985
0.662734
0.629432
0.606447
0.591819
0.583457
0.579284
0.577505
0.576764
0.576214
0.575467
0.574444
0.573172
0.571578
0.569368
0.566018
0.560905
0.553491
0.543486
0.530894
0.515912
0.498708
0.479177
0.456797
0.430633
0.399572
0.362693
0.319665
0.271049
0.218387
0.164046
0.110841
0.0614641
0.0180187
-0.0181244
-0.0465876
-0.0680549
-0.0840046
-0.0963048
-0.106808
-0.117008
-0.127819
-0.139515
-0.151797
-0.16396
-0.175098
-0.184303
-0.190789
-0.193964
-0.193521
-0.189453
-0.181977
-0.171429
-0.158277
-0.142746
-0.124548
-0.102718
-0.0756776
-0.0415652
0.00306945
0.0631031
0.137607
0.214499
0.277442
0.311421
0.308336
0.270111
0.208007
0.138602
0.0782583
0.0368622
0.0127717
0.00153217
0
-0.00374084
-0.00216465
0.00296769
0.0104502
0.0196984
0.0306664
0.0437937
0.0609838
0.0980538
0.322601
0.752767
1.4466
2.41259
3.52017
4.45896
4.81145
4.24431
2.71575
0.555344
-1.65638
-3.34496
-4.17917
-4.15754
-3.52725
-2.62079
-1.71799
-0.985947
-0.484288
-0.202609
-0.130134
-0.0984739
-0.0745543
-0.0546554
-0.0375743
-0.0220426
-0.00666094
0.00988541
0.0285986
0.0499795
0.0739356
0.0998142
0.126567
0.153006
0.17807
0.201052
0.221708
0.240244
0.257195
0.273244
0.289036
0.305057
0.32159
0.338766
0.356676
0.375522
0.395737
0.418062
0.443554
0.473509
0.509353
0.552498
0.604193
0.665376
0.736544
0.817615
0.907806
1.00556
1.10859
1.214
1.31857
1.41911
1.51275
1.59724
1.67087
1.73216
1.77959
1.8118
1.82786
1.82658
1.80664
1.76694
1.70698
1.62721
1.52913
1.41532
1.28929
1.15531
1.01739
0.87886
0.742407
0.610066
0.483241
0.3628
0.249235
0.142838
0.0438387
-0.047534
-0.131052
-0.20653
-0.273836
-0.333017
-0.384358
-0.42833
-0.465557
-0.496773
-0.522749
-0.544231
-0.561874
-0.57622
-0.587724
-0.596798
-0.603873
-0.609502
-0.614408
-0.619495
-0.625775
-0.634231
-0.64565
-0.660459
-0.678604
-0.699497
-0.722051
-0.744816
-0.766194
-0.784713
-0.799315
-0.809563
-0.815702
-0.818593
-0.819687
-0.820703
-0.823268
-0.828583
-0.837174
-0.848767
-0.862302
-0.876076
-0.887959
-0.895694
-0.897187
-0.890673
-0.87488
-0.849133
-0.813409
-0.768278
-0.714768
-0.65421
-0.588067
-0.517794
-0.444751
-0.37016
-0.295104
-0.220522
-0.147209
-0.0757809
-0.0066658
0.0598667
0.123574
0.183935
0.239636
0.288
0.325401
0.347921
0.351988
0.335722
0.300032
0.248958
0.189079
0.128132
0.0733482
0.0289532
-0.00445786
-0.0270275
-0.0393559
-0.0429451
-0.0399181
-0.0326653
-0.0234783
-0.0144234
-0.00706291
-0.00226822
-0.000118256
0
0.00282135
0.0129307
0.238043
0.740652
1.58935
2.76465
4.0765
5.14851
5.52448
4.88021
3.22627
0.964325
-1.25942
-2.83257
-3.42836
-3.0974
-2.17214
-1.06819
-0.105929
0.568099
0.932496
1.01133
1.07741
1.13897
1.19591
1.24842
1.29681
1.34141
1.38244
1.41998
1.45396
1.48424
1.51064
1.53303
1.55134
1.56558
1.57582
1.58231
1.58555
1.5864
1.58611
1.58649
1.58974
1.59822
1.61394
1.63827
1.67163
1.7135
1.76265
1.81758
1.87701
1.94015
2.00704
2.07847
2.15571
2.24009
2.3327
2.43404
2.54384
2.66101
2.78366
2.9093
3.03505
3.15791
3.27503
3.3839
3.48243
3.56911
3.64283
3.7027
3.74781
3.77673
3.78737
3.77761
3.74552
3.68977
3.61031
3.50888
3.38924
3.25697
3.11875
2.98146
2.85085
2.73099
2.62423
2.53109
2.45062
2.38094
2.31982
2.26522
2.21561
2.17011
2.1285
2.09104
2.05819
2.03036
2.00771
1.98982
1.97568
1.96393
1.95318
1.94229
1.93055
1.91777
1.90422
1.8905
1.87742
1.86581
1.8565
1.85022
1.84749
1.84848
1.85295
1.86014
1.86892
1.87792
1.88577
1.89127
1.89347
1.89173
1.88562
1.87485
1.85922
1.83849
1.81244
1.78088
1.74364
1.70064
1.65185
1.59733
1.5373
1.47222
1.40297
1.33094
1.2581
1.18691
1.12011
1.06038
1.00993
0.970143
0.941457
0.923342
0.913856
0.909427
0.906132
0.900569
0.890624
0.875984
0.858237
0.840559
0.827035
0.821785
0.827428
0.845791
0.878319
0.924757
0.980711
1.03583
1.07757
1.09449
1.07897
1.02924
0.95004
0.851453
0.746019
0.645015
0.553845
0.471339
0.394969
0.322747
0.252808
0.184309
0.118857
0.0614691
0.0194458
0
-0.00333786
0.0212666
0.0701571
0.13634
0.231603
0.377965
0.747725
1.4921
2.62771
3.94912
5.03466
5.386
4.66091
2.88063
0.473595
-1.89432
-3.61525
-4.38718
-4.27639
-3.59094
-2.67982
-1.79122
-1.04764
-0.495247
-0.152514
-0.0528603
-0.0098074
0.0345634
0.0819233
0.132918
0.187782
0.245762
0.305233
0.363859
0.418709
0.466483
0.504255
0.530129
0.543419
0.544887
0.536795
0.522683
0.506888
0.493846
0.487373
0.489771
0.501508
0.522058
0.55057
0.586037
0.627543
0.674545
0.726991
0.785239
0.849845
0.921266
0.999598
1.08442
1.17478
1.26935
1.3667
1.46551
1.56482
1.66409
1.76312
1.86191
1.96038
2.0582
2.15452
2.24785
2.33577
2.41467
2.48016
2.52916
2.55991
2.57289
2.57135
2.5613
2.55071
2.54802
2.56028
2.59153
2.63992
2.70111
2.77105
2.84583
2.92157
2.99482
3.06277
3.12314
3.17414
3.21459
3.2439
3.26204
3.26953
3.26746
3.25738
3.24104
3.22002
3.19546
3.16781
3.13708
3.10303
3.06563
3.02542
2.9837
2.94237
2.90352
2.86887
2.83916
2.81425
2.79336
2.77528
2.75877
2.74292
2.72732
2.71196
2.69703
2.6825
2.66794
2.65229
2.63392
2.61102
2.58191
2.54553
2.50175
2.45143
2.39635
2.33883
2.28129
2.22573
2.17332
2.12441
2.07866
2.03523
1.99313
1.95157
1.91023
1.86937
1.82981
1.79284
1.75991
1.73245
1.71165
1.69823
1.69238
1.69372
1.70141
1.7143
1.73114
1.75063
1.77147
1.79234
1.81169
1.82779
1.8387
1.84249
1.83736
1.8219
1.79516
1.7567
1.70664
1.64553
1.5746
1.49529
1.40912
1.31778
1.22286
1.12568
1.02705
0.927126
0.825458
0.721115
0.612981
0.500095
0.381996
0.25896
0.131819
0
-0.0689049
0.164268
0.807196
1.8701
3.16308
4.28214
4.72936
4.14057
2.50117
0.203787
-2.11059
-3.8433
-4.68726
-4.69592
-4.16343
-3.42479
-2.70758
-2.10111
-1.61209
-1.23581
-1.03576
-0.999084
-0.988152
-0.985011
-0.985674
-0.988895
-0.994218
-1.00181
-1.01236
-1.02672
-1.04528
-1.06761
-1.0923
-1.11725
-1.14018
-1.15937
-1.17436
-1.1858
-1.19532
-1.2054
-1.2186
-1.23698
-1.26163
-1.29259
-1.32893
-1.36917
-1.41162
-1.4546
-1.49667
-1.53643
-1.57224
-1.60211
-1.62367
-1.63433
-1.63158
-1.6134
-1.57861
-1.52719
-1.46039
-1.38077
-1.29203
-1.19857
-1.10561
-1.0193
-0.945496
-0.889297
-0.854726
-0.844614
-0.860639
-0.9035
-0.973128
-1.06884
-1.18938
-1.33204
-1.49369
-1.67114
-1.86109
-2.06019
-2.26534
-2.47401
-2.68416
164
334
508
691
875
1054
1236
1418
1598
1774
1948
2122
2292
2461
2630
2803
2975
3146
3322
3501
3675
0
0
0
0
0
0
0
0
0
0
0
0
0
0
0
0
0
0
0
0
0
0
0
0
0
0
0
0
0
0
0
0
0
0
0
0
0
0
0
0
0
0
0
0
0
0
0
0
0
0
0
0
0
0
0
0
0
0
0
0
0
0
0
0
0
0
0
0
0
0
0
0
0
0
0
0
0
0
0
0
0
0
0
0
0
0
0
0
0
0
0
0
0
0
0
0
0
0
0
0
0
0
0
0
0
0
0
0
0
0
0
0
0
0
0
0
0
0
0
0
0
0
0
0
0
0
0
0
0
0
0
0
0
0
0
0
0
0
0
0
0
0
0
0
0
0
0
0
0
0
0
0
0
0
0
0
0
0
0
0
0
0
0
0
0
0
0
0
0
0
0
0
0
0
0
0
0
0
0
0
0
0
0
0
0
0
0
0
0
0
0
0
0
0
0
0
0
0
0
0
0
0
0
0
0
0
0
0
0
0
0
0
0
0
0
0
0
0
0
0
0
0
0
0
0
0
0
0
0
0
0
0
0
0
0
0
0
0
0
0
0
0
0
0
0
0
0
0
0
0
0
0
0
0
0
0
0
0
0
0
0
0
0
0
0
0
0
0
0
0
0
0
0
0
0
0
0
0
0
0
0
0
0
0
0
0
0
0
0
0
0
0
0
0
0
0
0
0
0
0
0
0
0
0
0
0
0
0
0
0
0
0
0
0
0
0
0
0
0
0
0
0
0
0
0
0
0
0
0
0
0
0
0
0
0
0
0
0
0
0
0
0
0
0
0
0
0
0
0
0
0
0
0
0
0
0
0
0
0
0
0
0
0
0
0
0
0
0
0
0
0
0
0
0
0
0
0
0
0
0
0
0
0
0
0
0
0
0
0
0
0
0
0
0
0
0
0
0
0
0
0
0
0
0
0
0
0
0
0
0
0
0
0
0
0
0
0
0
0
0
0
0
0
0
0
0
0
0
0
0
0
0
0
0
0
0
0
0
0
0
0
0
0
0
0
0
0
0
0
0
0
0
0
0
0
0
0
0
0
0
0
0
0
0
0
0
0
0
0
0
0
0
0
0
0
0
0
0
0
0
0
0
0
0
0
0
0
0
0
0
0
0
0
0
0
0
0
0
0
0
0
0
0
0
0
0
0
0
0
0
0
0
0
0
0
0
0
0
0
0
0
0
0
0
0
0
0
0
0
0
0
0
0
0
0
0
0
0
0
0
0
0
0
0
0
0
0
0
0
0
0
0
0
0
0
0
0
0
0
0
0
0
0
0
0
0
0
0
0
0
0
0
0
0
0
0
0
0
0
0
0
0
0
0
0
0
0
0
0
0
0
0
0
0
0
0
0
0
0
0
0
0
0
0
0
0
0
0
0
0
0
0
0
0
0
0
0
0
0
0
0
0
0
0
0
0
0
0
0
0
0
0
0
0
0
0
0
0
0
0
0
0
0
0
0
0
0
0
0
0
0
0
0
0
0
0
0
0
0
0
0
0
0
0
0
0
0
0
0
0
0
0
0
0
0
0
0
0
0
0
0
0
0
0
0
0
0
0
0
0
0
0
0
0
0
0
0
0
0
0
0
0
0
0
0
0
0
0
0
0
0
0
0
0
0
0
0
0
0
0
0
0
0
0
0
0
0
0
0
0
0
0
0
0
0
0
0
0
0
0
0
0
0
0
0
0
0
0
0
0
0
0
0
0
0
0
0
0
0
0
0
0
0
0
0
0
0
0
0
0
0
0
0
0
0
0
0
0
0
0
0
0
0
0
0
0
0
0
0
0
0
0
0
0
0
0
0
0
0
0
0
0
0
0
0
0
0
0
0
0
0
0
0
0
0
0
0
0
0
0
0
0
0
0
0
0
0
0
0
0
0
0
0
0
0
0
0
0
0
0
0
0
0
0
0
0
0
0
0
0
0
0
0
0
0
0
0
0
0
0
0
0
0
0
0
0
0
0
0
0
0
0
0
0
0
0
0
0
0
0
0
0
0
0
0
0
0
0
0
0
0
0
0
0
0
0
0
0
0
0
0
0
0
0
0
0
0
0
0
0
0
0
0
0
0
0
0
0
0
0
0
0
0
0
0
0
0
0
0
0
0
0
0
0
0
0
0
0
0
0
0
0
0
0
0
0
0
0
0
0
0
0
0
0
0
0
0
0
0
0
0
0
0
0
0
0
0
0
0
0
0
0
0
0
0
0
0
0
0
0
0
0
0
0
0
0
0
0
0
0
0
0
0
0
0
0
0
0
0
0
0
0
0
0
0
0
0
0
0
0
0
0
0
0
0
0
0
0
0
0
0
0
0
0
0
0
0
0
0
0
0
0
0
0
0
0
0
0
0
0
0
0
0
0
0
0
0
0
0
0
0
0
0
0
0
0
0
0
0
0
0
0
0
0
0
0
0
0
0
0
0
0
0
0
0
0
0
0
0
0
0
0
0
0
0
0
0
0
0
0
0
0
0
0
0
0
0
0
0
0
0
0
0
0
0
0
0
0
0
0
0
0
0
0
0
0
0
0
0
0
0
0
0
0
0
0
0
0
0
0
0
0
0
0
0
0
0
0
0
0
0
0
0
0
0
0
0
0
0
0
0
0
0
0
0
0
0
0
0
0
0
0
0
0
0
0
0
0
0
0
0
0
0
0
0
0
0
0
0
0
0
0
0
0
0
0
0
0
0
0
0
0
0
0
0
0
0
0
0
0
0
0
0
0
0
0
0
0
0
0
0
0
0
0
0
0
0
0
0
0
0
0
0
0
0
0
0
0
0
0
0
0
0
0
0
0
0
0
0
0
0
0
0
0
0
0
0
0
0
0
0
0
0
0
0
0
0
0
0
0
0
0
0
0
0
0
0
0
0
0
0
0
0
0
0
0
0
0
0
0
0
0
0
0
0
0
0
0
0
0
0
0
0
0
0
0
0
0
0
0
0
0
0
0
0
0
0
0
0
0
0
0
0
0
0
0
0
0
0
0
0
0
0
0
0
0
0
0
0
0
0
0
0
0
0
0
0
0
0
0
0
0
0
0
0
0
0
0
0
0
0
0
0
0
0
0
0
0
0
0
0
0
0
0
0
0
0
0
0
0
0
0
0
0
0
0
0
0
0
0
0
0
0
0
0
0
0
0
0
0
0
0
0
0
0
0
0
0
0
0
0
0
0
0
0
0
0
0
0
0
0
0
0
0
0
0
0
0
0
0
0
0
0
0
0
0
0
0
0
0
0
0
0
0
0
0
0
0
0
0
0
0
0
0
0
0
0
0
0
0
0
0
0
0
0
0
0
0
0
0
0
0
0
0
0
0
0
0
0
0
0
0
0
0
0
0
0
0
0
0
0
0
0
0
0
0
0
0
0
0
0
0
0
0
0
0
0
0
0
0
0
0
0
0
0
0
0
0
0
0
0
0
0
0
0
0
0
0
0
0
0
0
0
0
0
0
0
0
0
0
0
0
0
0
0
0
0
0
0
0
0
0
0
0
0
0
0
0
0
0
0
0
0
0
0
0
0
0
0
0
0
0
0
0
0
0
0
0
0
0
0
0
0
0
0
0
0
0
0
0
0
0
0
0
0
0
0
0
0
0
0
0
0
0
0
0
0
0
0
0
0
0
0
0
0
0
0
0
0
0
0
0
0
0
0
0
0
0
0
0
0
0
0
0
0
0
0
0
0
0
0
0
0
0
0
0
0
0
0
0
0
0
0
0
0
0
0
0
0
0
0
0
0
0
0
0
0
0
0
0
0
0
0
0
0
0
0
0
0
0
0
0
0
0
0
0
0
0
0
0
0
0
0
0
0
0
0
0
0
0
0
0
0
0
0
0
0
0
0
0
0
0
0
0
0
0
0
0
0
0
0
0
0
0
0
0
0
0
0
0
0
0
0
0
0
0
0
0
0
0
0
0
0
0
0
0
0
0
0
0
0
0
0
0
0
0
0
0
0
0
0
0
0
0
0
0
0
0
0
0
0
0
0
0
0
0
0
0
0
0
0
0
0
0
0
0
0
0
0
0
0
0
0
0
0
0
0
0
0
0
0
0
0
0
0
0
0
0
0
0
0
0
0
0
0
0
0
0
0
0
0
0
0
0
0
0
0
0
0
0
0
0
0
0
0
0
0
0
0
0
0
0
0
0
0
0
0
0
0
0
0
0
0
0
0
0
0
0
0
0
0
0
0
0
0
0
0
0
0
0
0
0
0
0
0
0
0
0
0
0
0
0
0
0
0
0
0
0
0
0
0
0
0
0
0
0
0
0
0
0
0
0
0
0
0
0
0
0
0
0
0
0
0
0
0
0
0
0
0
0
0
0
0
0
0
0
0
0
0
0
0
0
0
0
0
0
0
0
0
0
0
0
0
0
0
0
0
0
0
0
0
0
0
0
0
0
0
0
0
0
0
0
0
0
0
0
0
0
0
0
0
0
0
0
0
0
0
0
0
0
0
0
0
0
0
0
0
0
0
0
0
0
0
0
0
0
0
0
0
0
0
0
0
0
0
0
0
0
0
0
0
0
0
0
0
0
0
0
0
0
0
0
0
0
0
0
0
0
0
0
0
0
0
0
0
0
0
0
0
0
0
0
0
0
0
0
0
0
0
0
0
0
0
0
0
0
0
0
0
0
0
0
0
0
0
0
0
0
0
0
0
0
0
0
0
0
0
0
0
0
0
0
0
0
0
0
0
0
0
0
0
0
0
0
0
0
0
0
0
0
0
0
0
0
0
0
0
0
0
0
0
0
0
0
0
0
0
0
0
0
0
0
0
0
0
0
0
0
0
0
0
0
0
0
0
0
0
0
0
0
0
0
0
0
0
0
0
0
0
0
0
0
0
0
0
0
0
0
0
0
0
0
0
0
0
0
0
0
0
0
0
0
0
0
0
0
0
0
0
0
0
0
0
0
0
0
0
0
0
0
0
0
0
0
0
0
0
0
0
0
0
0
0
0
0
0
0
0
0
0
0
0
0
0
0
0
0
0
0
0
0
0
0
0
0
0
0
0
0
0
0
0
0
0
0
0
0
0
0
0
0
0
0
0
0
0
0
0
0
0
0
0
0
0
0
0
0
0
0
0
0
0
0
0
0
0
0
0
0
0
0
0
0
0
0
0
0
0
0
0
0
0
0
0
0
0
0
0
0
0
0
0
0
0
0
0
0
0
0
0
0
0
0
0
0
0
0
0
0
0
0
0
0
0
0
0
0
0
0
0
0
0
0
0
0
0
0
0
0
0
0
0
0
0
0
0
0
0
0
0
0
0
0
0
0
0
0
0
0
0
0
0
0
0
0
0
0
0
0
0
0
0
0
0
0
0
0
0
0
0
0
0
0
0
0
0
0
0
0
0
0
0
0
0
0
0
0
0
0
0
0
0
0
0
0
0
0
0
0
0
0
0
0
0
0
0
0
0
0
0
0
0
0
0
0
0
0
0
0
0
0
0
0
0
0
0
0
0
0
0
0
0
0
0
0
0
0
0
0
0
0
0
0
0
0
0
0
0
0
0
0
0
0
0
0
0
0
0
0
0
0
0
0
0
0
0
0
0
0
0
0
0
0
0
0
0
0
0
0
0
0
0
0
0
0
0
0
0
0
0
0
0
0
0
0
0
0
0
0
0
0
0
0
0
0
0
0
0
0
0
0
0
0
0
0
0
0
0
0
0
0
0
0
0
0
0
0
0
0
0
0
0
0
0
0
0
0
0
0
0
0
0
0
0
0
0
0
0
0
0
0
0
0
0
0
0
0
0
0
0
0
0
0
0
0
0
0
0
0
0
0
0
0
0
0
0
0
0
0
0
0
0
0
0
0
0
0
0
0
0
0
0
0
0
0
0
0
0
0
0
0
0
0
0
0
0
0
0
0
0
0
0
0
0
0
0
0
0
0
0
0
0
0
0
0
0
0
0
0
0
0
0
0
0
0
0
0
0
0
0
0
0
0
0
0
0
0
0
0
0
0
0
0
0
0
0
0
0
0
0
0
0
0
0
0
0
0
0
0
0
0
0
0
0
0
0
0
0
0
0
0
0
0
0
0
0
0
0
0
0
0
0
0
0
0
0
0
0
0
0
0
0
0
0
0
0
0
0
0
0
0
0
0
0
0
0
0
0
0
0
0
0
0
0
0
0
0
0
0
0
0
0
0
0
0
0
0
0
0
0
0
0
0
0
0
0
0
0
0
0
0
0
0
0
0
0
0
0
0
0
0
0
0
0
0
0
0
0
0
0
0
0
0
0
0
0
0
0
0
0
0
0
0
0
0
0
0
0
0
0
0
0
0
0
0
0
0
0
0
0
0
0
0
0
0
0
0
0
0
0
0
0
0
0
0
0
0
0
0
0
0
0
0
0
0
0
0
0
0
0
0
0
0
0
0
0
0
0
0
0
0
0
0
0
0
0
0
0
0
0
0
0
0
0
0
0
0
0
0
0
0
0
0
0
0
0
0
0
0
0
0
0
0
0
0
0
0
0
0
0
0
0
0
0
0
0
0
0
0
0
0
0
0
0
0
0
0
0
0
0
0
0
0
0
0
0
0
0
0
0
0
0
0
0
0
0
0
0
0
0
0
0
0
0
0
0
0
0
0
0
0
0
0
0
0
0
0
0
0
0
0
0
0
0
0
0
0
0
0
0
0
0
0
0
0
0
0
0
0
0
0
0
0
0
0
0
0
0
0
0
0
0
0
0
0
0
0
0
0
0
0
0
0
0
0
0
0
0
0
0
0
0
0
0
0
0
0
0
0
0
0
0
0
0
0
0
0
0
0
0
0
0
0
0
0
0
0
0
0
0
0
0
0
0
0
0
0
0
0
0
0
0
0
0
0
0
0
0
0
0
0
0
0
0
0
0
0
0
0
0
0
0
0
0
0
0
0
0
0
0
0
0
0
0
0
0
0
0
0
0
0
0
0
0
0
0
0
0
0
0
0
0
0
0
0
0
0
0
0
0
0
0
0
0
0
0
0
0
0
0
0
0
0
0
0
0
0
0
0
0
0
0
0
0
0
0
0
0
0
0
0
0
0
0
0
0
0
0
0
0
0
0
0
0
0
0
0
0
0
0
0
0
0
0
0
0
0
0
0
0
0
0
0
0
0
0
0
0
0
0
0
0
0
0
0
0
0
0
0
0
0
0
0
0
0
0
0
0
0
0
0
0
0
0
0
0
0
0
0
0
0
0
0
0
0
0
0
0
0
0
0
0
0
0
0
0
0
0
0
0
0
0
0
0
0
0
0
0
0
0
0
0
0
0
0
0
0
0
0
0
0
0
0
0
0
0
0
0
0
0
0
0
0
0
0
0
0
0
0
0
0
0
0
0
0
0
0
0
0
0
0
0
0
0
0
0
0
0
0
0
0
0
0
0
0
0
0
0
0
0
0
0
0
0
0
0
0
0
0
0
0
0
0
0
0
0
0
0
0
0
0
0
0
0
0
0
0
0
0
0
0
0
0
0
0
0
0
0
0
0
0
0
0
0
0
0
0
0
0
0
0
0
0
0
0
0
0
0
0
0
0
0
0
0
0
0
0
0
0
0
0
0
0
0
0
0
0
0
0
0
0
0
0
0
0
0
0
0
0
0
0
0
0
0
0
0
0
0
0
0
0
0
0
0
0
0
0
0
0
0
0
0
0
0
0
0
0
0
0
0
0
0
0
0
0
0
0
0
0
0
0
0
0
0
0
0
0
0
0
0
0
0
0
0
0
0
0
0
0
0
0
0
0
0
0
0
0
0
0
0
0
0
0
0
0
0
0
0
0
0
0
0
0
0
0
0
0
0
0
0
0
0
0
0
0
0
0
0
0
0
0
0
0
0
0
0
0
0
0
0
0
0
0
0
0
0
0
0
0
0
0
0
0
0
0
0
0
0
0
0
0
0
0
0
0
0
0
0
0
0
0
0
0
0
0
0
0
0
0
0
0
0
0
0
0
0
0
0
0
0
0
0
0
0
0
0
0
0
0
0
0
0
0
0
0
0
0
0
0
0
0
0
0
0
0
0
0
0
0
0
0
0
0
0
0
0
0
0
0
0
0
0
0
0
0
0
0
0
0
0
0
0
0
0
0
0
0
0
0
0
0
0
0
0
0
0
0
0
0
0
0
0
0
0
0
0
0
0
0
0
0
0
0
0
0
0
0
0
0
0
0
0
0
0
0
0
0
0
0
0
0
0
0
0
0
0
0
0
0
0
0
0
0
0
0
0
0
0
0
0
0
0
0
0
0
0
0
0
0
0
0
0
0
0
0
0
0
0
0
0
0
0
0
0
0
0
0
0
0
0
0
0
0
0
0
0
0
0
0
0
0
0
0
0
0
0
0
0
0
0
0
0
0
0
0
0
0
0
0
0
0
0
0
0
0
0
0
0
0
0
0
0
0
0
0
0
0
0
0
0
0
0
0
0
0
0
0
0
0
0
0
0
