0.593423
0.592693
0.593498
0.596029
0.600478
0.606913
0.615139
0.624594
0.634169
0.642246
0.64707
0.64712
0.641447
0.629844
0.612772
0.591087
0.565676
0.537194
0.506207
0.473171
0.438897
0.405081
0.375059
0.353157
0.343751
0.350039
0.373026
0.411135
0.460634
0.516727
0.574901
0.632148
0.68754
0.74116
0.793855
0.84679
0.901008
0.95708
1.01504
1.07437
1.13403
1.19195
1.24415
1.28544
1.31016
1.31302
1.29062
1.24262
1.17232
1.08605
0.991778
0.897342
0.808065
0.725895
0.65199
0.587276
0.531923
0.485484
0.44717
0.415378
0.387113
0.358983
0.327773
0.29109
0.24793
0.198972
0.146412
0.0940025
0.0472713
0.0113794
-0.0103364
-0.0173067
-0.0120965
0
0.790942
2.27757
4.49207
7.25887
10.1839
12.7158
14.2916
14.5336
13.4127
11.2737
8.68802
6.21079
4.18731
2.70906
1.70461
1.06962
0.947575
0.829025
0.716238
0.610951
0.51434
0.427437
0.351735
0.288577
0.238708
0.202682
0.180486
0.171232
0.173096
0.18361
0.200204
0.220816
0.244189
0.270016
0.298777
0.331157
0.367603
0.407852
0.450954
0.495435
0.539346
0.580589
0.617443
0.648892
0.674781
0.69574
0.712862
0.72721
0.739043
0.747119
0.748457
0.738851
0.714161
0.672077
0.613451
0.542553
0.466047
0.391017
0.322846
0.263445
0.212079
0.166098
0.122542
0.0796417
0.0376302
-0.00130775
-0.0337436
-0.0561478
-0.0677781
-0.0679281
-0.0558462
-0.0317528
0.00315196
0.0468563
0.0969154
0.150505
0.205206
0.259444
0.31269
0.365302
0.418054
0.471674
0.524908
0.572743
0.608025
0.624422
0.619419
0.595724
0.560404
0.522277
0.488983
0.464068
0.446415
0.434984
0.429438
0.429323
0.434206
0.443672
0.457203
0.473963
0.493145
0.513483
0.533087
0.550094
0.563109
0.571521
0.575544
0.575933
0.573435
0.568223
0.559558
0.545908
0.525404
0.496607
0.459233
0.414615
0.36577
0.31704
0.273667
0.240636
0.221732
0.218853
0.23177
0.258442
0.295783
0.340618
0.390438
0.443324
0.498093
0.55404
0.609472
0.66129
0.705765
0.739793
0.762243
0.774759
0.781589
0.788519
0.801366
0.824302
0.857596
0.900515
0.95288
1.01473
1.08586
1.16307
1.23714
1.29543
1.32475
1.31479
1.26138
1.16809
1.04535
0.907373
0.768265
0.637367
0.516637
0.40592
0.306206
0.218708
0.144408
0.083974
0.0376731
0.00517354
-0.0144532
-0.0224668
-0.0209831
-0.0139164
-0.00582049
-0.00045619
0
-0.00325837
-0.00995717
-0.0173155
-0.0133833
0.692136
2.1768
4.45209
7.26668
10.1361
12.4701
13.755
13.7245
12.4451
10.2791
7.74228
5.32408
3.35408
1.96218
1.12104
0.731026
0.708018
0.68077
0.644625
0.596081
0.529619
0.437873
0.32545
0.212112
0.120234
0.0676582
0.0623981
0.101043
0.171088
0.255906
0.34025
0.415248
0.481176
0.540808
0.596261
0.649156
0.700872
0.752417
0.804221
0.855995
0.906644
0.95467
0.998614
1.03738
1.07027
1.09653
1.11296
1.11686
1.1044
1.07183
1.01736
0.942779
0.853843
0.759314
0.668756
0.589912
0.523138
0.467873
0.423497
0.388155
0.359177
0.333842
0.309886
0.285804
0.260927
0.235276
0.209292
0.183538
0.158493
0.134502
0.111906
0.0912817
0.0738692
0.0617831
0.0573861
0.0629555
0.0799164
0.108167
0.145778
0.189208
0.234008
0.275777
0.311277
0.338549
0.357118
0.367716
0.371803
0.371141
0.367536
0.36226
0.356317
0.350576
0.34587
0.343067
0.343106
0.346964
0.355688
0.370275
0.391616
0.420603
0.457933
0.503061
0.552367
0.598479
0.632487
0.646193
0.634377
0.596634
0.538156
0.469024
0.402004
0.349434
0.317951
0.306002
0.312769
0.335682
0.370465
0.411977
0.454913
0.494781
0.528028
0.552437
0.567353
0.57376
0.574131
0.572006
0.571335
0.575694
0.587134
0.605862
0.631296
0.662034
0.695357
0.728343
0.758585
0.784752
0.806841
0.826087
0.844549
0.864503
0.887818
0.915197
0.946384
0.980324
1.01465
1.04603
1.07075
1.08522
1.0864
1.07223
1.04189
0.995911
0.93616
0.865578
0.787906
0.70672
0.625175
0.545821
0.470564
0.401057
0.338755
0.284972
0.240807
0.207479
0.185904
0.1756
0.173919
0.176598
0.178916
0.17661
0.166629
0.14755
0.119548
0.0840624
0.0433235
0
0.408123
1.38465
3.06778
5.41633
8.14001
10.7221
12.5573
13.171
12.4196
10.5603
8.13839
5.74897
3.80848
2.45601
1.60807
1.09539
0.921948
0.75981
0.607637
0.469186
0.347313
0.243674
0.158795
0.0923344
0.0430356
0.00904584
-0.0116649
-0.0209836
-0.020426
-0.0110541
0.00644898
0.0315779
0.0637495
0.102009
0.145025
0.191091
0.238228
0.284389
0.327696
0.36666
0.400283
0.428037
0.449752
0.465437
0.475051
0.478375
0.475337
0.466009
0.450846
0.43089
0.407812
0.383729
0.360791
0.3408
0.324707
0.311539
0.298539
0.281802
0.257177
0.221255
0.17217
0.110054
0.0370492
-0.0430442
-0.125278
-0.204724
-0.276412
-0.335334
-0.377564
-0.40103
-0.405059
-0.390358
-0.358958
-0.314066
-0.259774
-0.200628
-0.141117
-0.084962
-0.0343022
0.00951657
0.0454937
0.0732659
0.0929997
0.10525
0.110818
0.110661
0.105874
0.0977795
0.0880572
0.0788138
0.0729967
0.0737916
0.0840642
0.105579
0.141544
0.189438
0.241371
0.287828
0.320506
0.334677
0.330202
0.311013
0.283516
0.25468
0.229814
0.211118
0.199356
0.194812
0.197558
0.205986
0.216323
0.224585
0.227649
0.224106
0.214527
0.201011
0.186139
0.171818
0.158473
0.145196
0.130471
0.11303
0.092633
0.070417
0.048668
0.0301606
0.0173565
0.0110471
0.0111729
0.0176484
0.0300157
0.047683
0.0700682
0.0966561
0.126945
0.160396
0.196419
0.234529
0.274556
0.316773
0.361981
0.411419
0.466485
0.528319
0.598126
0.677103
0.762209
0.845137
0.916129
0.966545
0.99104
0.988528
0.961717
0.915579
0.855566
0.786816
0.713609
0.638516
0.563324
0.48966
0.419153
0.353316
0.293381
0.240223
0.19399
0.153412
0.116477
0.0809317
0.0448149
0.00678797
-0.0336878
-0.0765811
-0.121705
-0.169114
-0.219387
-0.27479
-0.336678
-0.405523
-0.480334
-0.558616
0
1.39722
3.71282
6.73734
9.97636
12.7646
14.4655
14.6904
13.4416
11.1097
8.31922
5.69446
3.65346
2.31934
1.56569
1.15325
0.921015
0.69628
0.487486
0.30213
0.145275
0.0199121
-0.0731643
-0.135201
-0.169091
-0.178842
-0.169034
-0.144388
-0.109804
-0.0697882
-0.0279714
0.0127621
0.0501845
0.0828628
0.110202
0.132466
0.15071
0.166563
0.181911
0.198532
0.217759
0.240304
0.266171
0.29474
0.325008
0.355899
0.386475
0.416072
0.44429
0.470836
0.495259
0.516598
0.532975
0.541423
0.538572
0.520901
0.485518
0.431001
0.358083
0.265829
0.15933
0.053221
-0.0366322
-0.0971522
-0.12122
-0.109177
-0.0682716
-0.0102692
0.0519736
0.107892
0.15381
0.190905
0.220966
0.24518
0.264803
0.280837
0.293847
0.303867
0.310619
0.313837
0.313665
0.310921
0.307141
0.304376
0.304784
0.310164
0.321551
0.338836
0.361041
0.386927
0.415083
0.444129
0.472857
0.500271
0.525479
0.547455
0.564761
0.575872
0.579553
0.575
0.562184
0.541998
0.5161
0.486471
0.45488
0.422501
0.389907
0.357419
0.325692
0.296229
0.27161
0.255324
0.251162
0.262237
0.292152
0.349135
0.430135
0.517943
0.59277
0.638416
0.646803
0.619229
0.564391
0.494757
0.423294
0.360233
0.309603
0.273249
0.253438
0.252245
0.270337
0.306758
0.358931
0.42295
0.494131
0.567703
0.63963
0.706987
0.768058
0.822221
0.869624
0.910774
0.946185
0.976279
1.00109
1.02043
1.03393
1.04114
1.04145
1.03428
1.01909
0.995528
0.963524
0.92346
0.876196
0.823034
0.765608
0.705768
0.64539
0.586262
0.530107
0.478543
0.433008
0.394624
0.364022
0.341251
0.325842
0.31629
0.309186
0.300231
0.28528
0.261162
0.226247
0.180616
0.125848
0.0645716
0
0.501941
1.57029
3.30817
5.67209
8.40427
11.0403
13.0192
13.8659
13.3719
11.6847
9.25621
6.66708
4.41505
2.7676
1.73927
1.17517
0.997978
0.867994
0.746402
0.634181
0.531947
0.440471
0.360887
0.294307
0.24159
0.204076
0.183259
0.180219
0.195006
0.226156
0.270505
0.323402
0.379341
0.432977
0.480364
0.519141
0.54886
0.570887
0.587839
0.602775
0.618382
0.636223
0.656641
0.679241
0.703114
0.727026
0.749615
0.769521
0.785462
0.796187
0.800418
0.796803
0.783944
0.760519
0.72552
0.678554
0.620173
0.552094
0.477195
0.399198
0.322833
0.252812
0.193082
0.146268
0.11342
0.0941377
0.0869813
0.0900352
0.101411
0.119245
0.142369
0.169779
0.20052
0.233428
0.266742
0.298673
0.327969
0.354391
0.378907
0.403439
0.430171
0.461804
0.49869
0.534745
0.560255
0.56557
0.545385
0.501733
0.444292
0.387741
0.347102
0.331893
0.338227
0.360903
0.396124
0.438774
0.48343
0.525421
0.56135
0.588557
0.6054
0.611146
0.605956
0.590916
0.56807
0.540373
0.511455
0.485521
0.466529
0.457411
0.459447
0.473911
0.497557
0.525041
0.550708
0.57009
0.580851
0.582904
0.577726
0.567286
0.553096
0.536199
0.516804
0.494792
0.470342
0.444234
0.417952
0.393578
0.373476
0.360076
0.355337
0.36048
0.375759
0.400387
0.432648
0.470301
0.510744
0.551686
0.591566
0.62974
0.666379
0.702097
0.737446
0.772447
0.806227
0.836987
0.862231
0.879131
0.884534
0.876015
0.85197
0.81198
0.757097
0.689937
0.61444
0.53527
0.456963
0.383058
0.314737
0.252099
0.194648
0.141308
0.0908408
0.0422169
-0.0051465
-0.0513004
-0.0959249
-0.138618
-0.179196
-0.217952
-0.25573
-0.293825
-0.334196
-0.378333
-0.426806
-0.479037
-0.53343
0
1.27632
3.35124
6.02575
8.86441
11.3082
12.8377
13.1328
12.1737
10.2434
7.82287
5.41957
3.40558
1.93973
0.993622
0.450743
0.363344
0.279241
0.200652
0.129282
0.0662323
0.0120374
-0.0331798
-0.0696697
-0.0979179
-0.118485
-0.13176
-0.13827
-0.138211
-0.131187
-0.116065
-0.0911617
-0.0546578
-0.00527592
0.0617159
0.147442
0.241221
0.329477
0.400688
0.449707
0.479171
0.497239
0.512834
0.530807
0.549372
0.561677
0.558902
0.534432
0.487192
0.422816
0.352167
0.287765
0.239325
0.212011
0.201945
0.199273
0.192338
0.171968
0.133909
0.0786781
0.00961571
-0.0691512
-0.15266
-0.237012
-0.315517
-0.379426
-0.419633
-0.429537
-0.407609
-0.35829
-0.290756
-0.216106
-0.144146
-0.0792912
-0.0213442
0.0308121
0.0781377
0.121108
0.159375
0.191434
0.214999
0.227091
0.225333
0.209298
0.181335
0.146484
0.111415
0.0827432
0.0649801
0.0580693
0.0611868
0.0724753
0.0891054
0.107918
0.125978
0.140712
0.150612
0.155322
0.155687
0.153655
0.151962
0.153551
0.160814
0.174861
0.195669
0.220595
0.245765
0.267258
0.282242
0.289662
0.290246
0.285905
0.278815
0.27063
0.261941
0.252456
0.241311
0.227407
0.209769
0.187874
0.161901
0.132842
0.102458
0.0729952
0.0468477
0.0261258
0.0124853
0.00720491
0.00983362
0.0176875
0.0274912
0.036448
0.043167
0.0481299
0.0535421
0.0626365
0.0786837
0.103626
0.137233
0.178597
0.226658
0.279922
0.3369
0.396439
0.457879
0.521077
0.58627
0.653271
0.719574
0.779623
0.82583
0.85036
0.84723
0.81399
0.752511
0.668737
0.571526
0.470869
0.37499
0.287948
0.210587
0.142414
0.0829741
0.0312182
-0.0142256
-0.0547307
-0.0914613
-0.125289
-0.156816
-0.186468
-0.214543
-0.241285
-0.266912
-0.291592
-0.315444
-0.338597
-0.361183
-0.383368
-0.40536
0
1.08066
3.02922
5.77286
8.92014
11.8366
13.8375
14.43
13.5065
11.3901
8.69823
6.08406
3.99052
2.54426
1.62583
1.03807
0.845063
0.677517
0.518982
0.371904
0.2395
0.126588
0.0358601
-0.0303851
-0.071027
-0.0867847
-0.076568
-0.0472107
-0.00956392
0.0256727
0.0506728
0.0623027
0.0624262
0.0566612
0.0521
0.0548486
0.0672486
0.0880755
0.115334
0.147537
0.183424
0.222513
0.265315
0.313153
0.369183
0.438645
0.524314
0.618783
0.707168
0.773264
0.804126
0.792765
0.738688
0.647126
0.527887
0.394149
0.260878
0.139259
0.0343805
-0.0531317
-0.124168
-0.178574
-0.217011
-0.24108
-0.253191
-0.256573
-0.254367
-0.249128
-0.242474
-0.234939
-0.22608
-0.214785
-0.199709
-0.179742
-0.154459
-0.12414
-0.0896469
-0.0522791
-0.0135811
0.024903
0.061846
0.0962605
0.127525
0.155296
0.179377
0.199783
0.216659
0.230226
0.24078
0.248678
0.25429
0.257918
0.259695
0.259676
0.257888
0.25449
0.249937
0.245055
0.24096
0.23882
0.239519
0.243382
0.250202
0.258594
0.266555
0.27244
0.275754
0.277582
0.280392
0.287195
0.303322
0.329699
0.358047
0.375788
0.372215
0.344341
0.298897
0.249146
0.208336
0.183736
0.170844
0.164795
0.162865
0.163598
0.167309
0.175536
0.189836
0.210553
0.235533
0.262165
0.287743
0.309767
0.326531
0.337468
0.343221
0.345488
0.34674
0.349725
0.357099
0.371297
0.394206
0.426912
0.469518
0.521087
0.57989
0.643624
0.709802
0.776162
0.840991
0.903257
0.962528
1.01865
1.07121
1.11868
1.1575
1.18272
1.18833
1.16876
1.12095
1.04585
0.948928
0.839224
0.727277
0.622627
0.529309
0.447132
0.376363
0.316471
0.266389
0.225023
0.191684
0.165987
0.147561
0.135903
0.130518
0.127235
0.118333
0.0948696
0.0489389
-0.0240415
-0.12381
-0.244974
-0.377962
0
1.08282
2.95548
5.51657
8.45144
11.2617
13.368
14.28
13.777
12.0143
9.48319
6.82331
4.57406
2.99629
2.04878
1.51137
1.18196
1.02704
0.88049
0.746321
0.627399
0.524899
0.437974
0.364535
0.301983
0.248158
0.202258
0.16452
0.136256
0.119664
0.116998
0.129809
0.15847
0.202059
0.258544
0.325112
0.398228
0.474218
0.549911
0.621939
0.687168
0.742945
0.787388
0.819601
0.839742
0.848896
0.848786
0.84138
0.828717
0.812284
0.792714
0.76992
0.743311
0.711963
0.674962
0.631753
0.582403
0.527693
0.469017
0.40814
0.346912
0.286958
0.229712
0.176575
0.129209
0.0897279
0.0601433
0.0422584
0.0374261
0.0460349
0.0671366
0.098398
0.136433
0.177432
0.21788
0.255412
0.28912
0.318769
0.344578
0.367185
0.387419
0.406078
0.423732
0.440582
0.456375
0.470389
0.481654
0.489339
0.493139
0.493632
0.492409
0.491889
0.494812
0.503532
0.519325
0.541664
0.568836
0.598057
0.626022
0.649583
0.66631
0.674815
0.674772
0.666703
0.651639
0.630888
0.605661
0.576854
0.545119
0.51103
0.475285
0.438903
0.403453
0.371592
0.346568
0.331557
0.328912
0.339342
0.361395
0.39171
0.425156
0.456281
0.480549
0.495233
0.49968
0.494987
0.483305
0.467157
0.449197
0.431611
0.416443
0.405859
0.401985
0.406635
0.420901
0.444788
0.477045
0.515308
0.556655
0.597915
0.636608
0.671471
0.702644
0.73145
0.75985
0.789719
0.82218
0.857149
0.893353
0.928734
0.960898
0.987675
1.00757
1.01996
1.02503
1.02347
1.0161
1.00353
0.986032
0.963454
0.935295
0.90096
0.859952
0.812021
0.757288
0.696344
0.630483
0.561507
0.491641
0.42347
0.359575
0.302072
0.25267
0.211799
0.176814
0.142926
0.104719
0.0576456
-0.000615501
-0.0693435
-0.144707
-0.220444
0
0.884721
2.46362
4.67865
7.29881
9.93848
12.1118
13.3411
13.3112
12.0115
9.77943
7.19031
4.83269
3.08792
2.03148
1.49654
1.23752
1.08946
0.947201
0.815317
0.697516
0.596392
0.513327
0.448552
0.401387
0.370559
0.354915
0.352808
0.362565
0.382366
0.410904
0.445764
0.483321
0.520065
0.55338
0.58221
0.607274
0.630691
0.655102
0.682585
0.71368
0.74759
0.781139
0.810264
0.831359
0.842401
0.843451
0.836364
0.823877
0.808468
0.791499
0.773048
0.752235
0.727639
0.697821
0.661687
0.61873
0.56913
0.51374
0.454139
0.39222
0.329972
0.269472
0.212692
0.161358
0.116886
0.0804182
0.0531802
0.0368811
0.0328162
0.0419415
0.0647466
0.100799
0.14836
0.204485
0.264655
0.323679
0.376467
0.418756
0.447614
0.461663
0.461075
0.447446
0.423698
0.393717
0.362124
0.334473
0.315871
0.310043
0.318549
0.340458
0.372612
0.410428
0.448983
0.484258
0.514186
0.537567
0.553894
0.56329
0.566244
0.563432
0.555647
0.54377
0.52897
0.512844
0.497505
0.485609
0.480074
0.48374
0.4991
0.530499
0.583567
0.657605
0.739141
0.811662
0.860198
0.875313
0.85517
0.805185
0.73581
0.659594
0.588574
0.529528
0.483997
0.451938
0.433011
0.42661
0.43225
0.448223
0.471176
0.496719
0.520475
0.538863
0.549702
0.552565
0.548808
0.541246
0.533565
0.529594
0.532502
0.544114
0.564802
0.594103
0.631355
0.675739
0.726364
0.782476
0.84356
0.909349
0.979819
1.05534
1.13665
1.22225
1.30307
1.36474
1.39149
1.37166
1.30289
1.19406
1.06293
0.930224
0.812893
0.713029
0.625618
0.548377
0.480455
0.420942
0.369233
0.325164
0.288884
0.260735
0.241376
0.230629
0.224382
0.215258
0.194833
0.155641
0.0930158
0.0061553
-0.101848
-0.224799
-0.35454
0
0.956637
2.59884
4.87763
7.56043
10.2425
12.4149
13.5918
13.4715
12.0704
9.75133
7.10312
4.71052
2.93721
1.83871
1.24069
0.915176
0.784785
0.661037
0.548661
0.45142
0.371784
0.310761
0.267993
0.242076
0.230982
0.231823
0.240192
0.251386
0.261847
0.269788
0.275482
0.28108
0.289949
0.305651
0.330836
0.365791
0.408458
0.456271
0.50593
0.553516
0.595416
0.628895
0.652421
0.665682
0.669358
0.664738
0.653322
0.636584
0.615841
0.591906
0.565284
0.536277
0.505023
0.471509
0.435612
0.397074
0.355521
0.310526
0.261674
0.208658
0.151386
0.0901095
0.0254313
-0.0415361
-0.108546
-0.172162
-0.228289
-0.272549
-0.300727
-0.309242
-0.295654
-0.25916
-0.201039
-0.124912
-0.036632
0.0563154
0.14588
0.224745
0.288816
0.335265
0.363425
0.374351
0.370102
0.353052
0.326221
0.292149
0.252532
0.20919
0.164934
0.123811
0.0902824
0.0684844
0.0614249
0.0703375
0.0943801
0.130755
0.175196
0.222676
0.268287
0.308332
0.33995
0.361527
0.372823
0.374934
0.370068
0.361151
0.351297
0.343235
0.338747
0.338287
0.341303
0.34631
0.351206
0.353671
0.351632
0.343717
0.329499
0.30958
0.285502
0.259499
0.234157
0.212042
0.195386
0.185525
0.18304
0.188219
0.20095
0.221172
0.247118
0.275381
0.30209
0.323583
0.337146
0.341622
0.337747
0.328101
0.316691
0.308063
0.305896
0.313084
0.331235
0.360404
0.398739
0.444554
0.496224
0.552574
0.613044
0.677521
0.745895
0.817875
0.891879
0.963908
1.02825
1.07887
1.11077
1.121
1.10917
1.07717
1.02845
0.967096
0.896954
0.821529
0.743151
0.663119
0.582221
0.501149
0.420781
0.342358
0.267542
0.198339
0.136851
0.0850731
0.0448719
0.0174577
0.00197048
-0.00634162
-0.0154568
-0.0338917
-0.0688468
-0.124719
-0.202389
-0.29936
-0.410522
-0.529133
0
1.22633
3.19162
5.7704
8.66249
11.4084
13.4645
14.3527
13.8432
12.0721
9.51275
6.79586
4.47103
2.8309
1.87622
1.40897
1.21433
1.05632
0.901315
0.750049
0.603887
0.465748
0.340622
0.233409
0.149212
0.0927316
0.06711
0.0731345
0.109059
0.170941
0.253126
0.348586
0.448424
0.544762
0.629595
0.696846
0.74407
0.77341
0.791055
0.805085
0.822416
0.84669
0.875715
0.903337
0.922999
0.931399
0.930357
0.925922
0.925243
0.932807
0.948297
0.965105
0.973282
0.963468
0.930459
0.875017
0.803404
0.725031
0.649216
0.581085
0.520612
0.466057
0.4158
0.368209
0.322016
0.276962
0.234631
0.198528
0.173223
0.162771
0.169183
0.191509
0.225885
0.266535
0.307342
0.343509
0.373668
0.398205
0.417846
0.434003
0.448298
0.462164
0.476572
0.492043
0.508689
0.526444
0.54528
0.565326
0.586851
0.610108
0.635127
0.661582
0.688612
0.714967
0.739216
0.759965
0.776018
0.786438
0.790072
0.786555
0.776047
0.759498
0.7389
0.717302
0.698462
0.686115
0.683618
0.694875
0.71778
0.744887
0.767225
0.777524
0.772702
0.754598
0.72877
0.702018
0.67981
0.663715
0.652469
0.645
0.640285
0.637641
0.637013
0.638947
0.644298
0.653801
0.667558
0.685028
0.704896
0.725225
0.743527
0.757026
0.763766
0.763005
0.755595
0.74407
0.732339
0.724972
0.726248
0.739274
0.764905
0.801359
0.847405
0.901897
0.963757
1.03325
1.11234
1.20198
1.29521
1.37835
1.43556
1.45457
1.43141
1.3716
1.2877
1.19442
1.10366
1.01989
0.942012
0.86838
0.798124
0.731071
0.667684
0.608976
0.556325
0.511152
0.474571
0.447096
0.428403
0.416943
0.409628
0.4024
0.391128
0.372327
0.343742
0.304674
0.255641
0.197686
0.133963
0.0674056
0
-0.0671667
0.524402
1.75446
3.69401
6.22346
9.00656
11.54
13.282
13.826
13.0538
11.1911
8.72616
6.22133
4.11031
2.58465
1.61471
1.06045
0.978152
0.898122
0.821445
0.749677
0.684679
0.628517
0.582656
0.548196
0.525607
0.514533
0.513779
0.521512
0.535612
0.554027
0.57485
0.596707
0.618302
0.638368
0.655885
0.670382
0.682307
0.693241
0.705746
0.722836
0.74722
0.780558
0.821993
0.86976
0.922073
0.976311
1.02844
1.07333
1.10617
1.12294
1.12099
1.09948
1.05944
1.0036
0.935734
0.860113
0.781309
0.702851
0.627199
0.556432
0.492281
0.43599
0.38824
0.349097
0.318067
0.294273
0.276675
0.264283
0.256336
0.252398
0.252373
0.256442
0.26495
0.278284
0.296773
0.320549
0.349445
0.382959
0.420183
0.459711
0.499632
0.537563
0.570758
0.596522
0.612777
0.618351
0.613318
0.599203
0.578927
0.556441
0.536052
0.521589
0.515376
0.51755
0.527492
0.543057
0.561439
0.579954
0.596724
0.611078
0.62356
0.635575
0.648775
0.664366
0.682866
0.703409
0.723455
0.739666
0.748759
0.748345
0.737487
0.716898
0.688789
0.656486
0.623942
0.59471
0.571849
0.557771
0.553832
0.560098
0.575283
0.596924
0.621772
0.646329
0.667427
0.682755
0.690774
0.690827
0.683021
0.668087
0.647273
0.622427
0.595454
0.569125
0.546586
0.530758
0.523775
0.526538
0.538571
0.558291
0.583613
0.612699
0.644453
0.678759
0.716515
0.759084
0.807818
0.863556
0.926244
0.99543
1.06948
1.1444
1.2141
1.27202
1.31196
1.32886
1.3193
1.28201
1.21817
1.13175
1.02935
0.920212
0.813122
0.715434
0.632167
0.564926
0.514933
0.481572
0.46272
0.455205
0.455188
0.458654
0.461851
0.461136
0.453308
0.435832
0.407093
0.364256
0.303927
0.229693
0.149889
0.0720607
0
-0.0675933
0.450122
1.47876
3.16184
5.50743
8.27225
10.949
12.9065
13.6298
12.9387
11.0618
8.53025
5.95533
3.81117
2.31753
1.45224
1.04737
0.935192
0.822701
0.710653
0.60065
0.496302
0.402479
0.324462
0.266851
0.232356
0.221083
0.230571
0.256522
0.293892
0.337932
0.384475
0.431121
0.476519
0.519754
0.560136
0.597057
0.629889
0.658126
0.681687
0.700914
0.716694
0.730458
0.743987
0.759019
0.776752
0.797872
0.821102
0.843429
0.861026
0.8702
0.868133
0.853141
0.824483
0.782016
0.72605
0.659338
0.584478
0.504229
0.422503
0.344115
0.274147
0.217085
0.176026
0.152493
0.145672
0.152645
0.169133
0.190481
0.211461
0.226848
0.23297
0.228177
0.213176
0.191083
0.167009
0.147085
0.13705
0.14079
0.157779
0.184952
0.219426
0.257587
0.295986
0.332164
0.36514
0.395497
0.425055
0.456216
0.49157
0.534118
0.584152
0.633273
0.669026
0.67956
0.658619
0.608945
0.542348
0.476043
0.426619
0.404305
0.402008
0.412058
0.430817
0.454488
0.480009
0.505601
0.530743
0.555772
0.5814
0.608203
0.63625
0.664766
0.692078
0.715628
0.731857
0.736542
0.726014
0.697395
0.649334
0.582036
0.491751
0.389563
0.293832
0.222681
0.188236
0.192816
0.228798
0.282111
0.337691
0.384478
0.42148
0.451719
0.477178
0.499636
0.520741
0.541526
0.562086
0.581001
0.595625
0.603207
0.602291
0.593877
0.581848
0.572399
0.572597
0.588574
0.622815
0.672555
0.736436
0.811631
0.894367
0.980481
1.06532
1.14297
1.20787
1.25476
1.279
1.27702
1.24681
1.18846
1.10452
1.00009
0.88261
0.761229
0.643658
0.535532
0.441766
0.365232
0.305245
0.258939
0.222329
0.191466
0.163358
0.136401
0.110301
0.0856225
0.0631123
0.0432189
0.0261063
0.0117481
0
-0.0122663
-0.0223152
0.157013
0.933028
2.51143
4.88442
7.7451
10.5484
12.6767
13.6489
13.2841
11.7529
9.49319
7.03746
4.83125
3.12166
1.94674
1.20615
0.788335
0.686484
0.590312
0.501671
0.4216
0.350196
0.286786
0.230365
0.180214
0.136091
0.0983103
0.0678899
0.0463748
0.0353153
0.0357296
0.0477086
0.0702599
0.101428
0.138643
0.179107
0.220488
0.261232
0.300511
0.338033
0.373843
0.408046
0.440577
0.471094
0.499036
0.523689
0.544371
0.560545
0.571835
0.577965
0.578578
0.573249
0.561485
0.542749
0.516562
0.482604
0.440731
0.390909
0.333083
0.267051
0.192522
0.108449
0.0107324
-0.107384
-0.244308
-0.38155
-0.495317
-0.564662
-0.578909
-0.54084
-0.464712
-0.37073
-0.278692
-0.201767
-0.140026
-0.0893823
-0.0467398
-0.0100398
0.02226
0.0513648
0.0781237
0.103117
0.126672
0.149032
0.170541
0.191759
0.21342
0.236277
0.260894
0.287316
0.314862
0.341898
0.365592
0.382821
0.391062
0.389236
0.378335
0.361509
0.343501
0.329474
0.323582
0.327764
0.339925
0.356954
0.375477
0.391797
0.402546
0.40517
0.398165
0.381084
0.354407
0.319426
0.277996
0.232311
0.184937
0.138778
0.0968865
0.0624822
0.0386752
0.0282563
0.0379318
0.07884
0.148115
0.224731
0.283924
0.306686
0.287673
0.237444
0.177624
0.131233
0.113038
0.117681
0.133355
0.154304
0.176731
0.197816
0.216266
0.232453
0.248155
0.26603
0.288946
0.319341
0.358511
0.406526
0.46262
0.525313
0.592399
0.661155
0.728485
0.791141
0.846206
0.891343
0.924983
0.94638
0.955529
0.952986
0.939655
0.916629
0.885194
0.846837
0.802962
0.75502
0.704411
0.652281
0.599311
0.545635
0.490878
0.434451
0.375983
0.315758
0.254999
0.195862
0.141112
0.0934714
0.0548645
0.0277873
0.0115017
0
-0.0141129
-0.0391569
-0.0804411
-0.139361
-0.21302
-0.294962
0.0814415
1.09179
2.83822
5.26398
8.10501
10.9011
13.0911
14.1803
13.9145
12.3797
9.97466
7.26434
4.78279
2.87556
1.64038
0.974072
0.684265
0.617231
0.552604
0.491903
0.436509
0.387606
0.346124
0.312689
0.287507
0.270308
0.260576
0.257492
0.25936
0.26418
0.270363
0.277177
0.28497
0.295094
0.309507
0.330189
0.358566
0.394571
0.437153
0.485075
0.536548
0.589449
0.641534
0.690558
0.734642
0.772413
0.803093
0.826455
0.842647
0.851883
0.854116
0.848454
0.833698
0.808362
0.771186
0.721762
0.661022
0.591371
0.516377
0.440076
0.366105
0.296815
0.233215
0.174965
0.120934
0.0699977
0.0220432
-0.0213219
-0.0567437
-0.0797195
-0.0858734
-0.0724426
-0.0393919
0.010216
0.0707422
0.135246
0.197135
0.251993
0.297769
0.334881
0.365438
0.391801
0.415228
0.435375
0.44972
0.455148
0.449944
0.435155
0.414701
0.394224
0.379356
0.373686
0.376707
0.38722
0.404462
0.427369
0.454606
0.484681
0.515966
0.546781
0.575435
0.600238
0.619581
0.632242
0.637543
0.635451
0.626668
0.612591
0.59513
0.576385
0.558257
0.542115
0.528658
0.517813
0.5091
0.502079
0.496741
0.493681
0.493948
0.498611
0.508295
0.523014
0.540444
0.555818
0.56346
0.558338
0.537672
0.502129
0.456208
0.407625
0.365762
0.339312
0.332636
0.350717
0.396512
0.458208
0.520709
0.571252
0.603891
0.620954
0.63097
0.644263
0.668434
0.70401
0.746428
0.792391
0.839384
0.885165
0.92797
0.966542
0.999863
1.02659
1.04422
1.04899
1.03742
1.00622
0.953439
0.879544
0.788137
0.685792
0.581026
0.482602
0.396916
0.32845
0.279674
0.246895
0.223816
0.203717
0.181488
0.154888
0.124652
0.0935291
0.0646739
0.0400157
0.0189941
0
-0.0176351
-0.037152
-0.0594167
-0.0839095
-0.108887
-0.112797
0.537911
1.98783
4.23855
7.02991
9.87751
12.1915
13.4459
13.3524
11.9702
9.69395
7.10694
4.76073
2.99061
1.85553
1.21245
0.874245
0.763857
0.658542
0.561871
0.477923
0.411056
0.363764
0.337427
0.331925
0.345335
0.375048
0.415617
0.459962
0.501336
0.53465
0.557394
0.569911
0.574995
0.577025
0.580913
0.590449
0.60776
0.634278
0.670807
0.717272
0.772876
0.836213
0.905749
0.98003
1.05751
1.13542
1.20796
1.26659
1.30123
1.30227
1.26356
1.18519
1.07482
0.946613
0.817695
0.703225
0.607704
0.532796
0.474341
0.425132
0.378274
0.330128
0.281657
0.237761
0.205046
0.189084
0.188295
0.200603
0.223563
0.253447
0.285917
0.316532
0.341861
0.360023
0.370911
0.376068
0.378248
0.380749
0.38667
0.398163
0.415764
0.438869
0.466283
0.496367
0.527176
0.55666
0.582804
0.60389
0.618555
0.625842
0.625248
0.616789
0.601077
0.579405
0.553784
0.52685
0.502912
0.486961
0.483738
0.496724
0.52719
0.573602
0.63202
0.696059
0.757125
0.807296
0.841009
0.856111
0.854033
0.839084
0.817086
0.793748
0.773123
0.75641
0.742897
0.731395
0.720236
0.708001
0.694078
0.678929
0.663981
0.651176
0.642341
0.638594
0.639877
0.64518
0.652687
0.660181
0.665517
0.666898
0.66302
0.653178
0.63734
0.616256
0.591218
0.564083
0.537426
0.514069
0.496655
0.487282
0.487266
0.497099
0.516602
0.54518
0.582084
0.626334
0.676935
0.732998
0.793606
0.857622
0.923628
0.989933
1.05461
1.11544
1.16958
1.21319
1.2417
1.25115
1.2379
1.19961
1.13621
1.05061
0.948748
0.838787
0.729693
0.629056
0.540213
0.465008
0.403958
0.355886
0.318364
0.288212
0.26197
0.236273
0.208191
0.175576
0.136915
0.0908004
0.0426588
0.00656242
0
0.0385368
0.128227
0.262906
0.423933
1.18082
2.33437
4.04281
6.33196
8.98227
11.5242
13.3673
14.0123
13.2541
11.2781
8.59947
5.86309
3.60251
2.07204
1.22791
0.84388
0.742273
0.643343
0.549439
0.462466
0.383771
0.314127
0.25379
0.20267
0.160419
0.126511
0.100404
0.0816347
0.0698852
0.0650373
0.0672395
0.0768187
0.094002
0.118788
0.150706
0.188643
0.230811
0.274912
0.318458
0.359179
0.395419
0.426314
0.451829
0.472566
0.48944
0.503294
0.514545
0.523095
0.528216
0.528665
0.522895
0.509318
0.48657
0.453744
0.410577
0.357641
0.29641
0.228751
0.157041
0.0839817
0.012455
-0.0541506
-0.111603
-0.15616
-0.185093
-0.196772
-0.191172
-0.170227
-0.137763
-0.0989209
-0.0591768
-0.0232418
0.00651374
0.0297987
0.0468403
0.0588525
0.0676754
0.0754207
0.0840012
0.0949941
0.109539
0.128419
0.151993
0.180423
0.213807
0.252208
0.295531
0.343527
0.395679
0.449087
0.498783
0.539443
0.567028
0.580206
0.580887
0.573583
0.563839
0.556364
0.553244
0.553661
0.556127
0.558653
0.559213
0.556316
0.549382
0.538862
0.526115
0.513083
0.501802
0.493982
0.490649
0.491905
0.497088
0.504989
0.513872
0.521762
0.526936
0.528264
0.525413
0.518853
0.509679
0.499266
0.488895
0.479442
0.471277
0.46429
0.458182
0.452763
0.448121
0.44457
0.442418
0.441827
0.4423
0.442989
0.443158
0.442718
0.442543
0.444381
0.450388
0.462516
0.481842
0.507979
0.540786
0.579796
0.624402
0.673959
0.727809
0.785291
0.845674
0.908415
0.973205
1.03986
1.10824
1.178
1.24766
1.31378
1.37138
1.41472
1.43839
1.43844
1.41302
1.36268
1.29019
1.20017
1.09886
0.99325
0.889496
0.792249
0.70481
0.62978
0.569118
0.523779
0.493427
0.476356
0.469742
0.469882
0.4721
0.470779
0.460603
0.437382
0.398739
0.342499
0.267338
0.180395
0.0894854
0
-0.0874798
0.762251
2.36679
4.74612
7.71035
10.8238
13.4711
15.0361
15.1327
13.7709
11.3621
8.55137
5.96483
3.9966
2.73117
2.00804
1.5742
1.35086
1.13902
0.948227
0.785553
0.654881
0.556837
0.48925
0.448018
0.42816
0.424787
0.433238
0.449971
0.473013
0.501297
0.534128
0.570907
0.610912
0.653343
0.697175
0.741407
0.785284
0.828448
0.870921
0.91294
0.954659
0.995821
1.03548
1.072
1.10329
1.12716
1.14179
1.14598
1.13932
1.12212
1.09521
1.05992
1.01784
0.970391
0.918797
0.864107
0.807266
0.749168
0.690702
0.632852
0.576815
0.524052
0.47622
0.435048
0.40211
0.378525
0.364767
0.360517
0.364648
0.375377
0.390554
0.407943
0.425673
0.442524
0.458048
0.47248
0.486489
0.500844
0.516132
0.532563
0.550044
0.568349
0.587287
0.60685
0.627277
0.648985
0.672418
0.69784
0.725142
0.753776
0.782673
0.81021
0.834281
0.852788
0.864082
0.867328
0.862821
0.852083
0.837674
0.822688
0.810033
0.801688
0.798937
0.800033
0.800622
0.795706
0.781546
0.757218
0.725203
0.690795
0.660521
0.64018
0.631706
0.63343
0.643783
0.660503
0.680812
0.701826
0.721232
0.737572
0.750255
0.759298
0.76493
0.76685
0.764351
0.756331
0.741536
0.719212
0.689723
0.654875
0.617829
0.582651
0.553636
0.53363
0.525197
0.529844
0.547788
0.577938
0.61804
0.665006
0.715396
0.765974
0.81421
0.858834
0.899314
0.935791
0.968748
0.998632
1.0256
1.04931
1.06892
1.0832
1.09075
1.09032
1.08109
1.06276
1.03567
1.00075
0.959299
0.912749
0.862282
0.808591
0.751793
0.691515
0.627191
0.55844
0.485417
0.409039
0.331045
0.25389
0.181092
0.116989
0.0650893
0.0278885
0.00640345
0
0.00780306
0.0256255
0.0502952
0.079051
0.109663
0.141522
0.773223
2.08676
4.10569
6.6524
9.34837
11.6752
13.1079
13.295
12.203
10.1413
7.63854
5.23179
3.28467
1.92189
1.08276
0.639564
0.569882
0.502473
0.438634
0.379745
0.327244
0.282536
0.246829
0.221216
0.206447
0.20218
0.206511
0.216218
0.227549
0.237252
0.243393
0.245918
0.246794
0.24967
0.259121
0.279656
0.314589
0.36468
0.42835
0.503587
0.588144
0.678504
0.768795
0.850571
0.915776
0.957578
0.971391
0.955943
0.913941
0.851854
0.778601
0.703396
0.633177
0.569882
0.512327
0.458787
0.407632
0.357155
0.306047
0.253725
0.200457
0.147266
0.0956841
0.0474085
0.0040329
-0.0330584
-0.0627738
-0.0842789
-0.0969291
-0.100232
-0.0938992
-0.077742
-0.0510443
-0.0129662
0.033452
0.0800229
0.117673
0.139098
0.14123
0.126349
0.101205
0.0744459
0.0534805
0.0414523
0.0364203
0.0364796
0.0403501
0.0472117
0.0571541
0.0712066
0.0909508
0.117854
0.152527
0.194157
0.241047
0.289357
0.334264
0.371188
0.39678
0.409545
0.409976
0.400192
0.383232
0.362262
0.339987
0.318148
0.297617
0.278802
0.261974
0.247368
0.235268
0.226015
0.219966
0.21743
0.218629
0.223656
0.232442
0.244711
0.260022
0.277517
0.295853
0.313362
0.328237
0.338752
0.343572
0.341976
0.33398
0.32035
0.302463
0.282098
0.261178
0.241553
0.224802
0.212071
0.204488
0.202787
0.207369
0.218238
0.234967
0.256959
0.283126
0.312439
0.344248
0.378515
0.415834
0.457241
0.503855
0.556498
0.615385
0.679814
0.748702
0.820748
0.894482
0.967268
1.03405
1.08877
1.12506
1.13801
1.12573
1.08999
1.03527
0.966861
0.888997
0.805187
0.717707
0.627576
0.535599
0.443038
0.351714
0.264007
0.183307
0.113963
0.0592656
0.0216696
0.00219927
0
0.0138164
0.0375519
0.0658722
0.0937026
0.117301
0.135414
0.148437
0.158169
0.770792
2.14283
4.28046
6.9289
9.62394
11.8234
13.0689
13.1264
12.0538
10.1683
7.924
5.75332
3.94311
2.5974
1.67895
1.10614
0.929846
0.763577
0.614689
0.488461
0.387955
0.313895
0.264924
0.238186
0.230082
0.237015
0.255944
0.28432
0.320533
0.364178
0.414818
0.469947
0.523301
0.567206
0.595066
0.6039
0.596012
0.578922
0.563377
0.560017
0.575906
0.608754
0.652106
0.701749
0.752159
0.797994
0.835115
0.861176
0.875669
0.879451
0.873919
0.860157
0.838347
0.808263
0.768795
0.718899
0.658467
0.588856
0.513025
0.435207
0.360216
0.29238
0.234297
0.187763
0.153172
0.129737
0.115904
0.109365
0.107372
0.107866
0.109986
0.114292
0.122634
0.137612
0.161744
0.199275
0.254107
0.318457
0.380395
0.428316
0.455603
0.463212
0.458924
0.453688
0.456902
0.472591
0.496169
0.523393
0.551346
0.577398
0.599711
0.617461
0.630783
0.640513
0.647866
0.654131
0.660497
0.667986
0.677443
0.689497
0.704475
0.722342
0.742733
0.764086
0.784181
0.800724
0.811942
0.817027
0.816247
0.810675
0.801678
0.790411
0.777687
0.763765
0.74861
0.73226
0.715074
0.697898
0.682088
0.669328
0.661388
0.660153
0.667477
0.684051
0.708045
0.735193
0.759904
0.776642
0.781196
0.771704
0.74919
0.717474
0.682455
0.6509
0.629041
0.620634
0.625779
0.642581
0.669597
0.704971
0.74649
0.79182
0.839009
0.886511
0.933284
0.978836
1.02324
1.06712
1.11155
1.15801
1.20827
1.26452
1.33097
1.41869
1.54899
1.72083
1.897
2.02749
2.0688
2.0022
1.84085
1.62306
1.39758
1.20946
1.06936
0.958888
0.866696
0.789366
0.726327
0.676663
0.639108
0.612089
0.59379
0.582041
0.574014
0.566102
0.554305
0.534705
0.503939
0.459659
0.39635
0.315053
0.218831
0.112104
0
0.520074
1.77699
3.85482
6.61195
9.67105
12.483
14.4597
15.15
14.4046
12.454
9.83996
7.21042
5.07266
3.62955
2.78019
2.2594
1.86315
1.54534
1.25764
1.01415
0.824592
0.692755
0.6161
0.586744
0.593549
0.624722
0.670175
0.722295
0.777092
0.833028
0.889509
0.946099
1.00207
1.05626
1.10736
1.15435
1.19689
1.2355
1.27136
84
258
435
615
792
969
1148
1331
1513
1695
1880
2062
2246
2429
2613
2794
2980
3167
3349
3533
3718
3404
3560
3711
3551
3704
0
0
0
0
0
0
0
0
0
0
0
0
0
0
0
0
0
0
0
0
0
0
0
0
0
0
0
0
0
0
0
0
0
0
0
0
0
0
0
0
0
0
0
0
0
0
0
0
0
0
0
0
0
0
0
0
0
0
0
0
0
0
0
0
0
0
0
0
0
0
0
0
0
0
0
0
0
0
0
0
0
0
0
0
0
0
0
0
0
0
0
0
0
0
0
0
0
0
0
0
0
0
0
0
0
0
0
0
0
0
0
0
0
0
0
0
0
0
0
0
0
0
0
0
0
0
0
0
0
0
0
0
0
0
0
0
0
0
0
0
0
0
0
0
0
0
0
0
0
0
0
0
0
0
0
0
0
0
0
0
0
0
0
0
0
0
0
0
0
0
0
0
0
0
0
0
0
0
0
0
0
0
0
0
0
0
0
0
0
0
0
0
0
0
0
0
0
0
0
0
0
0
0
0
0
0
0
0
0
0
0
0
0
0
0
0
0
0
0
0
0
0
0
0
0
0
0
0
0
0
0
0
0
0
0
0
0
0
0
0
0
0
0
0
0
0
0
0
0
0
0
0
0
0
0
0
0
0
0
0
0
0
0
0
0
0
0
0
0
0
0
0
0
0
0
0
0
0
0
0
0
0
0
0
0
0
0
0
0
0
0
0
0
0
0
0
0
0
0
0
0
0
0
0
0
0
0
0
0
0
0
0
0
0
0
0
0
0
0
0
0
0
0
0
0
0
0
0
0
0
0
0
0
0
0
0
0
0
0
0
0
0
0
0
0
0
0
0
0
0
0
0
0
0
0
0
0
0
0
0
0
0
0
0
0
0
0
0
0
0
0
0
0
0
0
0
0
0
0
0
0
0
0
0
0
0
0
0
0
0
0
0
0
0
0
0
0
0
0
0
0
0
0
0
0
0
0
0
0
0
0
0
0
0
0
0
0
0
0
0
0
0
0
0
0
0
0
0
0
0
0
0
0
0
0
0
0
0
0
0
0
0
0
0
0
0
0
0
0
0
0
0
0
0
0
0
0
0
0
0
0
0
0
0
0
0
0
0
0
0
0
0
0
0
0
0
0
0
0
0
0
0
0
0
0
0
0
0
0
0
0
0
0
0
0
0
0
0
0
0
0
0
0
0
0
0
0
0
0
0
0
0
0
0
0
0
0
0
0
0
0
0
0
0
0
0
0
0
0
0
0
0
0
0
0
0
0
0
0
0
0
0
0
0
0
0
0
0
0
0
0
0
0
0
0
0
0
0
0
0
0
0
0
0
0
0
0
0
0
0
0
0
0
0
0
0
0
0
0
0
0
0
0
0
0
0
0
0
0
0
0
0
0
0
0
0
0
0
0
0
0
0
0
0
0
0
0
0
0
0
0
0
0
0
0
0
0
0
0
0
0
0
0
0
0
0
0
0
0
0
0
0
0
0
0
0
0
0
0
0
0
0
0
0
0
0
0
0
0
0
0
0
0
0
0
0
0
0
0
0
0
0
0
0
0
0
0
0
0
0
0
0
0
0
0
0
0
0
0
0
0
0
0
0
0
0
0
0
0
0
0
0
0
0
0
0
0
0
0
0
0
0
0
0
0
0
0
0
0
0
0
0
0
0
0
0
0
0
0
0
0
0
0
0
0
0
0
0
0
0
0
0
0
0
0
0
0
0
0
0
0
0
0
0
0
0
0
0
0
0
0
0
0
0
0
0
0
0
0
0
0
0
0
0
0
0
0
0
0
0
0
0
0
0
0
0
0
0
0
0
0
0
0
0
0
0
0
0
0
0
0
0
0
0
0
0
0
0
0
0
0
0
0
0
0
0
0
0
0
0
0
0
0
0
0
0
0
0
0
0
0
0
0
0
0
0
0
0
0
0
0
0
0
0
0
0
0
0
0
0
0
0
0
0
0
0
0
0
0
0
0
0
0
0
0
0
0
0
0
0
0
0
0
0
0
0
0
0
0
0
0
0
0
0
0
0
0
0
0
0
0
0
0
0
0
0
0
0
0
0
0
0
0
0
0
0
0
0
0
0
0
0
0
0
0
0
0
0
0
0
0
0
0
0
0
0
0
0
0
0
0
0
0
0
0
0
0
0
0
0
0
0
0
0
0
0
0
0
0
0
0
0
0
0
0
0
0
0
0
0
0
0
0
0
0
0
0
0
0
0
0
0
0
0
0
0
0
0
0
0
0
0
0
0
0
0
0
0
0
0
0
0
0
0
0
0
0
0
0
0
0
0
0
0
0
0
0
0
0
0
0
0
0
0
0
0
0
0
0
0
0
0
0
0
0
0
0
0
0
0
0
0
0
0
0
0
0
0
0
0
0
0
0
0
0
0
0
0
0
0
0
0
0
0
0
0
0
0
0
0
0
0
0
0
0
0
0
0
0
0
0
0
0
0
0
0
0
0
0
0
0
0
0
0
0
0
0
0
0
0
0
0
0
0
0
0
0
0
0
0
0
0
0
0
0
0
0
0
0
0
0
0
0
0
0
0
0
0
0
0
0
0
0
0
0
0
0
0
0
0
0
0
0
0
0
0
0
0
0
0
0
0
0
0
0
0
0
0
0
0
0
0
0
0
0
0
0
0
0
0
0
0
0
0
0
0
0
0
0
0
0
0
0
0
0
0
0
0
0
0
0
0
0
0
0
0
0
0
0
0
0
0
0
0
0
0
0
0
0
0
0
0
0
0
0
0
0
0
0
0
0
0
0
0
0
0
0
0
0
0
0
0
0
0
0
0
0
0
0
0
0
0
0
0
0
0
0
0
0
0
0
0
0
0
0
0
0
0
0
0
0
0
0
0
0
0
0
0
0
0
0
0
0
0
0
0
0
0
0
0
0
0
0
0
0
0
0
0
0
0
0
0
0
0
0
0
0
0
0
0
0
0
0
0
0
0
0
0
0
0
0
0
0
0
0
0
0
0
0
0
0
0
0
0
0
0
0
0
0
0
0
0
0
0
0
0
0
0
0
0
0
0
0
0
0
0
0
0
0
0
0
0
0
0
0
0
0
0
0
0
0
0
0
0
0
0
0
0
0
0
0
0
0
0
0
0
0
0
0
0
0
0
0
0
0
0
0
0
0
0
0
0
0
0
0
0
0
0
0
0
0
0
0
0
0
0
0
0
0
0
0
0
0
0
0
0
0
0
0
0
0
0
0
0
0
0
0
0
0
0
0
0
0
0
0
0
0
0
0
0
0
0
0
0
0
0
0
0
0
0
0
0
0
0
0
0
0
0
0
0
0
0
0
0
0
0
0
0
0
0
0
0
0
0
0
0
0
0
0
0
0
0
0
0
0
0
0
0
0
0
0
0
0
0
0
0
0
0
0
0
0
0
0
0
0
0
0
0
0
0
0
0
0
0
0
0
0
0
0
0
0
0
0
0
0
0
0
0
0
0
0
0
0
0
0
0
0
0
0
0
0
0
0
0
0
0
0
0
0
0
0
0
0
0
0
0
0
0
0
0
0
0
0
0
0
0
0
0
0
0
0
0
0
0
0
0
0
0
0
0
0
0
0
0
0
0
0
0
0
0
0
0
0
0
0
0
0
0
0
0
0
0
0
0
0
0
0
0
0
0
0
0
0
0
0
0
0
0
0
0
0
0
0
0
0
0
0
0
0
0
0
0
0
0
0
0
0
0
0
0
0
0
0
0
0
0
0
0
0
0
0
0
0
0
0
0
0
0
0
0
0
0
0
0
0
0
0
0
0
0
0
0
0
0
0
0
0
0
0
0
0
0
0
0
0
0
0
0
0
0
0
0
0
0
0
0
0
0
0
0
0
0
0
0
0
0
0
0
0
0
0
0
0
0
0
0
0
0
0
0
0
0
0
0
0
0
0
0
0
0
0
0
0
0
0
0
0
0
0
0
0
0
0
0
0
0
0
0
0
0
0
0
0
0
0
0
0
0
0
0
0
0
0
0
0
0
0
0
0
0
0
0
0
0
0
0
0
0
0
0
0
0
0
0
0
0
0
0
0
0
0
0
0
0
0
0
0
0
0
0
0
0
0
0
0
0
0
0
0
0
0
0
0
0
0
0
0
0
0
0
0
0
0
0
0
0
0
0
0
0
0
0
0
0
0
0
0
0
0
0
0
0
0
0
0
0
0
0
0
0
0
0
0
0
0
0
0
0
0
0
0
0
0
0
0
0
0
0
0
0
0
0
0
0
0
0
0
0
0
0
0
0
0
0
0
0
0
0
0
0
0
0
0
0
0
0
0
0
0
0
0
0
0
0
0
0
0
0
0
0
0
0
0
0
0
0
0
0
0
0
0
0
0
0
0
0
0
0
0
0
0
0
0
0
0
0
0
0
0
0
0
0
0
0
0
0
0
0
0
0
0
0
0
0
0
0
0
0
0
0
0
0
0
0
0
0
0
0
0
0
0
0
0
0
0
0
0
0
0
0
0
0
0
0
0
0
0
0
0
0
0
0
0
0
0
0
0
0
0
0
0
0
0
0
0
0
0
0
0
0
0
0
0
0
0
0
0
0
0
0
0
0
0
0
0
0
0
0
0
0
0
0
0
0
0
0
0
0
0
0
0
0
0
0
0
0
0
0
0
0
0
0
0
0
0
0
0
0
0
0
0
0
0
0
0
0
0
0
0
0
0
0
0
0
0
0
0
0
0
0
0
0
0
0
0
0
0
0
0
0
0
0
0
0
0
0
0
0
0
0
0
0
0
0
0
0
0
0
0
0
0
0
0
0
0
0
0
0
0
0
0
0
0
0
0
0
0
0
0
0
0
0
0
0
0
0
0
0
0
0
0
0
0
0
0
0
0
0
0
0
0
0
0
0
0
0
0
0
0
0
0
0
0
0
0
0
0
0
0
0
0
0
0
0
0
0
0
0
0
0
0
0
0
0
0
0
0
0
0
0
0
0
0
0
0
0
0
0
0
0
0
0
0
0
0
0
0
0
0
0
0
0
0
0
0
0
0
0
0
0
0
0
0
0
0
0
0
0
0
0
0
0
0
0
0
0
0
0
0
0
0
0
0
0
0
0
0
0
0
0
0
0
0
0
0
0
0
0
0
0
0
0
0
0
0
0
0
0
0
0
0
0
0
0
0
0
0
0
0
0
0
0
0
0
0
0
0
0
0
0
0
0
0
0
0
0
0
0
0
0
0
0
0
0
0
0
0
0
0
0
0
0
0
0
0
0
0
0
0
0
0
0
0
0
0
0
0
0
0
0
0
0
0
0
0
0
0
0
0
0
0
0
0
0
0
0
0
0
0
0
0
0
0
0
0
0
0
0
0
0
0
0
0
0
0
0
0
0
0
0
0
0
0
0
0
0
0
0
0
0
0
0
0
0
0
0
0
0
0
0
0
0
0
0
0
0
0
0
0
0
0
0
0
0
0
0
0
0
0
0
0
0
0
0
0
0
0
0
0
0
0
0
0
0
0
0
0
0
0
0
0
0
0
0
0
0
0
0
0
0
0
0
0
0
0
0
0
0
0
0
0
0
0
0
0
0
0
0
0
0
0
0
0
0
0
0
0
0
0
0
0
0
0
0
0
0
0
0
0
0
0
0
0
0
0
0
0
0
0
0
0
0
0
0
0
0
0
0
0
0
0
0
0
0
0
0
0
0
0
0
0
0
0
0
0
0
0
0
0
0
0
0
0
0
0
0
0
0
0
0
0
0
0
0
0
0
0
0
0
0
0
0
0
0
0
0
0
0
0
0
0
0
0
0
0
0
0
0
0
0
0
0
0
0
0
0
0
0
0
0
0
0
0
0
0
0
0
0
0
0
0
0
0
0
0
0
0
0
0
0
0
0
0
0
0
0
0
0
0
0
0
0
0
0
0
0
0
0
0
0
0
0
0
0
0
0
0
0
0
0
0
0
0
0
0
0
0
0
0
0
0
0
0
0
0
0
0
0
0
0
0
0
0
0
0
0
0
0
0
0
0
0
0
0
0
0
0
0
0
0
0
0
0
0
0
0
0
0
0
0
0
0
0
0
0
0
0
0
0
0
0
0
0
0
0
0
0
0
0
0
0
0
0
0
0
0
0
0
0
0
0
0
0
0
0
0
0
0
0
0
0
0
0
0
0
0
0
0
0
0
0
0
0
0
0
0
0
0
0
0
0
0
0
0
0
0
0
0
0
0
0
0
0
0
0
0
0
0
0
0
0
0
0
0
0
0
0
0
0
0
0
0
0
0
0
0
0
0
0
0
0
0
0
0
0
0
0
0
0
0
0
0
0
0
0
0
0
0
0
0
0
0
0
0
0
0
0
0
0
0
0
0
0
0
0
0
0
0
0
0
0
0
0
0
0
0
0
0
0
0
0
0
0
0
0
0
0
0
0
0
0
0
0
0
0
0
0
0
0
0
0
0
0
0
0
0
0
0
0
0
0
0
0
0
0
0
0
0
0
0
0
0
0
0
0
0
0
0
0
0
0
0
0
0
0
0
0
0
0
0
0
0
0
0
0
0
0
0
0
0
0
0
0
0
0
0
0
0
0
0
0
0
0
0
0
0
0
0
0
0
0
0
0
0
0
0
0
0
0
0
0
0
0
0
0
0
0
0
0
0
0
0
0
0
0
0
0
0
0
0
0
0
0
0
0
0
0
0
0
0
0
0
0
0
0
0
0
0
0
0
0
0
0
0
0
0
0
0
0
0
0
0
0
0
0
0
0
0
0
0
0
0
0
0
0
0
0
0
0
0
0
0
0
0
0
0
0
0
0
0
0
0
0
0
0
0
0
0
0
0
0
0
0
0
0
0
0
0
0
0
0
0
0
0
0
0
0
0
0
0
0
0
0
0
0
0
0
0
0
0
0
0
0
0
0
0
0
0
0
0
0
0
0
0
0
0
0
0
0
0
0
0
0
0
0
0
0
0
0
0
0
0
0
0
0
0
0
0
0
0
0
0
0
0
0
0
0
0
0
0
0
0
0
0
0
0
0
0
0
0
0
0
0
0
0
0
0
0
0
0
0
0
0
0
0
0
0
0
0
0
0
0
0
0
0
0
0
0
0
0
0
0
0
0
0
0
0
0
0
0
0
0
0
0
0
0
0
0
0
0
0
0
0
0
0
0
0
0
0
0
0
0
0
0
0
0
0
0
0
0
0
0
0
0
0
0
0
0
0
0
0
0
0
0
0
0
0
0
0
0
0
0
0
0
0
0
0
0
0
0
0
0
0
0
0
0
0
0
0
0
0
0
0
0
0
0
0
0
0
0
0
0
0
0
0
0
0
0
0
0
0
0
0
0
0
0
0
0
0
0
0
0
0
0
0
0
0
0
0
0
0
0
0
0
0
0
0
0
0
0
0
0
0
0
0
0
0
0
0
0
0
0
0
0
0
0
0
0
0
0
0
0
0
0
0
0
0
0
0
0
0
0
0
0
0
0
0
0
0
0
0
0
0
0
0
0
0
0
0
0
0
0
0
0
0
0
0
0
0
0
0
0
0
0
0
0
0
0
0
0
0
0
0
0
0
0
0
0
0
0
0
0
0
0
0
0
0
0
0
0
0
0
0
0
0
0
0
0
0
0
0
0
0
0
0
0
0
0
0
0
0
0
0
0
0
0
0
0
0
0
0
0
0
0
0
0
0
0
0
0
0
0
0
0
0
0
0
0
0
0
0
0
0
0
0
0
0
0
0
0
0
0
0
0
0
0
0
0
0
0
0
0
0
0
0
0
0
0
0
0
0
0
0
0
0
0
0
0
0
0
0
0
0
0
0
0
0
0
0
0
0
0
0
0
0
0
0
0
0
0
0
0
0
0
0
0
0
0
0
0
0
0
0
0
0
0
0
0
0
0
0
0
0
0
0
0
0
0
0
0
0
0
0
0
0
0
0
0
0
0
0
0
0
0
0
0
0
0
0
0
0
0
0
0
0
0
0
0
0
0
0
0
0
0
0
0
0
0
0
0
0
0
0
0
0
0
0
0
0
0
0
0
0
0
0
0
0
0
0
0
0
0
0
0
0
0
0
0
0
0
0
0
0
0
0
0
0
0
0
0
0
0
0
0
0
0
0
0
0
0
0
0
0
0
0
0
0
0
0
0
0
0
0
0
0
0
0
0
0
0
0
0
0
0
0
0
0
0
0
0
0
0
0
0
0
0
0
0
0
0
0
0
0
0
0
0
0
0
0
0
0
0
0
0
0
0
0
0
0
0
0
0
0
0
0
0
0
0
0
0
0
0
0
0
0
0
0
0
0
0
0
0
0
0
0
0
0
0
0
0
0
0
0
0
0
0
0
0
0
0
0
0
0
0
0
0
0
0
0
0
0
0
0
0
0
0
0
0
0
0
0
0
0
0
0
0
0
0
0
0
0
0
0
0
0
0
0
0
0
0
0
0
0
0
0
0
0
0
0
0
0
0
0
0
0
0
0
0
0
0
0
0
0
0
0
0
0
