0.273517
0.149789
0.0538902
-0.0210754
-0.0804298
-0.127665
-0.164634
-0.192155
-0.210531
-0.220073
-0.2216
-0.21665
-0.207712
-0.19842
-0.19266
-0.193349
-0.201414
-0.215092
-0.229887
-0.239323
-0.236391
-0.207047
-0.138841
-0.0475296
0.0386238
0.090683
0.092038
0.0459839
-0.0259583
-0.0941185
-0.134131
-0.139844
-0.127203
-0.107793
-0.0953033
-0.10136
-0.132152
-0.186853
-0.258217
-0.335051
-0.405584
-0.460789
-0.498193
-0.519518
-0.525385
-0.516556
-0.494238
-0.460022
-0.416008
-0.364941
-0.310204
-0.25548
-0.20419
-0.158903
-0.120901
-0.090094
-0.065329
-0.0450218
-0.0278595
-0.0137566
-0.0045166
-0.00377655
-0.0162682
-0.0466209
-0.0977554
-0.169521
-0.258072
-0.356241
-0.454893
-0.544888
-0.620398
-0.678827
-0.71866
-0.742672
-0.755782
-0.763668
-0.771413
-0.782564
-0.798772
-0.820014
-0.845177
-0.872714
-0.901188
-0.929662
-0.957591
-0.984697
-1.01083
-1.03588
-1.05787
-0.764743
0
1.34248
3.25293
5.52335
7.70829
9.20541
9.48493
8.36778
6.16683
3.56323
1.27553
-0.265625
-1.03636
-1.28801
-1.27147
-1.25845
-1.24938
-1.24614
-1.24976
-1.25995
-1.27481
-1.29093
-1.30391
-1.30941
-1.30441
-1.28686
-1.25852
-1.22419
-1.18968
-1.15995
-1.13769
-1.12277
-1.11269
-1.10369
-1.09205
-1.07542
-1.05294
-1.0243
-0.989754
-0.95022
-0.907149
-0.863135
-0.822246
-0.78904
-0.767386
-0.759066
-0.762618
-0.772874
-0.781528
-0.778653
-0.754758
-0.703696
-0.625693
-0.523273
-0.399224
-0.258179
-0.105917
0.0524063
0.212183
0.370697
0.527505
0.684276
0.844066
1.01013
1.18458
1.36724
1.55504
1.74216
1.92057
2.08147
2.21656
2.31894
2.38345
2.4064
2.38512
2.31754
2.20285
2.04179
1.83549
1.5876
1.30489
0.997275
0.677409
0.358805
0.0541039
-0.224808
-0.466512
-0.666749
-0.82848
-0.958503
-1.0649
-1.15463
-1.23188
-1.29766
-1.35046
-1.3875
-1.40781
-1.41168
-1.39914
-1.37141
-1.33011
-1.27884
-1.22492
-1.17705
-1.14287
-1.1272
-1.13081
-1.15006
-1.17786
-1.20547
-1.22459
-1.23029
-1.22181
-1.19967
-1.16451
-1.11746
-1.06015
-0.994577
-0.923106
-0.848775
-0.775968
-0.710408
-0.657754
-0.622646
-0.607551
-0.611893
-0.631812
-0.660708
-0.69053
-0.713513
-0.724577
-0.722876
-0.708207
-0.683373
-0.655324
-0.631894
-0.619727
-0.622424
-0.639441
-0.66591
-0.693428
-0.711481
-0.709616
-0.681898
-0.625511
-0.525253
-0.350313
-0.101711
0.165706
0.387817
0.513387
0.521045
0.423277
0.2567
0.0653061
-0.114127
-0.264478
-0.389787
-0.495627
-0.584691
-0.658267
-0.716602
-0.761021
-0.792953
-0.813394
-0.822638
-0.820352
-0.805283
-0.772361
-0.722782
-0.675871
-0.659723
-0.701964
-0.818364
-1.00549
-1.24168
-1.49596
-1.74038
-1.91952
-1.22682
0
1.85909
4.38846
7.37058
10.2537
12.2639
12.7066
11.3121
8.42086
4.88132
1.6907
-0.432941
-1.30983
-1.26642
-1.14934
-1.09492
-1.05837
-1.03944
-1.03547
-1.04238
-1.05573
-1.07169
-1.08746
-1.10141
-1.11258
-1.12046
-1.12483
-1.12553
-1.1223
-1.11458
-1.10128
-1.08076
-1.05106
-1.00952
-0.950821
-0.871339
-0.783469
-0.708349
-0.667227
-0.671849
-0.717746
-0.784403
-0.842768
-0.866408
-0.840657
-0.780038
-0.699594
-0.60666
-0.506817
-0.406317
-0.313442
-0.235371
-0.177249
-0.140716
-0.122189
-0.111831
-0.0941551
-0.0506187
0.0363335
0.178567
0.370114
0.600024
0.859512
1.13876
1.42615
1.70981
1.9781
2.22105
2.4311
2.6028
2.73236
2.81719
2.85562
2.84708
2.79138
2.68913
2.5424
2.35534
2.13443
1.88803
1.62545
1.35554
1.08537
0.819462
0.56035
0.309391
0.067881
-0.161937
-0.375838
-0.568803
-0.735675
-0.872602
-0.973296
-1.03886
-1.07626
-1.09459
-1.10256
-1.10668
-1.11047
-1.11492
-1.11954
-1.12323
-1.12475
-1.12236
-1.11349
-1.09483
-1.06315
-1.01673
-0.95666
-0.888066
-0.817248
-0.750569
-0.693557
-0.64963
-0.619412
-0.600829
-0.58989
-0.581893
-0.572726
-0.560036
-0.543123
-0.523077
-0.503108
-0.487395
-0.479758
-0.482568
-0.496031
-0.518048
-0.544625
-0.570671
-0.590956
-0.601503
-0.600162
-0.585661
-0.557391
-0.515688
-0.461816
-0.397854
-0.326389
-0.250233
-0.172766
-0.0969269
-0.0243683
0.0448746
0.112221
0.179816
0.249409
0.321744
0.393689
0.45883
0.509151
0.537234
0.538082
0.509906
0.453976
0.374062
0.276017
0.169403
0.0616875
-0.0399162
-0.128899
-0.199097
-0.245659
-0.271493
-0.283141
-0.288296
-0.293218
-0.301192
-0.312628
-0.326569
-0.342635
-0.362038
-0.387539
-0.422572
-0.469769
-0.529724
-0.600399
-0.677321
-0.754436
-0.82534
-0.88527
-0.763252
0
1.40308
3.64355
6.68926
10.1235
13.1371
14.7829
14.4115
12.0366
8.37977
4.5378
1.47023
-0.375129
-1.10691
-1.147
-1.07498
-1.00451
-0.937361
-0.875066
-0.81899
-0.771548
-0.735201
-0.71158
-0.701356
-0.703201
-0.713106
-0.724562
-0.729855
-0.722212
-0.697781
-0.653931
-0.600383
-0.551707
-0.522019
-0.519706
-0.544361
-0.587038
-0.633485
-0.668858
-0.682627
-0.675383
-0.650653
-0.611037
-0.559196
-0.498173
-0.430981
-0.360386
-0.288919
-0.219061
-0.153557
-0.0949417
-0.0452595
-0.00547333
0.0251522
0.049477
0.0725285
0.101075
0.142763
0.20457
0.290836
0.404471
0.54579
0.712251
0.899141
1.10014
1.30877
1.51947
1.72826
1.93237
2.12851
2.31298
2.48116
2.62518
2.73493
2.80008
2.81163
2.76244
2.64727
2.4635
2.21288
1.90724
1.56128
1.19485
0.830298
0.485529
0.167164
-0.121919
-0.377594
-0.598172
-0.784073
-0.937186
-1.05923
-1.15229
-1.22238
-1.27864
-1.32986
-1.38293
-1.44133
-1.50449
-1.56796
-1.6247
-1.66689
-1.68887
-1.6893
-1.66829
-1.62642
-1.56606
-1.49073
-1.40455
-1.31336
-1.22561
-1.15116
-1.09833
-1.07237
-1.07384
-1.09782
-1.13451
-1.17142
-1.19678
-1.203
-1.19068
-1.16642
-1.13729
-1.11141
-1.09581
-1.09479
-1.10919
-1.13655
-1.17204
-1.20959
-1.24305
-1.26762
-1.27911
-1.27391
-1.24975
-1.20616
-1.14145
-1.05742
-0.966758
-0.885894
-0.830103
-0.809295
-0.825225
-0.871113
-0.93358
-0.996093
-1.04267
-1.06552
-1.0632
-1.03518
-0.981287
-0.902369
-0.800214
-0.675775
-0.523596
-0.323752
-0.0525116
0.254545
0.529327
0.694905
0.702531
0.554645
0.297764
-0.00450039
-0.29239
-0.509235
-0.644965
-0.716574
-0.736549
-0.712491
-0.631798
-0.506963
-0.371869
-0.261741
-0.202777
-0.205098
-0.261514
-0.351891
-0.450672
-0.534207
-0.590983
-0.621765
-0.627817
-0.608668
-0.564443
-0.496436
-0.40617
0
0.956752
2.37493
4.35831
6.871
9.5899
11.8914
13.0504
12.571
10.4602
7.27584
3.90593
1.19818
-0.366748
-0.80322
-0.522434
-0.392157
-0.286532
-0.217191
-0.186935
-0.180073
-0.187117
-0.198861
-0.206775
-0.205073
-0.191606
-0.166946
-0.133669
-0.0956043
-0.0568767
-0.0209249
0.0102549
0.0364666
0.0592379
0.0813641
0.106206
0.13691
0.175709
0.223443
0.279349
0.341139
0.405362
0.467773
0.523245
0.567869
0.599779
0.619945
0.632498
0.644399
0.664381
0.701337
0.762492
0.851192
0.964487
1.09778
1.24498
1.3989
1.55062
1.69235
1.81956
1.93199
2.0338
2.13269
2.23815
2.35952
2.50421
2.67499
2.87136
3.09204
3.33456
3.59956
3.89466
4.22111
4.54617
4.81724
4.98167
5.00724
4.89332
4.66546
4.3583
3.9994
3.60541
3.19745
2.79356
2.40505
2.04198
1.71563
1.43496
1.20506
1.02632
0.894428
0.801469
0.737592
0.692985
0.659526
0.631522
0.606463
0.583969
0.564805
0.550186
0.541229
0.538616
0.542522
0.552784
0.569212
0.591973
0.621867
0.660365
0.709383
0.771265
0.849797
0.950585
1.07599
1.20933
1.31842
1.36997
1.34131
1.23048
1.06055
0.874577
0.72166
0.639279
0.625482
0.650724
0.695853
0.750491
0.8065
0.857087
0.897475
0.925101
0.939349
0.940962
0.930966
0.910078
0.879337
0.840018
0.79377
0.743333
0.693078
0.649055
0.618467
0.608653
0.625858
0.672216
0.747343
0.849689
0.975113
1.11842
1.27228
1.42319
1.5549
1.65328
1.70895
1.71925
1.68877
1.62806
1.55045
1.46825
1.38946
1.3157
1.245
1.1747
1.10281
1.02947
0.957507
0.891949
0.83857
0.802079
0.783022
0.779422
0.788441
0.804078
0.81846
0.823683
0.812975
0.781461
0.72648
0.647565
0.546188
0.425491
0.290414
0.146681
0
-0.0701706
0.633141
2.3057
4.76149
7.45339
9.7297
11.0748
11.2144
10.1402
8.13491
5.7552
3.65539
2.28025
1.64345
1.39777
1.21662
1.06576
0.935434
0.836639
0.775309
0.741764
0.721114
0.699078
0.667639
0.628065
0.589851
0.566066
0.567305
0.59485
0.643228
0.706039
0.776204
0.848497
0.92062
0.992515
1.06452
1.13547
1.20189
1.25895
1.30261
1.33157
1.34805
1.35705
1.36463
1.37628
1.39494
1.42214
1.46004
1.51087
1.57686
1.65987
1.76083
1.87897
2.01157
2.15517
2.30576
2.45923
2.61196
2.76121
2.90527
3.04302
3.174
3.29907
3.42001
3.53961
3.66172
3.791
3.93207
4.08852
4.26659
4.46608
4.67553
4.87821
5.05577
5.19121
5.27041
5.28237
5.21922
5.07717
4.85839
4.57436
4.24293
3.88801
3.53538
3.20324
2.89707
2.62181
2.3807
2.17408
2.00011
1.85573
1.73751
1.64244
1.56837
1.51419
1.47959
1.46451
1.46882
1.49222
1.53313
1.58718
1.64805
1.70881
1.76295
1.80536
1.83292
1.84476
1.8422
1.82846
1.80846
1.78771
1.77138
1.7641
1.76965
1.79069
1.82805
1.88
1.94156
2.00473
2.06016
2.09901
2.11469
2.10426
2.06935
2.01626
1.95511
1.89807
1.85662
1.84334
1.87324
1.94022
2.0249
2.10368
2.15688
2.17454
2.15762
2.11455
2.05575
1.98915
1.91983
1.85046
1.78329
1.72191
1.67079
1.63475
1.61787
1.62432
1.65386
1.70385
1.77046
1.85011
1.94053
2.04096
2.15183
2.2749
2.40738
2.53687
2.64419
2.70854
2.71354
2.65262
2.5317
2.36848
2.1879
2.01544
1.86671
1.74262
1.64077
1.56083
1.501
1.45891
1.43223
1.41878
1.41683
1.42367
1.43507
1.44558
1.44886
1.43826
1.40762
1.34938
1.23545
1.02116
0.724117
0.373258
0
0.194003
1.18337
2.97322
5.38187
8.08129
10.6345
12.5241
13.2496
12.522
10.4584
7.61237
4.76309
2.56484
1.27872
0.749819
0.646919
0.580742
0.517649
0.458238
0.402879
0.351656
0.304292
0.260106
0.218108
0.177071
0.13591
0.094365
0.0536163
0.0166445
-0.0118861
-0.0245135
-0.00185575
0.0781002
0.195073
0.307903
0.372754
0.366742
0.303183
0.228659
0.201924
0.264829
0.405913
0.592972
0.787653
0.951097
1.05734
1.10046
1.09316
1.05876
1.02124
0.998059
0.990907
0.997726
1.01884
1.05492
1.10687
1.17569
1.26276
1.36977
1.49831
1.64934
1.82229
2.0199
2.24003
2.46251
2.6634
2.82255
2.93111
2.99561
3.03706
3.08893
3.30299
3.78141
4.36019
4.8217
5.01242
4.91114
4.6199
4.28415
3.99161
3.71642
3.40212
3.06901
2.73212
2.40094
2.08415
1.78882
1.51962
1.28094
1.07494
0.897901
0.743749
0.605826
0.478639
0.359038
0.24652
0.142656
0.0499915
-0.0290176
-0.092765
-0.140476
-0.171698
-0.185627
-0.180715
-0.15448
-0.0949633
0.0193167
0.183452
0.352181
0.467284
0.481275
0.380823
0.197401
-0.00319624
-0.150416
-0.203109
-0.194811
-0.161737
-0.121635
-0.0898409
-0.0755369
-0.080533
-0.100591
-0.128378
-0.156746
-0.181888
-0.203302
-0.221776
-0.23888
-0.25659
-0.276569
-0.299577
-0.325124
-0.351477
-0.376033
-0.396014
-0.408945
-0.413106
-0.409635
-0.403607
-0.401864
-0.411129
-0.436101
-0.478154
-0.534964
-0.601022
-0.668723
-0.729929
-0.776794
-0.802669
-0.80284
-0.775152
-0.720445
-0.642611
-0.548177
-0.445403
-0.343065
-0.248691
-0.16687
-0.101417
-0.0548986
-0.0287157
-0.0234303
-0.0390682
-0.0752794
-0.131137
-0.2051
-0.295336
-0.399302
-0.513803
-0.635178
-0.759533
-0.88312
-1.00245
-1.11434
-1.21592
-1.30463
-1.37837
-1.43568
-1.47563
-1.49785
-1.50411
-1.50061
-1.49701
-1.50304
-1.52606
-1.56899
-1.62945
-1.70041
-1.77229
-1.83584
-1.88559
-1.87579
-1.15926
0
1.79574
4.32409
7.35896
10.2551
12.1293
12.2662
10.5157
7.41784
3.95166
1.056
-0.780856
-1.62305
-1.87018
-1.91627
-1.9628
-2.00993
-2.05782
-2.10636
-2.155
-2.20265
-2.2476
-2.28755
-2.31976
-2.34129
-2.3493
-2.34139
-2.31579
-2.2696
-2.19748
-2.10145
-2.00058
-1.91801
-1.87354
-1.87595
-1.91879
-1.98213
-2.03984
-2.0692
-2.06189
-2.02894
-1.97879
-1.91528
-1.84135
-1.75865
-1.66665
-1.5593
-1.41324
-1.17216
-0.833576
-0.480968
-0.222305
-0.140832
-0.259728
-0.531884
-0.853142
-1.09143
-1.1282
-0.995268
-0.782882
-0.532681
-0.26
0.0262527
0.31766
0.606317
0.885247
1.14867
1.39214
1.61246
1.80686
1.97163
2.1025
2.197
2.25225
2.26445
2.22933
2.14277
2.00172
1.80504
1.55435
1.25467
0.917311
0.555956
0.184531
-0.182622
-0.529684
-0.84163
-1.10619
-1.31506
-1.46285
-1.53525
-1.51841
-1.42536
-1.30257
-1.1954
-1.13785
-1.1456
-1.21406
-1.32225
-1.44126
-1.54409
-1.61492
-1.65777
-1.68012
-1.68558
-1.67618
-1.65345
-1.62006
-1.58197
-1.54562
-1.51599
-1.49482
-1.4795
-1.4633
-1.4372
-1.38554
-1.29111
-1.17171
-1.06358
-1.00513
-1.01851
-1.09942
-1.22012
-1.34343
-1.43876
-1.49594
-1.52839
-1.54498
-1.54793
-1.53949
-1.52207
-1.49764
-1.4695
-1.44152
-1.41715
-1.3986
-1.38613
-1.37806
-1.37145
-1.36336
-1.35215
-1.33835
-1.32458
-1.31494
-1.31371
-1.32404
-1.34685
-1.38025
-1.41964
-1.45841
-1.48945
-1.50693
-1.50701
-1.48794
-1.4502
-1.39665
-1.3318
-1.26075
-1.18811
-1.11699
-1.04863
-0.982594
-0.917404
-0.851484
-0.784205
-0.719119
-0.665623
-0.636147
-0.641598
-0.686547
-0.766236
-0.866929
-0.969782
-1.05698
-1.11863
-1.15402
-1.17215
-1.18798
-1.21699
-1.26992
-1.34967
-1.4511
-1.5635
-1.67432
-1.77417
-1.86019
-1.93232
-1.9908
-2.03634
-2.07009
-2.0929
-2.10554
-2.10829
-2.10124
-2.08477
-2.0203
-1.2824
0
1.86975
4.27648
6.99664
9.57543
11.3796
11.8089
10.59
7.97442
4.68151
1.58834
-0.656249
-1.86174
-2.25184
-2.22184
-2.20176
-2.18568
-2.17409
-2.16639
-2.16083
-2.15467
-2.1447
-2.1279
-2.10136
-2.06244
-2.0128
-1.96172
-1.92027
-1.89704
-1.8945
-1.90756
-1.92544
-1.93589
-1.92981
-1.90518
-1.86849
-1.82474
-1.77809
-1.73239
-1.69084
-1.65666
-1.63164
-1.61648
-1.61027
-1.60984
-1.60942
-1.60125
-1.57701
-1.52972
-1.45562
-1.35788
-1.23992
-1.10522
-0.957708
-0.801387
-0.639385
-0.474529
-0.309885
-0.150167
-0.000293732
0.136053
0.258243
0.369825
0.478189
0.592707
0.722091
0.872105
1.04159
1.2267
1.42535
1.63752
1.86643
2.11496
2.36928
2.59403
2.74126
2.7689
2.65766
2.41623
2.07524
1.67727
1.26847
0.882885
0.526477
0.197114
-0.105121
-0.377319
-0.616402
-0.81697
-0.977367
-1.09759
-1.1788
-1.22382
-1.23765
-1.22732
-1.20139
-1.16885
-1.13794
-1.11441
-1.10203
-1.10229
-1.1145
-1.13619
-1.16371
-1.19284
-1.21948
-1.24022
-1.25302
-1.25721
-1.25314
-1.24213
-1.22614
-1.20746
-1.18836
-1.17082
-1.15656
-1.14665
-1.14155
-1.14105
-1.14433
-1.15012
-1.15699
-1.16364
-1.16922
-1.1734
-1.17622
-1.1777
-1.17745
-1.17428
-1.16624
-1.15093
-1.1261
-1.09054
-1.04362
-0.986026
-0.923016
-0.866121
-0.828957
-0.823619
-0.856953
-0.927584
-1.02478
-1.12988
-1.22032
-1.27524
-1.28829
-1.25849
-1.19077
-1.09666
-0.991073
-0.888402
-0.798042
-0.722892
-0.661908
-0.609923
-0.559162
-0.500969
-0.424032
-0.302817
-0.0975813
0.178314
0.456069
0.653445
0.70317
0.579624
0.31017
-0.0349443
-0.368789
-0.618788
-0.785098
-0.905163
-0.998115
-1.06928
-1.1195
-1.14967
-1.16084
-1.15407
-1.13125
-1.09577
-1.05219
-1.00659
-0.967157
-0.94215
-0.938506
-0.960708
-1.00997
-1.08394
-1.17713
-1.31148
-1.00647
0
1.77309
4.16364
6.80603
9.14785
10.5715
10.609
9.16942
6.63698
3.7432
1.25031
-0.37846
-1.12374
-1.29646
-1.23385
-1.16774
-1.0999
-1.03226
-0.969385
-0.917163
-0.881234
-0.865218
-0.869451
-0.89058
-0.922031
-0.955023
-0.979741
-0.98907
-0.978281
-0.941882
-0.86248
-0.712454
-0.504714
-0.286551
-0.112177
-0.0225227
-0.0304222
-0.117828
-0.244536
-0.362787
-0.431496
-0.444814
-0.417491
-0.360492
-0.280384
-0.182447
-0.0719391
0.046059
0.167197
0.28825
0.407229
0.523262
0.636313
0.746906
0.855936
0.964657
1.0748
1.18871
1.30938
1.44024
1.58465
1.74526
1.92323
2.11767
2.3254
2.54127
2.75839
2.96877
3.16455
3.33832
3.48278
3.59074
3.65686
3.67749
3.64956
3.57112
3.44227
3.2662
3.04992
2.80419
2.54259
2.27974
2.02712
1.79242
1.58106
1.39449
1.2301
1.08249
0.944957
0.811171
0.676736
0.540232
0.403575
0.272424
0.155362
0.0611412
-0.00356636
-0.0360626
-0.0384445
-0.0170998
0.0189552
0.0603561
0.0995552
0.132272
0.157657
0.177595
0.195385
0.214319
0.236275
0.261754
0.290391
0.321011
0.351801
0.380794
0.406353
0.427464
0.443832
0.455746
0.463749
0.468219
0.469038
0.465499
0.456468
0.440875
0.418338
0.389724
0.35746
0.325476
0.29874
0.282506
0.280959
0.297538
0.336089
0.39916
0.482156
0.569996
0.644691
0.689951
0.695316
0.659219
0.59021
0.505988
0.430193
0.387325
0.389415
0.43498
0.518626
0.640157
0.786448
0.937711
1.07429
1.18088
1.24901
1.27723
1.26925
1.23127
1.16972
1.09312
1.00708
0.914934
0.82011
0.726111
0.636274
0.553288
0.47883
0.413626
0.357357
0.308985
0.267093
0.230161
0.196644
0.164865
0.132811
0.0978138
0.0568203
0.00683136
-0.054414
-0.128647
-0.214719
-0.309535
-0.408778
-0.507301
0
1.13296
2.99712
5.50575
8.2825
10.6846
12.0004
11.7603
9.98785
7.224
4.28607
1.89867
0.415484
-0.224176
-0.312494
-0.195163
-0.0833569
0.0145351
0.091534
0.142656
0.166368
0.165684
0.148155
0.124369
0.105196
0.0986797
0.107212
0.126371
0.150873
0.175655
0.196092
0.209054
0.213453
0.210232
0.20195
0.19217
0.184647
0.182693
0.18914
0.206094
0.234671
0.274875
0.325536
0.38457
0.449362
0.51707
0.585217
0.652295
0.718092
0.783736
0.851406
0.923801
1.00349
1.0923
1.19085
1.29851
1.41382
1.53481
1.6595
1.78637
1.91478
2.04509
2.1786
2.31721
2.46289
2.61708
2.78006
2.95056
3.12568
3.30059
3.46828
3.62086
3.7505
3.85002
3.91344
3.93597
3.91398
3.84492
3.72755
3.56223
3.35155
3.10067
2.81753
2.51262
2.19731
1.88217
1.57625
1.28741
1.02207
0.78519
0.580382
0.410225
0.279668
0.197404
0.16666
0.172559
0.193279
0.207502
0.200563
0.168807
0.120244
0.0710239
0.0388653
0.0390141
0.0785652
0.134428
0.171467
0.160374
0.0939209
-0.00709
-0.101595
-0.145726
-0.102407
0.0537846
0.287764
0.533773
0.728659
0.84289
0.864795
0.782447
0.586947
0.2943
-0.0372471
-0.316488
-0.456845
-0.456834
-0.387574
-0.286932
-0.164742
-0.0381786
0.0714348
0.146704
0.176745
0.159154
0.100723
0.0159317
-0.0769871
-0.161249
-0.225899
-0.272516
-0.306588
-0.331099
-0.348346
-0.360312
-0.368313
-0.372793
-0.37333
-0.36851
-0.355786
-0.331448
-0.29087
-0.229145
-0.139751
-0.00460167
0.187515
0.417034
0.6459
0.835838
0.958658
1.00001
0.957835
0.839688
0.6616
0.447748
0.228044
0.0304939
-0.129498
-0.254719
-0.35471
-0.435474
-0.499251
-0.548172
-0.584078
-0.608419
-0.622446
-0.62741
-0.624918
-0.617709
-0.609374
-0.603719
-0.604111
-0.612844
-0.630705
-0.656853
-0.688996
-0.72377
-0.757236
-0.641466
0
1.38391
3.63724
6.55032
9.53935
11.803
12.631
11.7201
9.3316
6.19216
3.17828
0.952035
-0.2625
-0.662332
-0.699376
-0.761025
-0.820414
-0.872688
-0.913313
-0.93872
-0.946917
-0.937891
-0.913681
-0.878055
-0.835861
-0.792253
-0.751532
-0.716674
-0.68968
-0.671374
-0.661507
-0.658951
-0.661915
-0.66815
-0.675096
-0.680084
-0.68047
-0.673837
-0.658188
-0.632114
-0.595083
-0.547088
-0.488608
-0.420604
-0.344426
-0.261745
-0.174585
-0.0853006
0.00348244
0.0889017
0.168571
0.241219
0.307278
0.369271
0.431769
0.500839
0.58303
0.684108
0.80789
0.954615
1.12192
1.30602
1.50225
1.70555
1.9112
2.11517
2.31413
2.50516
2.68518
2.85141
3.00102
3.13117
3.23902
3.32113
3.37031
3.37963
3.3434
3.25618
3.11454
2.91888
2.67478
2.39305
2.08837
1.77661
1.47114
1.17931
0.905816
0.652013
0.416843
0.198261
-0.00510082
-0.190653
-0.352743
-0.484449
-0.577721
-0.626009
-0.626576
-0.581756
-0.496173
-0.378148
-0.240198
-0.104839
0.00220051
0.0588112
0.0478979
-0.0381941
-0.191854
-0.387328
-0.584342
-0.738203
-0.812908
-0.821412
-0.780916
-0.677371
-0.531444
-0.382804
-0.268558
-0.21104
-0.210723
-0.248023
-0.293887
-0.324375
-0.331813
-0.329972
-0.332789
-0.353949
-0.401239
-0.473536
-0.561065
-0.648355
-0.718682
-0.764241
-0.775103
-0.737239
-0.67167
-0.610758
-0.584934
-0.608556
-0.671841
-0.743652
-0.784414
-0.762982
-0.677089
-0.543904
-0.379905
-0.217167
-0.0868422
-0.0117636
-0.00269604
-0.0573978
-0.161756
-0.292466
-0.420978
-0.518324
-0.568136
-0.569938
-0.503849
-0.285941
0.121726
0.593114
0.998084
1.24698
1.31147
1.21435
1.00018
0.714584
0.408178
0.147425
-0.0372438
-0.161475
-0.248291
-0.313211
-0.362222
-0.39509
-0.409919
-0.40328
-0.371651
-0.306183
-0.201981
-0.0692495
0.0699291
0.190252
0.269339
0.291487
0.249074
0.142529
-0.020187
-0.224378
-0.450086
-0.60351
0
1.71379
4.59103
8.205
11.7308
14.2157
14.9332
13.6654
10.7962
7.17027
3.77211
1.35724
0.197672
0.0593436
0.267068
0.251604
0.225229
0.193973
0.164966
0.145238
0.139991
0.154102
0.185931
0.224404
0.256172
0.271039
0.266057
0.246352
0.22234
0.204781
0.200152
0.207059
0.220107
0.235683
0.251217
0.266384
0.283397
0.306364
0.340015
0.387528
0.449206
0.524099
0.610456
0.704484
0.798399
0.883349
0.952101
1.00096
1.03091
1.04753
1.05985
1.07821
1.11216
1.16664
1.24191
1.33722
1.4511
1.58073
1.72241
1.87225
2.02688
2.18412
2.3435
2.50645
2.67607
2.85651
3.05198
3.26843
3.52032
3.81935
4.12959
4.3938
4.55828
4.59269
4.50141
4.3198
4.09533
3.86309
3.63139
3.39192
3.14297
2.88441
2.61694
2.34409
2.07175
1.80708
1.55675
1.32693
1.12236
0.945859
0.798215
0.679393
0.589612
0.524901
0.473533
0.423522
0.365651
0.296158
0.217959
0.139678
0.072611
0.0266486
0.00557733
0.00763578
0.0266199
0.0538099
0.0811487
0.103863
0.121549
0.137412
0.156132
0.181298
0.213088
0.248644
0.282855
0.309444
0.322541
0.318016
0.294289
0.252523
0.196285
0.130908
0.0627524
-0.00172529
-0.0565318
-0.0970582
-0.120313
-0.124003
-0.106009
-0.0620352
0.0115282
0.108046
0.208438
0.291166
0.337653
0.337148
0.289375
0.204237
0.0989553
-0.00626144
-0.0932816
-0.154519
-0.1907
-0.204981
-0.200976
-0.181939
-0.152668
-0.118004
-0.0818817
-0.0466731
-0.0129333
0.0204044
0.0554842
0.0948124
0.140573
0.193851
0.254696
0.322237
0.394808
0.469688
0.542438
0.607746
0.66018
0.694861
0.708101
0.697891
0.664155
0.608794
0.535548
0.450111
0.358979
0.268122
0.182995
0.108112
0.0462738
-0.00134087
-0.0344563
-0.053779
-0.0606934
-0.0570887
-0.0450377
-0.0271002
-0.0084465
0.0034193
0
-0.0296825
-0.0887348
-0.179638
-0.300697
-0.446312
-0.608088
-0.813796
-0.680921
0.236579
2.31231
5.50844
9.17734
12.2195
13.5736
12.7649
10.1565
6.73391
3.56956
1.32422
0.0810759
-0.456604
-0.622473
-0.438271
-0.251401
-0.0649715
0.111404
0.26173
0.36801
0.415208
0.39602
0.314396
0.187135
0.0424379
-0.0856564
-0.166505
-0.18913
-0.167233
-0.119729
-0.057398
0.00924263
0.0707581
0.12057
0.156077
0.178957
0.194687
0.21152
0.249261
0.388033
0.720051
1.15228
1.52096
1.66135
1.49176
1.06641
0.56043
0.193735
0.131098
0.27182
0.466602
0.678227
0.896564
1.1146
1.3274
1.53186
1.72622
1.90883
2.0795
2.23926
2.39013
2.53529
2.67877
2.82475
2.97643
3.13488
3.29833
3.46214
3.62039
3.76643
3.89368
3.9963
4.06947
4.10849
4.10924
4.06846
3.98329
3.85178
3.67367
3.45131
3.19026
2.89947
2.59073
2.27777
1.97408
1.69193
1.44123
1.22855
1.05672
0.925928
0.835317
0.780412
0.749353
0.730075
0.712358
0.689332
0.65815
0.619745
0.577862
0.537769
0.505128
0.483715
0.476478
0.486766
0.522038
0.601698
0.745869
0.924522
1.08759
1.18215
1.17589
1.07364
0.916678
0.763896
0.663821
0.630437
0.626115
0.630569
0.630168
0.616721
0.589732
0.55575
0.525272
0.508534
0.51015
0.526973
0.555132
0.590704
0.628444
0.663221
0.690925
0.709018
0.716672
0.714566
0.704492
0.688929
0.670781
0.65283
0.63767
0.627594
0.624412
0.629312
0.642846
0.665075
0.695881
0.735347
0.784042
0.84291
0.9141
1.00244
1.11666
1.257
1.39654
1.49717
1.52328
1.458
1.31377
1.13013
0.957408
0.833439
0.760058
0.71128
0.667365
0.611042
0.534866
0.443523
0.3505
0.271366
0.217339
0.183914
0.165546
0.159556
0.162271
0.169637
0.177472
0.181528
0.17807
0.164269
0.138629
0.101297
0.054064
0
-0.0627586
0.370141
1.45413
3.28058
5.68898
8.22479
10.2426
11.1432
10.6442
8.92509
6.5465
4.17457
2.27728
0.981058
0.152663
-0.277767
-0.293038
-0.257236
-0.0646174
0.302749
0.721392
1.03908
1.14277
1.00732
0.705299
0.371625
0.137738
0.0663485
0.0719782
0.0985775
0.132677
0.169619
0.208585
0.252111
0.30444
0.370616
0.457492
0.556484
0.651295
0.725297
0.769605
0.7877
0.793806
0.805609
0.835128
0.882652
0.935882
0.981766
1.00931
1.01422
1.00062
0.979503
0.96509
0.970666
1.00036
1.05341
1.12916
1.22746
1.3479
1.48954
1.65093
1.8299
2.02327
2.22672
2.43481
2.64136
2.84003
3.02531
3.19321
3.3417
3.47053
3.58047
3.672
3.74514
3.79876
3.83009
3.83448
3.80626
3.73987
3.63113
3.47829
3.28277
3.04948
2.78678
2.50597
2.21934
1.93814
1.6726
1.43154
1.22164
1.04696
0.908994
0.80677
0.736815
0.692459
0.66349
0.639888
0.613774
0.580801
0.54079
0.497457
0.457309
0.428017
0.416692
0.42647
0.458977
0.518245
0.611645
0.738086
0.870803
0.977686
1.03013
1.01383
0.93587
0.822892
0.709963
0.626096
0.581825
0.561129
0.553314
0.554395
0.561133
0.571319
0.583852
0.598437
0.615096
0.633631
0.653385
0.673042
0.690509
0.702931
0.707262
0.700754
0.681605
0.649561
0.606291
0.555381
0.501863
0.451357
0.409026
0.378413
0.362731
0.361653
0.373104
0.394327
0.422883
0.457213
0.496612
0.54072
0.588887
0.639796
0.691519
0.74217
0.790381
0.835666
0.878346
0.919008
0.957717
0.993052
1.02153
1.03812
1.03719
1.01402
0.966237
0.89465
0.803307
0.698677
0.588338
0.479548
0.377372
0.284781
0.204105
0.136797
0.0835111
0.0442218
0.0183595
0.00463896
0.000489521
0.00178814
0.00340843
0
-0.00881257
-0.0309768
-0.0682157
-0.120288
-0.185189
-0.259656
-0.33975
-0.427027
-0.101146
0.815979
2.5466
5.10781
8.1599
11.0128
12.844
13.045
11.5074
8.68342
5.38839
2.46527
0.478483
-0.43294
-0.516349
-0.518853
-0.538813
-0.564905
-0.593703
-0.619644
-0.636475
-0.638839
-0.623459
-0.589619
-0.538957
-0.474869
-0.402094
-0.325394
-0.250907
-0.185184
-0.134036
-0.101312
-0.0876382
-0.0896579
-0.100287
-0.110112
-0.109647
-0.0925575
-0.0579982
-0.00669811
0.056984
0.125745
0.191707
0.248409
0.292394
0.324039
0.34743
0.369327
0.397468
0.438522
0.49624
0.570476
0.658853
0.75689
0.859719
0.963813
1.06823
1.17495
1.28821
1.4131
1.5539
1.71234
1.88654
2.07355
2.27
2.47227
2.67713
2.88222
3.08612
3.28804
3.48697
3.68025
3.86081
4.01652
4.13059
4.1843
4.16095
4.04954
3.84765
3.56301
3.21361
2.82572
2.43097
2.05202
1.69939
1.37886
1.09704
0.857402
0.660477
0.504256
0.384162
0.294062
0.227061
0.176179
0.134903
0.0976186
0.0599171
0.0188457
-0.0269104
-0.0768879
-0.129006
-0.179665
-0.224223
-0.25783
-0.276339
-0.277182
-0.259599
-0.224201
-0.174903
-0.11944
-0.0667131
-0.0243444
0.00294333
0.0142082
0.0122151
0.00244384
-0.00852199
-0.0147511
-0.0128277
-0.00252576
0.0145795
0.0362419
0.059519
0.0810799
0.0978165
0.107244
0.10767
0.0982123
0.0786998
0.0495655
0.0117826
-0.0330977
-0.0827895
-0.134319
-0.183372
-0.224739
-0.253241
-0.264781
-0.257379
-0.231803
-0.191535
-0.142015
-0.0893644
-0.0389391
0.00624809
0.0452601
0.0786052
0.108044
0.135898
0.164324
0.194749
0.227773
0.262953
0.299466
0.336913
0.376034
0.419048
0.46947
0.531377
0.608308
0.705231
0.826412
0.965976
1.10441
1.21907
1.29063
1.30852
1.27361
1.19731
1.09745
0.992233
0.894701
0.807537
0.727701
0.652083
0.578796
0.506991
0.437083
0.37069
0.310148
0.257784
0.214893
0.181795
0.157367
0.139281
0.124109
0.107665
0.0861171
0.0568042
0.0188908
-0.0262891
-0.0753145
-0.123221
0
0.838134
2.43483
4.78399
7.67315
10.6373
13.0077
14.1075
13.5394
11.4022
8.28094
4.99847
2.27241
0.474064
-0.402651
-0.558386
-0.54571
-0.529294
-0.508444
-0.480892
-0.443094
-0.39094
-0.314138
-0.199344
-0.0617383
0.0698356
0.164349
0.201695
0.181055
0.119997
0.0451765
-0.0196637
-0.0614178
-0.0859315
-0.0970678
-0.0946442
-0.0772892
-0.0428397
0.0102565
0.0833747
0.173573
0.268706
0.35385
0.416076
0.448825
0.454075
0.44158
0.425725
0.421396
0.437916
0.476222
0.535345
0.614219
0.710787
0.821921
0.943934
1.07308
1.20604
1.34031
1.47444
1.60846
1.74387
1.88338
2.03036
2.18809
2.35902
2.54422
2.7433
2.95412
3.17457
3.40358
3.64158
3.88878
4.13695
4.36096
4.52215
4.57942
4.50313
4.28496
3.94203
3.51567
3.06374
2.64186
2.26643
1.92855
1.62114
1.34421
1.09668
0.876881
0.683227
0.514528
0.370037
0.249344
0.151552
0.0744933
0.0151564
-0.0298804
-0.0638864
-0.0894213
-0.107987
-0.119994
-0.125039
-0.122386
-0.111613
-0.09294
-0.0672524
-0.0362309
-0.00223103
0.031778
0.0622639
0.085907
0.10015
0.103693
0.0968626
0.0817289
0.0618751
0.0418295
0.0262712
0.0191925
0.0225181
0.036449
0.0603582
0.0925965
0.130392
0.169384
0.204628
0.232093
0.249525
0.256884
0.256148
0.250468
0.242923
0.235349
0.227728
0.218522
0.205521
0.186952
0.162463
0.133636
0.103895
0.077905
0.0603516
0.0543009
0.0615176
0.0827158
0.116993
0.162184
0.214161
0.267338
0.316052
0.35557
0.382857
0.396986
0.399132
0.392253
0.380648
0.369573
0.364823
0.372268
0.398706
0.450984
0.535462
0.657031
0.832986
1.10434
1.44759
1.78838
2.04897
2.17767
2.16603
2.04629
1.87205
1.69341
1.53985
1.40781
1.28809
1.17734
1.0752
0.98244
0.900505
0.831006
0.775207
0.734264
0.708058
0.692658
0.682616
0.67215
0.65617
0.630899
0.593979
0.544201
0.481191
0.40533
0.319249
0.225228
0.126709
0.0280448
0
0.769802
2.36397
4.7054
7.52438
10.3622
12.6158
13.6876
13.2236
11.3156
8.51238
5.59351
3.22431
1.69863
0.916113
0.580977
0.537282
0.496327
0.457648
0.421909
0.39001
0.363353
0.343948
0.334243
0.336609
0.352597
0.382182
0.424619
0.475696
0.527752
0.572674
0.603975
0.61857
0.617689
0.606684
0.593811
0.588332
0.598341
0.627251
0.679702
0.760398
0.858252
0.949661
1.01103
1.02733
0.998502
0.940816
0.882006
0.85166
0.870793
0.934589
1.02533
1.13164
1.24563
1.36015
1.46968
1.57112
1.6641
1.75097
1.83628
1.92578
2.02524
2.13936
2.27078
2.41955
2.58363
2.75862
2.9389
3.1194
3.29679
3.46991
3.63856
3.80294
3.96127
4.10229
4.20626
4.2531
4.23086
4.13903
3.9854
3.77991
3.53064
3.25091
2.95487
2.65172
2.34878
2.05329
1.77196
1.5101
1.27192
1.06003
0.875546
0.718095
0.586389
0.478851
0.39382
0.329463
0.284074
0.256007
0.243605
0.245169
0.25895
0.283133
0.315775
0.354647
0.397188
0.440383
0.480344
0.513095
0.535275
0.544915
0.542037
0.528824
0.50926
0.488284
0.470666
0.459624
0.456153
0.46004
0.469481
0.48124
0.491883
0.49869
0.500306
0.496935
0.490086
0.481964
0.474792
0.470217
0.468998
0.471433
0.477446
0.486748
0.498864
0.513057
0.527975
0.540884
0.548263
0.546888
0.535204
0.514421
0.488699
0.464152
0.446904
0.440941
0.446651
0.460709
0.477219
0.490194
0.496076
0.495482
0.493548
0.498791
0.520891
0.56813
0.643892
0.760641
0.921209
1.09732
1.2495
1.34184
1.35263
1.28048
1.14391
0.973572
0.800332
0.644645
0.507078
0.381188
0.263606
0.15392
0.0536461
-0.034388
-0.106567
-0.158155
-0.183957
-0.1807
-0.149526
-0.0982658
-0.0431744
-0.00429039
0
-0.0411846
-0.137487
-0.288164
-0.485423
-0.716108
-0.968703
-0.760236
0.121758
1.79866
4.19186
6.93962
9.42404
10.949
11.0183
9.57772
7.07442
4.27422
1.92387
0.439474
-0.20724
-0.358028
-0.381394
-0.381285
-0.365666
-0.322075
-0.240824
-0.139484
-0.0485315
0.00013752
-0.0137604
-0.0890471
-0.20108
-0.309164
-0.371042
-0.358873
-0.291793
-0.191061
-0.0707928
0.0524239
0.162887
0.248506
0.302375
0.32316
0.314628
0.284739
0.244594
0.206589
0.181382
0.17801
0.202114
0.265449
0.363299
0.476672
0.583989
0.669089
0.726797
0.763583
0.793354
0.830845
0.886079
0.957713
1.04149
1.13627
1.24109
1.35561
1.47994
1.614
1.75686
1.90614
2.05866
2.2112
2.36112
2.50734
2.65087
2.79496
2.94522
3.11612
3.34366
3.63955
3.95082
4.20164
4.33049
4.31683
4.18088
3.95886
3.6752
3.33796
2.97283
2.60879
2.26113
1.93987
1.65096
1.39942
1.18479
1.00237
0.844886
0.704675
0.575744
0.455126
0.343252
0.243371
0.160711
0.100114
0.0648014
0.0553009
0.0691252
0.101229
0.145095
0.194095
0.242675
0.287302
0.325989
0.357468
0.380453
0.393033
0.393192
0.378955
0.349368
0.305583
0.25159
0.194279
0.142676
0.106478
0.0937555
0.116249
0.189795
0.313357
0.456242
0.581746
0.658676
0.670387
0.61865
0.521436
0.405781
0.298703
0.218699
0.165941
0.134266
0.119656
0.120372
0.134589
0.160369
0.194741
0.232852
0.267595
0.291293
0.297779
0.284514
0.254246
0.21544
0.181029
0.165581
0.181653
0.235215
0.326509
0.449435
0.593326
0.745632
0.894437
1.02989
1.13689
1.20371
1.2215
1.18347
1.08819
0.942896
0.764173
0.574469
0.395651
0.242707
0.114139
0.00939999
-0.0740026
-0.137719
-0.181157
-0.20212
-0.197523
-0.164771
-0.113382
-0.0585626
-0.0166482
0
-0.0082366
-0.0451052
-0.103993
-0.176797
-0.255694
-0.335729
-0.414427
-0.489937
-0.435205
0.180877
1.52744
3.63586
6.25935
8.88593
10.8719
11.6598
10.9919
9.02413
6.27909
3.45023
1.14799
-0.294289
-0.874627
-0.786181
-0.721069
-0.665542
-0.624856
-0.600133
-0.588107
-0.582596
-0.57711
-0.566853
-0.552116
-0.537606
-0.529436
-0.531325
-0.541938
-0.554644
-0.559774
-0.548218
-0.515518
-0.46646
-0.405733
-0.337346
-0.266149
-0.197225
-0.134421
-0.0797265
-0.0331928
0.00668502
0.0422296
0.0756877
0.108453
0.140669
0.171359
0.199109
0.223062
0.243871
0.264258
0.28898
0.324179
0.376248
0.449046
0.544126
0.661346
0.798482
0.951983
1.11635
1.28557
1.45496
1.62233
1.78827
1.95575
2.12888
2.31141
2.50516
2.70891
2.9192
3.12895
3.32852
3.50662
3.65205
3.75639
3.81322
3.81792
3.76736
3.66002
3.49642
3.27982
3.01684
2.71792
2.39753
2.06951
1.74504
1.43298
1.14049
0.872615
0.632483
0.42177
0.242414
0.0944571
-0.0226712
-0.10864
-0.164372
-0.194454
-0.204936
-0.202744
-0.19488
-0.187598
-0.18598
-0.192878
-0.20846
-0.229954
-0.251819
-0.266596
-0.266502
-0.241126
-0.179675
-0.0921072
0.00173976
0.0790216
0.122016
0.123967
0.0905674
0.0371556
-0.0167542
-0.0536292
-0.0681437
-0.0628595
-0.039281
-0.00313942
0.0361457
0.0687101
0.0865569
0.0853258
0.0650934
0.0300878
-0.0124821
-0.0540855
-0.0872125
-0.107586
-0.113379
-0.103572
-0.0778286
-0.0388137
0.00735297
0.053374
0.0923926
0.119424
0.132454
0.132949
0.125617
0.117427
0.116035
0.127381
0.154227
0.197863
0.256497
0.323103
0.389724
0.450171
0.502022
0.547066
0.58997
0.63568
0.688025
0.741489
0.781726
0.791514
0.75858
0.681765
0.572434
0.450255
0.335249
0.239926
0.160289
0.0898184
0.0226232
-0.0463917
-0.119319
-0.194153
-0.265114
-0.324255
-0.364155
-0.3745
-0.345914
-0.289756
-0.229201
-0.190164
-0.193353
-0.248667
-0.35371
-0.496224
-0.65859
-0.822031
-0.731372
0
1.48634
3.79408
6.71869
9.75712
12.2156
13.4216
12.9673
10.8905
7.70109
4.21963
1.27716
-0.592341
-1.31266
-1.19977
-1.10034
-1.0074
-0.925401
-0.855776
-0.797134
-0.746561
-0.702198
-0.664117
-0.635107
-0.619344
-0.618985
-0.631241
-0.647684
-0.656419
-0.646246
-0.610816
-0.554541
-0.484154
-0.405474
-0.323915
-0.242899
-0.163268
-0.0838391
-0.00274229
0.0813987
0.16604
0.24369
0.304813
0.341821
0.3527
0.342702
0.32346
0.310014
0.316987
0.352697
0.416166
0.504111
0.613943
0.742618
0.886036
1.04036
1.19893
1.35416
1.50093
1.63824
1.76999
1.90436
2.05154
2.22069
2.41693
2.63718
2.87311
3.11696
3.36043
3.59473
3.81177
4.00477
4.16749
4.29297
4.3738
4.40524
4.38228
4.30039
4.15691
3.95262
3.69305
3.38896
3.0558
2.7123
99
279
461
649
832
1018
1211
1408
1598
1780
1968
2158
2350
2534
2723
2916
3113
3301
3485
3672
3163
3329
3496
3663
3732
0
0
0
0
0
0
0
0
0
0
0
0
0
0
0
0
0
0
0
0
0
0
0
0
0
0
0
0
0
0
0
0
0
0
0
0
0
0
0
0
0
0
0
0
0
0
0
0
0
0
0
0
0
0
0
0
0
0
0
0
0
0
0
0
0
0
0
0
0
0
0
0
0
0
0
0
0
0
0
0
0
0
0
0
0
0
0
0
0
0
0
0
0
0
0
0
0
0
0
0
0
0
0
0
0
0
0
0
0
0
0
0
0
0
0
0
0
0
0
0
0
0
0
0
0
0
0
0
0
0
0
0
0
0
0
0
0
0
0
0
0
0
0
0
0
0
0
0
0
0
0
0
0
0
0
0
0
0
0
0
0
0
0
0
0
0
0
0
0
0
0
0
0
0
0
0
0
0
0
0
0
0
0
0
0
0
0
0
0
0
0
0
0
0
0
0
0
0
0
0
0
0
0
0
0
0
0
0
0
0
0
0
0
0
0
0
0
0
0
0
0
0
0
0
0
0
0
0
0
0
0
0
0
0
0
0
0
0
0
0
0
0
0
0
0
0
0
0
0
0
0
0
0
0
0
0
0
0
0
0
0
0
0
0
0
0
0
0
0
0
0
0
0
0
0
0
0
0
0
0
0
0
0
0
0
0
0
0
0
0
0
0
0
0
0
0
0
0
0
0
0
0
0
0
0
0
0
0
0
0
0
0
0
0
0
0
0
0
0
0
0
0
0
0
0
0
0
0
0
0
0
0
0
0
0
0
0
0
0
0
0
0
0
0
0
0
0
0
0
0
0
0
0
0
0
0
0
0
0
0
0
0
0
0
0
0
0
0
0
0
0
0
0
0
0
0
0
0
0
0
0
0
0
0
0
0
0
0
0
0
0
0
0
0
0
0
0
0
0
0
0
0
0
0
0
0
0
0
0
0
0
0
0
0
0
0
0
0
0
0
0
0
0
0
0
0
0
0
0
0
0
0
0
0
0
0
0
0
0
0
0
0
0
0
0
0
0
0
0
0
0
0
0
0
0
0
0
0
0
0
0
0
0
0
0
0
0
0
0
0
0
0
0
0
0
0
0
0
0
0
0
0
0
0
0
0
0
0
0
0
0
0
0
0
0
0
0
0
0
0
0
0
0
0
0
0
0
0
0
0
0
0
0
0
0
0
0
0
0
0
0
0
0
0
0
0
0
0
0
0
0
0
0
0
0
0
0
0
0
0
0
0
0
0
0
0
0
0
0
0
0
0
0
0
0
0
0
0
0
0
0
0
0
0
0
0
0
0
0
0
0
0
0
0
0
0
0
0
0
0
0
0
0
0
0
0
0
0
0
0
0
0
0
0
0
0
0
0
0
0
0
0
0
0
0
0
0
0
0
0
0
0
0
0
0
0
0
0
0
0
0
0
0
0
0
0
0
0
0
0
0
0
0
0
0
0
0
0
0
0
0
0
0
0
0
0
0
0
0
0
0
0
0
0
0
0
0
0
0
0
0
0
0
0
0
0
0
0
0
0
0
0
0
0
0
0
0
0
0
0
0
0
0
0
0
0
0
0
0
0
0
0
0
0
0
0
0
0
0
0
0
0
0
0
0
0
0
0
0
0
0
0
0
0
0
0
0
0
0
0
0
0
0
0
0
0
0
0
0
0
0
0
0
0
0
0
0
0
0
0
0
0
0
0
0
0
0
0
0
0
0
0
0
0
0
0
0
0
0
0
0
0
0
0
0
0
0
0
0
0
0
0
0
0
0
0
0
0
0
0
0
0
0
0
0
0
0
0
0
0
0
0
0
0
0
0
0
0
0
0
0
0
0
0
0
0
0
0
0
0
0
0
0
0
0
0
0
0
0
0
0
0
0
0
0
0
0
0
0
0
0
0
0
0
0
0
0
0
0
0
0
0
0
0
0
0
0
0
0
0
0
0
0
0
0
0
0
0
0
0
0
0
0
0
0
0
0
0
0
0
0
0
0
0
0
0
0
0
0
0
0
0
0
0
0
0
0
0
0
0
0
0
0
0
0
0
0
0
0
0
0
0
0
0
0
0
0
0
0
0
0
0
0
0
0
0
0
0
0
0
0
0
0
0
0
0
0
0
0
0
0
0
0
0
0
0
0
0
0
0
0
0
0
0
0
0
0
0
0
0
0
0
0
0
0
0
0
0
0
0
0
0
0
0
0
0
0
0
0
0
0
0
0
0
0
0
0
0
0
0
0
0
0
0
0
0
0
0
0
0
0
0
0
0
0
0
0
0
0
0
0
0
0
0
0
0
0
0
0
0
0
0
0
0
0
0
0
0
0
0
0
0
0
0
0
0
0
0
0
0
0
0
0
0
0
0
0
0
0
0
0
0
0
0
0
0
0
0
0
0
0
0
0
0
0
0
0
0
0
0
0
0
0
0
0
0
0
0
0
0
0
0
0
0
0
0
0
0
0
0
0
0
0
0
0
0
0
0
0
0
0
0
0
0
0
0
0
0
0
0
0
0
0
0
0
0
0
0
0
0
0
0
0
0
0
0
0
0
0
0
0
0
0
0
0
0
0
0
0
0
0
0
0
0
0
0
0
0
0
0
0
0
0
0
0
0
0
0
0
0
0
0
0
0
0
0
0
0
0
0
0
0
0
0
0
0
0
0
0
0
0
0
0
0
0
0
0
0
0
0
0
0
0
0
0
0
0
0
0
0
0
0
0
0
0
0
0
0
0
0
0
0
0
0
0
0
0
0
0
0
0
0
0
0
0
0
0
0
0
0
0
0
0
0
0
0
0
0
0
0
0
0
0
0
0
0
0
0
0
0
0
0
0
0
0
0
0
0
0
0
0
0
0
0
0
0
0
0
0
0
0
0
0
0
0
0
0
0
0
0
0
0
0
0
0
0
0
0
0
0
0
0
0
0
0
0
0
0
0
0
0
0
0
0
0
0
0
0
0
0
0
0
0
0
0
0
0
0
0
0
0
0
0
0
0
0
0
0
0
0
0
0
0
0
0
0
0
0
0
0
0
0
0
0
0
0
0
0
0
0
0
0
0
0
0
0
0
0
0
0
0
0
0
0
0
0
0
0
0
0
0
0
0
0
0
0
0
0
0
0
0
0
0
0
0
0
0
0
0
0
0
0
0
0
0
0
0
0
0
0
0
0
0
0
0
0
0
0
0
0
0
0
0
0
0
0
0
0
0
0
0
0
0
0
0
0
0
0
0
0
0
0
0
0
0
0
0
0
0
0
0
0
0
0
0
0
0
0
0
0
0
0
0
0
0
0
0
0
0
0
0
0
0
0
0
0
0
0
0
0
0
0
0
0
0
0
0
0
0
0
0
0
0
0
0
0
0
0
0
0
0
0
0
0
0
0
0
0
0
0
0
0
0
0
0
0
0
0
0
0
0
0
0
0
0
0
0
0
0
0
0
0
0
0
0
0
0
0
0
0
0
0
0
0
0
0
0
0
0
0
0
0
0
0
0
0
0
0
0
0
0
0
0
0
0
0
0
0
0
0
0
0
0
0
0
0
0
0
0
0
0
0
0
0
0
0
0
0
0
0
0
0
0
0
0
0
0
0
0
0
0
0
0
0
0
0
0
0
0
0
0
0
0
0
0
0
0
0
0
0
0
0
0
0
0
0
0
0
0
0
0
0
0
0
0
0
0
0
0
0
0
0
0
0
0
0
0
0
0
0
0
0
0
0
0
0
0
0
0
0
0
0
0
0
0
0
0
0
0
0
0
0
0
0
0
0
0
0
0
0
0
0
0
0
0
0
0
0
0
0
0
0
0
0
0
0
0
0
0
0
0
0
0
0
0
0
0
0
0
0
0
0
0
0
0
0
0
0
0
0
0
0
0
0
0
0
0
0
0
0
0
0
0
0
0
0
0
0
0
0
0
0
0
0
0
0
0
0
0
0
0
0
0
0
0
0
0
0
0
0
0
0
0
0
0
0
0
0
0
0
0
0
0
0
0
0
0
0
0
0
0
0
0
0
0
0
0
0
0
0
0
0
0
0
0
0
0
0
0
0
0
0
0
0
0
0
0
0
0
0
0
0
0
0
0
0
0
0
0
0
0
0
0
0
0
0
0
0
0
0
0
0
0
0
0
0
0
0
0
0
0
0
0
0
0
0
0
0
0
0
0
0
0
0
0
0
0
0
0
0
0
0
0
0
0
0
0
0
0
0
0
0
0
0
0
0
0
0
0
0
0
0
0
0
0
0
0
0
0
0
0
0
0
0
0
0
0
0
0
0
0
0
0
0
0
0
0
0
0
0
0
0
0
0
0
0
0
0
0
0
0
0
0
0
0
0
0
0
0
0
0
0
0
0
0
0
0
0
0
0
0
0
0
0
0
0
0
0
0
0
0
0
0
0
0
0
0
0
0
0
0
0
0
0
0
0
0
0
0
0
0
0
0
0
0
0
0
0
0
0
0
0
0
0
0
0
0
0
0
0
0
0
0
0
0
0
0
0
0
0
0
0
0
0
0
0
0
0
0
0
0
0
0
0
0
0
0
0
0
0
0
0
0
0
0
0
0
0
0
0
0
0
0
0
0
0
0
0
0
0
0
0
0
0
0
0
0
0
0
0
0
0
0
0
0
0
0
0
0
0
0
0
0
0
0
0
0
0
0
0
0
0
0
0
0
0
0
0
0
0
0
0
0
0
0
0
0
0
0
0
0
0
0
0
0
0
0
0
0
0
0
0
0
0
0
0
0
0
0
0
0
0
0
0
0
0
0
0
0
0
0
0
0
0
0
0
0
0
0
0
0
0
0
0
0
0
0
0
0
0
0
0
0
0
0
0
0
0
0
0
0
0
0
0
0
0
0
0
0
0
0
0
0
0
0
0
0
0
0
0
0
0
0
0
0
0
0
0
0
0
0
0
0
0
0
0
0
0
0
0
0
0
0
0
0
0
0
0
0
0
0
0
0
0
0
0
0
0
0
0
0
0
0
0
0
0
0
0
0
0
0
0
0
0
0
0
0
0
0
0
0
0
0
0
0
0
0
0
0
0
0
0
0
0
0
0
0
0
0
0
0
0
0
0
0
0
0
0
0
0
0
0
0
0
0
0
0
0
0
0
0
0
0
0
0
0
0
0
0
0
0
0
0
0
0
0
0
0
0
0
0
0
0
0
0
0
0
0
0
0
0
0
0
0
0
0
0
0
0
0
0
0
0
0
0
0
0
0
0
0
0
0
0
0
0
0
0
0
0
0
0
0
0
0
0
0
0
0
0
0
0
0
0
0
0
0
0
0
0
0
0
0
0
0
0
0
0
0
0
0
0
0
0
0
0
0
0
0
0
0
0
0
0
0
0
0
0
0
0
0
0
0
0
0
0
0
0
0
0
0
0
0
0
0
0
0
0
0
0
0
0
0
0
0
0
0
0
0
0
0
0
0
0
0
0
0
0
0
0
0
0
0
0
0
0
0
0
0
0
0
0
0
0
0
0
0
0
0
0
0
0
0
0
0
0
0
0
0
0
0
0
0
0
0
0
0
0
0
0
0
0
0
0
0
0
0
0
0
0
0
0
0
0
0
0
0
0
0
0
0
0
0
0
0
0
0
0
0
0
0
0
0
0
0
0
0
0
0
0
0
0
0
0
0
0
0
0
0
0
0
0
0
0
0
0
0
0
0
0
0
0
0
0
0
0
0
0
0
0
0
0
0
0
0
0
0
0
0
0
0
0
0
0
0
0
0
0
0
0
0
0
0
0
0
0
0
0
0
0
0
0
0
0
0
0
0
0
0
0
0
0
0
0
0
0
0
0
0
0
0
0
0
0
0
0
0
0
0
0
0
0
0
0
0
0
0
0
0
0
0
0
0
0
0
0
0
0
0
0
0
0
0
0
0
0
0
0
0
0
0
0
0
0
0
0
0
0
0
0
0
0
0
0
0
0
0
0
0
0
0
0
0
0
0
0
0
0
0
0
0
0
0
0
0
0
0
0
0
0
0
0
0
0
0
0
0
0
0
0
0
0
0
0
0
0
0
0
0
0
0
0
0
0
0
0
0
0
0
0
0
0
0
0
0
0
0
0
0
0
0
0
0
0
0
0
0
0
0
0
0
0
0
0
0
0
0
0
0
0
0
0
0
0
0
0
0
0
0
0
0
0
0
0
0
0
0
0
0
0
0
0
0
0
0
0
0
0
0
0
0
0
0
0
0
0
0
0
0
0
0
0
0
0
0
0
0
0
0
0
0
0
0
0
0
0
0
0
0
0
0
0
0
0
0
0
0
0
0
0
0
0
0
0
0
0
0
0
0
0
0
0
0
0
0
0
0
0
0
0
0
0
0
0
0
0
0
0
0
0
0
0
0
0
0
0
0
0
0
0
0
0
0
0
0
0
0
0
0
0
0
0
0
0
0
0
0
0
0
0
0
0
0
0
0
0
0
0
0
0
0
0
0
0
0
0
0
0
0
0
0
0
0
0
0
0
0
0
0
0
0
0
0
0
0
0
0
0
0
0
0
0
0
0
0
0
0
0
0
0
0
0
0
0
0
0
0
0
0
0
0
0
0
0
0
0
0
0
0
0
0
0
0
0
0
0
0
0
0
0
0
0
0
0
0
0
0
0
0
0
0
0
0
0
0
0
0
0
0
0
0
0
0
0
0
0
0
0
0
0
0
0
0
0
0
0
0
0
0
0
0
0
0
0
0
0
0
0
0
0
0
0
0
0
0
0
0
0
0
0
0
0
0
0
0
0
0
0
0
0
0
0
0
0
0
0
0
0
0
0
0
0
0
0
0
0
0
0
0
0
0
0
0
0
0
0
0
0
0
0
0
0
0
0
0
0
0
0
0
0
0
0
0
0
0
0
0
0
0
0
0
0
0
0
0
0
0
0
0
0
0
0
0
0
0
0
0
0
0
0
0
0
0
0
0
0
0
0
0
0
0
0
0
0
0
0
0
0
0
0
0
0
0
0
0
0
0
0
0
0
0
0
0
0
0
0
0
0
0
0
0
0
0
0
0
0
0
0
0
0
0
0
0
0
0
0
0
0
0
0
0
0
0
0
0
0
0
0
0
0
0
0
0
0
0
0
0
0
0
0
0
0
0
0
0
0
0
0
0
0
0
0
0
0
0
0
0
0
0
0
0
0
0
0
0
0
0
0
0
0
0
0
0
0
0
0
0
0
0
0
0
0
0
0
0
0
0
0
0
0
0
0
0
0
0
0
0
0
0
0
0
0
0
0
0
0
0
0
0
0
0
0
0
0
0
0
0
0
0
0
0
0
0
0
0
0
0
0
0
0
0
0
0
0
0
0
0
0
0
0
0
0
0
0
0
0
0
0
0
0
0
0
0
0
0
0
0
0
0
0
0
0
0
0
0
0
0
0
0
0
0
0
0
0
0
0
0
0
0
0
0
0
0
0
0
0
0
0
0
0
0
0
0
0
0
0
0
0
0
0
0
0
0
0
0
0
0
0
0
0
0
0
0
0
0
0
0
0
0
0
0
0
0
0
0
0
0
0
0
0
0
0
0
0
0
0
0
0
0
0
0
0
0
0
0
0
0
0
0
0
0
0
0
0
0
0
0
0
0
0
0
0
0
0
0
0
0
0
0
0
0
0
0
0
0
0
0
0
0
0
0
0
0
0
0
0
0
0
0
0
0
0
0
0
0
0
0
0
0
0
0
0
0
0
0
0
0
0
0
0
0
0
0
0
0
0
0
0
0
0
0
0
0
0
0
0
0
0
0
0
0
0
0
0
0
0
0
0
0
0
0
0
0
0
0
0
0
0
0
0
0
0
0
0
0
0
0
0
0
0
0
0
0
0
0
0
0
0
0
0
0
0
0
0
0
0
0
0
0
0
0
0
0
0
0
0
0
0
0
0
0
0
0
0
0
0
0
0
0
0
0
0
0
0
0
0
0
0
0
0
0
0
0
0
0
0
0
0
0
0
0
0
0
0
0
0
0
0
0
0
0
0
0
0
0
0
0
0
0
0
0
0
0
0
0
0
0
0
0
0
0
0
0
0
0
0
0
0
0
0
0
0
0
0
0
0
0
0
0
0
0
0
0
0
0
0
0
0
0
0
0
0
0
0
0
0
0
0
0
0
0
0
0
0
0
0
0
0
0
0
0
0
0
0
0
0
0
0
0
0
0
0
0
0
0
0
0
0
0
0
0
0
0
0
0
0
0
0
0
0
0
0
0
0
0
0
0
0
0
0
0
0
0
0
0
0
0
0
0
0
0
0
0
0
0
0
0
0
0
0
0
0
0
0
0
0
0
0
0
0
0
0
0
0
0
0
0
0
0
0
0
0
0
0
0
0
0
0
0
0
0
0
0
0
0
0
0
0
0
0
0
0
0
0
0
0
0
0
0
0
0
0
0
0
0
0
0
0
0
0
0
0
0
0
0
0
0
0
0
0
0
0
0
0
0
0
0
0
0
