-2.99305
-3.07391
-3.14152
-3.1959
-3.23742
-3.26646
-3.28335
-3.28831
-3.28146
-3.26299
-3.23325
-3.193
-3.14385
-3.08784
-3.02748
-2.9658
-2.90557
-2.8487
-2.7956
-2.74492
-2.69366
-2.63771
-2.57271
-2.49522
-2.40378
-2.29892
-2.18304
-2.05986
-1.9346
-1.81202
-1.69507
-1.58394
-1.47584
-1.36478
-1.22795
-1.00754
-0.724387
-0.45584
-0.29545
-0.300945
-0.462397
-0.706815
-0.931746
-1.04619
-1.01658
-0.92093
-0.78175
-0.624698
-0.483263
-0.387752
-0.356953
-0.393382
-0.484376
-0.608452
-0.743489
-0.872824
-0.991495
-1.10063
-1.20083
-1.29201
-1.37423
-1.44774
-1.51297
-1.57048
-1.62089
-1.66496
-1.70364
-1.73816
-1.77006
-1.80115
-1.8333
-1.86814
-1.90661
-1.94864
-1.99302
-2.03731
-2.07802
-2.11153
-2.13476
-2.1458
-2.1441
-2.13038
-2.10625
-2.0738
-2.03551
-1.99345
-1.95064
-1.91156
-1.88108
-1.86344
-1.8608
-1.8722
-1.89319
-1.91658
-1.93385
-1.93683
-1.92213
-1.88905
-1.83393
-1.74881
-1.62209
-1.45231
-1.26694
-1.10506
-1.00453
-0.991575
-1.07299
-1.23288
-1.43375
-1.62151
-1.73469
-1.74831
-1.68033
-1.5528
-1.37022
-1.13876
-0.861077
-0.538787
-0.182137
0.17294
0.495601
0.769706
0.952899
0.985747
0.833632
0.525936
0.161266
-0.12936
-0.247251
-0.253125
-0.232851
-0.211267
-0.202185
-0.214638
-0.251719
-0.311263
-0.388072
-0.476748
-0.573654
-0.677144
-0.787837
-0.910179
-1.05056
-1.21076
-1.38047
-1.54065
-1.67353
-1.76989
-1.83209
-1.86764
-1.37614
0
2.6709
6.72493
11.5404
15.9143
18.5311
18.5683
16.0814
11.9405
7.387
3.49755
0.842899
-0.543113
-0.972516
-0.855023
-0.763092
-0.698099
-0.681549
-0.725411
-0.829411
-0.980891
-1.15752
-1.33246
-1.48078
-1.59333
-1.6675
-1.70365
-1.70732
-1.68709
-1.65204
-1.61006
-1.56607
-1.52194
-1.47797
-1.43362
-1.38787
-1.33966
-1.28803
-1.23233
-1.17215
-1.10739
-1.0381
-0.964392
-0.887801
-0.814975
-0.757195
-0.726973
-0.733271
-0.776685
-0.847193
-0.92602
-0.991156
-1.02416
-1.02005
-0.988898
-0.933671
-0.854637
-0.759773
-0.671361
-0.614667
-0.613105
-0.68137
-0.818533
-1.00627
-1.21477
-1.41349
-1.58042
-1.71835
-1.83677
-1.93956
-2.02743
-2.10052
-2.16025
-2.21051
-2.2553
-2.29798
-2.34057
-2.38367
-2.42712
-2.4711
-2.51772
-2.57172
-2.63911
-2.72398
-2.82517
-2.93456
-3.03747
-3.11687
-3.15853
-3.15524
-3.10829
-3.02578
-2.91901
-2.79884
-2.67483
-2.55198
-2.43524
-2.32942
-2.23862
-2.16558
-2.1104
-2.06986
-2.03772
-2.00626
-1.96831
-1.9191
-1.85877
-1.78906
-1.71109
-1.62557
-1.53213
-1.42915
-1.31399
-1.18379
-1.0365
-0.871769
-0.691556
-0.500106
-0.303253
-0.107577
0.0805883
0.256039
0.415216
0.556337
0.67918
0.784488
0.873941
0.949926
1.01528
1.07326
1.12742
1.18143
1.23866
1.30167
1.37178
1.44863
1.53037
1.61402
1.6954
1.77022
1.83485
1.88676
1.92446
1.94704
1.95073
1.93149
1.88525
1.80732
1.69423
1.54593
1.36735
1.16852
0.963195
0.766148
0.587854
0.433016
0.304858
0.20271
0.122373
0.0575153
0
-0.0699974
-0.156739
-0.269778
-0.414472
-0.590642
-0.792139
-1.00772
-0.938368
0.165174
2.64303
6.42503
10.9006
15.0536
17.8337
18.5559
17.1165
13.9749
9.97371
6.08014
3.08826
1.36244
0.758006
0.8006
0.861272
0.912888
0.951635
0.972904
0.97421
0.955557
0.919688
0.872077
0.820558
0.774487
0.743454
0.735741
0.755376
0.801676
0.871448
0.961274
1.06599
1.17966
1.2967
1.41244
1.5218
1.61566
1.68329
1.71153
1.6849
1.59412
1.44629
1.27009
1.11145
1.02012
1.03283
1.14154
1.33658
1.59452
1.88797
2.19581
2.5075
2.82178
3.1402
3.46459
3.79537
4.13041
4.46465
4.78994
5.09547
5.37197
5.61324
5.8176
5.98808
6.13128
6.25542
6.368
6.47407
6.57556
6.67144
6.7591
6.83582
6.90009
6.95226
6.99452
7.03019
7.06269
7.0946
7.12702
7.15965
7.19102
7.21887
7.24123
7.25716
7.26716
7.27323
7.27834
7.2856
7.29741
7.31527
7.33855
7.36571
7.39564
7.42902
7.46895
7.52059
7.58966
7.68044
7.7935
7.92296
8.06519
8.2096
8.34201
8.45074
8.52988
8.58068
8.6105
8.6295
8.64598
8.66363
8.6781
8.68143
8.66895
8.64452
8.62083
8.61569
8.65756
8.7352
8.80972
8.83675
8.79313
8.69146
8.57422
8.49261
8.48371
8.5419
8.6361
8.75328
8.88961
9.04305
9.2124
9.3972
9.59723
9.81203
10.0406
10.2812
10.5314
10.7887
11.0502
11.3121
11.5655
11.7937
11.9767
12.0908
12.1156
12.0455
11.8957
11.6983
11.488
11.2875
11.1003
10.9211
10.7478
10.5816
10.4253
10.2824
10.1568
10.0529
9.97212
9.90867
9.85088
9.78373
9.68847
9.45955
9.08074
8.61413
8.14448
7.73988
8.65753
10.4337
12.3915
13.798
14.3292
14.2096
13.9439
13.8949
14.0319
13.9963
13.3978
12.1244
10.4568
8.91374
7.94553
7.72603
7.53442
7.3461
7.15984
6.97461
6.78979
6.60541
6.42228
6.242
6.06708
5.90164
5.75013
5.61677
5.50504
5.41694
5.35266
5.31065
5.28813
5.28174
5.28808
5.30318
5.32503
5.35069
5.37597
5.39698
5.41119
5.41871
5.42292
5.43012
5.44792
5.48298
5.53876
5.61178
5.69874
5.7909
5.8763
5.94335
5.983
5.99011
5.96387
5.90735
5.82662
5.72974
5.62585
5.52393
5.4308
5.35154
5.29004
5.24795
5.22442
5.21615
5.21793
5.2235
5.2265
5.2215
5.20425
5.17187
5.12267
5.0559
4.97151
4.87106
4.7566
4.63034
4.49515
4.3544
4.21152
4.06964
3.9312
3.79796
3.67115
3.55184
3.44124
3.34076
3.25191
3.17638
3.11558
3.06846
3.03248
3.00425
2.9805
2.959
2.93914
2.92214
2.91063
2.90786
2.91606
2.93613
2.96832
3.01198
3.06242
3.11231
3.15492
3.18654
3.20809
3.22563
3.24922
3.29435
3.4083
3.60666
3.83289
4.00447
4.05562
3.97151
3.79514
3.60233
3.45818
3.38008
3.32067
3.25532
3.16991
3.05673
2.91335
2.74788
2.57956
2.43096
2.32172
2.26563
2.26967
2.33461
2.45573
2.62369
2.82561
3.04664
3.27145
3.48882
3.68975
3.86261
3.99641
4.08389
4.11905
4.09796
4.02032
3.89056
3.71801
3.51547
3.29668
3.074
2.8551
2.64297
2.43959
2.2471
2.06728
1.90168
1.75099
1.6145
1.48972
1.37209
1.25505
1.12845
0.955821
0.705037
0.376682
0
-0.103765
0.928884
3.26102
6.34498
9.22559
11.1535
11.9334
11.7383
10.7223
8.92671
6.53606
4.06002
2.10742
0.955711
0.40293
0.177764
0.106248
0.0507378
0.0120781
-0.0135933
-0.0324821
-0.0513412
-0.0753418
-0.106444
-0.142777
-0.179133
-0.208263
-0.223908
-0.222867
-0.203303
-0.164399
-0.10674
-0.0325439
0.0549782
0.151801
0.254066
0.358627
0.463206
0.56584
0.663233
0.749921
0.818441
0.860476
0.871029
0.852487
0.815885
0.778223
0.756865
0.763818
0.796159
0.845326
0.907283
0.978322
1.05466
1.13316
1.21026
1.28149
1.34238
1.38865
1.4174
1.42826
1.42411
1.41068
1.39497
1.38315
1.37824
1.37903
1.38217
1.38241
1.37413
1.35291
1.31695
1.26768
1.20974
1.15011
1.09642
1.05495
1.03006
1.02305
1.03199
1.05231
1.07797
1.103
1.12285
1.13499
1.13898
1.13608
1.12865
1.11947
1.11084
1.10438
1.10099
1.10083
1.10333
1.10712
1.11016
1.11033
1.1059
1.09598
1.08069
1.06103
1.0386
1.01506
0.991808
0.969672
0.94911
0.930368
0.913661
0.899282
0.887598
0.878972
0.873637
0.871726
0.873329
0.878575
0.887714
0.901102
0.919048
0.941561
0.968088
0.997285
1.02667
1.05248
1.07062
1.0777
1.07209
1.05482
1.02985
1.00377
0.984755
0.981152
0.999454
1.04351
1.11498
1.21269
1.33296
1.4702
1.61768
1.76876
1.91693
2.05624
2.17983
2.27823
2.34195
2.36373
2.33666
2.25591
2.12095
1.93719
1.71615
1.47387
1.22823
0.993937
0.776949
0.582382
0.413999
0.274081
0.162867
0.074485
0
-0.0494148
-0.115768
-0.295197
-0.659995
-1.14736
-1.68112
-1.80584
-0.991118
1.08558
4.24783
7.7839
10.8178
12.7713
13.5028
13.0839
11.5756
9.11206
6.14418
3.4301
1.63896
0.922049
0.882711
0.838548
0.724153
0.60584
0.487105
0.372088
0.265237
0.170851
0.0925728
0.0331474
-0.00564423
-0.0238289
-0.0241341
-0.0108505
0.0111549
0.0372864
0.0639008
0.0887093
0.110907
0.131089
0.151091
0.173688
0.20287
0.242997
0.297879
0.369982
0.459573
0.5643
0.67949
0.799139
0.917322
1.02951
1.13364
1.22951
1.31837
1.40202
1.48211
1.55947
1.63388
1.70444
1.76985
1.82865
1.87941
1.92085
1.95181
1.97133
1.97872
1.97376
1.95698
1.92961
1.89386
1.85282
1.81009
1.76926
1.73324
1.70426
1.68239
1.66378
1.64267
1.61317
1.57122
1.51595
1.44996
1.37833
1.30676
1.23935
1.17684
1.11859
1.06233
1.00531
0.945448
0.882446
0.818182
0.756487
0.702228
0.660044
0.633551
0.624527
0.631252
0.648366
0.669012
0.686539
0.696055
0.695501
0.686027
0.671691
0.65863
0.653913
0.663445
0.692139
0.743356
0.818096
0.91471
1.02895
1.15581
1.28636
1.41091
1.52105
1.61101
1.67834
1.72377
1.75044
1.7628
1.76573
1.76443
1.76301
1.7653
1.77476
1.79419
1.8253
1.86876
1.92354
1.98768
2.05902
2.13589
2.21735
2.30317
2.3933
2.48748
2.58468
2.68374
2.7833
2.88187
2.97744
3.06692
3.14655
3.21138
3.2556
3.27322
3.25899
3.20934
3.12292
3.00104
2.84768
2.67141
2.48099
2.28439
2.08896
1.90111
1.72618
1.56795
1.428
1.30557
1.19766
1.09907
1.00321
0.90154
0.777841
0.61273
0.40894
0.182177
0
0.336903
1.61677
4.20249
8.0575
12.5083
16.3277
18.198
17.3485
13.9983
9.30722
4.83365
1.80802
0.63702
0.89155
1.70348
1.85367
1.87916
1.74434
1.51057
1.28323
1.14418
1.11313
1.11342
1.12085
1.12869
1.13304
1.13321
1.13107
1.12962
1.13154
1.13796
1.14709
1.15556
1.16043
1.16124
1.16109
1.16629
1.18466
1.22323
1.28411
1.36503
1.46455
1.57977
1.70709
1.8425
1.98264
2.12481
2.26646
2.40472
2.53653
2.65875
2.76838
2.86279
2.93998
2.99786
3.03542
3.05346
3.05425
3.04173
3.02144
2.99993
2.98373
2.9818
2.99898
3.02907
3.06001
3.079
3.07745
3.05309
3.00844
2.94704
2.87033
2.78033
2.67905
2.56546
2.43919
2.30086
2.15197
1.99467
1.83188
1.66611
1.49999
1.33625
1.17757
1.02647
0.885384
0.755634
0.637964
0.53288
0.441056
0.363532
0.301508
0.260674
0.246505
0.250469
0.257811
0.251287
0.216875
0.148798
0.0516158
-0.0613896
-0.172556
-0.265723
-0.337202
-0.38766
-0.415703
-0.422066
-0.409034
-0.379764
-0.337683
-0.286143
-0.228483
-0.167596
-0.107732
-0.054851
-0.0155786
0.00376496
-0.00139933
-0.0325948
-0.0876076
-0.160688
-0.243556
-0.326884
-0.402867
-0.467194
-0.516314
-0.548044
-0.559652
-0.551976
-0.526469
-0.484006
-0.424135
-0.345037
-0.244357
-0.120721
0.0263918
0.19641
0.374095
0.539833
0.674766
0.765459
0.806035
0.797217
0.743374
0.649585
0.523115
0.37499
0.212475
0.0412906
-0.131253
-0.296824
-0.447222
-0.57345
-0.665504
-0.720455
-0.749507
-0.769384
-0.797713
-0.848584
-0.929679
-1.04167
-1.17966
-1.33772
-1.5072
-1.6817
-1.85768
-1.44197
0
2.92663
7.31308
12.4899
17.2129
20.1134
20.3111
17.8417
13.6321
9.03036
5.18337
2.62525
1.26151
0.661843
0.434854
0.454852
0.471276
0.478032
0.469625
0.441907
0.392991
0.324026
0.239532
0.147087
0.0563986
-0.0222456
-0.0806707
-0.111798
-0.111381
-0.0731592
0.0128452
0.137504
0.275809
0.402009
0.497482
0.556613
0.5884
0.61303
0.654756
0.733679
0.875561
1.08122
1.30479
1.4899
1.59404
1.60701
1.55675
1.49958
1.49788
1.59337
1.76231
1.97117
2.19282
2.39745
2.56023
2.66689
2.71571
2.71544
2.68032
2.62424
2.55633
2.48085
2.3986
2.30951
2.21371
2.11232
2.00793
1.9043
1.8056
1.7161
1.63979
1.57427
1.51149
1.44149
1.35638
1.25365
1.13753
1.01733
0.903698
0.805462
0.72357
0.651749
0.580259
0.501561
0.415139
0.329098
0.257656
0.215613
0.219393
0.270083
0.350051
0.434818
0.504132
0.55035
0.58037
0.610841
0.659578
0.737355
0.8503
0.979793
1.09573
1.16913
1.18317
1.13989
1.05984
0.974256
0.912658
0.891729
0.899846
0.922245
0.953462
0.98847
1.02347
1.05622
1.0858
1.11232
1.13663
1.15965
1.18242
1.20603
1.23156
1.26008
1.2925
1.32972
1.37285
1.42306
1.48144
1.54879
1.62537
1.71078
1.80413
1.90445
2.01101
2.1236
2.24295
2.37143
2.51502
2.68559
2.88936
3.09879
3.27012
3.35662
3.32526
3.1702
2.91716
2.61518
2.31823
2.06484
1.84801
1.65297
1.47718
1.32279
1.18958
1.07637
0.980222
0.895703
0.814786
0.723944
0.579922
0.362275
0.0762863
-0.249928
0
1.49928
4.65766
9.3389
14.6853
19.308
21.8388
21.5655
18.7748
14.5751
10.3158
6.97053
4.84066
3.67736
3.03942
2.6686
2.47611
2.28991
2.10965
1.9346
1.76387
1.59693
1.43485
1.28168
1.14451
1.0321
0.953227
0.913825
0.914704
0.950696
1.0115
1.08392
1.15471
1.2146
1.26049
1.29061
1.30579
1.30935
1.30657
1.30403
1.30878
1.32704
1.36419
1.42405
1.50814
1.61535
1.74199
1.88237
2.0297
2.17714
2.31898
2.45097
2.56991
2.67266
2.75565
2.81571
2.85058
2.85803
2.83706
2.78931
2.71992
2.63732
2.55184
2.47365
2.40965
2.36106
2.32799
2.30832
2.2979
2.29115
2.28226
2.2663
2.23976
2.20073
2.14888
2.08512
2.01134
1.93003
1.84415
1.75645
1.66891
1.58271
1.49806
1.41329
1.32527
1.23065
1.12753
1.01676
0.90255
0.791898
0.693018
0.613326
0.555141
0.519849
0.505785
0.508745
0.522943
0.542019
0.560417
0.573931
0.580173
0.578713
0.570898
0.559415
0.547704
0.539256
0.536751
0.541844
0.555468
0.577484
0.605972
0.636653
0.663833
0.682002
0.687075
0.677367
0.654006
0.620626
0.582415
0.544769
0.511917
0.485655
0.466373
0.453716
0.447231
0.447257
0.455441
0.474618
0.508017
0.558043
0.625113
0.708057
0.80191
0.900301
0.997173
1.08824
1.1716
1.2474
1.3159
1.37785
1.43233
1.47646
1.50559
1.51228
1.49112
1.43843
1.35363
1.24017
1.10558
0.960191
0.814722
0.677473
0.551248
0.433753
0.322832
0.21558
0.1094
0.00245056
-0.105994
-0.216119
-0.328282
-0.444559
-0.566933
-0.695785
-0.828827
-0.880231
0
2.43131
6.56016
11.7689
16.7373
19.9391
20.3387
17.8894
13.5334
8.71554
4.72064
2.20871
1.14123
1.02824
1.2331
1.01809
0.793714
0.553936
0.295615
0.0346642
-0.197851
-0.37034
-0.461232
-0.46515
-0.393624
-0.271093
-0.127756
0.00855484
0.121787
0.213445
0.290284
0.357593
0.419717
0.481914
0.549715
0.628189
0.721189
0.830656
0.956137
1.0947
1.24145
1.38993
1.5335
1.66657
1.78564
1.88971
1.98022
2.06049
2.1349
2.20804
2.28388
2.3653
2.45427
2.55239
2.66037
2.77361
2.88016
2.96552
3.01623
3.02391
2.98816
2.91688
2.82394
2.72475
2.63114
2.54574
2.46563
2.38718
2.30633
2.2195
2.12496
2.02342
1.91798
1.81308
1.71333
1.62264
1.54016
1.46131
1.3795
1.28878
1.18613
1.07259
0.952888
0.833972
0.722674
0.622282
0.534692
0.461382
0.402653
0.357961
0.326085
0.305527
0.294717
0.292142
0.296391
0.306191
0.320451
0.33813
0.358447
0.380968
0.405676
0.432959
0.463493
0.498042
0.537226
0.58128
0.629848
0.682062
0.736446
0.790836
0.84209
0.885243
0.914349
0.924215
0.911323
0.875328
0.819971
0.752851
0.683851
0.622553
0.579792
0.555574
0.540948
0.522117
0.486342
0.427363
0.348278
0.26105
0.18311
0.13242
0.11422
0.131638
0.185287
0.2713
0.382799
0.511953
0.65197
0.797781
0.947416
1.10169
1.26025
1.41191
1.5352
1.60504
1.60319
1.52558
1.38219
1.19027
0.966124
0.722086
0.469939
0.216433
-0.0335129
-0.27432
-0.499408
-0.701501
-0.868311
-0.969943
-0.967418
-0.895153
-0.812543
-0.784556
-0.860272
-1.05822
-1.36524
-1.74803
-2.16788
-1.69397
0
3.14247
7.56355
12.535
16.8932
19.4401
19.463
17.0729
13.138
8.8519
5.20546
2.66499
1.18294
0.429708
0.0635094
-0.152446
-0.3515
-0.519804
-0.645787
-0.721988
-0.747137
-0.727234
-0.674735
-0.605759
-0.536161
-0.477921
-0.433591
-0.400713
-0.377421
-0.361338
-0.349236
-0.337319
-0.321463
-0.297408
-0.261056
-0.208863
-0.138302
-0.0484406
0.0599037
0.184471
0.321723
0.467163
0.615805
0.76261
0.902663
1.03074
1.14216
1.23412
1.30533
1.35644
1.39027
1.41179
1.42775
1.4458
1.47441
1.52872
1.62997
1.77545
1.92654
2.03548
2.06254
1.99044
1.83204
1.62822
1.43553
1.30626
1.25211
1.24306
1.2659
1.29572
1.3063
1.2783
1.20536
1.09573
0.968946
0.848692
0.754562
0.688319
0.642746
0.614216
0.595605
0.579852
0.562271
0.54188
0.521333
0.505444
0.498927
0.504266
0.519401
0.540768
0.563281
0.581568
0.591296
0.590119
0.578176
0.558176
0.535165
0.515762
0.507143
0.515948
0.546813
0.601025
0.67547
0.764897
0.85902
0.946991
1.02025
1.07484
1.11249
1.14025
1.16909
1.23455
1.42764
1.71329
1.98745
2.12311
2.03002
1.70556
1.24774
0.817275
0.563044
0.521252
0.55162
0.611815
0.694268
0.793527
0.906137
1.02844
1.15953
1.298
1.44141
1.58652
1.72984
1.86793
1.99798
2.11807
2.2275
2.32664
2.41661
2.49868
2.57312
2.63852
2.69145
2.72679
2.73779
2.7181
2.66387
2.57519
2.45617
2.31402
2.15741
1.99538
1.83486
1.68015
1.53473
1.40154
1.28253
1.17862
1.08981
1.01281
0.938042
0.85295
0.744137
0.593472
0.370354
0.0831757
-0.241403
-0.548824
0
1.88188
5.29236
9.89987
14.8036
18.7544
20.6101
19.8221
16.6905
12.2315
7.72352
4.18309
2.04577
1.16557
1.05716
1.0878
0.943795
0.79683
0.651664
0.51246
0.383007
0.265244
0.159811
0.0667892
-0.0134552
-0.0791939
-0.127721
-0.155372
-0.158433
-0.134343
-0.0827896
-0.00598602
0.0969482
0.216937
0.332936
0.424546
0.47764
0.488812
0.466971
0.431087
0.404529
0.40799
0.451409
0.525575
0.620813
0.731189
0.851487
0.976354
1.10076
1.22022
1.33083
1.43007
1.51686
1.59175
1.65694
1.71617
1.77424
1.83679
1.91216
2.01052
2.13015
2.2473
2.33016
2.35005
2.29158
2.1582
1.97068
1.75886
1.55025
1.35998
1.18633
1.02506
0.87524
0.738453
0.616839
0.512787
0.429969
0.371732
0.336129
0.316304
0.303305
0.28802
0.263059
0.223996
0.169707
0.101935
0.0244205
-0.0577137
-0.139643
-0.217437
-0.287498
-0.346634
-0.392301
-0.422692
-0.436823
-0.434545
-0.416493
-0.383951
-0.33868
-0.282762
-0.218605
-0.148823
-0.0761391
-0.003368
0.0661305
0.128704
0.181111
0.220975
0.247327
0.260952
0.264371
0.261411
0.25643
0.253406
0.255
0.262103
0.274562
0.291263
0.310752
0.331848
0.35408
0.377798
0.403947
0.433608
0.467514
0.505681
0.547507
0.592121
0.638841
0.687677
0.739621
0.796617
0.861188
0.935848
1.02247
1.12171
1.23276
1.35385
1.48244
1.61541
1.74929
1.88009
2.00258
2.11072
2.19954
2.26506
2.30513
2.31984
2.31144
2.28343
2.2392
2.18076
2.10866
2.02315
1.92349
1.80925
1.6819
1.54511
1.40431
1.26546
1.13359
1.0121
0.899284
0.788702
0.670764
0.535037
0.365593
0.148122
-0.110792
-0.393534
-0.58019
0
1.84699
5.25506
9.97589
15.1084
19.3086
21.3024
20.4619
17.1122
12.3761
7.64391
3.98621
1.8223
0.962432
0.899574
1.08371
1.14509
1.19736
1.23754
1.26346
1.27408
1.26968
1.25205
1.2246
1.19222
1.16089
1.13688
1.12576
1.13134
1.15485
1.19663
1.25214
1.31543
1.38093
1.44501
1.50659
1.56675
1.62761
1.691
1.7575
1.82629
1.89656
1.96809
2.04199
2.12113
2.21005
2.31437
2.4406
2.61662
2.91014
3.309
3.7058
3.9881
4.0809
3.97369
3.72325
3.43014
3.19787
3.09291
3.07626
3.09636
3.13444
3.18424
3.2421
3.30225
3.35572
3.39299
3.40524
3.38597
3.33235
3.24559
3.13032
2.99336
2.84248
2.6866
2.5321
2.38356
2.24484
2.11914
2.00952
1.91764
1.84006
1.77065
1.70259
1.63023
1.55045
1.46322
1.37105
1.2779
1.18776
1.10295
1.02443
0.953259
0.890131
0.835589
0.790201
0.754552
0.729105
0.714034
0.709094
0.713592
0.726488
0.746528
0.772518
0.803532
0.838926
0.878232
0.921083
0.966684
1.01195
1.05073
1.07551
1.0797
1.06021
1.01937
0.965112
0.909215
0.863995
0.838649
0.832971
0.849271
0.87778
0.902894
0.909507
0.887976
0.83718
0.764716
0.684434
0.612636
0.564643
0.546066
0.555699
0.594351
0.664387
0.766321
0.898326
1.0568
1.23937
1.43434
1.6196
1.77363
1.88122
1.93733
1.9483
1.92979
1.90216
1.88451
1.89751
1.94324
1.99582
2.01794
1.97735
1.86077
1.67972
1.46633
1.26105
1.09696
0.973621
0.873572
0.789137
0.710576
0.627364
0.530092
0.411874
0.269092
0.0997725
-0.0953928
-0.309644
-0.534007
-0.662466
0
2.00256
5.60663
10.4101
15.3524
19.052
20.3716
18.9219
15.2248
10.4492
5.88128
2.42985
0.403967
-0.396789
-0.419446
-0.238038
-0.0781408
0.0482113
0.130023
0.161778
0.14372
0.0813691
-0.0155357
-0.134483
-0.261882
-0.385004
-0.494566
-0.585408
-0.655809
-0.705696
-0.73447
-0.740997
-0.724644
-0.685553
-0.62503
-0.542096
-0.438206
-0.326236
-0.226904
-0.159503
-0.136021
-0.157143
-0.211839
-0.280904
-0.343162
-0.381807
-0.391388
-0.378387
-0.348693
-0.304849
-0.248549
-0.180594
-0.0989636
-0.00101032
0.108372
0.212815
0.291463
0.325254
0.303053
0.225062
0.102875
-0.0430969
-0.187825
-0.307377
-0.390683
-0.435508
-0.427721
-0.378996
-0.318922
-0.27985
-0.287494
-0.355178
-0.482851
-0.65953
-0.867098
-1.08423
-1.29157
-1.47902
-1.64347
-1.78514
-1.90488
-2.00193
-2.07425
-2.11176
-2.08687
-1.97946
-1.82953
-1.69555
-1.63376
-1.67559
-1.81597
-2.01696
-2.22154
-2.36998
-2.42503
-2.41031
-2.35281
-2.26825
-2.16595
-2.0562
-1.95052
-1.85884
-1.78786
-1.74002
-1.71311
-1.70072
-1.69328
-1.67965
-1.6493
-1.5947
-1.51168
-1.39976
-1.25098
-1.07238
-0.892282
-0.740658
-0.639636
-0.596673
-0.60293
-0.637203
-0.673588
-0.689825
-0.678
-0.644618
-0.59598
-0.536617
-0.472797
-0.411655
-0.358678
-0.316505
-0.284326
-0.257965
-0.230659
-0.194299
-0.140884
-0.064325
0.0369995
0.162905
0.311851
0.480241
0.664452
0.856017
1.03906
1.19639
1.31332
1.3803
1.39428
1.35883
1.28281
1.17844
1.059
0.937017
0.821294
0.716009
0.622457
0.540775
0.470512
0.408905
0.352596
0.298552
0.244844
0.191043
0.138084
0.0876648
0.0413986
0
-0.0385719
-0.0748222
-0.0738472
0.458424
2.1547
5.21579
9.06932
12.6432
15.0129
15.7999
15.0349
12.8445
9.45373
5.46615
1.91554
-0.201054
-0.551923
0.360566
1.5507
2.45372
2.87452
2.80634
2.71491
2.62229
2.53541
2.45785
2.38959
2.32682
2.26698
2.20854
2.15227
2.1018
2.0633
2.04441
2.05259
2.09165
2.16379
2.26856
2.40261
2.56047
2.73556
2.92059
3.10985
3.29898
3.48487
3.66565
3.84066
4.01029
4.1758
4.33901
4.50197
4.66648
4.83365
5.00347
5.17467
5.34465
5.50981
5.66587
5.80832
5.93265
6.03461
6.11097
6.15993
6.181
6.1747
6.14281
6.08853
6.01656
5.93292
5.8442
5.75656
5.67441
5.60042
5.53222
5.46302
5.38303
5.28149
5.14896
4.97903
4.76952
4.52258
4.2441
3.94454
3.63375
3.31953
3.00813
2.70479
2.41369
2.13811
1.88061
1.64312
1.42698
1.23287
1.06065
0.909344
0.777217
0.661952
0.560963
0.471703
0.391955
0.319978
0.254565
0.194955
0.140645
0.0910973
0.0455284
0.00261307
-0.0400658
-0.085733
-0.13777
-0.198917
-0.270464
-0.351646
-0.439478
-0.529091
-0.614369
-0.68894
-0.747527
-0.786821
-0.805977
-0.806569
-0.792047
-0.766831
-0.735252
-0.700648
-0.66485
-0.62808
-0.589399
-0.547108
-0.499154
-0.44362
-0.378886
-0.303847
-0.218098
-0.121974
-0.0164993
0.0967606
0.215889
0.338837
0.463603
0.588375
0.711602
0.832077
0.948932
1.06154
1.16913
1.26959
1.35807
1.42769
1.46996
1.47552
1.43746
1.35463
1.23375
1.0891
0.939658
0.804702
0.694368
0.61022
0.5594
0.539456
0.536302
0.532745
0.512963
0.466125
0.38818
0.281488
0.15285
0.011042
-0.134673
0.501769
2.102
4.60004
7.47653
9.97509
11.5763
12.2843
12.4511
12.3136
11.7236
10.3493
8.13019
5.50877
3.20208
1.73258
1.14535
1.08517
1.02155
0.954794
0.884418
0.810835
0.735287
0.659669
0.586319
0.517923
0.458059
0.412303
0.387094
0.387962
0.419674
0.484793
0.582372
0.707401
0.851415
1.00417
1.15593
1.30046
1.4362
1.56266
1.68134
1.79522
1.90794
2.02304
2.14322
2.26982
2.40271
2.5405
2.68083
2.8212
2.95967
3.09528
3.22796
3.35807
3.48508
3.60646
3.7174
3.81113
3.88139
3.92503
3.94335
3.94141
3.92586
3.9022
3.87326
3.84026
3.80269
3.76043
3.71433
3.6661
3.61736
3.5686
3.51829
3.46305
3.39887
3.32279
3.23429
3.13593
3.03291
2.93181
2.83816
2.75479
2.68439
2.62823
2.58511
2.55242
2.52687
2.50527
2.48516
2.46514
2.44493
2.42498
2.40602
2.38846
2.37216
2.35633
2.33966
2.32063
2.29802
2.27124
2.24076
2.20816
2.17621
2.14856
2.1293
2.12263
2.13279
2.16606
2.2312
2.33111
2.45166
2.57066
2.66535
2.71773
2.71787
2.66446
2.56369
2.42744
2.27163
2.11459
1.96958
1.84403
1.74086
1.66002
1.60199
1.56671
1.55096
1.54896
1.55489
1.56407
1.5739
1.58415
1.59673
1.61493
1.64253
1.68241
1.73683
1.81341
1.93613
2.15834
2.47915
2.82087
3.06575
3.09791
2.85694
2.37507
1.78061
1.26312
0.991487
0.852914
0.747954
0.656614
0.560938
0.450266
0.324406
0.19333
0.0733444
-0.0189522
-0.0603371
-0.0434059
0
0.0598282
0.0541603
-0.0424301
-0.226924
-0.46929
-0.935479
-0.645175
0.951561
3.92573
7.72542
11.4148
14.1487
15.4874
15.3604
13.8663
11.2214
7.8938
4.64514
2.26292
1.14005
1.07039
1.38088
1.20947
1.03365
0.858457
0.689671
0.533215
0.394097
0.273414
0.172019
0.0890968
0.0243645
-0.0209038
-0.0465431
-0.0509491
-0.0313622
0.0144508
0.0865852
0.182158
0.295573
0.419747
0.547808
0.674777
0.798733
0.91976
1.03922
1.15947
1.2835
1.41441
1.55509
1.70868
1.88328
2.10618
2.44646
2.92118
3.43305
3.85569
4.06705
4.00469
3.70706
3.31177
3.01209
2.99779
3.23494
3.53799
3.86251
4.1689
4.42076
4.59403
4.68213
4.69571
4.65797
4.59743
4.54037
4.502
4.48261
4.47713
4.4808
4.48988
4.50106
4.51072
4.51493
4.50947
4.49007
4.4527
4.39411
4.31242
4.20766
4.08207
3.94007
3.78794
3.63321
3.48363
3.34686
3.23077
3.14313
3.08829
3.06797
3.08134
3.12486
3.19322
3.27915
3.37332
3.46699
3.55347
3.62918
3.69392
3.75038
3.80303
3.85682
3.91549
3.9807
4.05294
4.13195
4.21613
4.30226
4.38758
4.47114
4.55467
4.64248
4.74036
4.85367
4.98517
5.1336
5.29327
5.4562
5.61403
5.76042
5.89262
6.01167
6.12111
6.22496
6.32529
6.42122
6.50809
6.57862
6.62433
6.63654
6.6068
6.52718
6.39117
6.19798
5.95721
5.67572
5.36504
5.03963
4.71389
4.39841
4.09837
3.81358
3.53951
3.2697
2.99853
2.72333
2.44513
2.16804
1.89736
1.63645
1.38779
1.15182
0.927075
0.712505
0.508634
0.317287
0.144139
-0.000560617
-0.107024
-0.170625
-0.193836
-0.184893
-0.154679
-0.114058
0
0.580643
2.05524
4.75073
8.64333
13.1495
17.169
19.4724
19.2686
16.6178
12.4138
7.94682
4.32328
2.07641
1.13272
1.05588
1.35172
1.59489
1.82607
2.03866
2.22899
2.40348
2.56646
2.71991
2.86495
3.00229
3.13198
3.25329
3.36478
3.46467
3.5513
3.62347
3.68068
3.72317
3.75171
3.76712
3.76968
3.75977
3.73776
3.7041
3.65971
3.6063
3.54635
3.48287
3.4189
3.35696
3.29873
3.24502
3.19579
3.15042
3.10781
3.06657
3.02462
2.97952
2.92863
2.86935
2.79929
2.71637
2.61882
2.50533
2.37548
2.23141
2.0758
1.9133
1.75014
1.59332
1.44927
1.3222
1.2148
1.12671
1.05396
0.990331
0.929198
0.864915
0.793728
0.714159
0.626931
0.534629
0.44128
0.352096
0.274023
0.213245
0.174548
0.160244
0.169715
0.20003
0.247643
0.310533
0.389789
0.488075
0.610621
0.778459
1.01447
1.27879
1.51041
1.65456
1.68814
1.63124
1.54109
1.49068
1.53951
1.70113
1.92079
2.16334
2.41317
2.66019
2.8975
3.12202
3.3343
3.53755
3.7363
3.93503
4.13695
4.34332
4.55313
4.76325
4.96687
5.15337
5.31236
5.43508
5.51633
5.55569
5.55801
5.53284
5.4932
5.45361
5.4274
5.42249
5.44162
5.48356
5.54368
5.61605
5.69214
5.76338
5.82273
5.86593
5.89181
5.90186
5.8992
5.88717
5.86845
5.84329
5.80897
5.76015
5.69005
5.59141
5.45812
5.28663
5.0768
4.83209
4.55901
4.26617
3.96397
3.66118
3.36452
3.07952
2.80996
2.55745
2.32121
2.09808
1.88385
1.67113
1.43206
1.12197
0.75685
0.375284
0
0.285243
1.49676
3.88349
7.3415
11.3536
15.1473
17.9308
19.068
18.2191
15.5113
11.6401
7.69664
4.68716
3.04165
2.50571
2.47737
2.31799
2.15781
2.00366
1.86849
1.76905
1.72166
1.73599
1.80989
1.92773
2.06376
2.18981
2.28427
2.34727
2.38248
2.39573
2.39462
2.3859
2.37449
2.36339
2.3557
2.35608
2.37139
2.41007
2.48014
2.58668
2.72757
2.8959
3.08463
3.27599
3.45205
3.59943
3.7125
3.79404
3.85316
3.90145
3.94869
3.99958
4.05314
4.10612
4.15364
4.19051
4.21238
4.2166
4.20242
4.17075
4.12372
4.06407
3.99489
3.91925
3.83993
3.75947
3.68018
3.60397
3.53206
3.46468
3.40029
3.33474
3.26224
3.17667
3.07328
2.95018
2.80916
2.65552
2.49682
2.34085
2.19286
2.0555
1.92638
1.79886
1.66361
1.49627
1.24424
0.935254
0.646659
0.468573
0.464782
0.645037
0.959007
1.3136
1.60689
1.76694
1.85292
1.90018
1.91912
1.92294
1.92521
1.93756
1.96596
2.01114
2.0713
2.14357
2.22318
2.30287
2.37522
2.43457
2.47818
2.50667
2.52375
2.53509
2.54679
2.56373
2.5881
2.61936
2.6555
2.6932
2.72925
2.7616
2.78992
2.81547
2.84024
2.86586
2.89201
2.91377
2.9232
2.91279
2.87931
2.82619
2.76319
2.70338
2.6588
2.63638
2.63242
2.64309
2.66625
2.69942
2.74017
2.78685
2.83635
2.88123
2.91011
2.90918
2.86489
2.76728
2.61259
2.40432
2.15285
1.87376
1.58653
1.30622
1.0416
0.799593
0.585385
0.402493
0.249579
0.119118
0
-0.105906
-0.257025
-0.557706
-0.992432
-1.50071
-1.83236
-1.32598
0.57467
3.94204
8.08816
11.8979
14.5045
15.6377
15.3684
13.7138
10.6907
6.74908
2.92941
0.344392
-0.593784
-0.409044
-0.240089
-0.534213
-0.836861
-1.13601
-1.41943
-1.67568
-1.89699
-2.08256
-2.22956
-2.33642
-2.40368
-2.43652
-2.44414
-2.43614
-2.42093
-2.40443
-2.38932
-2.37486
-2.35734
-2.33103
-2.28947
-2.21427
-2.06296
-1.82259
-1.55392
-1.33896
-1.24748
-1.30392
-1.47058
-1.65981
-1.77387
-1.75457
-1.64926
-1.51745
-1.37876
-1.24142
-1.11056
-0.98761
-0.870562
-0.754976
-0.635395
-0.505541
-0.357587
-0.184351
0.0104317
0.202096
0.359254
0.453151
0.465701
0.396349
0.264143
0.101801
-0.0573463
-0.193044
-0.310513
-0.420831
-0.52953
-0.639507
-0.752435
-0.868493
-0.986284
-1.10299
-1.21474
-1.317
-1.40504
-1.47462
-1.52198
-1.54432
-1.54131
-1.51502
-1.46942
-1.41189
-1.35423
-1.30804
-1.28218
-1.2809
-1.30307
-1.3424
-1.389
-1.43158
-1.45977
-1.46901
-1.45955
-1.42979
-1.37899
-1.30748
-1.21655
-1.10839
-0.986034
-0.853223
-0.714176
-0.573259
-0.434407
-0.300926
-0.175329
-0.059264
0.0464046
0.141088
0.224311
0.296438
0.35835
0.411496
0.458152
0.501558
0.545803
0.595395
0.654602
0.726748
0.812881
0.912625
1.02456
1.14601
1.27341
1.403
1.53101
1.65439
1.77137
1.88182
1.98721
2.09033
2.19451
2.30283
2.41858
2.54166
2.66387
2.7735
2.85974
2.91676
2.94551
2.95203
2.94307
2.92103
2.88168
2.82083
2.72972
2.60215
2.43745
2.24166
2.02688
1.80876
1.60253
1.41564
1.25377
1.11963
1.01215
0.927467
0.857006
0.789519
0.713051
0.603529
0.443025
0.235534
0
-0.0539692
0.972565
3.51714
7.48191
12.1636
16.4845
19.3601
20.0274
18.2809
14.5996
10.0633
5.96684
3.25453
2.12112
2.06871
2.32558
2.11871
1.91599
1.72302
1.54405
1.38379
1.24236
1.11649
1.00197
0.895893
0.798627
0.714626
0.651709
0.618888
0.638875
0.732596
0.888164
1.06919
1.23581
1.35747
1.4201
1.42718
1.39667
1.35564
1.33358
1.35131
1.41168
1.50669
1.62723
1.76665
1.91964
2.08064
2.24382
2.40316
2.55358
2.6916
2.81561
2.9261
3.02543
3.11739
3.2063
3.29601
3.3893
3.48643
3.58179
3.66509
3.72413
3.74831
3.73184
3.67597
3.5895
3.48737
3.38771
3.3056
3.24877
3.23336
3.26479
3.32689
3.39519
3.44372
3.45142
3.40608
3.30538
3.15556
2.96921
2.76408
2.55773
2.36107
2.1811
2.02397
1.89479
1.79731
1.73147
1.69255
1.67386
1.66812
1.66892
1.67165
1.67388
1.67522
1.67652
1.67904
1.68353
1.68993
1.69741
1.70438
1.70875
1.70839
1.70163
1.68776
1.6674
1.64257
1.61653
1.5932
1.5765
1.57065
1.57908
1.59896
1.6232
1.64299
1.65043
1.6408
1.61356
1.57191
1.5213
1.46757
1.41522
1.36642
1.32272
1.28546
1.25615
1.23697
1.2311
1.24239
1.27485
1.3324
1.41788
1.53207
1.68555
1.8816
2.08977
2.27315
2.40094
2.46077
2.4651
2.44807
2.45353
2.54952
2.77712
3.07031
3.32501
3.45874
3.44933
3.33188
3.16136
2.97048
2.75623
2.51997
2.27418
2.02708
1.78587
1.55797
1.34903
1.1624
0.999918
0.858812
0.73309
0.614675
0.494676
0.359362
0.194179
0.00106735
-0.209619
-0.424848
-0.446279
0
1.31777
3.97368
8.0542
12.9552
17.4234
20.0408
19.9073
17.0991
12.6168
7.87366
4.05501
1.71082
0.726213
0.578181
0.601465
0.371574
0.145636
-0.0673721
-0.258282
-0.416016
-0.537086
-0.629602
-0.7062
-0.779922
-0.860083
-0.949598
-1.04464
-1.13642
-1.21424
-1.27145
-1.30511
-1.3121
-1.29172
-1.24554
-1.17715
-1.09243
-0.997457
-0.899263
-0.805313
-0.722175
-0.653859
-0.600917
-0.559964
-0.52395
-0.48327
-0.427683
-0.348673
-0.241727
-0.10397
0.0596355
0.231057
0.389403
0.516537
0.601247
0.640739
0.63954
0.606804
0.553286
0.48983
0.423762
0.359056
0.297881
0.241166
0.189034
0.141571
0.0989761
0.0613113
0.028746
0.000686264
-0.0253464
-0.0527344
-0.0850471
-0.125204
-0.174947
-0.234862
-0.304941
-0.385287
-0.476211
-0.577138
-0.688126
-0.808622
-0.936566
-1.06822
-1.1985
-1.32163
-1.43231
-1.52591
-1.59759
-1.6458
-1.67009
-1.67023
-1.64566
-1.59536
-1.51865
-1.41624
-1.29132
-1.15041
-1.0021
-0.855796
-0.720486
-0.603266
-0.508446
-0.437463
-0.389523
-0.362653
-0.355131
-0.365279
-0.391961
-0.434088
-0.489854
-0.556062
-0.628259
-0.699708
-0.763065
-0.811959
-0.842418
-0.853761
-0.848691
-0.832536
-0.811866
-0.7929
-0.779573
-0.773776
-0.775165
-0.78155
-0.789708
-0.796415
-0.799224
-0.797029
-0.791727
-0.787918
-0.790732
-0.803494
-0.825588
-0.85127
-0.870007
-0.868512
-0.834111
-0.759266
-0.646943
-0.497279
-0.324364
-0.150503
0.00257759
0.119116
0.191866
0.221055
0.210662
0.164254
0.0826687
-0.0319542
-0.179785
-0.357153
-0.554965
-0.759477
-0.955293
-1.12942
-1.27829
-1.40087
-1.50163
-1.58841
-1.66991
-1.75334
-1.84298
-1.93983
-2.04235
-2.14766
-2.25303
-2.35399
-1.65573
0
2.8706
6.86559
11.392
15.4227
17.8374
17.9024
15.6271
11.7707
7.48605
3.80993
1.29593
-0.0443336
-0.541459
-0.591391
-0.61367
-0.637243
-0.663066
-0.690694
-0.71797
-0.740865
-0.753883
-0.751406
-0.728827
-0.683654
-0.616143
-0.529225
-0.427718
-0.317062
-0.201965
-0.0854288
0.0316574
0.150175
0.272094
0.399659
0.534558
0.677371
0.828235
0.986542
1.15083
1.31877
1.48728
1.65272
1.81139
1.96014
2.09696
2.22149
2.33519
2.44119
2.54379
2.64772
2.75731
2.87565
3.00402
3.14157
3.28556
3.43166
3.57437
3.70881
3.83192
3.94317
4.04443
4.13801
4.22626
4.30969
4.37737
4.40847
4.38245
4.29119
4.14623
3.97691
3.82002
3.70585
3.63661
160
329
665
832
998
1165
1327
1493
1661
1829
2000
2170
2339
2672
2839
3006
3173
3342
3511
3682
3555
3726
3739
0
0
0
0
0
0
0
0
0
0
0
0
0
0
0
0
0
0
0
0
0
0
0
0
0
0
0
0
0
0
0
0
0
0
0
0
0
0
0
0
0
0
0
0
0
0
0
0
0
0
0
0
0
0
0
0
0
0
0
0
0
0
0
0
0
0
0
0
0
0
0
0
0
0
0
0
0
0
0
0
0
0
0
0
0
0
0
0
0
0
0
0
0
0
0
0
0
0
0
0
0
0
0
0
0
0
0
0
0
0
0
0
0
0
0
0
0
0
0
0
0
0
0
0
0
0
0
0
0
0
0
0
0
0
0
0
0
0
0
0
0
0
0
0
0
0
0
0
0
0
0
0
0
0
0
0
0
0
0
0
0
0
0
0
0
0
0
0
0
0
0
0
0
0
0
0
0
0
0
0
0
0
0
0
0
0
0
0
0
0
0
0
0
0
0
0
0
0
0
0
0
0
0
0
0
0
0
0
0
0
0
0
0
0
0
0
0
0
0
0
0
0
0
0
0
0
0
0
0
0
0
0
0
0
0
0
0
0
0
0
0
0
0
0
0
0
0
0
0
0
0
0
0
0
0
0
0
0
0
0
0
0
0
0
0
0
0
0
0
0
0
0
0
0
0
0
0
0
0
0
0
0
0
0
0
0
0
0
0
0
0
0
0
0
0
0
0
0
0
0
0
0
0
0
0
0
0
0
0
0
0
0
0
0
0
0
0
0
0
0
0
0
0
0
0
0
0
0
0
0
0
0
0
0
0
0
0
0
0
0
0
0
0
0
0
0
0
0
0
0
0
0
0
0
0
0
0
0
0
0
0
0
0
0
0
0
0
0
0
0
0
0
0
0
0
0
0
0
0
0
0
0
0
0
0
0
0
0
0
0
0
0
0
0
0
0
0
0
0
0
0
0
0
0
0
0
0
0
0
0
0
0
0
0
0
0
0
0
0
0
0
0
0
0
0
0
0
0
0
0
0
0
0
0
0
0
0
0
0
0
0
0
0
0
0
0
0
0
0
0
0
0
0
0
0
0
0
0
0
0
0
0
0
0
0
0
0
0
0
0
0
0
0
0
0
0
0
0
0
0
0
0
0
0
0
0
0
0
0
0
0
0
0
0
0
0
0
0
0
0
0
0
0
0
0
0
0
0
0
0
0
0
0
0
0
0
0
0
0
0
0
0
0
0
0
0
0
0
0
0
0
0
0
0
0
0
0
0
0
0
0
0
0
0
0
0
0
0
0
0
0
0
0
0
0
0
0
0
0
0
0
0
0
0
0
0
0
0
0
0
0
0
0
0
0
0
0
0
0
0
0
0
0
0
0
0
0
0
0
0
0
0
0
0
0
0
0
0
0
0
0
0
0
0
0
0
0
0
0
0
0
0
0
0
0
0
0
0
0
0
0
0
0
0
0
0
0
0
0
0
0
0
0
0
0
0
0
0
0
0
0
0
0
0
0
0
0
0
0
0
0
0
0
0
0
0
0
0
0
0
0
0
0
0
0
0
0
0
0
0
0
0
0
0
0
0
0
0
0
0
0
0
0
0
0
0
0
0
0
0
0
0
0
0
0
0
0
0
0
0
0
0
0
0
0
0
0
0
0
0
0
0
0
0
0
0
0
0
0
0
0
0
0
0
0
0
0
0
0
0
0
0
0
0
0
0
0
0
0
0
0
0
0
0
0
0
0
0
0
0
0
0
0
0
0
0
0
0
0
0
0
0
0
0
0
0
0
0
0
0
0
0
0
0
0
0
0
0
0
0
0
0
0
0
0
0
0
0
0
0
0
0
0
0
0
0
0
0
0
0
0
0
0
0
0
0
0
0
0
0
0
0
0
0
0
0
0
0
0
0
0
0
0
0
0
0
0
0
0
0
0
0
0
0
0
0
0
0
0
0
0
0
0
0
0
0
0
0
0
0
0
0
0
0
0
0
0
0
0
0
0
0
0
0
0
0
0
0
0
0
0
0
0
0
0
0
0
0
0
0
0
0
0
0
0
0
0
0
0
0
0
0
0
0
0
0
0
0
0
0
0
0
0
0
0
0
0
0
0
0
0
0
0
0
0
0
0
0
0
0
0
0
0
0
0
0
0
0
0
0
0
0
0
0
0
0
0
0
0
0
0
0
0
0
0
0
0
0
0
0
0
0
0
0
0
0
0
0
0
0
0
0
0
0
0
0
0
0
0
0
0
0
0
0
0
0
0
0
0
0
0
0
0
0
0
0
0
0
0
0
0
0
0
0
0
0
0
0
0
0
0
0
0
0
0
0
0
0
0
0
0
0
0
0
0
0
0
0
0
0
0
0
0
0
0
0
0
0
0
0
0
0
0
0
0
0
0
0
0
0
0
0
0
0
0
0
0
0
0
0
0
0
0
0
0
0
0
0
0
0
0
0
0
0
0
0
0
0
0
0
0
0
0
0
0
0
0
0
0
0
0
0
0
0
0
0
0
0
0
0
0
0
0
0
0
0
0
0
0
0
0
0
0
0
0
0
0
0
0
0
0
0
0
0
0
0
0
0
0
0
0
0
0
0
0
0
0
0
0
0
0
0
0
0
0
0
0
0
0
0
0
0
0
0
0
0
0
0
0
0
0
0
0
0
0
0
0
0
0
0
0
0
0
0
0
0
0
0
0
0
0
0
0
0
0
0
0
0
0
0
0
0
0
0
0
0
0
0
0
0
0
0
0
0
0
0
0
0
0
0
0
0
0
0
0
0
0
0
0
0
0
0
0
0
0
0
0
0
0
0
0
0
0
0
0
0
0
0
0
0
0
0
0
0
0
0
0
0
0
0
0
0
0
0
0
0
0
0
0
0
0
0
0
0
0
0
0
0
0
0
0
0
0
0
0
0
0
0
0
0
0
0
0
0
0
0
0
0
0
0
0
0
0
0
0
0
0
0
0
0
0
0
0
0
0
0
0
0
0
0
0
0
0
0
0
0
0
0
0
0
0
0
0
0
0
0
0
0
0
0
0
0
0
0
0
0
0
0
0
0
0
0
0
0
0
0
0
0
0
0
0
0
0
0
0
0
0
0
0
0
0
0
0
0
0
0
0
0
0
0
0
0
0
0
0
0
0
0
0
0
0
0
0
0
0
0
0
0
0
0
0
0
0
0
0
0
0
0
0
0
0
0
0
0
0
0
0
0
0
0
0
0
0
0
0
0
0
0
0
0
0
0
0
0
0
0
0
0
0
0
0
0
0
0
0
0
0
0
0
0
0
0
0
0
0
0
0
0
0
0
0
0
0
0
0
0
0
0
0
0
0
0
0
0
0
0
0
0
0
0
0
0
0
0
0
0
0
0
0
0
0
0
0
0
0
0
0
0
0
0
0
0
0
0
0
0
0
0
0
0
0
0
0
0
0
0
0
0
0
0
0
0
0
0
0
0
0
0
0
0
0
0
0
0
0
0
0
0
0
0
0
0
0
0
0
0
0
0
0
0
0
0
0
0
0
0
0
0
0
0
0
0
0
0
0
0
0
0
0
0
0
0
0
0
0
0
0
0
0
0
0
0
0
0
0
0
0
0
0
0
0
0
0
0
0
0
0
0
0
0
0
0
0
0
0
0
0
0
0
0
0
0
0
0
0
0
0
0
0
0
0
0
0
0
0
0
0
0
0
0
0
0
0
0
0
0
0
0
0
0
0
0
0
0
0
0
0
0
0
0
0
0
0
0
0
0
0
0
0
0
0
0
0
0
0
0
0
0
0
0
0
0
0
0
0
0
0
0
0
0
0
0
0
0
0
0
0
0
0
0
0
0
0
0
0
0
0
0
0
0
0
0
0
0
0
0
0
0
0
0
0
0
0
0
0
0
0
0
0
0
0
0
0
0
0
0
0
0
0
0
0
0
0
0
0
0
0
0
0
0
0
0
0
0
0
0
0
0
0
0
0
0
0
0
0
0
0
0
0
0
0
0
0
0
0
0
0
0
0
0
0
0
0
0
0
0
0
0
0
0
0
0
0
0
0
0
0
0
0
0
0
0
0
0
0
0
0
0
0
0
0
0
0
0
0
0
0
0
0
0
0
0
0
0
0
0
0
0
0
0
0
0
0
0
0
0
0
0
0
0
0
0
0
0
0
0
0
0
0
0
0
0
0
0
0
0
0
0
0
0
0
0
0
0
0
0
0
0
0
0
0
0
0
0
0
0
0
0
0
0
0
0
0
0
0
0
0
0
0
0
0
0
0
0
0
0
0
0
0
0
0
0
0
0
0
0
0
0
0
0
0
0
0
0
0
0
0
0
0
0
0
0
0
0
0
0
0
0
0
0
0
0
0
0
0
0
0
0
0
0
0
0
0
0
0
0
0
0
0
0
0
0
0
0
0
0
0
0
0
0
0
0
0
0
0
0
0
0
0
0
0
0
0
0
0
0
0
0
0
0
0
0
0
0
0
0
0
0
0
0
0
0
0
0
0
0
0
0
0
0
0
0
0
0
0
0
0
0
0
0
0
0
0
0
0
0
0
0
0
0
0
0
0
0
0
0
0
0
0
0
0
0
0
0
0
0
0
0
0
0
0
0
0
0
0
0
0
0
0
0
0
0
0
0
0
0
0
0
0
0
0
0
0
0
0
0
0
0
0
0
0
0
0
0
0
0
0
0
0
0
0
0
0
0
0
0
0
0
0
0
0
0
0
0
0
0
0
0
0
0
0
0
0
0
0
0
0
0
0
0
0
0
0
0
0
0
0
0
0
0
0
0
0
0
0
0
0
0
0
0
0
0
0
0
0
0
0
0
0
0
0
0
0
0
0
0
0
0
0
0
0
0
0
0
0
0
0
0
0
0
0
0
0
0
0
0
0
0
0
0
0
0
0
0
0
0
0
0
0
0
0
0
0
0
0
0
0
0
0
0
0
0
0
0
0
0
0
0
0
0
0
0
0
0
0
0
0
0
0
0
0
0
0
0
0
0
0
0
0
0
0
0
0
0
0
0
0
0
0
0
0
0
0
0
0
0
0
0
0
0
0
0
0
0
0
0
0
0
0
0
0
0
0
0
0
0
0
0
0
0
0
0
0
0
0
0
0
0
0
0
0
0
0
0
0
0
0
0
0
0
0
0
0
0
0
0
0
0
0
0
0
0
0
0
0
0
0
0
0
0
0
0
0
0
0
0
0
0
0
0
0
0
0
0
0
0
0
0
0
0
0
0
0
0
0
0
0
0
0
0
0
0
0
0
0
0
0
0
0
0
0
0
0
0
0
0
0
0
0
0
0
0
0
0
0
0
0
0
0
0
0
0
0
0
0
0
0
0
0
0
0
0
0
0
0
0
0
0
0
0
0
0
0
0
0
0
0
0
0
0
0
0
0
0
0
0
0
0
0
0
0
0
0
0
0
0
0
0
0
0
0
0
0
0
0
0
0
0
0
0
0
0
0
0
0
0
0
0
0
0
0
0
0
0
0
0
0
0
0
0
0
0
0
0
0
0
0
0
0
0
0
0
0
0
0
0
0
0
0
0
0
0
0
0
0
0
0
0
0
0
0
0
0
0
0
0
0
0
0
0
0
0
0
0
0
0
0
0
0
0
0
0
0
0
0
0
0
0
0
0
0
0
0
0
0
0
0
0
0
0
0
0
0
0
0
0
0
0
0
0
0
0
0
0
0
0
0
0
0
0
0
0
0
0
0
0
0
0
0
0
0
0
0
0
0
0
0
0
0
0
0
0
0
0
0
0
0
0
0
0
0
0
0
0
0
0
0
0
0
0
0
0
0
0
0
0
0
0
0
0
0
0
0
0
0
0
0
0
0
0
0
0
0
0
0
0
0
0
0
0
0
0
0
0
0
0
0
0
0
0
0
0
0
0
0
0
0
0
0
0
0
0
0
0
0
0
0
0
0
0
0
0
0
0
0
0
0
0
0
0
0
0
0
0
0
0
0
0
0
0
0
0
0
0
0
0
0
0
0
0
0
0
0
0
0
0
0
0
0
0
0
0
0
0
0
0
0
0
0
0
0
0
0
0
0
0
0
0
0
0
0
0
0
0
0
0
0
0
0
0
0
0
0
0
0
0
0
0
0
0
0
0
0
0
0
0
0
0
0
0
0
0
0
0
0
0
0
0
0
0
0
0
0
0
0
0
0
0
0
0
0
0
0
0
0
0
0
0
0
0
0
0
0
0
0
0
0
0
0
0
0
0
0
0
0
0
0
0
0
0
0
0
0
0
0
0
0
0
0
0
0
0
0
0
0
0
0
0
0
0
0
0
0
0
0
0
0
0
0
0
0
0
0
0
0
0
0
0
0
0
0
0
0
0
0
0
0
0
0
0
0
0
0
0
0
0
0
0
0
0
0
0
0
0
0
0
0
0
0
0
0
0
0
0
0
0
0
0
0
0
0
0
0
0
0
0
0
0
0
0
0
0
0
0
0
0
0
0
0
0
0
0
0
0
0
0
0
0
0
0
0
0
0
0
0
0
0
0
0
0
0
0
0
0
0
0
0
0
0
0
0
0
0
0
0
0
0
0
0
0
0
0
0
0
0
0
0
0
0
0
0
0
0
0
0
0
0
0
0
0
0
0
0
0
0
0
0
0
0
0
0
0
0
0
0
0
0
0
0
0
0
0
0
0
0
0
0
0
0
0
0
0
0
0
0
0
0
0
0
0
0
0
0
0
0
0
0
0
0
0
0
0
0
0
0
0
0
0
0
0
0
0
0
0
0
0
0
0
0
0
0
0
0
0
0
0
0
0
0
0
0
0
0
0
0
0
0
0
0
0
0
0
0
0
0
0
0
0
0
0
0
0
0
0
0
0
0
0
0
0
0
0
0
0
0
0
0
0
0
0
0
0
0
0
0
0
0
0
0
0
0
0
0
0
0
0
0
0
0
0
0
0
0
0
0
0
0
0
0
0
0
0
0
0
0
0
0
0
0
0
0
0
0
0
0
0
0
0
0
0
0
0
0
0
0
0
0
0
0
0
0
0
0
0
0
0
0
0
0
0
0
0
0
0
0
0
0
0
0
0
0
0
0
0
0
0
0
0
0
0
0
0
0
0
0
0
0
0
0
0
0
0
0
0
0
0
0
0
0
0
0
0
0
0
0
0
0
0
0
0
0
0
0
0
0
0
0
0
0
0
0
0
0
0
0
0
0
0
0
0
0
0
0
0
0
0
0
0
0
0
0
0
0
0
0
0
0
0
0
0
0
0
0
0
0
0
0
0
0
0
0
0
0
0
0
0
0
0
0
0
0
0
0
0
0
0
0
0
0
0
0
0
0
0
0
0
0
0
0
0
0
0
0
0
0
0
0
0
0
0
0
0
0
0
0
0
0
0
0
0
0
0
0
0
0
0
0
0
0
0
0
0
0
0
0
0
0
0
0
0
0
0
0
0
0
0
0
0
0
0
0
0
0
0
0
0
0
0
0
0
0
0
0
0
0
0
0
0
0
0
0
0
0
0
0
0
0
0
0
0
0
0
0
0
0
0
0
0
0
0
0
0
0
0
0
0
0
0
0
0
0
0
0
0
0
0
0
0
0
0
0
0
0
0
0
0
0
0
0
0
0
0
0
0
0
0
0
0
0
0
0
0
0
0
0
0
0
0
0
0
0
0
0
0
0
0
0
0
0
0
0
0
0
0
0
0
0
0
0
0
0
0
0
0
0
0
0
0
0
0
0
0
0
0
0
0
0
0
0
0
0
0
0
0
0
0
0
0
0
0
0
0
0
0
0
0
0
0
0
0
0
0
0
0
0
0
0
0
0
0
0
0
0
0
0
0
0
0
0
0
0
0
0
0
0
0
0
0
0
0
0
0
0
0
0
0
0
0
0
0
0
0
0
0
0
0
0
0
0
0
0
0
0
0
0
0
0
0
0
0
0
0
0
0
0
0
0
0
0
0
0
0
0
0
0
0
0
0
0
0
0
0
0
0
0
0
0
0
0
0
0
0
0
0
0
0
0
0
0
0
0
0
0
0
0
0
0
0
0
0
0
0
0
0
0
0
0
0
0
0
0
0
0
0
0
0
0
0
0
0
0
0
0
0
0
0
0
0
0
0
0
0
0
0
0
0
0
0
0
0
0
0
0
0
0
0
0
0
0
0
0
0
0
0
0
0
0
0
0
0
0
0
0
0
0
0
0
0
0
0
0
0
0
0
0
0
0
0
0
0
0
0
0
0
0
0
0
0
0
0
0
0
0
0
0
0
0
0
0
0
0
0
0
0
0
0
0
0
0
0
0
0
0
0
0
0
0
0
0
0
0
0
0
0
0
0
0
0
0
0
0
0
0
0
0
0
0
0
0
0
0
0
0
0
0
0
0
0
0
0
0
0
0
0
0
0
0
0
0
0
0
0
0
0
0
0
0
0
0
0
0
0
0
0
0
0
0
0
0
0
0
0
0
0
0
0
0
0
0
0
0
0
0
0
0
0
0
0
0
0
