10.1434
8.73317
6.34685
3.70806
1.55261
0.308506
-0.0367461
0.171333
0.255867
0.33261
0.39537
0.440447
0.466935
0.476388
0.472093
0.458489
0.440501
0.421599
0.404567
0.391344
0.382913
0.379186
0.379926
0.385191
0.395406
0.411561
0.435214
0.468301
0.51278
0.570131
0.640903
0.72449
0.819147
0.922154
1.03049
1.14035
1.24821
1.35223
1.45307
1.55405
1.66072
1.77987
1.91807
2.0802
2.26741
2.47671
2.70437
2.94601
3.19664
3.45166
3.70679
3.95668
4.19479
4.41934
4.62627
4.79662
4.9044
4.92925
4.86502
4.72179
4.52238
4.29473
4.06013
3.82148
3.57406
3.31748
3.05249
2.77922
2.4982
2.21132
1.92176
1.63375
1.3522
1.08241
0.829637
0.598836
0.394158
0.219222
0.0812277
-0.00413337
-0.0104148
0.0820856
0.241497
0.406839
0.529818
0.576177
0.529095
0.396056
0.213216
0.0398669
-0.0615536
-0.0741385
-0.0450001
0.000650215
0.0428473
0.0643098
0.0566143
0.0236482
-0.0193187
-0.0508394
-0.0509383
-0.0127033
0.0519374
0.13808
0.237613
0.335685
0.418319
0.475911
0.505348
0.510055
0.498008
0.478492
0.458906
0.442683
0.429402
0.41831
0.408904
0.401544
0.39759
0.398927
0.407095
0.422402
0.443669
0.467922
0.490819
0.507909
0.51589
0.513537
0.502132
0.485263
0.467998
0.455624
0.45225
0.459304
0.474961
0.496408
0.520259
0.542908
0.561273
0.573304
0.578144
0.575989
0.567771
0.554841
0.538901
0.5216
0.504527
0.489282
0.477315
0.469965
0.468399
0.472149
0.478216
0.48268
0.482005
0.474328
0.46014
0.442056
0.423736
0.408424
0.397515
0.389945
0.38411
0.377762
0.368746
0.355654
0.338214
0.31734
0.294834
0.272866
0.2533
0.23731
0.225409
0.217397
0.21264
0.210447
0.210401
0.212538
0.217293
0.225279
0.23698
0.252436
0.271268
0.292867
0.316506
0.341543
0.367502
0.394011
0.420612
0.446296
0.469315
0.4873
0.497691
0.498357
0.488163
0.467348
0.437629
0.40209
0.36495
0.330958
0.305175
0.292209
0.295552
0.316896
0.355721
0.409363
0.473622
0.543785
0.615727
0.686852
0.756296
0.823995
0.890361
0.955718
1.01882
1.07492
1.11607
1.1327
1.11612
1.06117
0.968009
0.842955
0.697725
0.547358
0.406576
0.283203
0.179574
0.0990634
0.0428822
0.0104626
0
0.0067986
0.0302722
0.0669361
0.114018
0.169097
0.229924
0.294455
0.360821
0.42926
0.709135
1.35482
2.46297
3.99604
5.72785
7.25265
8.09868
7.93039
6.73884
4.88775
2.95719
1.46186
0.618977
0.307637
0.214416
0.0670442
-0.066204
-0.16474
-0.208314
-0.185428
-0.0995794
0.0317661
0.183973
0.332179
0.45881
0.563496
0.64724
0.707538
0.74447
0.760744
0.761143
0.751451
0.737224
0.722842
0.710852
0.7025
0.69927
0.703138
0.71694
0.744412
0.789838
0.857375
0.950251
1.06933
1.21315
1.37923
1.56345
1.76049
1.96441
2.16953
2.37077
2.56416
2.74702
2.91815
3.07777
3.22737
3.36948
3.50728
3.64421
3.78487
3.93883
4.11784
4.30824
4.47648
4.5857
4.61025
4.54613
4.41149
4.23467
4.03557
3.81326
3.56481
3.29882
3.02202
2.73837
2.45148
2.16544
1.8847
1.6137
1.35663
1.11729
0.898988
0.704427
0.535511
0.393561
0.280925
0.200988
0.151389
0.12079
0.0971403
0.0708182
0.0372546
-0.00197182
-0.0400924
-0.0678951
-0.0760615
-0.0525195
-0.00355825
0.0542736
0.101471
0.122602
0.110712
0.0682186
0.00511599
-0.0642028
-0.124605
-0.167142
-0.189973
-0.194889
-0.185078
-0.163433
-0.131905
-0.0922324
-0.0460841
0.00498819
0.059453
0.115678
0.171865
0.226018
0.276209
0.320836
0.358832
0.389734
0.413565
0.430578
0.44028
0.442268
0.436366
0.422715
0.402426
0.378104
0.353913
0.335018
0.33321
0.364174
0.416618
0.463657
0.47484
0.431786
0.338588
0.220954
0.114367
0.047733
0.0246377
0.0229083
0.0336735
0.052454
0.0755595
0.100524
0.126388
0.152984
0.180399
0.208234
0.23471
0.256615
0.27008
0.271726
0.259786
0.234809
0.199716
0.159218
0.118822
0.0837805
0.0572751
0.0403084
0.0331747
0.0361667
0.0491655
0.0715156
0.102109
0.139407
0.181488
0.226124
0.270892
0.313085
0.350032
0.379451
0.399567
0.409192
0.407719
0.395047
0.371499
0.337822
0.295312
0.244931
0.189369
0.136546
0.0969071
0.0807045
0.0948358
0.140094
0.210091
0.292514
0.372487
0.436906
0.480108
0.501435
0.506137
0.50323
0.502349
0.510638
0.529484
0.558826
0.591664
0.61896
0.633078
0.630738
0.614542
0.59257
0.576278
0.577584
0.630632
0.764772
0.938327
1.09245
1.17576
1.16147
1.05533
0.893644
0.730671
0.616487
0.566125
0.540674
0.517289
0.485351
0.436695
0.361979
0.255869
0.139994
0.0438166
-0.00691767
0
0.0590129
0.151647
0.254245
0.347975
0.427574
0.498961
0.565831
0.627942
0.8987
1.3442
2.07647
3.22706
4.78762
6.48654
7.81995
8.25819
7.52302
5.76496
3.51869
1.45612
0.0819332
-0.454456
-0.340275
-0.0584105
0.190807
0.38149
0.499723
0.544719
0.526437
0.461754
0.371293
0.277266
0.199667
0.148401
0.12392
0.121927
0.137808
0.168581
0.212733
0.269204
0.337273
0.416673
0.507343
0.608999
0.720638
0.841717
0.968801
1.09406
1.20886
1.30576
1.38019
1.43145
1.4626
1.47985
1.49168
1.50763
1.53575
1.5843
1.66051
1.76966
1.91428
2.09058
2.29342
2.51795
2.75812
3.00762
3.26073
3.51245
3.7572
3.98639
4.19244
4.37502
4.5219
4.60993
4.61792
4.5377
4.37554
4.14514
3.86042
3.53546
3.19676
2.86026
2.53239
2.21711
1.91899
1.64171
1.38771
1.15815
0.953134
0.772
0.613772
0.477486
0.362391
0.267999
0.195361
0.149173
0.133588
0.141465
0.160235
0.176216
0.178032
0.159418
0.12043
0.0668097
0.00802307
-0.045373
-0.0867928
-0.114818
-0.13002
-0.131556
-0.122178
-0.106055
-0.0874998
-0.069939
-0.0553341
-0.0442137
-0.0362095
-0.0308197
-0.0277342
-0.0268999
-0.0280441
-0.0300566
-0.0306458
-0.026548
-0.0142939
0.00873127
0.0425097
0.0851936
0.134411
0.18571
0.233372
0.271893
0.297013
0.306412
0.300042
0.280104
0.250663
0.216991
0.184721
0.158808
0.142184
0.13564
0.138837
0.151054
0.170845
0.195912
0.223644
0.251427
0.276879
0.297748
0.312219
0.319126
0.317844
0.30832
0.291107
0.267364
0.238795
0.207512
0.175846
0.146037
0.119882
0.0989222
0.0842152
0.0762218
0.0747482
0.0789501
0.0874805
0.0985611
0.110099
0.12006
0.12687
0.129701
0.128635
0.124637
0.11932
0.114501
0.111657
0.111687
0.11422
0.116523
0.114892
0.106159
0.0892599
0.0662428
0.042239
0.0242893
0.0193514
0.032159
0.0605967
0.10223
0.15289
0.206227
0.255603
0.295327
0.321481
0.332177
0.327322
0.308092
0.276424
0.234954
0.18686
0.134416
0.0824421
0.0367596
0.00299072
-0.0146156
-0.0141232
0.00382519
0.0365013
0.0800724
0.130604
0.184213
0.238469
0.291854
0.343257
0.392033
0.438078
0.481882
0.524472
0.567227
0.611575
0.658673
0.709168
0.762994
0.819621
0.878252
0.937866
0.997195
1.05421
1.10572
1.1481
1.17727
1.18925
1.18082
1.14982
1.09512
1.01633
0.913704
0.789999
0.635273
0.452268
0.268414
0.116723
0.0237801
0
0.0386782
0.120021
0.223866
0.336711
0.45303
0.571624
0.692231
0.820839
1.14594
1.7322
2.74003
4.25369
6.15411
8.06569
9.43925
9.76576
8.82067
6.80118
4.27139
1.93386
0.342848
-0.296356
-0.151864
0.202494
0.500225
0.700789
0.791159
0.78689
0.722136
0.635509
0.560128
0.516502
0.499496
0.501605
0.520214
0.552656
0.59178
0.630448
0.664021
0.692098
0.718639
0.750243
0.793195
0.850522
0.918666
0.992503
1.06527
1.1306
1.18464
1.22748
1.26338
1.29988
1.34595
1.40982
1.49498
1.60051
1.72405
1.86271
2.01298
2.17115
2.33409
2.49989
2.66805
2.83931
3.01506
3.19658
3.38636
3.58344
3.77719
3.95296
4.09652
4.19779
4.25227
4.26008
4.22375
4.14612
4.02936
3.88004
3.70272
3.49987
3.27447
3.03171
2.77747
2.51629
2.25227
1.98985
1.73343
1.48707
1.25411
1.03701
0.837282
0.655737
0.492743
0.348577
0.224337
0.121126
0.0395147
-0.0203644
-0.0592784
-0.0777461
-0.0781873
-0.0658056
-0.047341
-0.0293607
-0.0172122
-0.0142468
-0.0214713
-0.0376632
-0.0598771
-0.0842066
-0.106654
-0.124165
-0.135253
-0.139771
-0.138114
-0.13155
-0.122377
-0.113131
-0.106093
-0.102903
-0.104358
-0.110433
-0.120467
-0.133441
-0.148215
-0.163627
-0.17863
-0.192188
-0.203194
-0.210545
-0.213302
-0.210784
-0.202727
-0.189948
-0.175306
-0.163096
-0.157505
-0.16125
-0.17447
-0.194335
-0.215589
-0.231963
-0.238022
-0.231526
-0.212985
-0.185212
-0.15321
-0.122428
-0.0974099
-0.0810778
-0.0748653
-0.0795138
-0.0960231
-0.126165
-0.171597
-0.233846
-0.312431
-0.403721
-0.501445
-0.593735
-0.667471
-0.711386
-0.718812
-0.680871
-0.597419
-0.486097
-0.37288
-0.281015
-0.225955
-0.214388
-0.244941
-0.309257
-0.393348
-0.479908
-0.551911
-0.598707
-0.621489
-0.62698
-0.620127
-0.603739
-0.580453
-0.552947
-0.523612
-0.494162
-0.465479
-0.437633
-0.410094
-0.382098
-0.353016
-0.322839
-0.293286
-0.268096
-0.252053
-0.249612
-0.263404
-0.293125
-0.335166
-0.383136
-0.429128
-0.465672
-0.489299
-0.499431
-0.49228
-0.4689
-0.436644
-0.403867
-0.377189
-0.359433
-0.349039
-0.341179
-0.330079
-0.311576
-0.285813
-0.255688
-0.224786
-0.197476
-0.177729
-0.168165
-0.169482
-0.180318
-0.197496
-0.216521
-0.232195
-0.239582
-0.235091
-0.216292
-0.181079
-0.128233
-0.05683
0.0356777
0.153659
0.301126
0.468363
0.628011
0.751564
0.812689
0.794986
0.700744
0.553973
0.39397
0.261462
0.182073
0.137307
0.108272
0.0875611
0.0716785
0.0579137
0.0447687
0.031956
0.0199635
0.00933714
0
-0.00835495
-0.0194726
-0.0367153
-0.0631661
-0.100659
-0.149126
-0.206449
-0.271513
-0.0724281
0.468567
1.45056
2.93481
4.84914
6.90648
8.6152
9.43151
9.00467
7.38082
5.02837
2.64412
0.840024
-0.108562
-0.316878
-0.145425
-0.130999
-0.119926
-0.114006
-0.114341
-0.121322
-0.134846
-0.154602
-0.17985
-0.209937
-0.244607
-0.283447
-0.324656
-0.363468
-0.393167
-0.406437
-0.396818
-0.359931
-0.294007
-0.199685
-0.0793605
0.0634102
0.23701
0.440551
0.642753
0.802274
0.882286
0.869018
0.782039
0.668684
0.58486
0.572888
0.630279
0.72376
0.839033
0.973063
1.12573
1.29747
1.48894
1.70045
1.93133
2.17939
2.4444
2.72241
2.99531
3.24057
3.43924
3.58
3.66009
3.68322
3.65601
3.58471
3.47348
3.32719
3.15191
2.9526
2.73412
2.50203
2.26184
2.01798
1.77394
1.53278
1.29693
1.06808
0.847291
0.635275
0.432738
0.240758
0.0614663
-0.100869
-0.242504
-0.360066
-0.450909
-0.513726
-0.548876
-0.558378
-0.545633
-0.515046
-0.471457
-0.418723
-0.36414
-0.316578
-0.284176
-0.272832
-0.284637
-0.316965
-0.362819
-0.412554
-0.45651
-0.488371
-0.508096
-0.517358
-0.517963
-0.512437
-0.503146
-0.491632
-0.478371
-0.462993
-0.444844
-0.423639
-0.399801
-0.374959
-0.35143
-0.33155
-0.316988
-0.308312
-0.304946
-0.305461
-0.308025
-0.31075
-0.311971
-0.310092
-0.303549
-0.290901
-0.271114
-0.24394
-0.210223
-0.172003
-0.132262
-0.0944424
-0.0618789
-0.0373536
-0.0228897
-0.0197715
-0.0286872
-0.0496373
-0.0821481
-0.125565
-0.178701
-0.239788
-0.306731
-0.376995
-0.446467
-0.508144
-0.554461
-0.577995
-0.573107
-0.538003
-0.476271
-0.396899
-0.312398
-0.235569
-0.175542
-0.131948
-0.101678
-0.08431
-0.0785943
-0.0827968
-0.0947483
-0.111968
-0.131824
-0.151278
-0.167029
-0.17515
-0.168649
-0.13963
-0.0957921
-0.0552281
-0.0388647
-0.0619101
-0.126924
-0.221895
-0.324406
-0.409985
-0.4607
-0.482984
-0.484871
-0.468382
-0.436179
-0.390691
-0.334788
-0.268442
-0.189695
-0.0968664
0.00465155
0.0991947
0.167932
0.194468
0.170872
0.101941
0.00553284
-0.0921856
-0.165597
-0.201173
-0.209011
-0.201036
-0.181337
-0.151876
-0.113077
-0.0634912
-0.000173187
0.080337
0.194051
0.363595
0.564298
0.752391
0.885681
0.939963
0.916034
0.835663
0.730207
0.628189
0.546974
0.481775
0.424927
0.372389
0.321865
0.271872
0.221764
0.171908
0.123955
0.0804524
0.0441866
0.0174331
0.00138826
-0.00403442
0
0.0107883
0.0275363
0.048577
0.0729103
0.100157
0.130079
0.162362
0.198547
0.380675
0.756696
1.44128
2.53761
4.03204
5.70567
7.13277
7.81791
7.43116
6.0071
3.96768
1.93436
0.431994
-0.335202
-0.509267
-0.441461
-0.371906
-0.298555
-0.2188
-0.132297
-0.0419758
0.0472245
0.12888
0.196755
0.246504
0.276924
0.29044
0.292765
0.291893
0.296635
0.313595
0.346264
0.395677
0.464527
0.550637
0.642027
0.7253
0.789939
0.8318
0.854511
0.868327
0.886939
0.923445
0.984554
1.06748
1.16855
1.28529
1.41539
1.55648
1.70658
1.86429
2.02879
2.19964
2.37642
2.55845
2.74464
2.93344
3.12308
3.3118
3.49799
3.68013
3.85657
4.02536
4.18437
4.32894
4.44672
4.51761
4.52048
4.44109
4.27768
4.04119
3.75002
3.42233
3.07549
2.72253
2.36989
2.02158
1.68249
1.35823
1.0547
0.777615
0.53181
0.320764
0.146345
0.00879278
-0.0934119
-0.163063
-0.203109
-0.216128
-0.204429
-0.17083
-0.121563
-0.0687565
-0.0258592
-0.00427189
-0.0110345
-0.0469701
-0.106224
-0.177736
-0.248344
-0.306345
-0.346883
-0.37226
-0.385278
-0.38684
-0.377855
-0.359637
-0.333239
-0.300216
-0.262768
-0.222792
-0.181563
-0.139643
-0.0971139
-0.0541237
-0.0137114
0.0165344
0.0263232
0.00737486
-0.0413678
-0.111144
-0.185125
-0.243778
-0.271165
-0.269568
-0.244803
-0.198255
-0.132836
-0.0522277
0.040471
0.143495
0.252934
0.359045
0.447584
0.502673
0.510581
0.464712
0.369522
0.241111
0.103494
-0.0184128
-0.109275
-0.174241
-0.22156
-0.254178
-0.273538
-0.281379
-0.279439
-0.269363
-0.252598
-0.230418
-0.204285
-0.175774
-0.146585
-0.118528
-0.0936046
-0.0746909
-0.06427
-0.0646229
-0.0775207
-0.103795
-0.142994
-0.193293
-0.251707
-0.314519
-0.377748
-0.437898
-0.491343
-0.534292
-0.562883
-0.573851
-0.564506
-0.533239
-0.480017
-0.406715
-0.317117
-0.216552
-0.111256
-0.00759611
0.0888153
0.171858
0.237696
0.284093
0.310441
0.317693
0.308141
0.285028
0.252013
0.21266
0.170161
0.127381
0.0866959
0.0515613
0.0267243
0.0169821
0.0268508
0.0592469
0.114253
0.188544
0.275847
0.368386
0.458837
0.54273
0.618817
0.687009
0.748363
0.803016
0.850784
0.890038
0.917275
0.928016
0.917864
0.883275
0.821989
0.733377
0.618989
0.485747
0.342261
0.196267
0.0561528
-0.0627369
-0.122469
-0.108606
-0.0516233
0
0.0041338
-0.0582507
-0.175901
-0.318919
-0.457158
-0.573821
-0.296007
0.368645
1.34774
2.6408
4.21478
5.92092
7.43756
8.32399
8.20712
7.00479
5.02442
2.84405
1.03572
-0.0915864
-0.56735
-0.627568
-0.566611
-0.507387
-0.45215
-0.402506
-0.359202
-0.32167
-0.28885
-0.259445
-0.231974
-0.205062
-0.177708
-0.149504
-0.1207
-0.0922633
-0.0660985
-0.0448043
-0.0308908
-0.0261382
-0.0308135
-0.0430765
-0.0588127
-0.0720593
-0.0760104
-0.0644007
-0.0340981
0.0163697
0.0856545
0.170464
0.266075
0.367604
0.472167
0.579928
0.694189
0.820458
0.964777
1.13184
1.32352
1.53578
1.76307
2.00013
2.24119
2.48054
2.71246
2.93
3.12478
3.28946
3.42035
3.51458
3.57029
3.58688
3.565
3.50626
3.41259
3.28582
3.128
2.9438
2.73793
2.5142
2.27583
2.02579
1.76708
1.50322
1.23818
0.976249
0.721789
0.479093
0.252181
0.0446432
-0.140517
-0.300815
-0.43408
-0.540082
-0.619919
-0.674961
-0.706026
-0.718971
-0.720881
-0.718478
-0.717042
-0.719666
-0.727045
-0.737814
-0.749294
-0.758366
-0.76279
-0.761369
-0.753409
-0.738784
-0.717916
-0.691685
-0.662025
-0.631738
-0.603871
-0.581407
-0.56697
-0.562583
-0.569442
-0.587673
-0.616078
-0.652517
-0.693013
-0.730299
-0.756863
-0.766893
-0.757887
-0.731169
-0.690988
-0.642562
-0.589955
-0.535103
-0.477944
-0.417374
-0.351321
-0.278887
-0.204323
-0.136438
-0.085276
-0.0587906
-0.0602754
-0.0874287
-0.133168
-0.187675
-0.240825
-0.285154
-0.318192
-0.340115
-0.351614
-0.353468
-0.346596
-0.332678
-0.314887
-0.297858
-0.286089
-0.282761
-0.288732
-0.301946
-0.317589
-0.329066
-0.329645
-0.306655
-0.252185
-0.180742
-0.115778
-0.0796416
-0.0843092
-0.127353
-0.194547
-0.267023
-0.328873
-0.374757
-0.408746
-0.433739
-0.450575
-0.459066
-0.458687
-0.448837
-0.429046
-0.399135
-0.357742
-0.30691
-0.254108
-0.207915
-0.17553
-0.160579
-0.16217
-0.175628
-0.194551
-0.213266
-0.228933
-0.241949
-0.253314
-0.264129
-0.275187
-0.286469
-0.296935
-0.304671
-0.307338
-0.302806
-0.289916
-0.267291
-0.235595
-0.199491
-0.164915
-0.136834
-0.117465
-0.105348
-0.0956842
-0.0819031
-0.0579545
-0.0205152
0.0281334
0.0853479
0.144726
0.199695
0.24579
0.282137
0.311565
0.339313
0.37089
0.409921
0.456163
0.506877
0.558015
0.604667
0.641945
0.664451
0.668601
0.651994
0.613608
0.554103
0.476114
0.384021
0.283782
0.183501
0.0951851
0.0308362
0
0.0117849
0.0682113
0.168313
0.305332
0.467431
0.640119
0.795991
0.911063
1.33837
2.36176
4.07323
6.23581
8.29024
9.54733
9.49689
8.07342
5.71614
3.17154
1.14538
0.00535731
-0.303102
-0.113684
0.016487
0.122621
0.187286
0.204013
0.179019
0.12991
0.0815667
0.059568
0.0781702
0.132803
0.226919
0.341134
0.449584
0.52908
0.566972
0.564389
0.533791
0.492575
0.456249
0.4332
0.422214
0.422055
0.434446
0.461533
0.505728
0.569102
0.652582
0.755293
0.873264
1.0023
1.13789
1.27595
1.41379
1.55065
1.68768
1.82728
1.97214
2.12409
2.28324
2.44754
2.61327
2.77571
2.93004
3.0722
3.19942
3.31061
3.4064
3.48851
3.55872
3.61704
3.65997
3.68121
3.67218
3.62209
3.52139
3.36542
3.15658
2.90427
2.62249
2.32639
2.02935
1.7375
1.45551
1.18704
0.935019
0.701821
0.489383
0.299153
0.131979
-0.0119708
-0.133191
-0.232702
-0.311702
-0.371028
-0.411975
-0.43599
-0.444711
-0.439383
-0.421146
-0.393904
-0.363276
-0.334509
-0.311298
-0.294996
-0.2846
-0.277574
-0.271211
-0.263868
-0.255975
-0.249752
-0.247926
-0.252176
-0.262116
-0.275331
-0.288412
-0.298395
-0.303904
-0.305971
-0.305352
-0.302706
-0.298053
-0.290527
-0.278528
-0.260224
-0.234428
-0.199759
-0.155412
-0.105677
-0.060786
-0.0322334
-0.0291736
-0.0549002
-0.104818
-0.167086
-0.226186
-0.268292
-0.287747
-0.289714
-0.278368
-0.259177
-0.236195
-0.210173
-0.178015
-0.122675
-0.0309749
0.0774094
0.159244
0.172974
0.10535
-0.0199533
-0.156617
-0.262038
-0.317939
-0.350216
-0.373748
-0.39145
-0.404256
-0.410749
-0.407716
-0.391429
-0.35925
-0.311282
-0.247065
-0.174558
-0.104172
-0.0460079
-0.0073387
0.00879085
0.00351762
-0.0190529
-0.053527
-0.0945683
-0.137377
-0.178971
-0.216519
-0.247178
-0.268412
-0.278128
-0.275129
-0.259536
-0.232987
-0.1985
-0.159975
-0.121498
-0.0865109
-0.0569984
-0.0337152
-0.0170991
-0.00708085
-0.00336131
-0.00562515
-0.0135428
-0.026831
-0.0449934
-0.0671301
-0.0918465
-0.117339
-0.141663
-0.163057
-0.179864
-0.191413
-0.19836
-0.201656
-0.20168
-0.197559
-0.187068
-0.167239
-0.133101
-0.0774032
-0.00749727
0.0617086
0.113781
0.137733
0.132854
0.109118
0.0831107
0.0714738
0.0848413
0.11755
0.161827
0.212872
0.26714
0.321362
0.372924
0.41993
0.460655
0.493577
0.517597
0.531431
0.533648
0.522931
0.498432
0.460147
0.409193
0.347944
0.280075
0.210044
0.142583
0.0821961
0.0325114
-0.00418829
-0.0271249
-0.036813
-0.0345613
-0.0218782
0
0.0317151
0.070659
0.116538
0.168798
0.226579
0.315522
0.649778
1.32584
2.46201
4.05712
5.92339
7.67793
8.83241
8.97721
7.98385
6.10511
3.88954
1.93999
0.650697
0.0770192
-0.00100818
0.00371206
0.00782175
0.0120469
0.0178306
0.0275348
0.0439987
0.0698722
0.106875
0.155213
0.213335
0.278093
0.345277
0.410373
0.469499
0.519747
0.559547
0.588673
0.608027
0.619317
0.624771
0.627002
0.628954
0.633963
0.646268
0.670221
0.710063
0.769321
0.850207
0.953232
1.07719
1.21949
1.37678
1.54503
1.72063
1.90135
2.08556
2.27213
2.46035
2.64968
2.83956
3.02912
3.21697
3.40098
3.57788
3.74349
3.89365
4.02432
4.13198
4.21379
4.26712
4.28759
4.2731
4.22166
4.13173
4.00286
3.83627
3.63524
3.40493
3.15189
2.88422
2.60972
2.33414
2.06279
1.80045
1.55135
1.31891
1.10558
0.91266
0.740396
0.587475
0.451808
0.331186
0.223995
0.130082
0.0504204
-0.0128969
-0.0560153
-0.0680448
-0.0347694
0.0467266
0.156636
0.264297
0.342818
0.374767
0.354118
0.286399
0.187971
0.083346
-0.0010066
-0.0487447
-0.064963
-0.0631198
-0.049613
-0.0306161
-0.0108831
0.00768023
0.026333
0.0485554
0.0782127
0.11757
0.165757
0.219117
0.271889
0.317767
0.351536
0.370251
0.373717
0.36429
0.346197
0.324713
0.304876
0.290608
0.284558
0.287819
0.300167
0.320893
0.348872
0.382146
0.418047
0.453316
0.484237
0.507564
0.520928
0.52321
0.514717
0.497054
0.47269
0.444333
0.414332
0.384328
0.355151
0.327257
0.30114
0.277474
0.257147
0.241119
0.230194
0.224548
0.224125
0.22846
0.236764
0.248035
0.261186
0.275131
0.288732
0.300691
0.309586
0.314042
0.312906
0.305501
0.291843
0.27273
0.249671
0.22465
0.199824
0.177211
0.158498
0.145197
0.138668
0.140194
0.150969
0.172076
0.205996
0.255479
0.319558
0.389871
0.454039
0.499641
0.517298
0.502866
0.458215
0.39061
0.311051
0.232042
0.164118
0.111897
0.0755952
0.0545275
0.0485205
0.0560501
0.074532
0.100745
0.131333
0.163282
0.194412
0.223484
0.250122
0.274581
0.297373
0.318731
0.338291
0.355057
0.36776
0.375757
0.38004
0.383895
0.392849
0.413804
0.453531
0.538561
0.685316
0.86192
1.02374
1.13386
1.17691
1.15939
1.09809
1.00612
0.886894
0.74485
0.590839
0.432544
0.275865
0.126329
-0.0124822
-0.139601
-0.250909
-0.341322
-0.412711
-0.465679
-0.499034
-0.513517
-0.514896
0
0.760238
1.73278
2.9494
4.43278
6.06956
7.53133
8.35159
8.14966
6.86691
4.84742
2.69199
0.971706
-0.0185407
-0.328217
-0.232218
-0.185737
-0.145065
-0.114036
-0.0941671
-0.0841108
-0.0797309
-0.0748039
-0.0622452
-0.0364329
0.0057642
0.0647585
0.137978
0.22152
0.309454
0.395319
0.473445
0.540029
0.593709
0.635512
0.668236
0.695468
0.720414
0.745438
0.771047
0.79577
0.818177
0.839164
0.86344
0.899424
0.957458
1.04702
1.17401
1.33194
1.51252
1.71089
1.92225
2.14135
2.36292
2.58204
2.79438
2.99633
3.18524
3.35955
3.51888
3.66416
3.79739
3.92083
4.03642
4.14691
4.25357
4.34424
4.39348
4.37207
4.2595
4.05294
3.76826
3.43328
3.07832
2.72823
2.38953
2.06449
1.75773
1.4729
1.21241
0.977241
0.767006
0.580095
0.414122
0.266487
0.134927
0.0179187
-0.0852153
-0.174478
-0.249231
-0.308236
-0.350952
-0.380238
-0.401898
-0.42225
-0.446453
-0.47706
-0.51332
-0.551495
-0.586108
-0.611734
-0.625645
-0.628127
-0.619139
-0.602828
-0.584513
-0.5692
-0.560417
-0.559748
-0.56708
-0.581288
-0.600879
-0.62406
-0.648707
-0.672234
-0.691078
-0.700874
-0.69715
-0.676345
-0.63354
-0.561732
-0.467859
-0.373031
-0.299221
-0.261831
-0.2646
-0.298617
-0.345924
-0.386713
-0.407434
-0.409233
-0.399977
-0.390827
-0.392178
-0.408865
-0.43793
-0.469902
-0.492886
-0.497455
-0.483268
-0.457267
-0.42392
-0.387257
-0.352249
-0.323814
-0.305773
-0.30043
-0.308294
-0.328017
-0.356576
-0.389778
-0.423052
-0.452445
-0.475867
-0.492114
-0.503238
-0.51374
-0.528582
-0.551257
-0.582262
-0.618534
-0.654114
-0.681868
-0.695695
-0.694501
-0.675792
-0.643441
-0.60617
-0.573201
-0.551209
-0.542227
-0.54321
-0.547374
-0.546829
-0.535509
-0.512515
-0.48127
-0.445235
-0.408715
-0.375633
-0.348623
-0.328704
-0.31554
-0.308037
-0.304949
-0.304995
-0.307377
-0.311353
-0.316145
-0.320997
-0.325418
-0.329478
-0.333981
-0.340388
-0.350406
-0.365399
-0.385815
-0.410858
-0.438558
-0.466207
-0.490967
-0.510371
-0.522551
-0.52603
-0.519282
-0.500402
-0.467161
-0.417592
-0.350932
-0.268506
-0.173688
-0.0726378
0.0274838
0.120108
0.200612
0.266928
0.31921
0.35875
0.386184
0.400141
0.397742
0.374454
0.325445
0.247527
0.140918
0.0102338
-0.137628
-0.28897
-0.429284
-0.546367
-0.632563
-0.685404
-0.706623
-0.700192
-0.670388
-0.621602
-0.559714
-0.487722
-0.407991
-0.317947
0
0.504265
1.34581
2.6466
4.37713
6.27287
7.85891
8.61338
8.20892
6.69777
4.51756
2.29593
0.563077
-0.454217
-0.848145
-0.874121
-0.850813
-0.826622
-0.801016
-0.773192
-0.742219
-0.707431
-0.668619
-0.626329
-0.58185
-0.536926
-0.493264
-0.451995
-0.413295
-0.37645
-0.340089
-0.302671
-0.263004
-0.220419
-0.17521
-0.128171
-0.0800666
-0.031152
0.0190274
0.0714715
0.127286
0.187193
0.251128
0.318279
0.388028
0.460229
0.535604
0.616099
0.704932
0.806295
0.924732
1.06431
1.22771
1.41552
1.62565
1.85335
2.0919
2.33309
2.56792
2.78679
2.98198
3.14787
3.28115
3.3806
3.44639
3.47937
3.48017
3.44868
3.38396
3.28521
3.15063
2.9791
2.77111
2.5294
2.25971
1.97008
1.66931
1.36622
1.06886
0.783499
0.513892
0.261151
0.0240877
-0.199935
-0.412416
-0.609915
-0.785791
-0.927122
-1.01601
-1.03795
-0.989485
-0.860086
-0.688189
-0.52093
-0.397588
-0.339049
-0.346085
-0.404194
-0.490855
-0.582315
-0.659453
-0.716994
-0.757918
-0.786539
-0.806189
-0.819043
-0.826578
-0.829955
-0.829798
-0.826108
-0.818296
-0.805363
-0.786188
-0.75991
-0.725786
-0.682999
-0.633367
-0.583687
-0.541965
-0.515142
-0.506952
-0.5168
-0.540089
-0.569829
-0.598755
-0.621189
-0.635947
-0.643647
-0.644427
-0.638838
-0.627824
-0.61254
-0.594176
-0.57382
-0.552279
-0.530089
-0.507606
-0.485207
-0.463578
-0.444158
-0.429549
-0.422864
-0.427292
-0.445137
-0.476877
-0.520548
-0.572062
-0.624823
-0.671567
-0.705913
-0.723698
-0.723741
-0.707849
-0.680119
-0.645772
-0.60993
-0.576356
-0.546945
-0.522415
-0.502956
-0.488471
-0.47846
-0.472346
-0.469474
-0.469028
-0.46997
-0.471077
-0.471106
-0.469033
-0.464308
-0.457024
-0.447666
-0.436948
-0.425647
-0.414368
-0.403361
-0.392431
-0.380961
-0.368047
-0.352711
-0.334153
-0.311929
-0.286053
-0.257461
-0.227945
-0.199832
-0.175664
-0.158203
-0.149604
-0.150622
-0.160487
-0.176774
-0.195613
-0.212321
-0.222385
-0.222556
-0.210651
-0.187905
-0.158473
-0.127366
-0.0986347
-0.0741299
-0.0533382
-0.0343316
-0.0153205
0.00366969
0.0196068
0.0280409
0.0259111
0.0139287
-0.00281656
-0.0163001
-0.0181651
-0.0020617
0.0301999
0.0756532
0.134176
0.21003
0.316758
0.473335
0.670248
0.866035
1.01593
1.09004
1.08018
0.995368
0.854017
0.679507
0.49962
0.341498
0.21488
0.116019
0.0383833
-0.0224037
-0.0675
-0.0981309
-0.116208
-0.12406
-0.124113
-0.118586
-0.109239
-0.0972574
-0.0832352
-0.0673076
0
0.361341
1.18654
2.63038
4.66456
6.96908
8.95764
9.98293
9.64008
7.99141
5.56227
3.09749
1.22061
0.193491
-0.108348
-0.0345735
-0.080127
-0.124157
-0.164472
-0.198729
-0.224658
-0.240425
-0.244984
-0.238257
-0.221085
-0.195007
-0.161954
-0.124425
-0.0844318
-0.0435443
-0.00302937
0.0362106
0.0737645
0.109793
0.14505
0.180823
0.218765
0.260649
0.308101
0.362355
0.424098
0.493419
0.569899
0.652831
0.74145
0.835207
0.934054
1.03862
1.15031
1.27122
1.40392
1.55102
1.71466
1.89604
2.09516
2.31077
2.54054
2.78179
3.03184
3.29079
3.56512
3.86285
4.15972
4.40405
4.5412
4.54745
4.44489
4.28539
4.1141
3.937
3.72609
3.48385
3.21943
2.93712
2.64102
2.33749
2.03511
1.74309
1.47032
1.2241
1.00932
0.82834
0.681069
0.564033
0.472252
0.400349
0.343418
0.297514
0.25968
0.228184
0.20148
0.176264
0.148656
0.11502
0.0731871
0.0235248
-0.0307554
-0.0842777
-0.130947
-0.165588
-0.187881
-0.197385
-0.194885
-0.182294
-0.162168
-0.137229
-0.109843
-0.0824461
-0.0566193
-0.0328439
-0.0104406
0.0121655
0.0368165
0.0650161
0.0970778
0.130232
0.159824
0.180888
0.189963
0.18636
0.172409
0.152662
0.13243
0.115851
0.104338
0.0980481
0.096212
0.0964717
0.096201
0.0935147
0.0880815
0.0814664
0.0768645
0.0782965
0.0895115
0.112259
0.147585
0.195988
0.253586
0.311138
0.358054
0.385053
0.386089
0.359575
0.308703
0.240773
0.165691
0.0939581
0.0332506
-0.0137439
-0.0469474
-0.0666152
-0.0725749
-0.0653354
-0.045914
-0.0155813
0.0249788
0.0745075
0.129259
0.182155
0.224908
0.249853
0.251819
0.22969
0.187089
0.131865
0.0744438
0.0254488
-0.00838552
-0.0264586
-0.0305085
-0.0206313
0.000263977
0.0258311
0.048574
0.0621971
0.0630548
0.0509658
0.0291176
0.00301268
-0.021273
-0.0389557
-0.048491
-0.051622
-0.0503952
-0.0470903
-0.0438862
-0.0423735
-0.0433692
-0.0470001
-0.0529094
-0.0603971
-0.0684161
-0.07559
-0.0799844
-0.0790535
-0.0699613
-0.0500573
-0.017526
0.0280184
0.0851955
0.150925
0.220907
0.290417
0.355251
0.412419
0.460614
0.500284
0.533309
0.562386
0.590246
0.619054
0.649813
0.680566
0.707159
0.724458
0.727729
0.713679
0.680923
0.629915
0.562617
0.482325
0.394402
0.30325
0.212615
0.126359
0.0486108
-0.0162785
-0.0646247
-0.0938437
-0.1022
-0.0889189
-0.0543262
0
0.0706511
0.153895
0.256394
0.565474
1.08974
1.96622
3.31689
5.13904
7.18734
8.9582
9.84538
9.42256
7.69139
5.12649
2.47325
0.415628
-0.691982
-0.894576
-0.508183
-0.209027
0.037135
0.201251
0.275934
0.290509
0.268772
0.236092
0.210652
0.197191
0.189843
0.184608
0.178204
0.170022
0.162719
0.161286
0.171108
0.195995
0.234951
0.284423
0.342754
0.408427
0.48022
0.557398
0.63958
0.726471
0.81759
0.912045
1.00884
1.10705
1.20612
1.30616
1.40807
1.51354
1.62487
1.74466
1.87545
2.01942
2.17804
2.35193
2.54075
2.74325
2.95745
3.18088
3.41122
3.64735
3.88922
4.13858
4.40046
4.65407
4.85764
4.97096
4.97614
4.8818
4.7095
4.47317
4.16799
3.78908
3.38014
2.97571
2.58813
2.22025
1.87422
1.55411
1.26251
1.00077
0.769434
0.568527
0.397759
0.256972
0.147903
0.0744589
0.0374839
0.0266214
0.0284965
0.0308279
0.0253793
0.00965478
-0.0133829
-0.0374878
-0.0563333
-0.066461
-0.0702415
-0.0714554
-0.0746652
-0.0844565
-0.104152
-0.134906
-0.175403
-0.22222
-0.270709
-0.316165
-0.355175
-0.386374
-0.409759
-0.425558
-0.434473
-0.437289
-0.434597
-0.426736
-0.413926
-0.396556
-0.375347
-0.351672
-0.327948
-0.307179
-0.292103
-0.284379
-0.283906
-0.288469
-0.293831
-0.293193
-0.260362
-0.125749
0.0868445
0.303887
0.436028
0.421795
0.257689
-0.00114152
-0.265503
-0.44399
-0.478514
-0.449885
-0.400357
-0.336769
-0.270156
-0.210598
-0.165038
-0.136031
-0.121955
-0.118607
-0.121429
-0.127313
-0.134903
-0.14416
-0.154963
-0.166211
-0.175581
-0.180063
-0.177032
-0.165368
-0.146745
-0.123779
-0.100383
-0.0806061
-0.0675805
-0.062761
-0.0656382
-0.0739756
-0.0844657
-0.0936005
-0.0985367
-0.0978862
-0.0918696
-0.0816449
-0.0687115
-0.0547813
-0.0416408
-0.0309198
-0.0238175
-0.0209197
-0.0220773
-0.0263515
-0.0320779
-0.0370922
-0.0391271
-0.0356985
-0.0236676
-0.00347279
0.0180867
0.0322881
0.0324212
0.0172853
-0.00771275
-0.032763
-0.0482939
-0.0492102
-0.0385274
-0.0251788
-0.0188029
-0.0240457
-0.0375753
-0.0494496
-0.0479848
-0.025332
0.0156189
0.0664019
0.122938
0.18203
0.241531
0.300782
0.360507
0.422237
0.487465
0.55705
0.630846
0.704869
0.772596
0.826853
0.861489
0.872439
0.857893
0.81775
0.752962
0.665311
0.560595
0.444748
0.32103
0.200406
0.0962043
0.0203719
-0.0201111
-0.0256467
-0.00419434
0.0309413
0.0649145
0.0853954
0.0882398
0.0726355
0.0425368
0.00534043
0
0.339945
1.16868
2.60045
4.57324
6.77764
8.69104
9.7458
9.57052
8.17688
5.97457
3.5919
1.60236
0.312931
-0.282035
-0.390227
-0.267107
-0.154234
-0.0609255
0.00568035
0.0420969
0.0497749
0.0355725
0.0109133
-0.0104376
-0.015518
0.00321225
0.0435389
0.0998935
0.167363
0.241425
0.317343
0.390616
0.457582
0.515765
0.563957
0.602049
0.630665
0.650718
0.663481
0.670633
0.674277
0.677278
0.683602
0.698483
0.728276
0.779944
0.860216
0.97451
1.12606
1.31516
1.53887
1.79134
2.06454
2.3489
2.63578
2.91779
3.18928
3.44639
3.68605
3.90637
4.1066
4.28608
4.44331
4.57616
4.68249
4.75231
4.76601
4.70052
4.53909
4.28052
3.94333
3.56243
3.17961
2.82127
2.48555
2.17051
1.87932
1.61352
1.37317
1.15721
0.963796
0.790777
0.63607
0.497913
0.374977
0.26632
0.171243
0.0891106
0.0192035
-0.0393645
-0.0876535
-0.126863
-0.158276
-0.183229
-0.203108
-0.219313
-0.233268
-0.246501
-0.260407
-0.275962
-0.293491
-0.312533
-0.331885
-0.349842
-0.364593
-0.374647
-0.379206
-0.378149
-0.371963
-0.361466
-0.347496
-0.330756
-0.311657
-0.290518
-0.267743
-0.244075
-0.220773
-0.199404
-0.181481
-0.168025
-0.159207
-0.154216
-0.151412
-0.148759
-0.144416
-0.137172
-0.126687
-0.114665
-0.10379
-0.0967249
-0.095135
-0.099149
-0.107439
-0.11782
-0.128032
-0.136387
-0.142293
-0.145298
-0.145146
-0.141663
-0.13476
-0.124541
-0.111444
-0.0964254
-0.0806707
-0.0654914
-0.0523302
-0.0427577
-0.0383733
-0.0406632
-0.0509462
-0.0701885
-0.0987481
-0.1361
-0.180634
-0.229902
-0.280057
-0.325841
-0.362284
-0.38571
-0.394381
-0.388542
-0.369841
-0.340389
-0.3019
-0.255366
-0.196332
-0.123241
-0.0488109
0.00502229
0.0157728
-0.0271889
-0.114698
-0.21973
-0.308614
-0.355635
-0.364172
-0.353476
-0.330971
-0.301512
-0.269269
-0.237079
-0.206373
-0.177623
-0.15121
-0.127858
-0.109245
-0.0979832
-0.0970201
-0.108773
-0.134276
-0.172582
-0.220552
-0.273131
-0.324124
-0.367464
-0.397992
-0.412312
-0.40916
-0.389173
-0.354149
-0.306094
-0.246438
-0.177012
-0.0986352
-0.0112618
0.0846586
0.18778
0.296386
0.406128
0.508594
0.594864
0.657879
0.694358
0.705667
0.697182
0.676253
0.649489
0.62046
0.589184
0.55403
0.512373
0.4621
0.402506
0.334807
0.262096
0.189038
0.121729
0.0659252
0.0259565
0.00401602
0
0.0112144
0.0351224
0.0681698
0.106941
0.148468
0.194344
0.426676
0.990204
2.07283
3.77035
5.94034
8.12766
9.66548
9.95438
8.78494
6.49787
3.84995
1.64399
0.347635
-0.0639209
0.0325882
0.0273132
0.0210509
0.0152024
0.0118465
0.0140148
0.0251273
0.0482008
0.0838308
0.131654
0.190309
0.257386
0.329175
0.400601
0.466685
0.523784
0.570241
0.606556
0.634998
0.658759
0.680892
0.703469
0.726656
0.748597
0.766847
0.78033
0.791066
0.805009
0.83158
0.881932
0.966385
1.08757
1.24223
1.42502
1.62977
1.84972
2.07758
2.30642
2.53054
2.74615
2.95142
3.14629
3.33176
3.50929
3.68009
3.84434
4.00136
4.15008
4.28899
4.41569
4.52518
4.60795
4.65591
4.65958
4.60664
4.48591
4.29254
4.03204
3.72044
3.38044
3.03541
2.69975
2.37672
2.0711
1.78642
1.52504
1.28825
1.07624
0.888393
0.723416
0.577862
0.447672
0.328938
0.218758
0.115905
0.0215384
-0.0617536
-0.130431
-0.181231
-0.210673
-0.216013
-0.200856
-0.173615
-0.143867
-0.120007
-0.1074
-0.10749
-0.117976
-0.133866
-0.149105
-0.158453
-0.159218
-0.151494
-0.13723
-0.118698
-0.0982059
-0.0777347
-0.058497
-0.040766
-0.0239855
-0.00708361
0.0111357
0.0315229
0.0544647
0.0799517
0.107436
0.135706
0.162982
0.187313
0.207022
0.221128
0.229707
0.234039
0.236479
0.240008
0.247538
0.261153
0.281686
0.30859
0.338364
0.366326
0.387923
0.399998
0.401571
0.393894
0.379783
0.362512
0.344706
0.327553
0.31102
0.294514
0.277456
0.259877
0.24273
0.227775
0.217062
0.212199
0.214369
0.22264
0.234473
0.246876
0.257611
0.266122
0.273816
0.283544
0.298464
0.322657
0.357529
0.39563
0.425381
0.435475
0.419401
0.378108
0.319702
0.256434
0.200435
0.158965
0.130365
0.111634
0.101493
0.0990089
0.103512
0.114883
0.133628
0.160703
0.198574
0.251625
0.324482
0.415378
0.510775
0.592056
0.641853
0.648731
0.610534
0.536034
0.444304
0.361035
0.311478
0.304748
0.330281
0.374433
0.430667
0.490745
0.54682
0.593002
0.626302
0.646774
0.656924
0.660722
0.66261
0.6666
0.675443
0.691718
0.717518
0.756446
0.815595
0.898889
0.994797
1.08433
1.14794
1.17179
1.15171
1.09332
1.00899
0.913217
0.818366
0.730208
0.648673
0.572282
0.499716
0.430171
0.363017
0.29787
0.234837
0.174766
0.119366
0.070495
0.0301509
0
-0.019105
0.0371257
0.431588
1.18519
2.43683
4.24453
6.44895
8.60678
10.0903
10.3502
9.20713
6.98403
4.37689
2.12673
0.690078
0.0995288
0.0679384
0.114804
0.141607
0.16067
0.171271
0.174193
0.171607
0.166745
0.163403
0.16516
0.174832
0.19421
0.223818
0.263063
0.310537
0.364135
0.42056
0.476511
0.529818
0.579978
0.628222
0.677046
0.729314
0.787244
0.851638
0.921343
0.994309
1.0685
1.14244
1.21588
1.29008
1.3677
1.45229
1.54768
1.65691
1.78206
1.92484
2.0863
2.26671
2.46549
2.68104
2.91057
3.14994
3.39381
3.63477
3.86239
4.06662
4.23887
4.37305
4.46592
4.51676
4.52647
4.49664
4.42867
4.32356
4.18315
4.00922
3.80386
3.56993
3.31119
3.03214
2.73758
2.43261
2.12323
1.81613
1.51836
1.23684
0.977815
0.746295
0.545593
0.377069
0.240117
0.132502
0.0509922
-0.00854034
-0.050885
-0.080504
-0.101186
-0.115922
-0.127006
-0.136256
-0.14538
-0.156461
-0.171616
-0.192594
-0.220192
-0.253771
-0.291135
-0.32891
-0.363293
-0.390919
-0.410402
-0.421053
-0.42276
-0.415976
-0.401406
-0.380158
-0.353118
-0.321108
-0.285168
-0.246665
-0.207469
-0.169912
-0.136449
-0.109258
-0.089902
-0.0790484
-0.0763322
-0.0803914
-0.0890946
-0.0999232
-0.110445
-0.118805
-0.124088
-0.126247
-0.126216
-0.125566
-0.126122
-0.129556
-0.137085
-0.149316
-0.166261
-0.18749
-0.212265
-0.239924
-0.270113
-0.302726
-0.337701
2
249
490
735
987
1227
1458
1697
1945
2183
2423
2667
2904
3141
3380
3615
3697
3316
3508
3705
3695
3687
3540
3709
3409
3556
3701
0
0
0
0
0
0
0
0
0
0
0
0
0
0
0
0
0
0
0
0
0
0
0
0
0
0
0
0
0
0
0
0
0
0
0
0
0
0
0
0
0
0
0
0
0
0
0
0
0
0
0
0
0
0
0
0
0
0
0
0
0
0
0
0
0
0
0
0
0
0
0
0
0
0
0
0
0
0
0
0
0
0
0
0
0
0
0
0
0
0
0
0
0
0
0
0
0
0
0
0
0
0
0
0
0
0
0
0
0
0
0
0
0
0
0
0
0
0
0
0
0
0
0
0
0
0
0
0
0
0
0
0
0
0
0
0
0
0
0
0
0
0
0
0
0
0
0
0
0
0
0
0
0
0
0
0
0
0
0
0
0
0
0
0
0
0
0
0
0
0
0
0
0
0
0
0
0
0
0
0
0
0
0
0
0
0
0
0
0
0
0
0
0
0
0
0
0
0
0
0
0
0
0
0
0
0
0
0
0
0
0
0
0
0
0
0
0
0
0
0
0
0
0
0
0
0
0
0
0
0
0
0
0
0
0
0
0
0
0
0
0
0
0
0
0
0
0
0
0
0
0
0
0
0
0
0
0
0
0
0
0
0
0
0
0
0
0
0
0
0
0
0
0
0
0
0
0
0
0
0
0
0
0
0
0
0
0
0
0
0
0
0
0
0
0
0
0
0
0
0
0
0
0
0
0
0
0
0
0
0
0
0
0
0
0
0
0
0
0
0
0
0
0
0
0
0
0
0
0
0
0
0
0
0
0
0
0
0
0
0
0
0
0
0
0
0
0
0
0
0
0
0
0
0
0
0
0
0
0
0
0
0
0
0
0
0
0
0
0
0
0
0
0
0
0
0
0
0
0
0
0
0
0
0
0
0
0
0
0
0
0
0
0
0
0
0
0
0
0
0
0
0
0
0
0
0
0
0
0
0
0
0
0
0
0
0
0
0
0
0
0
0
0
0
0
0
0
0
0
0
0
0
0
0
0
0
0
0
0
0
0
0
0
0
0
0
0
0
0
0
0
0
0
0
0
0
0
0
0
0
0
0
0
0
0
0
0
0
0
0
0
0
0
0
0
0
0
0
0
0
0
0
0
0
0
0
0
0
0
0
0
0
0
0
0
0
0
0
0
0
0
0
0
0
0
0
0
0
0
0
0
0
0
0
0
0
0
0
0
0
0
0
0
0
0
0
0
0
0
0
0
0
0
0
0
0
0
0
0
0
0
0
0
0
0
0
0
0
0
0
0
0
0
0
0
0
0
0
0
0
0
0
0
0
0
0
0
0
0
0
0
0
0
0
0
0
0
0
0
0
0
0
0
0
0
0
0
0
0
0
0
0
0
0
0
0
0
0
0
0
0
0
0
0
0
0
0
0
0
0
0
0
0
0
0
0
0
0
0
0
0
0
0
0
0
0
0
0
0
0
0
0
0
0
0
0
0
0
0
0
0
0
0
0
0
0
0
0
0
0
0
0
0
0
0
0
0
0
0
0
0
0
0
0
0
0
0
0
0
0
0
0
0
0
0
0
0
0
0
0
0
0
0
0
0
0
0
0
0
0
0
0
0
0
0
0
0
0
0
0
0
0
0
0
0
0
0
0
0
0
0
0
0
0
0
0
0
0
0
0
0
0
0
0
0
0
0
0
0
0
0
0
0
0
0
0
0
0
0
0
0
0
0
0
0
0
0
0
0
0
0
0
0
0
0
0
0
0
0
0
0
0
0
0
0
0
0
0
0
0
0
0
0
0
0
0
0
0
0
0
0
0
0
0
0
0
0
0
0
0
0
0
0
0
0
0
0
0
0
0
0
0
0
0
0
0
0
0
0
0
0
0
0
0
0
0
0
0
0
0
0
0
0
0
0
0
0
0
0
0
0
0
0
0
0
0
0
0
0
0
0
0
0
0
0
0
0
0
0
0
0
0
0
0
0
0
0
0
0
0
0
0
0
0
0
0
0
0
0
0
0
0
0
0
0
0
0
0
0
0
0
0
0
0
0
0
0
0
0
0
0
0
0
0
0
0
0
0
0
0
0
0
0
0
0
0
0
0
0
0
0
0
0
0
0
0
0
0
0
0
0
0
0
0
0
0
0
0
0
0
0
0
0
0
0
0
0
0
0
0
0
0
0
0
0
0
0
0
0
0
0
0
0
0
0
0
0
0
0
0
0
0
0
0
0
0
0
0
0
0
0
0
0
0
0
0
0
0
0
0
0
0
0
0
0
0
0
0
0
0
0
0
0
0
0
0
0
0
0
0
0
0
0
0
0
0
0
0
0
0
0
0
0
0
0
0
0
0
0
0
0
0
0
0
0
0
0
0
0
0
0
0
0
0
0
0
0
0
0
0
0
0
0
0
0
0
0
0
0
0
0
0
0
0
0
0
0
0
0
0
0
0
0
0
0
0
0
0
0
0
0
0
0
0
0
0
0
0
0
0
0
0
0
0
0
0
0
0
0
0
0
0
0
0
0
0
0
0
0
0
0
0
0
0
0
0
0
0
0
0
0
0
0
0
0
0
0
0
0
0
0
0
0
0
0
0
0
0
0
0
0
0
0
0
0
0
0
0
0
0
0
0
0
0
0
0
0
0
0
0
0
0
0
0
0
0
0
0
0
0
0
0
0
0
0
0
0
0
0
0
0
0
0
0
0
0
0
0
0
0
0
0
0
0
0
0
0
0
0
0
0
0
0
0
0
0
0
0
0
0
0
0
0
0
0
0
0
0
0
0
0
0
0
0
0
0
0
0
0
0
0
0
0
0
0
0
0
0
0
0
0
0
0
0
0
0
0
0
0
0
0
0
0
0
0
0
0
0
0
0
0
0
0
0
0
0
0
0
0
0
0
0
0
0
0
0
0
0
0
0
0
0
0
0
0
0
0
0
0
0
0
0
0
0
0
0
0
0
0
0
0
0
0
0
0
0
0
0
0
0
0
0
0
0
0
0
0
0
0
0
0
0
0
0
0
0
0
0
0
0
0
0
0
0
0
0
0
0
0
0
0
0
0
0
0
0
0
0
0
0
0
0
0
0
0
0
0
0
0
0
0
0
0
0
0
0
0
0
0
0
0
0
0
0
0
0
0
0
0
0
0
0
0
0
0
0
0
0
0
0
0
0
0
0
0
0
0
0
0
0
0
0
0
0
0
0
0
0
0
0
0
0
0
0
0
0
0
0
0
0
0
0
0
0
0
0
0
0
0
0
0
0
0
0
0
0
0
0
0
0
0
0
0
0
0
0
0
0
0
0
0
0
0
0
0
0
0
0
0
0
0
0
0
0
0
0
0
0
0
0
0
0
0
0
0
0
0
0
0
0
0
0
0
0
0
0
0
0
0
0
0
0
0
0
0
0
0
0
0
0
0
0
0
0
0
0
0
0
0
0
0
0
0
0
0
0
0
0
0
0
0
0
0
0
0
0
0
0
0
0
0
0
0
0
0
0
0
0
0
0
0
0
0
0
0
0
0
0
0
0
0
0
0
0
0
0
0
0
0
0
0
0
0
0
0
0
0
0
0
0
0
0
0
0
0
0
0
0
0
0
0
0
0
0
0
0
0
0
0
0
0
0
0
0
0
0
0
0
0
0
0
0
0
0
0
0
0
0
0
0
0
0
0
0
0
0
0
0
0
0
0
0
0
0
0
0
0
0
0
0
0
0
0
0
0
0
0
0
0
0
0
0
0
0
0
0
0
0
0
0
0
0
0
0
0
0
0
0
0
0
0
0
0
0
0
0
0
0
0
0
0
0
0
0
0
0
0
0
0
0
0
0
0
0
0
0
0
0
0
0
0
0
0
0
0
0
0
0
0
0
0
0
0
0
0
0
0
0
0
0
0
0
0
0
0
0
0
0
0
0
0
0
0
0
0
0
0
0
0
0
0
0
0
0
0
0
0
0
0
0
0
0
0
0
0
0
0
0
0
0
0
0
0
0
0
0
0
0
0
0
0
0
0
0
0
0
0
0
0
0
0
0
0
0
0
0
0
0
0
0
0
0
0
0
0
0
0
0
0
0
0
0
0
0
0
0
0
0
0
0
0
0
0
0
0
0
0
0
0
0
0
0
0
0
0
0
0
0
0
0
0
0
0
0
0
0
0
0
0
0
0
0
0
0
0
0
0
0
0
0
0
0
0
0
0
0
0
0
0
0
0
0
0
0
0
0
0
0
0
0
0
0
0
0
0
0
0
0
0
0
0
0
0
0
0
0
0
0
0
0
0
0
0
0
0
0
0
0
0
0
0
0
0
0
0
0
0
0
0
0
0
0
0
0
0
0
0
0
0
0
0
0
0
0
0
0
0
0
0
0
0
0
0
0
0
0
0
0
0
0
0
0
0
0
0
0
0
0
0
0
0
0
0
0
0
0
0
0
0
0
0
0
0
0
0
0
0
0
0
0
0
0
0
0
0
0
0
0
0
0
0
0
0
0
0
0
0
0
0
0
0
0
0
0
0
0
0
0
0
0
0
0
0
0
0
0
0
0
0
0
0
0
0
0
0
0
0
0
0
0
0
0
0
0
0
0
0
0
0
0
0
0
0
0
0
0
0
0
0
0
0
0
0
0
0
0
0
0
0
0
0
0
0
0
0
0
0
0
0
0
0
0
0
0
0
0
0
0
0
0
0
0
0
0
0
0
0
0
0
0
0
0
0
0
0
0
0
0
0
0
0
0
0
0
0
0
0
0
0
0
0
0
0
0
0
0
0
0
0
0
0
0
0
0
0
0
0
0
0
0
0
0
0
0
0
0
0
0
0
0
0
0
0
0
0
0
0
0
0
0
0
0
0
0
0
0
0
0
0
0
0
0
0
0
0
0
0
0
0
0
0
0
0
0
0
0
0
0
0
0
0
0
0
0
0
0
0
0
0
0
0
0
0
0
0
0
0
0
0
0
0
0
0
0
0
0
0
0
0
0
0
0
0
0
0
0
0
0
0
0
0
0
0
0
0
0
0
0
0
0
0
0
0
0
0
0
0
0
0
0
0
0
0
0
0
0
0
0
0
0
0
0
0
0
0
0
0
0
0
0
0
0
0
0
0
0
0
0
0
0
0
0
0
0
0
0
0
0
0
0
0
0
0
0
0
0
0
0
0
0
0
0
0
0
0
0
0
0
0
0
0
0
0
0
0
0
0
0
0
0
0
0
0
0
0
0
0
0
0
0
0
0
0
0
0
0
0
0
0
0
0
0
0
0
0
0
0
0
0
0
0
0
0
0
0
0
0
0
0
0
0
0
0
0
0
0
0
0
0
0
0
0
0
0
0
0
0
0
0
0
0
0
0
0
0
0
0
0
0
0
0
0
0
0
0
0
0
0
0
0
0
0
0
0
0
0
0
0
0
0
0
0
0
0
0
0
0
0
0
0
0
0
0
0
0
0
0
0
0
0
0
0
0
0
0
0
0
0
0
0
0
0
0
0
0
0
0
0
0
0
0
0
0
0
0
0
0
0
0
0
0
0
0
0
0
0
0
0
0
0
0
0
0
0
0
0
0
0
0
0
0
0
0
0
0
0
0
0
0
0
0
0
0
0
0
0
0
0
0
0
0
0
0
0
0
0
0
0
0
0
0
0
0
0
0
0
0
0
0
0
0
0
0
0
0
0
0
0
0
0
0
0
0
0
0
0
0
0
0
0
0
0
0
0
0
0
0
0
0
0
0
0
0
0
0
0
0
0
0
0
0
0
0
0
0
0
0
0
0
0
0
0
0
0
0
0
0
0
0
0
0
0
0
0
0
0
0
0
0
0
0
0
0
0
0
0
0
0
0
0
0
0
0
0
0
0
0
0
0
0
0
0
0
0
0
0
0
0
0
0
0
0
0
0
0
0
0
0
0
0
0
0
0
0
0
0
0
0
0
0
0
0
0
0
0
0
0
0
0
0
0
0
0
0
0
0
0
0
0
0
0
0
0
0
0
0
0
0
0
0
0
0
0
0
0
0
0
0
0
0
0
0
0
0
0
0
0
0
0
0
0
0
0
0
0
0
0
0
0
0
0
0
0
0
0
0
0
0
0
0
0
0
0
0
0
0
0
0
0
0
0
0
0
0
0
0
0
0
0
0
0
0
0
0
0
0
0
0
0
0
0
0
0
0
0
0
0
0
0
0
0
0
0
0
0
0
0
0
0
0
0
0
0
0
0
0
0
0
0
0
0
0
0
0
0
0
0
0
0
0
0
0
0
0
0
0
0
0
0
0
0
0
0
0
0
0
0
0
0
0
0
0
0
0
0
0
0
0
0
0
0
0
0
0
0
0
0
0
0
0
0
0
0
0
0
0
0
0
0
0
0
0
0
0
0
0
0
0
0
0
0
0
0
0
0
0
0
0
0
0
0
0
0
0
0
0
0
0
0
0
0
0
0
0
0
0
0
0
0
0
0
0
0
0
0
0
0
0
0
0
0
0
0
0
0
0
0
0
0
0
0
0
0
0
0
0
0
0
0
0
0
0
0
0
0
0
0
0
0
0
0
0
0
0
0
0
0
0
0
0
0
0
0
0
0
0
0
0
0
0
0
0
0
0
0
0
0
0
0
0
0
0
0
0
0
0
0
0
0
0
0
0
0
0
0
0
0
0
0
0
0
0
0
0
0
0
0
0
0
0
0
0
0
0
0
0
0
0
0
0
0
0
0
0
0
0
0
0
0
0
0
0
0
0
0
0
0
0
0
0
0
0
0
0
0
0
0
0
0
0
0
0
0
0
0
0
0
0
0
0
0
0
0
0
0
0
0
0
0
0
0
0
0
0
0
0
0
0
0
0
0
0
0
0
0
0
0
0
0
0
0
0
0
0
0
0
0
0
0
0
0
0
0
0
0
0
0
0
0
0
0
0
0
0
0
0
0
0
0
0
0
0
0
0
0
0
0
0
0
0
0
0
0
0
0
0
0
0
0
0
0
0
0
0
0
0
0
0
0
0
0
0
0
0
0
0
0
0
0
0
0
0
0
0
0
0
0
0
0
0
0
0
0
0
0
0
0
0
0
0
0
0
0
0
0
0
0
0
0
0
0
0
0
0
0
0
0
0
0
0
0
0
0
0
0
0
0
0
0
0
0
0
0
0
0
0
0
0
0
0
0
0
0
0
0
0
0
0
0
0
0
0
0
0
0
0
0
0
0
0
0
0
0
0
0
0
0
0
0
0
0
0
0
0
0
0
0
0
0
0
0
0
0
0
0
0
0
0
0
0
0
0
0
0
0
0
0
0
0
0
0
0
0
0
0
0
0
0
0
0
0
0
0
0
0
0
0
0
0
0
0
0
0
0
0
0
0
0
0
0
0
0
0
0
0
0
0
0
0
0
0
0
0
0
0
0
0
0
0
0
0
0
0
0
0
0
0
0
0
0
0
0
0
0
0
0
0
0
0
0
0
0
0
0
0
0
0
0
0
0
0
0
0
0
0
0
0
0
0
0
0
0
0
0
0
0
0
0
0
0
0
0
0
0
0
0
0
0
0
0
0
0
0
0
0
0
0
0
0
0
0
0
0
0
0
0
0
0
0
0
0
0
0
0
0
0
0
0
0
0
0
0
0
0
0
0
0
0
0
0
0
0
0
0
0
0
0
0
0
0
0
0
0
0
0
0
0
0
0
0
0
0
0
0
0
0
0
0
0
0
0
0
0
0
0
0
0
0
0
0
0
0
0
0
0
0
0
0
0
0
0
0
0
0
0
0
0
0
0
0
0
0
0
0
0
0
0
0
0
0
0
0
0
0
0
0
0
0
0
0
0
0
0
0
0
0
0
0
0
0
0
0
0
0
0
0
0
0
0
0
0
0
0
0
0
0
0
0
0
0
0
0
0
0
0
0
0
0
0
0
0
0
0
0
0
0
0
0
0
0
0
0
0
0
0
0
0
0
0
0
0
0
0
0
0
0
0
0
0
0
0
0
0
0
0
0
0
0
0
0
0
0
0
0
0
0
0
0
0
0
0
0
0
0
0
0
0
0
0
0
0
0
0
0
0
0
0
0
0
0
0
0
0
0
0
0
0
0
0
0
0
0
0
0
0
0
0
0
0
0
0
0
0
0
0
0
0
0
0
0
0
0
0
0
0
0
0
0
0
0
0
0
0
0
0
0
0
0
0
0
0
0
0
0
0
0
0
0
0
0
0
0
0
0
0
0
0
0
0
0
0
0
0
0
0
0
0
0
0
0
0
0
0
0
0
0
0
0
0
0
0
0
0
0
0
0
0
0
0
0
0
0
0
0
0
0
0
0
0
0
0
0
0
0
0
0
0
0
0
0
0
0
0
0
0
0
0
0
0
0
0
0
0
0
0
0
0
0
0
0
0
0
0
0
0
0
0
0
0
0
0
0
0
0
0
0
0
0
0
0
0
0
0
0
0
0
0
0
0
0
0
0
0
0
0
0
0
0
0
0
0
0
0
0
0
0
