9.85373
11.2869
11.1543
9.69503
7.50786
5.26293
3.44119
2.21964
1.51484
1.11545
0.834427
0.649751
0.479979
0.324886
0.18892
0.0748222
-0.0166447
-0.086161
-0.135078
-0.166778
-0.186636
-0.1991
-0.206526
-0.208509
-0.202019
-0.182393
-0.145006
-0.0743286
0.0322609
0.153539
0.261114
0.3319
0.358348
0.351107
0.333163
0.329126
0.355552
0.408163
0.476641
0.556314
0.645066
0.741672
0.845976
0.958918
1.08232
1.21851
1.36991
1.5386
1.72591
1.93203
2.1558
2.39457
2.64442
2.90055
3.15801
3.41243
3.6607
3.90137
4.13477
4.36217
4.58554
4.80855
5.03591
5.26356
5.47147
5.63349
5.72543
5.73113
5.64584
5.47532
5.2303
4.91918
4.54416
4.12169
3.67314
3.21359
2.7527
2.29896
1.86184
1.45101
1.07519
0.741429
0.456727
0.226923
0.0481091
-0.0883335
-0.19234
-0.272816
-0.335877
-0.384183
-0.417525
-0.43217
-0.419362
-0.380169
-0.331228
-0.29532
-0.293248
-0.335766
-0.41892
-0.524488
-0.625423
-0.694537
-0.720446
-0.712825
-0.671513
-0.603842
-0.526517
-0.456569
-0.406587
-0.381482
-0.377714
-0.385148
-0.390832
-0.383463
-0.358929
-0.313177
-0.256115
-0.20288
-0.16793
-0.159523
-0.176829
-0.210955
-0.249488
-0.282521
-0.307368
-0.329675
-0.35536
-0.389668
-0.434682
-0.487859
-0.542326
-0.588874
-0.618903
-0.62935
-0.621827
-0.598249
-0.56497
-0.529875
-0.500579
-0.482958
-0.480304
-0.49322
-0.520053
-0.55757
-0.601504
-0.647069
-0.689479
-0.722923
-0.742033
-0.742218
-0.720474
-0.676112
-0.611098
-0.529853
-0.438598
-0.344532
-0.255678
-0.182398
-0.133084
-0.114164
-0.128583
-0.174086
-0.242286
-0.319511
-0.389653
-0.438138
-0.458747
-0.45495
-0.427934
-0.381467
-0.320647
-0.250824
-0.176734
-0.101242
-0.0259865
0.0480854
0.120391
0.190414
0.257428
0.320553
0.378898
0.43171
0.47856
0.519381
0.554335
0.583484
0.605943
0.62049
0.625566
0.619517
0.601251
0.570786
0.529414
0.479441
0.423637
0.364664
0.304836
0.245771
0.188811
0.135135
0.0856377
0.0407372
0
-0.0330044
-0.0696007
-0.116376
-0.180484
-0.280124
-0.446791
-0.674316
-0.945514
-1.23876
-0.970589
0.155309
2.23412
4.94992
7.61118
9.4233
9.86149
8.9171
7.067
4.99878
3.27479
2.13514
1.51731
1.21858
1.07505
0.957077
0.842617
0.73235
0.629121
0.536715
0.458698
0.398378
0.35812
0.338791
0.339483
0.357642
0.389543
0.430965
0.477864
0.526746
0.575261
0.621853
0.665619
0.706515
0.745268
0.783368
0.822962
0.866597
0.916806
0.975655
1.0444
1.12285
1.21004
1.3053
1.40806
1.518
1.63524
1.76028
1.89395
2.03722
2.19106
2.35621
2.53307
2.72154
2.92093
3.12997
3.34679
3.56912
3.79447
4.0205
4.24536
4.46804
4.68854
4.90787
5.12799
5.35308
5.59256
5.85434
6.12024
6.35375
6.52011
6.59786
6.58104
6.47388
6.2832
6.0136
5.66936
5.27167
4.852
4.4324
4.0234
3.62974
3.25649
2.90812
2.58751
2.29595
2.03353
1.7996
1.59327
1.41378
1.26065
1.13342
1.0317
0.955418
0.903257
0.871164
0.853876
0.845828
0.841977
0.838499
0.833178
0.825427
0.81597
0.806334
0.798216
0.792935
0.791275
0.793467
0.799224
0.807815
0.818288
0.829725
0.84153
0.85366
0.86674
0.882006
0.901065
0.925466
0.956212
0.993452
1.03644
1.08247
1.12782
1.16851
1.20111
1.22326
1.23395
1.23334
1.22246
1.20287
1.17684
1.14659
1.11436
1.08263
1.05413
1.03158
1.01744
1.01407
1.02299
1.04264
1.06781
1.09176
1.10769
1.11019
1.0963
1.066
1.02209
0.969595
0.915021
0.864895
0.824454
0.797709
0.791776
0.824514
0.931029
1.11731
1.32909
1.49831
1.56511
1.50075
1.32096
1.08172
0.858535
0.71851
0.668029
0.664175
0.685248
0.726901
0.785784
0.858029
0.939164
1.02477
1.11059
1.19203
1.26508
1.32684
1.3759
1.41262
1.43893
1.45791
1.47289
1.48657
1.50014
1.5129
1.52202
1.52313
1.51145
1.48315
1.43653
1.37269
1.29546
1.21051
1.12407
1.04139
0.965044
0.895935
0.833584
0.776328
0.721865
0.667484
0.610434
0.54804
0.476536
0.386938
0.27442
0.1424
0
-0.112575
0.49789
2.08817
4.58239
7.47495
10.0046
11.4844
11.598
10.496
8.66258
6.66228
4.92498
3.65741
2.86807
2.44191
2.22577
2.1001
1.9859
1.88173
1.79081
1.71525
1.6559
1.61246
1.58372
1.56799
1.56332
1.56785
1.58003
1.59867
1.62273
1.65148
1.68399
1.71834
1.75219
1.78372
1.81231
1.83895
1.86603
1.89663
1.9335
1.97827
2.03055
2.08981
2.15606
2.23008
2.31369
2.4094
2.51976
2.64641
2.78905
2.94512
3.11191
3.28679
3.46753
3.65302
3.8435
4.04041
4.24586
4.46178
4.68917
4.92749
5.17449
5.42646
5.67883
5.92673
6.16523
6.38968
6.59538
6.77647
6.92508
7.03425
7.0967
7.10239
7.04115
6.90648
6.69875
6.42648
6.10492
5.75248
5.38866
5.02502
4.66661
4.31749
3.98109
3.66052
3.35895
3.07974
2.82634
2.60193
2.40886
2.24882
2.12537
2.0417
1.98998
1.95639
1.92683
1.89016
1.8409
1.7803
1.71556
1.65751
1.61742
1.59963
1.6037
1.63692
1.70156
1.78182
1.85835
1.91424
1.93999
1.93583
1.91033
1.87602
1.84398
1.81999
1.80183
1.78667
1.77264
1.75878
1.74557
1.73474
1.72856
1.72897
1.73612
1.74918
1.76694
1.78762
1.80918
1.82962
1.8472
1.86059
1.86878
1.87129
1.86827
1.8606
1.85004
1.83931
1.83193
1.83183
1.8448
1.88059
1.94787
2.03471
2.11602
2.16477
2.16237
2.10657
2.01323
1.9108
1.8296
1.7903
1.78448
1.79652
1.82002
1.84744
1.871
1.88507
1.88744
1.87969
1.86682
1.85587
1.85397
1.86602
1.89617
1.93902
1.98453
2.02194
2.04379
2.04817
2.03832
2.02013
1.99934
1.97968
1.96231
1.9483
1.93864
1.93439
1.93637
1.94474
1.95889
1.9769
1.99627
2.01492
2.03218
2.04946
2.07033
2.09985
2.14399
2.21897
2.34005
2.48772
2.62816
2.72693
2.76157
2.72791
2.63846
2.51522
2.38151
2.25638
2.14661
2.05126
1.96887
1.89865
1.84018
1.79303
1.75658
1.7297
1.71077
1.6977
1.68761
1.67703
1.65965
1.59738
1.34526
0.922723
0.440533
0
0.331316
1.65414
3.9664
6.8769
9.69074
11.6639
12.3145
11.6222
9.99857
8.05
6.2864
4.9483
4.02313
3.38238
2.92217
2.69813
2.4974
2.31252
2.14949
2.0121
1.90201
1.81871
1.7601
1.72213
1.7
1.68895
1.68494
1.6851
1.68777
1.69243
1.69933
1.70905
1.72234
1.73989
1.76218
1.7894
1.82149
1.85825
1.89948
1.94536
1.99658
2.05449
2.12084
2.19755
2.28609
2.38709
2.49988
2.62258
2.75262
2.88709
3.02376
3.16182
3.30231
3.44801
3.60276
3.7705
3.95406
4.15429
4.36934
4.59527
4.82674
5.05794
5.28381
5.50097
5.70781
5.90228
6.08114
6.2822
6.6396
7.09544
7.52987
7.8119
7.84335
7.59955
7.13971
6.57782
6.02946
5.57124
5.15584
4.75376
4.36126
3.98043
3.61673
3.27584
2.96292
2.68192
2.43541
2.2228
2.04012
1.88138
1.73975
1.60888
1.4842
1.36368
1.24812
1.1408
1.04642
0.975999
0.95875
1.03466
1.17426
1.32082
1.41473
1.41676
1.323
1.16503
0.995956
0.868201
0.812244
0.798852
0.803619
0.818519
0.838837
0.861876
0.887352
0.916941
0.95309
0.997522
1.05074
1.1098
1.1676
1.21574
1.24709
1.25781
1.24825
1.22236
1.18618
1.14588
1.10629
1.06963
1.03676
1.00803
0.983495
0.963108
0.946884
0.934971
0.927624
0.925093
0.927445
0.934405
0.94527
0.958845
0.973297
0.986372
0.995953
1.00047
0.99917
0.992218
0.980538
0.965531
0.948772
0.931786
0.915899
0.902277
0.892012
0.886011
0.884815
0.888431
0.896168
0.906485
0.917355
0.926696
0.93286
0.93502
0.933352
0.92895
0.923523
0.918946
0.916763
0.917902
0.922592
0.930534
0.940969
0.953054
0.966237
0.980472
0.996204
1.01408
1.03457
1.05767
1.08088
1.09876
1.1053
1.09668
1.07406
1.0447
1.02077
1.01588
1.04048
1.09526
1.17257
1.26511
1.36313
1.45665
1.53844
1.60307
1.64733
1.66957
1.66802
1.64123
1.58857
1.51039
1.40919
1.29069
1.1629
1.03875
0.931432
0.85124
0.803154
0.785939
0.792964
0.814192
0.83841
0.855322
0.85462
0.828132
0.76929
0.673548
0.530039
0.342456
0.120941
-0.118748
0
0.904864
2.73103
5.31778
8.14479
10.4582
11.5707
11.1883
9.55819
7.33154
5.22495
3.69964
2.8394
2.44866
2.2484
1.94336
1.6546
1.38265
1.13839
0.930818
0.76695
0.65468
0.622318
0.674126
0.770623
0.866779
0.926919
0.935683
0.901164
0.849422
0.812826
0.816921
0.887959
1.00268
1.11362
1.17031
1.14094
1.02657
0.863251
0.711432
0.635528
0.673434
0.825234
1.2689
1.86236
2.40768
2.75438
2.83894
2.69068
2.41013
2.13664
2.01901
2.17442
2.45448
2.77018
3.09623
3.42135
3.73699
4.03766
4.32161
4.59079
4.85014
5.10628
5.36611
5.64129
5.94248
6.24711
6.51931
6.72627
6.8504
6.8916
6.86009
6.76531
6.60823
6.38167
6.09826
5.77071
5.40682
5.0133
4.59977
4.17797
3.75753
3.34728
2.95577
2.59068
2.25819
1.96391
1.71331
1.50504
1.33345
1.19112
1.07063
0.966303
0.875177
0.797093
0.733782
0.687352
0.662516
0.660627
0.672898
0.686837
0.689967
0.673767
0.636366
0.583105
0.524802
0.474363
0.442739
0.431506
0.437026
0.457258
0.488612
0.526156
0.565181
0.602094
0.634786
0.662426
0.684765
0.700713
0.707589
0.701883
0.679589
0.638164
0.578602
0.506718
0.432921
0.370387
0.332057
0.326388
0.37927
0.488552
0.620438
0.735396
0.803446
0.814329
0.779099
0.723453
0.676198
0.65769
0.665143
0.687388
0.716663
0.744085
0.762171
0.766817
0.758199
0.740409
0.719994
0.703903
0.697268
0.701025
0.713578
0.732873
0.756698
0.782551
0.808165
0.831857
0.852667
0.870295
0.884906
0.896891
0.906671
0.914633
0.921142
0.926678
0.931957
0.937989
0.94601
0.957302
0.972949
0.993616
1.01947
1.05039
1.08604
1.12639
1.17211
1.22482
1.28706
1.36195
1.45644
1.59121
1.78765
2.01433
2.22167
2.362
2.40754
2.35892
2.24106
2.09034
1.94034
1.81273
1.70554
1.61226
1.52982
1.45744
1.39537
1.34415
1.30448
1.27679
1.26065
1.25494
1.25781
1.26653
1.27757
1.28526
1.28197
1.25884
1.20261
1.04215
0.773908
0.419451
0.0209777
0
0.834629
2.56357
4.9284
7.39491
9.32851
10.2349
9.95679
8.72432
7.02544
5.3699
4.08197
3.22864
2.69777
2.34237
2.17448
2.03744
1.90663
1.78048
1.65931
1.54503
1.44244
1.35815
1.29913
1.27144
1.2777
1.31528
1.37764
1.45138
1.52215
1.57868
1.61595
1.63602
1.64659
1.65787
1.67901
1.7131
1.75815
1.81267
1.87394
1.93666
1.99574
2.04817
2.09408
2.13711
2.18384
2.24234
2.3204
2.42391
2.55243
2.70283
2.87249
3.05832
3.25621
3.46146
3.66912
3.8743
4.07273
4.2619
4.44159
4.61425
4.7847
4.95941
5.14523
5.35095
5.59856
5.91323
6.27375
6.60922
6.86684
7.02184
7.06903
7.01559
6.87653
6.66848
6.40043
6.067
5.67112
5.23662
4.78689
4.33632
3.89365
3.46595
3.06056
2.68374
2.34028
2.03336
1.76455
1.53403
1.34093
1.18318
1.05782
0.962317
0.893489
0.845625
0.812798
0.789394
0.770637
0.752989
0.734343
0.713987
0.692384
0.670834
0.650955
0.634287
0.622118
0.615431
0.614415
0.617782
0.62308
0.627628
0.629371
0.627621
0.62339
0.619157
0.618096
0.623016
0.635146
0.654396
0.678355
0.703124
0.724692
0.740154
0.748446
0.750364
0.7479
0.743249
0.737943
0.732514
0.726824
0.720688
0.714486
0.709526
0.707973
0.712332
0.724691
0.745631
0.773963
0.807884
0.844348
0.87964
0.909941
0.931839
0.942715
0.940985
0.926239
0.899288
0.862157
0.817943
0.770612
0.725272
0.687229
0.661374
0.65161
0.6604
0.688487
0.734799
0.796667
0.87257
0.955978
1.03524
1.09856
1.13634
1.14334
1.12003
1.07249
1.01106
0.948008
0.894986
0.857624
0.836804
0.832135
0.842852
0.868192
0.905773
0.95031
0.995506
1.03692
1.0735
1.10823
1.14758
1.19969
1.27163
1.38133
1.52216
1.66602
1.77959
1.83912
1.84024
1.79757
1.73519
1.67388
1.62295
1.57743
1.53322
1.48781
1.43986
1.38939
1.33727
1.28454
1.23194
1.17983
1.12838
1.07771
1.02772
0.977742
0.926027
0.869505
0.804005
0.718986
0.586491
0.401516
0.17135
-0.0844985
0
0.894502
2.73423
5.30923
8.0691
10.3024
11.4178
11.1852
9.80998
7.80563
5.74668
4.0454
2.85565
2.11867
1.68421
1.55271
1.45517
1.36327
1.27627
1.19332
1.11388
1.03827
0.96819
0.906346
0.856152
0.820981
0.803253
0.803675
0.820852
0.851456
0.891057
0.933904
0.974713
1.00983
1.03805
1.06091
1.08242
1.10825
1.14439
1.19567
1.26401
1.34798
1.44398
1.54667
1.65017
1.74953
1.84192
1.92718
2.00772
2.08787
2.17291
2.26778
2.37602
2.50082
2.64457
2.80871
2.99365
3.19881
3.42268
3.66296
3.91681
4.18116
4.45301
4.7297
5.00934
5.29043
5.5705
5.84308
6.09292
6.29751
6.43212
6.47811
6.42889
6.29107
6.08025
5.813
5.49875
5.14509
4.76518
4.37137
3.97192
3.57328
3.18265
2.80812
2.45778
2.1386
1.85646
1.6181
1.42544
1.27165
1.14713
1.04187
0.947658
0.859489
0.776041
0.69902
0.631852
0.577069
0.53505
0.506734
0.493196
0.493167
0.500693
0.509129
0.512847
0.508746
0.497084
0.48135
0.467169
0.460596
0.466031
0.483689
0.515552
0.558427
0.601767
0.633396
0.642896
0.624767
0.580461
0.518623
0.453317
0.400623
0.3739
0.37431
0.397101
0.438789
0.495653
0.560063
0.623891
0.680103
0.723942
0.753425
0.769071
0.77303
0.767967
0.756322
0.739834
0.719038
0.694226
0.665991
0.635676
0.605511
0.578342
0.557012
0.544071
0.541428
0.547471
0.558469
0.569966
0.57827
0.581571
0.580255
0.576306
0.572116
0.569215
0.567596
0.565466
0.560473
0.551394
0.539577
0.529396
0.527346
0.546279
0.602948
0.683083
0.755559
0.787805
0.763827
0.693593
0.607886
0.54204
0.519055
0.532466
0.562744
0.603469
0.650483
0.700341
0.750354
0.797869
0.840472
0.876089
0.903594
0.923551
0.938532
0.952696
0.970695
0.996362
1.03085
1.07274
1.12036
1.17172
1.22421
1.2744
1.3181
1.35136
1.37067
1.3734
1.35824
1.32541
1.27655
1.21441
1.14228
1.06358
0.981736
0.899381
0.818489
0.74063
0.666811
0.597303
0.531275
0.466359
0.398953
0.324743
0.23829
0.128066
-0.0101582
-0.173318
-0.354593
-0.545179
0
1.39969
3.63737
6.34583
8.89744
10.6498
11.2151
10.6025
9.1633
7.39106
5.70559
4.32949
3.28935
2.5004
1.87282
1.62979
1.42743
1.25188
1.10964
1.00333
0.931974
0.891796
0.877232
0.882015
0.899669
0.924733
0.953436
0.983431
1.01361
1.04393
1.07504
1.10793
1.14359
1.18267
1.22539
1.27153
1.32045
1.37151
1.42435
1.47918
1.53683
1.59863
1.66631
1.74168
1.82644
1.92184
2.02894
2.14827
2.27958
2.42172
2.57271
2.73046
2.89209
3.05562
3.22105
3.39091
3.57006
3.76485
3.98153
4.22469
4.4959
4.79145
5.10609
5.43456
5.77054
6.10499
6.42107
6.70382
6.9602
7.17363
7.30155
7.30157
7.15876
6.89562
6.55863
6.19063
5.80911
5.41813
5.02477
4.63316
4.24684
3.87031
3.50842
3.16571
2.84584
2.55115
2.28246
2.03921
1.81995
1.62286
1.44636
1.28994
1.15363
1.0377
0.94254
0.868103
0.813549
0.777068
0.755959
0.746904
0.746319
0.75087
0.757473
0.763689
0.767992
0.769817
0.769467
0.767835
0.765985
0.764677
0.764007
0.763133
0.760401
0.754008
0.742817
0.727071
0.708683
0.690955
0.677756
0.672414
0.676478
0.690177
0.711044
0.734754
0.756835
0.774144
0.78593
0.794119
0.80274
0.816648
0.840659
0.881377
0.936071
0.989146
1.02098
1.01601
0.969845
0.892051
0.803019
0.725896
0.677369
0.65559
0.648904
0.652451
0.661188
0.671471
0.681894
0.69317
0.707249
0.726068
0.750141
0.778337
0.808968
0.839781
0.868529
0.893554
0.914168
0.930735
0.944431
0.956798
0.969223
0.982507
0.996674
1.01081
1.02343
1.03311
1.03902
1.04129
1.04102
1.03995
1.04
1.04277
1.04908
1.05913
1.07308
1.09124
1.11422
1.14298
1.17873
1.22361
1.28049
1.34903
1.41929
1.47656
1.50676
1.50216
1.46565
1.41127
1.36025
1.33369
1.34492
1.3862
1.44411
1.51042
1.57816
1.64072
1.69272
1.73039
1.75168
1.75601
1.744
1.71736
1.67829
1.62952
1.57406
1.51504
1.45533
1.39717
1.34192
1.28996
1.24062
1.19226
1.14246
1.08824
1.02571
0.948273
0.841789
0.685007
0.488837
0.272718
0.0585992
0
0.56724
1.95953
4.23523
7.08364
9.84347
11.7425
12.2435
11.2923
9.31462
6.97677
4.87426
3.32935
2.37682
1.88472
1.69319
1.6629
1.63023
1.5966
1.56285
1.53094
1.50358
1.48364
1.47354
1.47489
1.48841
1.51412
1.55166
1.60042
1.65859
1.72454
1.79648
1.87174
1.94698
2.01868
2.08353
2.13884
2.18219
2.21179
2.22785
2.23198
2.22735
2.21895
2.21354
2.21917
2.24426
2.29639
2.37938
2.49572
2.64478
2.82299
3.02442
3.24087
3.46554
3.69334
3.92102
4.14745
4.3734
4.6009
4.83227
5.06908
5.31147
5.55779
5.80489
6.04881
6.28574
6.51294
6.72886
6.93159
7.11719
7.28289
7.42302
7.51252
7.51408
7.39455
7.14112
6.7688
6.3165
5.83498
5.37153
4.93568
4.52416
4.14177
3.79117
3.47258
3.18408
2.92226
2.68311
2.46293
2.25909
2.0704
1.897
1.74059
1.60483
1.49111
1.39798
1.3227
1.2623
1.21481
1.18
1.15924
1.1546
1.16749
1.19557
1.23626
1.28549
1.33733
1.3857
1.4254
1.45295
1.46672
1.46685
1.45476
1.43277
1.40431
1.37251
1.34052
1.31145
1.28797
1.27186
1.26377
1.26332
1.26871
1.27635
1.28227
1.28362
1.27952
1.27131
1.26198
1.25491
1.25263
1.25587
1.26212
1.26724
1.26738
1.2607
1.2482
1.23305
1.21907
1.20905
1.20288
1.19896
1.19545
1.19007
1.18047
1.1649
1.14258
1.11394
1.0807
1.04564
1.01212
0.983378
0.961935
0.950209
0.948156
0.953483
0.963476
0.976337
0.992034
1.01224
1.03934
1.07484
1.11977
1.16894
1.21402
1.24627
1.25968
1.25318
1.23103
1.20145
1.1742
1.1577
1.15497
1.16622
1.19133
1.22999
1.2814
1.34435
1.41751
1.49957
1.58925
1.6848
1.78248
1.87412
1.94868
1.99407
1.99983
1.96033
1.87751
1.76191
1.63132
1.50692
1.40754
1.33756
1.29201
1.27179
1.26998
1.27687
1.28207
1.27645
1.25338
1.20904
1.14197
1.05237
0.94154
0.804333
0.634421
0.438034
0.223405
0
0.216649
1.14784
2.94389
5.44752
8.14232
10.3016
11.2917
10.8687
9.29072
7.17115
5.16516
3.68429
2.79729
2.33266
2.07121
1.92297
1.78852
1.6658
1.55951
1.473
1.40797
1.3645
1.34194
1.33676
1.3435
1.35632
1.3699
1.38031
1.38554
1.38564
1.38257
1.37966
1.38093
1.39025
1.41082
1.44476
1.49283
1.55475
1.62957
1.71559
1.81036
1.91109
2.01451
2.11696
2.21544
2.3082
2.39518
2.47809
2.56025
2.64616
2.741
2.84958
2.97558
3.12275
3.29418
3.49172
3.71576
3.96507
4.23702
4.52783
4.83324
5.14903
5.47146
5.7974
6.12446
6.44931
6.76456
7.05549
7.30455
7.49434
7.61152
7.64874
7.60327
7.47385
7.25849
6.95597
6.57115
6.13042
5.66406
5.19421
4.73357
4.28895
3.86754
3.47526
3.11653
2.79424
2.50995
2.26396
2.05546
1.88272
1.74327
1.63407
1.55172
1.4928
1.45365
1.43011
1.4177
1.41171
1.4075
1.40105
1.38964
1.37211
1.34914
1.32303
1.29724
1.27566
1.26177
1.25752
1.26302
1.2781
1.30115
1.32882
1.35793
1.38652
1.41442
1.44321
1.4755
1.51591
1.56748
1.62429
1.67457
1.70465
1.704
1.66901
1.60424
1.52151
1.4374
1.36872
1.32329
1.30311
1.31489
1.36465
1.43806
1.51519
1.57685
1.61028
1.61202
1.58716
1.54612
1.50077
1.46092
1.43041
1.41089
1.40389
1.41001
1.42851
1.45748
1.49388
1.53307
1.57006
1.60028
1.62012
1.62739
1.62135
1.60268
1.57326
1.53593
1.49451
1.45296
1.41511
1.3846
1.36473
1.35872
1.36836
1.39161
1.42187
1.45064
1.46995
1.47429
1.462
1.43561
1.4011
1.36653
1.34015
1.32791
1.33193
1.35184
1.38676
1.43603
1.49872
1.57352
1.65884
1.75279
1.8531
1.95722
2.06197
2.16369
2.25844
2.34184
2.40841
2.45179
2.46767
2.45259
2.4048
2.32503
2.21722
2.0884
1.9479
1.8058
1.67122
1.54894
1.44139
1.35083
1.27828
1.22364
1.18621
1.16757
1.16607
1.16502
1.14195
1.07292
0.932712
0.705068
0.402625
0.0572221
0
0.924531
2.98316
5.88851
8.94478
11.2981
12.2944
11.757
10.0316
7.7867
5.69563
4.17877
3.31783
2.93739
2.76786
2.57951
2.40844
2.24741
2.10003
1.97015
1.86063
1.77295
1.70739
1.66392
1.64157
1.63519
1.63685
1.63945
1.63849
1.63325
1.6271
1.62641
1.63858
1.66949
1.72778
1.81309
1.90796
1.99108
2.04637
2.07033
2.07436
2.0808
2.11413
2.19089
2.30652
2.44275
2.58739
2.73225
2.87082
2.99958
3.11878
3.23212
3.3458
3.46705
3.60251
3.75624
3.93019
4.12447
4.33739
4.56621
4.80791
5.05969
5.3192
5.58453
5.85464
6.12404
6.38233
6.61742
6.81874
6.97634
7.07513
7.11313
7.08386
6.97465
6.77203
6.4711
6.08303
5.63547
5.165
4.70456
4.26284
3.83984
3.43967
3.06523
2.71874
2.40218
2.11738
1.8659
1.64862
1.46533
1.31444
1.19291
1.09654
1.02021
0.95857
0.906746
0.86098
0.818971
0.779947
0.744465
0.713816
0.689412
0.672493
0.663568
0.661434
0.664093
0.66942
0.675843
0.682779
0.690709
0.700909
0.71498
0.734173
0.758831
0.788945
0.824049
0.862771
0.900767
0.931692
0.949114
0.948422
0.928561
0.892826
0.848234
0.803629
0.767215
0.742834
0.729517
0.726077
0.7308
0.741139
0.754214
0.767314
0.77815
0.785274
0.788223
0.787527
0.784543
0.781123
0.779155
0.780103
0.784993
0.793474
0.804394
0.816391
0.82851
0.840596
0.853271
0.867506
0.883996
0.902596
0.922134
0.940569
0.955517
0.964944
0.967821
0.964535
0.956949
0.948072
0.941388
0.939993
0.945873
0.959303
0.978916
1.00225
1.02618
1.04758
1.06382
1.07309
1.07437
1.06731
1.05208
1.02981
1.00171
0.96942
0.935588
0.903808
0.878028
0.861907
0.858231
0.868519
0.892919
0.930398
0.979126
1.03691
1.10139
1.17035
1.24214
1.31571
1.39048
1.46627
1.5433
1.62201
1.703
1.78618
1.86778
1.93851
1.98529
1.99459
1.95676
1.86977
1.74108
1.58674
1.42805
1.2863
1.17082
1.08104
1.02337
0.996926
0.992277
0.996752
0.996983
0.981098
0.940203
0.86905
0.76608
0.630442
0.446928
0.226804
-0.0094471
-0.24656
-0.479785
0
1.29277
3.4805
6.29628
9.12032
11.1918
11.9408
11.2467
9.4711
7.25733
5.227
3.74568
2.85433
2.35978
1.99713
1.69088
1.41768
1.17441
0.970797
0.812053
0.712189
0.670922
0.66971
0.686828
0.703147
0.706428
0.692879
0.665838
0.632611
0.601062
0.576559
0.560584
0.55395
0.55851
0.576256
0.610416
0.675182
0.811122
1.06482
1.37466
1.6534
1.82148
1.82998
1.67861
1.42353
1.16822
1.03433
1.11329
1.31072
1.55061
1.80945
2.07985
2.35756
2.63987
2.92541
3.2136
3.5038
3.79453
4.08303
4.36521
4.63604
4.89096
5.12682
5.34288
5.54085
5.72069
5.88479
6.07708
6.39684
6.79202
7.15004
7.40056
7.50778
7.447
7.1882
6.70851
6.0287
5.25082
4.57969
4.07489
3.63869
3.23471
2.86401
2.52897
2.23069
1.96901
1.74346
1.55179
1.38888
1.24884
1.12584
1.01507
0.913336
0.819325
0.733319
0.656566
0.590106
0.534284
0.489042
0.453406
0.42576
0.404104
0.386601
0.372158
0.360904
0.354469
0.355378
0.366589
0.390539
0.428232
0.479401
0.540698
0.606461
0.669877
0.723865
0.761132
0.777143
0.770047
0.741119
0.694939
0.639135
0.58348
0.538289
0.512367
0.510299
0.531757
0.574449
0.632173
0.693845
0.748902
0.789933
0.814215
0.823695
0.823507
0.819559
0.816106
0.814185
0.811789
0.805116
0.790546
0.766467
0.734218
0.697888
0.663233
0.636299
0.620436
0.616667
0.626149
0.650104
0.69039
0.748866
0.824031
0.90735
0.985098
1.04311
1.07008
1.06052
1.01653
0.947714
0.869179
0.7978
0.747317
0.721241
0.715002
0.722835
0.741224
0.765947
0.792734
0.81818
0.84054
0.859946
0.878219
0.898271
0.92326
0.95566
0.996679
1.04693
1.10354
1.1629
1.22236
1.28162
1.34309
1.41096
1.48939
1.58022
1.6839
1.79158
1.89028
1.96693
2.01233
2.0235
2.00364
1.96009
1.90133
1.83466
1.76532
1.69562
1.62663
1.55915
1.49397
1.43195
1.37383
1.32
1.27019
1.22317
1.1766
1.12703
1.06983
0.994289
0.862461
0.655226
0.380801
0.0669973
0
0.789251
2.67081
5.41636
8.32234
10.4881
11.246
10.4855
8.66922
6.54614
4.76069
3.6013
3.00256
2.728
2.55986
2.35957
2.16609
1.98059
1.80849
1.65449
1.52252
1.41519
1.3335
1.27698
1.2441
1.23288
1.24154
1.26819
1.31127
1.37023
1.44629
1.54392
1.66723
1.80219
1.92228
2.00022
2.01835
1.97803
1.90229
1.82846
1.79336
1.81885
1.88781
1.97857
2.08201
2.19399
2.31167
2.43348
2.55903
2.68866
2.82301
2.96269
3.10817
3.26003
3.41928
3.58762
3.76752
3.96196
4.17393
4.40578
4.65862
4.93194
5.22353
5.53176
5.8561
6.19159
6.52086
6.81722
7.05924
7.22848
7.31127
7.29986
7.19212
6.99144
6.70702
6.35269
5.94524
5.50976
5.06744
4.62953
4.20137
3.78886
3.39799
3.03379
2.69977
2.39765
2.1273
1.88707
1.67437
1.48635
1.3206
1.17559
1.05083
0.946636
0.863802
0.803203
0.765226
0.749796
0.756543
0.782675
0.817758
0.846763
0.855985
0.836514
0.787066
0.714972
0.634507
0.562755
0.514408
0.493577
0.49351
0.511325
0.543355
0.585385
0.633318
0.68368
0.733959
0.781022
0.821125
0.850361
0.865084
0.862961
0.843949
0.810713
0.768273
0.723051
0.681687
0.648826
0.626433
0.616501
0.619532
0.634731
0.660743
0.692434
0.723718
0.748839
0.763607
0.766226
0.757424
0.73988
0.717184
0.692734
0.668876
0.646611
0.626285
0.607971
0.591763
0.578043
0.567556
0.56129
0.56018
0.565195
0.576758
0.593102
0.610772
0.626066
0.636265
0.640518
0.639991
0.637166
0.6346
0.633702
0.633999
0.633721
0.630527
0.62263
0.609742
0.593458
0.576914
0.563825
0.557267
0.558314
0.567265
0.581334
0.596859
0.610969
0.62305
0.635411
0.652867
0.681375
0.726229
0.789857
0.869536
0.961652
1.0632
1.16965
1.27389
1.36641
1.4386
1.48337
1.49595
1.47462
1.42098
1.33954
1.23676
1.11985
0.996369
0.872776
0.753366
0.641609
0.540973
0.454697
0.385352
0.334798
0.304881
0.297398
0.309348
0.326332
0.329039
0.298372
0.220053
0.0884632
-0.0915778
-0.305842
-0.534351
-0.725941
0
1.67559
4.17861
7.01951
9.47866
10.8941
10.9528
9.81682
8.01039
6.13659
4.59765
3.4788
2.63691
1.89781
1.29408
1.13432
1.00449
0.89743
0.812404
0.745337
0.690495
0.642673
0.599092
0.56032
0.529979
0.513393
0.514957
0.544035
0.611327
0.70361
0.794734
0.858739
0.880872
0.865022
0.833869
0.820702
0.855594
0.951767
1.10527
1.27733
1.42008
1.49866
1.50699
1.46968
1.4306
1.43443
1.50992
1.63536
1.78757
1.95691
2.1379
2.32589
2.51788
2.7129
2.91184
3.11677
3.32993
3.55262
3.78425
4.02197
4.2608
4.49452
4.71643
4.92107
5.1052
5.26852
5.41384
5.544
5.66248
5.8194
6.11247
6.48271
6.78612
6.8656
6.62737
6.08723
5.36552
4.64416
4.10791
3.69709
3.31685
2.95305
2.60343
2.26706
1.94499
1.64033
1.35792
1.10423
0.892432
0.748466
0.69079
0.694427
0.722657
0.738912
0.718086
0.653139
0.555271
0.448213
0.358775
0.305354
0.282043
0.282967
0.29962
0.32111
0.337583
0.343069
0.336708
0.32198
0.304465
0.289307
0.279274
0.274329
0.274829
0.281366
0.29516
0.317814
0.35048
0.392835
0.443253
0.496245
0.5448
0.582268
0.604196
0.609411
0.600016
0.580457
0.556135
0.532095
0.511505
0.496091
0.486841
0.484092
0.487673
0.496947
0.510218
0.524846
0.538334
0.549037
0.556736
0.562819
0.56989
0.58088
0.597885
0.622501
0.652035
0.678701
0.693308
0.688836
0.663648
0.623065
0.578669
0.545539
0.552226
0.651394
0.827413
1.01564
1.14436
1.16406
1.06429
0.876461
0.663517
0.499097
0.440869
0.481266
0.630328
0.823116
0.978306
1.03102
0.957722
0.784995
0.580022
0.425842
0.387833
0.442269
0.585917
0.759286
0.889963
0.92457
0.853788
0.718172
0.590185
0.538704
0.592874
0.696457
0.811389
0.924273
1.02559
1.11019
1.17788
1.23279
1.28185
1.33281
1.39531
1.48137
1.58508
1.68306
1.74712
1.75566
1.70242
1.59859
1.46756
1.335
1.21976
1.12336
1.03984
0.966172
0.90168
0.846277
0.799963
0.762612
0.733575
0.71138
0.693543
0.676301
0.65432
0.621381
0.571078
0.489243
0.349372
0.153188
-0.0872929
-0.351958
0
1.30792
3.55662
6.3362
8.96391
10.7553
11.3049
10.6318
9.12151
7.31112
5.64891
4.3529
3.41687
2.72021
2.16936
1.96496
1.78608
1.62269
1.47768
1.35147
1.24249
1.14789
1.06509
0.992272
0.928867
0.875967
0.836393
0.814042
0.812592
0.834378
0.87969
0.946571
1.03106
1.12775
1.23025
1.33287
1.43151
1.52354
1.6075
1.68307
1.75118
1.81386
1.87403
1.93507
2.00042
2.07326
2.15624
2.25136
2.36
2.48303
2.62101
2.77434
2.94319
3.12746
3.32651
3.53907
3.76309
3.99589
4.23447
4.47588
4.71776
4.95868
5.19831
5.43739
5.67754
5.92249
6.18005
6.45064
6.70861
6.91757
7.04541
7.07612
7.01178
6.86376
6.64077
6.34446
5.98014
5.57691
5.15656
4.7308
4.30619
3.88673
3.47642
3.07948
2.70049
2.34443
2.01649
1.72155
1.4636
1.24509
1.0664
0.925698
0.820097
0.74662
0.698933
0.66489
0.633167
0.595308
0.547395
0.490854
0.432017
0.380368
0.356218
0.390696
0.46854
0.548607
0.584206
0.547866
0.447063
0.322318
0.227926
0.204633
0.247899
0.318155
0.397211
0.467149
0.515598
0.538809
0.54161
0.534424
0.528592
0.531768
0.545182
0.563168
0.576025
0.574552
0.554537
0.51929
0.479017
0.44717
0.435239
0.447062
0.481049
0.526649
0.570178
0.600147
0.611449
0.606761
0.594768
0.586106
0.588808
0.603626
0.625879
0.651365
0.675435
0.694375
0.706377
0.711811
0.712817
0.71252
0.714197
0.720083
0.731581
0.749554
0.774315
0.805798
0.840912
0.872965
0.894404
0.89918
0.88522
0.855935
0.819914
0.788638
0.772889
0.77818
0.804619
0.847195
0.896168
0.941284
0.975256
0.995798
1.00549
1.00976
1.01411
1.02193
1.03318
1.0474
1.0645
1.0856
1.11343
1.15206
1.20592
1.27847
1.37696
1.50594
1.65467
1.80215
1.9269
2.01192
2.04705
2.02902
1.96068
1.85065
1.71327
1.56772
1.43366
1.32474
1.2435
1.18437
1.14428
1.11995
1.10734
1.10245
1.10174
1.10194
1.09934
1.0885
1.06247
1.01294
0.931026
0.772817
0.537697
0.240423
-0.0914339
0
0.999229
3.03412
5.80132
8.6049
10.6215
11.2604
10.4215
8.51314
6.23911
4.27934
3.02513
2.4851
2.38305
2.30181
2.10686
1.91496
1.73507
1.57862
1.45452
1.36924
1.32534
1.32063
1.34902
1.40015
1.4605
1.51768
1.5631
1.59332
1.6097
1.61665
1.61932
1.62177
1.62636
1.63478
1.64932
1.6737
1.71289
1.77176
1.85312
1.95605
2.07385
2.19953
2.32545
2.44538
2.55586
2.65683
2.75107
2.84329
2.93898
3.04259
3.15774
3.28815
3.43674
3.60529
3.79402
4.00131
4.2236
4.45587
4.69265
4.92869
5.15982
5.38358
5.59888
5.80447
5.99879
6.21416
6.56455
7.03217
7.53677
7.9531
8.12773
7.94259
7.3934
6.63108
5.91337
5.4889
5.28854
4.98986
4.66681
4.32946
3.98145
3.62969
3.28329
2.95192
2.64448
2.36739
2.12306
1.91071
1.72748
1.56989
1.43492
1.32061
1.22585
1.15279
1.10306
1.07178
1.052
1.03627
1.01871
0.996652
0.970978
0.945149
0.923376
0.908377
0.899491
0.895557
0.893622
0.890022
0.881569
0.866536
0.845196
0.819753
0.793723
0.770991
0.754851
0.746499
0.745759
0.75209
0.764042
0.779393
0.795411
0.808585
0.814702
0.809942
0.791372
0.757621
0.70931
0.649005
0.580609
0.508375
0.435929
0.365604
0.29881
0.236724
0.182646
0.140799
0.117197
0.118094
0.152603
0.233629
0.343085
0.452044
0.531516
0.563209
0.545175
0.49042
0.420168
0.355432
0.309001
0.278754
0.260114
0.249992
0.245801
0.244641
0.243843
0.241614
0.237497
0.232604
0.229564
0.232135
0.244471
0.270152
0.311194
0.368994
0.442977
0.525078
0.605695
0.676583
0.733224
0.775745
0.808048
0.835631
0.863119
0.892502
0.923242
0.953714
0.982504
1.00965
1.03714
1.06838
1.10681
1.15431
1.21193
1.2734
1.32902
1.36876
1.38536
1.37625
1.34341
1.29162
1.22618
1.15149
1.07137
0.987921
0.902519
0.816678
0.732202
0.650852
0.573813
0.501267
0.431872
0.362346
0.288291
0.205208
0.107165
-0.00697193
-0.134701
-0.271036
0
1.10549
3.11942
5.74208
8.36979
10.3253
11.1283
10.6651
9.18979
7.18555
5.17229
3.54532
2.48883
1.97301
1.82034
1.7259
1.63104
1.53751
1.44739
1.36332
1.28831
1.2254
1.1768
1.1436
1.12568
1.1229
1.13211
1.14805
1.16553
1.18071
1.19202
1.20048
1.20924
1.22265
1.24491
1.27813
1.32202
1.37533
1.43636
1.50252
1.5705
1.63761
1.70269
1.76659
1.83213
1.90347
1.98509
2.08068
2.1923
2.31934
2.45959
2.61114
2.77252
2.94317
3.1237
3.31566
3.52093
3.74096
3.97608
4.22497
4.4852
4.75348
5.02614
5.29978
5.57132
5.83746
6.09294
6.33044
6.5925
6.94434
7.34968
7.70807
7.88506
7.76314
7.28665
6.4873
5.4896
4.5361
4.04275
3.74518
3.47716
3.22404
2.97745
2.73068
2.48033
2.22692
1.97466
1.73017
1.5005
1.28996
1.10255
0.940246
0.803351
0.691114
0.602446
0.536469
0.496019
0.491498
0.537274
0.625146
0.724594
0.799894
0.822828
0.783366
0.69345
0.582269
0.484806
0.428152
0.410981
0.416499
0.434185
0.459377
0.48805
0.517498
0.546437
0.574581
0.601814
0.627327
0.649117
0.664213
0.669761
0.664355
0.648971
0.627088
0.603942
0.585226
0.57548
0.575964
0.586096
0.604817
0.630573
0.660997
0.69208
0.718632
0.736142
0.742019
0.736657
0.723861
0.710284
0.703824
0.717867
0.762648
0.82678
0.887373
0.919888
0.908635
0.853144
0.768376
0.679649
0.614797
0.591891
0.650178
0.801938
0.98999
1.13862
1.18744
1.12028
0.973617
0.8177
0.718798
0.704511
0.731334
0.768197
0.805472
0.837198
0.860207
0.874199
0.88122
0.884837
0.88923
0.897815
0.913453
0.938141
0.972634
1.01729
1.07068
1.12826
1.18446
1.23473
1.27701
1.31254
1.34551
1.38181
1.42713
1.48523
1.55555
1.63485
1.71983
1.80614
1.88764
1.95488
1.99965
2.0145
1.99398
1.93631
1.84491
1.72876
1.60098
1.4762
1.36702
1.27614
1.20269
1.14734
1.10922
1.08598
1.07407
1.06848
1.06253
1.04897
1.01968
0.939416
0.733887
0.420599
0.0427948
-0.358691
0
1.34995
3.7171
6.73892
9.72958
11.9134
12.7327
12.0778
10.3132
8.084
6.01521
4.47284
3.5015
2.93403
2.56511
2.38392
2.22375
2.07759
1.94986
1.84326
1.75944
1.6986
1.65861
1.63678
1.63062
1.63831
1.65871
1.69102
1.73435
1.78874
1.85006
1.91184
1.96767
2.01343
2.04879
2.07748
2.10601
2.14142
2.18891
2.24854
2.31752
2.39305
2.4725
2.5536
2.63499
2.71658
2.79955
2.88614
2.97925
3.08203
3.19748
3.32815
3.47606
3.64254
3.82826
4.03325
4.25695
4.49824
4.75545
5.02635
5.3081
5.59734
5.89018
6.18235
6.46821
6.73867
6.97999
7.17993
7.33002
7.42236
7.45006
7.40782
7.29223
7.10184
6.83762
6.50398
6.11747
5.69882
5.26367
4.82316
4.38567
3.95887
3.54986
3.16503
2.80982
2.48864
4
221
429
645
867
1079
1293
1512
1734
1943
2158
2380
2593
2809
3031
3246
3455
3670
1973
2127
2327
2529
2642
2733
2844
2940
3003
3080
3150
3358
3551
3608
3650
2970
3166
3231
3275
3359
3489
3555
3606
3753
3708
3735
0
0
0
0
0
0
0
0
0
0
0
0
0
0
0
0
0
0
0
0
0
0
0
0
0
0
0
0
0
0
0
0
0
0
0
0
0
0
0
0
0
0
0
0
0
0
0
0
0
0
0
0
0
0
0
0
0
0
0
0
0
0
0
0
0
0
0
0
0
0
0
0
0
0
0
0
0
0
0
0
0
0
0
0
0
0
0
0
0
0
0
0
0
0
0
0
0
0
0
0
0
0
0
0
0
0
0
0
0
0
0
0
0
0
0
0
0
0
0
0
0
0
0
0
0
0
0
0
0
0
0
0
0
0
0
0
0
0
0
0
0
0
0
0
0
0
0
0
0
0
0
0
0
0
0
0
0
0
0
0
0
0
0
0
0
0
0
0
0
0
0
0
0
0
0
0
0
0
0
0
0
0
0
0
0
0
0
0
0
0
0
0
0
0
0
0
0
0
0
0
0
0
0
0
0
0
0
0
0
0
0
0
0
0
0
0
0
0
0
0
0
0
0
0
0
0
0
0
0
0
0
0
0
0
0
0
0
0
0
0
0
0
0
0
0
0
0
0
0
0
0
0
0
0
0
0
0
0
0
0
0
0
0
0
0
0
0
0
0
0
0
0
0
0
0
0
0
0
0
0
0
0
0
0
0
0
0
0
0
0
0
0
0
0
0
0
0
0
0
0
0
0
0
0
0
0
0
0
0
0
0
0
0
0
0
0
0
0
0
0
0
0
0
0
0
0
0
0
0
0
0
0
0
0
0
0
0
0
0
0
0
0
0
0
0
0
0
0
0
0
0
0
0
0
0
0
0
0
0
0
0
0
0
0
0
0
0
0
0
0
0
0
0
0
0
0
0
0
0
0
0
0
0
0
0
0
0
0
0
0
0
0
0
0
0
0
0
0
0
0
0
0
0
0
0
0
0
0
0
0
0
0
0
0
0
0
0
0
0
0
0
0
0
0
0
0
0
0
0
0
0
0
0
0
0
0
0
0
0
0
0
0
0
0
0
0
0
0
0
0
0
0
0
0
0
0
0
0
0
0
0
0
0
0
0
0
0
0
0
0
0
0
0
0
0
0
0
0
0
0
0
0
0
0
0
0
0
0
0
0
0
0
0
0
0
0
0
0
0
0
0
0
0
0
0
0
0
0
0
0
0
0
0
0
0
0
0
0
0
0
0
0
0
0
0
0
0
0
0
0
0
0
0
0
0
0
0
0
0
0
0
0
0
0
0
0
0
0
0
0
0
0
0
0
0
0
0
0
0
0
0
0
0
0
0
0
0
0
0
0
0
0
0
0
0
0
0
0
0
0
0
0
0
0
0
0
0
0
0
0
0
0
0
0
0
0
0
0
0
0
0
0
0
0
0
0
0
0
0
0
0
0
0
0
0
0
0
0
0
0
0
0
0
0
0
0
0
0
0
0
0
0
0
0
0
0
0
0
0
0
0
0
0
0
0
0
0
0
0
0
0
0
0
0
0
0
0
0
0
0
0
0
0
0
0
0
0
0
0
0
0
0
0
0
0
0
0
0
0
0
0
0
0
0
0
0
0
0
0
0
0
0
0
0
0
0
0
0
0
0
0
0
0
0
0
0
0
0
0
0
0
0
0
0
0
0
0
0
0
0
0
0
0
0
0
0
0
0
0
0
0
0
0
0
0
0
0
0
0
0
0
0
0
0
0
0
0
0
0
0
0
0
0
0
0
0
0
0
0
0
0
0
0
0
0
0
0
0
0
0
0
0
0
0
0
0
0
0
0
0
0
0
0
0
0
0
0
0
0
0
0
0
0
0
0
0
0
0
0
0
0
0
0
0
0
0
0
0
0
0
0
0
0
0
0
0
0
0
0
0
0
0
0
0
0
0
0
0
0
0
0
0
0
0
0
0
0
0
0
0
0
0
0
0
0
0
0
0
0
0
0
0
0
0
0
0
0
0
0
0
0
0
0
0
0
0
0
0
0
0
0
0
0
0
0
0
0
0
0
0
0
0
0
0
0
0
0
0
0
0
0
0
0
0
0
0
0
0
0
0
0
0
0
0
0
0
0
0
0
0
0
0
0
0
0
0
0
0
0
0
0
0
0
0
0
0
0
0
0
0
0
0
0
0
0
0
0
0
0
0
0
0
0
0
0
0
0
0
0
0
0
0
0
0
0
0
0
0
0
0
0
0
0
0
0
0
0
0
0
0
0
0
0
0
0
0
0
0
0
0
0
0
0
0
0
0
0
0
0
0
0
0
0
0
0
0
0
0
0
0
0
0
0
0
0
0
0
0
0
0
0
0
0
0
0
0
0
0
0
0
0
0
0
0
0
0
0
0
0
0
0
0
0
0
0
0
0
0
0
0
0
0
0
0
0
0
0
0
0
0
0
0
0
0
0
0
0
0
0
0
0
0
0
0
0
0
0
0
0
0
0
0
0
0
0
0
0
0
0
0
0
0
0
0
0
0
0
0
0
0
0
0
0
0
0
0
0
0
0
0
0
0
0
0
0
0
0
0
0
0
0
0
0
0
0
0
0
0
0
0
0
0
0
0
0
0
0
0
0
0
0
0
0
0
0
0
0
0
0
0
0
0
0
0
0
0
0
0
0
0
0
0
0
0
0
0
0
0
0
0
0
0
0
0
0
0
0
0
0
0
0
0
0
0
0
0
0
0
0
0
0
0
0
0
0
0
0
0
0
0
0
0
0
0
0
0
0
0
0
0
0
0
0
0
0
0
0
0
0
0
0
0
0
0
0
0
0
0
0
0
0
0
0
0
0
0
0
0
0
0
0
0
0
0
0
0
0
0
0
0
0
0
0
0
0
0
0
0
0
0
0
0
0
0
0
0
0
0
0
0
0
0
0
0
0
0
0
0
0
0
0
0
0
0
0
0
0
0
0
0
0
0
0
0
0
0
0
0
0
0
0
0
0
0
0
0
0
0
0
0
0
0
0
0
0
0
0
0
0
0
0
0
0
0
0
0
0
0
0
0
0
0
0
0
0
0
0
0
0
0
0
0
0
0
0
0
0
0
0
0
0
0
0
0
0
0
0
0
0
0
0
0
0
0
0
0
0
0
0
0
0
0
0
0
0
0
0
0
0
0
0
0
0
0
0
0
0
0
0
0
0
0
0
0
0
0
0
0
0
0
0
0
0
0
0
0
0
0
0
0
0
0
0
0
0
0
0
0
0
0
0
0
0
0
0
0
0
0
0
0
0
0
0
0
0
0
0
0
0
0
0
0
0
0
0
0
0
0
0
0
0
0
0
0
0
0
0
0
0
0
0
0
0
0
0
0
0
0
0
0
0
0
0
0
0
0
0
0
0
0
0
0
0
0
0
0
0
0
0
0
0
0
0
0
0
0
0
0
0
0
0
0
0
0
0
0
0
0
0
0
0
0
0
0
0
0
0
0
0
0
0
0
0
0
0
0
0
0
0
0
0
0
0
0
0
0
0
0
0
0
0
0
0
0
0
0
0
0
0
0
0
0
0
0
0
0
0
0
0
0
0
0
0
0
0
0
0
0
0
0
0
0
0
0
0
0
0
0
0
0
0
0
0
0
0
0
0
0
0
0
0
0
0
0
0
0
0
0
0
0
0
0
0
0
0
0
0
0
0
0
0
0
0
0
0
0
0
0
0
0
0
0
0
0
0
0
0
0
0
0
0
0
0
0
0
0
0
0
0
0
0
0
0
0
0
0
0
0
0
0
0
0
0
0
0
0
0
0
0
0
0
0
0
0
0
0
0
0
0
0
0
0
0
0
0
0
0
0
0
0
0
0
0
0
0
0
0
0
0
0
0
0
0
0
0
0
0
0
0
0
0
0
0
0
0
0
0
0
0
0
0
0
0
0
0
0
0
0
0
0
0
0
0
0
0
0
0
0
0
0
0
0
0
0
0
0
0
0
0
0
0
0
0
0
0
0
0
0
0
0
0
0
0
0
0
0
0
0
0
0
0
0
0
0
0
0
0
0
0
0
0
0
0
0
0
0
0
0
0
0
0
0
0
0
0
0
0
0
0
0
0
0
0
0
0
0
0
0
0
0
0
0
0
0
0
0
0
0
0
0
0
0
0
0
0
0
0
0
0
0
0
0
0
0
0
0
0
0
0
0
0
0
0
0
0
0
0
0
0
0
0
0
0
0
0
0
0
0
0
0
0
0
0
0
0
0
0
0
0
0
0
0
0
0
0
0
0
0
0
0
0
0
0
0
0
0
0
0
0
0
0
0
0
0
0
0
0
0
0
0
0
0
0
0
0
0
0
0
0
0
0
0
0
0
0
0
0
0
0
0
0
0
0
0
0
0
0
0
0
0
0
0
0
0
0
0
0
0
0
0
0
0
0
0
0
0
0
0
0
0
0
0
0
0
0
0
0
0
0
0
0
0
0
0
0
0
0
0
0
0
0
0
0
0
0
0
0
0
0
0
0
0
0
0
0
0
0
0
0
0
0
0
0
0
0
0
0
0
0
0
0
0
0
0
0
0
0
0
0
0
0
0
0
0
0
0
0
0
0
0
0
0
0
0
0
0
0
0
0
0
0
0
0
0
0
0
0
0
0
0
0
0
0
0
0
0
0
0
0
0
0
0
0
0
0
0
0
0
0
0
0
0
0
0
0
0
0
0
0
0
0
0
0
0
0
0
0
0
0
0
0
0
0
0
0
0
0
0
0
0
0
0
0
0
0
0
0
0
0
0
0
0
0
0
0
0
0
0
0
0
0
0
0
0
0
0
0
0
0
0
0
0
0
0
0
0
0
0
0
0
0
0
0
0
0
0
0
0
0
0
0
0
0
0
0
0
0
0
0
0
0
0
0
0
0
0
0
0
0
0
0
0
0
0
0
0
0
0
0
0
0
0
0
0
0
0
0
0
0
0
0
0
0
0
0
0
0
0
0
0
0
0
0
0
0
0
0
0
0
0
0
0
0
0
0
0
0
0
0
0
0
0
0
0
0
0
0
0
0
0
0
0
0
0
0
0
0
0
0
0
0
0
0
0
0
0
0
0
0
0
0
0
0
0
0
0
0
0
0
0
0
0
0
0
0
0
0
0
0
0
0
0
0
0
0
0
0
0
0
0
0
0
0
0
0
0
0
0
0
0
0
0
0
0
0
0
0
0
0
0
0
0
0
0
0
0
0
0
0
0
0
0
0
0
0
0
0
0
0
0
0
0
0
0
0
0
0
0
0
0
0
0
0
0
0
0
0
0
0
0
0
0
0
0
0
0
0
0
0
0
0
0
0
0
0
0
0
0
0
0
0
0
0
0
0
0
0
0
0
0
0
0
0
0
0
0
0
0
0
0
0
0
0
0
0
0
0
0
0
0
0
0
0
0
0
0
0
0
0
0
0
0
0
0
0
0
0
0
0
0
0
0
0
0
0
0
0
0
0
0
0
0
0
0
0
0
0
0
0
0
0
0
0
0
0
0
0
0
0
0
0
0
0
0
0
0
0
0
0
0
0
0
0
0
0
0
0
0
0
0
0
0
0
0
0
0
0
0
0
0
0
0
0
0
0
0
0
0
0
0
0
0
0
0
0
0
0
0
0
0
0
0
0
0
0
0
0
0
0
0
0
0
0
0
0
0
0
0
0
0
0
0
0
0
0
0
0
0
0
0
0
0
0
0
0
0
0
0
0
0
0
0
0
0
0
0
0
0
0
0
0
0
0
0
0
0
0
0
0
0
0
0
0
0
0
0
0
0
0
0
0
0
0
0
0
0
0
0
0
0
0
0
0
0
0
0
0
0
0
0
0
0
0
0
0
0
0
0
0
0
0
0
0
0
0
0
0
0
0
0
0
0
0
0
0
0
0
0
0
0
0
0
0
0
0
0
0
0
0
0
0
0
0
0
0
0
0
0
0
0
0
0
0
0
0
0
0
0
0
0
0
0
0
0
0
0
0
0
0
0
0
0
0
0
0
0
0
0
0
0
0
0
0
0
0
0
0
0
0
0
0
0
0
0
0
0
0
0
0
0
0
0
0
0
0
0
0
0
0
0
0
0
0
0
0
0
0
0
0
0
0
0
0
0
0
0
0
0
0
0
0
0
0
0
0
0
0
0
0
0
0
0
0
0
0
0
0
0
0
0
0
0
0
0
0
0
0
0
0
0
0
0
0
0
0
0
0
0
0
0
0
0
0
0
0
0
0
0
0
0
0
0
0
0
0
0
0
0
0
0
0
0
0
0
0
0
0
0
0
0
0
0
0
0
0
0
0
0
0
0
0
0
0
0
0
0
0
0
0
0
0
0
0
0
0
0
0
0
0
0
0
0
0
0
0
0
0
0
0
0
0
0
0
0
0
0
0
0
0
0
0
0
0
0
0
0
0
0
0
0
0
0
0
0
0
0
0
0
0
0
0
0
0
0
0
0
0
0
0
0
0
0
0
0
0
0
0
0
0
0
0
0
0
0
0
0
0
0
0
0
0
0
0
0
0
0
0
0
0
0
0
0
0
0
0
0
0
0
0
0
0
0
0
0
0
0
0
0
0
0
0
0
0
0
0
0
0
0
0
0
0
0
0
0
0
0
0
0
0
0
0
0
0
0
0
0
0
0
0
0
0
0
0
0
0
0
0
0
0
0
0
0
0
0
0
0
0
0
0
0
0
0
0
0
0
0
0
0
0
0
0
0
0
0
0
0
0
0
0
0
0
0
0
0
0
0
0
0
0
0
0
0
0
0
0
0
0
0
0
0
0
0
0
0
0
0
0
0
0
0
0
0
0
0
0
0
0
0
0
0
0
0
0
0
0
0
0
0
0
0
0
0
0
0
0
0
0
0
0
0
0
0
0
0
0
0
0
0
0
0
0
0
0
0
0
0
0
0
0
0
0
0
0
0
0
0
0
0
0
0
0
0
0
0
0
0
0
0
0
0
0
0
0
0
0
0
0
0
0
0
0
0
0
0
0
0
0
0
0
0
0
0
0
0
0
0
0
0
0
0
0
0
0
0
0
0
0
0
0
0
0
0
0
0
0
0
0
0
0
0
0
0
0
0
0
0
0
0
0
0
0
0
0
0
0
0
0
0
0
0
0
0
0
0
0
0
0
0
0
0
0
0
0
0
0
0
0
0
0
0
0
0
0
0
0
0
0
0
0
0
0
0
0
0
0
0
0
0
0
0
0
0
0
0
0
0
0
0
0
0
0
0
0
0
0
0
0
0
0
0
0
0
0
0
0
0
0
0
0
0
0
0
0
0
0
0
0
0
0
0
0
0
0
0
0
0
0
0
0
0
0
0
0
0
0
0
0
0
0
0
0
0
0
0
0
0
0
0
0
0
0
0
0
0
0
0
0
0
0
0
0
0
0
0
0
0
0
0
0
0
0
0
0
0
0
0
0
0
0
0
0
0
0
0
0
0
0
0
0
0
0
0
0
0
0
0
0
0
0
0
0
0
0
0
0
0
0
0
0
0
0
0
0
0
0
0
0
0
0
0
0
0
0
0
0
0
0
0
0
0
0
0
0
0
0
0
0
0
0
0
0
0
0
0
0
0
0
0
0
0
0
0
0
0
0
0
0
0
0
0
0
0
0
0
0
0
0
0
0
0
0
0
0
0
0
0
0
0
0
0
0
0
0
0
0
0
0
0
0
0
0
0
0
0
0
0
0
0
0
0
0
0
0
0
0
0
0
0
0
0
0
0
0
0
0
0
0
0
0
0
0
0
0
0
0
0
0
0
0
0
0
0
0
0
0
0
0
0
0
0
0
0
0
0
0
0
0
0
0
0
0
0
0
0
0
0
0
0
0
0
0
0
0
0
0
0
0
0
0
0
0
0
0
0
0
0
0
0
0
0
0
0
0
0
0
0
0
0
0
0
0
0
0
0
0
0
0
0
0
0
0
0
0
0
0
0
0
0
0
0
0
0
0
0
0
0
0
0
0
0
0
0
0
0
0
0
0
0
0
0
0
0
0
0
0
0
0
0
0
0
0
0
0
0
0
0
0
0
0
0
0
0
0
0
0
0
0
0
0
0
0
0
0
0
0
0
0
0
0
0
0
0
0
0
0
0
0
0
0
0
0
0
0
0
0
0
0
0
0
0
0
0
0
0
0
0
0
0
0
0
0
0
0
0
0
0
0
0
0
0
0
0
0
0
0
0
0
0
0
0
0
0
0
0
0
0
0
0
0
0
0
0
0
0
0
0
0
0
0
0
0
0
0
0
0
0
0
0
0
0
0
0
0
0
0
0
0
0
0
0
0
0
0
0
0
0
0
0
0
0
0
0
0
0
0
0
0
0
0
0
0
0
0
0
0
0
0
0
0
0
0
0
0
0
0
0
0
0
0
0
0
0
0
0
0
0
0
0
0
0
0
0
0
0
0
0
0
0
0
0
0
0
0
0
0
0
0
0
0
