0.623464
0.652736
0.690424
0.732826
0.775284
0.813235
0.84307
0.862837
0.872683
0.874892
0.873456
0.873237
0.87884
0.893476
0.918089
0.950476
0.987559
1.02429
1.05549
1.0771
1.08715
1.08613
1.07686
1.06394
1.05294
1.04938
1.05689
1.07822
1.11555
1.16966
1.23981
1.32418
1.41987
1.52233
1.62663
1.72768
1.81895
1.89225
1.94195
1.96308
1.95186
1.90682
1.82987
1.72673
1.60642
1.47975
1.35717
1.24452
1.14442
1.05877
0.988635
0.933729
0.892857
0.863481
0.841337
0.821074
0.797242
0.765082
0.721147
0.66365
0.592435
0.289049
0
0.366991
1.76711
4.11544
6.78604
8.86944
9.58689
8.63511
6.32096
3.44076
0.936047
-0.535306
-0.875712
-0.486474
-0.174808
0.108533
0.34218
0.515561
0.655861
0.774567
0.873799
0.956321
1.02495
1.08243
1.13137
1.17419
1.21331
1.25118
1.29018
1.33243
1.37969
1.4331
1.49305
1.55913
1.63032
1.70533
1.78314
1.86341
1.94681
2.03502
2.13059
2.23646
2.35559
2.49049
2.64268
2.8129
3.00138
3.20765
3.43056
3.66836
3.92034
4.18772
4.46965
4.75741
5.03099
5.264
5.43663
5.53274
5.53821
5.44452
5.25624
4.99233
4.67612
4.32493
3.95882
3.59768
3.2496
2.91987
2.61551
2.34292
2.10756
1.9155
1.76712
1.65625
1.57403
1.51077
1.45762
1.40805
1.35852
1.30841
1.25934
1.21387
1.17433
1.1425
1.11954
1.10599
1.1019
1.107
1.12076
1.14234
1.17089
1.20506
1.24121
1.27509
1.30274
1.32139
1.33006
1.32967
1.32251
1.31156
1.29965
1.2888
1.28023
1.27483
1.27321
1.27582
1.28291
1.29467
1.31109
1.33204
1.35729
1.3866
1.41992
1.45764
1.50072
1.55057
1.60879
1.67676
1.75506
1.84373
1.94174
2.04556
2.14693
2.23537
2.30115
2.33717
2.34024
2.31155
2.25624
2.18228
2.09891
2.01497
1.93593
1.864
1.79947
1.74111
1.68668
1.63284
1.57541
1.51008
1.43294
1.34093
1.23207
1.10549
0.958332
0.780117
0.570587
0.337054
0.0824668
0
0.563018
2.02834
4.36826
7.11999
9.429
10.4037
9.63308
7.48113
4.87518
2.72706
1.44993
0.917257
0.78336
0.817582
0.876381
0.934875
0.992242
1.04798
1.10207
1.15497
1.20741
1.26033
1.31464
1.37111
1.43026
1.49229
1.55704
1.62397
1.69219
1.76051
1.82763
1.89231
1.95369
2.01143
2.06612
2.11928
2.17332
2.23132
2.29669
2.3727
2.46209
2.56678
2.68763
2.82442
2.97652
3.14305
3.32312
3.516
3.72099
3.93724
4.16467
4.40402
4.65065
4.88569
5.08512
5.22741
5.29885
5.29488
5.21694
5.06724
4.84647
4.55759
4.22588
3.87658
3.52677
3.1914
2.88116
2.60086
2.35621
2.14974
1.98075
1.84583
1.73959
1.6559
1.58815
1.53043
1.47819
1.4286
1.38056
1.33445
1.29169
1.25409
1.22328
1.20029
1.18541
1.17793
1.17664
1.18012
1.1871
1.19656
1.20776
1.22007
1.23283
1.24531
1.25674
1.26644
1.27396
1.27915
1.28211
1.28309
1.28229
1.27977
1.27549
1.26933
1.26134
1.25195
1.24214
1.23344
1.22781
1.22743
1.23431
1.25002
1.27538
1.31039
1.35433
1.40604
1.46419
1.52746
1.59499
1.66618
1.74016
1.81528
1.88794
1.95063
1.99407
2.00879
1.98799
1.93044
1.842
1.73486
1.62454
1.52546
1.44556
1.3807
1.32696
1.28108
1.23888
1.19603
1.14884
1.09466
1.03202
0.960427
0.879965
0.790922
0.691427
0.574987
0.440684
0.28968
0.0246253
0
0.789254
2.64136
5.26726
7.88389
9.59415
9.83015
8.59265
6.40203
4.04067
2.21275
1.25449
1.03733
1.14018
1.13007
1.11934
1.10926
1.1008
1.09537
1.09472
1.10059
1.11461
1.13796
1.17119
1.214
1.26525
1.32314
1.38543
1.44968
1.51391
1.57661
1.63687
1.69441
1.74956
1.80314
1.85633
1.91063
1.96777
2.02975
2.09892
2.17795
2.2697
2.37692
2.50178
2.64544
2.8073
2.98515
3.17552
3.37365
3.57393
3.76946
3.95094
4.11011
4.24064
4.33791
4.39899
4.42226
4.40694
4.35259
4.2589
4.12588
3.95852
3.7621
3.54093
3.29998
3.04558
2.78431
2.52214
2.26456
2.01633
1.78143
1.56317
1.36452
1.18959
1.04416
0.931494
0.854346
0.814194
0.816271
0.875973
1.00013
1.15269
1.28958
1.3736
1.38521
1.32802
1.22619
1.11388
1.02205
0.969472
0.944634
0.935813
0.938983
0.952193
0.973296
1.00016
1.03085
1.06375
1.09761
1.13147
1.16446
1.19556
1.22326
1.24583
1.26147
1.26866
1.2667
1.256
1.23812
1.21554
1.19123
1.1682
1.14901
1.1361
1.13312
1.14498
1.17617
1.23124
1.31386
1.42556
1.56904
1.74979
1.95318
2.14893
2.30858
2.41277
2.45448
2.43764
2.37284
2.27269
2.14914
2.01489
1.88045
1.75273
1.63715
1.53769
1.45749
1.40418
1.37937
1.37555
1.38133
1.38367
1.3701
1.33024
1.25649
1.14419
0.983528
0.759029
0.484071
0.181137
0
0.434453
1.83044
4.25985
7.26811
9.91435
11.2126
10.7019
8.70938
6.10919
3.79592
2.27184
1.56824
1.42079
1.48942
1.47126
1.45562
1.4439
1.43853
1.44166
1.45501
1.47947
1.51504
1.56066
1.61435
1.67345
1.73501
1.7962
1.8547
1.90895
1.95833
2.00316
2.04453
2.08417
2.1241
2.16634
2.21273
2.26477
2.32367
2.39058
2.46674
2.55372
2.6535
2.7682
2.89973
3.04919
3.21646
3.39993
3.59629
3.80154
4.01128
4.22112
4.42584
4.61738
4.78763
4.93051
5.03849
5.1026
5.11327
5.06153
4.9407
4.74867
4.49069
4.18351
3.84856
3.50995
3.18888
2.8911
2.61674
2.36908
2.1491
1.95577
1.78658
1.63825
1.50673
1.38819
1.28124
1.18601
1.10377
1.03771
0.992111
0.970352
0.973112
0.997356
1.03653
1.08192
1.12468
1.15846
1.18101
1.19206
1.19206
1.18241
1.16483
1.1412
1.11294
1.08097
1.04613
1.00934
0.971681
0.934389
0.898779
0.866129
0.837602
0.814212
0.796805
0.78603
0.782242
0.785373
0.795662
0.812846
0.834435
0.858175
0.88333
0.911756
0.948161
0.999199
1.07148
1.16911
1.29834
1.45609
1.61745
1.7535
1.84148
1.87171
1.84875
1.78683
1.7026
1.60915
1.51399
1.41956
1.32678
1.23668
1.15063
1.0702
0.996904
0.931958
0.875102
0.823875
0.773745
0.718576
0.65162
0.566689
0.459318
0.327685
0.173104
0
-0.20692
-0.440716
-0.206397
0.874271
2.95895
5.67951
8.13745
9.33331
8.75824
6.688
3.96984
1.51699
-0.0972346
-0.743422
-0.624351
-0.217207
-0.0565033
0.0886118
0.21666
0.329335
0.428243
0.515019
0.591374
0.65901
0.719266
0.772826
0.820383
0.862907
0.901809
0.939015
0.9768
1.01749
1.06313
1.11513
1.17409
1.23976
1.31129
1.38756
1.46767
1.55131
1.63904
1.73226
1.83301
1.94365
2.06644
2.20321
2.35528
2.52327
2.707
2.90546
3.11671
3.33858
3.56824
3.80026
4.02576
4.23511
4.41955
4.56841
4.67019
4.72003
4.70616
4.61046
4.41658
4.12182
3.74549
3.3281
2.92143
2.56536
2.25174
1.97315
1.73382
1.53428
1.37092
1.23724
1.12573
1.02943
0.943161
0.864372
0.793107
0.731312
0.683859
0.657749
0.653389
0.662044
0.671045
0.668546
0.648182
0.611553
0.567485
0.528483
0.50592
0.503872
0.517747
0.542429
0.57385
0.606129
0.634291
0.655422
0.669069
0.676849
0.681402
0.685042
0.688626
0.690824
0.688644
0.67898
0.660467
0.634876
0.607475
0.586211
0.580037
0.595855
0.635398
0.697578
0.781917
0.887378
1.01251
1.15382
1.30709
1.46623
1.61833
1.74831
1.83936
1.87397
1.84005
1.73825
1.58522
1.41011
1.24545
1.11573
1.01579
0.934792
0.867897
0.813224
0.769294
0.735465
0.711872
0.698879
0.69724
0.707837
0.724403
0.731241
0.709771
0.64401
0.525626
0.356469
0
-0.329361
0.0124346
1.27741
3.42706
6.02054
8.2431
9.20654
8.43614
6.20593
3.4131
1.04654
-0.337838
-0.756018
-0.548371
-0.21939
0.0122218
0.218091
0.392885
0.538135
0.655193
0.747868
0.821548
0.882133
0.935123
0.984814
1.03378
1.08316
1.13296
1.18245
1.23067
1.27685
1.32074
1.36267
1.40343
1.44411
1.48588
1.52996
1.57765
1.63044
1.69041
1.76025
1.84317
1.94259
2.06159
2.20236
2.3656
2.55018
2.75307
2.96967
3.19435
3.42111
3.64369
3.85604
4.05079
4.21713
4.34523
4.42998
4.46387
4.43797
4.34498
4.18273
3.95664
3.68002
3.37212
3.05546
2.74566
2.44931
2.17028
1.91252
1.67827
1.46828
1.282
1.11787
0.973787
0.847509
0.736357
0.637988
0.552045
0.478257
0.416788
0.368573
0.334747
0.315998
0.312061
0.321465
0.341584
0.368921
0.399284
0.429146
0.45548
0.476039
0.489614
0.496186
0.496921
0.493964
0.490046
0.487954
0.489969
0.497374
0.51021
0.52779
0.548025
0.56851
0.587217
0.603022
0.615929
0.626952
0.637767
0.650287
0.666169
0.686537
0.712453
0.744873
0.784595
0.832239
0.888152
0.952286
1.02407
1.1023
1.18515
1.27026
1.35488
1.43617
1.5115
1.57872
1.63629
1.68332
1.7193
1.74371
1.75549
1.75355
1.73706
1.70534
1.65836
1.59716
1.52403
1.44226
1.35557
1.26725
1.17932
1.09202
1.00372
0.911199
0.810419
0.695172
0.557191
0.397155
0.22009
0
0.0274858
0.621222
2.11113
4.52073
7.31879
9.55822
10.3725
9.46875
7.26186
4.60228
2.33579
0.963874
0.527193
0.698438
0.917719
0.950897
0.976891
0.998896
1.01932
1.04064
1.06516
1.0948
1.13101
1.17463
1.22577
1.28379
1.34722
1.41416
1.48178
1.54607
1.60316
1.65012
1.68586
1.71161
1.73088
1.74885
1.7713
1.80364
1.84984
1.9115
1.98994
2.08689
2.20383
2.34175
2.50074
2.67954
2.87525
3.08285
3.29771
3.51528
3.73148
3.94268
4.14461
4.33195
4.49953
4.64129
4.74895
4.81104
4.81562
4.75334
4.6201
4.41888
4.16055
3.86335
3.551
3.24684
2.96164
2.69801
2.45998
2.25061
2.07057
1.91844
1.79168
1.68576
1.59571
1.51713
1.44682
1.38312
1.32573
1.27529
1.23263
1.19856
1.17357
1.15458
1.13686
1.11619
1.09085
1.06284
1.03783
1.02352
1.02717
1.05291
1.10316
1.17209
1.24479
1.30514
1.34101
1.3478
1.32901
1.2941
1.25463
1.22049
1.19512
1.17761
1.16696
1.16179
1.16032
1.16093
1.16246
1.16446
1.16721
1.17175
1.17967
1.19295
1.21392
1.24496
1.28824
1.34545
1.41833
1.50949
1.62002
1.74808
1.88561
2.01392
2.11211
2.16211
2.15273
2.08378
1.96786
1.82734
1.68676
1.56434
1.46191
1.37166
1.28893
1.21151
1.13787
1.06677
0.997197
0.928213
0.858757
0.787446
0.712485
0.631701
0.541779
0.435374
0.307464
0.160983
0
-0.119188
0.426121
1.93982
4.32278
7.04806
9.33123
10.4149
9.88924
7.92951
5.27831
2.89369
1.4381
0.970376
1.06592
1.17891
1.1446
1.11133
1.08297
1.06256
1.05184
1.05123
1.0601
1.07721
1.10121
1.13104
1.16603
1.20594
1.25072
1.30021
1.35383
1.41089
1.4706
1.53225
1.59548
1.6605
1.72822
1.80011
1.87792
1.96337
2.05769
2.16149
2.27482
2.3973
2.52851
2.66824
2.81669
2.97426
3.14132
3.31772
3.50243
3.69334
3.88754
4.08117
4.26951
4.44611
4.60117
4.72499
4.80985
4.84763
4.83043
4.75178
4.60851
4.40261
4.14249
3.84314
3.52679
3.21209
2.91106
2.6316
2.38011
2.15987
1.97113
1.81187
1.67863
1.56755
1.4751
1.39849
1.33577
1.28551
1.24647
1.21786
1.19845
1.18498
1.17395
1.16256
1.14959
1.13599
1.12488
1.12088
1.12881
1.15233
1.19955
1.26642
1.33945
1.40251
1.44236
1.45297
1.43684
1.40304
1.36335
1.32791
1.30018
1.27916
1.26313
1.25013
1.23806
1.2252
1.21072
1.19477
1.17897
1.16595
1.15861
1.15935
1.16974
1.19038
1.22125
1.26216
1.31319
1.3737
1.44357
1.52352
1.61495
1.71652
1.82252
1.92546
2.01658
2.08586
2.12656
2.13478
2.11005
2.05575
1.97923
1.89102
1.80308
1.72602
1.66502
1.61699
1.57859
1.54522
1.51087
1.46926
1.41504
1.3447
1.25702
1.15302
1.03536
0.907577
0.771259
0.623102
0.450362
0.240441
0
-0.221131
0.344166
2.07612
4.80548
7.80353
10.0844
10.8399
9.80951
7.42735
4.64245
2.44829
1.36862
1.25009
1.51408
1.46255
1.40629
1.35191
1.30303
1.26306
1.23438
1.21715
1.21105
1.21456
1.22573
1.24275
1.26449
1.29073
1.32206
1.35958
1.40445
1.45709
1.51756
1.58551
1.66012
1.7402
1.82443
1.91158
2.00067
2.09113
2.18289
2.27635
2.37233
2.47192
2.57643
2.68728
2.80591
2.93388
3.07279
3.22418
3.38936
3.57195
3.78082
4.02429
4.30026
4.58529
4.8358
5.02694
5.14124
5.15414
5.04372
4.8142
4.50358
4.16541
3.84446
3.55478
3.28368
3.02365
2.7734
2.53425
2.30806
2.09712
1.90393
1.73083
1.57953
1.45078
1.34491
1.26079
1.19547
1.1457
1.10868
1.08249
1.06622
1.05971
1.06292
1.0753
1.09582
1.12172
1.14904
1.17353
1.19134
1.19959
1.19654
1.18147
1.15447
1.11636
1.06958
1.01618
0.95914
0.905167
0.862947
0.840524
0.842858
0.870025
0.916907
0.974618
1.03309
1.08376
1.12296
1.1519
1.17039
1.17868
1.17734
1.16697
1.14783
1.11984
1.08351
1.04072
0.995186
0.953748
0.925756
0.920747
0.946823
1.00898
1.10801
1.24018
1.39793
1.57382
1.75611
1.92573
2.06451
2.15681
2.1913
2.1639
2.08022
1.95617
1.81506
1.68056
1.5653
1.46691
1.3777
1.29258
1.20904
1.12621
1.04511
0.967994
0.897049
0.834467
0.777595
0.717527
0.642519
0.542118
0.411398
0.253524
0.0795177
-0.195543
0
0.988963
2.982
5.79119
8.65999
10.5183
10.5839
8.86256
6.13173
3.43375
1.50258
0.523849
0.274511
0.400135
0.498808
0.594458
0.688468
0.780794
0.871675
0.961327
1.0498
1.13687
1.22203
1.30451
1.38334
1.45752
1.52613
1.58832
1.64376
1.69271
1.73601
1.77515
1.81214
1.84934
1.88922
1.93403
1.98565
2.04524
2.11375
2.19199
2.28079
2.38123
2.49463
2.62245
2.76599
2.9261
3.10283
3.29519
3.50135
3.71876
3.94452
4.17595
4.41026
4.64166
4.85934
5.04977
5.19479
5.27521
5.27648
5.19225
5.02444
4.78158
4.47737
4.13305
3.77403
3.41776
3.07305
2.74497
2.43981
2.16265
1.917
1.70467
1.52579
1.37913
1.26297
1.17456
1.10949
1.06256
1.02893
1.00461
0.986891
0.974358
0.966696
0.96415
0.966909
0.97464
0.986243
0.999782
1.0127
1.02278
1.02875
1.03059
1.02947
1.02714
1.0253
1.02497
1.02626
1.02846
1.03073
1.03251
1.03387
1.03554
1.03857
1.04391
1.05186
1.06208
1.07389
1.08648
1.09915
1.11161
1.12397
1.13665
1.15013
1.16477
1.18073
1.19808
1.21696
1.23794
1.26208
1.291
1.32662
1.37072
1.42447
1.48768
1.56063
1.64068
1.72098
1.79327
1.8497
1.88464
1.89573
1.88408
1.85348
1.80906
1.75584
1.69826
1.63934
1.58107
1.52503
1.47279
1.42584
1.3851
1.35054
1.32106
1.29303
1.25958
1.21229
1.14279
1.04461
0.914854
0.755191
0.571955
0.370887
0.00779858
0
0.780771
2.5739
5.13371
7.75334
9.55056
9.85458
8.50784
5.96858
3.15231
1.02351
0.11153
0.261165
0.828914
0.912347
0.991816
1.06818
1.14047
1.20784
1.2699
1.32668
1.37893
1.42821
1.47693
1.52798
1.5842
1.64768
1.71907
1.79729
1.87998
1.96412
2.04625
2.12308
2.19216
2.25236
2.30411
2.34947
2.392
2.4364
2.48804
2.55224
2.63339
2.735
2.85924
3.00654
3.17548
3.36322
3.56594
3.7795
4.0001
4.22532
4.45513
4.69653
4.98373
5.33539
5.6764
5.93258
6.05519
6.01348
5.80039
5.45525
5.06043
4.68963
4.35406
4.03491
3.72792
3.43176
3.14867
2.88231
2.63584
2.41178
2.21185
2.037
1.88733
1.76213
1.66039
1.58188
1.52387
1.48124
1.44886
1.42246
1.39946
1.37934
1.36341
1.35407
1.35376
1.36317
1.38154
1.40764
1.43921
1.4734
1.5072
1.53782
1.5627
1.58005
1.589
1.5897
1.58338
1.57237
1.55982
1.54908
1.54302
1.54433
1.55285
1.56607
1.58026
1.59188
1.59894
1.60164
1.60218
1.6037
1.60881
1.6196
1.63308
1.64357
1.6458
1.63842
1.6261
1.61899
1.62948
1.66762
1.73458
1.82385
1.92703
2.03272
2.12916
2.20666
2.25921
2.28496
2.28568
2.26568
2.23056
2.18682
2.13876
2.08944
2.04065
1.99284
1.94556
1.89784
1.84825
1.79493
1.73569
1.66803
1.58926
1.49668
1.38787
1.26102
1.1153
0.947938
0.757318
0.548395
0.189836
0
0.570415
2.25662
4.9019
7.81062
10.0478
10.8596
9.9827
7.73647
4.8937
2.36268
0.787299
0.275973
0.453215
0.758061
0.886422
1.00656
1.11696
1.21615
1.30319
1.37787
1.44073
1.49297
1.53628
1.5727
1.60438
1.63354
1.66235
1.69284
1.72691
1.7662
1.81205
1.86538
1.92651
1.9951
2.07007
2.14973
2.23191
2.31432
2.39489
2.47216
2.5454
2.61564
2.68559
2.75953
2.84293
2.94173
3.06134
3.20558
3.37566
3.56965
3.78342
4.01038
4.24087
4.46412
4.66473
4.82185
4.92856
4.97766
4.95897
4.86187
4.68071
4.4196
4.09399
3.72898
3.35563
2.99722
2.66062
2.35084
2.07391
1.83349
1.63251
1.47106
1.34454
1.24698
1.17212
1.11444
1.06965
1.03485
1.00819
0.988402
0.974462
0.964855
0.957859
0.951811
0.94542
0.937931
0.929082
0.918891
0.907421
0.894721
0.880824
0.865784
0.849869
0.833613
0.817763
0.803142
0.790428
0.780086
0.772345
0.767194
0.764496
0.763974
0.765266
0.767973
0.771622
0.775618
0.779133
0.781223
0.781251
0.77942
0.777295
0.778055
0.78624
0.806942
0.844603
0.901764
0.975862
1.06328
1.15995
1.26021
1.35628
1.43921
1.50215
1.54103
1.55497
1.54608
1.51869
1.47806
1.42913
1.3755
1.31941
1.26174
1.20256
1.14187
1.07981
1.01679
0.953345
0.889903
0.826533
0.762736
0.697398
0.628898
0.555326
0.474562
0.382865
0.278898
0.163245
0
-0.0403302
0.510885
1.88658
4.06246
6.62995
8.81182
9.75931
9.03821
6.94804
4.36599
2.20194
0.904144
0.386233
0.32611
0.484707
0.615724
0.732316
0.823809
0.883102
0.908199
0.902917
0.876661
0.843091
0.817612
0.812907
0.836163
0.887825
0.961018
1.04784
1.14295
1.24183
1.34059
1.43634
1.52709
1.61168
1.69027
1.76398
1.83483
1.90573
1.98036
2.06286
2.15739
2.26756
2.39514
2.54048
2.70329
2.88199
3.07375
3.27477
3.4811
3.6877
3.88943
4.08214
4.26143
4.41972
4.54759
4.64139
4.69173
4.6835
4.60128
4.43719
4.19684
3.90037
3.57773
3.26009
2.96285
2.68554
2.42797
2.19171
1.97703
1.78343
1.61007
1.45613
1.321
1.20424
1.10549
1.02435
0.960136
0.911749
0.877683
0.85609
0.844804
0.841582
0.844267
0.850948
0.860008
0.870143
0.880394
0.89012
0.898933
0.906642
0.91317
0.918479
0.922498
0.925086
0.925987
0.92496
0.921859
0.916749
0.909994
0.90226
0.894416
0.887371
0.881911
0.878629
0.878
0.880573
0.887231
0.899395
0.919089
0.948817
0.99126
1.04887
1.12332
1.21528
1.32895
1.46862
1.62584
1.78346
1.9226
2.02668
2.08452
2.09163
2.05014
1.96784
1.8568
1.73194
1.60812
1.49753
1.40422
1.32642
1.2625
1.21194
1.17327
1.14421
1.122
1.10343
1.08494
1.06262
1.03221
0.989561
0.927478
0.821571
0.650329
0.422942
0.16286
0
0.610555
2.237
4.69575
7.39193
9.51655
10.3442
9.55382
7.43977
4.83394
2.69027
1.56589
1.38167
1.63863
1.65872
1.63066
1.59335
1.55117
1.51098
1.48113
1.46949
1.48156
1.5191
1.57967
1.65725
1.74386
1.8315
1.91455
1.98996
2.05668
2.11547
2.16829
2.21753
2.26561
2.31464
2.36641
2.42273
2.48549
2.5567
2.63831
2.7321
2.83937
2.96082
3.09634
3.24494
3.40467
3.57267
3.74539
3.91892
4.08951
4.25426
4.41172
4.5622
4.70749
4.85057
5.00192
5.1719
5.34015
5.46199
5.49002
5.39797
5.19072
4.89705
4.55512
4.20252
3.86508
3.54627
3.24772
2.97445
2.73075
2.5194
2.34137
2.19584
2.08043
1.99148
1.92481
1.87584
1.83975
1.81236
1.79054
1.77236
1.75725
1.74584
1.7399
1.74164
1.75334
1.77687
1.81327
1.86248
1.92319
1.9939
2.07206
2.1498
2.21669
2.26274
2.28094
2.26951
2.23294
2.18109
2.12654
2.08105
2.05033
2.03362
2.02883
2.03471
2.04942
2.07165
2.10019
2.13489
2.17681
2.22801
2.29101
2.36794
2.46444
2.58418
2.71795
2.84594
2.94693
3.00474
3.01229
2.97186
2.89218
2.78469
2.66121
2.5339
2.41129
2.29772
2.19663
2.11301
2.04778
1.99575
1.94892
1.89885
1.83901
1.7662
1.68037
1.58308
1.47532
1.35665
1.21878
1.01614
0.735357
0.386508
-0.020429
0
0.813066
2.61728
5.28167
8.18152
10.3242
10.8386
9.52416
7.0065
4.34057
2.38421
1.42345
1.24198
1.43361
1.39872
1.34656
1.28965
1.23113
1.17565
1.12822
1.09304
1.07087
1.06248
1.06731
1.08383
1.10989
1.14332
1.18245
1.22597
1.27297
1.32297
1.37592
1.43219
1.49279
1.55923
1.63353
1.71804
1.81521
1.92737
2.05669
2.20526
2.37495
2.56741
2.78395
3.02526
3.29117
3.58028
3.88983
4.21568
4.55323
4.89694
5.23936
5.56909
5.86656
6.11585
6.31941
6.46883
6.54409
6.52457
6.39917
6.17002
5.85341
5.48067
5.09526
4.73077
4.39401
4.0808
3.78961
3.52286
3.28163
3.06574
2.87392
2.70408
2.55376
2.42053
2.30247
2.19846
2.10823
2.03226
1.97164
1.92726
1.89928
1.8875
1.89127
1.90587
1.92154
1.92845
1.91914
1.89057
1.84511
1.78988
1.7345
1.68797
1.65476
1.63427
1.62341
1.61692
1.6094
1.59722
1.57954
1.55823
1.53691
1.51957
1.50872
1.50493
1.50907
1.52196
1.54443
1.57736
1.62164
1.67795
1.74646
1.82773
1.92247
2.02715
2.12974
2.21605
2.27292
2.29113
2.26719
2.20366
2.10816
1.9918
1.86731
1.74636
1.6353
1.53777
1.45515
1.38679
1.33196
1.28764
1.24732
1.20308
1.14671
1.07091
0.970277
0.842086
0.686459
0.506183
0.30617
0.0937823
-0.126762
-0.191575
0
0.727128
2.30837
4.72971
7.40253
9.35125
9.76023
8.46385
6.01392
3.32703
1.21313
0.0751798
-0.141848
0.181068
0.294527
0.386767
0.470995
0.546623
0.614114
0.674588
0.729417
0.780083
0.827669
0.872973
0.916598
0.959039
1.00078
1.0424
1.0846
1.12825
1.17436
1.22395
1.27793
1.33693
1.40111
1.47013
1.54317
1.61932
1.69747
1.7771
1.85886
1.94489
2.03871
2.14475
2.26748
2.41044
2.57541
2.76046
2.96286
3.17926
3.40588
3.63961
3.87771
4.11691
4.35676
4.58301
4.76159
4.85477
4.83879
4.70832
4.47269
4.15381
3.78584
3.4101
3.05287
2.71965
2.4075
2.11709
1.85248
1.61673
1.41162
1.23753
1.09347
0.977163
0.885404
0.814437
0.760362
0.719495
0.688628
0.665005
0.646514
0.631704
0.619766
0.610464
0.604017
0.600944
0.601729
0.606637
0.615782
0.628592
0.644213
0.661797
0.680788
0.701078
0.722946
0.746806
0.772866
0.800842
0.829881
0.858839
0.886546
0.9122
0.935709
0.95787
0.980332
1.00534
1.03534
1.0724
1.11782
1.17208
1.2346
1.30376
1.37711
1.45153
1.52324
1.58842
1.64309
1.68286
1.70444
1.70583
1.68628
1.64651
1.58874
1.51657
1.43448
1.34723
1.25928
1.1739
1.09289
1.0174
0.947591
0.882584
0.820477
0.758425
0.692672
0.619144
0.534074
0.434676
0.319747
0.190062
0
-0.253092
-0.020284
1.04109
3.06422
5.69306
8.0468
9.11395
8.3642
6.10011
3.25963
0.847825
-0.554202
-0.912926
-0.562298
-0.299664
-0.0869192
0.0930379
0.234562
0.347909
0.434511
0.497903
0.542332
0.57229
0.592308
0.606912
0.620586
0.637647
0.662017
0.696373
0.742434
0.801181
0.872585
0.95552
1.04799
1.14728
1.25021
1.35352
1.45432
1.55071
1.6423
1.73053
1.81862
1.91124
2.01388
2.13209
2.27063
2.43277
2.61927
2.82904
3.06188
3.31785
3.59316
3.87852
4.1525
4.38896
4.57794
4.70575
4.75136
4.69764
4.54204
4.297
3.9865
3.64597
3.3159
3.00983
2.72426
2.45431
2.19843
1.9577
1.73339
1.52699
1.34017
1.17438
1.03064
0.909151
0.808949
0.728073
0.663863
0.613369
0.573771
0.542915
0.519254
0.501613
0.489289
0.481833
0.478893
0.480179
0.485526
0.494982
0.508834
0.527413
0.551069
0.579847
0.613265
0.650208
0.688933
0.727146
0.762074
0.790638
0.810601
0.820948
0.822416
0.817797
0.811827
0.810592
0.820528
0.847206
0.894158
0.960779
1.04961
1.15815
1.2772
1.39462
1.49569
1.56617
1.59562
1.57706
1.50814
1.39283
1.24255
1.07536
0.912728
0.774554
0.666248
0.581516
0.520041
0.479507
0.455588
0.442698
0.434778
0.425898
0.41075
0.385468
0.348016
0.298395
0.238583
0.170994
-0.0249592
0
0.60592
2.09152
4.37205
6.79812
8.411
8.50537
7.06006
4.70362
2.29682
0.497186
-0.427671
-0.556258
-0.196905
-0.0479771
0.0899366
0.210545
0.311968
0.401582
0.483222
0.560998
0.638574
0.718243
0.800902
0.885453
0.968834
1.04723
1.1174
1.17777
1.22886
1.27302
1.31358
1.35366
1.39539
1.43881
1.48261
1.52571
1.5691
1.61682
1.67564
1.75339
1.85671
1.98678
2.13923
2.30986
2.49475
2.68968
2.89042
3.09312
3.29449
3.49157
3.6814
3.86026
4.02342
4.16554
4.27999
4.35837
4.39281
4.37471
4.29647
4.15371
3.9475
3.6858
3.38341
3.06035
2.73875
2.4321
2.14708
1.89166
1.67098
1.4868
1.33824
1.22253
1.13575
1.07351
1.0314
1.0056
0.993776
0.991089
0.991354
0.989024
0.980254
0.963794
0.941209
0.916177
0.893114
0.875679
0.864907
0.861185
0.864136
0.873462
0.889611
0.913904
0.948008
0.992965
1.04821
1.11173
1.17855
1.24254
1.29857
1.34415
1.38029
1.41126
1.44332
1.48287
1.53479
1.59994
1.67585
1.76078
1.85109
1.94006
2.02039
2.08573
2.13181
2.15708
2.16285
2.15251
2.13024
2.09948
2.062
2.01763
1.96517
1.90268
1.82908
1.74475
1.65156
1.55228
1.44946
1.34452
1.23695
1.12455
1.00393
0.871389
0.721136
0.548987
0.357319
0.126779
0
0.442337
1.81202
4.14796
6.93632
9.24938
10.224
9.53282
7.51691
4.9466
2.63541
1.13433
0.588543
0.752164
1.1025
1.13396
1.16275
1.1925
1.22583
1.2642
1.30758
1.35464
1.40264
1.44815
1.48857
1.52314
1.55329
1.58218
1.61353
1.65032
1.69386
1.74287
1.79556
1.85058
1.90714
1.96538
2.02642
2.09206
2.16435
2.24523
2.33593
2.43703
2.54892
2.67167
2.80499
2.94824
3.10036
3.25999
3.42549
3.59517
3.76743
3.94096
4.11428
4.28428
4.44422
4.58307
4.68549
4.73517
4.7191
4.63061
4.47053
4.24696
3.97427
3.67248
3.36358
3.06287
2.77689
2.50929
2.26511
2.04818
1.86087
1.70415
1.57775
1.48039
1.40955
1.362
1.33507
1.3258
1.32618
1.32683
1.32026
1.3025
1.27391
1.23868
1.20305
1.17286
1.15155
1.13781
1.13044
1.12795
1.12977
1.137
1.15235
1.1792
1.22179
1.28537
1.36576
1.44673
1.50924
1.53865
1.53051
1.49256
1.44223
1.40073
1.38631
1.40713
1.4548
1.52021
1.59908
1.68862
1.78501
1.88383
1.97999
2.0664
2.13544
2.18109
2.19911
2.18819
2.15069
2.09266
2.02261
1.9494
1.87981
1.81584
1.75593
1.69807
1.63973
1.5786
1.51318
1.44305
1.36861
1.29063
1.20956
1.12515
1.03548
0.932999
0.787155
0.585289
0.328674
-0.000750923
0
0.832315
2.64903
5.22611
7.95105
9.96989
10.5273
9.3872
7.03762
4.44682
2.48958
1.48377
1.18732
1.1739
1.15445
1.13809
1.12568
1.12074
1.12664
1.14608
1.18051
1.22964
1.29129
1.36144
1.43531
1.50618
1.56801
1.61675
1.65114
1.67298
1.68658
1.69767
1.71211
1.73461
1.76672
1.80913
1.86252
1.92717
2.0032
2.09073
2.18989
2.3008
2.42347
2.55773
2.70324
2.85959
3.0263
3.20276
3.3881
3.58179
3.7833
3.9892
4.1938
4.38916
4.56235
4.70003
4.7954
4.83857
4.81547
4.71265
4.52477
4.26062
3.94435
3.61101
3.29411
3.00384
2.73774
2.49451
2.27543
2.08023
1.90757
1.755
1.61964
1.49859
1.38929
1.28988
1.19971
1.11914
1.04898
0.990638
0.945741
0.915759
0.901836
0.904299
0.922611
0.955253
0.999658
1.05225
1.10866
1.16397
1.2131
1.25173
1.27696
1.28768
1.28472
1.2706
1.24909
1.22457
1.20135
1.18261
1.17053
1.16634
1.17046
1.18219
1.20033
1.22376
1.25183
1.28469
1.32321
1.36868
1.4223
1.48464
1.55515
1.63225
1.71389
1.79753
1.88014
1.95867
2.02997
2.08962
2.13193
2.15314
2.15009
2.1211
2.06698
1.99145
1.90077
1.80263
1.70451
1.61184
1.5262
1.44838
1.37885
1.31725
1.26253
1.21315
1.16626
1.1177
1.06247
0.995289
0.911012
0.794645
0.630692
0.427493
0.202165
0
0.504534
2.17367
4.91981
7.9813
10.2775
10.9888
9.95239
7.66941
5.00909
2.81309
1.56607
1.24517
1.42328
1.44535
1.40155
1.35661
1.31609
1.28471
1.2657
1.2599
1.26722
1.28643
1.31574
1.35291
1.39621
1.44442
1.49674
1.55264
1.6117
1.67346
1.73737
1.80269
1.86865
1.93452
1.99986
2.06469
2.12979
2.19672
2.26782
2.34604
2.43459
2.53658
2.65455
2.79012
2.94363
3.11385
3.29855
3.49431
3.69685
3.901
4.09875
4.28014
4.43668
4.56135
4.64888
4.69495
4.69665
4.65161
4.55818
4.41616
4.22784
3.99881
3.73811
3.45754
3.17081
2.889
2.61905
2.36763
2.13999
1.9399
1.77207
1.64019
1.54003
1.46519
1.40839
1.3628
1.32318
1.28639
1.25143
1.2189
1.19008
1.16582
1.1468
1.13342
1.12561
1.12282
1.1239
1.12776
1.13368
1.14149
1.15151
1.1643
1.18035
1.19935
1.2201
1.24045
1.25698
1.26638
1.26653
1.25742
1.2417
1.22432
1.21142
1.20865
1.21934
1.24266
1.27469
1.31045
1.34429
1.37128
1.38841
1.39515
1.39335
1.38659
1.37915
1.37465
1.37552
1.38333
1.39569
1.40811
1.4154
1.41347
1.40078
1.37912
1.35336
1.33035
1.31716
1.318
1.33517
1.36954
1.42028
1.48607
1.56538
1.65631
1.75705
1.86654
1.98471
2.10716
2.22082
2.30884
2.35473
2.34825
2.28959
2.18936
2.06468
1.93355
1.81005
1.69786
1.59682
1.50695
1.42821
1.3603
1.30228
1.25209
1.20677
1.16258
1.11521
1.05989
0.992611
0.910707
0.811412
0.69587
0.569219
0.0693983
0
0.807666
2.68243
5.41212
8.31326
10.3849
10.7587
9.22826
6.43967
3.52025
1.40272
0.378866
0.179481
0.379565
0.557809
0.71265
0.85297
0.974678
1.07617
1.15736
1.21996
1.26699
1.30232
1.3301
1.35437
1.3787
1.40595
1.43821
1.47659
1.5214
1.5722
1.62789
1.68701
1.74801
1.8094
1.87048
1.93163
1.99446
2.06153
2.13597
2.22078
2.31837
2.43018
2.5556
2.69401
2.84456
3.00609
3.17712
3.35582
3.53981
3.72622
3.91108
4.08959
4.25558
4.40029
4.51332
4.58657
4.61272
4.58465
4.49645
4.34524
4.1331
3.86827
3.56484
3.24092
2.91572
2.6023
2.30686
2.0355
1.79218
1.5786
1.39451
1.23805
1.10632
0.99576
0.902827
0.825197
0.760822
0.707789
0.665155
0.632641
0.610238
0.597833
0.594953
0.600653
0.613531
0.631612
0.652808
0.675252
0.697169
0.717035
0.73376
0.746746
0.75596
0.761907
0.765524
0.768021
0.77071
0.774845
0.781508
0.791616
0.80581
0.824428
0.847429
0.874285
0.904108
0.935084
0.964623
0.989902
1.00838
1.01829
1.01905
1.01123
0.99644
0.976854
0.954931
0.932887
0.912561
0.895496
0.882935
0.875736
0.874282
0.878423
0.887537
0.900746
0.917332
0.937126
0.960834
0.990128
1.02742
1.07533
1.13596
1.21017
1.29816
1.39963
1.50649
1.60576
1.68483
1.73471
1.75203
1.7391
1.70227
1.64937
1.58736
1.52169
1.45481
1.38744
1.31962
1.25104
1.1813
1.11006
1.03708
0.962278
0.885734
0.807653
0.72828
0.647818
0.566345
0.483746
0.399703
0.313731
0.22527
0.133444
0
-0.121214
0.215063
1.46871
3.7415
6.49626
8.73357
9.53864
8.58498
6.25469
3.37839
0.837635
-0.75622
-1.23661
-0.889787
-0.526145
-0.209436
0.037782
0.22051
0.377984
0.524891
0.662397
0.789119
0.90247
1.00007
1.07991
1.14119
1.18485
1.21362
1.23172
1.2442
1.25624
1.27226
1.29509
1.32674
1.36855
1.42106
1.48409
1.55713
1.63954
1.73065
1.82985
1.9367
2.05095
2.17279
2.30267
2.44147
2.59043
2.75088
2.92378
3.10918
3.30562
3.51107
3.72006
3.92142
4.103
4.25395
4.36619
4.43453
4.45563
4.42653
4.34389
4.20573
4.01467
3.77328
3.48906
3.17466
2.84648
2.52188
2.21231
1.92744
1.67438
1.45704
1.27636
1.13057
1.01578
0.926974
0.858724
0.805962
0.764503
0.731406
0.705087
0.685366
0.672769
0.668142
0.67233
0.685723
0.707006
0.732912
0.759531
0.783287
0.801777
0.814181
0.821127
0.824152
0.825067
0.825514
0.826772
0.829971
0.836395
0.847519
0.864823
0.889369
0.921565
0.961591
1.00562
1.04831
1.08418
1.10908
1.12121
1.12121
1.11147
1.09498
1.07434
1.05147
1.02716
1.0019
0.976573
0.953098
0.934576
0.925323
0.930399
0.953902
0.998228
1.06321
1.1458
1.24029
1.33926
1.43471
1.51926
1.58847
1.63932
1.66963
1.67852
1.66627
1.6347
1.58618
1.52409
1.45252
1.376
1.29888
1.22483
1.15619
1.09425
1.03911
0.989783
0.944446
0.900613
0.855361
0.805558
0.748092
0.680201
0.599843
0.506079
0.398498
0.228798
0
0.29428
1.35828
3.22396
5.59449
7.80074
8.98804
8.55764
6.58725
3.85149
1.36365
-0.207457
-0.78778
-0.701839
-0.36728
-0.0632206
0.211007
0.445149
0.638672
0.806215
0.951298
1.07447
1.17718
1.26176
1.33135
1.38962
1.44046
1.48745
1.53348
1.58037
1.6289
1.67855
1.72761
1.77375
1.81531
1.85226
1.88686
1.92366
1.96864
2.02778
2.10563
2.20423
2.32167
2.45378
2.59831
2.75453
2.9229
3.10504
3.30322
3.51999
3.7652
4.04874
4.3631
4.67796
4.94666
5.13838
5.23882
5.24368
5.15728
4.9956
4.78348
4.54242
4.27962
3.99757
3.70627
3.41263
3.12178
2.83964
2.57267
2.32691
2.1073
1.91677
1.7556
1.62168
1.51107
1.41911
1.34141
1.27475
1.21738
1.16883
1.12959
1.10041
1.08166
1.07286
1.07259
1.07873
1.08857
1.09933
1.10877
1.11556
1.11952
1.12158
1.12357
1.1278
1.13664
1.15169
1.17388
1.2035
1.24002
1.28215
1.32823
1.37585
1.42238
1.46534
1.50254
1.5321
1.55294
1.56471
1.56767
1.56269
1.55103
1.53424
1.51397
1.49185
1.46945
1.44819
1.4294
1.41448
1.40494
1.40236
1.40846
1.42495
1.45351
1.49552
1.55176
1.62552
1.72073
1.83183
1.94707
2.05262
2.13551
2.1861
2.1997
2.17693
2.12329
2.04796
1.9622
1.87642
1.79826
1.73009
1.66903
1.61218
1.55742
1.50272
1.44622
1.38623
1.32083
1.24757
1.16367
1.06592
0.951153
0.815622
0.652071
0.464884
0.254953
0
0.327534
1.63335
3.93561
6.69951
9.03619
10.1424
9.67403
7.85578
5.34564
2.95945
1.34578
0.72085
0.817922
1.11095
1.14418
1.17472
1.20348
1.23079
1.25722
1.2835
1.31031
1.3382
1.36742
1.39797
1.42965
1.46221
1.4955
1.52963
1.56497
1.60218
1.64211
1.6858
1.73431
1.78867
1.84975
1.91817
1.99426
2.07802
2.16915
2.26714
2.37146
2.48169
2.59768
2.71969
2.84831
2.98448
3.12927
3.28378
3.44889
3.62636
3.82416
4.05728
4.31845
4.57504
4.7879
4.92831
4.98844
4.97545
4.89683
4.75277
4.54208
4.28218
3.99421
3.69645
3.40624
3.13119
2.87172
2.6296
2.40784
2.20835
2.03209
1.87909
1.74859
1.63948
1.55054
1.48056
1.42881
1.39565
1.38032
1.37921
1.38544
1.39111
1.38917
1.37518
1.34839
1.3118
1.27123
1.23364
1.20541
1.18939
1.18498
1.19164
1.20822
1.23271
1.26261
1.29525
1.32815
1.35914
1.38648
1.40878
1.4248
1.43351
1.43477
1.42923
1.41854
1.40526
1.3925
1.38364
1.382
71
220
370
520
667
813
962
1111
1263
1418
1572
1724
1873
2019
2163
2306
2447
2585
2722
2862
3007
3172
3336
3491
3646
0
0
0
0
0
0
0
0
0
0
0
0
0
0
0
0
0
0
0
0
0
0
0
0
0
0
0
0
0
0
0
0
0
0
0
0
0
0
0
0
0
0
0
0
0
0
0
0
0
0
0
0
0
0
0
0
0
0
0
0
0
0
0
0
0
0
0
0
0
0
0
0
0
0
0
0
0
0
0
0
0
0
0
0
0
0
0
0
0
0
0
0
0
0
0
0
0
0
0
0
0
0
0
0
0
0
0
0
0
0
0
0
0
0
0
0
0
0
0
0
0
0
0
0
0
0
0
0
0
0
0
0
0
0
0
0
0
0
0
0
0
0
0
0
0
0
0
0
0
0
0
0
0
0
0
0
0
0
0
0
0
0
0
0
0
0
0
0
0
0
0
0
0
0
0
0
0
0
0
0
0
0
0
0
0
0
0
0
0
0
0
0
0
0
0
0
0
0
0
0
0
0
0
0
0
0
0
0
0
0
0
0
0
0
0
0
0
0
0
0
0
0
0
0
0
0
0
0
0
0
0
0
0
0
0
0
0
0
0
0
0
0
0
0
0
0
0
0
0
0
0
0
0
0
0
0
0
0
0
0
0
0
0
0
0
0
0
0
0
0
0
0
0
0
0
0
0
0
0
0
0
0
0
0
0
0
0
0
0
0
0
0
0
0
0
0
0
0
0
0
0
0
0
0
0
0
0
0
0
0
0
0
0
0
0
0
0
0
0
0
0
0
0
0
0
0
0
0
0
0
0
0
0
0
0
0
0
0
0
0
0
0
0
0
0
0
0
0
0
0
0
0
0
0
0
0
0
0
0
0
0
0
0
0
0
0
0
0
0
0
0
0
0
0
0
0
0
0
0
0
0
0
0
0
0
0
0
0
0
0
0
0
0
0
0
0
0
0
0
0
0
0
0
0
0
0
0
0
0
0
0
0
0
0
0
0
0
0
0
0
0
0
0
0
0
0
0
0
0
0
0
0
0
0
0
0
0
0
0
0
0
0
0
0
0
0
0
0
0
0
0
0
0
0
0
0
0
0
0
0
0
0
0
0
0
0
0
0
0
0
0
0
0
0
0
0
0
0
0
0
0
0
0
0
0
0
0
0
0
0
0
0
0
0
0
0
0
0
0
0
0
0
0
0
0
0
0
0
0
0
0
0
0
0
0
0
0
0
0
0
0
0
0
0
0
0
0
0
0
0
0
0
0
0
0
0
0
0
0
0
0
0
0
0
0
0
0
0
0
0
0
0
0
0
0
0
0
0
0
0
0
0
0
0
0
0
0
0
0
0
0
0
0
0
0
0
0
0
0
0
0
0
0
0
0
0
0
0
0
0
0
0
0
0
0
0
0
0
0
0
0
0
0
0
0
0
0
0
0
0
0
0
0
0
0
0
0
0
0
0
0
0
0
0
0
0
0
0
0
0
0
0
0
0
0
0
0
0
0
0
0
0
0
0
0
0
0
0
0
0
0
0
0
0
0
0
0
0
0
0
0
0
0
0
0
0
0
0
0
0
0
0
0
0
0
0
0
0
0
0
0
0
0
0
0
0
0
0
0
0
0
0
0
0
0
0
0
0
0
0
0
0
0
0
0
0
0
0
0
0
0
0
0
0
0
0
0
0
0
0
0
0
0
0
0
0
0
0
0
0
0
0
0
0
0
0
0
0
0
0
0
0
0
0
0
0
0
0
0
0
0
0
0
0
0
0
0
0
0
0
0
0
0
0
0
0
0
0
0
0
0
0
0
0
0
0
0
0
0
0
0
0
0
0
0
0
0
0
0
0
0
0
0
0
0
0
0
0
0
0
0
0
0
0
0
0
0
0
0
0
0
0
0
0
0
0
0
0
0
0
0
0
0
0
0
0
0
0
0
0
0
0
0
0
0
0
0
0
0
0
0
0
0
0
0
0
0
0
0
0
0
0
0
0
0
0
0
0
0
0
0
0
0
0
0
0
0
0
0
0
0
0
0
0
0
0
0
0
0
0
0
0
0
0
0
0
0
0
0
0
0
0
0
0
0
0
0
0
0
0
0
0
0
0
0
0
0
0
0
0
0
0
0
0
0
0
0
0
0
0
0
0
0
0
0
0
0
0
0
0
0
0
0
0
0
0
0
0
0
0
0
0
0
0
0
0
0
0
0
0
0
0
0
0
0
0
0
0
0
0
0
0
0
0
0
0
0
0
0
0
0
0
0
0
0
0
0
0
0
0
0
0
0
0
0
0
0
0
0
0
0
0
0
0
0
0
0
0
0
0
0
0
0
0
0
0
0
0
0
0
0
0
0
0
0
0
0
0
0
0
0
0
0
0
0
0
0
0
0
0
0
0
0
0
0
0
0
0
0
0
0
0
0
0
0
0
0
0
0
0
0
0
0
0
0
0
0
0
0
0
0
0
0
0
0
0
0
0
0
0
0
0
0
0
0
0
0
0
0
0
0
0
0
0
0
0
0
0
0
0
0
0
0
0
0
0
0
0
0
0
0
0
0
0
0
0
0
0
0
0
0
0
0
0
0
0
0
0
0
0
0
0
0
0
0
0
0
0
0
0
0
0
0
0
0
0
0
0
0
0
0
0
0
0
0
0
0
0
0
0
0
0
0
0
0
0
0
0
0
0
0
0
0
0
0
0
0
0
0
0
0
0
0
0
0
0
0
0
0
0
0
0
0
0
0
0
0
0
0
0
0
0
0
0
0
0
0
0
0
0
0
0
0
0
0
0
0
0
0
0
0
0
0
0
0
0
0
0
0
0
0
0
0
0
0
0
0
0
0
0
0
0
0
0
0
0
0
0
0
0
0
0
0
0
0
0
0
0
0
0
0
0
0
0
0
0
0
0
0
0
0
0
0
0
0
0
0
0
0
0
0
0
0
0
0
0
0
0
0
0
0
0
0
0
0
0
0
0
0
0
0
0
0
0
0
0
0
0
0
0
0
0
0
0
0
0
0
0
0
0
0
0
0
0
0
0
0
0
0
0
0
0
0
0
0
0
0
0
0
0
0
0
0
0
0
0
0
0
0
0
0
0
0
0
0
0
0
0
0
0
0
0
0
0
0
0
0
0
0
0
0
0
0
0
0
0
0
0
0
0
0
0
0
0
0
0
0
0
0
0
0
0
0
0
0
0
0
0
0
0
0
0
0
0
0
0
0
0
0
0
0
0
0
0
0
0
0
0
0
0
0
0
0
0
0
0
0
0
0
0
0
0
0
0
0
0
0
0
0
0
0
0
0
0
0
0
0
0
0
0
0
0
0
0
0
0
0
0
0
0
0
0
0
0
0
0
0
0
0
0
0
0
0
0
0
0
0
0
0
0
0
0
0
0
0
0
0
0
0
0
0
0
0
0
0
0
0
0
0
0
0
0
0
0
0
0
0
0
0
0
0
0
0
0
0
0
0
0
0
0
0
0
0
0
0
0
0
0
0
0
0
0
0
0
0
0
0
0
0
0
0
0
0
0
0
0
0
0
0
0
0
0
0
0
0
0
0
0
0
0
0
0
0
0
0
0
0
0
0
0
0
0
0
0
0
0
0
0
0
0
0
0
0
0
0
0
0
0
0
0
0
0
0
0
0
0
0
0
0
0
0
0
0
0
0
0
0
0
0
0
0
0
0
0
0
0
0
0
0
0
0
0
0
0
0
0
0
0
0
0
0
0
0
0
0
0
0
0
0
0
0
0
0
0
0
0
0
0
0
0
0
0
0
0
0
0
0
0
0
0
0
0
0
0
0
0
0
0
0
0
0
0
0
0
0
0
0
0
0
0
0
0
0
0
0
0
0
0
0
0
0
0
0
0
0
0
0
0
0
0
0
0
0
0
0
0
0
0
0
0
0
0
0
0
0
0
0
0
0
0
0
0
0
0
0
0
0
0
0
0
0
0
0
0
0
0
0
0
0
0
0
0
0
0
0
0
0
0
0
0
0
0
0
0
0
0
0
0
0
0
0
0
0
0
0
0
0
0
0
0
0
0
0
0
0
0
0
0
0
0
0
0
0
0
0
0
0
0
0
0
0
0
0
0
0
0
0
0
0
0
0
0
0
0
0
0
0
0
0
0
0
0
0
0
0
0
0
0
0
0
0
0
0
0
0
0
0
0
0
0
0
0
0
0
0
0
0
0
0
0
0
0
0
0
0
0
0
0
0
0
0
0
0
0
0
0
0
0
0
0
0
0
0
0
0
0
0
0
0
0
0
0
0
0
0
0
0
0
0
0
0
0
0
0
0
0
0
0
0
0
0
0
0
0
0
0
0
0
0
0
0
0
0
0
0
0
0
0
0
0
0
0
0
0
0
0
0
0
0
0
0
0
0
0
0
0
0
0
0
0
0
0
0
0
0
0
0
0
0
0
0
0
0
0
0
0
0
0
0
0
0
0
0
0
0
0
0
0
0
0
0
0
0
0
0
0
0
0
0
0
0
0
0
0
0
0
0
0
0
0
0
0
0
0
0
0
0
0
0
0
0
0
0
0
0
0
0
0
0
0
0
0
0
0
0
0
0
0
0
0
0
0
0
0
0
0
0
0
0
0
0
0
0
0
0
0
0
0
0
0
0
0
0
0
0
0
0
0
0
0
0
0
0
0
0
0
0
0
0
0
0
0
0
0
0
0
0
0
0
0
0
0
0
0
0
0
0
0
0
0
0
0
0
0
0
0
0
0
0
0
0
0
0
0
0
0
0
0
0
0
0
0
0
0
0
0
0
0
0
0
0
0
0
0
0
0
0
0
0
0
0
0
0
0
0
0
0
0
0
0
0
0
0
0
0
0
0
0
0
0
0
0
0
0
0
0
0
0
0
0
0
0
0
0
0
0
0
0
0
0
0
0
0
0
0
0
0
0
0
0
0
0
0
0
0
0
0
0
0
0
0
0
0
0
0
0
0
0
0
0
0
0
0
0
0
0
0
0
0
0
0
0
0
0
0
0
0
0
0
0
0
0
0
0
0
0
0
0
0
0
0
0
0
0
0
0
0
0
0
0
0
0
0
0
0
0
0
0
0
0
0
0
0
0
0
0
0
0
0
0
0
0
0
0
0
0
0
0
0
0
0
0
0
0
0
0
0
0
0
0
0
0
0
0
0
0
0
0
0
0
0
0
0
0
0
0
0
0
0
0
0
0
0
0
0
0
0
0
0
0
0
0
0
0
0
0
0
0
0
0
0
0
0
0
0
0
0
0
0
0
0
0
0
0
0
0
0
0
0
0
0
0
0
0
0
0
0
0
0
0
0
0
0
0
0
0
0
0
0
0
0
0
0
0
0
0
0
0
0
0
0
0
0
0
0
0
0
0
0
0
0
0
0
0
0
0
0
0
0
0
0
0
0
0
0
0
0
0
0
0
0
0
0
0
0
0
0
0
0
0
0
0
0
0
0
0
0
0
0
0
0
0
0
0
0
0
0
0
0
0
0
0
0
0
0
0
0
0
0
0
0
0
0
0
0
0
0
0
0
0
0
0
0
0
0
0
0
0
0
0
0
0
0
0
0
0
0
0
0
0
0
0
0
0
0
0
0
0
0
0
0
0
0
0
0
0
0
0
0
0
0
0
0
0
0
0
0
0
0
0
0
0
0
0
0
0
0
0
0
0
0
0
0
0
0
0
0
0
0
0
0
0
0
0
0
0
0
0
0
0
0
0
0
0
0
0
0
0
0
0
0
0
0
0
0
0
0
0
0
0
0
0
0
0
0
0
0
0
0
0
0
0
0
0
0
0
0
0
0
0
0
0
0
0
0
0
0
0
0
0
0
0
0
0
0
0
0
0
0
0
0
0
0
0
0
0
0
0
0
0
0
0
0
0
0
0
0
0
0
0
0
0
0
0
0
0
0
0
0
0
0
0
0
0
0
0
0
0
0
0
0
0
0
0
0
0
0
0
0
0
0
0
0
0
0
0
0
0
0
0
0
0
0
0
0
0
0
0
0
0
0
0
0
0
0
0
0
0
0
0
0
0
0
0
0
0
0
0
0
0
0
0
0
0
0
0
0
0
0
0
0
0
0
0
0
0
0
0
0
0
0
0
0
0
0
0
0
0
0
0
0
0
0
0
0
0
0
0
0
0
0
0
0
0
0
0
0
0
0
0
0
0
0
0
0
0
0
0
0
0
0
0
0
0
0
0
0
0
0
0
0
0
0
0
0
0
0
0
0
0
0
0
0
0
0
0
0
0
0
0
0
0
0
0
0
0
0
0
0
0
0
0
0
0
0
0
0
0
0
0
0
0
0
0
0
0
0
0
0
0
0
0
0
0
0
0
0
0
0
0
0
0
0
0
0
0
0
0
0
0
0
0
0
0
0
0
0
0
0
0
0
0
0
0
0
0
0
0
0
0
0
0
0
0
0
0
0
0
0
0
0
0
0
0
0
0
0
0
0
0
0
0
0
0
0
0
0
0
0
0
0
0
0
0
0
0
0
0
0
0
0
0
0
0
0
0
0
0
0
0
0
0
0
0
0
0
0
0
0
0
0
0
0
0
0
0
0
0
0
0
0
0
0
0
0
0
0
0
0
0
0
0
0
0
0
0
0
0
0
0
0
0
0
0
0
0
0
0
0
0
0
0
0
0
0
0
0
0
0
0
0
0
0
0
0
0
0
0
0
0
0
0
0
0
0
0
0
0
0
0
0
0
0
0
0
0
0
0
0
0
0
0
0
0
0
0
0
0
0
0
0
0
0
0
0
0
0
0
0
0
0
0
0
0
0
0
0
0
0
0
0
0
0
0
0
0
0
0
0
0
0
0
0
0
0
0
0
0
0
0
0
0
0
0
0
0
0
0
0
0
0
0
0
0
0
0
0
0
0
0
0
0
0
0
0
0
0
0
0
0
0
0
0
0
0
0
0
0
0
0
0
0
0
0
0
0
0
0
0
0
0
0
0
0
0
0
0
0
0
0
0
0
0
0
0
0
0
0
0
0
0
0
0
0
0
0
0
0
0
0
0
0
0
0
0
0
0
0
0
0
0
0
0
0
0
0
0
0
0
0
0
0
0
0
0
0
0
0
0
0
0
0
0
0
0
0
0
0
0
0
0
0
0
0
0
0
0
0
0
0
0
0
0
0
0
0
0
0
0
0
0
0
0
0
0
0
0
0
0
0
0
0
0
0
0
0
0
0
0
0
0
0
0
0
0
0
0
0
0
0
0
0
0
0
0
0
0
0
0
0
0
0
0
0
0
0
0
0
0
0
0
0
0
0
0
0
0
0
0
0
0
0
0
0
0
0
0
0
0
0
0
0
0
0
0
0
0
0
0
0
0
0
0
0
0
0
0
0
0
0
0
0
0
0
0
0
0
0
0
0
0
0
0
0
0
0
0
0
0
0
0
0
0
0
0
0
0
0
0
0
0
0
0
0
0
0
0
0
0
0
0
0
0
0
0
0
0
0
0
0
0
0
0
0
0
0
0
0
0
0
0
0
0
0
0
0
0
0
0
0
0
0
0
0
0
0
0
0
0
0
0
0
0
0
0
0
0
0
0
0
0
0
0
0
0
0
0
0
0
0
0
0
0
0
0
0
0
0
0
0
0
0
0
0
0
0
0
0
0
0
0
0
0
0
0
0
0
0
0
0
0
0
0
0
0
0
0
0
0
0
0
0
0
0
0
0
0
0
0
0
0
0
0
0
0
0
0
0
0
0
0
0
0
0
0
0
0
0
0
0
0
0
0
0
0
0
0
0
0
0
0
0
0
0
0
0
0
0
0
0
0
0
0
0
0
0
0
0
0
0
0
0
0
0
0
0
0
0
0
0
0
0
0
0
0
0
0
0
0
0
0
0
0
0
0
0
0
0
0
0
0
0
0
0
0
0
0
0
0
0
0
0
0
0
0
0
0
0
0
0
0
0
0
0
0
0
0
0
0
0
0
0
0
0
0
0
0
0
0
0
0
0
0
0
0
0
0
0
0
0
0
0
0
0
0
0
0
0
0
0
0
0
0
0
0
0
0
0
0
0
0
0
0
0
0
0
0
0
0
0
0
0
0
0
0
0
0
0
0
0
0
0
0
0
0
0
0
0
0
0
0
0
0
0
0
0
0
0
0
0
0
0
0
0
0
0
0
0
0
0
0
0
0
0
0
0
0
0
0
0
0
0
0
0
0
0
0
0
0
0
0
0
0
0
0
0
0
0
0
0
0
0
0
0
0
0
0
0
0
0
0
0
0
0
0
0
0
0
0
0
0
0
0
0
0
0
0
0
0
0
0
0
0
0
0
0
0
0
0
0
0
0
0
0
0
0
0
0
0
0
0
0
0
0
0
0
0
0
0
0
0
0
0
0
0
0
0
0
0
0
0
0
0
0
0
0
0
0
0
0
0
0
0
0
0
0
0
0
0
0
0
0
0
0
0
0
0
0
0
0
0
0
0
0
0
0
0
0
0
0
0
0
0
0
0
0
0
0
